0.000100,-1.008689
0.000200,-0.957405
0.000300,-0.892488
0.000400,-0.886321
0.000500,-0.944746
0.000600,-1.016154
0.000700,-1.038875
0.000800,-1.043744
0.000900,-1.022970
0.001000,-1.039849
0.001100,-1.082369
0.001200,-1.128784
0.001300,-1.150207
0.001400,-1.155075
0.001500,-1.176498
0.001600,-1.191753
0.001700,-1.198894
0.001800,-1.191753
0.001900,-1.174226
0.002000,-1.168059
0.002100,-1.208307
0.002200,-1.254073
0.002300,-1.270627
0.002400,-1.238493
0.002500,-1.201491
0.002600,-1.209605
0.002700,-1.208956
0.002800,-1.213176
0.002900,-1.209281
0.003000,-1.202140
0.003100,-1.206684
0.003200,-1.202464
0.003300,-1.200517
0.003400,-1.207982
0.003500,-1.199219
0.003600,-1.203763
0.003700,-1.206359
0.003800,-1.206359
0.003900,-1.210579
0.004000,-1.214799
0.004100,-1.231028
0.004200,-1.248555
0.004300,-1.277443
0.004400,-1.346254
0.004500,-1.490369
0.004600,-1.608192
0.004700,-1.612412
0.004800,-1.529643
0.004900,-1.463104
0.005000,-1.506273
0.005100,-1.646169
0.005200,-1.779897
0.005300,-1.826637
0.005400,-1.789309
0.005500,-1.741920
0.005600,-1.743868
0.005700,-1.813653
0.005800,-1.899343
0.005900,-1.973348
0.006000,-1.995744
0.006100,-1.987630
0.006200,-1.981463
0.006300,-2.004183
0.006400,-2.044432
0.006500,-2.072346
0.006600,-2.097014
0.006700,-2.113243
0.006800,-2.134990
0.006900,-2.164852
0.007000,-2.199582
0.007100,-2.210618
0.007200,-2.216136
0.007300,-2.242752
0.007400,-2.275859
0.007500,-2.289816
0.007600,-2.231391
0.007700,-2.167773
0.007800,-2.164852
0.007900,-2.267096
0.008000,-2.369989
0.008100,-2.415755
0.008200,-2.355382
0.008300,-2.258007
0.008400,-2.220031
0.008500,-2.278781
0.008600,-2.390437
0.008700,-2.466065
0.008800,-2.456003
0.008900,-2.395631
0.009000,-2.343697
0.009100,-2.333635
0.009200,-2.362199
0.009300,-2.384595
0.009400,-2.381349
0.009500,-2.356356
0.009600,-2.323249
0.009700,-2.284948
0.009800,-2.230418
0.009900,-2.154141
0.010000,-2.080785
0.010100,-2.026580
0.010200,-1.980489
0.010300,-1.945434
0.010400,-1.882465
0.010500,-1.784765
0.010600,-1.701997
0.010700,-1.600727
0.010800,-1.539381
0.010900,-1.485825
0.011000,-1.421233
0.011100,-1.346579
0.011200,-1.258942
0.011300,-1.173901
0.011400,-1.104116
0.011500,-1.054455
0.011600,-1.021348
0.011700,-0.996679
0.011800,-0.977529
0.011900,-0.958379
0.012000,-0.942474
0.012100,-0.924947
0.012200,-0.897033
0.012300,-0.887620
0.012400,-0.888918
0.012500,-0.897357
0.012600,-0.906770
0.012700,-0.864250
0.012800,-0.767524
0.012900,-0.621787
0.013000,-0.592250
0.013100,-0.696766
0.013200,-0.813615
0.013300,-0.821405
0.013400,-0.706178
0.013500,-0.603286
0.013600,-0.534799
0.013700,-0.587381
0.013800,-0.662035
0.013900,-0.699687
0.014000,-0.654894
0.014100,-0.588680
0.014200,-0.532852
0.014300,-0.499744
0.014400,-0.514675
0.014500,-0.528632
0.014600,-0.542914
0.014700,-0.527334
0.014800,-0.509482
0.014900,-0.500393
0.015000,-0.493253
0.015100,-0.508508
0.015200,-0.522790
0.015300,-0.555897
0.015400,-0.583486
0.015500,-0.625033
0.015600,-0.650675
0.015700,-0.645482
0.015800,-0.644183
0.015900,-0.668527
0.016000,-0.788298
0.016100,-0.868794
0.016200,-0.862951
0.016300,-0.785701
0.016400,-0.734742
0.016500,-0.772393
0.016600,-0.892488
0.016700,-0.997004
0.016800,-1.021672
0.016900,-0.956756
0.017000,-0.886971
0.017100,-0.896708
0.017200,-0.978503
0.017300,-1.052507
0.017400,-1.072631
0.017500,-1.071658
0.017600,-1.063543
0.017700,-1.096651
0.017800,-1.137548
0.017900,-1.182665
0.018000,-1.199219
0.018100,-1.217071
0.018200,-1.233624
0.018300,-1.257643
0.018400,-1.256994
0.018500,-1.245309
0.018600,-1.229405
0.018700,-1.230703
0.018800,-1.287505
0.018900,-1.334569
0.019000,-1.345605
0.019100,-1.301787
0.019200,-1.287180
0.019300,-1.292698
0.019400,-1.294970
0.019500,-1.294646
0.019600,-1.287180
0.019700,-1.274522
0.019800,-1.264135
0.019900,-1.252450
0.020000,-1.249204
0.020100,-1.247906
0.020200,-1.238493
0.020300,-1.238168
0.020400,-1.240116
0.020500,-1.237844
0.020600,-1.241414
0.020700,-1.254722
0.020800,-1.264784
0.020900,-1.291400
0.021000,-1.326779
0.021100,-1.429347
0.021200,-1.582875
0.021300,-1.669538
0.021400,-1.651362
0.021500,-1.553013
0.021600,-1.521204
0.021700,-1.598779
0.021800,-1.751009
0.021900,-1.867534
0.022000,-1.881816
0.022100,-1.823066
0.022200,-1.781520
0.022300,-1.798398
0.022400,-1.891228
0.022500,-1.984059
0.022600,-2.041835
0.022700,-2.060661
0.022800,-2.048327
0.022900,-2.046379
0.023000,-2.065205
0.023100,-2.097014
0.023200,-2.116814
0.023300,-2.137912
0.023400,-2.153492
0.023500,-2.176212
0.023600,-2.213215
0.023700,-2.237559
0.023800,-2.246322
0.023900,-2.249893
0.024000,-2.277158
0.024100,-2.306695
0.024200,-2.306370
0.024300,-2.233014
0.024400,-2.181406
0.024500,-2.204451
0.024600,-2.314160
0.024700,-2.402447
0.024800,-2.413483
0.024900,-2.324222
0.025000,-2.221979
0.025100,-2.203802
0.025200,-2.282676
0.025300,-2.392060
0.025400,-2.444643
0.025500,-2.404394
0.025600,-2.342399
0.025700,-2.302800
0.025800,-2.302151
0.025900,-2.319354
0.026000,-2.314485
0.026100,-2.294036
0.026200,-2.276509
0.026300,-2.245024
0.026400,-2.209644
0.026500,-2.143105
0.026600,-2.059687
0.026700,-1.982761
0.026800,-1.937644
0.026900,-1.908431
0.027000,-1.876298
0.027100,-1.797749
0.027200,-1.696803
0.027300,-1.597481
0.027400,-1.500106
0.027500,-1.441357
0.027600,-1.385204
0.027700,-1.322560
0.027800,-1.246608
0.027900,-1.167085
0.028000,-1.082694
0.028100,-1.018751
0.028200,-0.969739
0.028300,-0.936956
0.028400,-0.904173
0.028500,-0.885348
0.028600,-0.862302
0.028700,-0.845749
0.028800,-0.823028
0.028900,-0.799658
0.029000,-0.802904
0.029100,-0.793816
0.029200,-0.805176
0.029300,-0.786675
0.029400,-0.742856
0.029500,-0.618541
0.029600,-0.486436
0.029700,-0.508183
0.029800,-0.620813
0.029900,-0.719811
0.030000,-0.688002
0.030100,-0.569205
0.030200,-0.464040
0.030300,-0.434503
0.030400,-0.502990
0.030500,-0.575372
0.030600,-0.600365
0.030700,-0.555897
0.030800,-0.484164
0.030900,-0.431907
0.031000,-0.424766
0.031100,-0.432231
0.031200,-0.455277
0.031300,-0.465663
0.031400,-0.454627
0.031500,-0.442618
0.031600,-0.436451
0.031700,-0.438723
0.031800,-0.455277
0.031900,-0.474427
0.032000,-0.505911
0.032100,-0.536422
0.032200,-0.584460
0.032300,-0.603611
0.032400,-0.607181
0.032500,-0.612699
0.032600,-0.664307
0.032700,-0.790570
0.032800,-0.840880
0.032900,-0.816212
0.033000,-0.739610
0.033100,-0.703257
0.033200,-0.759085
0.033300,-0.885023
0.033400,-0.971686
0.033500,-0.967791
0.033600,-0.896708
0.033700,-0.841854
0.033800,-0.860030
0.033900,-0.937605
0.034000,-1.002846
0.034100,-1.019400
0.034200,-1.019725
0.034300,-1.018751
0.034400,-1.052183
0.034500,-1.096326
0.034600,-1.143715
0.034700,-1.165787
0.034800,-1.183639
0.034900,-1.211228
0.035000,-1.232001
0.035100,-1.231352
0.035200,-1.212851
0.035300,-1.198569
0.035400,-1.208307
0.035500,-1.262512
0.035600,-1.301462
0.035700,-1.309252
0.035800,-1.269328
0.035900,-1.260565
0.036000,-1.271276
0.036100,-1.271600
0.036200,-1.273872
0.036300,-1.268679
0.036400,-1.269004
0.036500,-1.266407
0.036600,-1.264784
0.036700,-1.252775
0.036800,-1.258617
0.036900,-1.259266
0.037000,-1.265109
0.037100,-1.271276
0.037200,-1.275495
0.037300,-1.287830
0.037400,-1.301787
0.037500,-1.321586
0.037600,-1.347228
0.037700,-1.390722
0.037800,-1.514388
0.037900,-1.659476
0.038000,-1.724393
0.038100,-1.661424
0.038200,-1.576059
0.038300,-1.555285
0.038400,-1.664994
0.038500,-1.818197
0.038600,-1.923038
0.038700,-1.919792
0.038800,-1.857147
0.038900,-1.818847
0.039000,-1.862341
0.039100,-1.952250
0.039200,-2.038914
0.039300,-2.087926
0.039400,-2.094093
0.039500,-2.084355
0.039600,-2.092794
0.039700,-2.121682
0.039800,-2.147324
0.039900,-2.173291
0.040000,-2.187573
0.040100,-2.201854
0.040200,-2.219706
0.040300,-2.253788
0.040400,-2.270991
0.040500,-2.268069
0.040600,-2.281053
0.040700,-2.302800
0.040800,-2.319029
0.040900,-2.290790
0.041000,-2.202828
0.041100,-2.164203
0.041200,-2.221329
0.041300,-2.331688
0.041400,-2.413158
0.041500,-2.393034
0.041600,-2.292413
0.041700,-2.214838
0.041800,-2.225224
0.041900,-2.324871
0.042000,-2.420299
0.042100,-2.459574
0.042200,-2.424194
0.042300,-2.373234
0.042400,-2.353110
0.042500,-2.363172
0.042600,-2.375182
0.042700,-2.379401
0.042800,-2.369015
0.042900,-2.346619
0.043000,-2.314485
0.043100,-2.270991
0.043200,-2.198609
0.043300,-2.121033
0.043400,-2.067477
0.043500,-2.021386
0.043600,-1.995744
0.043700,-1.954847
0.043800,-1.866885
0.043900,-1.793854
0.044000,-1.700374
0.044100,-1.618904
0.044200,-1.552689
0.044300,-1.494264
0.044400,-1.426426
0.044500,-1.354044
0.044600,-1.271925
0.044700,-1.193051
0.044800,-1.132030
0.044900,-1.097949
0.045000,-1.064842
0.045100,-1.046340
0.045200,-1.029787
0.045300,-1.007715
0.045400,-0.980775
0.045500,-0.949290
0.045600,-0.940527
0.045700,-0.928842
0.045800,-0.936307
0.045900,-0.934684
0.046000,-0.928192
0.046100,-0.841204
0.046200,-0.700336
0.046300,-0.601663
0.046400,-0.645482
0.046500,-0.784727
0.046600,-0.846073
0.046700,-0.795114
0.046800,-0.683782
0.046900,-0.576995
0.047000,-0.580241
0.047100,-0.648078
0.047200,-0.716565
0.047300,-0.721109
0.047400,-0.668851
0.047500,-0.602961
0.047600,-0.561415
0.047700,-0.549081
0.047800,-0.561415
0.047900,-0.585759
0.048000,-0.592575
0.048100,-0.587706
0.048200,-0.583162
0.048300,-0.576995
0.048400,-0.584785
0.048500,-0.604260
0.048600,-0.647429
0.048700,-0.677615
0.048800,-0.725004
0.048900,-0.755515
0.049000,-0.767524
0.049100,-0.771744
0.049200,-0.781806
0.049300,-0.870741
0.049400,-0.987591
0.049500,-1.015830
0.049600,-0.967142
0.049700,-0.889567
0.049800,-0.876909
0.049900,-0.953834
0.050000,-1.073605
0.050100,-1.126188
0.050200,-1.096975
0.050300,-1.029137
0.050400,-1.001548
0.050500,-1.046665
0.050600,-1.114503
0.050700,-1.143390
0.050800,-1.147610
0.050900,-1.141443
0.051000,-1.159295
0.051100,-1.189157
0.051200,-1.221290
0.051300,-1.236546
0.051400,-1.241414
0.051500,-1.261863
0.051600,-1.289128
0.051700,-1.294646
0.051800,-1.283610
0.051900,-1.271276
0.052000,-1.256020
0.052100,-1.285882
0.052200,-1.329701
0.052300,-1.338140
0.052400,-1.321586
0.052500,-1.282961
0.052600,-1.275171
0.052700,-1.274522
0.052800,-1.264784
0.052900,-1.254398
0.053000,-1.240116
0.053100,-1.237195
0.053200,-1.229080
0.053300,-1.216746
0.053400,-1.213176
0.053500,-1.207658
0.053600,-1.206684
0.053700,-1.205710
0.053800,-1.212202
0.053900,-1.219992
0.054000,-1.226808
0.054100,-1.244335
0.054200,-1.260565
0.054300,-1.294646
0.054400,-1.351123
0.054500,-1.492316
0.054600,-1.631238
0.054700,-1.657529
0.054800,-1.585147
0.054900,-1.513090
0.055000,-1.543276
0.055100,-1.676355
0.055200,-1.827935
0.055300,-1.898694
0.055400,-1.875324
0.055500,-1.826961
0.055600,-1.813329
0.055700,-1.883114
0.055800,-1.973348
0.055900,-2.043782
0.056000,-2.064556
0.056100,-2.066503
0.056200,-2.069100
0.056300,-2.093119
0.056400,-2.125577
0.056500,-2.143429
0.056600,-2.153167
0.056700,-2.160957
0.056800,-2.175563
0.056900,-2.196661
0.057000,-2.229119
0.057100,-2.231716
0.057200,-2.227496
0.057300,-2.238857
0.057400,-2.267420
0.057500,-2.280404
0.057600,-2.233014
0.057700,-2.155764
0.057800,-2.140508
0.057900,-2.214189
0.058000,-2.308642
0.058100,-2.356031
0.058200,-2.311888
0.058300,-2.213864
0.058400,-2.163229
0.058500,-2.199907
0.058600,-2.301501
0.058700,-2.369015
0.058800,-2.358304
0.058900,-2.306046
0.059000,-2.261578
0.059100,-2.261578
0.059200,-2.283974
0.059300,-2.285597
0.059400,-2.262876
0.059500,-2.238532
0.059600,-2.216785
0.059700,-2.197310
0.059800,-2.144728
0.059900,-2.058064
0.060000,-1.973023
0.060100,-1.912976
0.060200,-1.875973
0.060300,-1.850006
0.060400,-1.799047
0.060500,-1.701348
0.060600,-1.629615
0.060700,-1.541328
0.060800,-1.465376
0.060900,-1.403056
0.061000,-1.339763
0.061100,-1.267381
0.061200,-1.194025
0.061300,-1.113204
0.061400,-1.046665
0.061500,-1.000250
0.061600,-0.968441
0.061700,-0.930140
0.061800,-0.908068
0.061900,-0.883400
0.062000,-0.870417
0.062100,-0.844126
0.062200,-0.833090
0.062300,-0.813615
0.062400,-0.818159
0.062500,-0.825625
0.062600,-0.831792
0.062700,-0.817510
0.062800,-0.711047
0.062900,-0.579591
0.063000,-0.515973
0.063100,-0.590627
0.063200,-0.720785
0.063300,-0.730522
0.063400,-0.657816
0.063500,-0.535124
0.063600,-0.478646
0.063700,-0.513052
0.063800,-0.591926
0.063900,-0.637367
0.064000,-0.616269
0.064100,-0.542589
0.064200,-0.488384
0.064300,-0.469234
0.064400,-0.490331
0.064500,-0.513377
0.064600,-0.527334
0.064700,-0.518895
0.064800,-0.506885
0.064900,-0.512078
0.065000,-0.520518
0.065100,-0.534799
0.065200,-0.566284
0.065300,-0.588031
0.065400,-0.612699
0.065500,-0.654894
0.065600,-0.698713
0.065700,-0.696766
0.065800,-0.700660
0.065900,-0.716890
0.066000,-0.826598
0.066100,-0.905472
0.066200,-0.915858
0.066300,-0.848345
0.066400,-0.802579
0.066500,-0.809071
0.066600,-0.914885
0.066700,-1.003171
0.066800,-1.028813
0.066900,-0.966493
0.067000,-0.907744
0.067100,-0.911963
0.067200,-0.979152
0.067300,-1.054130
0.067400,-1.070684
0.067500,-1.063868
0.067600,-1.046990
0.067700,-1.080746
0.067800,-1.129109
0.067900,-1.173577
0.068000,-1.183314
0.068100,-1.188183
0.068200,-1.197920
0.068300,-1.221615
0.068400,-1.227782
0.068500,-1.214149
0.068600,-1.201491
0.068700,-1.194674
0.068800,-1.235247
0.068900,-1.275171
0.069000,-1.284584
0.069100,-1.269328
0.069200,-1.245309
0.069300,-1.251801
0.069400,-1.248555
0.069500,-1.243362
0.069600,-1.235572
0.069700,-1.223887
0.069800,-1.221615
0.069900,-1.214474
0.070000,-1.209281
0.070100,-1.203114
0.070200,-1.199868
0.070300,-1.207982
0.070400,-1.207009
0.070500,-1.218693
0.070600,-1.227133
0.070700,-1.242713
0.070800,-1.250827
0.070900,-1.278417
0.071000,-1.301787
0.071100,-1.393968
0.071200,-1.551390
0.071300,-1.658827
0.071400,-1.656880
0.071500,-1.569892
0.071600,-1.524125
0.071700,-1.585472
0.071800,-1.732832
0.071900,-1.865586
0.072000,-1.898045
0.072100,-1.858770
0.072200,-1.810407
0.072300,-1.834751
0.072400,-1.915897
0.072500,-2.015544
0.072600,-2.078188
0.072700,-2.097014
0.072800,-2.092470
0.072900,-2.095716
0.073000,-2.124928
0.073100,-2.169072
0.073200,-2.201205
0.073300,-2.222303
0.073400,-2.231391
0.073500,-2.245998
0.073600,-2.271315
0.073700,-2.305396
0.073800,-2.309291
0.073900,-2.317406
0.074000,-2.335907
0.074100,-2.367392
0.074200,-2.372261
0.074300,-2.311564
0.074400,-2.241454
0.074500,-2.263201
0.074600,-2.364471
0.074700,-2.454705
0.074800,-2.482944
0.074900,-2.419325
0.075000,-2.333635
0.075100,-2.321301
0.075200,-2.395306
0.075300,-2.502419
0.075400,-2.553703
0.075500,-2.533579
0.075600,-2.477750
0.075700,-2.442046
0.075800,-2.453082
0.075900,-2.476452
0.076000,-2.483268
0.076100,-2.465416
0.076200,-2.440748
0.076300,-2.418676
0.076400,-2.392709
0.076500,-2.332986
0.076600,-2.257683
0.076700,-2.185625
0.076800,-2.133043
0.076900,-2.100260
0.077000,-2.068451
0.077100,-1.991525
0.077200,-1.904212
0.077300,-1.834426
0.077400,-1.731534
0.077500,-1.667591
0.077600,-1.611114
0.077700,-1.543276
0.077800,-1.466674
0.077900,-1.386503
0.078000,-1.300813
0.078100,-1.229080
0.078200,-1.184612
0.078300,-1.152154
0.078400,-1.122942
0.078500,-1.099572
0.078600,-1.068737
0.078700,-1.042770
0.078800,-1.004145
0.078900,-0.988565
0.079000,-0.961949
0.079100,-0.960326
0.079200,-0.965195
0.079300,-0.947667
0.079400,-0.907095
0.079500,-0.777911
0.079600,-0.649377
0.079700,-0.624384
0.079800,-0.736040
0.079900,-0.827897
0.080000,-0.820107
0.080100,-0.703582
0.080200,-0.603935
0.080300,-0.567257
0.080400,-0.621787
0.080500,-0.684107
0.080600,-0.700985
0.080700,-0.652622
0.080800,-0.572775
0.080900,-0.519868
0.081000,-0.490981
0.081100,-0.502341
0.081200,-0.519219
0.081300,-0.523114
0.081400,-0.503639
0.081500,-0.486436
0.081600,-0.468260
0.081700,-0.454952
0.081800,-0.467286
0.081900,-0.490656
0.082000,-0.520518
0.082100,-0.549405
0.082200,-0.582188
0.082300,-0.593224
0.082400,-0.577319
0.082500,-0.576021
0.082600,-0.614322
0.082700,-0.726627
0.082800,-0.782780
0.082900,-0.752594
0.083000,-0.674694
0.083100,-0.647754
0.083200,-0.688976
0.083300,-0.806150
0.083400,-0.877882
0.083500,-0.875935
0.083600,-0.802255
0.083700,-0.753892
0.083800,-0.772393
0.083900,-0.846398
0.084000,-0.904173
0.084100,-0.927219
0.084200,-0.922350
0.084300,-0.923324
0.084400,-0.956107
0.084500,-1.000899
0.084600,-1.025892
0.084700,-1.039524
0.084800,-1.047314
0.084900,-1.076851
0.085000,-1.110608
0.085100,-1.118722
0.085200,-1.110932
0.085300,-1.109958
0.085400,-1.134627
0.085500,-1.193376
0.085600,-1.236870
0.085700,-1.257643
0.085800,-1.258617
0.085900,-1.244011
0.086000,-1.263161
0.086100,-1.268679
0.086200,-1.272250
0.086300,-1.275495
0.086400,-1.273872
0.086500,-1.269004
0.086600,-1.269977
0.086700,-1.272899
0.086800,-1.271600
0.086900,-1.275495
0.087000,-1.278417
0.087100,-1.285233
0.087200,-1.293023
0.087300,-1.310875
0.087400,-1.327753
0.087500,-1.343658
0.087600,-1.370598
0.087700,-1.398188
0.087800,-1.510493
0.087900,-1.651037
0.088000,-1.732183
0.088100,-1.689663
0.088200,-1.602999
0.088300,-1.580927
0.088400,-1.672135
0.088500,-1.817548
0.088600,-1.919143
0.088700,-1.918169
0.088800,-1.864288
0.088900,-1.835725
0.089000,-1.877921
0.089100,-1.966207
0.089200,-2.054818
0.089300,-2.101558
0.089400,-2.106752
0.089500,-2.092794
0.089600,-2.105778
0.089700,-2.141807
0.089800,-2.178160
0.089900,-2.195038
0.090000,-2.197959
0.090100,-2.199907
0.090200,-2.234637
0.090300,-2.277158
0.090400,-2.281377
0.090500,-2.275535
0.090600,-2.277807
0.090700,-2.302800
0.090800,-2.328442
0.090900,-2.315459
0.091000,-2.231716
0.091100,-2.184652
0.091200,-2.225549
0.091300,-2.324547
0.091400,-2.392385
0.091500,-2.385244
0.091600,-2.301177
0.091700,-2.224251
0.091800,-2.224900
0.091900,-2.311239
0.092000,-2.420299
0.092100,-2.468013
0.092200,-2.439125
0.092300,-2.379401
0.092400,-2.336881
0.092500,-2.333635
0.092600,-2.353435
0.092700,-2.367716
0.092800,-2.371611
0.092900,-2.351487
0.093000,-2.318055
0.093100,-2.277807
0.093200,-2.231067
0.093300,-2.159334
0.093400,-2.097014
0.093500,-2.054169
0.093600,-2.020412
0.093700,-1.978217
0.093800,-1.890904
0.093900,-1.789959
0.094000,-1.670837
0.094100,-1.584498
0.094200,-1.515037
0.094300,-1.464078
0.094400,-1.396889
0.094500,-1.325806
0.094600,-1.248230
0.094700,-1.165787
0.094800,-1.103142
0.094900,-1.067438
0.095000,-1.028488
0.095100,-1.013558
0.095200,-0.987591
0.095300,-0.973634
0.095400,-0.939228
0.095500,-0.920727
0.095600,-0.895410
0.095700,-0.894761
0.095800,-0.899305
0.095900,-0.901901
0.096000,-0.890216
0.096100,-0.815563
0.096200,-0.685730
0.096300,-0.571477
0.096400,-0.593224
0.096500,-0.717539
0.096600,-0.775314
0.096700,-0.741233
0.096800,-0.619190
0.096900,-0.538370
0.097000,-0.513701
0.097100,-0.587057
0.097200,-0.653596
0.097300,-0.666255
0.097400,-0.606532
0.097500,-0.527658
0.097600,-0.487086
0.097700,-0.472155
0.097800,-0.507210
0.097900,-0.521816
0.098000,-0.514675
0.098100,-0.503964
0.098200,-0.493253
0.098300,-0.486436
0.098400,-0.488384
0.098500,-0.507859
0.098600,-0.533176
0.098700,-0.561090
0.098800,-0.605233
0.098900,-0.640613
0.099000,-0.644183
0.099100,-0.654570
0.099200,-0.654245
0.099300,-0.734092
0.099400,-0.836660
0.099500,-0.874636
0.099600,-0.829520
0.099700,-0.767849
0.099800,-0.752918
0.099900,-0.817185
0.100000,-0.924297
0.100100,-0.990512
0.100200,-0.979476
0.100300,-0.917481
0.100400,-0.876909
0.100500,-0.909042
0.100600,-0.980775
0.100700,-1.036927
0.100800,-1.064842
0.100900,-1.063543
0.101000,-1.063868
0.101100,-1.090484
0.101200,-1.126188
0.101300,-1.157997
0.101400,-1.172603
0.101500,-1.188183
0.101600,-1.207982
0.101700,-1.218693
0.101800,-1.211228
0.101900,-1.198245
0.102000,-1.189806
0.102100,-1.212851
0.102200,-1.260565
0.102300,-1.300488
0.102400,-1.311524
0.102500,-1.281662
0.102600,-1.265433
0.102700,-1.277118
0.102800,-1.284259
0.102900,-1.272250
0.103000,-1.266083
0.103100,-1.257968
0.103200,-1.247257
0.103300,-1.234598
0.103400,-1.228431
0.103500,-1.219343
0.103600,-1.219992
0.103700,-1.219018
0.103800,-1.223238
0.103900,-1.216746
0.104000,-1.221290
0.104100,-1.225510
0.104200,-1.245634
0.104300,-1.270302
0.104400,-1.324832
0.104500,-1.449796
0.104600,-1.592937
0.104700,-1.633510
0.104800,-1.571515
0.104900,-1.484851
0.105000,-1.495238
0.105100,-1.625720
0.105200,-1.769510
0.105300,-1.850656
0.105400,-1.839295
0.105500,-1.779247
0.105600,-1.769835
0.105700,-1.817548
0.105800,-1.914274
0.105900,-1.992823
0.106000,-2.038589
0.106100,-2.048327
0.106200,-2.043782
0.106300,-2.058389
0.106400,-2.084355
0.106500,-2.108699
0.106600,-2.137262
0.106700,-2.160308
0.106800,-2.178160
0.106900,-2.206399
0.107000,-2.234313
0.107100,-2.248594
0.107200,-2.255086
0.107300,-2.272289
0.107400,-2.293062
0.107500,-2.314485
0.107600,-2.269368
0.107700,-2.204127
0.107800,-2.187248
0.107900,-2.263850
0.108000,-2.352461
0.108100,-2.410561
0.108200,-2.373559
0.108300,-2.276833
0.108400,-2.210943
0.108500,-2.240480
0.108600,-2.339802
0.108700,-2.419650
0.108800,-2.444967
0.108900,-2.409912
0.109000,-2.369989
0.109100,-2.356356
0.109200,-2.366743
0.109300,-2.376156
0.109400,-2.363172
0.109500,-2.345645
0.109600,-2.329740
0.109700,-2.309616
0.109800,-2.253139
0.109900,-2.175888
0.110000,-2.097014
0.110100,-2.037940
0.110200,-2.006131
0.110300,-1.983735
0.110400,-1.938618
0.110500,-1.854226
0.110600,-1.774703
0.110700,-1.691935
0.110800,-1.613386
0.110900,-1.553987
0.111000,-1.500756
0.111100,-1.430321
0.111200,-1.351772
0.111300,-1.274522
0.111400,-1.196946
0.111500,-1.140469
0.111600,-1.097949
0.111700,-1.066464
0.111800,-1.037901
0.111900,-1.028488
0.112000,-1.007066
0.112100,-0.990837
0.112200,-0.958054
0.112300,-0.944422
0.112400,-0.933061
0.112500,-0.940527
0.112600,-0.930140
0.112700,-0.920727
0.112800,-0.815563
0.112900,-0.682159
0.113000,-0.582188
0.113100,-0.659114
0.113200,-0.780832
0.113300,-0.826598
0.113400,-0.741882
0.113500,-0.614322
0.113600,-0.530580
0.113700,-0.532852
0.113800,-0.607830
0.113900,-0.652622
0.114000,-0.634446
0.114100,-0.560441
0.114200,-0.489682
0.114300,-0.459821
0.114400,-0.444241
0.114500,-0.462742
0.114600,-0.467935
0.114700,-0.457549
0.114800,-0.445215
0.114900,-0.440995
0.115000,-0.437749
0.115100,-0.435477
0.115200,-0.451057
0.115300,-0.475725
0.115400,-0.505262
0.115500,-0.552002
0.115600,-0.583162
0.115700,-0.585109
0.115800,-0.582188
0.115900,-0.601988
0.116000,-0.696116
0.116100,-0.801930
0.116200,-0.827572
0.116300,-0.768174
0.116400,-0.704555
0.116500,-0.712670
0.116600,-0.803553
0.116700,-0.923973
0.116800,-0.966493
0.116900,-0.924622
0.117000,-0.856460
0.117100,-0.852889
0.117200,-0.922999
0.117300,-0.993109
0.117400,-1.011285
0.117500,-1.009013
0.117600,-1.000899
0.117700,-1.043744
0.117800,-1.082369
0.117900,-1.116775
0.118000,-1.123591
0.118100,-1.129433
0.118200,-1.151180
0.118300,-1.181042
0.118400,-1.193701
0.118500,-1.188507
0.118600,-1.173577
0.118700,-1.168708
0.118800,-1.215448
0.118900,-1.263486
0.119000,-1.286531
0.119100,-1.288803
0.119200,-1.261538
0.119300,-1.260565
0.119400,-1.269328
0.119500,-1.267381
0.119600,-1.256994
0.119700,-1.241090
0.119800,-1.237844
0.119900,-1.231028
0.120000,-1.230378
0.120100,-1.221615
0.120200,-1.219343
0.120300,-1.219343
0.120400,-1.217071
0.120500,-1.224536
0.120600,-1.229080
0.120700,-1.239142
0.120800,-1.253424
0.120900,-1.264784
0.121000,-1.290426
0.121100,-1.357290
0.121200,-1.497185
0.121300,-1.625071
0.121400,-1.643247
0.121500,-1.553663
0.121600,-1.479658
0.121700,-1.523801
0.121800,-1.671811
0.121900,-1.825987
0.122000,-1.885386
0.122100,-1.849033
0.122200,-1.787687
0.122300,-1.792880
0.122400,-1.871754
0.122500,-1.971076
0.122600,-2.038589
0.122700,-2.051897
0.122800,-2.055143
0.122900,-2.069425
0.123000,-2.095067
0.123100,-2.133043
0.123200,-2.151869
0.123300,-2.159659
0.123400,-2.169721
0.123500,-2.180757
0.123600,-2.213215
0.123700,-2.253139
0.123800,-2.270341
0.123900,-2.263850
0.124000,-2.275535
0.124100,-2.295334
0.124200,-2.297931
0.124300,-2.244375
0.124400,-2.174589
0.124500,-2.166150
0.124600,-2.257358
0.124700,-2.352461
0.124800,-2.398552
0.124900,-2.337206
0.125000,-2.236909
0.125100,-2.197959
0.125200,-2.252489
0.125300,-2.350838
0.125400,-2.414132
0.125500,-2.393359
0.125600,-2.346619
0.125700,-2.317406
0.125800,-2.313186
0.125900,-2.329740
0.126000,-2.327793
0.126100,-2.313511
0.126200,-2.295010
0.126300,-2.276509
0.126400,-2.250866
0.126500,-2.209644
0.126600,-2.151219
0.126700,-2.079487
0.126800,-2.028202
0.126900,-1.984384
0.127000,-1.949329
0.127100,-1.889930
0.127200,-1.795477
0.127300,-1.692584
0.127400,-1.593586
0.127500,-1.527371
0.127600,-1.469596
0.127700,-1.414741
0.127800,-1.341710
0.127900,-1.260889
0.128000,-1.175849
0.128100,-1.114827
0.128200,-1.069386
0.128300,-1.041472
0.128400,-1.007390
0.128500,-0.982073
0.128600,-0.955133
0.128700,-0.939877
0.128800,-0.923648
0.128900,-0.901577
0.129000,-0.891190
0.129100,-0.878207
0.129200,-0.895085
0.129300,-0.886971
0.129400,-0.873663
0.129500,-0.763954
0.129600,-0.624708
0.129700,-0.579267
0.129800,-0.657491
0.129900,-0.791868
0.130000,-0.793166
0.130100,-0.713968
0.130200,-0.576670
0.130300,-0.509806
0.130400,-0.540317
0.130500,-0.616918
0.130600,-0.659114
0.130700,-0.627954
0.130800,-0.547133
0.130900,-0.477997
0.131000,-0.457549
0.131100,-0.469234
0.131200,-0.482866
0.131300,-0.494876
0.131400,-0.480919
0.131500,-0.461119
0.131600,-0.448136
0.131700,-0.444565
0.131800,-0.456575
0.131900,-0.489033
0.132000,-0.505587
0.132100,-0.523763
0.132200,-0.562389
0.132300,-0.583486
0.132400,-0.594522
0.132500,-0.590627
0.132600,-0.626980
0.132700,-0.728250
0.132800,-0.813290
0.132900,-0.810369
0.133000,-0.745777
0.133100,-0.701959
0.133200,-0.725004
0.133300,-0.842178
0.133400,-0.931114
0.133500,-0.951562
0.133600,-0.893138
0.133700,-0.841529
0.133800,-0.855486
0.133900,-0.929166
0.134000,-0.994083
0.134100,-1.005443
0.134200,-1.008364
0.134300,-1.004794
0.134400,-1.035954
0.134500,-1.074254
0.134600,-1.109634
0.134700,-1.118073
0.134800,-1.129109
0.134900,-1.154102
0.135000,-1.177472
0.135100,-1.182016
0.135200,-1.178121
0.135300,-1.173901
0.135400,-1.190130
0.135500,-1.243037
0.135600,-1.283610
0.135700,-1.302436
0.135800,-1.299839
0.135900,-1.275171
0.136000,-1.279390
0.136100,-1.281662
0.136200,-1.281987
0.136300,-1.270302
0.136400,-1.266407
0.136500,-1.258617
0.136600,-1.253424
0.136700,-1.251152
0.136800,-1.252125
0.136900,-1.252450
0.137000,-1.259915
0.137100,-1.269328
0.137200,-1.277118
0.137300,-1.289128
0.137400,-1.298865
0.137500,-1.318340
0.137600,-1.338789
0.137700,-1.369949
0.137800,-1.466025
0.137900,-1.613386
0.138000,-1.713357
0.138100,-1.701348
0.138200,-1.617281
0.138300,-1.561777
0.138400,-1.627667
0.138500,-1.773730
0.138600,-1.906484
0.138700,-1.936021
0.138800,-1.892202
0.138900,-1.842866
0.139000,-1.863314
0.139100,-1.933424
0.139200,-2.017816
0.139300,-2.075916
0.139400,-2.102207
0.139500,-2.105129
0.139600,-2.105129
0.139700,-2.122656
0.139800,-2.158036
0.139900,-2.178160
0.140000,-2.206399
0.140100,-2.216785
0.140200,-2.221329
0.140300,-2.248919
0.140400,-2.266122
0.140500,-2.272614
0.140600,-2.283325
0.140700,-2.305396
0.140800,-2.332012
0.140900,-2.322599
0.141000,-2.245349
0.141100,-2.182055
0.141200,-2.203477
0.141300,-2.302151
0.141400,-2.383946
0.141500,-2.403421
0.141600,-2.330389
0.141700,-2.251840
0.141800,-2.249893
0.141900,-2.324547
0.142000,-2.420948
0.142100,-2.462495
0.142200,-2.429387
0.142300,-2.377454
0.142400,-2.348566
0.142500,-2.362199
0.142600,-2.381674
0.142700,-2.376805
0.142800,-2.363821
0.142900,-2.346294
0.143000,-2.324222
0.143100,-2.291439
0.143200,-2.234637
0.143300,-2.163229
0.143400,-2.096365
0.143500,-2.048976
0.143600,-2.012947
0.143700,-1.973673
0.143800,-1.898369
0.143900,-1.800345
0.144000,-1.679925
0.144100,-1.588393
0.144200,-1.518932
0.144300,-1.458560
0.144400,-1.380335
0.144500,-1.306655
0.144600,-1.227782
0.144700,-1.140145
0.144800,-1.072307
0.144900,-1.024593
0.145000,-0.993109
0.145100,-0.955457
0.145200,-0.937605
0.145300,-0.918130
0.145400,-0.893462
0.145500,-0.869443
0.145600,-0.853214
0.145700,-0.843152
0.145800,-0.850617
0.145900,-0.857758
0.146000,-0.850942
0.146100,-0.809071
0.146200,-0.684431
0.146300,-0.554274
0.146400,-0.559467
0.146500,-0.659439
0.146600,-0.762656
0.146700,-0.728899
0.146800,-0.624384
0.146900,-0.523114
0.147000,-0.492604
0.147100,-0.535448
0.147200,-0.611076
0.147300,-0.620813
0.147400,-0.579267
0.147500,-0.502016
0.147600,-0.463391
0.147700,-0.444241
0.147800,-0.451382
0.147900,-0.453654
0.148000,-0.465663
0.148100,-0.457224
0.148200,-0.445864
0.148300,-0.440021
0.148400,-0.436451
0.148500,-0.452355
0.148600,-0.469558
0.148700,-0.503964
0.148800,-0.542914
0.148900,-0.590627
0.149000,-0.614322
0.149100,-0.607505
0.149200,-0.615620
0.149300,-0.661386
0.149400,-0.799009
0.149500,-0.856784
0.149600,-0.828221
0.149700,-0.762656
0.149800,-0.737014
0.149900,-0.788947
0.150000,-0.916508
0.150100,-0.995056
0.150200,-0.988889
0.150300,-0.912937
0.150400,-0.864899
0.150500,-0.902226
0.150600,-0.979476
0.150700,-1.026865
0.150800,-1.032383
0.150900,-1.023295
0.151000,-1.032708
0.151100,-1.074579
0.151200,-1.121643
0.151300,-1.160593
0.151400,-1.164813
0.151500,-1.174226
0.151600,-1.199543
0.151700,-1.227133
0.151800,-1.229080
0.151900,-1.215123
0.152000,-1.206684
0.152100,-1.226159
0.152200,-1.282312
0.152300,-1.316068
0.152400,-1.319314
0.152500,-1.299190
0.152600,-1.283285
0.152700,-1.291725
0.152800,-1.290102
0.152900,-1.287180
0.153000,-1.287180
0.153100,-1.274846
0.153200,-1.256994
0.153300,-1.249853
0.153400,-1.246932
0.153500,-1.240765
0.153600,-1.231352
0.153700,-1.233300
0.153800,-1.233624
0.153900,-1.228431
0.154000,-1.235572
0.154100,-1.236221
0.154200,-1.255371
0.154300,-1.271600
0.154400,-1.312498
0.154500,-1.417987
0.154600,-1.563075
0.154700,-1.623123
0.154800,-1.577682
0.154900,-1.486799
0.155000,-1.470894
0.155100,-1.564374
0.155200,-1.714655
0.155300,-1.804565
0.155400,-1.803916
0.155500,-1.737376
0.155600,-1.706541
0.155700,-1.749386
0.155800,-1.842216
0.155900,-1.923038
0.156000,-1.966532
0.156100,-1.974646
0.156200,-1.964909
0.156300,-1.984708
0.156400,-2.021062
0.156500,-2.057090
0.156600,-2.077539
0.156700,-2.095391
0.156800,-2.109997
0.156900,-2.128174
0.157000,-2.178160
0.157100,-2.194389
0.157200,-2.193415
0.157300,-2.200556
0.157400,-2.223277
0.157500,-2.250542
0.157600,-2.238532
0.157700,-2.166150
0.157800,-2.123954
0.157900,-2.171668
0.158000,-2.271964
0.158100,-2.348891
0.158200,-2.333960
0.158300,-2.239506
0.158400,-2.161606
0.158500,-2.176537
0.158600,-2.270991
0.158700,-2.374533
0.158800,-2.405044
0.158900,-2.358953
0.159000,-2.300203
0.159100,-2.275859
0.159200,-2.289492
0.159300,-2.306695
0.159400,-2.300528
0.159500,-2.278131
0.159600,-2.257683
0.159700,-2.233988
0.159800,-2.203802
0.159900,-2.148947
0.160000,-2.078188
0.160100,-2.013596
0.160200,-1.966532
0.160300,-1.922064
0.160400,-1.877271
0.160500,-1.782169
0.160600,-1.692259
0.160700,-1.579954
0.160800,-1.500431
0.160900,-1.438760
0.161000,-1.384880
0.161100,-1.317042
0.161200,-1.243037
0.161300,-1.159620
0.161400,-1.079772
0.161500,-1.028164
0.161600,-0.999276
0.161700,-0.971037
0.161800,-0.950264
0.161900,-0.934035
0.162000,-0.917806
0.162100,-0.891515
0.162200,-0.876584
0.162300,-0.862302
0.162400,-0.852565
0.162500,-0.860030
0.162600,-0.854512
0.162700,-0.853863
0.162800,-0.774665
0.162900,-0.641262
0.163000,-0.545186
0.163100,-0.581539
0.163200,-0.708126
0.163300,-0.756489
0.163400,-0.702608
0.163500,-0.567582
0.163600,-0.479296
0.163700,-0.474102
0.163800,-0.531229
0.163900,-0.586732
0.164000,-0.577644
0.164100,-0.510780
0.164200,-0.424766
0.164300,-0.382895
0.164400,-0.376079
0.164500,-0.396203
0.164600,-0.417950
0.164700,-0.417301
0.164800,-0.406265
0.164900,-0.395878
0.165000,-0.390685
0.165100,-0.390360
0.165200,-0.412107
0.165300,-0.440021
0.165400,-0.460794
0.165500,-0.502016
0.165600,-0.538370
0.165700,-0.560117
0.165800,-0.558169
0.165900,-0.559792
0.166000,-0.630875
0.166100,-0.739935
0.166200,-0.782131
0.166300,-0.742856
0.166400,-0.670150
0.166500,-0.662035
0.166600,-0.735715
0.166700,-0.856135
0.166800,-0.917157
0.166900,-0.893787
0.167000,-0.824002
0.167100,-0.793491
0.167200,-0.842178
0.167300,-0.918130
0.167400,-0.955782
0.167500,-0.972336
0.167600,-0.956431
0.167700,-0.972011
0.167800,-1.008689
0.167900,-1.051209
0.168000,-1.073930
0.168100,-1.073605
0.168200,-1.092106
0.168300,-1.116126
0.168400,-1.131056
0.168500,-1.120670
0.168600,-1.105739
0.168700,-1.091133
0.168800,-1.128784
0.168900,-1.181367
0.169000,-1.211228
0.169100,-1.217071
0.169200,-1.182989
0.169300,-1.182340
0.169400,-1.189481
0.169500,-1.190779
0.169600,-1.180717
0.169700,-1.182016
0.169800,-1.182016
0.169900,-1.180068
0.170000,-1.183963
0.170100,-1.191429
0.170200,-1.194674
0.170300,-1.198569
0.170400,-1.205061
0.170500,-1.218044
0.170600,-1.231677
0.170700,-1.238818
0.170800,-1.260565
0.170900,-1.280689
0.171000,-1.313472
0.171100,-1.375142
0.171200,-1.512441
0.171300,-1.647791
0.171400,-1.666942
0.171500,-1.607219
0.171600,-1.522827
0.171700,-1.558531
0.171800,-1.685768
0.171900,-1.837672
0.172000,-1.914923
0.172100,-1.885386
0.172200,-1.828909
0.172300,-1.809758
0.172400,-1.871429
0.172500,-1.974322
0.172600,-2.059362
0.172700,-2.104804
0.172800,-2.109348
0.172900,-2.111945
0.173000,-2.125253
0.173100,-2.158036
0.173200,-2.192117
0.173300,-2.227172
0.173400,-2.249893
0.173500,-2.274561
0.173600,-2.299879
0.173700,-2.334609
0.173800,-2.344671
0.173900,-2.343048
0.174000,-2.350838
0.174100,-2.379077
0.174200,-2.389788
0.174300,-2.353759
0.174400,-2.266771
0.174500,-2.248919
0.174600,-2.324222
0.174700,-2.423545
0.174800,-2.481645
0.174900,-2.437826
0.175000,-2.330714
0.175100,-2.271315
0.175200,-2.306695
0.175300,-2.413807
0.175400,-2.498524
0.175500,-2.509559
0.175600,-2.457626
0.175700,-2.414456
0.175800,-2.403096
0.175900,-2.406666
0.176000,-2.407965
0.176100,-2.380051
0.176200,-2.358628
0.176300,-2.344346
0.176400,-2.317406
0.176500,-2.269692
0.176600,-2.180757
0.176700,-2.091172
0.176800,-2.030475
0.176900,-1.982761
0.177000,-1.951925
0.177100,-1.894474
0.177200,-1.792880
0.177300,-1.718226
0.177400,-1.622149
0.177500,-1.553663
0.177600,-1.491343
0.177700,-1.428374
0.177800,-1.348526
0.177900,-1.269004
0.178000,-1.178770
0.178100,-1.106713
0.178200,-1.048612
0.178300,-1.006741
0.178400,-0.975581
0.178500,-0.937930
0.178600,-0.930465
0.178700,-0.898331
0.178800,-0.876259
0.178900,-0.850293
0.179000,-0.833739
0.179100,-0.825949
0.179200,-0.832116
0.179300,-0.827897
0.179400,-0.809395
0.179500,-0.704555
0.179600,-0.568231
0.179700,-0.493577
0.179800,-0.589004
0.179900,-0.698713
0.180000,-0.740584
0.180100,-0.630226
0.180200,-0.518245
0.180300,-0.434828
0.180400,-0.465339
0.180500,-0.544537
0.180600,-0.590627
0.180700,-0.569529
0.180800,-0.508508
0.180900,-0.440995
0.181000,-0.409511
0.181100,-0.409835
0.181200,-0.436126
0.181300,-0.446837
0.181400,-0.439697
0.181500,-0.435802
0.181600,-0.433530
0.181700,-0.420871
0.181800,-0.424766
0.181900,-0.447162
0.182000,-0.462742
0.182100,-0.493902
0.182200,-0.537071
0.182300,-0.581539
0.182400,-0.583162
0.182500,-0.584460
0.182600,-0.593548
0.182700,-0.700985
0.182800,-0.802255
0.182900,-0.817510
0.183000,-0.743830
0.183100,-0.673396
0.183200,-0.682159
0.183300,-0.795114
0.183400,-0.911639
0.183500,-0.959028
0.183600,-0.895734
0.183700,-0.821080
0.183800,-0.806150
0.183900,-0.874636
0.184000,-0.950264
0.184100,-0.979152
0.184200,-0.981424
0.184300,-0.970388
0.184400,-0.995706
0.184500,-1.037577
0.184600,-1.075877
0.184700,-1.100870
0.184800,-1.102493
0.184900,-1.121319
0.185000,-1.144040
0.185100,-1.150531
0.185200,-1.140794
0.185300,-1.125863
0.185400,-1.124565
0.185500,-1.171629
0.185600,-1.226483
0.185700,-1.242063
0.185800,-1.230703
0.185900,-1.197596
0.186000,-1.206035
0.186100,-1.210254
0.186200,-1.212526
0.186300,-1.208956
0.186400,-1.204412
0.186500,-1.205386
0.186600,-1.203763
0.186700,-1.204736
0.186800,-1.208307
0.186900,-1.215772
0.187000,-1.216097
0.187100,-1.227782
0.187200,-1.234273
0.187300,-1.244011
0.187400,-1.251476
0.187500,-1.271925
0.187600,-1.294321
0.187700,-1.324507
0.187800,-1.407925
0.187900,-1.564049
0.188000,-1.676355
0.188100,-1.665968
0.188200,-1.581577
0.188300,-1.519257
0.188400,-1.571515
0.188500,-1.714980
0.188600,-1.857472
0.188700,-1.903563
0.188800,-1.860718
0.188900,-1.794503
0.189000,-1.800021
0.189100,-1.884088
0.189200,-1.986656
0.189300,-2.048976
0.189400,-2.071372
0.189500,-2.076890
0.189600,-2.083706
0.189700,-2.107076
0.189800,-2.145377
0.189900,-2.167124
0.190000,-2.183678
0.190100,-2.202828
0.190200,-2.220031
0.190300,-2.251840
0.190400,-2.279754
0.190500,-2.294036
0.190600,-2.303774
0.190700,-2.315459
0.190800,-2.336232
0.190900,-2.333635
0.191000,-2.272289
0.191100,-2.194064
0.191200,-2.195038
0.191300,-2.288843
0.191400,-2.386542
0.191500,-2.432633
0.191600,-2.360900
0.191700,-2.243076
0.191800,-2.195687
0.191900,-2.250542
0.192000,-2.357979
0.192100,-2.421273
0.192200,-2.406991
0.192300,-2.353110
0.192400,-2.315134
0.192500,-2.308318
0.192600,-2.315459
0.192700,-2.314809
0.192800,-2.295659
0.192900,-2.278131
0.193000,-2.247621
0.193100,-2.209320
0.193200,-2.140833
0.193300,-2.068775
0.193400,-1.996069
0.193500,-1.946408
0.193600,-1.900641
0.193700,-1.871104
0.193800,-1.799047
0.193900,-1.707515
0.194000,-1.639352
0.194100,-1.538083
0.194200,-1.459858
0.194300,-1.398837
0.194400,-1.337815
0.194500,-1.275495
0.194600,-1.196622
0.194700,-1.114827
0.194800,-1.040498
0.194900,-0.996355
0.195000,-0.955457
0.195100,-0.924947
0.195200,-0.898655
0.195300,-0.888918
0.195400,-0.857434
0.195500,-0.836011
0.195600,-0.803878
0.195700,-0.794140
0.195800,-0.786675
0.195900,-0.796412
0.196000,-0.783429
0.196100,-0.757138
0.196200,-0.624059
0.196300,-0.499095
0.196400,-0.467611
0.196500,-0.570179
0.196600,-0.689949
0.196700,-0.692546
0.196800,-0.600365
0.196900,-0.476699
0.197000,-0.426064
0.197100,-0.466962
0.197200,-0.544537
0.197300,-0.584136
0.197400,-0.549081
0.197500,-0.487735
0.197600,-0.427038
0.197700,-0.404966
0.197800,-0.422169
0.197900,-0.435802
0.198000,-0.435802
0.198100,-0.432556
0.198200,-0.430284
0.198300,-0.426064
0.198400,-0.428336
0.198500,-0.426389
0.198600,-0.465988
0.198700,-0.491630
0.198800,-0.521167
0.198900,-0.549081
0.199000,-0.572126
0.199100,-0.574723
0.199200,-0.578618
0.199300,-0.620164
0.199400,-0.716890
0.199500,-0.795114
0.199600,-0.786026
0.199700,-0.717863
0.199800,-0.670474
0.199900,-0.701310
0.200000,-0.820431
0.200100,-0.906121
0.200200,-0.906445
0.200300,-0.847372
0.200400,-0.806474
0.200500,-0.834388
0.200600,-0.891839
0.200700,-0.941825
0.200800,-0.954808
0.200900,-0.964546
0.201000,-0.978503
0.201100,-1.010312
0.201200,-1.042445
0.201300,-1.078799
0.201400,-1.103791
0.201500,-1.128460
0.201600,-1.149557
0.201700,-1.161567
0.201800,-1.169357
0.201900,-1.161567
0.202000,-1.152803
0.202100,-1.169682
0.202200,-1.223562
0.202300,-1.266407
0.202400,-1.275171
0.202500,-1.246608
0.202600,-1.228756
0.202700,-1.243362
0.202800,-1.245309
0.202900,-1.251152
0.203000,-1.254073
0.203100,-1.244011
0.203200,-1.243037
0.203300,-1.239791
0.203400,-1.236870
0.203500,-1.236221
0.203600,-1.237195
0.203700,-1.241739
0.203800,-1.253099
0.203900,-1.258293
0.204000,-1.263161
0.204100,-1.273872
0.204200,-1.293023
0.204300,-1.320288
0.204400,-1.350149
0.204500,-1.451419
0.204600,-1.610789
0.204700,-1.704918
0.204800,-1.677004
0.204900,-1.580603
0.205000,-1.543276
0.205100,-1.635133
0.205200,-1.795152
0.205300,-1.908431
0.205400,-1.930178
0.205500,-1.872727
0.205600,-1.841243
0.205700,-1.868183
0.205800,-1.957768
0.205900,-2.038589
0.206000,-2.090847
0.206100,-2.097014
0.206200,-2.091821
0.206300,-2.104155
0.206400,-2.132394
0.206500,-2.157387
0.206600,-2.177511
0.206700,-2.185301
0.206800,-2.205749
0.206900,-2.230742
0.207000,-2.257358
0.207100,-2.261578
0.207200,-2.258981
0.207300,-2.276184
0.207400,-2.313511
0.207500,-2.332986
0.207600,-2.319678
0.207700,-2.239181
0.207800,-2.189845
0.207900,-2.207048
0.208000,-2.294361
0.208100,-2.386867
0.208200,-2.388490
0.208300,-2.301177
0.208400,-2.230742
0.208500,-2.238857
0.208600,-2.312213
0.208700,-2.393683
0.208800,-2.418351
0.208900,-2.385893
0.209000,-2.339802
0.209100,-2.321301
0.209200,-2.331363
0.209300,-2.335907
0.209400,-2.328766
0.209500,-2.307993
0.209600,-2.281377
0.209700,-2.257683
0.209800,-2.221005
0.209900,-2.148298
0.210000,-2.061635
0.210100,-1.987305
0.210200,-1.939916
0.210300,-1.906484
0.210400,-1.869806
0.210500,-1.787687
0.210600,-1.698102
0.210700,-1.632211
0.210800,-1.537758
0.210900,-1.481281
0.211000,-1.412794
0.211100,-1.341386
0.211200,-1.266732
0.211300,-1.180393
0.211400,-1.098598
0.211500,-1.050884
0.211600,-1.014531
0.211700,-0.976880
0.211800,-0.946694
0.211900,-0.928192
0.212000,-0.921701
0.212100,-0.893138
0.212200,-0.881453
0.212300,-0.848994
0.212400,-0.844126
0.212500,-0.844775
0.212600,-0.852889
0.212700,-0.856460
0.212800,-0.795763
0.212900,-0.667553
0.213000,-0.546809
0.213100,-0.552327
0.213200,-0.676641
0.213300,-0.764928
0.213400,-0.726627
0.213500,-0.601014
0.213600,-0.492279
0.213700,-0.463391
0.213800,-0.537071
0.213900,-0.604909
0.214000,-0.616918
0.214100,-0.538045
0.214200,-0.453978
0.214300,-0.410809
0.214400,-0.414379
0.214500,-0.428012
0.214600,-0.429635
0.214700,-0.416327
0.214800,-0.398150
0.214900,-0.388413
0.215000,-0.392632
0.215100,-0.388737
0.215200,-0.389386
0.215300,-0.403993
0.215400,-0.433205
0.215500,-0.475076
0.215600,-0.523763
0.215700,-0.528308
0.215800,-0.521491
0.215900,-0.518895
0.216000,-0.584460
0.216100,-0.703582
0.216200,-0.745453
0.216300,-0.724355
0.216400,-0.642236
0.216500,-0.625033
0.216600,-0.685405
0.216700,-0.802904
0.216800,-0.867820
0.216900,-0.849319
0.217000,-0.778885
0.217100,-0.733119
0.217200,-0.766875
0.217300,-0.839906
0.217400,-0.885348
0.217500,-0.895734
0.217600,-0.893787
0.217700,-0.898331
0.217800,-0.936307
0.217900,-0.973959
0.218000,-1.008040
0.218100,-1.021997
0.218200,-1.035305
0.218300,-1.056727
0.218400,-1.074904
0.218500,-1.079448
0.218600,-1.071982
0.218700,-1.066789
0.218800,-1.095677
0.218900,-1.152803
0.219000,-1.188183
0.219100,-1.204087
0.219200,-1.178770
0.219300,-1.182340
0.219400,-1.191753
0.219500,-1.195648
0.219600,-1.194999
0.219700,-1.194025
0.219800,-1.183963
0.219900,-1.182665
0.220000,-1.189157
0.220100,-1.187534
0.220200,-1.185586
0.220300,-1.193701
0.220400,-1.200841
0.220500,-1.209281
0.220600,-1.224211
0.220700,-1.234273
0.220800,-1.252450
0.220900,-1.270627
0.221000,-1.300488
0.221100,-1.351123
0.221200,-1.471868
0.221300,-1.613386
0.221400,-1.686092
0.221500,-1.631887
0.221600,-1.548469
0.221700,-1.540679
0.221800,-1.661099
0.221900,-1.812679
0.222000,-1.909730
0.222100,-1.889930
0.222200,-1.821768
0.222300,-1.790608
0.222400,-1.861042
0.222500,-1.968155
0.222600,-2.057415
0.222700,-2.076565
0.222800,-2.067802
0.222900,-2.063257
0.223000,-2.076890
0.223100,-2.106427
0.223200,-2.137262
0.223300,-2.155114
0.223400,-2.159983
0.223500,-2.178809
0.223600,-2.207372
0.223700,-2.220031
0.223800,-2.231716
0.223900,-2.231716
0.224000,-2.247296
0.224100,-2.269368
0.224200,-2.293062
0.224300,-2.272938
0.224400,-2.196012
0.224500,-2.170694
0.224600,-2.214189
0.224700,-2.300528
0.224800,-2.365769
0.224900,-2.335258
0.225000,-2.241454
0.225100,-2.171019
0.225200,-2.189520
0.225300,-2.280079
0.225400,-2.367392
0.225500,-2.391411
0.225600,-2.345645
0.225700,-2.285272
0.225800,-2.258656
0.225900,-2.271640
0.226000,-2.283000
0.226100,-2.288194
0.226200,-2.273912
0.226300,-2.245998
0.226400,-2.208995
0.226500,-2.164527
0.226600,-2.102857
0.226700,-2.033071
0.226800,-1.976594
0.226900,-1.930503
0.227000,-1.875649
0.227100,-1.801644
0.227200,-1.700698
0.227300,-1.625395
0.227400,-1.544250
0.227500,-1.469920
0.227600,-1.405653
0.227700,-1.346579
0.227800,-1.273548
0.227900,-1.199219
0.228000,-1.112880
0.228100,-1.037577
0.228200,-0.972660
0.228300,-0.934360
0.228400,-0.910340
0.228500,-0.879830
0.228600,-0.866197
0.228700,-0.847047
0.228800,-0.822054
0.228900,-0.800632
0.229000,-0.782455
0.229100,-0.777586
0.229200,-0.776613
0.229300,-0.784403
0.229400,-0.761357
0.229500,-0.686703
0.229600,-0.546160
0.229700,-0.449110
0.229800,-0.510131
0.229900,-0.629902
0.230000,-0.684431
0.230100,-0.617568
0.230200,-0.502341
0.230300,-0.405291
0.230400,-0.422169
0.230500,-0.498121
0.230600,-0.561739
0.230700,-0.543238
0.230800,-0.462417
0.230900,-0.393931
0.231000,-0.366017
0.231100,-0.381272
0.231200,-0.399773
0.231300,-0.414055
0.231400,-0.413081
0.231500,-0.396852
0.231600,-0.392632
0.231700,-0.393281
0.231800,-0.406589
0.231900,-0.416002
0.232000,-0.464689
0.232100,-0.489033
0.232200,-0.551353
0.232300,-0.576670
0.232400,-0.587381
0.232500,-0.585759
0.232600,-0.612050
0.232700,-0.705205
0.232800,-0.801930
0.232900,-0.838608
0.233000,-0.805825
0.233100,-0.747725
0.233200,-0.745453
0.233300,-0.842827
0.233400,-0.947018
0.233500,-1.005768
0.233600,-0.976555
0.233700,-0.909367
0.233800,-0.883400
0.233900,-0.931763
0.234000,-1.005768
0.234100,-1.040822
0.234200,-1.059648
0.234300,-1.055104
0.234400,-1.078474
0.234500,-1.105739
0.234600,-1.138197
0.234700,-1.163515
0.234800,-1.177472
0.234900,-1.194674
0.235000,-1.208956
0.235100,-1.212851
0.235200,-1.199219
0.235300,-1.180068
0.235400,-1.177796
0.235500,-1.222588
0.235600,-1.274522
0.235700,-1.294646
0.235800,-1.286207
0.235900,-1.256345
0.236000,-1.258617
0.236100,-1.265433
0.236200,-1.262837
0.236300,-1.261214
0.236400,-1.254398
0.236500,-1.249529
0.236600,-1.240441
0.236700,-1.234923
0.236800,-1.230378
0.236900,-1.225185
0.237000,-1.228106
0.237100,-1.223238
0.237200,-1.219992
0.237300,-1.229405
0.237400,-1.234273
0.237500,-1.251476
0.237600,-1.273223
0.237700,-1.298216
0.237800,-1.356966
0.237900,-1.495562
0.238000,-1.629615
0.238100,-1.641949
0.238200,-1.569892
0.238300,-1.487123
0.238400,-1.522827
0.238500,-1.664670
0.238600,-1.812030
0.238700,-1.856823
0.238800,-1.810407
0.238900,-1.752307
0.239000,-1.745491
0.239100,-1.833453
0.239200,-1.938293
0.239300,-1.999964
0.239400,-2.011973
0.239500,-2.006780
0.239600,-2.002885
0.239700,-2.019114
0.239800,-2.049300
0.239900,-2.075592
0.240000,-2.087926
0.240100,-2.094742
0.240200,-2.123954
0.240300,-2.155764
0.240400,-2.184652
0.240500,-2.183029
0.240600,-2.187248
0.240700,-2.211267
0.240800,-2.239831
0.240900,-2.250217
0.241000,-2.212566
0.241100,-2.150246
0.241200,-2.158036
0.241300,-2.227821
0.241400,-2.328117
0.241500,-2.364795
0.241600,-2.307669
0.241700,-2.226847
0.241800,-2.190169
0.241900,-2.230093
0.242000,-2.329740
0.242100,-2.403096
0.242200,-2.406991
0.242300,-2.359277
0.242400,-2.320327
0.242500,-2.296957
0.242600,-2.297606
0.242700,-2.304747
0.242800,-2.300203
0.242900,-2.289816
0.243000,-2.269368
0.243100,-2.240155
0.243200,-2.184002
0.243300,-2.097339
0.243400,-2.027553
0.243500,-1.975295
0.243600,-1.946732
0.243700,-1.919792
0.243800,-1.856823
0.243900,-1.763992
0.244000,-1.691610
0.244100,-1.591639
0.244200,-1.535810
0.244300,-1.477710
0.244400,-1.424154
0.244500,-1.354369
0.244600,-1.275171
0.244700,-1.187534
0.244800,-1.114827
0.244900,-1.061920
0.245000,-1.016803
0.245100,-0.982722
0.245200,-0.959352
0.245300,-0.935009
0.245400,-0.908068
0.245500,-0.884698
0.245600,-0.849968
0.245700,-0.842178
0.245800,-0.827247
0.245900,-0.847047
0.246000,-0.827247
0.246100,-0.807773
0.246200,-0.686054
0.246300,-0.559792
0.246400,-0.493902
0.246500,-0.605233
0.246600,-0.715591
0.246700,-0.744804
0.246800,-0.625033
0.246900,-0.502016
0.247000,-0.445539
0.247100,-0.486112
0.247200,-0.575372
0.247300,-0.622761
0.247400,-0.584136
0.247500,-0.505911
0.247600,-0.441969
0.247700,-0.430608
0.247800,-0.440021
0.247900,-0.444241
0.248000,-0.446188
0.248100,-0.435802
0.248200,-0.424766
0.248300,-0.431907
0.248400,-0.430933
0.248500,-0.433530
0.248600,-0.430933
0.248700,-0.476699
0.248800,-0.505262
0.248900,-0.555897
0.249000,-0.583486
0.249100,-0.573749
0.249200,-0.578942
0.249300,-0.604260
0.249400,-0.715916
0.249500,-0.789596
0.249600,-0.804527
0.249700,-0.744479
0.249800,-0.683133
0.249900,-0.706178
0.250000,-0.808422
0.250100,-0.905796
0.250200,-0.938904
0.250300,-0.887295
0.250400,-0.826274
0.250500,-0.830169
0.250600,-0.894436
0.250700,-0.965519
0.250800,-0.972336
0.250900,-0.976555
0.251000,-0.969414
0.251100,-0.996355
0.251200,-1.030111
0.251300,-1.072307
0.251400,-1.092106
0.251500,-1.104116
0.251600,-1.120345
0.251700,-1.143066
0.251800,-1.138522
0.251900,-1.125214
0.252000,-1.110608
0.252100,-1.115476
0.252200,-1.165137
0.252300,-1.211877
0.252400,-1.219992
0.252500,-1.174875
0.252600,-1.153777
0.252700,-1.163839
0.252800,-1.158321
0.252900,-1.158646
0.253000,-1.147285
0.253100,-1.147935
0.253200,-1.139820
0.253300,-1.131056
0.253400,-1.128135
0.253500,-1.121319
0.253600,-1.119047
0.253700,-1.121968
0.253800,-1.122617
0.253900,-1.134302
0.254000,-1.142092
0.254100,-1.153777
0.254200,-1.172278
0.254300,-1.196622
0.254400,-1.230378
0.254500,-1.317691
0.254600,-1.476736
0.254700,-1.579629
0.254800,-1.570216
0.254900,-1.466350
0.255000,-1.416689
0.255100,-1.482254
0.255200,-1.643247
0.255300,-1.771457
0.255400,-1.807486
0.255500,-1.757825
0.255600,-1.697453
0.255700,-1.721472
0.255800,-1.813653
0.255900,-1.908107
0.256000,-1.968479
0.256100,-1.971076
0.256200,-1.977243
0.256300,-1.989577
0.256400,-2.018790
0.256500,-2.045081
0.256600,-2.066179
0.256700,-2.076241
0.256800,-2.092794
0.256900,-2.123954
0.257000,-2.148298
0.257100,-2.159983
0.257200,-2.156737
0.257300,-2.163878
0.257400,-2.190169
0.257500,-2.213539
0.257600,-2.211592
0.257700,-2.138885
0.257800,-2.090522
0.257900,-2.108374
0.258000,-2.185950
0.258100,-2.283325
0.258200,-2.296957
0.258300,-2.224575
0.258400,-2.134341
0.258500,-2.099611
0.258600,-2.158036
0.258700,-2.257034
0.258800,-2.314809
0.258900,-2.300528
0.259000,-2.256709
0.259100,-2.218733
0.259200,-2.199907
0.259300,-2.207372
0.259400,-2.207048
0.259500,-2.204451
0.259600,-2.198284
0.259700,-2.161606
0.259800,-2.128174
0.259900,-2.060985
0.260000,-1.982112
0.260100,-1.911677
0.260200,-1.867859
0.260300,-1.833128
0.260400,-1.801644
0.260500,-1.717901
0.260600,-1.623123
0.260700,-1.542627
0.260800,-1.449796
0.260900,-1.388450
0.261000,-1.329051
0.261100,-1.270951
0.261200,-1.206035
0.261300,-1.133004
0.261400,-1.058674
0.261500,-1.001548
0.261600,-0.952536
0.261700,-0.931114
0.261800,-0.900603
0.261900,-0.895734
0.262000,-0.875610
0.262100,-0.869443
0.262200,-0.852240
0.262300,-0.836660
0.262400,-0.836011
0.262500,-0.834713
0.262600,-0.861653
0.262700,-0.851267
0.262800,-0.815563
0.262900,-0.695792
0.263000,-0.556546
0.263100,-0.551353
0.263200,-0.675668
0.263300,-0.787973
0.263400,-0.768498
0.263500,-0.661386
0.263600,-0.539343
0.263700,-0.511105
0.263800,-0.575696
0.263900,-0.658789
0.264000,-0.673720
0.264100,-0.631849
0.264200,-0.548756
0.264300,-0.513701
0.264400,-0.505262
0.264500,-0.529281
0.264600,-0.531553
0.264700,-0.528632
0.264800,-0.518895
0.264900,-0.517596
0.265000,-0.515000
0.265100,-0.509806
0.265200,-0.509157
0.265300,-0.528632
0.265400,-0.565310
0.265500,-0.600365
0.265600,-0.633797
0.265700,-0.640613
0.265800,-0.640288
0.265900,-0.640613
0.266000,-0.703906
0.266100,-0.817835
0.266200,-0.868794
0.266300,-0.865548
0.266400,-0.797710
0.266500,-0.769472
0.266600,-0.814913
0.266700,-0.921376
0.266800,-0.995381
0.266900,-1.000899
0.267000,-0.945395
0.267100,-0.896708
0.267200,-0.925596
0.267300,-0.995056
0.267400,-1.039524
0.267500,-1.046990
0.267600,-1.050884
0.267700,-1.054130
0.267800,-1.090159
0.267900,-1.125538
0.268000,-1.156698
0.268100,-1.176498
0.268200,-1.194999
0.268300,-1.218693
0.268400,-1.237195
0.268500,-1.238493
0.268600,-1.220966
0.268700,-1.198894
0.268800,-1.216097
0.268900,-1.272574
0.269000,-1.306006
0.269100,-1.307954
0.269200,-1.268355
0.269300,-1.271600
0.269400,-1.286856
0.269500,-1.284908
0.269600,-1.283935
0.269700,-1.285882
0.269800,-1.283610
0.269900,-1.277118
0.270000,-1.270951
0.270100,-1.269328
0.270200,-1.271925
0.270300,-1.271925
0.270400,-1.270627
0.270500,-1.276145
0.270600,-1.281013
0.270700,-1.289128
0.270800,-1.302111
0.270900,-1.311849
0.271000,-1.337166
0.271100,-1.366703
0.271200,-1.476412
0.271300,-1.630589
0.271400,-1.698426
0.271500,-1.646169
0.271600,-1.530942
0.271700,-1.498483
0.271800,-1.602674
0.271900,-1.758150
0.272000,-1.861691
0.272100,-1.862016
0.272200,-1.800021
0.272300,-1.760097
0.272400,-1.800994
0.272500,-1.901940
0.272600,-1.983410
0.272700,-2.017167
0.272800,-2.001262
0.272900,-1.989577
0.273000,-2.007105
0.273100,-2.037940
0.273200,-2.066503
0.273300,-2.077864
0.273400,-2.081110
0.273500,-2.092470
0.273600,-2.125902
0.273700,-2.145702
0.273800,-2.152842
0.273900,-2.159334
0.274000,-2.174265
0.274100,-2.211592
0.274200,-2.236909
0.274300,-2.208995
0.274400,-2.127200
0.274500,-2.090522
0.274600,-2.133367
0.274700,-2.226198
0.274800,-2.302151
0.274900,-2.283974
0.275000,-2.211267
0.275100,-2.141157
0.275200,-2.154790
0.275300,-2.254112
0.275400,-2.345645
0.275500,-2.372910
0.275600,-2.339802
0.275700,-2.288518
0.275800,-2.263201
0.275900,-2.276509
0.276000,-2.300852
0.276100,-2.298580
0.276200,-2.279105
0.276300,-2.254112
0.276400,-2.227172
0.276500,-2.188871
0.276600,-2.130771
0.276700,-2.059687
0.276800,-2.000613
0.276900,-1.959391
0.277000,-1.920441
0.277100,-1.875649
0.277200,-1.785090
0.277300,-1.702646
0.277400,-1.601701
0.277500,-1.515686
0.277600,-1.447849
0.277700,-1.379362
0.277800,-1.307629
0.277900,-1.231352
0.278000,-1.146636
0.278100,-1.072631
0.278200,-1.018102
0.278300,-0.981749
0.278400,-0.957080
0.278500,-0.920727
0.278600,-0.905147
0.278700,-0.877882
0.278800,-0.855162
0.278900,-0.827247
0.279000,-0.813615
0.279100,-0.809071
0.279200,-0.812966
0.279300,-0.823028
0.279400,-0.807448
0.279500,-0.739286
0.279600,-0.610751
0.279700,-0.482866
0.279800,-0.521816
0.279900,-0.647754
0.280000,-0.724030
0.280100,-0.675019
0.280200,-0.544537
0.280300,-0.454952
0.280400,-0.441969
0.280500,-0.520842
0.280600,-0.586408
0.280700,-0.583486
0.280800,-0.513377
0.280900,-0.435802
0.281000,-0.398799
0.281100,-0.403019
0.281200,-0.419897
0.281300,-0.422169
0.281400,-0.416976
0.281500,-0.405616
0.281600,-0.392632
0.281700,-0.392632
0.281800,-0.394904
0.281900,-0.423143
0.282000,-0.429310
0.282100,-0.479296
0.282200,-0.507534
0.282300,-0.548432
0.282400,-0.558818
0.282500,-0.552002
0.282600,-0.564012
0.282700,-0.644183
0.282800,-0.749348
0.282900,-0.788947
0.283000,-0.765901
0.283100,-0.691248
0.283200,-0.688651
0.283300,-0.755515
0.283400,-0.873663
0.283500,-0.935982
0.283600,-0.926894
0.283700,-0.851267
0.283800,-0.821080
0.283900,-0.865873
0.284000,-0.946044
0.284100,-0.991161
0.284200,-1.012908
0.284300,-1.007390
0.284400,-1.010961
0.284500,-1.045691
0.284600,-1.088861
0.284700,-1.140469
0.284800,-1.163515
0.284900,-1.182016
0.285000,-1.205061
0.285100,-1.212851
0.285200,-1.197920
0.285300,-1.177796
0.285400,-1.169682
0.285500,-1.206684
0.285600,-1.261863
0.285700,-1.296269
0.285800,-1.299514
0.285900,-1.261538
0.286000,-1.263161
0.286100,-1.269328
0.286200,-1.271276
0.286300,-1.272574
0.286400,-1.261538
0.286500,-1.257968
0.286600,-1.256670
0.286700,-1.254073
0.286800,-1.245634
0.286900,-1.248555
0.287000,-1.250503
0.287100,-1.251801
0.287200,-1.256345
0.287300,-1.266083
0.287400,-1.272899
0.287500,-1.286207
0.287600,-1.299839
0.287700,-1.322560
0.287800,-1.378063
0.287900,-1.504651
0.288000,-1.650064
0.288100,-1.688689
0.288200,-1.628966
0.288300,-1.524125
0.288400,-1.541653
0.288500,-1.663371
0.288600,-1.813329
0.288700,-1.884412
0.288800,-1.854551
0.288900,-1.789634
0.289000,-1.766913
0.289100,-1.824689
0.289200,-1.927582
0.289300,-1.995420
0.289400,-2.020088
0.289500,-2.011324
0.289600,-1.997692
0.289700,-2.014245
0.289800,-2.049300
0.289900,-2.078188
0.290000,-2.086303
0.290100,-2.094417
0.290200,-2.116164
0.290300,-2.136613
0.290400,-2.144079
0.290500,-2.148298
0.290600,-2.153816
0.290700,-2.181730
0.290800,-2.210618
0.290900,-2.219382
0.291000,-2.181081
0.291100,-2.101234
0.291200,-2.080136
0.291300,-2.134666
0.291400,-2.232041
0.291500,-2.301501
0.291600,-2.260929
0.291700,-2.168098
0.291800,-2.116489
0.291900,-2.145377
0.292000,-2.230093
0.292100,-2.308967
0.292200,-2.321301
0.292300,-2.277807
0.292400,-2.226523
0.292500,-2.203802
0.292600,-2.211267
0.292700,-2.221979
0.292800,-2.211916
0.292900,-2.202828
0.293000,-2.183678
0.293100,-2.155439
0.293200,-2.111945
0.293300,-2.037940
0.293400,-1.965883
0.293500,-1.913625
0.293600,-1.874350
0.293700,-1.852279
0.293800,-1.798073
0.293900,-1.712383
0.294000,-1.636106
0.294100,-1.534837
0.294200,-1.463104
0.294300,-1.405004
0.294400,-1.347877
0.294500,-1.279715
0.294600,-1.204087
0.294700,-1.127161
0.294800,-1.054779
0.294900,-0.991811
0.295000,-0.955782
0.295100,-0.927868
0.295200,-0.901577
0.295300,-0.891515
0.295400,-0.865224
0.295500,-0.847696
0.295600,-0.813290
0.295700,-0.812317
0.295800,-0.796737
0.295900,-0.813940
0.296000,-0.802579
0.296100,-0.782131
0.296200,-0.681835
0.296300,-0.542589
0.296400,-0.454627
0.296500,-0.526360
0.296600,-0.653272
0.296700,-0.687028
0.296800,-0.594522
0.296900,-0.472155
0.297000,-0.393606
0.297100,-0.412107
0.297200,-0.487086
0.297300,-0.547133
0.297400,-0.514026
0.297500,-0.450408
0.297600,-0.385167
0.297700,-0.359850
0.297800,-0.363745
0.297900,-0.386465
0.298000,-0.399773
0.298100,-0.397501
0.298200,-0.389062
0.298300,-0.384518
0.298400,-0.386465
0.298500,-0.384518
0.298600,-0.404642
0.298700,-0.437749
0.298800,-0.478646
0.298900,-0.526035
0.299000,-0.560441
0.299100,-0.558494
0.299200,-0.560441
0.299300,-0.581214
0.299400,-0.674694
0.299500,-0.768174
0.299600,-0.786999
0.299700,-0.746427
0.299800,-0.672097
0.299900,-0.685081
0.300000,-0.782455
0.300100,-0.886971
0.300200,-0.912288
0.300300,-0.870092
0.300400,-0.812317
0.300500,-0.812966
0.300600,-0.867171
0.300700,-0.934035
0.300800,-0.956107
0.300900,-0.971362
0.301000,-0.973634
0.301100,-0.999276
0.301200,-1.040173
0.301300,-1.075877
0.301400,-1.109958
0.301500,-1.137223
0.301600,-1.168383
0.301700,-1.172278
0.301800,-1.157347
0.301900,-1.137873
0.302000,-1.125863
0.302100,-1.123591
0.302200,-1.183639
0.302300,-1.239142
0.302400,-1.260240
0.302500,-1.269977
0.302600,-1.276469
0.302700,-1.280364
0.302800,-1.286856
0.302900,-1.286531
0.303000,-1.279066
0.303100,-1.267381
0.303200,-1.265758
0.303300,-1.259915
0.303400,-1.256020
0.303500,-1.260565
0.303600,-1.257643
0.303700,-1.265109
0.303800,-1.269653
0.303900,-1.277767
0.304000,-1.281338
0.304100,-1.293672
0.304200,-1.306980
0.304300,-1.322235
0.304400,-1.355992
0.304500,-1.422207
0.304600,-1.581901
0.304700,-1.698102
0.304800,-1.704593
0.304900,-1.623123
0.305000,-1.549768
0.305100,-1.602350
0.305200,-1.741920
0.305300,-1.887333
0.305400,-1.924336
0.305500,-1.873052
0.305600,-1.813653
0.305700,-1.829233
0.305800,-1.906808
0.305900,-2.009701
0.306000,-2.069100
0.306100,-2.077215
0.306200,-2.070074
0.306300,-2.070398
0.306400,-2.100584
0.306500,-2.130122
0.306600,-2.154141
0.306700,-2.163554
0.306800,-2.178809
0.306900,-2.213215
0.307000,-2.246322
0.307100,-2.264499
0.307200,-2.265148
0.307300,-2.254437
0.307400,-2.280728
0.307500,-2.306046
0.307600,-2.300852
0.307700,-2.243401
0.307800,-2.167773
0.307900,-2.174265
0.308000,-2.248270
0.308100,-2.340127
0.308200,-2.377779
0.308300,-2.303774
0.308400,-2.199907
0.308500,-2.156088
0.308600,-2.209320
0.308700,-2.311564
0.308800,-2.382972
0.308900,-2.374857
0.309000,-2.315134
0.309100,-2.266446
0.309200,-2.248919
0.309300,-2.270666
0.309400,-2.271640
0.309500,-2.262876
0.309600,-2.248594
0.309700,-2.224251
0.309800,-2.184652
0.309900,-2.133043
0.310000,-2.058713
0.310100,-1.987630
0.310200,-1.932451
0.310300,-1.879219
0.310400,-1.842866
0.310500,-1.772431
0.310600,-1.678302
0.310700,-1.583524
0.310800,-1.489395
0.310900,-1.426102
0.311000,-1.369949
0.311100,-1.300488
0.311200,-1.232975
0.311300,-1.152803
0.311400,-1.074579
0.311500,-1.002522
0.311600,-0.953834
0.311700,-0.927219
0.311800,-0.896708
0.311900,-0.870741
0.312000,-0.859056
0.312100,-0.827247
0.312200,-0.811992
0.312300,-0.785701
0.312400,-0.781481
0.312500,-0.769147
0.312600,-0.776613
0.312700,-0.766551
0.312800,-0.722732
0.312900,-0.616594
0.313000,-0.476374
0.313100,-0.450083
0.313200,-0.554923
0.313300,-0.674045
0.313400,-0.681510
0.313500,-0.567582
0.313600,-0.450732
0.313700,-0.391009
0.313800,-0.449110
0.313900,-0.532202
0.314000,-0.571801
0.314100,-0.526035
0.314200,-0.436126
0.314300,-0.381597
0.314400,-0.363095
0.314500,-0.387439
0.314600,-0.398799
0.314700,-0.405940
0.314800,-0.388413
0.314900,-0.373157
0.315000,-0.377052
0.315100,-0.381921
0.315200,-0.385492
0.315300,-0.410160
0.315400,-0.449434
0.315500,-0.482541
0.315600,-0.516298
0.315700,-0.552976
0.315800,-0.552327
0.315900,-0.562713
0.316000,-0.600365
0.316100,-0.724680
0.316200,-0.791219
0.316300,-0.795438
0.316400,-0.726302
0.316500,-0.669825
0.316600,-0.697415
0.316700,-0.806474
0.316800,-0.911314
0.316900,-0.936632
0.317000,-0.883725
0.317100,-0.823352
0.317200,-0.827572
0.317300,-0.894761
0.317400,-0.966818
0.317500,-0.997004
0.317600,-1.007390
0.317700,-1.003820
0.317800,-1.029462
0.317900,-1.071333
0.318000,-1.114178
0.318100,-1.145013
0.318200,-1.172603
0.318300,-1.196946
0.318400,-1.218693
0.318500,-1.219992
0.318600,-1.208307
0.318700,-1.194999
0.318800,-1.209930
0.318900,-1.261863
0.319000,-1.302111
0.319100,-1.312173
0.319200,-1.274197
0.319300,-1.253099
0.319400,-1.264784
0.319500,-1.258293
0.319600,-1.255047
0.319700,-1.256345
0.319800,-1.250827
0.319900,-1.252450
0.320000,-1.243686
0.320100,-1.241414
0.320200,-1.236221
0.320300,-1.243362
0.320400,-1.244660
0.320500,-1.243362
0.320600,-1.244011
0.320700,-1.256670
0.320800,-1.263486
0.320900,-1.273223
0.321000,-1.298216
0.321100,-1.338789
0.321200,-1.438111
0.321300,-1.590016
0.321400,-1.680574
0.321500,-1.657854
0.321600,-1.557882
0.321700,-1.528670
0.321800,-1.609491
0.321900,-1.772756
0.322000,-1.889281
0.322100,-1.897720
0.322200,-1.832154
0.322300,-1.773730
0.322400,-1.800345
0.322500,-1.891553
0.322600,-1.988928
0.322700,-2.032747
0.322800,-2.030475
0.322900,-2.030475
0.323000,-2.039563
0.323100,-2.055143
0.323200,-2.085978
0.323300,-2.106102
0.323400,-2.114866
0.323500,-2.136938
0.323600,-2.167773
0.323700,-2.196986
0.323800,-2.209969
0.323900,-2.206723
0.324000,-2.208995
0.324100,-2.230093
0.324200,-2.249244
0.324300,-2.229769
0.324400,-2.156088
0.324500,-2.104479
0.324600,-2.139534
0.324700,-2.237559
0.324800,-2.341750
0.324900,-2.348241
0.325000,-2.273587
0.325100,-2.180432
0.325200,-2.157711
0.325300,-2.229119
0.325400,-2.341425
0.325500,-2.397578
0.325600,-2.374208
0.325700,-2.320327
0.325800,-2.278131
0.325900,-2.275210
0.326000,-2.289167
0.326100,-2.297606
0.326200,-2.283649
0.326300,-2.265473
0.326400,-2.240155
0.326500,-2.209969
0.326600,-2.145377
0.326700,-2.064556
0.326800,-2.000613
0.326900,-1.956794
0.327000,-1.925959
0.327100,-1.887333
0.327200,-1.804240
0.327300,-1.706216
0.327400,-1.615009
0.327500,-1.529319
0.327600,-1.463429
0.327700,-1.402732
0.327800,-1.335868
0.327900,-1.262512
0.328000,-1.187209
0.328100,-1.100870
0.328200,-1.042770
0.328300,-0.996030
0.328400,-0.963896
0.328500,-0.935982
0.328600,-0.923324
0.328700,-0.901252
0.328800,-0.877558
0.328900,-0.864899
0.329000,-0.827247
0.329100,-0.836336
0.329200,-0.812641
0.329300,-0.841529
0.329400,-0.811018
0.329500,-0.772069
0.329600,-0.625682
0.329700,-0.509157
0.329800,-0.527009
0.329900,-0.654894
0.330000,-0.771095
0.330100,-0.730847
0.330200,-0.598417
0.330300,-0.481243
0.330400,-0.445215
0.330500,-0.530255
0.330600,-0.605233
0.330700,-0.636069
0.330800,-0.559792
0.330900,-0.482541
0.331000,-0.432880
0.331100,-0.439697
0.331200,-0.471181
0.331300,-0.477024
0.331400,-0.478646
0.331500,-0.460794
0.331600,-0.452680
0.331700,-0.455601
0.331800,-0.461768
0.331900,-0.471181
0.332000,-0.477997
0.332100,-0.516947
0.332200,-0.554923
0.332300,-0.604260
0.332400,-0.617243
0.332500,-0.624708
0.332600,-0.609778
0.332700,-0.676641
0.332800,-0.782780
0.332900,-0.834713
0.333000,-0.819457
0.333100,-0.740259
0.333200,-0.708126
0.333300,-0.756813
0.333400,-0.880479
0.333500,-0.965195
0.333600,-0.970713
0.333700,-0.905472
0.333800,-0.862302
0.333900,-0.886646
0.334000,-0.957405
0.334100,-1.019400
0.334200,-1.045367
0.334300,-1.042445
0.334400,-1.034655
0.334500,-1.056078
0.334600,-1.093729
0.334700,-1.144689
0.334800,-1.167085
0.334900,-1.175849
0.335000,-1.191429
0.335100,-1.203763
0.335200,-1.203763
0.335300,-1.191104
0.335400,-1.168708
0.335500,-1.185911
0.335600,-1.236221
0.335700,-1.265758
0.335800,-1.253424
0.335900,-1.205710
0.336000,-1.193701
0.336100,-1.202464
0.336200,-1.198569
0.336300,-1.190130
0.336400,-1.193376
0.336500,-1.187209
0.336600,-1.186560
0.336700,-1.177147
0.336800,-1.174226
0.336900,-1.173901
0.337000,-1.183314
0.337100,-1.192402
0.337200,-1.203114
0.337300,-1.210579
0.337400,-1.221615
0.337500,-1.234273
0.337600,-1.256020
0.337700,-1.281013
0.337800,-1.321261
0.337900,-1.443629
0.338000,-1.599753
0.338100,-1.674407
0.338200,-1.608517
0.338300,-1.517634
0.338400,-1.498808
0.338500,-1.622149
0.338600,-1.785415
0.338700,-1.892202
0.338800,-1.888307
0.338900,-1.814302
0.339000,-1.780546
0.339100,-1.831505
0.339200,-1.937968
0.339300,-2.027229
0.339400,-2.063257
0.339500,-2.057740
0.339600,-2.053520
0.339700,-2.064231
0.339800,-2.088575
0.339900,-2.113243
0.340000,-2.127849
0.340100,-2.136938
0.340200,-2.144079
0.340300,-2.172317
0.340400,-2.196986
0.340500,-2.207372
0.340600,-2.207697
0.340700,-2.209320
0.340800,-2.232365
0.340900,-2.245673
0.341000,-2.202504
0.341100,-2.123305
0.341200,-2.095067
0.341300,-2.137587
0.341400,-2.236909
0.341500,-2.312537
0.341600,-2.290466
0.341700,-2.203802
0.341800,-2.129472
0.341900,-2.126227
0.342000,-2.209644
0.342100,-2.303774
0.342200,-2.332337
0.342300,-2.290141
0.342400,-2.239831
0.342500,-2.207048
0.342600,-2.204776
0.342700,-2.225224
0.342800,-2.236260
0.342900,-2.230418
0.343000,-2.212566
0.343100,-2.178809
0.343200,-2.133692
0.343300,-2.072021
0.343400,-2.000938
0.343500,-1.949004
0.343600,-1.920441
0.343700,-1.887658
0.343800,-1.837997
0.343900,-1.743219
0.344000,-1.665319
0.344100,-1.563400
0.344200,-1.484202
0.344300,-1.415390
0.344400,-1.358913
0.344500,-1.287505
0.344600,-1.216097
0.344700,-1.132355
0.344800,-1.058025
0.344900,-0.993109
0.345000,-0.950264
0.345100,-0.918780
0.345200,-0.897033
0.345300,-0.880154
0.345400,-0.864574
0.345500,-0.834388
0.345600,-0.815238
0.345700,-0.782455
0.345800,-0.789921
0.345900,-0.783104
0.346000,-0.798360
0.346100,-0.784403
0.346200,-0.696766
0.346300,-0.551677
0.346400,-0.436775
0.346500,-0.493577
0.346600,-0.620164
0.346700,-0.698388
0.346800,-0.624384
0.346900,-0.486112
0.347000,-0.397176
0.347100,-0.383544
0.347200,-0.451706
0.347300,-0.509806
0.347400,-0.498771
0.347500,-0.439048
0.347600,-0.346866
0.347700,-0.314084
0.347800,-0.300451
0.347900,-0.323172
0.348000,-0.326093
0.348100,-0.326093
0.348200,-0.309215
0.348300,-0.295258
0.348400,-0.286494
0.348500,-0.279029
0.348600,-0.296232
0.348700,-0.328041
0.348800,-0.366341
0.348900,-0.405291
0.349000,-0.434179
0.349100,-0.440021
0.349200,-0.435802
0.349300,-0.455926
0.349400,-0.544212
0.349500,-0.638665
0.349600,-0.666579
0.349700,-0.645806
0.349800,-0.573749
0.349900,-0.584136
0.350000,-0.661711
0.350100,-0.774341
0.350200,-0.827247
0.350300,-0.805500
0.350400,-0.743505
0.350500,-0.717539
0.350600,-0.762980
0.350700,-0.836011
0.350800,-0.872689
0.350900,-0.898655
0.351000,-0.899629
0.351100,-0.918130
0.351200,-0.959028
0.351300,-0.999276
0.351400,-1.046665
0.351500,-1.076202
0.351600,-1.104441
0.351700,-1.125538
0.351800,-1.138197
0.351900,-1.127161
0.352000,-1.110608
0.352100,-1.102818
0.352200,-1.155400
0.352300,-1.205386
0.352400,-1.232001
0.352500,-1.204736
0.352600,-1.177796
0.352700,-1.184937
0.352800,-1.197596
0.352900,-1.200517
0.353000,-1.202464
0.353100,-1.198894
0.353200,-1.201491
0.353300,-1.190455
0.353400,-1.193701
0.353500,-1.197596
0.353600,-1.199868
0.353700,-1.205386
0.353800,-1.218044
0.353900,-1.227457
0.354000,-1.239467
0.354100,-1.243686
0.354200,-1.269004
0.354300,-1.289777
0.354400,-1.325481
0.354500,-1.384555
0.354600,-1.533538
0.354700,-1.671811
0.354800,-1.700374
0.354900,-1.633185
0.355000,-1.557233
0.355100,-1.590989
0.355200,-1.739648
0.355300,-1.886035
0.355400,-1.954522
0.355500,-1.928556
0.355600,-1.870780
0.355700,-1.876298
0.355800,-1.942513
0.355900,-2.037615
0.356000,-2.106427
0.356100,-2.127525
0.356200,-2.130771
0.356300,-2.147000
0.356400,-2.177835
0.356500,-2.206399
0.356600,-2.230418
0.356700,-2.249244
0.356800,-2.263850
0.356900,-2.293711
0.357000,-2.328117
0.357100,-2.336881
0.357200,-2.332337
0.357300,-2.334284
0.357400,-2.369989
0.357500,-2.403096
0.357600,-2.415430
0.357700,-2.347268
0.357800,-2.264499
0.357900,-2.261578
0.358000,-2.330389
0.358100,-2.431335
0.358200,-2.485865
0.358300,-2.435554
0.358400,-2.342074
0.358500,-2.288194
0.358600,-2.321950
0.358700,-2.422571
0.358800,-2.498848
0.358900,-2.494629
0.359000,-2.440099
0.359100,-2.389139
0.359200,-2.377454
0.359300,-2.390113
0.359400,-2.390762
0.359500,-2.385569
0.359600,-2.365444
0.359700,-2.334609
0.359800,-2.295984
0.359900,-2.238532
0.360000,-2.169721
0.360100,-2.094417
0.360200,-2.031773
0.360300,-1.992498
0.360400,-1.961014
0.360500,-1.903238
0.360600,-1.804240
0.360700,-1.725691
0.360800,-1.613710
0.360900,-1.537758
0.361000,-1.474464
0.361100,-1.409223
0.361200,-1.334569
0.361300,-1.247906
0.361400,-1.154102
0.361500,-1.081395
0.361600,-1.020698
0.361700,-0.977529
0.361800,-0.936632
0.361900,-0.912937
0.362000,-0.880479
0.362100,-0.863925
0.362200,-0.827897
0.362300,-0.809395
0.362400,-0.777911
0.362500,-0.771744
0.362600,-0.772393
0.362700,-0.770121
0.362800,-0.747076
0.362900,-0.644832
0.363000,-0.486112
0.363100,-0.434503
0.363200,-0.502016
0.363300,-0.637042
0.363400,-0.657816
0.363500,-0.574074
0.363600,-0.436775
0.363700,-0.379000
0.363800,-0.414055
0.363900,-0.492279
0.364000,-0.535773
0.364100,-0.497472
0.364200,-0.417301
0.364300,-0.353358
0.364400,-0.344919
0.364500,-0.372184
0.364600,-0.371859
0.364700,-0.375105
0.364800,-0.367640
0.364900,-0.358227
0.365000,-0.357902
0.365100,-0.362446
0.365200,-0.361148
0.365300,-0.364394
0.365400,-0.403668
0.365500,-0.439048
0.365600,-0.497797
0.365700,-0.527983
0.365800,-0.525711
0.365900,-0.520518
0.366000,-0.538045
0.366100,-0.649377
0.366200,-0.723381
0.366300,-0.746102
0.366400,-0.681835
0.366500,-0.625033
0.366600,-0.643534
0.366700,-0.743830
0.366800,-0.856135
0.366900,-0.886646
0.367000,-0.837959
0.367100,-0.769147
0.367200,-0.771419
0.367300,-0.844775
0.367400,-0.921052
0.367500,-0.953185
0.367600,-0.961624
0.367700,-0.954808
0.367800,-0.980450
0.367900,-1.015180
0.368000,-1.071658
0.368100,-1.111257
0.368200,-1.130083
0.368300,-1.152154
0.368400,-1.173901
0.368500,-1.187858
0.368600,-1.180068
0.368700,-1.154426
0.368800,-1.144040
0.368900,-1.188183
0.369000,-1.236546
0.369100,-1.256020
0.369200,-1.237519
0.369300,-1.214474
0.369400,-1.220641
0.369500,-1.220966
0.369600,-1.217720
0.369700,-1.212526
0.369800,-1.203763
0.369900,-1.197271
0.370000,-1.188183
0.370100,-1.190455
0.370200,-1.185911
0.370300,-1.184288
0.370400,-1.185911
0.370500,-1.194674
0.370600,-1.200841
0.370700,-1.216746
0.370800,-1.223562
0.370900,-1.247257
0.371000,-1.277118
0.371100,-1.302436
0.371200,-1.395591
0.371300,-1.545223
0.371400,-1.665968
0.371500,-1.658178
0.371600,-1.568593
0.371700,-1.503352
0.371800,-1.564049
0.371900,-1.723095
0.372000,-1.848059
0.372100,-1.879544
0.372200,-1.818197
0.372300,-1.757176
0.372400,-1.770159
0.372500,-1.857472
0.372600,-1.955496
0.372700,-1.995420
0.372800,-1.986980
0.372900,-1.969453
0.373000,-1.974646
0.373100,-2.009052
0.373200,-2.048327
0.373300,-2.066828
0.373400,-2.076241
0.373500,-2.085005
0.373600,-2.110647
0.373700,-2.138885
0.373800,-2.146026
0.373900,-2.143105
0.374000,-2.135964
0.374100,-2.157711
0.374200,-2.192766
0.374300,-2.191792
0.374400,-2.127849
0.374500,-2.061635
0.374600,-2.063907
0.374700,-2.139859
0.374800,-2.233014
0.374900,-2.250542
0.375000,-2.184327
0.375100,-2.089549
0.375200,-2.055792
0.375300,-2.109024
0.375400,-2.223601
0.375500,-2.287544
0.375600,-2.268069
0.375700,-2.197310
0.375800,-2.154465
0.375900,-2.145377
0.376000,-2.169721
0.376100,-2.186274
0.376200,-2.180757
0.376300,-2.155764
0.376400,-2.123954
0.376500,-2.086952
0.376600,-2.032747
0.376700,-1.955496
0.376800,-1.889281
0.376900,-1.840918
0.377000,-1.808135
0.377100,-1.773405
0.377200,-1.695830
0.377300,-1.605920
0.377400,-1.516011
0.377500,-1.418312
0.377600,-1.351448
0.377700,-1.295295
0.377800,-1.232651
0.377900,-1.155725
0.378000,-1.073930
0.378100,-0.990837
0.378200,-0.923324
0.378300,-0.874961
0.378400,-0.842178
0.378500,-0.813615
0.378600,-0.794789
0.378700,-0.767849
0.378800,-0.750322
0.378900,-0.722732
0.379000,-0.704880
0.379100,-0.694169
0.379200,-0.690598
0.379300,-0.699038
0.379400,-0.693195
0.379500,-0.651973
0.379600,-0.527983
0.379700,-0.409835
0.379800,-0.389386
0.379900,-0.513377
0.380000,-0.615295
0.380100,-0.615295
0.380200,-0.499744
0.380300,-0.391659
0.380400,-0.358227
0.380500,-0.423143
0.380600,-0.509482
0.380700,-0.539343
0.380800,-0.495525
0.380900,-0.416976
0.381000,-0.364069
0.381100,-0.356928
0.381200,-0.367964
0.381300,-0.390685
0.381400,-0.402370
0.381500,-0.397826
0.381600,-0.390360
0.381700,-0.394580
0.381800,-0.396852
0.381900,-0.403993
0.382000,-0.429310
0.382100,-0.471506
0.382200,-0.511754
0.382300,-0.555897
0.382400,-0.574398
0.382500,-0.580241
0.382600,-0.578293
0.382700,-0.620164
0.382800,-0.736040
0.382900,-0.789596
0.383000,-0.789596
0.383100,-0.717539
0.383200,-0.681186
0.383300,-0.721758
0.383400,-0.827247
0.383500,-0.912613
0.383600,-0.928517
0.383700,-0.875610
0.383800,-0.824651
0.383900,-0.832116
0.384000,-0.901577
0.384100,-0.952861
0.384200,-0.987916
0.384300,-1.000574
0.384400,-1.001873
0.384500,-1.020698
0.384600,-1.053806
0.384700,-1.101195
0.384800,-1.136899
0.384900,-1.166760
0.385000,-1.179419
0.385100,-1.184288
0.385200,-1.153452
0.385300,-1.126837
0.385400,-1.110283
0.385500,-1.133653
0.385600,-1.194999
0.385700,-1.246283
0.385800,-1.260565
0.385900,-1.267381
0.386000,-1.271925
0.386100,-1.278741
0.386200,-1.274522
0.386300,-1.278741
0.386400,-1.271925
0.386500,-1.261863
0.386600,-1.254398
0.386700,-1.246283
0.386800,-1.247257
0.386900,-1.252450
0.387000,-1.258942
0.387100,-1.269977
0.387200,-1.271276
0.387300,-1.278417
0.387400,-1.277767
0.387500,-1.287180
0.387600,-1.310875
0.387700,-1.339438
0.387800,-1.377414
0.387900,-1.485176
0.388000,-1.642274
0.388100,-1.703620
0.388200,-1.666617
0.388300,-1.566646
0.388400,-1.548794
0.388500,-1.646169
0.388600,-1.802617
0.388700,-1.899668
0.388800,-1.885061
0.388900,-1.825338
0.389000,-1.782493
0.389100,-1.816250
0.389200,-1.912002
0.389300,-1.991525
0.389400,-2.035668
0.389500,-2.029825
0.389600,-2.032747
0.389700,-2.043133
0.389800,-2.068775
0.389900,-2.090522
0.390000,-2.110322
0.390100,-2.125253
0.390200,-2.154790
0.390300,-2.194389
0.390400,-2.222628
0.390500,-2.224251
0.390600,-2.227496
0.390700,-2.241129
0.390800,-2.271964
0.390900,-2.298580
0.391000,-2.276833
0.391100,-2.196337
0.391200,-2.155439
0.391300,-2.191143
0.391400,-2.293062
0.391500,-2.374533
0.391600,-2.369989
0.391700,-2.283000
0.391800,-2.196012
0.391900,-2.196337
0.392000,-2.274886
0.392100,-2.383296
0.392200,-2.433931
0.392300,-2.403745
0.392400,-2.339478
0.392500,-2.300852
0.392600,-2.296957
0.392700,-2.316108
0.392800,-2.320652
0.392900,-2.318055
0.393000,-2.305396
0.393100,-2.285272
0.393200,-2.249244
0.393300,-2.185301
0.393400,-2.121358
0.393500,-2.053195
0.393600,-2.009701
0.393700,-1.970102
0.393800,-1.927257
0.393900,-1.832154
0.394000,-1.739973
0.394100,-1.629939
0.394200,-1.549118
0.394300,-1.480307
0.394400,-1.416364
0.394500,-1.342035
0.394600,-1.265433
0.394700,-1.178121
0.394800,-1.095028
0.394900,-1.025892
0.395000,-0.984345
0.395100,-0.945720
0.395200,-0.920078
0.395300,-0.904823
0.395400,-0.879830
0.395500,-0.859381
0.395600,-0.830169
0.395700,-0.811668
0.395800,-0.792193
0.395900,-0.800307
0.396000,-0.802255
0.396100,-0.797386
0.396200,-0.733768
0.396300,-0.586083
0.396400,-0.486436
0.396500,-0.511754
0.396600,-0.648078
0.396700,-0.731820
0.396800,-0.667878
0.396900,-0.543238
0.397000,-0.440346
0.397100,-0.440995
0.397200,-0.527658
0.397300,-0.595496
0.397400,-0.598093
0.397500,-0.522790
0.397600,-0.447162
0.397700,-0.409186
0.397800,-0.406589
0.397900,-0.428661
0.398000,-0.431907
0.398100,-0.424766
0.398200,-0.411133
0.398300,-0.414055
0.398400,-0.414379
0.398500,-0.419248
0.398600,-0.422169
0.398700,-0.443916
0.398800,-0.481243
0.398900,-0.532852
0.399000,-0.570503
0.399100,-0.578942
0.399200,-0.576021
0.399300,-0.583162
0.399400,-0.648727
0.399500,-0.764279
0.399600,-0.808097
0.399700,-0.784403
0.399800,-0.703906
0.399900,-0.694493
0.400000,-0.750646
0.400100,-0.876909
0.400200,-0.941825
0.400300,-0.934684
0.400400,-0.867820
0.400500,-0.833739
0.400600,-0.870092
0.400700,-0.940527
0.400800,-0.989214
0.400900,-1.004469
0.401000,-1.001873
0.401100,-1.004469
0.401200,-1.026541
0.401300,-1.063543
0.401400,-1.102493
0.401500,-1.117424
0.401600,-1.134627
0.401700,-1.157672
0.401800,-1.167085
0.401900,-1.159620
0.402000,-1.138846
0.402100,-1.122293
0.402200,-1.148908
0.402300,-1.194350
0.402400,-1.226159
0.402500,-1.220316
0.402600,-1.176173
0.402700,-1.174226
0.402800,-1.175849
0.402900,-1.172603
0.403000,-1.168059
0.403100,-1.162865
0.403200,-1.163515
0.403300,-1.157347
0.403400,-1.157997
0.403500,-1.157672
0.403600,-1.159295
0.403700,-1.166111
0.403800,-1.166436
0.403900,-1.171304
0.404000,-1.182989
0.404100,-1.191104
0.404200,-1.205710
0.404300,-1.222264
0.404400,-1.240116
0.404500,-1.287180
0.404600,-1.417013
0.404700,-1.564698
0.404800,-1.601376
0.404900,-1.529319
0.405000,-1.430646
0.405100,-1.440383
0.405200,-1.565347
0.405300,-1.725691
0.405400,-1.808135
0.405500,-1.787362
0.405600,-1.715629
0.405700,-1.687066
0.405800,-1.739648
0.405900,-1.843839
0.406000,-1.925634
0.406100,-1.957119
0.406200,-1.944460
0.406300,-1.949329
0.406400,-1.966856
0.406500,-1.994770
0.406600,-2.029501
0.406700,-2.048002
0.406800,-2.054818
0.406900,-2.075267
0.407000,-2.106752
0.407100,-2.135315
0.407200,-2.146026
0.407300,-2.154790
0.407400,-2.181081
0.407500,-2.214189
0.407600,-2.230742
0.407700,-2.190819
0.407800,-2.114542
0.407900,-2.112269
0.408000,-2.166150
0.408100,-2.267096
0.408200,-2.338504
0.408300,-2.313836
0.408400,-2.235286
0.408500,-2.172317
0.408600,-2.196661
0.408700,-2.287869
0.408800,-2.378103
0.408900,-2.406017
0.409000,-2.368366
0.409100,-2.327468
0.409200,-2.305072
0.409300,-2.311239
0.409400,-2.323573
0.409500,-2.317081
0.409600,-2.313186
0.409700,-2.287220
0.409800,-2.251840
0.409900,-2.198609
0.410000,-2.125253
0.410100,-2.057090
0.410200,-2.000288
0.410300,-1.948680
0.410400,-1.912651
0.410500,-1.853577
0.410600,-1.751333
0.410700,-1.670512
0.410800,-1.559830
0.410900,-1.482254
0.411000,-1.409223
0.411100,-1.343658
0.411200,-1.269977
0.411300,-1.187858
0.411400,-1.104116
0.411500,-1.027839
0.411600,-0.972985
0.411700,-0.930789
0.411800,-0.906445
0.411900,-0.877558
0.412000,-0.867171
0.412100,-0.845749
0.412200,-0.829520
0.412300,-0.798684
0.412400,-0.789271
0.412500,-0.781806
0.412600,-0.789271
0.412700,-0.796737
0.412800,-0.772393
0.412900,-0.686379
0.413000,-0.547133
0.413100,-0.468260
0.413200,-0.546160
0.413300,-0.685405
0.413400,-0.750971
0.413500,-0.673396
0.413600,-0.560117
0.413700,-0.477997
0.413800,-0.495200
0.413900,-0.580565
0.414000,-0.638665
0.414100,-0.627630
0.414200,-0.562064
0.414300,-0.504613
0.414400,-0.467611
0.414500,-0.483840
0.414600,-0.487410
0.414700,-0.500069
0.414800,-0.495200
0.414900,-0.488709
0.415000,-0.481243
0.415100,-0.474102
0.415200,-0.469558
0.415300,-0.481892
0.415400,-0.523763
0.415500,-0.564336
0.415600,-0.611725
0.415700,-0.633472
0.415800,-0.632498
0.415900,-0.634770
0.416000,-0.658465
0.416100,-0.757462
0.416200,-0.842827
0.416300,-0.859706
0.416400,-0.817835
0.416500,-0.757462
0.416600,-0.769147
0.416700,-0.858732
0.416800,-0.960326
0.416900,-0.997653
0.417000,-0.951238
0.417100,-0.883725
0.417200,-0.873338
0.417300,-0.927543
0.417400,-0.996030
0.417500,-1.019400
0.417600,-1.030111
0.417700,-1.022321
0.417800,-1.043095
0.417900,-1.079772
0.418000,-1.122293
0.418100,-1.150531
0.418200,-1.170331
0.418300,-1.195973
0.418400,-1.216746
0.418500,-1.221290
0.418600,-1.207658
0.418700,-1.191429
0.418800,-1.191753
0.418900,-1.236870
0.419000,-1.282961
0.419100,-1.300488
0.419200,-1.276145
0.419300,-1.249204
0.419400,-1.247906
0.419500,-1.259915
0.419600,-1.257968
0.419700,-1.255371
0.419800,-1.250503
0.419900,-1.245634
0.420000,-1.241414
0.420100,-1.233624
0.420200,-1.226483
0.420300,-1.222588
0.420400,-1.216746
0.420500,-1.216421
0.420600,-1.221939
0.420700,-1.221290
0.420800,-1.227782
0.420900,-1.236870
0.421000,-1.247906
0.421100,-1.273223
0.421200,-1.338789
0.421300,-1.482904
0.421400,-1.610464
0.421500,-1.614359
0.421600,-1.525099
0.421700,-1.446550
0.421800,-1.490044
0.421900,-1.634808
0.422000,-1.773080
0.422100,-1.822092
0.422200,-1.769835
0.422300,-1.716603
0.422400,-1.724393
0.422500,-1.805214
0.422600,-1.904536
0.422700,-1.960689
0.422800,-1.973673
0.422900,-1.965233
0.423000,-1.977243
0.423100,-2.004183
0.423200,-2.034045
0.423300,-2.061959
0.423400,-2.067802
0.423500,-2.070398
0.423600,-2.099935
0.423700,-2.135639
0.423800,-2.147000
0.423900,-2.135639
0.424000,-2.134341
0.424100,-2.159659
0.424200,-2.195038
0.424300,-2.199258
0.424400,-2.134017
0.424500,-2.051248
0.424600,-2.044756
0.424700,-2.116164
0.424800,-2.215162
0.424900,-2.254112
0.425000,-2.205100
0.425100,-2.118112
0.425200,-2.083706
0.425300,-2.132069
0.425400,-2.235936
0.425500,-2.310265
0.425600,-2.300203
0.425700,-2.238532
0.425800,-2.197635
0.425900,-2.203802
0.426000,-2.228146
0.426100,-2.244699
0.426200,-2.237883
0.426300,-2.218408
0.426400,-2.188547
0.426500,-2.160308
0.426600,-2.110322
0.426700,-2.035343
0.426800,-1.961338
0.426900,-1.904212
0.427000,-1.867859
0.427100,-1.837672
0.427200,-1.775677
0.427300,-1.687391
0.427400,-1.616632
0.427500,-1.506273
0.427600,-1.447849
0.427700,-1.388125
0.427800,-1.326130
0.427900,-1.252775
0.428000,-1.188832
0.428100,-1.112555
0.428200,-1.049586
0.428300,-1.006092
0.428400,-0.984994
0.428500,-0.954159
0.428600,-0.928517
0.428700,-0.913586
0.428800,-0.885348
0.428900,-0.866197
0.429000,-0.837309
0.429100,-0.821730
0.429200,-0.822379
0.429300,-0.821405
0.429400,-0.819457
0.429500,-0.779858
0.429600,-0.672097
0.429700,-0.522790
0.429800,-0.475076
0.429900,-0.565959
0.430000,-0.682808
0.430100,-0.705854
0.430200,-0.602312
0.430300,-0.486761
0.430400,-0.427038
0.430500,-0.474102
0.430600,-0.559143
0.430700,-0.596145
0.430800,-0.556871
0.430900,-0.469558
0.431000,-0.416651
0.431100,-0.400747
0.431200,-0.421845
0.431300,-0.438074
0.431400,-0.432556
0.431500,-0.427363
0.431600,-0.411783
0.431700,-0.409186
0.431800,-0.415353
0.431900,-0.419573
0.432000,-0.424766
0.432100,-0.457224
0.432200,-0.488384
0.432300,-0.529281
0.432400,-0.552002
0.432500,-0.536097
0.432600,-0.537071
0.432700,-0.558169
0.432800,-0.667878
0.432900,-0.731171
0.433000,-0.742856
0.433100,-0.676966
0.433200,-0.628279
0.433300,-0.659763
0.433400,-0.753243
0.433500,-0.858083
0.433600,-0.882426
0.433700,-0.826923
0.433800,-0.757138
0.433900,-0.763629
0.434000,-0.826923
0.434100,-0.890866
0.434200,-0.922999
0.434300,-0.929815
0.434400,-0.920078
0.434500,-0.938904
0.434600,-0.976555
0.434700,-1.021997
0.434800,-1.057376
0.434900,-1.081395
0.435000,-1.107362
0.435100,-1.123591
0.435200,-1.124240
0.435300,-1.114503
0.435400,-1.105090
0.435500,-1.108011
0.435600,-1.155400
0.435700,-1.188507
0.435800,-1.191429
0.435900,-1.151505
0.436000,-1.132030
0.436100,-1.144364
0.436200,-1.145338
0.436300,-1.141768
0.436400,-1.143066
0.436500,-1.135600
0.436600,-1.132355
0.436700,-1.136574
0.436800,-1.138846
0.436900,-1.138197
0.437000,-1.145013
0.437100,-1.152154
0.437200,-1.166760
0.437300,-1.181691
0.437400,-1.199868
0.437500,-1.214474
0.437600,-1.234598
0.437700,-1.262512
0.437800,-1.297242
0.437900,-1.388125
0.438000,-1.544250
0.438100,-1.652985
0.438200,-1.630264
0.438300,-1.553663
0.438400,-1.505624
0.438500,-1.582550
0.438600,-1.730235
0.438700,-1.851954
0.438800,-1.864613
0.438900,-1.818847
0.439000,-1.778598
0.439100,-1.803916
0.439200,-1.893501
0.439300,-1.995420
0.439400,-2.049950
0.439500,-2.064231
0.439600,-2.057415
0.439700,-2.072995
0.439800,-2.098962
0.439900,-2.136938
0.440000,-2.170694
0.440100,-2.186274
0.440200,-2.213215
0.440300,-2.244050
0.440400,-2.262227
0.440500,-2.271315
0.440600,-2.282026
0.440700,-2.297606
0.440800,-2.333635
0.440900,-2.369664
0.441000,-2.357005
0.441100,-2.292089
0.441200,-2.236909
0.441300,-2.260604
0.441400,-2.344671
0.441500,-2.440423
0.441600,-2.454705
0.441700,-2.385569
0.441800,-2.311239
0.441900,-2.292413
0.442000,-2.360251
0.442100,-2.451459
0.442200,-2.505664
0.442300,-2.477101
0.442400,-2.421922
0.442500,-2.391086
0.442600,-2.391086
0.442700,-2.398552
0.442800,-2.394008
0.442900,-2.385244
0.443000,-2.372910
0.443100,-2.353435
0.443200,-2.304747
0.443300,-2.235286
0.443400,-2.145377
0.443500,-2.075267
0.443600,-2.031448
0.443700,-1.997367
0.443800,-1.954522
0.443900,-1.875324
0.444000,-1.781844
0.444100,-1.706865
0.444200,-1.612412
0.444300,-1.541328
0.444400,-1.476412
0.444500,-1.404679
0.444600,-1.326779
0.444700,-1.245309
0.444800,-1.167409
0.444900,-1.097949
0.445000,-1.050560
0.445100,-1.016154
0.445200,-0.980775
0.445300,-0.960326
0.445400,-0.935333
0.445500,-0.905147
0.445600,-0.878207
0.445700,-0.848345
0.445800,-0.833739
0.445900,-0.828870
0.446000,-0.832441
0.446100,-0.808097
0.446200,-0.749348
0.446300,-0.606856
0.446400,-0.488709
0.446500,-0.478322
0.446600,-0.599391
0.446700,-0.680536
0.446800,-0.651649
0.446900,-0.519219
0.447000,-0.416976
0.447100,-0.386465
0.447200,-0.450408
0.447300,-0.510456
0.447400,-0.524413
0.447500,-0.459496
0.447600,-0.387764
0.447700,-0.335831
0.447800,-0.323172
0.447900,-0.335181
0.448000,-0.343945
0.448100,-0.352384
0.448200,-0.340375
0.448300,-0.335831
0.448400,-0.326418
0.448500,-0.323496
0.448600,-0.320251
0.448700,-0.341348
0.448800,-0.391334
0.448900,-0.429959
0.449000,-0.476699
0.449100,-0.474752
0.449200,-0.474102
0.449300,-0.471830
0.449400,-0.534799
0.449500,-0.638665
0.449600,-0.690923
0.449700,-0.681186
0.449800,-0.612374
0.449900,-0.587057
0.450000,-0.645157
0.450100,-0.753243
0.450200,-0.824326
0.450300,-0.824002
0.450400,-0.763629
0.450500,-0.727601
0.450600,-0.768498
0.450700,-0.832765
0.450800,-0.878531
0.450900,-0.904823
0.451000,-0.913911
0.451100,-0.927219
0.451200,-0.968441
0.451300,-1.006417
0.451400,-1.037252
0.451500,-1.058025
0.451600,-1.083667
0.451700,-1.114827
0.451800,-1.128135
0.451900,-1.121968
0.452000,-1.110283
0.452100,-1.098598
0.452200,-1.124240
0.452300,-1.184612
0.452400,-1.226808
0.452500,-1.232326
0.452600,-1.199219
0.452700,-1.194350
0.452800,-1.209605
0.452900,-1.225185
0.453000,-1.229729
0.453100,-1.236870
0.453200,-1.237844
0.453300,-1.245958
0.453400,-1.249853
0.453500,-1.247581
0.453600,-1.252450
0.453700,-1.256994
0.453800,-1.262837
0.453900,-1.268679
0.454000,-1.280040
0.454100,-1.287505
0.454200,-1.298216
0.454300,-1.313796
0.454400,-1.341710
0.454500,-1.382932
0.454600,-1.501729
0.454700,-1.652985
0.454800,-1.714980
0.454900,-1.665643
0.455000,-1.575734
0.455100,-1.578331
0.455200,-1.695181
0.455300,-1.858121
0.455400,-1.944460
0.455500,-1.931801
0.455600,-1.870455
0.455700,-1.845138
0.455800,-1.904861
0.455900,-2.013921
0.456000,-2.089549
0.456100,-2.121033
0.456200,-2.116814
0.456300,-2.117787
0.456400,-2.132718
0.456500,-2.154790
0.456600,-2.172967
0.456700,-2.182379
0.456800,-2.188547
0.456900,-2.212241
0.457000,-2.250217
0.457100,-2.272938
0.457200,-2.270991
0.457300,-2.260929
0.457400,-2.262876
0.457500,-2.284623
0.457600,-2.297606
0.457700,-2.263850
0.457800,-2.181406
0.457900,-2.150895
0.458000,-2.195363
0.458100,-2.295334
0.458200,-2.372585
0.458300,-2.350189
0.458400,-2.250217
0.458500,-2.173940
0.458600,-2.177511
0.458700,-2.274886
0.458800,-2.380051
0.458900,-2.419650
0.459000,-2.378103
0.459100,-2.321950
0.459200,-2.296308
0.459300,-2.313186
0.459400,-2.338504
0.459500,-2.341425
0.459600,-2.331039
0.459700,-2.318055
0.459800,-2.293062
0.459900,-2.252165
0.460000,-2.180107
0.460100,-2.107076
0.460200,-2.051897
0.460300,-2.011324
0.460400,-1.986007
0.460500,-1.948680
0.460600,-1.866885
0.460700,-1.789959
0.460800,-1.724718
0.460900,-1.639028
0.461000,-1.573137
0.461100,-1.516336
0.461200,-1.441032
0.461300,-1.358913
0.461400,-1.264135
0.461500,-1.174875
0.461600,-1.109634
0.461700,-1.065815
0.461800,-1.033682
0.461900,-1.006092
0.462000,-0.987266
0.462100,-0.966493
0.462200,-0.935658
0.462300,-0.910990
0.462400,-0.887620
0.462500,-0.877882
0.462600,-0.885023
0.462700,-0.874312
0.462800,-0.863925
0.462900,-0.764928
0.463000,-0.630551
0.463100,-0.507859
0.463200,-0.560766
0.463300,-0.692546
0.463400,-0.742856
0.463500,-0.683782
0.463600,-0.547458
0.463700,-0.454952
0.463800,-0.445215
0.463900,-0.539343
0.464000,-0.603286
0.464100,-0.589653
0.464200,-0.515973
0.464300,-0.430284
0.464400,-0.397826
0.464500,-0.406914
0.464600,-0.435802
0.464700,-0.449434
0.464800,-0.438074
0.464900,-0.425090
0.465000,-0.412756
0.465100,-0.420222
0.465200,-0.421845
0.465300,-0.436775
0.465400,-0.459172
0.465500,-0.496823
0.465600,-0.547133
0.465700,-0.588031
0.465800,-0.597768
0.465900,-0.602637
0.466000,-0.614971
0.466100,-0.707477
0.466200,-0.821080
0.466300,-0.861329
0.466400,-0.842503
0.466500,-0.760384
0.466600,-0.763629
0.466700,-0.835362
0.466800,-0.953510
0.466900,-1.027190
0.467000,-1.003820
0.467100,-0.930140
0.467200,-0.889243
0.467300,-0.925596
0.467400,-1.002197
0.467500,-1.043744
0.467600,-1.062894
0.467700,-1.053481
0.467800,-1.062245
0.467900,-1.099247
0.468000,-1.145013
0.468100,-1.172278
0.468200,-1.182665
0.468300,-1.197920
0.468400,-1.219343
0.468500,-1.229080
0.468600,-1.218693
0.468700,-1.201166
0.468800,-1.186884
0.468900,-1.212202
0.469000,-1.257968
0.469100,-1.287505
0.469200,-1.282636
0.469300,-1.248880
0.469400,-1.241739
0.469500,-1.247257
0.469600,-1.234273
0.469700,-1.228756
0.469800,-1.223887
0.469900,-1.213825
0.470000,-1.202464
0.470100,-1.193701
0.470200,-1.192078
0.470300,-1.188183
0.470400,-1.184288
0.470500,-1.180717
0.470600,-1.180717
0.470700,-1.178770
0.470800,-1.190455
0.470900,-1.199868
0.471000,-1.217720
0.471100,-1.240116
0.471200,-1.302111
0.471300,-1.440383
0.471400,-1.575734
0.471500,-1.607219
0.471600,-1.537758
0.471700,-1.453042
0.471800,-1.472192
0.471900,-1.604622
0.472000,-1.757825
0.472100,-1.833453
0.472200,-1.800345
0.472300,-1.730235
0.472400,-1.716603
0.472500,-1.782169
0.472600,-1.894150
0.472700,-1.971400
0.472800,-2.005157
0.472900,-1.999964
0.473000,-2.001587
0.473100,-2.015868
0.473200,-2.045730
0.473300,-2.077864
0.473400,-2.092145
0.473500,-2.100584
0.473600,-2.118112
0.473700,-2.144079
0.473800,-2.161606
0.473900,-2.170694
0.474000,-2.175239
0.474100,-2.197959
0.474200,-2.226523
0.474300,-2.232690
0.474400,-2.187573
0.474500,-2.113892
0.474600,-2.111296
0.474700,-2.172642
0.474800,-2.272289
0.474900,-2.329091
0.475000,-2.279105
0.475100,-2.185950
0.475200,-2.121358
0.475300,-2.136613
0.475400,-2.225874
0.475500,-2.309291
0.475600,-2.329091
0.475700,-2.281053
0.475800,-2.233014
0.475900,-2.212241
0.476000,-2.212241
0.476100,-2.219057
0.476200,-2.222952
0.476300,-2.214513
0.476400,-2.197635
0.476500,-2.166475
0.476600,-2.126876
0.476700,-2.068126
0.476800,-2.000288
0.476900,-1.948355
0.477000,-1.914598
0.477100,-1.888307
0.477200,-1.828259
0.477300,-1.736403
0.477400,-1.652660
0.477500,-1.542951
0.477600,-1.480307
0.477700,-1.425452
0.477800,-1.364431
0.477900,-1.293997
0.478000,-1.226159
0.478100,-1.149882
0.478200,-1.068737
0.478300,-1.012259
0.478400,-0.980450
0.478500,-0.953185
0.478600,-0.928192
0.478700,-0.921052
0.478800,-0.900278
0.478900,-0.879181
0.479000,-0.854512
0.479100,-0.837959
0.479200,-0.841204
0.479300,-0.837309
0.479400,-0.856460
0.479500,-0.810045
0.479600,-0.733119
0.479700,-0.575047
0.479800,-0.529606
0.479900,-0.596794
0.480000,-0.746427
0.480100,-0.791219
0.480200,-0.700336
0.480300,-0.588031
0.480400,-0.501692
0.480500,-0.544212
0.480600,-0.628928
0.480700,-0.688326
0.480800,-0.670474
0.480900,-0.592899
0.481000,-0.532527
0.481100,-0.500069
0.481200,-0.516947
0.481300,-0.530904
0.481400,-0.534799
0.481500,-0.517272
0.481600,-0.509482
0.481700,-0.495200
0.481800,-0.486761
0.481900,-0.487410
0.482000,-0.487735
0.482100,-0.533825
0.482200,-0.558169
0.482300,-0.597768
0.482400,-0.614646
0.482500,-0.603286
0.482600,-0.601338
0.482700,-0.616594
0.482800,-0.731496
0.482900,-0.797710
0.483000,-0.815238
0.483100,-0.763954
0.483200,-0.703257
0.483300,-0.710073
0.483400,-0.800307
0.483500,-0.893462
0.483600,-0.931114
0.483700,-0.886971
0.483800,-0.826274
0.483900,-0.804527
0.484000,-0.860355
0.484100,-0.930140
0.484200,-0.952536
0.484300,-0.957729
0.484400,-0.962274
0.484500,-0.990188
0.484600,-1.015505
0.484700,-1.045367
0.484800,-1.069061
0.484900,-1.091457
0.485000,-1.112880
0.485100,-1.140469
0.485200,-1.150531
0.485300,-1.145662
0.485400,-1.131705
0.485500,-1.136250
0.485600,-1.188507
0.485700,-1.244011
0.485800,-1.269653
0.485900,-1.244985
0.486000,-1.223887
0.486100,-1.233624
0.486200,-1.241739
0.486300,-1.242063
0.486400,-1.237195
0.486500,-1.236546
0.486600,-1.234598
0.486700,-1.228756
0.486800,-1.232651
0.486900,-1.229405
0.487000,-1.233300
0.487100,-1.232975
0.487200,-1.249853
0.487300,-1.252450
0.487400,-1.261214
0.487500,-1.269004
0.487600,-1.289452
0.487700,-1.306331
0.487800,-1.338140
0.487900,-1.417338
0.488000,-1.575085
0.488100,-1.697453
0.488200,-1.699400
0.488300,-1.605271
0.488400,-1.540030
0.488500,-1.593586
0.488600,-1.744842
0.488700,-1.889281
0.488800,-1.932775
0.488900,-1.875324
0.489000,-1.812679
0.489100,-1.823715
0.489200,-1.910703
0.489300,-2.016193
0.489400,-2.078837
0.489500,-2.085329
0.489600,-2.082732
0.489700,-2.090847
0.489800,-2.122007
0.489900,-2.161606
0.490000,-2.189845
0.490100,-2.202828
0.490200,-2.215162
0.490300,-2.242427
0.490400,-2.265473
0.490500,-2.278456
0.490600,-2.282026
0.490700,-2.294361
0.490800,-2.323573
0.490900,-2.355058
0.491000,-2.352136
0.491100,-2.283649
0.491200,-2.206399
0.491300,-2.217434
0.491400,-2.298580
0.491500,-2.407640
0.491600,-2.442695
0.491700,-2.376156
0.491800,-2.288194
0.491900,-2.254112
0.492000,-2.309941
0.492100,-2.405368
0.492200,-2.478075
0.492300,-2.479049
0.492400,-2.428738
0.492500,-2.390437
0.492600,-2.393034
0.492700,-2.421922
0.492800,-2.435879
0.492900,-2.433607
0.493000,-2.418676
0.493100,-2.388165
0.493200,-2.357654
0.493300,-2.300852
0.493400,-2.228470
0.493500,-2.152193
0.493600,-2.096365
0.493700,-2.056441
0.493800,-2.018790
0.493900,-1.945434
0.494000,-1.848708
0.494100,-1.773405
0.494200,-1.670188
0.494300,-1.604947
0.494400,-1.541653
0.494500,-1.467324
0.494600,-1.394293
0.494700,-1.304383
0.494800,-1.216097
0.494900,-1.143390
0.495000,-1.090484
0.495100,-1.048937
0.495200,-1.010636
0.495300,-0.991486
0.495400,-0.959028
0.495500,-0.939228
0.495600,-0.911639
0.495700,-0.890866
0.495800,-0.882102
0.495900,-0.869768
0.496000,-0.895085
0.496100,-0.866522
0.496200,-0.852240
0.496300,-0.700336
0.496400,-0.596145
0.496500,-0.531878
0.496600,-0.663658
0.496700,-0.771095
0.496800,-0.771095
0.496900,-0.666579
0.497000,-0.539992
0.497100,-0.489682
0.497200,-0.540317
0.497300,-0.628928
0.497400,-0.665930
0.497500,-0.613673
0.497600,-0.544861
0.497700,-0.473453
0.497800,-0.471181
0.497900,-0.480919
0.498000,-0.503964
0.498100,-0.509482
0.498200,-0.487410
0.498300,-0.465339
0.498400,-0.457224
0.498500,-0.458847
0.498600,-0.466962
0.498700,-0.486761
0.498800,-0.526360
0.498900,-0.566284
0.499000,-0.598417
0.499100,-0.611725
0.499200,-0.614971
0.499300,-0.611076
0.499400,-0.648403
0.499500,-0.761682
0.499600,-0.815238
0.499700,-0.818808
0.499800,-0.744479
0.499900,-0.693844
0.500000,-0.732145
0.500100,-0.840880
0.500200,-0.927219
0.500300,-0.949939
0.500400,-0.892488
0.500500,-0.836985
0.500600,-0.848670
0.500700,-0.916832
0.500800,-0.981424
0.500900,-1.002846
0.501000,-1.014207
0.501100,-1.007066
0.501200,-1.029137
0.501300,-1.061596
0.501400,-1.095677
0.501500,-1.131381
0.501600,-1.157023
0.501700,-1.184612
0.501800,-1.204412
0.501900,-1.207982
0.502000,-1.198569
0.502100,-1.185911
0.502200,-1.198894
0.502300,-1.262837
0.502400,-1.300488
0.502500,-1.311849
0.502600,-1.273872
0.502700,-1.264460
0.502800,-1.278417
0.502900,-1.284908
0.503000,-1.291400
0.503100,-1.290102
0.503200,-1.281987
0.503300,-1.279066
0.503400,-1.281338
0.503500,-1.270627
0.503600,-1.269004
0.503700,-1.269004
0.503800,-1.273872
0.503900,-1.274197
0.504000,-1.285233
0.504100,-1.293023
0.504200,-1.303085
0.504300,-1.332297
0.504400,-1.354044
0.504500,-1.395266
0.504600,-1.494913
0.504700,-1.646818
0.504800,-1.740622
0.504900,-1.706541
0.505000,-1.619553
0.505100,-1.582875
0.505200,-1.676030
0.505300,-1.825987
0.505400,-1.949978
0.505500,-1.951925
0.505600,-1.881816
0.505700,-1.836699
0.505800,-1.879544
0.505900,-1.965883
0.506000,-2.055143
0.506100,-2.085654
0.506200,-2.080785
0.506300,-2.075267
0.506400,-2.083057
0.506500,-2.109348
0.506600,-2.138561
0.506700,-2.150570
0.506800,-2.152842
0.506900,-2.168422
0.507000,-2.203153
0.507100,-2.219382
0.507200,-2.214838
0.507300,-2.201854
0.507400,-2.210618
0.507500,-2.242752
0.507600,-2.272938
0.507700,-2.255411
0.507800,-2.178809
0.507900,-2.131095
0.508000,-2.149272
0.508100,-2.235936
0.508200,-2.315459
0.508300,-2.318380
0.508400,-2.237559
0.508500,-2.161606
0.508600,-2.155114
0.508700,-2.228795
0.508800,-2.320652
0.508900,-2.357005
0.509000,-2.323249
0.509100,-2.272289
0.509200,-2.249244
0.509300,-2.251191
0.509400,-2.263201
0.509500,-2.259306
0.509600,-2.243076
0.509700,-2.232690
0.509800,-2.213539
0.509900,-2.181081
0.510000,-2.116164
0.510100,-2.035668
0.510200,-1.971725
0.510300,-1.932126
0.510400,-1.902913
0.510500,-1.863639
0.510600,-1.776002
0.510700,-1.688040
0.510800,-1.604947
0.510900,-1.520555
0.511000,-1.461481
0.511100,-1.397538
0.511200,-1.326779
0.511300,-1.255696
0.511400,-1.174226
0.511500,-1.092106
0.511600,-1.029137
0.511700,-0.982073
0.511800,-0.945720
0.511900,-0.923324
0.512000,-0.905472
0.512100,-0.897033
0.512200,-0.875935
0.512300,-0.850293
0.512400,-0.845749
0.512500,-0.848021
0.512600,-0.861978
0.512700,-0.869119
0.512800,-0.876584
0.512900,-0.813615
0.513000,-0.686703
0.513100,-0.577319
0.513200,-0.600689
0.513300,-0.738961
0.513400,-0.827897
0.513500,-0.795438
0.513600,-0.679238
0.513700,-0.595171
0.513800,-0.586408
0.513900,-0.658140
0.514000,-0.731171
0.514100,-0.731496
0.514200,-0.676641
0.514300,-0.592899
0.514400,-0.552002
0.514500,-0.554923
0.514600,-0.569529
0.514700,-0.568231
0.514800,-0.560441
0.514900,-0.550379
0.515000,-0.538694
0.515100,-0.540966
0.515200,-0.534799
0.515300,-0.535773
0.515400,-0.552976
0.515500,-0.578618
0.515600,-0.620164
0.515700,-0.650999
0.515800,-0.663983
0.515900,-0.650026
0.516000,-0.657491
0.516100,-0.714293
0.516200,-0.834713
0.516300,-0.875610
0.516400,-0.855486
0.516500,-0.769796
0.516600,-0.747725
0.516700,-0.815563
0.516800,-0.928517
0.516900,-0.987591
0.517000,-0.965195
0.517100,-0.891190
0.517200,-0.853863
0.517300,-0.895410
0.517400,-0.970713
0.517500,-1.014207
0.517600,-1.027190
0.517700,-1.025892
0.517800,-1.049262
0.517900,-1.093405
0.518000,-1.138522
0.518100,-1.166760
0.518200,-1.177147
0.518300,-1.192078
0.518400,-1.223562
0.518500,-1.244335
0.518600,-1.245309
0.518700,-1.234923
0.518800,-1.223887
0.518900,-1.254073
0.519000,-1.313147
0.519100,-1.340412
0.519200,-1.330999
0.519300,-1.296269
0.519400,-1.290751
0.519500,-1.299190
0.519600,-1.301787
0.519700,-1.294970
0.519800,-1.293672
0.519900,-1.284584
0.520000,-1.281987
0.520100,-1.272574
0.520200,-1.276794
0.520300,-1.278741
0.520400,-1.289452
0.520500,-1.291725
0.520600,-1.299190
0.520700,-1.303734
0.520800,-1.319963
0.520900,-1.330674
0.521000,-1.350798
0.521100,-1.382932
0.521200,-1.431619
0.521300,-1.559505
0.521400,-1.703620
0.521500,-1.758150
0.521600,-1.696154
0.521700,-1.599104
0.521800,-1.598455
0.521900,-1.721472
0.522000,-1.876298
0.522100,-1.966207
0.522200,-1.934073
0.522300,-1.860393
0.522400,-1.830856
0.522500,-1.884088
0.522600,-1.984384
0.522700,-2.058713
0.522800,-2.082408
0.522900,-2.070398
0.523000,-2.062608
0.523100,-2.084680
0.523200,-2.126227
0.523300,-2.161931
0.523400,-2.177835
0.523500,-2.188222
0.523600,-2.211267
0.523700,-2.250542
0.523800,-2.277482
0.523900,-2.280728
0.524000,-2.277158
0.524100,-2.290466
0.524200,-2.318704
0.524300,-2.342724
0.524400,-2.309291
0.524500,-2.237559
0.524600,-2.215811
0.524700,-2.265473
0.524800,-2.362199
0.524900,-2.442046
0.525000,-2.423545
0.525100,-2.335907
0.525200,-2.264499
0.525300,-2.285272
0.525400,-2.377454
0.525500,-2.490409
0.525600,-2.533903
0.525700,-2.495602
0.525800,-2.441397
0.525900,-2.423869
0.526000,-2.444643
0.526100,-2.468986
0.526200,-2.481321
0.526300,-2.473206
0.526400,-2.454705
0.526500,-2.427440
0.526600,-2.396604
0.526700,-2.340127
0.526800,-2.267745
0.526900,-2.207048
0.527000,-2.166799
0.527100,-2.135639
0.527200,-2.083382
0.527300,-1.989577
0.527400,-1.907782
0.527500,-1.803591
0.527600,-1.730235
0.527700,-1.667916
0.527800,-1.619877
0.527900,-1.549768
0.528000,-1.476412
0.528100,-1.394942
0.528200,-1.320612
0.528300,-1.271925
0.528400,-1.232651
0.528500,-1.202140
0.528600,-1.175199
0.528700,-1.160593
0.528800,-1.135276
0.528900,-1.111257
0.529000,-1.094054
0.529100,-1.064192
0.529200,-1.063219
0.529300,-1.039524
0.529400,-1.048937
0.529500,-1.013233
0.529600,-0.920727
0.529700,-0.770446
0.529800,-0.685405
0.529900,-0.746102
0.530000,-0.867820
0.530100,-0.914235
0.530200,-0.827247
0.530300,-0.698713
0.530400,-0.613348
0.530500,-0.624384
0.530600,-0.710073
0.530700,-0.756813
0.530800,-0.751620
0.530900,-0.666579
0.531000,-0.595496
0.531100,-0.550379
0.531200,-0.553300
0.531300,-0.566933
0.531400,-0.580565
0.531500,-0.571477
0.531600,-0.557520
0.531700,-0.538370
0.531800,-0.527334
0.531900,-0.527983
0.532000,-0.536747
0.532100,-0.576346
0.532200,-0.601014
0.532300,-0.639964
0.532400,-0.670799
0.532500,-0.670474
0.532600,-0.679563
0.532700,-0.686054
0.532800,-0.773691
0.532900,-0.856784
0.533000,-0.887944
0.533100,-0.848994
0.533200,-0.771095
0.533300,-0.769472
0.533400,-0.850942
0.533500,-0.965844
0.533600,-1.012584
0.533700,-0.983047
0.533800,-0.912613
0.533900,-0.890866
0.534000,-0.936632
0.534100,-1.013882
0.534200,-1.049262
0.534300,-1.063219
0.534400,-1.054130
0.534500,-1.065166
0.534600,-1.104116
0.534700,-1.151180
0.534800,-1.179419
0.534900,-1.194350
0.535000,-1.213176
0.535100,-1.238818
0.535200,-1.252775
0.535300,-1.242713
0.535400,-1.230703
0.535500,-1.220641
0.535600,-1.268679
0.535700,-1.326779
0.535800,-1.352097
0.535900,-1.342359
0.536000,-1.309577
0.536100,-1.327104
0.536200,-1.341710
0.536300,-1.343982
0.536400,-1.343658
0.536500,-1.338464
0.536600,-1.334894
0.536700,-1.331324
0.536800,-1.331324
0.536900,-1.327429
0.537000,-1.332297
0.537100,-1.334245
0.537200,-1.336841
0.537300,-1.339114
0.537400,-1.348202
0.537500,-1.346254
0.537600,-1.361510
0.537700,-1.379037
0.537800,-1.405328
0.537900,-1.469596
0.538000,-1.610789
0.538100,-1.749061
0.538200,-1.770484
0.538300,-1.687715
0.538400,-1.619228
0.538500,-1.656880
0.538600,-1.803591
0.538700,-1.963286
0.538800,-2.019114
0.538900,-1.981463
0.539000,-1.920766
0.539100,-1.924336
0.539200,-1.997367
0.539300,-2.102857
0.539400,-2.167773
0.539500,-2.187573
0.539600,-2.188871
0.539700,-2.194389
0.539800,-2.219382
0.539900,-2.253788
0.540000,-2.283000
0.540100,-2.304747
0.540200,-2.314809
0.540300,-2.343048
0.540400,-2.365769
0.540500,-2.378103
0.540600,-2.384270
0.540700,-2.397254
0.540800,-2.417378
0.540900,-2.453731
0.541000,-2.463793
0.541100,-2.410237
0.541200,-2.343373
0.541300,-2.345645
0.541400,-2.422571
0.541500,-2.521894
0.541600,-2.574801
0.541700,-2.528061
0.541800,-2.444967
0.541900,-2.404070
0.542000,-2.437502
0.542100,-2.532605
0.542200,-2.614725
0.542300,-2.621216
0.542400,-2.581292
0.542500,-2.538123
0.542600,-2.519946
0.542700,-2.519622
0.542800,-2.516700
0.542900,-2.511182
0.543000,-2.499497
0.543100,-2.479049
0.543200,-2.447889
0.543300,-2.396604
0.543400,-2.316432
0.543500,-2.246971
0.543600,-2.192766
0.543700,-2.155439
0.543800,-2.125253
0.543900,-2.062608
0.544000,-1.961988
0.544100,-1.879544
0.544200,-1.776975
0.544300,-1.708164
0.544400,-1.645519
0.544500,-1.578655
0.544600,-1.504651
0.544700,-1.428374
0.544800,-1.347228
0.544900,-1.270951
0.545000,-1.222913
0.545100,-1.182340
0.545200,-1.154102
0.545300,-1.134627
0.545400,-1.121319
0.545500,-1.093405
0.545600,-1.066140
0.545700,-1.045042
0.545800,-1.021023
0.545900,-1.026216
0.546000,-1.025892
0.546100,-1.032059
0.546200,-0.989863
0.546300,-0.887295
0.546400,-0.728250
0.546500,-0.685730
0.546600,-0.773042
0.546700,-0.905796
0.546800,-0.921052
0.546900,-0.827247
0.547000,-0.696766
0.547100,-0.628928
0.547200,-0.674694
0.547300,-0.770446
0.547400,-0.818484
0.547500,-0.776937
0.547600,-0.706828
0.547700,-0.647104
0.547800,-0.632498
0.547900,-0.643534
0.548000,-0.660088
0.548100,-0.668202
0.548200,-0.656517
0.548300,-0.650350
0.548400,-0.646131
0.548500,-0.659114
0.548600,-0.664307
0.548700,-0.675343
0.548800,-0.710398
0.548900,-0.748049
0.549000,-0.797386
0.549100,-0.814589
0.549200,-0.824002
0.549300,-0.823352
0.549400,-0.867496
0.549500,-0.970064
0.549600,-1.051858
0.549700,-1.059973
0.549800,-1.007715
0.549900,-0.941176
0.550000,-0.982073
0.550100,-1.081071
0.550200,-1.187209
0.550300,-1.213176
0.550400,-1.170331
0.550500,-1.111581
0.550600,-1.108985
0.550700,-1.166760
0.550800,-1.237519
0.550900,-1.254722
0.551000,-1.267056
0.551100,-1.261214
0.551200,-1.292049
0.551300,-1.320612
0.551400,-1.348851
0.551500,-1.362808
0.551600,-1.369949
0.551700,-1.393319
0.551800,-1.414741
0.551900,-1.424479
0.552000,-1.413118
0.552100,-1.399810
0.552200,-1.405977
0.552300,-1.461806
0.552400,-1.506273
0.552500,-1.535486
0.552600,-1.538407
0.552700,-1.527371
0.552800,-1.540679
0.552900,-1.546522
0.553000,-1.547495
0.553100,-1.548145
0.553200,-1.541004
0.553300,-1.540355
0.553400,-1.544899
0.553500,-1.544574
0.553600,-1.543276
0.553700,-1.543925
0.553800,-1.547495
0.553900,-1.558531
0.554000,-1.564698
0.554100,-1.575410
0.554200,-1.580927
0.554300,-1.595858
0.554400,-1.613386
0.554500,-1.636106
0.554600,-1.716603
0.554700,-1.872403
0.554800,-1.980489
0.554900,-1.965233
0.555000,-1.869806
0.555100,-1.808784
0.555200,-1.874026
0.555300,-2.027229
0.555400,-2.159009
0.555500,-2.189196
0.555600,-2.127849
0.555700,-2.074618
0.555800,-2.093444
0.555900,-2.188547
0.556000,-2.283974
0.556100,-2.342399
0.556200,-2.341101
0.556300,-2.335258
0.556400,-2.344346
0.556500,-2.372910
0.556600,-2.407640
0.556700,-2.433931
0.556800,-2.443344
0.556900,-2.452757
0.557000,-2.477101
0.557100,-2.502419
0.557200,-2.526762
0.557300,-2.536824
0.557400,-2.550782
0.557500,-2.579994
0.557600,-2.606610
0.557700,-2.609207
0.557800,-2.533903
0.557900,-2.483593
0.558000,-2.494304
0.558100,-2.583889
0.558200,-2.681913
0.558300,-2.704634
0.558400,-2.633550
0.558500,-2.542018
0.558600,-2.519297
0.558700,-2.590381
0.558800,-2.697818
0.558900,-2.758840
0.559000,-2.737417
0.559100,-2.678018
0.559200,-2.646858
0.559300,-2.648481
0.559400,-2.666982
0.559500,-2.670878
0.559600,-2.655622
0.559700,-2.631927
0.559800,-2.594276
0.559900,-2.557922
0.560000,-2.508586
0.560100,-2.438151
0.560200,-2.368690
0.560300,-2.327144
0.560400,-2.291115
0.560500,-2.252489
0.560600,-2.171344
0.560700,-2.077864
0.560800,-1.966207
0.560900,-1.879544
0.561000,-1.817548
0.561100,-1.756202
0.561200,-1.688364
0.561300,-1.612737
0.561400,-1.533538
0.561500,-1.454340
0.561600,-1.382932
0.561700,-1.331648
0.561800,-1.299839
0.561900,-1.269977
0.562000,-1.251476
0.562100,-1.226808
0.562200,-1.210579
0.562300,-1.191104
0.562400,-1.169357
0.562500,-1.158970
0.562600,-1.163190
0.562700,-1.178445
0.562800,-1.172278
0.562900,-1.134302
0.563000,-0.995381
0.563100,-0.884049
0.563200,-0.853539
0.563300,-0.998951
0.563400,-1.100546
0.563500,-1.094379
0.563600,-0.979152
0.563700,-0.864250
0.563800,-0.832441
0.563900,-0.882426
0.564000,-0.970388
0.564100,-0.989214
0.564200,-0.927543
0.564300,-0.843477
0.564400,-0.792193
0.564500,-0.776937
0.564600,-0.784078
0.564700,-0.798684
0.564800,-0.802904
0.564900,-0.787973
0.565000,-0.777586
0.565100,-0.775639
0.565200,-0.777586
0.565300,-0.776288
0.565400,-0.817510
0.565500,-0.848670
0.565600,-0.894111
0.565700,-0.928192
0.565800,-0.946694
0.565900,-0.936632
0.566000,-0.931114
0.566100,-0.996679
0.566200,-1.103791
0.566300,-1.166760
0.566400,-1.153777
0.566500,-1.085939
0.566600,-1.043744
0.566700,-1.091457
0.566800,-1.209605
0.566900,-1.289452
0.567000,-1.301787
0.567100,-1.240765
0.567200,-1.198894
0.567300,-1.219018
0.567400,-1.294970
0.567500,-1.360211
0.567600,-1.381309
0.567700,-1.382932
0.567800,-1.384555
0.567900,-1.416040
0.568000,-1.463429
0.568100,-1.491018
0.568200,-1.502054
0.568300,-1.518932
0.568400,-1.539381
0.568500,-1.561777
0.568600,-1.564698
0.568700,-1.564698
0.568800,-1.552364
0.568900,-1.573787
0.569000,-1.634159
0.569100,-1.678951
0.569200,-1.686417
0.569300,-1.687066
0.569400,-1.685443
0.569500,-1.695830
0.569600,-1.694531
0.569700,-1.689338
0.569800,-1.682846
0.569900,-1.668565
0.570000,-1.657204
0.570100,-1.656231
0.570200,-1.646169
0.570300,-1.638703
0.570400,-1.640326
0.570500,-1.646818
0.570600,-1.648116
0.570700,-1.656555
0.570800,-1.666293
0.570900,-1.687391
0.571000,-1.702970
0.571100,-1.725691
0.571200,-1.771782
0.571300,-1.871104
0.571400,-2.031448
0.571500,-2.094417
0.571600,-2.056441
0.571700,-1.949653
0.571800,-1.909081
0.571900,-1.991200
0.572000,-2.144079
0.572100,-2.244375
0.572200,-2.234637
0.572300,-2.164203
0.572400,-2.120709
0.572500,-2.160957
0.572600,-2.252489
0.572700,-2.334284
0.572800,-2.375506
0.572900,-2.375182
0.573000,-2.372910
0.573100,-2.387191
0.573200,-2.415430
0.573300,-2.440423
0.573400,-2.456003
0.573500,-2.457626
0.573600,-2.472232
0.573700,-2.507937
0.573800,-2.524815
0.573900,-2.524490
0.574000,-2.517025
0.574100,-2.531956
0.574200,-2.562467
0.574300,-2.593627
0.574400,-2.567660
0.574500,-2.488786
0.574600,-2.450810
0.574700,-2.485216
0.574800,-2.573502
0.574900,-2.656271
0.575000,-2.656271
0.575100,-2.573178
0.575200,-2.505340
0.575300,-2.508586
0.575400,-2.589082
0.575500,-2.682887
0.575600,-2.718916
0.575700,-2.691651
0.575800,-2.646534
0.575900,-2.623813
0.576000,-2.631927
0.576100,-2.653025
0.576200,-2.655947
0.576300,-2.648481
0.576400,-2.633226
0.576500,-2.609207
0.576600,-2.583889
0.576700,-2.536175
0.576800,-2.474504
0.576900,-2.413158
0.577000,-2.369339
0.577100,-2.341750
0.577200,-2.305721
0.577300,-2.219057
0.577400,-2.132069
0.577500,-2.023009
0.577600,-1.952575
0.577700,-1.894799
0.577800,-1.850331
0.577900,-1.789309
0.578000,-1.722121
0.578100,-1.649739
0.578200,-1.567944
0.578300,-1.508870
0.578400,-1.474789
0.578500,-1.453367
0.578600,-1.428374
0.578700,-1.414092
0.578800,-1.401433
0.578900,-1.370273
0.579000,-1.361510
0.579100,-1.330025
0.579200,-1.329051
0.579300,-1.330350
0.579400,-1.337815
0.579500,-1.331324
0.579600,-1.264135
0.579700,-1.119047
0.579800,-1.013882
0.579900,-1.032059
0.580000,-1.178770
0.580100,-1.246608
0.580200,-1.217071
0.580300,-1.076526
0.580400,-0.987266
0.580500,-0.966493
0.580600,-1.044717
0.580700,-1.111906
0.580800,-1.114827
0.580900,-1.044393
0.581000,-0.951238
0.581100,-0.912613
0.581200,-0.902550
0.581300,-0.926894
0.581400,-0.939553
0.581500,-0.931114
0.581600,-0.909042
0.581700,-0.892164
0.581800,-0.883076
0.581900,-0.881128
0.582000,-0.897682
0.582100,-0.910340
0.582200,-0.944422
0.582300,-0.984994
0.582400,-1.023620
0.582500,-1.037901
0.582600,-1.037901
0.582700,-1.046016
0.582800,-1.128135
0.582900,-1.234273
0.583000,-1.281013
0.583100,-1.257968
0.583200,-1.185586
0.583300,-1.178121
0.583400,-1.260240
0.583500,-1.369300
0.583600,-1.431944
0.583700,-1.414092
0.583800,-1.349176
0.583900,-1.320288
0.584000,-1.358913
0.584100,-1.435839
0.584200,-1.473166
0.584300,-1.489395
0.584400,-1.487448
0.584500,-1.493939
0.584600,-1.519581
0.584700,-1.547495
0.584800,-1.567620
0.584900,-1.577682
0.585000,-1.595534
0.585100,-1.615009
0.585200,-1.626044
0.585300,-1.622799
0.585400,-1.611438
0.585500,-1.604297
0.585600,-1.642598
0.585700,-1.697128
0.585800,-1.728288
0.585900,-1.731858
0.586000,-1.738675
0.586100,-1.733157
0.586200,-1.739648
0.586300,-1.736403
0.586400,-1.739324
0.586500,-1.736078
0.586600,-1.725367
0.586700,-1.714980
0.586800,-1.711085
0.586900,-1.701023
0.587000,-1.701997
0.587100,-1.701672
0.587200,-1.707839
0.587300,-1.707515
0.587400,-1.714331
0.587500,-1.718226
0.587600,-1.728288
0.587700,-1.745815
0.587800,-1.767238
0.587900,-1.813653
0.588000,-1.949329
0.588100,-2.088575
0.588200,-2.134990
0.588300,-2.071697
0.588400,-1.993148
0.588500,-2.005482
0.588600,-2.148298
0.588700,-2.299879
0.588800,-2.387516
0.588900,-2.362848
0.589000,-2.308318
0.589100,-2.292413
0.589200,-2.350838
0.589300,-2.451459
0.589400,-2.524490
0.589500,-2.554027
0.589600,-2.548509
0.589700,-2.547860
0.589800,-2.556299
0.589900,-2.576099
0.590000,-2.600118
0.590100,-2.614725
0.590200,-2.615374
0.590300,-2.638419
0.590400,-2.664061
0.590500,-2.679317
0.590600,-2.677694
0.590700,-2.669255
0.590800,-2.689703
0.590900,-2.713073
0.591000,-2.722162
0.591100,-2.679966
0.591200,-2.602715
0.591300,-2.583240
0.591400,-2.636147
0.591500,-2.733198
0.591600,-2.801036
0.591700,-2.765007
0.591800,-2.676071
0.591900,-2.612452
0.592000,-2.642314
0.592100,-2.729303
0.592200,-2.813694
0.592300,-2.839337
0.592400,-2.792596
0.592500,-2.745856
0.592600,-2.729627
0.592700,-2.737742
0.592800,-2.741637
0.592900,-2.739689
0.593000,-2.735145
0.593100,-2.703985
0.593200,-2.669255
0.593300,-2.628682
0.593400,-2.559870
0.593500,-2.488137
0.593600,-2.430036
0.593700,-2.386218
0.593800,-2.352136
0.593900,-2.294685
0.594000,-2.200881
0.594100,-2.126876
0.594200,-2.012622
0.594300,-1.943811
0.594400,-1.880517
0.594500,-1.828259
0.594600,-1.764641
0.594700,-1.695181
0.594800,-1.618254
0.594900,-1.542951
0.595000,-1.492316
0.595100,-1.463753
0.595200,-1.446550
0.595300,-1.422531
0.595400,-1.416689
0.595500,-1.388125
0.595600,-1.367352
0.595700,-1.342035
0.595800,-1.338140
0.595900,-1.323534
0.596000,-1.337491
0.596100,-1.331648
0.596200,-1.309901
0.596300,-1.203438
0.596400,-1.052183
0.596500,-0.974608
0.596600,-1.029462
0.596700,-1.159620
0.596800,-1.182016
0.596900,-1.097300
0.597000,-0.965195
0.597100,-0.883725
0.597200,-0.912288
0.597300,-0.989538
0.597400,-1.030760
0.597500,-1.008040
0.597600,-0.931114
0.597700,-0.855811
0.597800,-0.832116
0.597900,-0.840231
0.598000,-0.853214
0.598100,-0.854188
0.598200,-0.845424
0.598300,-0.840555
0.598400,-0.836336
0.598500,-0.838932
0.598600,-0.826598
0.598700,-0.841529
0.598800,-0.873338
0.598900,-0.910016
0.599000,-0.956756
0.599100,-0.995706
0.599200,-0.996679
0.599300,-1.009338
0.599400,-1.027839
0.599500,-1.141118
0.599600,-1.231028
0.599700,-1.259266
0.599800,-1.210254
0.599900,-1.145338
0.600000,-1.163515
0.600100,-1.265758
0.600200,-1.374168
0.600300,-1.414741
0.600400,-1.384555
0.600500,-1.326779
0.600600,-1.318989
0.600700,-1.378063
0.600800,-1.456612
0.600900,-1.489395
0.601000,-1.512441
0.601100,-1.515037
0.601200,-1.535161
0.601300,-1.568593
0.601400,-1.600727
0.601500,-1.622474
0.601600,-1.636106
0.601700,-1.663371
0.601800,-1.685768
0.601900,-1.693558
0.602000,-1.689663
0.602100,-1.678627
0.602200,-1.674407
0.602300,-1.725691
0.602400,-1.780221
0.602500,-1.799696
0.602600,-1.805214
0.602700,-1.789634
0.602800,-1.800345
0.602900,-1.797749
0.603000,-1.794827
0.603100,-1.783142
0.603200,-1.782818
0.603300,-1.773405
0.603400,-1.780546
0.603500,-1.771782
0.603600,-1.762045
0.603700,-1.759772
0.603800,-1.762369
0.603900,-1.763667
0.604000,-1.767887
0.604100,-1.767887
0.604200,-1.771133
0.604300,-1.781520
0.604400,-1.794827
0.604500,-1.825338
0.604600,-1.891553
0.604700,-2.041186
0.604800,-2.166799
0.604900,-2.169721
0.605000,-2.085978
0.605100,-2.009052
0.605200,-2.060661
0.605300,-2.216785
0.605400,-2.371287
0.605500,-2.408614
0.605600,-2.366418
0.605700,-2.305721
0.605800,-2.315783
0.605900,-2.400499
0.606000,-2.494953
0.606100,-2.561817
0.606200,-2.580319
0.606300,-2.587784
0.606400,-2.600118
0.606500,-2.630305
0.606600,-2.668930
0.606700,-2.692625
0.606800,-2.707231
0.606900,-2.719240
0.607000,-2.759813
0.607100,-2.798114
0.607200,-2.823432
0.607300,-2.824081
0.607400,-2.837714
0.607500,-2.861084
0.607600,-2.897437
0.607700,-2.900034
0.607800,-2.834468
0.607900,-2.768577
0.608000,-2.781561
0.608100,-2.863680
0.608200,-2.972741
0.608300,-3.010068
0.608400,-2.946449
0.608500,-2.864005
0.608600,-2.829924
0.608700,-2.896788
0.608800,-3.006173
0.608900,-3.079529
0.609000,-3.074660
0.609100,-3.024674
0.609200,-2.995137
0.609300,-2.995137
0.609400,-3.010392
0.609500,-3.017533
0.609600,-3.013638
0.609700,-3.005524
0.609800,-2.990268
0.609900,-2.962678
0.610000,-2.916263
0.610100,-2.845828
0.610200,-2.776692
0.610300,-2.728653
0.610400,-2.697493
0.610500,-2.665360
0.610600,-2.595899
0.610700,-2.499822
0.610800,-2.406342
0.610900,-2.307669
0.611000,-2.247945
0.611100,-2.186924
0.611200,-2.131744
0.611300,-2.063582
0.611400,-1.983735
0.611500,-1.896097
0.611600,-1.819496
0.611700,-1.764966
0.611800,-1.724068
0.611900,-1.691286
0.612000,-1.662398
0.612100,-1.639028
0.612200,-1.612737
0.612300,-1.587419
0.612400,-1.562426
0.612500,-1.544899
0.612600,-1.531591
0.612700,-1.546846
0.612800,-1.525099
0.612900,-1.499782
0.613000,-1.366054
0.613100,-1.234923
0.613200,-1.189481
0.613300,-1.301462
0.613400,-1.418961
0.613500,-1.422531
0.613600,-1.316393
0.613700,-1.188507
0.613800,-1.132030
0.613900,-1.180068
0.614000,-1.276145
0.614100,-1.309577
0.614200,-1.268030
0.614300,-1.175849
0.614400,-1.119371
0.614500,-1.097624
0.614600,-1.117424
0.614700,-1.135925
0.614800,-1.133653
0.614900,-1.113204
0.615000,-1.097300
0.615100,-1.093729
0.615200,-1.103467
0.615300,-1.105739
0.615400,-1.126512
0.615500,-1.151180
0.615600,-1.183963
0.615700,-1.228106
0.615800,-1.254398
0.615900,-1.251801
0.616000,-1.260889
0.616100,-1.291400
0.616200,-1.407276
0.616300,-1.470569
0.616400,-1.479009
0.616500,-1.415390
0.616600,-1.363133
0.616700,-1.392345
0.616800,-1.512441
0.616900,-1.608517
0.617000,-1.636106
0.617100,-1.577032
0.617200,-1.512116
0.617300,-1.516660
0.617400,-1.582226
0.617500,-1.651037
0.617600,-1.672460
0.617700,-1.664994
0.617800,-1.651037
0.617900,-1.669214
0.618000,-1.696479
0.618100,-1.718875
0.618200,-1.728937
0.618300,-1.728937
0.618400,-1.741596
0.618500,-1.752632
0.618600,-1.751009
0.618700,-1.733806
0.618800,-1.716603
0.618900,-1.732183
0.619000,-1.783792
0.619100,-1.822742
0.619200,-1.825338
0.619300,-1.829882
0.619400,-1.825014
0.619500,-1.831830
0.619600,-1.830856
0.619700,-1.824364
0.619800,-1.813329
0.619900,-1.806837
0.620000,-1.806837
0.620100,-1.807811
0.620200,-1.805214
0.620300,-1.808784
0.620400,-1.813004
0.620500,-1.815276
0.620600,-1.815925
0.620700,-1.826961
0.620800,-1.843515
0.620900,-1.852279
0.621000,-1.872403
0.621100,-1.899992
0.621200,-1.929529
0.621300,-2.030799
0.621400,-2.190169
0.621500,-2.296633
0.621600,-2.259630
0.621700,-2.169721
0.621800,-2.115515
0.621900,-2.194389
0.622000,-2.364146
0.622100,-2.488137
0.622200,-2.511507
0.622300,-2.438800
0.622400,-2.388165
0.622500,-2.405693
0.622600,-2.507937
0.622700,-2.609207
0.622800,-2.653999
0.622900,-2.655297
0.623000,-2.636796
0.623100,-2.649130
0.623200,-2.682238
0.623300,-2.722811
0.623400,-2.754296
0.623500,-2.759164
0.623600,-2.770200
0.623700,-2.796167
0.623800,-2.829274
0.623900,-2.842582
0.624000,-2.847776
0.624100,-2.867575
0.624200,-2.892893
0.624300,-2.919184
0.624400,-2.897762
0.624500,-2.827976
0.624600,-2.778639
0.624700,-2.808176
0.624800,-2.906201
0.624900,-3.005848
0.625000,-3.025972
0.625100,-2.952941
0.625200,-2.867575
0.625300,-2.857838
0.625400,-2.923728
0.625500,-3.028244
0.625600,-3.088617
0.625700,-3.072063
0.625800,-3.018507
0.625900,-2.987347
0.626000,-2.984750
0.626100,-2.998383
0.626200,-2.999681
0.626300,-2.990593
0.626400,-2.972416
0.626500,-2.945151
0.626600,-2.899709
0.626700,-2.837389
0.626800,-2.757866
0.626900,-2.686458
0.627000,-2.643288
0.627100,-2.611479
0.627200,-2.568634
0.627300,-2.478724
0.627400,-2.383621
0.627500,-2.273263
0.627600,-2.184327
0.627700,-2.114217
0.627800,-2.053520
0.627900,-1.982436
0.628000,-1.902589
0.628100,-1.823066
0.628200,-1.730885
0.628300,-1.659476
0.628400,-1.602025
0.628500,-1.567944
0.628600,-1.534512
0.628700,-1.498159
0.628800,-1.479982
0.628900,-1.443304
0.629000,-1.420584
0.629100,-1.390398
0.629200,-1.371247
0.629300,-1.376440
0.629400,-1.379686
0.629500,-1.378063
0.629600,-1.313796
0.629700,-1.185586
0.629800,-1.051209
0.629900,-1.071658
0.630000,-1.191104
0.630100,-1.304059
0.630200,-1.278417
0.630300,-1.160269
0.630400,-1.045042
0.630500,-1.022646
0.630600,-1.084316
0.630700,-1.159295
0.630800,-1.170655
0.630900,-1.118398
0.631000,-1.035629
0.631100,-0.997653
0.631200,-0.987591
0.631300,-1.012908
0.631400,-1.024269
0.631500,-1.033682
