0.000100,-2.717942
0.000200,-2.765656
0.000300,-2.736768
0.000400,-2.685159
0.000500,-2.664710
0.000600,-2.666658
0.000700,-2.684185
0.000800,-2.686458
0.000900,-2.678343
0.001000,-2.661789
0.001100,-2.634524
0.001200,-2.596872
0.001300,-2.529034
0.001400,-2.449836
0.001500,-2.383621
0.001600,-2.335258
0.001700,-2.295334
0.001800,-2.248594
0.001900,-2.151869
0.002000,-2.062933
0.002100,-1.949978
0.002200,-1.860069
0.002300,-1.791257
0.002400,-1.725691
0.002500,-1.648765
0.002600,-1.568593
0.002700,-1.479333
0.002800,-1.395915
0.002900,-1.334569
0.003000,-1.294970
0.003100,-1.258617
0.003200,-1.236870
0.003300,-1.215772
0.003400,-1.200841
0.003500,-1.168383
0.003600,-1.140469
0.003700,-1.117424
0.003800,-1.112555
0.003900,-1.114503
0.004000,-1.125214
0.004100,-1.106063
0.004200,-1.034331
0.004300,-0.882426
0.004400,-0.787973
0.004500,-0.825949
0.004600,-0.960651
0.004700,-1.029137
0.004800,-0.970064
0.004900,-0.843152
0.005000,-0.761682
0.005100,-0.740584
0.005200,-0.811992
0.005300,-0.868794
0.005400,-0.870092
0.005500,-0.822054
0.005600,-0.748374
0.005700,-0.712021
0.005800,-0.694493
0.005900,-0.724355
0.006000,-0.736040
0.006100,-0.735715
0.006200,-0.736365
0.006300,-0.721434
0.006400,-0.718188
0.006500,-0.710398
0.006600,-0.722407
0.006700,-0.738637
0.006800,-0.785052
0.006900,-0.820107
0.007000,-0.861004
0.007100,-0.882102
0.007200,-0.870741
0.007300,-0.884698
0.007400,-0.950264
0.007500,-1.052832
0.007600,-1.080421
0.007700,-1.057052
0.007800,-0.985968
0.007900,-0.968116
0.008000,-1.037252
0.008100,-1.148908
0.008200,-1.190130
0.008300,-1.152154
0.008400,-1.087238
0.008500,-1.065166
0.008600,-1.101519
0.008700,-1.159620
0.008800,-1.193701
0.008900,-1.213176
0.009000,-1.206684
0.009100,-1.218044
0.009200,-1.238493
0.009300,-1.276145
0.009400,-1.308603
0.009500,-1.312822
0.009600,-1.328727
0.009700,-1.356966
0.009800,-1.373195
0.009900,-1.365729
0.010000,-1.343009
0.010100,-1.328727
0.010200,-1.359562
0.010300,-1.408250
0.010400,-1.437137
0.010500,-1.432269
0.010600,-1.400784
0.010700,-1.389424
0.010800,-1.399486
0.010900,-1.400135
0.011000,-1.397538
0.011100,-1.398837
0.011200,-1.401109
0.011300,-1.402407
0.011400,-1.396240
0.011500,-1.390398
0.011600,-1.386503
0.011700,-1.390722
0.011800,-1.391047
0.011900,-1.403381
0.012000,-1.403381
0.012100,-1.416364
0.012200,-1.431295
0.012300,-1.454989
0.012400,-1.479333
0.012500,-1.541004
0.012600,-1.688040
0.012700,-1.824364
0.012800,-1.854551
0.012900,-1.776002
0.013000,-1.705892
0.013100,-1.740622
0.013200,-1.883439
0.013300,-2.027553
0.013400,-2.099611
0.013500,-2.067152
0.013600,-2.009701
0.013700,-2.004833
0.013800,-2.066503
0.013900,-2.167449
0.014000,-2.241778
0.014100,-2.274886
0.014200,-2.270341
0.014300,-2.275535
0.014400,-2.307019
0.014500,-2.346943
0.014600,-2.375182
0.014700,-2.391411
0.014800,-2.404070
0.014900,-2.443669
0.015000,-2.489111
0.015100,-2.512805
0.015200,-2.511182
0.015300,-2.515727
0.015400,-2.528385
0.015500,-2.568958
0.015600,-2.586486
0.015700,-2.553054
0.015800,-2.469960
0.015900,-2.459574
0.016000,-2.522867
0.016100,-2.629331
0.016200,-2.697169
0.016300,-2.660491
0.016400,-2.558896
0.016500,-2.505015
0.016600,-2.544614
0.016700,-2.648806
0.016800,-2.730276
0.016900,-2.740338
0.017000,-2.691975
0.017100,-2.638744
0.017200,-2.616347
0.017300,-2.624137
0.017400,-2.639068
0.017500,-2.629006
0.017600,-2.602390
0.017700,-2.575450
0.017800,-2.549159
0.017900,-2.504366
0.018000,-2.437177
0.018100,-2.357979
0.018200,-2.293711
0.018300,-2.252489
0.018400,-2.222628
0.018500,-2.177186
0.018600,-2.090198
0.018700,-2.020737
0.018800,-1.910703
0.018900,-1.845787
0.019000,-1.783467
0.019100,-1.723744
0.019200,-1.649090
0.019300,-1.570865
0.019400,-1.478359
0.019500,-1.395591
0.019600,-1.350474
0.019700,-1.310226
0.019800,-1.288803
0.019900,-1.252775
0.020000,-1.242388
0.020100,-1.212851
0.020200,-1.194674
0.020300,-1.163190
0.020400,-1.146636
0.020500,-1.143715
0.020600,-1.144364
0.020700,-1.145013
0.020800,-1.118073
0.020900,-1.012259
0.021000,-0.868469
0.021100,-0.805176
0.021200,-0.879830
0.021300,-1.016803
0.021400,-1.041147
0.021500,-0.948641
0.021600,-0.814589
0.021700,-0.734092
0.021800,-0.756813
0.021900,-0.835687
0.022000,-0.878856
0.022100,-0.849319
0.022200,-0.774665
0.022300,-0.707152
0.022400,-0.682484
0.022500,-0.693844
0.022600,-0.709100
0.022700,-0.723057
0.022800,-0.713319
0.022900,-0.704231
0.023000,-0.699038
0.023100,-0.706828
0.023200,-0.701310
0.023300,-0.716240
0.023400,-0.738637
0.023500,-0.772069
0.023600,-0.811668
0.023700,-0.843477
0.023800,-0.849319
0.023900,-0.850617
0.024000,-0.860355
0.024100,-0.971037
0.024200,-1.053806
0.024300,-1.079123
0.024400,-1.027839
0.024500,-0.960002
0.024600,-0.966818
0.024700,-1.067114
0.024800,-1.174226
0.024900,-1.217720
0.025000,-1.179744
0.025100,-1.111581
0.025200,-1.090484
0.025300,-1.146312
0.025400,-1.218369
0.025500,-1.251801
0.025600,-1.256994
0.025700,-1.247906
0.025800,-1.267381
0.025900,-1.306655
0.026000,-1.358588
0.026100,-1.399161
0.026200,-1.416040
0.026300,-1.434216
0.026400,-1.448173
0.026500,-1.455639
0.026600,-1.442980
0.026700,-1.425128
0.026800,-1.422531
0.026900,-1.465701
0.027000,-1.504326
0.027100,-1.518608
0.027200,-1.481930
0.027300,-1.453691
0.027400,-1.463104
0.027500,-1.463104
0.027600,-1.464727
0.027700,-1.465051
0.027800,-1.461481
0.027900,-1.450770
0.028000,-1.446875
0.028100,-1.447199
0.028200,-1.442655
0.028300,-1.445577
0.028400,-1.442980
0.028500,-1.454340
0.028600,-1.462130
0.028700,-1.477710
0.028800,-1.485500
0.028900,-1.502054
0.029000,-1.526398
0.029100,-1.559830
0.029200,-1.648116
0.029300,-1.802617
0.029400,-1.941539
0.029500,-1.936021
0.029600,-1.862990
0.029700,-1.793854
0.029800,-1.864288
0.029900,-2.032422
0.030000,-2.187897
0.030100,-2.241129
0.030200,-2.192442
0.030300,-2.139859
0.030400,-2.148947
0.030500,-2.241454
0.030600,-2.349864
0.030700,-2.410886
0.030800,-2.423545
0.030900,-2.411211
0.031000,-2.417378
0.031100,-2.434256
0.031200,-2.471259
0.031300,-2.492357
0.031400,-2.507612
0.031500,-2.514104
0.031600,-2.532280
0.031700,-2.553703
0.031800,-2.569283
0.031900,-2.572204
0.032000,-2.579994
0.032100,-2.595574
0.032200,-2.615698
0.032300,-2.606935
0.032400,-2.533579
0.032500,-2.469311
0.032600,-2.475803
0.032700,-2.547211
0.032800,-2.646209
0.032900,-2.676071
0.033000,-2.609856
0.033100,-2.518323
0.033200,-2.484891
0.033300,-2.528385
0.033400,-2.627708
0.033500,-2.690353
0.033600,-2.679317
0.033700,-2.621541
0.033800,-2.582915
0.033900,-2.581617
0.034000,-2.593951
0.034100,-2.598495
0.034200,-2.592653
0.034300,-2.572204
0.034400,-2.547211
0.034500,-2.513779
0.034600,-2.462170
0.034700,-2.385244
0.034800,-2.311888
0.034900,-2.261902
0.035000,-2.223926
0.035100,-2.195687
0.035200,-2.120059
0.035300,-2.017816
0.035400,-1.920441
0.035500,-1.820145
0.035600,-1.759448
0.035700,-1.704918
0.035800,-1.644221
0.035900,-1.567944
0.036000,-1.486149
0.036100,-1.409548
0.036200,-1.342035
0.036300,-1.296593
0.036400,-1.271600
0.036500,-1.241739
0.036600,-1.223562
0.036700,-1.204412
0.036800,-1.183314
0.036900,-1.154102
0.037000,-1.127810
0.037100,-1.116775
0.037200,-1.112880
0.037300,-1.122293
0.037400,-1.107037
0.037500,-1.063219
0.037600,-0.942474
0.037700,-0.780832
0.037800,-0.768174
0.037900,-0.862302
0.038000,-0.993109
0.038100,-0.982398
0.038200,-0.882426
0.038300,-0.741233
0.038400,-0.693844
0.038500,-0.744479
0.038600,-0.817510
0.038700,-0.853539
0.038800,-0.798035
0.038900,-0.728575
0.039000,-0.661711
0.039100,-0.666904
0.039200,-0.673396
0.039300,-0.699362
0.039400,-0.687353
0.039500,-0.678914
0.039600,-0.669501
0.039700,-0.671448
0.039800,-0.682484
0.039900,-0.675019
0.040000,-0.693844
0.040100,-0.725978
0.040200,-0.779209
0.040300,-0.820431
0.040400,-0.839906
0.040500,-0.822703
0.040600,-0.820107
0.040700,-0.862627
0.040800,-0.976555
0.040900,-1.043419
0.041000,-1.040173
0.041100,-0.967791
0.041200,-0.916508
0.041300,-0.958703
0.041400,-1.071658
0.041500,-1.164488
0.041600,-1.180068
0.041700,-1.114178
0.041800,-1.046665
0.041900,-1.058674
0.042000,-1.129433
0.042100,-1.193376
0.042200,-1.219343
0.042300,-1.219018
0.042400,-1.215448
0.042500,-1.239467
0.042600,-1.273872
0.042700,-1.310875
0.042800,-1.328402
0.042900,-1.342359
0.043000,-1.367352
0.043100,-1.393643
0.043200,-1.393643
0.043300,-1.377090
0.043400,-1.359562
0.043500,-1.374818
0.043600,-1.436488
0.043700,-1.480307
0.043800,-1.496211
0.043900,-1.485176
0.044000,-1.467648
0.044100,-1.482254
0.044200,-1.494264
0.044300,-1.496861
0.044400,-1.498483
0.044500,-1.492316
0.044600,-1.488421
0.044700,-1.485500
0.044800,-1.485500
0.044900,-1.479982
0.045000,-1.476087
0.045100,-1.466674
0.045200,-1.470569
0.045300,-1.473815
0.045400,-1.479658
0.045500,-1.486799
0.045600,-1.501729
0.045700,-1.528345
0.045800,-1.553987
0.045900,-1.655581
0.046000,-1.812355
0.046100,-1.903887
0.046200,-1.864288
0.046300,-1.761395
0.046400,-1.715629
0.046500,-1.812030
0.046600,-1.979190
0.046700,-2.100260
0.046800,-2.113568
0.046900,-2.049625
0.047000,-2.002236
0.047100,-2.036642
0.047200,-2.139210
0.047300,-2.231067
0.047400,-2.280404
0.047500,-2.270341
0.047600,-2.260929
0.047700,-2.272938
0.047800,-2.305721
0.047900,-2.334609
0.048000,-2.351812
0.048100,-2.355058
0.048200,-2.362848
0.048300,-2.398552
0.048400,-2.427440
0.048500,-2.434256
0.048600,-2.426791
0.048700,-2.436853
0.048800,-2.462170
0.048900,-2.494629
0.049000,-2.477426
0.049100,-2.404070
0.049200,-2.351812
0.049300,-2.378752
0.049400,-2.471583
0.049500,-2.572529
0.049600,-2.580968
0.049700,-2.508261
0.049800,-2.415755
0.049900,-2.396280
0.050000,-2.468986
0.050100,-2.580319
0.050200,-2.647183
0.050300,-2.622839
0.050400,-2.560519
0.050500,-2.502743
0.050600,-2.499173
0.050700,-2.521569
0.050800,-2.538123
0.050900,-2.540719
0.051000,-2.524815
0.051100,-2.496901
0.051200,-2.455029
0.051300,-2.397578
0.051400,-2.332337
0.051500,-2.277158
0.051600,-2.234313
0.051700,-2.205749
0.051800,-2.171668
0.051900,-2.089549
0.052000,-2.009377
0.052100,-1.931477
0.052200,-1.837672
0.052300,-1.774054
0.052400,-1.711085
0.052500,-1.641300
0.052600,-1.566646
0.052700,-1.484526
0.052800,-1.401758
0.052900,-1.337491
0.053000,-1.285557
0.053100,-1.263810
0.053200,-1.227133
0.053300,-1.209281
0.053400,-1.183639
0.053500,-1.149233
0.053600,-1.128460
0.053700,-1.101519
0.053800,-1.096975
0.053900,-1.086913
0.054000,-1.097624
0.054100,-1.084316
0.054200,-1.021672
0.054300,-0.876909
0.054400,-0.766875
0.054500,-0.784078
0.054600,-0.918455
0.054700,-1.009338
0.054800,-0.982073
0.054900,-0.852565
0.055000,-0.757787
0.055100,-0.724355
0.055200,-0.804851
0.055300,-0.874312
0.055400,-0.897033
0.055500,-0.836660
0.055600,-0.755190
0.055700,-0.707152
0.055800,-0.703906
0.055900,-0.730847
0.056000,-0.742856
0.056100,-0.747076
0.056200,-0.738312
0.056300,-0.718188
0.056400,-0.710398
0.056500,-0.702608
0.056600,-0.700985
0.056700,-0.722083
0.056800,-0.763629
0.056900,-0.815563
0.057000,-0.849319
0.057100,-0.872040
0.057200,-0.858732
0.057300,-0.867496
0.057400,-0.926570
0.057500,-1.047314
0.057600,-1.097949
0.057700,-1.085939
0.057800,-1.016803
0.057900,-1.001873
0.058000,-1.063543
0.058100,-1.190130
0.058200,-1.266407
0.058300,-1.269328
0.058400,-1.204087
0.058500,-1.162865
0.058600,-1.191104
0.058700,-1.252775
0.058800,-1.303734
0.058900,-1.332622
0.059000,-1.343009
0.059100,-1.352097
0.059200,-1.379037
0.059300,-1.414741
0.059400,-1.453691
0.059500,-1.481605
0.059600,-1.504975
0.059700,-1.526722
0.059800,-1.545873
0.059900,-1.538083
0.060000,-1.518283
0.060100,-1.512765
0.060200,-1.537433
0.060300,-1.593586
0.060400,-1.625720
0.060500,-1.628966
0.060600,-1.591963
0.060700,-1.584498
0.060800,-1.591639
0.060900,-1.595858
0.061000,-1.592612
0.061100,-1.580927
0.061200,-1.575410
0.061300,-1.566646
0.061400,-1.563400
0.061500,-1.556259
0.061600,-1.550741
0.061700,-1.557557
0.061800,-1.556584
0.061900,-1.556259
0.062000,-1.565347
0.062100,-1.571839
0.062200,-1.586770
0.062300,-1.604947
0.062400,-1.631238
0.062500,-1.686417
0.062600,-1.811057
0.062700,-1.962637
0.062800,-2.012622
0.062900,-1.952575
0.063000,-1.864288
0.063100,-1.867534
0.063200,-2.004508
0.063300,-2.164852
0.063400,-2.264174
0.063500,-2.245349
0.063600,-2.182055
0.063700,-2.161606
0.063800,-2.218733
0.063900,-2.316108
0.064000,-2.395631
0.064100,-2.425817
0.064200,-2.425817
0.064300,-2.431010
0.064400,-2.445941
0.064500,-2.461196
0.064600,-2.475803
0.064700,-2.494304
0.064800,-2.510533
0.064900,-2.540070
0.065000,-2.577073
0.065100,-2.591030
0.065200,-2.579020
0.065300,-2.573502
0.065400,-2.595250
0.065500,-2.622515
0.065600,-2.635822
0.065700,-2.597522
0.065800,-2.512481
0.065900,-2.497225
0.066000,-2.541369
0.066100,-2.640691
0.066200,-2.710801
0.066300,-2.682887
0.066400,-2.596548
0.066500,-2.530008
0.066600,-2.545264
0.066700,-2.628357
0.066800,-2.716968
0.066900,-2.740988
0.067000,-2.707231
0.067100,-2.659842
0.067200,-2.641990
0.067300,-2.639068
0.067400,-2.645235
0.067500,-2.638095
0.067600,-2.630305
0.067700,-2.621541
0.067800,-2.598820
0.067900,-2.552404
0.068000,-2.472881
0.068100,-2.387191
0.068200,-2.322275
0.068300,-2.283000
0.068400,-2.250542
0.068500,-2.196986
0.068600,-2.101558
0.068700,-2.022035
0.068800,-1.922713
0.068900,-1.850656
0.069000,-1.780221
0.069100,-1.721796
0.069200,-1.650388
0.069300,-1.576708
0.069400,-1.493939
0.069500,-1.413767
0.069600,-1.357615
0.069700,-1.314770
0.069800,-1.290751
0.069900,-1.260565
0.070000,-1.244335
0.070100,-1.224861
0.070200,-1.205710
0.070300,-1.180717
0.070400,-1.161567
0.070500,-1.157997
0.070600,-1.159295
0.070700,-1.171304
0.070800,-1.150207
0.070900,-1.069386
0.071000,-0.917481
0.071100,-0.833090
0.071200,-0.900928
0.071300,-1.048288
0.071400,-1.092106
0.071500,-1.018751
0.071600,-0.879505
0.071700,-0.796412
0.071800,-0.818484
0.071900,-0.898980
0.072000,-0.962923
0.072100,-0.935658
0.072200,-0.862627
0.072300,-0.795114
0.072400,-0.773691
0.072500,-0.780183
0.072600,-0.778236
0.072700,-0.778236
0.072800,-0.768174
0.072900,-0.766551
0.073000,-0.768498
0.073100,-0.768174
0.073200,-0.757787
0.073300,-0.733768
0.073400,-0.762331
0.073500,-0.786026
0.073600,-0.842503
0.073700,-0.866522
0.073800,-0.865873
0.073900,-0.846722
0.074000,-0.850942
0.074100,-0.947018
0.074200,-1.040822
0.074300,-1.062245
0.074400,-1.021023
0.074500,-0.935333
0.074600,-0.938904
0.074700,-1.020698
0.074800,-1.137223
0.074900,-1.182340
0.075000,-1.146961
0.075100,-1.073605
0.075200,-1.059648
0.075300,-1.121968
0.075400,-1.197920
0.075500,-1.223887
0.075600,-1.225834
0.075700,-1.212202
0.075800,-1.225834
0.075900,-1.264460
0.076000,-1.308927
0.076100,-1.345930
0.076200,-1.359238
0.076300,-1.367352
0.076400,-1.391371
0.076500,-1.413443
0.076600,-1.413767
0.076700,-1.399486
0.076800,-1.391047
0.076900,-1.430321
0.077000,-1.480631
0.077100,-1.504975
0.077200,-1.480631
0.077300,-1.462455
0.077400,-1.460183
0.077500,-1.472192
0.077600,-1.475763
0.077700,-1.477386
0.077800,-1.481605
0.077900,-1.478684
0.078000,-1.477386
0.078100,-1.476087
0.078200,-1.478359
0.078300,-1.480631
0.078400,-1.481605
0.078500,-1.483228
0.078600,-1.483877
0.078700,-1.496536
0.078800,-1.496536
0.078900,-1.512441
0.079000,-1.533863
0.079100,-1.564698
0.079200,-1.634159
0.079300,-1.788660
0.079400,-1.923038
0.079500,-1.936346
0.079600,-1.843190
0.079700,-1.758799
0.079800,-1.790283
0.079900,-1.937968
0.080000,-2.091821
0.080100,-2.156088
0.080200,-2.113243
0.080300,-2.046055
0.080400,-2.042809
0.080500,-2.121033
0.080600,-2.228146
0.080700,-2.294361
0.080800,-2.299879
0.080900,-2.289167
0.081000,-2.295334
0.081100,-2.327468
0.081200,-2.376480
0.081300,-2.410561
0.081400,-2.411860
0.081500,-2.414132
0.081600,-2.438800
0.081700,-2.478399
0.081800,-2.500796
0.081900,-2.505664
0.082000,-2.512156
0.082100,-2.522543
0.082200,-2.548834
0.082300,-2.559221
0.082400,-2.510533
0.082500,-2.434581
0.082600,-2.434905
0.082700,-2.497874
0.082800,-2.608233
0.082900,-2.660491
0.083000,-2.609207
0.083100,-2.507287
0.083200,-2.457301
0.083300,-2.502094
0.083400,-2.609531
0.083500,-2.691002
0.083600,-2.686133
0.083700,-2.625111
0.083800,-2.576424
0.083900,-2.572204
0.084000,-2.601417
0.084100,-2.620242
0.084200,-2.608882
0.084300,-2.582266
0.084400,-2.546562
0.084500,-2.509884
0.084600,-2.462495
0.084700,-2.381998
0.084800,-2.306370
0.084900,-2.251840
0.085000,-2.210294
0.085100,-2.175239
0.085200,-2.114866
0.085300,-2.023658
0.085400,-1.958417
0.085500,-1.846436
0.085600,-1.779572
0.085700,-1.717252
0.085800,-1.646493
0.085900,-1.567944
0.086000,-1.485825
0.086100,-1.402083
0.086200,-1.327104
0.086300,-1.277443
0.086400,-1.244660
0.086500,-1.208631
0.086600,-1.186884
0.086700,-1.166111
0.086800,-1.145662
0.086900,-1.120670
0.087000,-1.101519
0.087100,-1.094703
0.087200,-1.086913
0.087300,-1.112231
0.087400,-1.099572
0.087500,-1.082694
0.087600,-0.959028
0.087700,-0.825625
0.087800,-0.777911
0.087900,-0.874636
0.088000,-1.009013
0.088100,-1.018102
0.088200,-0.940851
0.088300,-0.792842
0.088400,-0.739610
0.088500,-0.763954
0.088600,-0.850293
0.088700,-0.883725
0.088800,-0.843477
0.088900,-0.762006
0.089000,-0.697739
0.089100,-0.680212
0.089200,-0.683133
0.089300,-0.711696
0.089400,-0.713644
0.089500,-0.700985
0.089600,-0.684431
0.089700,-0.666255
0.089800,-0.668202
0.089900,-0.675992
0.090000,-0.704555
0.090100,-0.732470
0.090200,-0.769147
0.090300,-0.794789
0.090400,-0.823352
0.090500,-0.822054
0.090600,-0.826598
0.090700,-0.854837
0.090800,-0.970388
0.090900,-1.040173
0.091000,-1.059973
0.091100,-1.000574
0.091200,-0.948641
0.091300,-0.977854
0.091400,-1.080097
0.091500,-1.190130
0.091600,-1.217071
0.091700,-1.169682
0.091800,-1.104765
0.091900,-1.108011
0.092000,-1.176173
0.092100,-1.250503
0.092200,-1.277443
0.092300,-1.278417
0.092400,-1.267381
0.092500,-1.283610
0.092600,-1.310550
0.092700,-1.340412
0.092800,-1.364106
0.092900,-1.377739
0.093000,-1.397863
0.093100,-1.415066
0.093200,-1.413767
0.093300,-1.406302
0.093400,-1.398512
0.093500,-1.410522
0.093600,-1.464727
0.093700,-1.507247
0.093800,-1.523152
0.093900,-1.529968
0.094000,-1.519906
0.094100,-1.526398
0.094200,-1.525099
0.094300,-1.519257
0.094400,-1.517634
0.094500,-1.507572
0.094600,-1.501080
0.094700,-1.495562
0.094800,-1.501729
0.094900,-1.506923
0.095000,-1.508870
0.095100,-1.512765
0.095200,-1.520231
0.095300,-1.521529
0.095400,-1.529968
0.095500,-1.544899
0.095600,-1.565672
0.095700,-1.589691
0.095800,-1.624746
0.095900,-1.714980
0.096000,-1.877271
0.096100,-1.975295
0.096200,-1.959391
0.096300,-1.865586
0.096400,-1.813329
0.096500,-1.895123
0.096600,-2.047353
0.096700,-2.169721
0.096800,-2.193740
0.096900,-2.149597
0.097000,-2.109997
0.097100,-2.130446
0.097200,-2.222303
0.097300,-2.319354
0.097400,-2.369664
0.097500,-2.366094
0.097600,-2.359926
0.097700,-2.360251
0.097800,-2.381349
0.097900,-2.406666
0.098000,-2.424519
0.098100,-2.444967
0.098200,-2.462170
0.098300,-2.484891
0.098400,-2.507612
0.098500,-2.516700
0.098600,-2.517999
0.098700,-2.533254
0.098800,-2.569283
0.098900,-2.596223
0.099000,-2.591679
0.099100,-2.514428
0.099200,-2.469636
0.099300,-2.501445
0.099400,-2.591030
0.099500,-2.687107
0.099600,-2.710477
0.099700,-2.637445
0.099800,-2.554352
0.099900,-2.540395
0.100000,-2.605312
0.100100,-2.712749
0.100200,-2.769226
0.100300,-2.736768
0.100400,-2.673799
0.100500,-2.631278
0.100600,-2.624137
0.100700,-2.629331
0.100800,-2.627383
0.100900,-2.617646
0.101000,-2.599794
0.101100,-2.567335
0.101200,-2.522543
0.101300,-2.466065
0.101400,-2.394332
0.101500,-2.328117
0.101600,-2.280079
0.101700,-2.252814
0.101800,-2.213539
0.101900,-2.132394
0.102000,-2.037940
0.102100,-1.939591
0.102200,-1.847410
0.102300,-1.780870
0.102400,-1.720498
0.102500,-1.655581
0.102600,-1.584822
0.102700,-1.505624
0.102800,-1.415066
0.102900,-1.346254
0.103000,-1.298865
0.103100,-1.271276
0.103200,-1.235896
0.103300,-1.222264
0.103400,-1.205710
0.103500,-1.182340
0.103600,-1.156374
0.103700,-1.133978
0.103800,-1.111257
0.103900,-1.121643
0.104000,-1.126837
0.104100,-1.130732
0.104200,-1.058674
0.104300,-0.933386
0.104400,-0.803878
0.104500,-0.807448
0.104600,-0.934035
0.104700,-1.026541
0.104800,-0.999925
0.104900,-0.878207
0.105000,-0.770446
0.105100,-0.735715
0.105200,-0.803553
0.105300,-0.878531
0.105400,-0.893787
0.105500,-0.837634
0.105600,-0.759410
0.105700,-0.716890
0.105800,-0.708126
0.105900,-0.718837
0.106000,-0.737338
0.106100,-0.736040
0.106200,-0.727601
0.106300,-0.717214
0.106400,-0.718837
0.106500,-0.715916
0.106600,-0.708126
0.106700,-0.715916
0.106800,-0.765901
0.106900,-0.800956
0.107000,-0.846398
0.107100,-0.854837
0.107200,-0.845749
0.107300,-0.842178
0.107400,-0.892164
0.107500,-1.014207
0.107600,-1.063868
0.107700,-1.051534
0.107800,-0.966169
0.107900,-0.925920
0.108000,-0.979152
0.108100,-1.104116
0.108200,-1.181367
0.108300,-1.169032
0.108400,-1.097300
0.108500,-1.044068
0.108600,-1.061920
0.108700,-1.132679
0.108800,-1.184612
0.108900,-1.198245
0.109000,-1.196297
0.109100,-1.196622
0.109200,-1.233949
0.109300,-1.263486
0.109400,-1.282961
0.109500,-1.288479
0.109600,-1.299839
0.109700,-1.328727
0.109800,-1.352746
0.109900,-1.349825
0.110000,-1.331324
0.110100,-1.316393
0.110200,-1.340412
0.110300,-1.412145
0.110400,-1.466350
0.110500,-1.482579
0.110600,-1.491018
0.110700,-1.482904
0.110800,-1.494588
0.110900,-1.503677
0.111000,-1.502378
0.111100,-1.504975
0.111200,-1.507247
0.111300,-1.508221
0.111400,-1.508870
0.111500,-1.500431
0.111600,-1.500756
0.111700,-1.495562
0.111800,-1.494913
0.111900,-1.497185
0.112000,-1.499782
0.112100,-1.497185
0.112200,-1.507896
0.112300,-1.525424
0.112400,-1.547820
0.112500,-1.583524
0.112600,-1.706541
0.112700,-1.867209
0.112800,-1.934723
0.112900,-1.877921
0.113000,-1.788336
0.113100,-1.776002
0.113200,-1.890904
0.113300,-2.067802
0.113400,-2.183353
0.113500,-2.171993
0.113600,-2.106102
0.113700,-2.067802
0.113800,-2.114866
0.113900,-2.201205
0.114000,-2.284299
0.114100,-2.321950
0.114200,-2.325521
0.114300,-2.315459
0.114400,-2.309616
0.114500,-2.328442
0.114600,-2.350514
0.114700,-2.366743
0.114800,-2.370962
0.114900,-2.392385
0.115000,-2.407316
0.115100,-2.432309
0.115200,-2.435554
0.115300,-2.442695
0.115400,-2.453406
0.115500,-2.480022
0.115600,-2.493979
0.115700,-2.473206
0.115800,-2.391736
0.115900,-2.361549
0.116000,-2.409912
0.116100,-2.516700
0.116200,-2.616672
0.116300,-2.606285
0.116400,-2.510533
0.116500,-2.423545
0.116600,-2.421273
0.116700,-2.512156
0.116800,-2.616672
0.116900,-2.667632
0.117000,-2.639393
0.117100,-2.584863
0.117200,-2.553378
0.117300,-2.551106
0.117400,-2.569932
0.117500,-2.570257
0.117600,-2.561493
0.117700,-2.540719
0.117800,-2.513130
0.117900,-2.475803
0.118000,-2.412509
0.118100,-2.328117
0.118200,-2.252814
0.118300,-2.206399
0.118400,-2.173616
0.118500,-2.127525
0.118600,-2.038589
0.118700,-1.949004
0.118800,-1.828909
0.118900,-1.742894
0.119000,-1.686417
0.119100,-1.624422
0.119200,-1.564049
0.119300,-1.492966
0.119400,-1.409872
0.119500,-1.333596
0.119600,-1.273872
0.119700,-1.227782
0.119800,-1.206035
0.119900,-1.171304
0.120000,-1.172603
0.120100,-1.142092
0.120200,-1.136899
0.120300,-1.109309
0.120400,-1.091457
0.120500,-1.088536
0.120600,-1.085939
0.120700,-1.105739
0.120800,-1.078799
0.120900,-0.998951
0.121000,-0.850617
0.121100,-0.754866
0.121200,-0.798360
0.121300,-0.947343
0.121400,-1.023944
0.121500,-0.950913
0.121600,-0.826923
0.121700,-0.721434
0.121800,-0.721434
0.121900,-0.794140
0.122000,-0.863276
0.122100,-0.866522
0.122200,-0.796737
0.122300,-0.724680
0.122400,-0.672746
0.122500,-0.675019
0.122600,-0.691897
0.122700,-0.709749
0.122800,-0.705854
0.122900,-0.699362
0.123000,-0.692546
0.123100,-0.695792
0.123200,-0.690274
0.123300,-0.701959
0.123400,-0.727601
0.123500,-0.764603
0.123600,-0.792193
0.123700,-0.825300
0.123800,-0.834064
0.123900,-0.837309
0.124000,-0.848994
0.124100,-0.918130
0.124200,-1.030111
0.124300,-1.063868
0.124400,-1.024269
0.124500,-0.940851
0.124600,-0.914885
0.124700,-0.976555
0.124800,-1.101844
0.124900,-1.159944
0.125000,-1.127486
0.125100,-1.060622
0.125200,-1.039849
0.125300,-1.084966
0.125400,-1.147610
0.125500,-1.188832
0.125600,-1.218044
0.125700,-1.226159
0.125800,-1.238818
0.125900,-1.267056
0.126000,-1.302111
0.126100,-1.325481
0.126200,-1.341386
0.126300,-1.364431
0.126400,-1.389748
0.126500,-1.409872
0.126600,-1.410522
0.126700,-1.400460
0.126800,-1.400135
0.126900,-1.437137
0.127000,-1.494264
0.127100,-1.523476
0.127200,-1.533538
0.127300,-1.521853
0.127400,-1.517634
0.127500,-1.523152
0.127600,-1.523476
0.127700,-1.516336
0.127800,-1.505300
0.127900,-1.506923
0.128000,-1.499782
0.128100,-1.495238
0.128200,-1.494913
0.128300,-1.489720
0.128400,-1.497185
0.128500,-1.501729
0.128600,-1.506273
0.128700,-1.507896
0.128800,-1.518283
0.128900,-1.523476
0.129000,-1.541328
0.129100,-1.563075
0.129200,-1.608192
0.129300,-1.750035
0.129400,-1.887009
0.129500,-1.914598
0.129600,-1.825338
0.129700,-1.737701
0.129800,-1.741271
0.129900,-1.877271
0.130000,-2.034045
0.130100,-2.118437
0.130200,-2.099286
0.130300,-2.037940
0.130400,-2.023658
0.130500,-2.072346
0.130600,-2.167124
0.130700,-2.240155
0.130800,-2.272289
0.130900,-2.287544
0.131000,-2.302475
0.131100,-2.323249
0.131200,-2.353435
0.131300,-2.384270
0.131400,-2.406342
0.131500,-2.437177
0.131600,-2.463469
0.131700,-2.495278
0.131800,-2.524815
0.131900,-2.535851
0.132000,-2.558247
0.132100,-2.585837
0.132200,-2.619593
0.132300,-2.634849
0.132400,-2.588758
0.132500,-2.507937
0.132600,-2.481970
0.132700,-2.558572
0.132800,-2.667307
0.132900,-2.726706
0.133000,-2.681589
0.133100,-2.572529
0.133200,-2.514428
0.133300,-2.555001
0.133400,-2.657245
0.133500,-2.737093
0.133600,-2.736443
0.133700,-2.687431
0.133800,-2.641340
0.133900,-2.638744
0.134000,-2.653999
0.134100,-2.653999
0.134200,-2.641990
0.134300,-2.628682
0.134400,-2.611154
0.134500,-2.600118
0.134600,-2.558247
0.134700,-2.489760
0.134800,-2.407640
0.134900,-2.348891
0.135000,-2.306370
0.135100,-2.275210
0.135200,-2.221005
0.135300,-2.113568
0.135400,-2.014570
0.135500,-1.895773
0.135600,-1.823391
0.135700,-1.763343
0.135800,-1.701997
0.135900,-1.618254
0.136000,-1.532889
0.136100,-1.445252
0.136200,-1.366703
0.136300,-1.319314
0.136400,-1.281013
0.136500,-1.252450
0.136600,-1.221615
0.136700,-1.210579
0.136800,-1.187858
0.136900,-1.170006
0.137000,-1.141118
0.137100,-1.138197
0.137200,-1.113204
0.137300,-1.137873
0.137400,-1.134302
0.137500,-1.122617
0.137600,-1.011285
0.137700,-0.877882
0.137800,-0.799333
0.137900,-0.903849
0.138000,-1.031734
0.138100,-1.074254
0.138200,-1.000899
0.138300,-0.875286
0.138400,-0.805176
0.138500,-0.827897
0.138600,-0.907419
0.138700,-0.960975
0.138800,-0.934035
0.138900,-0.866197
0.139000,-0.809395
0.139100,-0.791219
0.139200,-0.792517
0.139300,-0.810369
0.139400,-0.821730
0.139500,-0.815887
0.139600,-0.800632
0.139700,-0.794140
0.139800,-0.786999
0.139900,-0.793166
0.140000,-0.828221
0.140100,-0.838608
0.140200,-0.869768
0.140300,-0.909367
0.140400,-0.945720
0.140500,-0.945720
0.140600,-0.931438
0.140700,-0.944746
0.140800,-1.047963
0.140900,-1.147285
0.141000,-1.168708
0.141100,-1.103467
0.141200,-1.042121
0.141300,-1.049262
0.141400,-1.147935
0.141500,-1.254073
0.141600,-1.289777
0.141700,-1.234598
0.141800,-1.152479
0.141900,-1.146636
0.142000,-1.206684
0.142100,-1.283935
0.142200,-1.296269
0.142300,-1.289452
0.142400,-1.266732
0.142500,-1.288803
0.142600,-1.322884
0.142700,-1.363457
0.142800,-1.382608
0.142900,-1.397214
0.143000,-1.414741
0.143100,-1.426426
0.143200,-1.411495
0.143300,-1.376116
0.143400,-1.349825
0.143500,-1.351123
0.143600,-1.391371
0.143700,-1.444603
0.143800,-1.477386
0.143900,-1.488421
0.144000,-1.491667
0.144100,-1.489395
0.144200,-1.484202
0.144300,-1.484526
0.144400,-1.473491
0.144500,-1.468622
0.144600,-1.452068
0.144700,-1.447524
0.144800,-1.439734
0.144900,-1.430970
0.145000,-1.421557
0.145100,-1.425128
0.145200,-1.424154
0.145300,-1.425777
0.145400,-1.424803
0.145500,-1.430970
0.145600,-1.446875
0.145700,-1.462130
0.145800,-1.491992
0.145900,-1.576383
0.146000,-1.734780
0.146100,-1.840918
0.146200,-1.834102
0.146300,-1.743868
0.146400,-1.696154
0.146500,-1.749061
0.146600,-1.890904
0.146700,-2.026255
0.146800,-2.073644
0.146900,-2.052546
0.147000,-1.997692
0.147100,-2.012947
0.147200,-2.090522
0.147300,-2.186924
0.147400,-2.254112
0.147500,-2.284299
0.147600,-2.282676
0.147700,-2.283325
0.147800,-2.303774
0.147900,-2.348241
0.148000,-2.380375
0.148100,-2.412509
0.148200,-2.426141
0.148300,-2.444643
0.148400,-2.468337
0.148500,-2.486839
0.148600,-2.493006
0.148700,-2.496901
0.148800,-2.516700
0.148900,-2.545588
0.149000,-2.550782
0.149100,-2.484567
0.149200,-2.404394
0.149300,-2.406991
0.149400,-2.498524
0.149500,-2.590705
0.149600,-2.629331
0.149700,-2.555650
0.149800,-2.452108
0.149900,-2.412184
0.150000,-2.468337
0.150100,-2.585187
0.150200,-2.657245
0.150300,-2.647183
0.150400,-2.603364
0.150500,-2.569607
0.150600,-2.572204
0.150700,-2.588109
0.150800,-2.602390
0.150900,-2.602390
0.151000,-2.602066
0.151100,-2.587135
0.151200,-2.566037
0.151300,-2.515402
0.151400,-2.443669
0.151500,-2.381998
0.151600,-2.344346
0.151700,-2.316757
0.151800,-2.291439
0.151900,-2.232041
0.152000,-2.137912
0.152100,-2.054818
0.152200,-1.953224
0.152300,-1.886035
0.152400,-1.824040
0.152500,-1.758474
0.152600,-1.677328
0.152700,-1.592288
0.152800,-1.506273
0.152900,-1.437137
0.153000,-1.373195
0.153100,-1.339763
0.153200,-1.308278
0.153300,-1.276794
0.153400,-1.251476
0.153500,-1.226483
0.153600,-1.190779
0.153700,-1.161892
0.153800,-1.148259
0.153900,-1.133653
0.154000,-1.145987
0.154100,-1.130407
0.154200,-1.088211
0.154300,-0.956756
0.154400,-0.834388
0.154500,-0.821730
0.154600,-0.929166
0.154700,-1.040173
0.154800,-1.018102
0.154900,-0.919753
0.155000,-0.811343
0.155100,-0.776937
0.155200,-0.812966
0.155300,-0.880154
0.155400,-0.903524
0.155500,-0.865873
0.155600,-0.803228
0.155700,-0.749672
0.155800,-0.727601
0.155900,-0.718512
0.156000,-0.741558
0.156100,-0.747725
0.156200,-0.752918
0.156300,-0.742532
0.156400,-0.735715
0.156500,-0.727601
0.156600,-0.733119
0.156700,-0.758761
0.156800,-0.785052
0.156900,-0.814913
0.157000,-0.856135
0.157100,-0.881453
0.157200,-0.882426
0.157300,-0.883400
0.157400,-0.898655
0.157500,-1.014207
0.157600,-1.072956
0.157700,-1.059648
0.157800,-0.982073
0.157900,-0.942149
0.158000,-0.963896
0.158100,-1.074904
0.158200,-1.159620
0.158300,-1.161242
0.158400,-1.085290
0.158500,-1.029462
0.158600,-1.044393
0.158700,-1.109634
0.158800,-1.170331
0.158900,-1.182665
0.159000,-1.187209
0.159100,-1.190779
0.159200,-1.234273
0.159300,-1.284259
0.159400,-1.304059
0.159500,-1.302111
0.159600,-1.310875
0.159700,-1.344956
0.159800,-1.377090
0.159900,-1.390073
0.160000,-1.390073
0.160100,-1.379362
0.160200,-1.393643
0.160300,-1.453042
0.160400,-1.512765
0.160500,-1.538732
0.160600,-1.549118
0.160700,-1.548469
0.160800,-1.559830
0.160900,-1.565997
0.161000,-1.563725
0.161100,-1.562751
0.161200,-1.561128
0.161300,-1.553013
0.161400,-1.550417
0.161500,-1.546197
0.161600,-1.545548
0.161700,-1.550417
0.161800,-1.552689
0.161900,-1.552689
0.162000,-1.563725
0.162100,-1.574436
0.162200,-1.584498
0.162300,-1.605271
0.162400,-1.625720
0.162500,-1.657529
0.162600,-1.777949
0.162700,-1.924985
0.162800,-2.002236
0.162900,-1.950952
0.163000,-1.868508
0.163100,-1.846436
0.163200,-1.938618
0.163300,-2.096040
0.163400,-2.205100
0.163500,-2.214513
0.163600,-2.170045
0.163700,-2.137912
0.163800,-2.170694
0.163900,-2.263850
0.164000,-2.350838
0.164100,-2.387841
0.164200,-2.404394
0.164300,-2.407316
0.164400,-2.417053
0.164500,-2.433931
0.164600,-2.454380
0.164700,-2.464442
0.164800,-2.488137
0.164900,-2.499822
0.165000,-2.512156
0.165100,-2.550132
0.165200,-2.562467
0.165300,-2.562791
0.165400,-2.559870
0.165500,-2.585512
0.165600,-2.598171
0.165700,-2.582266
0.165800,-2.507612
0.165900,-2.455679
0.166000,-2.498199
0.166100,-2.612128
0.166200,-2.692300
0.166300,-2.700415
0.166400,-2.615698
0.166500,-2.530333
0.166600,-2.530657
0.166700,-2.617646
0.166800,-2.715995
0.166900,-2.750076
0.167000,-2.711450
0.167100,-2.653675
0.167200,-2.627708
0.167300,-2.642639
0.167400,-2.656920
0.167500,-2.649130
0.167600,-2.632577
0.167700,-2.612777
0.167800,-2.594925
0.167900,-2.566362
0.168000,-2.514428
0.168100,-2.432309
0.168200,-2.360251
0.168300,-2.310590
0.168400,-2.276833
0.168500,-2.235286
0.168600,-2.146351
0.168700,-2.056117
0.168800,-1.952250
0.168900,-1.869481
0.169000,-1.803267
0.169100,-1.745815
0.169200,-1.682522
0.169300,-1.606894
0.169400,-1.525748
0.169500,-1.440708
0.169600,-1.384880
0.169700,-1.338789
0.169800,-1.310875
0.169900,-1.279390
0.170000,-1.266083
0.170100,-1.251476
0.170200,-1.226159
0.170300,-1.208631
0.170400,-1.178121
0.170500,-1.177147
0.170600,-1.166111
0.170700,-1.177147
0.170800,-1.164488
0.170900,-1.096326
0.171000,-0.941825
0.171100,-0.852889
0.171200,-0.869443
0.171300,-1.008689
0.171400,-1.076202
0.171500,-1.043095
0.171600,-0.909691
0.171700,-0.807773
0.171800,-0.773691
0.171900,-0.841529
0.172000,-0.912937
0.172100,-0.934035
0.172200,-0.873663
0.172300,-0.798360
0.172400,-0.751620
0.172500,-0.748699
0.172600,-0.769472
0.172700,-0.779534
0.172800,-0.785052
0.172900,-0.763305
0.173000,-0.757462
0.173100,-0.758761
0.173200,-0.763954
0.173300,-0.772718
0.173400,-0.810369
0.173500,-0.819782
0.173600,-0.859381
0.173700,-0.885023
0.173800,-0.903524
0.173900,-0.900278
0.174000,-0.893138
0.174100,-0.958054
0.174200,-1.066140
0.174300,-1.108660
0.174400,-1.071009
0.174500,-0.989214
0.174600,-0.960975
0.174700,-1.027190
0.174800,-1.148259
0.174900,-1.216097
0.175000,-1.199219
0.175100,-1.110283
0.175200,-1.066464
0.175300,-1.108660
0.175400,-1.186884
0.175500,-1.231677
0.175600,-1.228431
0.175700,-1.214799
0.175800,-1.225185
0.175900,-1.268355
0.176000,-1.313796
0.176100,-1.327753
0.176200,-1.328727
0.176300,-1.343333
0.176400,-1.369300
0.176500,-1.384555
0.176600,-1.377739
0.176700,-1.365080
0.176800,-1.358264
0.176900,-1.385529
0.177000,-1.441682
0.177100,-1.481605
0.177200,-1.490369
0.177300,-1.489720
0.177400,-1.475114
0.177500,-1.479982
0.177600,-1.475438
0.177700,-1.474140
0.177800,-1.462455
0.177900,-1.454340
0.178000,-1.452717
0.178100,-1.447849
0.178200,-1.446226
0.178300,-1.439085
0.178400,-1.439734
0.178500,-1.442006
0.178600,-1.440059
0.178700,-1.441032
0.178800,-1.441032
0.178900,-1.453691
0.179000,-1.468297
0.179100,-1.496536
0.179200,-1.546846
0.179300,-1.680250
0.179400,-1.831505
0.179500,-1.883114
0.179600,-1.820469
0.179700,-1.731534
0.179800,-1.728288
0.179900,-1.848708
0.180000,-2.010350
0.180100,-2.114217
0.180200,-2.105453
0.180300,-2.049625
0.180400,-2.020412
0.180500,-2.068126
0.180600,-2.161931
0.180700,-2.240480
0.180800,-2.270991
0.180900,-2.271640
0.181000,-2.261578
0.181100,-2.270017
0.181200,-2.287220
0.181300,-2.320976
0.181400,-2.340127
0.181500,-2.351487
0.181600,-2.351812
0.181700,-2.365444
0.181800,-2.393359
0.181900,-2.408939
0.182000,-2.422896
0.182100,-2.439449
0.182200,-2.467039
0.182300,-2.482944
0.182400,-2.448538
0.182500,-2.357654
0.182600,-2.323249
0.182700,-2.380700
0.182800,-2.488462
0.182900,-2.559545
0.183000,-2.539421
0.183100,-2.446590
0.183200,-2.380700
0.183300,-2.410237
0.183400,-2.518648
0.183500,-2.619593
0.183600,-2.641990
0.183700,-2.588433
0.183800,-2.546887
0.183900,-2.545588
0.184000,-2.569607
0.184100,-2.590056
0.184200,-2.589082
0.184300,-2.572204
0.184400,-2.551755
0.184500,-2.532929
0.184600,-2.494953
0.184700,-2.432633
0.184800,-2.357330
0.184900,-2.296633
0.185000,-2.263850
0.185100,-2.235611
0.185200,-2.187248
0.185300,-2.095716
0.185400,-2.011000
0.185500,-1.891553
0.185600,-1.818522
0.185700,-1.756527
0.185800,-1.702646
0.185900,-1.629939
0.186000,-1.555935
0.186100,-1.468297
0.186200,-1.388125
0.186300,-1.339438
0.186400,-1.301787
0.186500,-1.272574
0.186600,-1.253099
0.186700,-1.239467
0.186800,-1.216421
0.186900,-1.187534
0.187000,-1.156374
0.187100,-1.136574
0.187200,-1.125538
0.187300,-1.122942
0.187400,-1.136574
0.187500,-1.103142
0.187600,-1.017128
0.187700,-0.853539
0.187800,-0.786675
0.187900,-0.818808
0.188000,-0.955133
0.188100,-0.997004
0.188200,-0.925596
0.188300,-0.802904
0.188400,-0.707801
0.188500,-0.716240
0.188600,-0.785701
0.188700,-0.837309
0.188800,-0.824975
0.188900,-0.751620
0.189000,-0.681186
0.189100,-0.638990
0.189200,-0.640288
0.189300,-0.662360
0.189400,-0.678589
0.189500,-0.683782
0.189600,-0.672422
0.189700,-0.662684
0.189800,-0.649377
0.189900,-0.653596
0.190000,-0.674694
0.190100,-0.710073
0.190200,-0.732145
0.190300,-0.782780
0.190400,-0.798360
0.190500,-0.813290
0.190600,-0.799658
0.190700,-0.818808
0.190800,-0.895085
0.190900,-1.009013
0.191000,-1.028813
0.191100,-0.973959
0.191200,-0.904498
0.191300,-0.896059
0.191400,-0.980775
0.191500,-1.087562
0.191600,-1.128460
0.191700,-1.081720
0.191800,-1.007715
0.191900,-0.923324
0.192000,-1.031410
0.192100,-1.099572
0.192200,-1.126512
0.192300,-1.135276
0.192400,-1.136574
0.192500,-1.159944
0.192600,-1.191104
0.192700,-1.223887
0.192800,-1.239467
0.192900,-1.255047
0.193000,-1.288479
0.193100,-1.321911
0.193200,-1.339438
0.193300,-1.334894
0.193400,-1.330025
0.193500,-1.332297
0.193600,-1.379686
0.193700,-1.446550
0.193800,-1.484851
0.193900,-1.493290
0.194000,-1.492641
0.194100,-1.493615
0.194200,-1.506598
0.194300,-1.511467
0.194400,-1.505300
0.194500,-1.506923
0.194600,-1.501080
0.194700,-1.495887
0.194800,-1.496211
0.194900,-1.496211
0.195000,-1.502378
0.195100,-1.503352
0.195200,-1.516660
0.195300,-1.530617
0.195400,-1.535486
0.195500,-1.537433
0.195600,-1.556584
0.195700,-1.577357
0.195800,-1.609166
0.195900,-1.676355
0.196000,-1.832479
0.196100,-1.954522
0.196200,-1.968155
0.196300,-1.899343
0.196400,-1.827935
0.196500,-1.867859
0.196600,-2.009377
0.196700,-2.160308
0.196800,-2.221979
0.196900,-2.181406
0.197000,-2.127849
0.197100,-2.125253
0.197200,-2.201205
0.197300,-2.293711
0.197400,-2.366094
0.197500,-2.392385
0.197600,-2.389464
0.197700,-2.388165
0.197800,-2.404719
0.197900,-2.436853
0.198000,-2.466714
0.198100,-2.490084
0.198200,-2.517025
0.198300,-2.542018
0.198400,-2.566362
0.198500,-2.593302
0.198600,-2.592004
0.198700,-2.599794
0.198800,-2.612452
0.198900,-2.644586
0.199000,-2.655947
0.199100,-2.604987
0.199200,-2.524490
0.199300,-2.510533
0.199400,-2.587459
0.199500,-2.679317
0.199600,-2.719890
0.199700,-2.665684
0.199800,-2.564414
0.199900,-2.516051
0.200000,-2.567335
0.200100,-2.678992
0.200200,-2.749427
0.200300,-2.743260
0.200400,-2.684510
0.200500,-2.641340
0.200600,-2.630629
0.200700,-2.632252
0.200800,-2.624137
0.200900,-2.617321
0.201000,-2.604662
0.201100,-2.588758
0.201200,-2.557273
0.201300,-2.503392
0.201400,-2.421922
0.201500,-2.340451
0.201600,-2.287220
0.201700,-2.244699
0.201800,-2.206399
0.201900,-2.138885
0.202000,-2.042160
0.202100,-1.938942
0.202200,-1.827610
0.202300,-1.762694
0.202400,-1.706216
0.202500,-1.639677
0.202600,-1.569242
0.202700,-1.489720
0.202800,-1.398512
0.202900,-1.325481
0.203000,-1.274846
0.203100,-1.240116
0.203200,-1.214149
0.203300,-1.197271
0.203400,-1.183314
0.203500,-1.166436
0.203600,-1.140469
0.203700,-1.118398
0.203800,-1.106388
0.203900,-1.098923
0.204000,-1.095352
0.204100,-1.097949
0.204200,-1.065491
0.204300,-0.947992
0.204400,-0.813290
0.204500,-0.764279
0.204600,-0.865224
0.204700,-0.965844
0.204800,-0.982722
0.204900,-0.877882
0.205000,-0.769147
0.205100,-0.705854
0.205200,-0.738961
0.205300,-0.819457
0.205400,-0.858732
0.205500,-0.840231
0.205600,-0.755839
0.205700,-0.700660
0.205800,-0.661061
0.205900,-0.663009
0.206000,-0.676641
0.206100,-0.692871
0.206200,-0.695467
0.206300,-0.673720
0.206400,-0.669825
0.206500,-0.654245
0.206600,-0.663009
0.206700,-0.695467
0.206800,-0.712345
0.206900,-0.746751
0.207000,-0.778560
0.207100,-0.811668
0.207200,-0.809071
0.207300,-0.819457
0.207400,-0.836011
0.207500,-0.957405
0.207600,-1.038550
0.207700,-1.055753
0.207800,-0.991811
0.207900,-0.944746
0.208000,-0.973959
0.208100,-1.082044
0.208200,-1.186560
0.208300,-1.218369
0.208400,-1.161892
0.208500,-1.117099
0.208600,-1.133653
0.208700,-1.204087
0.208800,-1.271276
0.208900,-1.299190
0.209000,-1.315744
0.209100,-1.330674
0.209200,-1.375142
0.209300,-1.410846
0.209400,-1.451094
0.209500,-1.485176
0.209600,-1.512441
0.209700,-1.546522
0.209800,-1.560154
0.209900,-1.544574
0.210000,-1.518608
0.210100,-1.501729
0.210200,-1.495887
0.210300,-1.548794
0.210400,-1.596832
0.210500,-1.616956
0.210600,-1.621176
0.210700,-1.613386
0.210800,-1.602025
0.210900,-1.592288
0.211000,-1.578331
0.211100,-1.567620
0.211200,-1.554636
0.211300,-1.533214
0.211400,-1.517309
0.211500,-1.503352
0.211600,-1.492966
0.211700,-1.482904
0.211800,-1.486474
0.211900,-1.489720
0.212000,-1.495238
0.212100,-1.501405
0.212200,-1.504975
0.212300,-1.529319
0.212400,-1.551066
0.212500,-1.590016
0.212600,-1.683820
0.212700,-1.851305
0.212800,-1.941539
0.212900,-1.924661
0.213000,-1.830207
0.213100,-1.792880
0.213200,-1.872078
0.213300,-2.026904
0.213400,-2.161931
0.213500,-2.187897
0.213600,-2.145702
0.213700,-2.099611
0.213800,-2.117787
0.213900,-2.195363
0.214000,-2.280079
0.214100,-2.341425
0.214200,-2.359926
0.214300,-2.361874
0.214400,-2.363497
0.214500,-2.372910
0.214600,-2.390762
0.214700,-2.408939
0.214800,-2.426791
0.214900,-2.446266
0.215000,-2.467039
0.215100,-2.491707
0.215200,-2.511182
0.215300,-2.508586
0.215400,-2.517674
0.215500,-2.536824
0.215600,-2.562467
0.215700,-2.554027
0.215800,-2.478075
0.215900,-2.415106
0.216000,-2.430361
0.216100,-2.529034
0.216200,-2.616347
0.216300,-2.638095
0.216400,-2.558572
0.216500,-2.468337
0.216600,-2.446915
0.216700,-2.510858
0.216800,-2.601741
0.216900,-2.647507
0.217000,-2.624462
0.217100,-2.576099
0.217200,-2.560194
0.217300,-2.558247
0.217400,-2.566362
0.217500,-2.551106
0.217600,-2.524490
0.217700,-2.514428
0.217800,-2.501445
0.217900,-2.469960
0.218000,-2.407640
0.218100,-2.316757
0.218200,-2.240480
0.218300,-2.189845
0.218400,-2.149921
0.218500,-2.116489
0.218600,-2.032422
0.218700,-1.939916
0.218800,-1.838321
0.218900,-1.732832
0.219000,-1.664021
0.219100,-1.601701
0.219200,-1.534188
0.219300,-1.456937
0.219400,-1.387801
0.219500,-1.303409
0.219600,-1.248230
0.219700,-1.198245
0.219800,-1.161242
0.219900,-1.129433
0.220000,-1.121968
0.220100,-1.110608
0.220200,-1.086589
0.220300,-1.070359
0.220400,-1.046665
0.220500,-1.052183
0.220600,-1.052832
0.220700,-1.064192
0.220800,-1.060947
0.220900,-1.002846
0.221000,-0.879181
0.221100,-0.761682
0.221200,-0.754866
0.221300,-0.886646
0.221400,-0.999276
0.221500,-0.993433
0.221600,-0.875935
0.221700,-0.780183
0.221800,-0.741233
0.221900,-0.796737
0.222000,-0.865548
0.222100,-0.894111
0.222200,-0.849968
0.222300,-0.779858
0.222400,-0.731496
0.222500,-0.715267
0.222600,-0.722083
0.222700,-0.741233
0.222800,-0.737987
0.222900,-0.720460
0.223000,-0.715267
0.223100,-0.710073
0.223200,-0.710723
0.223300,-0.715267
0.223400,-0.753892
0.223500,-0.751944
0.223600,-0.786026
0.223700,-0.818808
0.223800,-0.834713
0.223900,-0.832765
0.224000,-0.829844
0.224100,-0.867171
0.224200,-0.980450
0.224300,-1.041796
0.224400,-1.018751
0.224500,-0.947992
0.224600,-0.913911
0.224700,-0.963247
0.224800,-1.087887
0.224900,-1.165787
0.225000,-1.161567
0.225100,-1.089834
0.225200,-1.047639
0.225300,-1.091457
0.225400,-1.174875
0.225500,-1.226159
0.225600,-1.231352
0.225700,-1.226159
0.225800,-1.240441
0.225900,-1.288479
0.226000,-1.333596
0.226100,-1.379037
0.226200,-1.392020
0.226300,-1.406951
0.226400,-1.442006
0.226500,-1.472192
0.226600,-1.473491
0.226700,-1.466999
0.226800,-1.456288
0.226900,-1.474464
0.227000,-1.531591
0.227100,-1.578331
0.227200,-1.588068
0.227300,-1.556584
0.227400,-1.544899
0.227500,-1.563400
0.227600,-1.562102
0.227700,-1.564049
0.227800,-1.555935
0.227900,-1.560479
0.228000,-1.559505
0.228100,-1.558207
0.228200,-1.555285
0.228300,-1.562751
0.228400,-1.560803
0.228500,-1.564374
0.228600,-1.563400
0.228700,-1.565997
0.228800,-1.564698
0.228900,-1.572488
0.229000,-1.582226
0.229100,-1.598130
0.229200,-1.634159
0.229300,-1.743219
0.229400,-1.897071
0.229500,-1.957119
0.229600,-1.913625
0.229700,-1.818522
0.229800,-1.801319
0.229900,-1.888956
0.230000,-2.051897
0.230100,-2.162255
0.230200,-2.170045
0.230300,-2.119410
0.230400,-2.091821
0.230500,-2.128174
0.230600,-2.223277
0.230700,-2.305396
0.230800,-2.341101
0.230900,-2.342074
0.231000,-2.336881
0.231100,-2.350189
0.231200,-2.383946
0.231300,-2.421597
0.231400,-2.436204
0.231500,-2.443020
0.231600,-2.445941
0.231700,-2.461196
0.231800,-2.491058
0.231900,-2.515077
0.232000,-2.524166
0.232100,-2.533254
0.232200,-2.555001
0.232300,-2.568634
0.232400,-2.547860
0.232500,-2.463793
0.232600,-2.405693
0.232700,-2.451784
0.232800,-2.556299
0.232900,-2.633226
0.233000,-2.621216
0.233100,-2.529684
0.233200,-2.458924
0.233300,-2.473206
0.233400,-2.576424
0.233500,-2.670553
0.233600,-2.692625
0.233700,-2.641990
0.233800,-2.581942
0.233900,-2.558896
0.234000,-2.580319
0.234100,-2.602066
0.234200,-2.604338
0.234300,-2.580968
0.234400,-2.553378
0.234500,-2.524815
0.234600,-2.500147
0.234700,-2.434581
0.234800,-2.360251
0.234900,-2.297606
0.235000,-2.254112
0.235100,-2.229769
0.235200,-2.190169
0.235300,-2.115840
0.235400,-2.028527
0.235500,-1.941214
0.235600,-1.852603
0.235700,-1.793204
0.235800,-1.741596
0.235900,-1.672135
0.236000,-1.594560
0.236100,-1.507896
0.236200,-1.423830
0.236300,-1.364756
0.236400,-1.324832
0.236500,-1.298216
0.236600,-1.261214
0.236700,-1.245309
0.236800,-1.202140
0.236900,-1.171954
0.237000,-1.129109
0.237100,-1.106063
0.237200,-1.093729
0.237300,-1.082694
0.237400,-1.097300
0.237500,-1.054455
0.237600,-0.985643
0.237700,-0.818808
0.237800,-0.723381
0.237900,-0.747076
0.238000,-0.869443
0.238100,-0.940527
0.238200,-0.880479
0.238300,-0.762331
0.238400,-0.671448
0.238500,-0.648403
0.238600,-0.710398
0.238700,-0.759085
0.238800,-0.761357
0.238900,-0.695792
0.239000,-0.629252
0.239100,-0.579591
0.239200,-0.574723
0.239300,-0.585434
0.239400,-0.602637
0.239500,-0.607181
0.239600,-0.593224
0.239700,-0.584136
0.239800,-0.568231
0.239900,-0.576021
0.240000,-0.595171
0.240100,-0.633472
0.240200,-0.657167
0.240300,-0.687353
0.240400,-0.721758
0.240500,-0.727276
0.240600,-0.727276
0.240700,-0.729873
0.240800,-0.808746
0.240900,-0.921376
0.241000,-0.959028
0.241100,-0.917157
0.241200,-0.864899
0.241300,-0.856460
0.241400,-0.933061
0.241500,-1.056402
0.241600,-1.112555
0.241700,-1.092756
0.241800,-1.021023
0.241900,-1.001873
0.242000,-1.068737
0.242100,-1.153452
0.242200,-1.206035
0.242300,-1.226808
0.242400,-1.229080
0.242500,-1.252125
0.242600,-1.293997
0.242700,-1.329701
0.242800,-1.370598
0.242900,-1.397538
0.243000,-1.422531
0.243100,-1.454016
0.243200,-1.463104
0.243300,-1.462130
0.243400,-1.448822
0.243500,-1.448822
0.243600,-1.494913
0.243700,-1.552040
0.243800,-1.582550
0.243900,-1.571515
0.244000,-1.540355
0.244100,-1.541978
0.244200,-1.551390
0.244300,-1.553338
0.244400,-1.561452
0.244500,-1.554312
0.244600,-1.549118
0.244700,-1.548794
0.244800,-1.548794
0.244900,-1.543925
0.245000,-1.547171
0.245100,-1.548469
0.245200,-1.551715
0.245300,-1.549443
0.245400,-1.555285
0.245500,-1.555610
0.245600,-1.567295
0.245700,-1.580927
0.245800,-1.602999
0.245900,-1.653634
0.246000,-1.781844
0.246100,-1.924661
0.246200,-1.950303
0.246300,-1.883763
0.246400,-1.809758
0.246500,-1.819820
0.246600,-1.943162
0.246700,-2.080785
0.246800,-2.154790
0.246900,-2.133043
0.247000,-2.073969
0.247100,-2.060012
0.247200,-2.117787
0.247300,-2.207697
0.247400,-2.284948
0.247500,-2.318055
0.247600,-2.320652
0.247700,-2.319678
0.247800,-2.324547
0.247900,-2.349540
0.248000,-2.377454
0.248100,-2.399526
0.248200,-2.421273
0.248300,-2.435554
0.248400,-2.451784
0.248500,-2.488786
0.248600,-2.496901
0.248700,-2.500796
0.248800,-2.506314
0.248900,-2.526762
0.249000,-2.546562
0.249100,-2.506963
0.249200,-2.432633
0.249300,-2.407965
0.249400,-2.475803
0.249500,-2.577073
0.249600,-2.634849
0.249700,-2.586161
0.249800,-2.483268
0.249900,-2.427115
0.250000,-2.468986
0.250100,-2.583240
0.250200,-2.663087
0.250300,-2.668281
0.250400,-2.613426
0.250500,-2.567011
0.250600,-2.553054
0.250700,-2.563116
0.250800,-2.567335
0.250900,-2.562142
0.251000,-2.550132
0.251100,-2.535526
0.251200,-2.506314
0.251300,-2.449187
0.251400,-2.366743
0.251500,-2.295334
0.251600,-2.242427
0.251700,-2.212241
0.251800,-2.180757
0.251900,-2.128174
0.252000,-2.038914
0.252100,-1.970102
0.252200,-1.881491
0.252300,-1.806837
0.252400,-1.745491
0.252500,-1.680574
0.252600,-1.611763
0.252700,-1.536135
0.252800,-1.445577
0.252900,-1.368975
0.253000,-1.312173
0.253100,-1.282961
0.253200,-1.258942
0.253300,-1.235247
0.253400,-1.225510
0.253500,-1.198245
0.253600,-1.178445
0.253700,-1.149882
0.253800,-1.132030
0.253900,-1.131705
0.254000,-1.143390
0.254100,-1.159944
0.254200,-1.138846
0.254300,-1.053806
0.254400,-0.916832
0.254500,-0.862627
0.254600,-0.962923
0.254700,-1.078474
0.254800,-1.133004
0.254900,-1.038875
0.255000,-0.930140
0.255100,-0.857109
0.255200,-0.883400
0.255300,-0.967142
0.255400,-1.014856
0.255500,-0.999925
0.255600,-0.929491
0.255700,-0.866522
0.255800,-0.824326
0.255900,-0.825625
0.256000,-0.833090
0.256100,-0.853214
0.256200,-0.846073
0.256300,-0.833739
0.256400,-0.822054
0.256500,-0.808097
0.256600,-0.810045
0.256700,-0.820107
0.256800,-0.846398
0.256900,-0.863925
0.257000,-0.906770
0.257100,-0.940851
0.257200,-0.935009
0.257300,-0.937605
0.257400,-0.950264
0.257500,-1.056727
0.257600,-1.145987
0.257700,-1.162216
0.257800,-1.087562
0.257900,-1.019400
0.258000,-1.027190
0.258100,-1.137548
0.258200,-1.254073
0.258300,-1.293347
0.258400,-1.247257
0.258500,-1.172603
0.258600,-1.158970
0.258700,-1.224536
0.258800,-1.292049
0.258900,-1.329051
0.259000,-1.329051
0.259100,-1.322235
0.259200,-1.351123
0.259300,-1.392670
0.259400,-1.435190
0.259500,-1.465701
0.259600,-1.475438
0.259700,-1.504975
0.259800,-1.531266
0.259900,-1.545223
0.260000,-1.530293
0.260100,-1.511791
0.260200,-1.512116
0.260300,-1.566321
0.260400,-1.617605
0.260500,-1.645519
0.260600,-1.632211
0.260700,-1.598779
0.260800,-1.599104
0.260900,-1.601701
0.261000,-1.597481
0.261100,-1.587744
0.261200,-1.588393
0.261300,-1.579954
0.261400,-1.576383
0.261500,-1.565023
0.261600,-1.565347
0.261700,-1.562426
0.261800,-1.562426
0.261900,-1.561777
0.262000,-1.561777
0.262100,-1.565347
0.262200,-1.569242
0.262300,-1.585147
0.262400,-1.598455
0.262500,-1.624746
0.262600,-1.700698
0.262700,-1.849033
0.262800,-1.959715
0.262900,-1.942837
0.263000,-1.850980
0.263100,-1.787362
0.263200,-1.846111
0.263300,-2.003534
0.263400,-2.137262
0.263500,-2.179783
0.263600,-2.134341
0.263700,-2.084355
0.263800,-2.090847
0.263900,-2.162255
0.264000,-2.252489
0.264100,-2.320327
0.264200,-2.325521
0.264300,-2.314809
0.264400,-2.306370
0.264500,-2.328117
0.264600,-2.348891
0.264700,-2.362523
0.264800,-2.378428
0.264900,-2.383946
0.265000,-2.402771
0.265100,-2.446915
0.265200,-2.469960
0.265300,-2.486514
0.265400,-2.489760
0.265500,-2.517674
0.265600,-2.542018
0.265700,-2.537474
0.265800,-2.473206
0.265900,-2.405368
0.266000,-2.419325
0.266100,-2.522867
0.266200,-2.620892
0.266300,-2.656596
0.266400,-2.586486
0.266500,-2.491383
0.266600,-2.459574
0.266700,-2.518972
0.266800,-2.629006
0.266900,-2.696844
0.267000,-2.692625
0.267100,-2.646209
0.267200,-2.608557
0.267300,-2.594925
0.267400,-2.607584
0.267500,-2.611479
0.267600,-2.610505
0.267700,-2.590056
0.267800,-2.564739
0.267900,-2.528710
0.268000,-2.470609
0.268100,-2.389464
0.268200,-2.320652
0.268300,-2.264824
0.268400,-2.224900
0.268500,-2.188222
0.268600,-2.112269
0.268700,-2.015544
0.268800,-1.943162
0.268900,-1.836374
0.269000,-1.758474
0.269100,-1.692908
0.269200,-1.628316
0.269300,-1.547171
0.269400,-1.467973
0.269500,-1.375467
0.269600,-1.305682
0.269700,-1.256345
0.269800,-1.215448
0.269900,-1.192078
0.270000,-1.168059
0.270100,-1.155400
0.270200,-1.133328
0.270300,-1.106713
0.270400,-1.085615
0.270500,-1.076202
0.270600,-1.074904
0.270700,-1.082044
0.270800,-1.082369
0.270900,-1.024593
0.271000,-0.919429
0.271100,-0.766226
0.271200,-0.755839
0.271300,-0.871066
0.271400,-0.992784
0.271500,-0.994407
0.271600,-0.892488
0.271700,-0.786026
0.271800,-0.724030
0.271900,-0.774341
0.272000,-0.854837
0.272100,-0.888269
0.272200,-0.852240
0.272300,-0.771095
0.272400,-0.726302
0.272500,-0.706503
0.272600,-0.711372
0.272700,-0.713319
0.272800,-0.707801
0.272900,-0.694493
0.273000,-0.685405
0.273100,-0.682159
0.273200,-0.678264
0.273300,-0.685730
0.273400,-0.698713
0.273500,-0.719486
0.273600,-0.765577
0.273700,-0.800632
0.273800,-0.826598
0.273900,-0.803228
0.274000,-0.809720
0.274100,-0.854188
0.274200,-0.984994
0.274300,-1.046665
0.274400,-1.040173
0.274500,-0.961949
0.274600,-0.924297
0.274700,-0.962923
0.274800,-1.084966
0.274900,-1.180068
0.275000,-1.190455
0.275100,-1.129758
0.275200,-1.077176
0.275300,-1.095677
0.275400,-1.158646
0.275500,-1.223887
0.275600,-1.258942
0.275700,-1.266083
0.275800,-1.265433
0.275900,-1.292698
0.276000,-1.328727
0.276100,-1.377739
0.276200,-1.404355
0.276300,-1.422856
0.276400,-1.451094
0.276500,-1.469271
0.276600,-1.474464
0.276700,-1.456288
0.276800,-1.438111
0.276900,-1.441032
0.277000,-1.492316
0.277100,-1.527371
0.277200,-1.541978
0.277300,-1.512765
0.277400,-1.499457
0.277500,-1.505624
0.277600,-1.514388
0.277700,-1.518283
0.277800,-1.512765
0.277900,-1.506273
0.278000,-1.501405
0.278100,-1.499133
0.278200,-1.493615
0.278300,-1.495562
0.278400,-1.491343
0.278500,-1.489071
0.278600,-1.499133
0.278700,-1.498159
0.278800,-1.505624
0.278900,-1.512441
0.279000,-1.520880
0.279100,-1.536460
0.279200,-1.568269
0.279300,-1.665643
0.279400,-1.829233
0.279500,-1.904536
0.279600,-1.863314
0.279700,-1.761071
0.279800,-1.722121
0.279900,-1.811381
0.280000,-1.965883
0.280100,-2.092470
0.280200,-2.107725
0.280300,-2.059362
0.280400,-2.021062
0.280500,-2.051572
0.280600,-2.131744
0.280700,-2.218084
0.280800,-2.264499
0.280900,-2.274236
0.281000,-2.269692
0.281100,-2.271640
0.281200,-2.297931
0.281300,-2.323573
0.281400,-2.344022
0.281500,-2.351812
0.281600,-2.358628
0.281700,-2.379726
0.281800,-2.421597
0.281900,-2.427764
0.282000,-2.429712
0.282100,-2.443344
0.282200,-2.473855
0.282300,-2.504691
0.282400,-2.490084
0.282500,-2.407316
0.282600,-2.350514
0.282700,-2.384270
0.282800,-2.497225
0.282900,-2.577397
0.283000,-2.586161
0.283100,-2.497225
0.283200,-2.410237
0.283300,-2.409912
0.283400,-2.497874
0.283500,-2.609856
0.283600,-2.657894
0.283700,-2.623164
0.283800,-2.560194
0.283900,-2.528710
0.284000,-2.537798
0.284100,-2.567660
0.284200,-2.576748
0.284300,-2.559545
0.284400,-2.537798
0.284500,-2.507937
0.284600,-2.473531
0.284700,-2.413483
0.284800,-2.336556
0.284900,-2.269368
0.285000,-2.216785
0.285100,-2.184976
0.285200,-2.156737
0.285300,-2.074942
0.285400,-1.985033
0.285500,-1.909081
0.285600,-1.818522
0.285700,-1.759772
0.285800,-1.706216
0.285900,-1.639028
0.286000,-1.564049
0.286100,-1.481281
0.286200,-1.388125
0.286300,-1.329701
0.286400,-1.280689
0.286500,-1.250827
0.286600,-1.213500
0.286700,-1.196297
0.286800,-1.177796
0.286900,-1.151505
0.287000,-1.135276
0.287100,-1.102493
0.287200,-1.100546
0.287300,-1.087238
0.287400,-1.105414
0.287500,-1.076526
0.287600,-1.021672
0.287700,-0.861329
0.287800,-0.761357
0.287900,-0.765901
0.288000,-0.911639
0.288100,-0.982398
0.288200,-0.958703
0.288300,-0.836660
0.288400,-0.736689
0.288500,-0.712345
0.288600,-0.773042
0.288700,-0.841204
0.288800,-0.859381
0.288900,-0.790894
0.289000,-0.720460
0.289100,-0.669501
0.289200,-0.661061
0.289300,-0.678589
0.289400,-0.701310
0.289500,-0.703906
0.289600,-0.685405
0.289700,-0.671124
0.289800,-0.671773
0.289900,-0.678589
0.290000,-0.704880
0.290100,-0.744804
0.290200,-0.771095
0.290300,-0.811668
0.290400,-0.860355
0.290500,-0.885997
0.290600,-0.890216
0.290700,-0.889892
0.290800,-0.957405
0.290900,-1.087562
0.291000,-1.147610
0.291100,-1.113204
0.291200,-1.033357
0.291300,-1.007066
0.291400,-1.077825
0.291500,-1.209281
0.291600,-1.282636
0.291700,-1.273548
0.291800,-1.192402
0.291900,-1.148584
0.292000,-1.184288
0.292100,-1.261538
0.292200,-1.309577
0.292300,-1.316717
0.292400,-1.303734
0.292500,-1.312173
0.292600,-1.353395
0.292700,-1.390073
0.292800,-1.424803
0.292900,-1.441032
0.293000,-1.457586
0.293100,-1.485176
0.293200,-1.498159
0.293300,-1.491343
0.293400,-1.483877
0.293500,-1.460832
0.293600,-1.486799
0.293700,-1.545548
0.293800,-1.582875
0.293900,-1.578980
0.294000,-1.540030
0.294100,-1.531266
0.294200,-1.539705
0.294300,-1.545223
0.294400,-1.546197
0.294500,-1.537109
0.294600,-1.530617
0.294700,-1.525748
0.294800,-1.530942
0.294900,-1.525424
0.295000,-1.528994
0.295100,-1.533538
0.295200,-1.536784
0.295300,-1.544250
0.295400,-1.548794
0.295500,-1.560154
0.295600,-1.571839
0.295700,-1.596507
0.295800,-1.621176
0.295900,-1.672784
0.296000,-1.802942
0.296100,-1.948030
0.296200,-1.994446
0.296300,-1.945434
0.296400,-1.862990
0.296500,-1.871754
0.296600,-1.981463
0.296700,-2.136289
0.296800,-2.232690
0.296900,-2.226847
0.297000,-2.174265
0.297100,-2.151544
0.297200,-2.200232
0.297300,-2.294361
0.297400,-2.379401
0.297500,-2.421273
0.297600,-2.424843
0.297700,-2.417378
0.297800,-2.416729
0.297900,-2.441072
0.298000,-2.477750
0.298100,-2.494953
0.298200,-2.511832
0.298300,-2.521894
0.298400,-2.530008
0.298500,-2.558896
0.298600,-2.570257
0.298700,-2.562791
0.298800,-2.566362
0.298900,-2.588433
0.299000,-2.611803
0.299100,-2.573178
0.299200,-2.489760
0.299300,-2.454380
0.299400,-2.515077
0.299500,-2.618620
0.299600,-2.696195
0.299700,-2.668281
0.299800,-2.570581
0.299900,-2.500796
0.300000,-2.520920
0.300100,-2.628032
0.300200,-2.721513
0.300300,-2.732548
0.300400,-2.678992
0.300500,-2.631278
0.300600,-2.612128
0.300700,-2.617321
0.300800,-2.617321
0.300900,-2.607908
0.301000,-2.594600
0.301100,-2.574476
0.301200,-2.557598
0.301300,-2.505664
0.301400,-2.424519
0.301500,-2.336232
0.301600,-2.281377
0.301700,-2.235936
0.301800,-2.206074
0.301900,-2.159983
0.302000,-2.067152
0.302100,-1.993797
0.302200,-1.897720
0.302300,-1.819820
0.302400,-1.759772
0.302500,-1.703295
0.302600,-1.631562
0.302700,-1.567944
0.302800,-1.478359
0.302900,-1.407600
0.303000,-1.341710
0.303100,-1.309901
0.303200,-1.279715
0.303300,-1.266407
0.303400,-1.253099
0.303500,-1.228431
0.303600,-1.208307
0.303700,-1.171629
0.303800,-1.164813
0.303900,-1.143390
0.304000,-1.161242
0.304100,-1.163839
0.304200,-1.153452
0.304300,-1.071333
0.304400,-0.908718
0.304500,-0.843477
0.304600,-0.887620
0.304700,-1.033682
0.304800,-1.070035
0.304900,-0.999276
0.305000,-0.875286
0.305100,-0.785052
0.305200,-0.795438
0.305300,-0.858732
0.305400,-0.910665
0.305500,-0.901901
0.305600,-0.827572
0.305700,-0.764279
0.305800,-0.722083
0.305900,-0.717539
0.306000,-0.714618
0.306100,-0.723057
0.306200,-0.725004
0.306300,-0.713968
0.306400,-0.703906
0.306500,-0.685730
0.306600,-0.682159
0.306700,-0.683133
0.306800,-0.715916
0.306900,-0.742856
0.307000,-0.771419
0.307100,-0.808746
0.307200,-0.794789
0.307300,-0.800307
0.307400,-0.796737
0.307500,-0.895085
0.307600,-0.985643
0.307700,-1.003820
0.307800,-0.939877
0.307900,-0.874636
0.308000,-0.873987
0.308100,-0.964546
0.308200,-1.078799
0.308300,-1.115476
0.308400,-1.068087
0.308500,-0.996679
0.308600,-0.950264
0.308700,-1.045042
0.308800,-1.118073
0.308900,-1.140794
0.309000,-1.144689
0.309100,-1.140469
0.309200,-1.175849
0.309300,-1.218369
0.309400,-1.259591
0.309500,-1.289128
0.309600,-1.306331
0.309700,-1.338464
0.309800,-1.369949
0.309900,-1.382608
0.310000,-1.373844
0.310100,-1.357939
0.310200,-1.355343
0.310300,-1.397863
0.310400,-1.456288
0.310500,-1.476412
0.310600,-1.460832
0.310700,-1.431619
0.310800,-1.435190
0.310900,-1.452717
0.311000,-1.455963
0.311100,-1.467324
0.311200,-1.461806
0.311300,-1.467648
0.311400,-1.470245
0.311500,-1.472517
0.311600,-1.468946
0.311700,-1.480307
0.311800,-1.479982
0.311900,-1.486799
0.312000,-1.491992
0.312100,-1.498483
0.312200,-1.509519
0.312300,-1.514713
0.312400,-1.538083
0.312500,-1.556584
0.312600,-1.619877
0.312700,-1.775677
0.312800,-1.897071
0.312900,-1.918169
0.313000,-1.832804
0.313100,-1.769835
0.313200,-1.806188
0.313300,-1.949329
0.313400,-2.096689
0.313500,-2.155764
0.313600,-2.116489
0.313700,-2.057740
0.313800,-2.062608
0.313900,-2.134341
0.314000,-2.230093
0.314100,-2.295010
0.314200,-2.324547
0.314300,-2.331363
0.314400,-2.342074
0.314500,-2.367716
0.314600,-2.396604
0.314700,-2.420624
0.314800,-2.434256
0.314900,-2.460223
0.315000,-2.484891
0.315100,-2.527412
0.315200,-2.555975
0.315300,-2.565712
0.315400,-2.571555
0.315500,-2.589407
0.315600,-2.617970
0.315700,-2.616672
0.315800,-2.576748
0.315900,-2.507937
0.316000,-2.500147
0.316100,-2.594925
0.316200,-2.695870
0.316300,-2.750401
0.316400,-2.689379
0.316500,-2.583889
0.316600,-2.538123
0.316700,-2.599145
0.316800,-2.709503
0.316900,-2.776692
0.317000,-2.758515
0.317100,-2.699441
0.317200,-2.666982
0.317300,-2.675097
0.317400,-2.695221
0.317500,-2.704310
0.317600,-2.688080
0.317700,-2.674448
0.317800,-2.652052
0.317900,-2.627059
0.318000,-2.577722
0.318100,-2.501445
0.318200,-2.428738
0.318300,-2.374533
0.318400,-2.341101
0.318500,-2.306370
0.318600,-2.242427
0.318700,-2.141157
0.318800,-2.070723
0.318900,-1.957443
0.319000,-1.891553
0.319100,-1.830207
0.319200,-1.768212
0.319300,-1.692908
0.319400,-1.612737
0.319500,-1.518932
0.319600,-1.464402
0.319700,-1.417987
0.319800,-1.380335
0.319900,-1.350474
0.320000,-1.318016
0.320100,-1.297892
0.320200,-1.267381
0.320300,-1.251476
0.320400,-1.217720
0.320500,-1.206359
0.320600,-1.195648
0.320700,-1.204736
0.320800,-1.191753
0.320900,-1.165787
0.321000,-1.040822
0.321100,-0.890866
0.321200,-0.840555
0.321300,-0.938579
0.321400,-1.057052
0.321500,-1.069710
0.321600,-0.963896
0.321700,-0.828870
0.321800,-0.748699
0.321900,-0.782780
0.322000,-0.855486
0.322100,-0.892813
0.322200,-0.850942
0.322300,-0.767524
0.322400,-0.693844
0.322500,-0.680536
0.322600,-0.684431
0.322700,-0.692546
0.322800,-0.697090
0.322900,-0.683133
0.323000,-0.666904
0.323100,-0.661711
0.323200,-0.660412
0.323300,-0.677615
0.323400,-0.707477
0.323500,-0.726627
0.323600,-0.749997
0.323700,-0.775964
0.323800,-0.816861
0.323900,-0.814264
0.324000,-0.820431
0.324100,-0.838932
0.324200,-0.954808
0.324300,-1.043744
0.324400,-1.055104
0.324500,-0.981099
0.324600,-0.930140
0.324700,-0.949615
0.324800,-1.082694
0.324900,-1.196297
0.325000,-1.232975
0.325100,-1.167085
0.325200,-1.102818
0.325300,-1.120345
0.325400,-1.201166
0.325500,-1.285233
0.325600,-1.308603
0.325700,-1.310875
0.325800,-1.297242
0.325900,-1.330025
0.326000,-1.366378
0.326100,-1.419285
0.326200,-1.447849
0.326300,-1.467973
0.326400,-1.499457
0.326500,-1.514388
0.326600,-1.513739
0.326700,-1.501729
0.326800,-1.478684
0.326900,-1.486149
0.327000,-1.539705
0.327100,-1.589367
0.327200,-1.600727
0.327300,-1.553663
0.327400,-1.534512
0.327500,-1.549443
0.327600,-1.550741
0.327700,-1.537433
0.327800,-1.535810
0.327900,-1.528345
0.328000,-1.521529
0.328100,-1.506273
0.328200,-1.501729
0.328300,-1.505300
0.328400,-1.498159
0.328500,-1.499457
0.328600,-1.502378
0.328700,-1.506273
0.328800,-1.510168
0.328900,-1.521853
0.329000,-1.535810
0.329100,-1.561452
0.329200,-1.589691
0.329300,-1.685768
0.329400,-1.840918
0.329500,-1.937968
0.329600,-1.933424
0.329700,-1.836699
0.329800,-1.799047
0.329900,-1.864613
0.330000,-2.028202
0.330100,-2.165826
0.330200,-2.199582
0.330300,-2.143754
0.330400,-2.090198
0.330500,-2.117463
0.330600,-2.198284
0.330700,-2.295984
0.330800,-2.349215
0.330900,-2.362848
0.331000,-2.355382
0.331100,-2.355382
0.331200,-2.371936
0.331300,-2.404719
0.331400,-2.441397
0.331500,-2.461846
0.331600,-2.479373
0.331700,-2.488137
0.331800,-2.512481
0.331900,-2.542667
0.332000,-2.544614
0.332100,-2.555650
0.332200,-2.580319
0.332300,-2.598495
0.332400,-2.593302
0.332500,-2.516051
0.332600,-2.454705
0.332700,-2.471908
0.332800,-2.576099
0.332900,-2.676395
0.333000,-2.699765
0.333100,-2.622839
0.333200,-2.530333
0.333300,-2.513130
0.333400,-2.601092
0.333500,-2.713723
0.333600,-2.773771
0.333700,-2.748128
0.333800,-2.684835
0.333900,-2.649780
0.334000,-2.652052
0.334100,-2.663087
0.334200,-2.673150
0.334300,-2.671202
0.334400,-2.660815
0.334500,-2.634200
0.334600,-2.594276
0.334700,-2.517025
0.334800,-2.427440
0.334900,-2.364795
0.335000,-2.320652
0.335100,-2.286246
0.335200,-2.252814
0.335300,-2.171344
0.335400,-2.080136
0.335500,-2.014570
0.335600,-1.917195
0.335700,-1.847410
0.335800,-1.776326
0.335900,-1.702970
0.336000,-1.624097
0.336100,-1.536784
0.336200,-1.449147
0.336300,-1.373844
0.336400,-1.328727
0.336500,-1.298865
0.336600,-1.274522
0.336700,-1.254398
0.336800,-1.224861
0.336900,-1.192078
0.337000,-1.160918
0.337100,-1.134302
0.337200,-1.117748
0.337300,-1.116126
0.337400,-1.120670
0.337500,-1.096326
0.337600,-1.044393
0.337700,-0.888593
0.337800,-0.770121
0.337900,-0.735715
0.338000,-0.865873
0.338100,-0.954159
0.338200,-0.929491
0.338300,-0.801930
0.338400,-0.678264
0.338500,-0.647104
0.338600,-0.687028
0.338700,-0.774341
0.338800,-0.787973
0.338900,-0.734092
0.339000,-0.644183
0.339100,-0.598093
0.339200,-0.582837
0.339300,-0.593548
0.339400,-0.610751
0.339500,-0.625033
0.339600,-0.623085
0.339700,-0.613997
0.339800,-0.598093
0.339900,-0.589004
0.340000,-0.602961
0.340100,-0.641587
0.340200,-0.680212
0.340300,-0.720785
0.340400,-0.776937
0.340500,-0.798035
0.340600,-0.792842
0.340700,-0.790245
0.340800,-0.849644
0.340900,-0.982722
0.341000,-1.046016
0.341100,-1.028488
0.341200,-0.955133
0.341300,-0.927868
0.341400,-0.978503
0.341500,-1.117748
0.341600,-1.204736
0.341700,-1.198245
0.341800,-1.118722
0.341900,-1.084966
0.342000,-1.116775
0.342100,-1.197920
0.342200,-1.247581
0.342300,-1.261538
0.342400,-1.266407
0.342500,-1.282312
0.342600,-1.308603
0.342700,-1.344631
0.342800,-1.378063
0.342900,-1.397214
0.343000,-1.423830
0.343100,-1.453691
0.343200,-1.471219
0.343300,-1.465376
0.343400,-1.447524
0.343500,-1.437137
0.343600,-1.467648
0.343700,-1.538083
0.343800,-1.579629
0.343900,-1.583524
0.344000,-1.550417
0.344100,-1.540030
0.344200,-1.554312
0.344300,-1.559180
0.344400,-1.553987
0.344500,-1.549118
0.344600,-1.543276
0.344700,-1.543600
0.344800,-1.545223
0.344900,-1.552364
0.345000,-1.550417
0.345100,-1.549768
0.345200,-1.544899
0.345300,-1.556908
0.345400,-1.561452
0.345500,-1.569567
0.345600,-1.583524
0.345700,-1.611114
0.345800,-1.628316
0.345900,-1.671486
0.346000,-1.783142
0.346100,-1.940241
0.346200,-2.000613
0.346300,-1.941863
0.346400,-1.844164
0.346500,-1.822742
0.346600,-1.917844
0.346700,-2.067477
0.346800,-2.161931
0.346900,-2.153492
0.347000,-2.085978
0.347100,-2.044432
0.347200,-2.077215
0.347300,-2.163878
0.347400,-2.248919
0.347500,-2.293387
0.347600,-2.299879
0.347700,-2.303449
0.347800,-2.303449
0.347900,-2.316757
0.348000,-2.350838
0.348100,-2.372261
0.348200,-2.394008
0.348300,-2.420299
0.348400,-2.441721
0.348500,-2.467039
0.348600,-2.479698
0.348700,-2.477101
0.348800,-2.485540
0.348900,-2.507612
0.349000,-2.528710
0.349100,-2.505015
0.349200,-2.424194
0.349300,-2.369989
0.349400,-2.420299
0.349500,-2.530333
0.349600,-2.611479
0.349700,-2.603040
0.349800,-2.505340
0.349900,-2.422896
0.350000,-2.430361
0.350100,-2.532929
0.350200,-2.639068
0.350300,-2.686458
0.350400,-2.648806
0.350500,-2.593627
0.350600,-2.569283
0.350700,-2.571230
0.350800,-2.578696
0.350900,-2.576099
0.351000,-2.561817
0.351100,-2.553703
0.351200,-2.527087
0.351300,-2.465741
0.351400,-2.376156
0.351500,-2.291764
0.351600,-2.235286
0.351700,-2.196986
0.351800,-2.176212
0.351900,-2.142780
0.352000,-2.047677
0.352100,-1.965883
0.352200,-1.895123
0.352300,-1.807162
0.352400,-1.737701
0.352500,-1.675056
0.352600,-1.602350
0.352700,-1.530293
0.352800,-1.436164
0.352900,-1.357290
0.353000,-1.292049
0.353100,-1.242713
0.353200,-1.212202
0.353300,-1.186560
0.353400,-1.167734
0.353500,-1.140145
0.353600,-1.112231
0.353700,-1.091782
0.353800,-1.058999
0.353900,-1.062245
0.354000,-1.048288
0.354100,-1.075553
0.354200,-1.037252
0.354300,-0.969414
0.354400,-0.806150
0.354500,-0.719162
0.354600,-0.751295
0.354700,-0.884698
0.354800,-0.958054
0.354900,-0.891839
0.355000,-0.774665
0.355100,-0.670150
0.355200,-0.658789
0.355300,-0.724030
0.355400,-0.795438
0.355500,-0.802579
0.355600,-0.742532
0.355700,-0.677940
0.355800,-0.622436
0.355900,-0.625033
0.356000,-0.627305
0.356100,-0.648727
0.356200,-0.658789
0.356300,-0.657491
0.356400,-0.658789
0.356500,-0.647754
0.356600,-0.646455
0.356700,-0.663009
0.356800,-0.699038
0.356900,-0.727925
0.357000,-0.766551
0.357100,-0.812317
0.357200,-0.825625
0.357300,-0.826598
0.357400,-0.835687
0.357500,-0.910665
0.357600,-1.030436
0.357700,-1.073281
0.357800,-1.034331
0.357900,-0.968441
0.358000,-0.954808
0.358100,-1.032383
0.358200,-1.167409
0.358300,-1.231677
0.358400,-1.211228
0.358500,-1.139495
0.358600,-1.114827
0.358700,-1.160269
0.358800,-1.226808
0.358900,-1.258617
0.359000,-1.275171
0.359100,-1.275495
0.359200,-1.299190
0.359300,-1.329376
0.359400,-1.366378
0.359500,-1.389748
0.359600,-1.404355
0.359700,-1.427725
0.359800,-1.460832
0.359900,-1.481605
0.360000,-1.475114
0.360100,-1.469271
0.360200,-1.460507
0.360300,-1.495562
0.360400,-1.557557
0.360500,-1.587095
0.360600,-1.596832
0.360700,-1.572488
0.360800,-1.567295
0.360900,-1.577032
0.361000,-1.580603
0.361100,-1.584822
0.361200,-1.579305
0.361300,-1.568918
0.361400,-1.563400
0.361500,-1.566321
0.361600,-1.561128
0.361700,-1.566646
0.361800,-1.571190
0.361900,-1.576383
0.362000,-1.577357
0.362100,-1.583200
0.362200,-1.592288
0.362300,-1.601701
0.362400,-1.622799
0.362500,-1.653959
0.362600,-1.705567
0.362700,-1.841892
0.362800,-1.988928
0.362900,-2.016517
0.363000,-1.940241
0.363100,-1.850006
0.363200,-1.859419
0.363300,-1.983410
0.363400,-2.139534
0.363500,-2.215811
0.363600,-2.190494
0.363700,-2.131095
0.363800,-2.113243
0.363900,-2.154465
0.364000,-2.252489
0.364100,-2.320003
0.364200,-2.346943
0.364300,-2.352786
0.364400,-2.361549
0.364500,-2.376805
0.364600,-2.405693
0.364700,-2.431984
0.364800,-2.449836
0.364900,-2.466390
0.365000,-2.476127
0.365100,-2.500796
0.365200,-2.537474
0.365300,-2.551755
0.365400,-2.560844
0.365500,-2.581942
0.365600,-2.604338
0.365700,-2.617646
0.365800,-2.581617
0.365900,-2.514104
0.366000,-2.504691
0.366100,-2.581617
0.366200,-2.691002
0.366300,-2.751699
0.366400,-2.703985
0.366500,-2.612128
0.366600,-2.565388
0.366700,-2.611803
0.366800,-2.717942
0.366900,-2.798764
0.367000,-2.799737
0.367100,-2.752023
0.367200,-2.717942
0.367300,-2.715021
0.367400,-2.724434
0.367500,-2.715021
0.367600,-2.690028
0.367700,-2.672500
0.367800,-2.655297
0.367900,-2.625436
0.368000,-2.548185
0.368100,-2.456652
0.368200,-2.359926
0.368300,-2.298256
0.368400,-2.252814
0.368500,-2.219382
0.368600,-2.162904
0.368700,-2.060336
0.368800,-1.983085
0.368900,-1.891878
0.369000,-1.809758
0.369100,-1.735753
0.369200,-1.662722
0.369300,-1.581577
0.369400,-1.505300
0.369500,-1.415390
0.369600,-1.341061
0.369700,-1.293347
0.369800,-1.246932
0.369900,-1.211553
0.370000,-1.175199
0.370100,-1.164813
0.370200,-1.138846
0.370300,-1.121319
0.370400,-1.097949
0.370500,-1.075228
0.370600,-1.063868
0.370700,-1.069710
0.370800,-1.069710
0.370900,-1.045691
0.371000,-0.938904
0.371100,-0.801281
0.371200,-0.731820
0.371300,-0.811018
0.371400,-0.948641
0.371500,-0.980126
0.371600,-0.911963
0.371700,-0.788947
0.371800,-0.714293
0.371900,-0.727276
0.372000,-0.799333
0.372100,-0.844450
0.372200,-0.820431
0.372300,-0.748699
0.372400,-0.676641
0.372500,-0.653921
0.372600,-0.661386
0.372700,-0.663658
0.372800,-0.655868
0.372900,-0.650350
0.373000,-0.638990
0.373100,-0.638665
0.373200,-0.642560
0.373300,-0.635744
0.373400,-0.669176
0.373500,-0.682484
0.373600,-0.722083
0.373700,-0.764928
0.373800,-0.805500
0.373900,-0.809395
0.374000,-0.813290
0.374100,-0.829520
0.374200,-0.938904
0.374300,-1.039200
0.374400,-1.055104
0.374500,-1.008364
0.374600,-0.949939
0.374700,-0.987591
0.374800,-1.096651
0.374900,-1.212851
0.375000,-1.244660
0.375100,-1.188832
0.375200,-1.139495
0.375300,-1.154426
0.375400,-1.243686
0.375500,-1.316393
0.375600,-1.333271
0.375700,-1.331324
0.375800,-1.323209
0.375900,-1.356966
0.376000,-1.401433
0.376100,-1.443304
0.376200,-1.459534
0.376300,-1.461806
0.376400,-1.481281
0.376500,-1.504975
0.376600,-1.507896
0.376700,-1.495887
0.376800,-1.475438
0.376900,-1.472517
0.377000,-1.510168
0.377100,-1.555935
0.377200,-1.573137
0.377300,-1.563725
0.377400,-1.537433
0.377500,-1.547495
0.377600,-1.551390
0.377700,-1.552689
0.377800,-1.542627
0.377900,-1.537758
0.378000,-1.528020
0.378100,-1.513739
0.378200,-1.504326
0.378300,-1.505949
0.378400,-1.511467
0.378500,-1.510168
0.378600,-1.513090
0.378700,-1.513739
0.378800,-1.533214
0.378900,-1.541328
0.379000,-1.562426
0.379100,-1.584822
0.379200,-1.618904
0.379300,-1.704918
0.379400,-1.863964
0.379500,-1.982436
0.379600,-1.993148
0.379700,-1.911028
0.379800,-1.849033
0.379900,-1.909730
0.380000,-2.061310
0.380100,-2.208022
0.380200,-2.245998
0.380300,-2.204127
0.380400,-2.150570
0.380500,-2.158685
0.380600,-2.238857
0.380700,-2.340776
0.380800,-2.395306
0.380900,-2.403096
0.381000,-2.387841
0.381100,-2.387841
0.381200,-2.403421
0.381300,-2.444967
0.381400,-2.475803
0.381500,-2.493655
0.381600,-2.499497
0.381700,-2.500796
0.381800,-2.523841
0.381900,-2.553054
0.382000,-2.561817
0.382100,-2.566362
0.382200,-2.581617
0.382300,-2.605312
0.382400,-2.606610
0.382500,-2.547860
0.382600,-2.476452
0.382700,-2.475803
0.382800,-2.570581
0.382900,-2.665035
0.383000,-2.695221
0.383100,-2.620892
0.383200,-2.523841
0.383300,-2.508586
0.383400,-2.588109
0.383500,-2.704310
0.383600,-2.773446
0.383700,-2.747804
0.383800,-2.686458
0.383900,-2.650104
0.384000,-2.663087
0.384100,-2.689379
0.384200,-2.695221
0.384300,-2.683212
0.384400,-2.662114
0.384500,-2.629655
0.384600,-2.589732
0.384700,-2.531307
0.384800,-2.444643
0.384900,-2.377454
0.385000,-2.329091
0.385100,-2.293387
0.385200,-2.253139
0.385300,-2.183353
0.385400,-2.098312
0.385500,-2.034694
0.385600,-1.936670
0.385700,-1.875324
0.385800,-1.821768
0.385900,-1.758799
0.386000,-1.678627
0.386100,-1.594235
0.386200,-1.501405
0.386300,-1.425452
0.386400,-1.385853
0.386500,-1.357939
0.386600,-1.330674
0.386700,-1.312173
0.386800,-1.285557
0.386900,-1.261863
0.387000,-1.231677
0.387100,-1.220966
0.387200,-1.194350
0.387300,-1.198569
0.387400,-1.197271
0.387500,-1.192727
0.387600,-1.143066
0.387700,-1.011935
0.387800,-0.880803
0.387900,-0.842178
0.388000,-0.941825
0.388100,-1.040822
0.388200,-1.035305
0.388300,-0.927868
0.388400,-0.803878
0.388500,-0.749997
0.388600,-0.788622
0.388700,-0.863601
0.388800,-0.888593
0.388900,-0.839582
0.389000,-0.749348
0.389100,-0.679887
0.389200,-0.661711
0.389300,-0.671448
0.389400,-0.695467
0.389500,-0.705205
0.389600,-0.698064
0.389700,-0.666579
0.389800,-0.655868
0.389900,-0.642885
0.390000,-0.656842
0.390100,-0.678914
0.390200,-0.710723
0.390300,-0.731171
0.390400,-0.767524
0.390500,-0.802579
0.390600,-0.796412
0.390700,-0.790894
0.390800,-0.818484
0.390900,-0.930140
0.391000,-1.009987
0.391100,-0.998302
0.391200,-0.928842
0.391300,-0.894111
0.391400,-0.933386
0.391500,-1.059648
0.391600,-1.154426
0.391700,-1.177472
0.391800,-1.109634
0.391900,-1.055104
0.392000,-1.078149
0.392100,-1.153777
0.392200,-1.226159
0.392300,-1.246283
0.392400,-1.265109
0.392500,-1.268030
0.392600,-1.304708
0.392700,-1.340087
0.392800,-1.372546
0.392900,-1.394293
0.393000,-1.419285
0.393100,-1.443954
0.393200,-1.463429
0.393300,-1.463429
0.393400,-1.446550
0.393500,-1.436488
0.393600,-1.453691
0.393700,-1.518608
0.393800,-1.559830
0.393900,-1.577032
0.394000,-1.547820
0.394100,-1.527696
0.394200,-1.538732
0.394300,-1.546522
0.394400,-1.548469
0.394500,-1.542951
0.394600,-1.543276
0.394700,-1.546846
0.394800,-1.546846
0.394900,-1.550092
0.395000,-1.557233
0.395100,-1.560803
0.395200,-1.572164
0.395300,-1.577357
0.395400,-1.592612
0.395500,-1.593586
0.395600,-1.600402
0.395700,-1.619877
0.395800,-1.633510
0.395900,-1.670188
0.396000,-1.770159
0.396100,-1.929205
0.396200,-1.999639
0.396300,-1.973348
0.396400,-1.883439
0.396500,-1.859419
0.396600,-1.955171
0.396700,-2.111296
0.396800,-2.219382
0.396900,-2.236260
0.397000,-2.184327
0.397100,-2.155764
0.397200,-2.188871
0.397300,-2.279105
0.397400,-2.368366
0.397500,-2.411211
0.397600,-2.422896
0.397700,-2.420299
0.397800,-2.414781
0.397900,-2.418027
0.398000,-2.440748
0.398100,-2.450810
0.398200,-2.463793
0.398300,-2.478724
0.398400,-2.492032
0.398500,-2.505015
0.398600,-2.512156
0.398700,-2.510533
0.398800,-2.518972
0.398900,-2.536175
0.399000,-2.553054
0.399100,-2.534877
0.399200,-2.461846
0.399300,-2.401798
0.399400,-2.429712
0.399500,-2.530333
0.399600,-2.604338
0.399700,-2.595574
0.399800,-2.500147
0.399900,-2.413483
0.400000,-2.409263
0.400100,-2.491383
0.400200,-2.596548
0.400300,-2.637445
0.400400,-2.603364
0.400500,-2.545913
0.400600,-2.512481
0.400700,-2.507937
0.400800,-2.512156
0.400900,-2.500796
0.401000,-2.499497
0.401100,-2.493006
0.401200,-2.471583
0.401300,-2.427764
0.401400,-2.349540
0.401500,-2.261253
0.401600,-2.198284
0.401700,-2.157711
0.401800,-2.132394
0.401900,-2.106427
0.402000,-2.016517
0.402100,-1.925310
0.402200,-1.848384
0.402300,-1.761720
0.402400,-1.696154
0.402500,-1.635457
0.402600,-1.566646
0.402700,-1.494264
0.402800,-1.409548
0.402900,-1.331648
0.403000,-1.265758
0.403100,-1.224536
0.403200,-1.189806
0.403300,-1.168059
0.403400,-1.142092
0.403500,-1.141768
0.403600,-1.110283
0.403700,-1.093729
0.403800,-1.066140
0.403900,-1.069061
0.404000,-1.072956
0.404100,-1.082044
0.404200,-1.077176
0.404300,-1.004794
0.404400,-0.867820
0.404500,-0.753892
0.404600,-0.789596
0.404700,-0.906121
0.404800,-0.994407
0.404900,-0.948317
0.405000,-0.827897
0.405100,-0.715916
0.405200,-0.683458
0.405300,-0.746751
0.405400,-0.811668
0.405500,-0.813615
0.405600,-0.762006
0.405700,-0.679238
0.405800,-0.638016
0.405900,-0.633797
0.406000,-0.634446
0.406100,-0.640288
0.406200,-0.646455
0.406300,-0.645806
0.406400,-0.648403
0.406500,-0.645157
0.406600,-0.634770
0.406700,-0.648403
0.406800,-0.668202
0.406900,-0.701310
0.407000,-0.734742
0.407100,-0.775314
0.407200,-0.791868
0.407300,-0.786026
0.407400,-0.785701
0.407500,-0.858732
0.407600,-0.971037
0.407700,-1.030111
0.407800,-0.997978
0.407900,-0.920727
0.408000,-0.894761
0.408100,-0.962598
0.408200,-1.089185
0.408300,-1.160593
0.408400,-1.147610
0.408500,-1.068087
0.408600,-1.040173
0.408700,-1.096001
0.408800,-1.175524
0.408900,-1.215448
0.409000,-1.216746
0.409100,-1.216746
0.409200,-1.243686
0.409300,-1.287830
0.409400,-1.325156
0.409500,-1.356316
0.409600,-1.362159
0.409700,-1.382932
0.409800,-1.412469
0.409900,-1.438111
0.410000,-1.437137
0.410100,-1.431619
0.410200,-1.421882
0.410300,-1.455639
0.410400,-1.516660
0.410500,-1.552689
0.410600,-1.561452
0.410700,-1.528994
0.410800,-1.521853
0.410900,-1.528670
0.411000,-1.533214
0.411100,-1.529643
0.411200,-1.523476
0.411300,-1.515362
0.411400,-1.512765
0.411500,-1.508221
0.411600,-1.510493
0.411700,-1.517958
0.411800,-1.525099
0.411900,-1.522827
0.412000,-1.528994
0.412100,-1.535810
0.412200,-1.547171
0.412300,-1.560803
0.412400,-1.576059
0.412500,-1.599753
0.412600,-1.640975
0.412700,-1.781520
0.412800,-1.929854
0.412900,-1.986331
0.413000,-1.920116
0.413100,-1.826961
0.413200,-1.821119
0.413300,-1.944135
0.413400,-2.108374
0.413500,-2.201205
0.413600,-2.189196
0.413700,-2.124928
0.413800,-2.097014
0.413900,-2.141157
0.414000,-2.238857
0.414100,-2.317731
0.414200,-2.355707
0.414300,-2.361874
0.414400,-2.363497
0.414500,-2.378752
0.414600,-2.409588
0.414700,-2.434905
0.414800,-2.454705
0.414900,-2.469311
0.415000,-2.483268
0.415100,-2.506963
0.415200,-2.538772
0.415300,-2.550132
0.415400,-2.567011
0.415500,-2.577722
0.415600,-2.609531
0.415700,-2.626410
0.415800,-2.596548
0.415900,-2.518972
0.416000,-2.486839
0.416100,-2.550457
0.416200,-2.672825
0.416300,-2.752023
0.416400,-2.728653
0.416500,-2.620567
0.416600,-2.548509
0.416700,-2.569283
0.416800,-2.672500
0.416900,-2.759489
0.417000,-2.766305
0.417100,-2.712424
0.417200,-2.662763
0.417300,-2.653999
0.417400,-2.665035
0.417500,-2.666658
0.417600,-2.651402
0.417700,-2.632577
0.417800,-2.610830
0.417900,-2.581942
0.418000,-2.527736
0.418100,-2.451784
0.418200,-2.369989
0.418300,-2.308318
0.418400,-2.262551
0.418500,-2.234313
0.418600,-2.192442
0.418700,-2.096040
0.418800,-2.018465
0.418900,-1.926608
0.419000,-1.840918
0.419100,-1.776975
0.419200,-1.716603
0.419300,-1.640326
0.419400,-1.567944
0.419500,-1.477386
0.419600,-1.401433
0.419700,-1.350798
0.419800,-1.312498
0.419900,-1.287180
0.420000,-1.260565
0.420100,-1.245958
0.420200,-1.216421
0.420300,-1.188183
0.420400,-1.168059
0.420500,-1.136574
0.420600,-1.143390
0.420700,-1.133328
0.420800,-1.145987
0.420900,-1.124565
0.421000,-1.039849
0.421100,-0.871391
0.421200,-0.793491
0.421300,-0.843801
0.421400,-0.979476
0.421500,-1.036927
0.421600,-0.966818
0.421700,-0.824326
0.421800,-0.732794
0.421900,-0.725329
0.422000,-0.798684
0.422100,-0.856135
0.422200,-0.857758
0.422300,-0.785376
0.422400,-0.716565
0.422500,-0.671773
0.422600,-0.669825
0.422700,-0.674045
0.422800,-0.690598
0.422900,-0.684107
0.423000,-0.664307
0.423100,-0.657491
0.423200,-0.642885
0.423300,-0.647104
0.423400,-0.673071
0.423500,-0.701310
0.423600,-0.729548
0.423700,-0.765901
0.423800,-0.794789
0.423900,-0.798035
0.424000,-0.796088
0.424100,-0.818808
0.424200,-0.907744
0.424300,-1.023295
0.424400,-1.044068
0.424500,-0.993758
0.424600,-0.924622
0.424700,-0.921701
0.424800,-1.015180
0.424900,-1.134627
0.425000,-1.179744
0.425100,-1.138522
0.425200,-1.065166
0.425300,-1.048612
0.425400,-1.112555
0.425500,-1.185262
0.425600,-1.210904
0.425700,-1.219667
0.425800,-1.216421
0.425900,-1.239142
0.426000,-1.271600
0.426100,-1.303409
0.426200,-1.328727
0.426300,-1.337491
0.426400,-1.351123
0.426500,-1.372221
0.426600,-1.368326
0.426700,-1.344956
0.426800,-1.324832
0.426900,-1.266732
0.427000,-1.356966
0.427100,-1.402083
0.427200,-1.418636
0.427300,-1.404030
0.427400,-1.366054
0.427500,-1.370598
0.427600,-1.375791
0.427700,-1.369949
0.427800,-1.354369
0.427900,-1.353071
0.428000,-1.348202
0.428100,-1.244011
0.428200,-1.241090
0.428300,-1.180068
0.428400,-1.150856
0.428500,-1.151830
0.428600,-1.129758
0.428700,-1.158646
0.428800,-1.155400
0.428900,-1.221939
0.429000,-1.278741
0.429100,-1.408899
0.429200,-1.421882
0.429300,-1.489071
0.429400,-1.634808
0.429500,-1.764641
0.429600,-1.790283
0.429700,-1.708164
0.429800,-1.643572
0.429900,-1.683171
0.430000,-1.827286
0.430100,-1.978541
0.430200,-2.048651
0.430300,-2.027878
0.430400,-1.977892
0.430500,-1.981463
0.430600,-2.054169
0.430700,-2.156088
0.430800,-2.228795
0.430900,-2.259955
0.431000,-2.262227
0.431100,-2.264824
0.431200,-2.289167
0.431300,-2.320327
0.431400,-2.348566
0.431500,-2.375182
0.431600,-2.398227
0.431700,-2.418676
0.431800,-2.447239
0.431900,-2.473206
0.432000,-2.484567
0.432100,-2.487488
0.432200,-2.514104
0.432300,-2.545913
0.432400,-2.567335
0.432500,-2.505989
0.432600,-2.433607
0.432700,-2.419650
0.432800,-2.506963
0.432900,-2.609207
0.433000,-2.661140
0.433100,-2.599794
0.433200,-2.493330
0.433300,-2.444318
0.433400,-2.503717
0.433500,-2.624462
0.433600,-2.700415
0.433700,-2.689703
0.433800,-2.634524
0.433900,-2.595250
0.434000,-2.595250
0.434100,-2.611154
0.434200,-2.616023
0.434300,-2.606610
0.434400,-2.598820
0.434500,-2.580968
0.434600,-2.553378
0.434700,-2.487488
0.434800,-2.402447
0.434900,-2.331688
0.435000,-2.286571
0.435100,-2.256709
0.435200,-2.237559
0.435300,-2.180107
0.435400,-2.096689
0.435500,-2.023983
0.435600,-1.935696
0.435700,-1.866236
0.435800,-1.802942
0.435900,-1.745815
0.436000,-1.665319
0.436100,-1.587095
0.436200,-1.496536
0.436300,-1.427725
0.436400,-1.380335
0.436500,-1.340736
0.436600,-1.308603
0.436700,-1.288479
0.436800,-1.268355
0.436900,-1.249204
0.437000,-1.217395
0.437100,-1.201166
0.437200,-1.169357
0.437300,-1.180068
0.437400,-1.167085
0.437500,-1.181042
0.437600,-1.126188
0.437700,-1.037252
0.437800,-0.865548
0.437900,-0.819133
0.438000,-0.907419
0.438100,-1.025567
0.438200,-1.049262
0.438300,-0.946044
0.438400,-0.832441
0.438500,-0.748699
0.438600,-0.788947
0.438700,-0.866846
0.438800,-0.911963
0.438900,-0.882102
0.439000,-0.800307
0.439100,-0.738961
0.439200,-0.710723
0.439300,-0.729224
0.439400,-0.737338
0.439500,-0.738312
0.439600,-0.732794
0.439700,-0.718837
0.439800,-0.719811
0.439900,-0.712345
0.440000,-0.714942
0.440100,-0.735066
0.440200,-0.769147
0.440300,-0.800632
0.440400,-0.858083
0.440500,-0.888269
0.440600,-0.900278
0.440700,-0.890866
0.440800,-0.918455
0.440900,-1.021997
0.441000,-1.116450
0.441100,-1.117099
0.441200,-1.044717
0.441300,-0.980126
0.441400,-1.000250
0.441500,-1.107037
0.441600,-1.212202
0.441700,-1.226483
0.441800,-1.163839
0.441900,-1.093405
0.442000,-1.100221
0.442100,-1.162865
0.442200,-1.223562
0.442300,-1.238168
0.442400,-1.246608
0.442500,-1.243037
0.442600,-1.276145
0.442700,-1.309252
0.442800,-1.339438
0.442900,-1.367352
0.443000,-1.381958
0.443100,-1.412469
0.443200,-1.431295
0.443300,-1.440059
0.443400,-1.431944
0.443500,-1.418312
0.443600,-1.426102
0.443700,-1.489395
0.443800,-1.542627
0.443900,-1.560803
0.444000,-1.549443
0.444100,-1.525424
0.444200,-1.534837
0.444300,-1.540679
0.444400,-1.536784
0.444500,-1.530293
0.444600,-1.526722
0.444700,-1.527047
0.444800,-1.520231
0.444900,-1.523476
0.445000,-1.521853
0.445100,-1.522503
0.445200,-1.522503
0.445300,-1.522178
0.445400,-1.528994
0.445500,-1.534188
0.445600,-1.543600
0.445700,-1.562102
0.445800,-1.587095
0.445900,-1.617281
0.446000,-1.707515
0.446100,-1.859744
0.446200,-1.944135
0.446300,-1.917844
0.446400,-1.812679
0.446500,-1.758150
0.446600,-1.826312
0.446700,-1.968479
0.446800,-2.091172
0.446900,-2.115191
0.447000,-2.063582
0.447100,-2.017167
0.447200,-2.028527
0.447300,-2.120384
0.447400,-2.214189
0.447500,-2.279105
0.447600,-2.285272
0.447700,-2.286246
0.447800,-2.292089
0.447900,-2.328117
0.448000,-2.364471
0.448100,-2.389139
0.448200,-2.407965
0.448300,-2.436853
0.448400,-2.467039
0.448500,-2.496576
0.448600,-2.520595
0.448700,-2.519946
0.448800,-2.532280
0.448900,-2.552404
0.449000,-2.573827
0.449100,-2.568309
0.449200,-2.496576
0.449300,-2.445616
0.449400,-2.457951
0.449500,-2.546562
0.449600,-2.633875
0.449700,-2.657245
0.449800,-2.583564
0.449900,-2.495602
0.450000,-2.483593
0.450100,-2.557598
0.450200,-2.659192
0.450300,-2.714372
0.450400,-2.698792
0.450500,-2.654973
0.450600,-2.616672
0.450700,-2.608233
0.450800,-2.614400
0.450900,-2.622190
0.451000,-2.605312
0.451100,-2.588109
0.451200,-2.565388
0.451300,-2.530982
0.451400,-2.482294
0.451500,-2.408289
0.451600,-2.342724
0.451700,-2.290141
0.451800,-2.249893
0.451900,-2.209644
0.452000,-2.120059
0.452100,-2.023658
0.452200,-1.908756
0.452300,-1.810407
0.452400,-1.748737
0.452500,-1.686417
0.452600,-1.621500
0.452700,-1.553338
0.452800,-1.463429
0.452900,-1.384880
0.453000,-1.314121
0.453100,-1.270951
0.453200,-1.236870
0.453300,-1.202140
0.453400,-1.189481
0.453500,-1.163839
0.453600,-1.140794
0.453700,-1.113204
0.453800,-1.103791
0.453900,-1.091782
0.454000,-1.090808
0.454100,-1.099247
0.454200,-1.082694
0.454300,-1.045691
0.454400,-0.899954
0.454500,-0.798035
0.454600,-0.771095
0.454700,-0.911314
0.454800,-0.999601
0.454900,-0.994732
0.455000,-0.870741
0.455100,-0.763954
0.455200,-0.728899
0.455300,-0.782131
0.455400,-0.866522
0.455500,-0.884374
0.455600,-0.843152
0.455700,-0.767524
0.455800,-0.714618
0.455900,-0.695143
0.456000,-0.703906
0.456100,-0.715916
0.456200,-0.719486
0.456300,-0.714618
0.456400,-0.702608
0.456500,-0.705205
0.456600,-0.702283
0.456700,-0.691248
0.456800,-0.722732
0.456900,-0.746427
0.457000,-0.796737
0.457100,-0.831142
0.457200,-0.853539
0.457300,-0.847372
0.457400,-0.859381
0.457500,-0.917481
0.457600,-1.024269
0.457700,-1.074254
0.457800,-1.068087
0.457900,-0.987591
0.458000,-0.962274
0.458100,-1.011935
0.458200,-1.125214
0.458300,-1.197920
0.458400,-1.206359
0.458500,-1.146312
0.458600,-1.098598
0.458700,-1.127486
0.458800,-1.199868
0.458900,-1.248230
0.459000,-1.254073
0.459100,-1.257968
0.459200,-1.271276
0.459300,-1.308603
0.459400,-1.352746
0.459500,-1.385529
0.459600,-1.394942
0.459700,-1.415390
0.459800,-1.454989
0.459900,-1.478359
0.460000,-1.479982
0.460100,-1.477061
0.460200,-1.463104
0.460300,-1.488746
0.460400,-1.551715
0.460500,-1.590016
0.460600,-1.603973
0.460700,-1.586121
0.460800,-1.572488
0.460900,-1.577682
0.461000,-1.572813
0.461100,-1.568593
0.461200,-1.559830
0.461300,-1.548794
0.461400,-1.547495
0.461500,-1.538083
0.461600,-1.534188
0.461700,-1.521853
0.461800,-1.520880
0.461900,-1.519906
0.462000,-1.525424
0.462100,-1.528994
0.462200,-1.536784
0.462300,-1.536135
0.462400,-1.562751
0.462500,-1.579305
0.462600,-1.620851
0.462700,-1.738350
0.462800,-1.888956
0.462900,-1.967830
0.463000,-1.911677
0.463100,-1.810732
0.463200,-1.792231
0.463300,-1.897720
0.463400,-2.063257
0.463500,-2.158036
0.463600,-2.157711
0.463700,-2.089549
0.463800,-2.068451
0.463900,-2.120059
0.464000,-2.223926
0.464100,-2.297282
0.464200,-2.332012
0.464300,-2.327793
0.464400,-2.327144
0.464500,-2.352461
0.464600,-2.382972
0.464700,-2.401473
0.464800,-2.411211
0.464900,-2.424843
0.465000,-2.448538
0.465100,-2.487163
0.465200,-2.518972
0.465300,-2.536500
0.465400,-2.542018
0.465500,-2.554677
0.465600,-2.594276
0.465700,-2.622190
0.465800,-2.594600
0.465900,-2.517999
0.466000,-2.490734
0.466100,-2.539421
0.466200,-2.632252
0.466300,-2.726057
0.466400,-2.713398
0.466500,-2.635498
0.466600,-2.572204
0.466700,-2.585512
0.466800,-2.680290
0.466900,-2.773771
0.467000,-2.798764
0.467100,-2.752348
0.467200,-2.701064
0.467300,-2.680290
0.467400,-2.690677
0.467500,-2.700415
0.467600,-2.690028
0.467700,-2.669579
0.467800,-2.638419
0.467900,-2.604013
0.468000,-2.564414
0.468100,-2.505340
0.468200,-2.428414
0.468300,-2.355382
0.468400,-2.309291
0.468500,-2.260929
0.468600,-2.201854
0.468700,-2.095067
0.468800,-1.995095
0.468900,-1.872078
0.469000,-1.787362
0.469100,-1.724393
0.469200,-1.660775
0.469300,-1.585147
0.469400,-1.510818
0.469500,-1.415715
0.469600,-1.331973
0.469700,-1.272250
0.469800,-1.228756
0.469900,-1.198569
0.470000,-1.162216
0.470100,-1.140145
0.470200,-1.110608
0.470300,-1.086913
0.470400,-1.062245
0.470500,-1.039200
0.470600,-1.036278
0.470700,-1.031734
0.470800,-1.037577
0.470900,-1.019400
0.471000,-0.952212
0.471100,-0.792193
0.471200,-0.687028
0.471300,-0.715591
0.471400,-0.850942
0.471500,-0.916508
0.471600,-0.862951
0.471700,-0.722407
0.471800,-0.628279
0.471900,-0.626656
0.472000,-0.713319
0.472100,-0.783104
0.472200,-0.776288
0.472300,-0.692871
0.472400,-0.623735
0.472500,-0.590952
0.472600,-0.605233
0.472700,-0.620489
0.472800,-0.628603
0.472900,-0.621787
0.473000,-0.598417
0.473100,-0.580565
0.473200,-0.588355
0.473300,-0.594847
0.473400,-0.611076
0.473500,-0.640288
0.473600,-0.674694
0.473700,-0.707152
0.473800,-0.748049
0.473900,-0.757462
0.474000,-0.759410
0.474100,-0.771419
0.474200,-0.852240
0.474300,-0.964546
0.474400,-1.005768
0.474500,-0.986617
0.474600,-0.905147
0.474700,-0.902226
0.474800,-0.974283
0.474900,-1.099572
0.475000,-1.152803
0.475100,-1.126512
0.475200,-1.054779
0.475300,-1.017453
0.475400,-1.078149
0.475500,-1.163515
0.475600,-1.217071
0.475700,-1.237195
0.475800,-1.224861
0.475900,-1.241739
0.476000,-1.285557
0.476100,-1.333920
0.476200,-1.370923
0.476300,-1.380335
0.476400,-1.406302
0.476500,-1.429672
0.476600,-1.445577
0.476700,-1.445901
0.476800,-1.442331
0.476900,-1.433567
0.477000,-1.476412
0.477100,-1.535810
0.477200,-1.567295
0.477300,-1.565997
0.477400,-1.565023
0.477500,-1.564698
0.477600,-1.577032
0.477700,-1.579305
0.477800,-1.575085
0.477900,-1.573137
0.478000,-1.566646
0.478100,-1.568269
0.478200,-1.564049
0.478300,-1.560479
0.478400,-1.569242
0.478500,-1.562102
0.478600,-1.575734
0.478700,-1.574436
0.478800,-1.581252
0.478900,-1.582226
0.479000,-1.598455
0.479100,-1.613710
0.479200,-1.640651
0.479300,-1.692584
0.479400,-1.824040
0.479500,-1.960040
0.479600,-1.986980
0.479700,-1.914274
0.479800,-1.821443
0.479900,-1.839295
0.480000,-1.965558
0.480100,-2.120709
0.480200,-2.187248
0.480300,-2.152842
0.480400,-2.083057
0.480500,-2.065854
0.480600,-2.127849
0.480700,-2.234637
0.480800,-2.311888
0.480900,-2.329416
0.481000,-2.320327
0.481100,-2.304747
0.481200,-2.314809
0.481300,-2.348566
0.481400,-2.381998
0.481500,-2.410561
0.481600,-2.418027
0.481700,-2.439774
0.481800,-2.456328
0.481900,-2.477426
0.482000,-2.485540
0.482100,-2.494629
0.482200,-2.512805
0.482300,-2.543316
0.482400,-2.554027
0.482500,-2.504042
0.482600,-2.424519
0.482700,-2.408614
0.482800,-2.464442
0.482900,-2.563765
0.483000,-2.627383
0.483100,-2.581292
0.483200,-2.481321
0.483300,-2.422246
0.483400,-2.453082
0.483500,-2.554677
0.483600,-2.643612
0.483700,-2.661465
0.483800,-2.613102
0.483900,-2.553378
0.484000,-2.528385
0.484100,-2.532605
0.484200,-2.555326
0.484300,-2.562791
0.484400,-2.550132
0.484500,-2.521569
0.484600,-2.487163
0.484700,-2.442695
0.484800,-2.385569
0.484900,-2.321626
0.485000,-2.261253
0.485100,-2.221654
0.485200,-2.191792
0.485300,-2.133043
0.485400,-2.034370
0.485500,-1.933100
0.485600,-1.816574
0.485700,-1.751982
0.485800,-1.698751
0.485900,-1.633185
0.486000,-1.561777
0.486100,-1.483877
0.486200,-1.395266
0.486300,-1.322560
0.486400,-1.270951
0.486500,-1.238168
0.486600,-1.210904
0.486700,-1.195973
0.486800,-1.172603
0.486900,-1.147610
0.487000,-1.118398
0.487100,-1.088861
0.487200,-1.072956
0.487300,-1.071333
0.487400,-1.084966
0.487500,-1.091457
0.487600,-1.069061
0.487700,-0.973309
0.487800,-0.820431
0.487900,-0.762006
0.488000,-0.833739
0.488100,-0.985968
0.488200,-1.023944
0.488300,-0.944097
0.488400,-0.807773
0.488500,-0.728250
0.488600,-0.752269
0.488700,-0.837959
0.488800,-0.901577
0.488900,-0.875610
0.489000,-0.803553
0.489100,-0.720460
0.489200,-0.698713
0.489300,-0.693844
0.489400,-0.716565
0.489500,-0.736365
0.489600,-0.738637
0.489700,-0.721109
0.489800,-0.708775
0.489900,-0.698388
0.490000,-0.685730
0.490100,-0.706178
0.490200,-0.738637
0.490300,-0.785701
0.490400,-0.819782
0.490500,-0.842827
0.490600,-0.835037
0.490700,-0.832441
0.490800,-0.846722
0.490900,-0.951562
0.491000,-1.030760
0.491100,-1.047963
0.491200,-0.991486
0.491300,-0.920402
0.491400,-0.935009
0.491500,-1.032059
0.491600,-1.140794
0.491700,-1.188183
0.491800,-1.152803
0.491900,-1.094054
0.492000,-1.080746
0.492100,-1.133328
0.492200,-1.206684
0.492300,-1.243037
0.492400,-1.271276
0.492500,-1.270302
0.492600,-1.287830
0.492700,-1.310875
0.492800,-1.338789
0.492900,-1.350149
0.493000,-1.367352
0.493100,-1.391371
0.493200,-1.409548
0.493300,-1.422207
0.493400,-1.410522
0.493500,-1.395591
0.493600,-1.396889
0.493700,-1.446550
0.493800,-1.496211
0.493900,-1.524775
0.494000,-1.532565
0.494100,-1.518608
0.494200,-1.528020
0.494300,-1.529968
0.494400,-1.527047
0.494500,-1.521853
0.494600,-1.520555
0.494700,-1.516985
0.494800,-1.520555
0.494900,-1.521204
0.495000,-1.522178
0.495100,-1.523152
0.495200,-1.522503
0.495300,-1.528020
0.495400,-1.528670
0.495500,-1.536784
0.495600,-1.541328
0.495700,-1.558856
0.495800,-1.577682
0.495900,-1.610464
0.496000,-1.687391
0.496100,-1.838971
0.496200,-1.954522
0.496300,-1.949653
0.496400,-1.857472
0.496500,-1.791257
0.496600,-1.854551
0.496700,-2.007429
0.496800,-2.150570
0.496900,-2.190819
0.497000,-2.145052
0.497100,-2.081759
0.497200,-2.094417
0.497300,-2.171668
0.497400,-2.268069
0.497500,-2.334284
0.497600,-2.357005
0.497700,-2.361874
0.497800,-2.375182
0.497900,-2.389464
0.498000,-2.405044
0.498100,-2.425168
0.498200,-2.449836
0.498300,-2.470934
0.498400,-2.508586
0.498500,-2.543641
0.498600,-2.553054
0.498700,-2.547211
0.498800,-2.546887
0.498900,-2.569607
0.499000,-2.600767
0.499100,-2.597846
0.499200,-2.529034
0.499300,-2.459249
0.499400,-2.470609
0.499500,-2.546237
0.499600,-2.651727
0.499700,-2.682563
0.499800,-2.619918
0.499900,-2.519297
0.500000,-2.466714
0.500100,-2.517349
0.500200,-2.628357
0.500300,-2.711126
0.500400,-2.713723
0.500500,-2.664710
0.500600,-2.620892
0.500700,-2.598171
0.500800,-2.599794
0.500900,-2.611479
0.501000,-2.618295
0.501100,-2.614725
0.501200,-2.596548
0.501300,-2.556949
0.501400,-2.513779
0.501500,-2.449836
0.501600,-2.379077
0.501700,-2.333635
0.501800,-2.297282
0.501900,-2.267420
0.502000,-2.204451
0.502100,-2.116814
0.502200,-2.009052
0.502300,-1.901291
0.502400,-1.844813
0.502500,-1.786388
0.502600,-1.730235
0.502700,-1.670837
0.502800,-1.591639
0.502900,-1.508870
0.503000,-1.440708
0.503100,-1.381958
0.503200,-1.346254
0.503300,-1.313796
0.503400,-1.293347
0.503500,-1.269328
0.503600,-1.248555
0.503700,-1.220966
0.503800,-1.191753
0.503900,-1.172278
0.504000,-1.164164
0.504100,-1.168383
0.504200,-1.150856
0.504300,-1.119047
0.504400,-0.963896
0.504500,-0.846722
0.504600,-0.781157
0.504700,-0.915534
0.504800,-1.011610
0.504900,-1.012908
0.505000,-0.885023
0.505100,-0.746427
0.505200,-0.691248
0.505300,-0.725653
0.505400,-0.819133
0.505500,-0.827572
0.505600,-0.788298
0.505700,-0.696441
0.505800,-0.641911
0.505900,-0.609128
0.506000,-0.613673
0.506100,-0.624059
0.506200,-0.624384
0.506300,-0.620813
0.506400,-0.607181
0.506500,-0.596470
0.506600,-0.594847
0.506700,-0.588680
0.506800,-0.604260
0.506900,-0.636718
0.507000,-0.677615
0.507100,-0.717214
0.507200,-0.736040
0.507300,-0.732145
0.507400,-0.732470
0.507500,-0.768174
0.507600,-0.877233
0.507700,-0.934684
0.507800,-0.934035
0.507900,-0.873338
0.508000,-0.814589
0.508100,-0.860679
0.508200,-0.968765
0.508300,-1.057052
0.508400,-1.083343
0.508500,-1.024593
0.508600,-0.895410
0.508700,-0.823028
0.508800,-1.159620
0.508900,-1.092756
0.509000,-1.115476
0.509100,-1.105414
0.509200,-1.041472
0.509300,-1.085290
0.509400,-1.169357
0.509500,-1.225185
0.509600,-1.245958
0.509700,-1.255047
0.509800,-1.290751
0.509900,-1.317042
0.510000,-1.321261
0.510100,-1.287180
0.510200,-1.217071
0.510300,-1.288479
0.510400,-1.383257
0.510500,-1.428049
0.510600,-1.441357
0.510700,-1.444278
0.510800,-1.424154
0.510900,-1.435839
0.511000,-1.434541
0.511100,-1.438760
0.511200,-1.429997
0.511300,-1.423830
0.511400,-1.413443
0.511500,-1.405004
0.511600,-1.416040
0.511700,-1.415390
0.511800,-1.420584
0.511900,-1.414741
0.512000,-1.422856
0.512100,-1.435839
0.512200,-1.443629
0.512300,-1.463429
0.512400,-1.481281
0.512500,-1.514713
0.512600,-1.549118
0.512700,-1.655257
0.512800,-1.818522
0.512900,-1.912326
0.513000,-1.872078
0.513100,-1.773730
0.513200,-1.734130
0.513300,-1.826637
0.513400,-1.990226
0.513500,-2.109348
0.513600,-2.122332
0.513700,-2.070074
0.513800,-2.031448
0.513900,-2.066179
0.514000,-2.153167
0.514100,-2.242427
0.514200,-2.283649
0.514300,-2.294685
0.514400,-2.295984
0.514500,-2.313836
0.514600,-2.346943
0.514700,-2.373559
0.514800,-2.391411
0.514900,-2.406666
0.515000,-2.428089
0.515100,-2.473206
0.515200,-2.503068
0.515300,-2.523192
0.515400,-2.517025
0.515500,-2.532929
0.515600,-2.568958
0.515700,-2.595574
0.515800,-2.576099
0.515900,-2.490409
0.516000,-2.447564
0.516100,-2.481321
0.516200,-2.580643
0.516300,-2.672825
0.516400,-2.677045
0.516500,-2.603040
0.516600,-2.528061
0.516700,-2.517674
0.516800,-2.591030
0.516900,-2.682563
0.517000,-2.723785
0.517100,-2.690028
0.517200,-2.640042
0.517300,-2.614400
0.517400,-2.619918
0.517500,-2.628682
0.517600,-2.624462
0.517700,-2.608882
0.517800,-2.589082
0.517900,-2.557273
0.518000,-2.523517
0.518100,-2.463793
0.518200,-2.390113
0.518300,-2.325521
0.518400,-2.275859
0.518500,-2.230742
0.518600,-2.186599
0.518700,-2.098962
0.518800,-2.002236
0.518900,-1.881816
0.519000,-1.796126
0.519100,-1.726665
0.519200,-1.661749
0.519300,-1.598779
0.519400,-1.521529
0.519500,-1.442655
0.519600,-1.376440
0.519700,-1.321586
0.519800,-1.287830
0.519900,-1.247257
0.520000,-1.222588
0.520100,-1.207009
0.520200,-1.183639
0.520300,-1.162541
0.520400,-1.136574
0.520500,-1.126837
0.520600,-1.108336
0.520700,-1.116450
0.520800,-1.112555
0.520900,-1.101519
0.521000,-1.042121
0.521100,-0.886971
0.521200,-0.770446
0.521300,-0.770770
0.521400,-0.914885
0.521500,-0.986617
0.521600,-0.955133
0.521700,-0.828221
0.521800,-0.713319
0.521900,-0.699038
0.522000,-0.756813
0.522100,-0.830818
0.522200,-0.818159
0.522300,-0.759734
0.522400,-0.681186
0.522500,-0.637367
0.522600,-0.640613
0.522700,-0.652947
0.522800,-0.658140
0.522900,-0.655868
0.523000,-0.649701
0.523100,-0.640937
0.523200,-0.646131
0.523300,-0.646131
0.523400,-0.649052
0.523500,-0.670150
0.523600,-0.720135
0.523700,-0.772393
0.523800,-0.813615
0.523900,-0.822703
0.524000,-0.809071
0.524100,-0.817835
0.524200,-0.886321
0.524300,-1.007390
0.524400,-1.058674
0.524500,-1.035629
0.524600,-0.960002
0.524700,-0.940527
0.524800,-1.009338
0.524900,-1.130407
0.525000,-1.212202
0.525100,-1.207982
0.525200,-1.133653
0.525300,-1.100546
0.525400,-1.147285
0.525500,-1.242388
0.525600,-1.306331
0.525700,-1.326779
0.525800,-1.319639
0.525900,-1.332622
0.526000,-1.367677
0.526100,-1.426102
0.526200,-1.467324
0.526300,-1.486149
0.526400,-1.491992
0.526500,-1.515362
0.526600,-1.533214
0.526700,-1.526073
0.526800,-1.516011
0.526900,-1.502054
0.527000,-1.527047
0.527100,-1.586445
0.527200,-1.615333
0.527300,-1.621500
0.527400,-1.602674
0.527500,-1.590665
0.527600,-1.594235
0.527700,-1.590016
0.527800,-1.591314
0.527900,-1.583200
0.528000,-1.578331
0.528100,-1.574436
0.528200,-1.570865
0.528300,-1.565347
0.528400,-1.568593
0.528500,-1.570865
0.528600,-1.573462
0.528700,-1.583849
0.528800,-1.589042
0.528900,-1.601376
0.529000,-1.604622
0.529100,-1.618254
0.529200,-1.636756
0.529300,-1.686741
0.529400,-1.820469
0.529500,-1.972050
0.529600,-2.025930
0.529700,-1.961338
0.529800,-1.868508
0.529900,-1.873701
0.530000,-2.002236
0.530100,-2.161282
0.530200,-2.254112
0.530300,-2.239831
0.530400,-2.175888
0.530500,-2.151219
0.530600,-2.208346
0.530700,-2.308967
0.530800,-2.394981
0.530900,-2.414781
0.531000,-2.404070
0.531100,-2.394332
0.531200,-2.412509
0.531300,-2.439125
0.531400,-2.457301
0.531500,-2.470285
0.531600,-2.474504
0.531700,-2.482294
0.531800,-2.508910
0.531900,-2.523192
0.532000,-2.507937
0.532100,-2.492357
0.532200,-2.494304
0.532300,-2.514753
0.532400,-2.528710
0.532500,-2.484242
0.532600,-2.386542
0.532700,-2.352786
0.532800,-2.398876
0.532900,-2.487488
0.533000,-2.565712
0.533100,-2.529359
0.533200,-2.428089
0.533300,-2.346943
0.533400,-2.356681
0.533500,-2.448862
0.533600,-2.547536
0.533700,-2.568634
0.533800,-2.513454
0.533900,-2.443344
0.534000,-2.414456
0.534100,-2.420299
0.534200,-2.438151
0.534300,-2.447239
0.534400,-2.426141
0.534500,-2.392385
0.534600,-2.356031
0.534700,-2.318704
0.534800,-2.268069
0.534900,-2.208346
0.535000,-2.152842
0.535100,-2.104479
0.535200,-2.076565
0.535300,-2.035668
0.535400,-1.945758
0.535500,-1.852928
0.535600,-1.743219
0.535700,-1.681873
0.535800,-1.628641
0.535900,-1.573462
0.536000,-1.513739
0.536100,-1.444603
0.536200,-1.359887
0.536300,-1.292049
0.536400,-1.239791
0.536500,-1.206035
0.536600,-1.191429
0.536700,-1.175524
0.536800,-1.162865
0.536900,-1.145338
0.537000,-1.124889
0.537100,-1.100870
0.537200,-1.086589
0.537300,-1.075228
0.537400,-1.083992
0.537500,-1.091133
0.537600,-1.070035
0.537700,-0.984670
0.537800,-0.836985
0.537900,-0.766551
0.538000,-0.802579
0.538100,-0.960326
0.538200,-0.976880
0.538300,-0.928517
0.538400,-0.779858
0.538500,-0.700336
0.538600,-0.708126
0.538700,-0.776937
0.538800,-0.842178
0.538900,-0.816861
0.539000,-0.751620
0.539100,-0.673396
0.539200,-0.638665
0.539300,-0.630551
0.539400,-0.657491
0.539500,-0.669176
0.539600,-0.659114
0.539700,-0.650026
0.539800,-0.631849
0.539900,-0.633472
0.540000,-0.629902
0.540100,-0.658465
0.540200,-0.688326
0.540300,-0.725653
0.540400,-0.765252
0.540500,-0.802904
0.540600,-0.813290
0.540700,-0.826923
0.540800,-0.837959
0.540900,-0.929491
0.541000,-1.016479
0.541100,-1.053806
0.541200,-1.008040
0.541300,-0.950589
0.541400,-0.940202
0.541500,-1.025567
0.541600,-1.137548
0.541700,-1.180717
0.541800,-1.135925
0.541900,-1.066140
0.542000,-1.055104
0.542100,-1.102818
0.542200,-1.165137
0.542300,-1.201815
0.542400,-1.224536
0.542500,-1.210579
0.542600,-1.209605
0.542700,-1.225510
0.542800,-1.262512
0.542900,-1.286856
0.543000,-1.297892
0.543100,-1.315094
0.543200,-1.325806
0.543300,-1.329376
0.543400,-1.305032
0.543500,-1.226483
0.543600,-1.170006
0.543700,-1.475438
0.543800,-1.407276
0.543900,-1.438111
0.544000,-1.447524
0.544100,-1.423180
0.544200,-1.428374
0.544300,-1.438436
0.544400,-1.437787
0.544500,-1.439734
0.544600,-1.440059
0.544700,-1.435190
0.544800,-1.426426
0.544900,-1.431619
0.545000,-1.430646
0.545100,-1.430321
0.545200,-1.430321
0.545300,-1.437462
0.545400,-1.439409
0.545500,-1.444927
0.545600,-1.455963
0.545700,-1.465376
0.545800,-1.490369
0.545900,-1.519581
0.546000,-1.582226
0.546100,-1.735429
0.546200,-1.860718
0.546300,-1.868183
0.546400,-1.783142
0.546500,-1.723744
0.546600,-1.769835
0.546700,-1.918169
0.546800,-2.061635
0.546900,-2.118112
0.547000,-2.077215
0.547100,-2.025930
0.547200,-2.025930
0.547300,-2.091496
0.547400,-2.187573
0.547500,-2.261902
0.547600,-2.294685
0.547700,-2.308318
0.547800,-2.315134
0.547900,-2.328766
0.548000,-2.347917
0.548100,-2.363172
0.548200,-2.384595
0.548300,-2.415430
0.548400,-2.441721
0.548500,-2.466065
0.548600,-2.500796
0.548700,-2.498524
0.548800,-2.506314
0.548900,-2.520271
0.549000,-2.539097
0.549100,-2.548834
0.549200,-2.496252
0.549300,-2.427440
0.549400,-2.417378
0.549500,-2.506963
0.549600,-2.609207
0.549700,-2.659517
0.549800,-2.613426
0.549900,-2.510533
0.550000,-2.460872
0.550100,-2.510209
0.550200,-2.623488
0.550300,-2.695870
0.550400,-2.688080
0.550500,-2.640691
0.550600,-2.606285
0.550700,-2.595574
0.550800,-2.600443
0.550900,-2.595250
0.551000,-2.587135
0.551100,-2.588433
0.551200,-2.579994
0.551300,-2.552729
0.551400,-2.505989
0.551500,-2.438476
0.551600,-2.370638
0.551700,-2.322924
0.551800,-2.284948
0.551900,-2.241454
0.552000,-2.173616
0.552100,-2.064556
0.552200,-1.969453
0.552300,-1.855524
0.552400,-1.790932
0.552500,-1.734455
0.552600,-1.673758
0.552700,-1.598779
0.552800,-1.525099
0.552900,-1.429023
0.553000,-1.365080
0.553100,-1.304383
0.553200,-1.275171
0.553300,-1.239791
0.553400,-1.218044
0.553500,-1.197596
0.553600,-1.182665
0.553700,-1.164164
0.553800,-1.133328
0.553900,-1.120670
0.554000,-1.112555
0.554100,-1.128135
0.554200,-1.123591
0.554300,-1.098923
0.554400,-0.972660
0.554500,-0.833739
0.554600,-0.793816
0.554700,-0.900928
0.554800,-1.023295
0.554900,-1.033682
0.555000,-0.928842
0.555100,-0.796737
0.555200,-0.742856
0.555300,-0.766226
0.555400,-0.847696
0.555500,-0.881453
0.555600,-0.853539
0.555700,-0.785052
0.555800,-0.720785
0.555900,-0.698064
0.556000,-0.697415
0.556100,-0.709424
0.556200,-0.723381
0.556300,-0.715267
0.556400,-0.706828
0.556500,-0.706503
0.556600,-0.700011
0.556700,-0.700660
0.556800,-0.723057
0.556900,-0.737663
0.557000,-0.777586
0.557100,-0.805176
0.557200,-0.847372
0.557300,-0.850942
0.557400,-0.861653
0.557500,-0.886646
0.557600,-0.999601
0.557700,-1.095352
0.557800,-1.095028
0.557900,-1.022646
0.558000,-0.973959
0.558100,-0.985968
0.558200,-1.110608
0.558300,-1.224211
0.558400,-1.245958
0.558500,-1.178445
0.558600,-1.111906
0.558700,-1.118398
0.558800,-1.198245
0.558900,-1.264784
0.559000,-1.283935
0.559100,-1.281013
0.559200,-1.271600
0.559300,-1.298216
0.559400,-1.335219
0.559500,-1.371247
0.559600,-1.375791
0.559700,-1.378388
0.559800,-1.394942
0.559900,-1.423505
0.560000,-1.425777
0.560100,-1.405653
0.560200,-1.377414
0.560300,-1.377739
0.560400,-1.435190
0.560500,-1.479333
0.560600,-1.495238
0.560700,-1.494913
0.560800,-1.472841
0.560900,-1.480631
0.561000,-1.494588
0.561100,-1.488746
0.561200,-1.482904
0.561300,-1.480631
0.561400,-1.473815
0.561500,-1.482579
0.561600,-1.476087
0.561700,-1.470245
0.561800,-1.472517
0.561900,-1.480307
0.562000,-1.483877
0.562100,-1.496211
0.562200,-1.498159
0.562300,-1.516660
0.562400,-1.530293
0.562500,-1.570216
0.562600,-1.603973
0.562700,-1.701672
0.562800,-1.865262
0.562900,-1.952575
0.563000,-1.925634
0.563100,-1.822742
0.563200,-1.779897
0.563300,-1.852279
0.563400,-1.998665
0.563500,-2.129797
0.563600,-2.148623
0.563700,-2.103830
0.563800,-2.046379
0.563900,-2.061635
0.564000,-2.141482
0.564100,-2.229444
0.564200,-2.279430
0.564300,-2.288194
0.564400,-2.283000
0.564500,-2.271315
0.564600,-2.286895
0.564700,-2.322599
0.564800,-2.336232
0.564900,-2.345645
0.565000,-2.350189
0.565100,-2.364471
0.565200,-2.388814
0.565300,-2.413483
0.565400,-2.421597
0.565500,-2.428089
0.565600,-2.445941
0.565700,-2.468337
0.565800,-2.463793
0.565900,-2.382647
0.566000,-2.317406
0.566100,-2.341750
0.566200,-2.452757
0.566300,-2.554027
0.566400,-2.580319
0.566500,-2.498524
0.566600,-2.406342
0.566700,-2.380700
0.566800,-2.460872
0.566900,-2.566686
0.567000,-2.624787
0.567100,-2.602066
0.567200,-2.539746
0.567300,-2.506638
0.567400,-2.520595
0.567500,-2.542667
0.567600,-2.545264
0.567700,-2.535526
0.567800,-2.518648
0.567900,-2.503717
0.568000,-2.480347
0.568100,-2.432309
0.568200,-2.357979
0.568300,-2.293387
0.568400,-2.249244
0.568500,-2.216136
0.568600,-2.191143
0.568700,-2.114217
0.568800,-2.014570
0.568900,-1.892851
0.569000,-1.792555
0.569100,-1.725367
0.569200,-1.664021
0.569300,-1.594884
0.569400,-1.520880
0.569500,-1.443629
0.569600,-1.358264
0.569700,-1.293672
0.569800,-1.251476
0.569900,-1.220966
0.570000,-1.201166
0.570100,-1.182340
0.570200,-1.170006
0.570300,-1.142417
0.570400,-1.127486
0.570500,-1.099247
0.570600,-1.091133
0.570700,-1.087238
0.570800,-1.089510
0.570900,-1.091782
0.571000,-1.028813
0.571100,-0.909367
0.571200,-0.751620
0.571300,-0.764603
0.571400,-0.866522
0.571500,-0.978827
0.571600,-0.958703
0.571700,-0.837634
0.571800,-0.725653
0.571900,-0.678914
0.572000,-0.745453
0.572100,-0.803228
0.572200,-0.831467
0.572300,-0.776613
0.572400,-0.704880
0.572500,-0.640613
0.572600,-0.616594
0.572700,-0.631200
0.572800,-0.643534
0.572900,-0.642560
0.573000,-0.631525
0.573100,-0.623735
0.573200,-0.606532
0.573300,-0.611076
0.573400,-0.606207
0.573500,-0.646780
0.573600,-0.658465
0.573700,-0.715591
0.573800,-0.746751
0.573900,-0.769472
0.574000,-0.760384
0.574100,-0.762006
0.574200,-0.825300
0.574300,-0.951562
0.574400,-1.016803
0.574500,-0.999601
0.574600,-0.922025
0.574700,-0.898006
0.574800,-0.948317
0.574900,-1.076851
0.575000,-1.166760
0.575100,-1.174226
0.575200,-1.115152
0.575300,-1.073605
0.575400,-1.099896
0.575500,-1.174550
0.575600,-1.227133
0.575700,-1.250503
0.575800,-1.261538
0.575900,-1.270302
0.576000,-1.295295
0.576100,-1.335219
0.576200,-1.360536
0.576300,-1.367677
0.576400,-1.388125
0.576500,-1.417987
0.576600,-1.442980
0.576700,-1.447849
0.576800,-1.436164
0.576900,-1.414092
0.577000,-1.427725
0.577100,-1.491992
0.577200,-1.533214
0.577300,-1.543600
0.577400,-1.556908
0.577500,-1.543276
0.577600,-1.547820
0.577700,-1.548145
0.577800,-1.540355
0.577900,-1.546197
0.578000,-1.543925
0.578100,-1.539056
0.578200,-1.533863
0.578300,-1.531915
0.578400,-1.524775
0.578500,-1.522827
0.578600,-1.525424
0.578700,-1.536784
0.578800,-1.540355
0.578900,-1.549768
0.579000,-1.553338
0.579100,-1.573787
0.579200,-1.598779
0.579300,-1.639677
0.579400,-1.763018
0.579500,-1.892202
0.579600,-1.954847
0.579700,-1.896746
0.579800,-1.816574
0.579900,-1.788985
0.580000,-1.884412
0.580100,-2.028852
0.580200,-2.127200
0.580300,-2.137912
0.580400,-2.083057
0.580500,-2.054494
0.580600,-2.087277
0.580700,-2.165501
0.580800,-2.256384
0.580900,-2.295984
0.581000,-2.305721
0.581100,-2.311239
0.581200,-2.323573
0.581300,-2.331688
0.581400,-2.347592
0.581500,-2.372585
0.581600,-2.383621
0.581700,-2.397254
0.581800,-2.445292
0.581900,-2.466390
0.582000,-2.460872
0.582100,-2.445292
0.582200,-2.469960
0.582300,-2.511182
0.582400,-2.538447
0.582500,-2.497550
0.582600,-2.406991
0.582700,-2.381024
0.582800,-2.429387
0.582900,-2.546562
0.583000,-2.614400
0.583100,-2.604987
0.583200,-2.528710
0.583300,-2.455679
0.583400,-2.459574
0.583500,-2.538772
0.583600,-2.640367
0.583700,-2.694572
0.583800,-2.678018
0.583900,-2.617970
0.584000,-2.594276
0.584100,-2.592328
0.584200,-2.600767
0.584300,-2.607908
0.584400,-2.603364
0.584500,-2.592977
0.584600,-2.569607
0.584700,-2.534552
0.584800,-2.468662
0.584900,-2.386218
0.585000,-2.320976
0.585100,-2.273587
0.585200,-2.239831
0.585300,-2.196986
0.585400,-2.114866
0.585500,-2.032747
0.585600,-1.916546
0.585700,-1.832479
0.585800,-1.771133
0.585900,-1.715629
0.586000,-1.655257
0.586100,-1.576708
0.586200,-1.476736
0.586300,-1.400784
0.586400,-1.337491
0.586500,-1.298541
0.586600,-1.271925
0.586700,-1.241414
0.586800,-1.232651
0.586900,-1.218369
0.587000,-1.203114
0.587100,-1.177796
0.587200,-1.155400
0.587300,-1.145013
0.587400,-1.145013
0.587500,-1.150207
0.587600,-1.135276
0.587700,-1.051209
0.587800,-0.910340
0.587900,-0.812966
0.588000,-0.855811
0.588100,-0.976880
0.588200,-1.034331
0.588300,-0.982722
0.588400,-0.851916
0.588500,-0.761033
0.588600,-0.736365
0.588700,-0.786350
0.588800,-0.847047
0.588900,-0.841854
0.589000,-0.785376
0.589100,-0.710073
0.589200,-0.648078
0.589300,-0.627630
0.589400,-0.639315
0.589500,-0.655219
0.589600,-0.650999
0.589700,-0.630226
0.589800,-0.612050
0.589900,-0.623085
0.590000,-0.626656
0.590100,-0.627305
0.590200,-0.635420
0.590300,-0.699038
0.590400,-0.738312
0.590500,-0.779209
0.590600,-0.778236
0.590700,-0.770770
0.590800,-0.795438
0.590900,-0.875935
0.591000,-0.990188
0.591100,-1.021672
0.591200,-0.981749
0.591300,-0.910340
0.591400,-0.915209
0.591500,-0.971362
0.591600,-1.070684
0.591700,-1.130732
0.591800,-1.131705
0.591900,-1.083992
0.592000,-1.047314
0.592100,-1.060622
0.592200,-1.111257
0.592300,-1.163839
0.592400,-1.203438
0.592500,-1.205386
0.592600,-1.203438
0.592700,-1.213500
0.592800,-1.254398
0.592900,-1.278417
0.593000,-1.293023
0.593100,-1.310550
0.593200,-1.317042
0.593300,-1.322884
0.593400,-1.305357
0.593500,-1.194674
0.593600,-1.088211
0.593700,-1.256994
0.593800,-1.368651
0.593900,-1.400135
0.594000,-1.414741
0.594100,-1.409872
0.594200,-1.404355
0.594300,-1.407925
0.594400,-1.398512
0.594500,-1.391047
0.594600,-1.393319
0.594700,-1.314445
0.594800,-1.294970
0.594900,-1.285233
0.595000,-1.261538
0.595100,-1.232001
0.595200,-1.230703
0.595300,-1.207982
0.595400,-1.271600
0.595500,-1.306655
0.595600,-1.304383
0.595700,-1.381634
0.595800,-1.428374
0.595900,-1.456937
0.596000,-1.518932
0.596100,-1.657529
0.596200,-1.795152
0.596300,-1.816574
0.596400,-1.753281
0.596500,-1.680574
0.596600,-1.704269
0.596700,-1.817548
0.596800,-1.961014
0.596900,-2.043133
0.597000,-2.040212
0.597100,-1.991849
0.597200,-1.979840
0.597300,-2.032422
0.597400,-2.117463
0.597500,-2.205425
0.597600,-2.245349
0.597700,-2.254437
0.597800,-2.254112
0.597900,-2.270341
0.598000,-2.299554
0.598100,-2.326170
0.598200,-2.340776
0.598300,-2.358628
0.598400,-2.397578
0.598500,-2.443994
0.598600,-2.460223
0.598700,-2.452108
0.598800,-2.466714
0.598900,-2.502419
0.599000,-2.541369
0.599100,-2.541044
0.599200,-2.484242
0.599300,-2.413807
0.599400,-2.406017
0.599500,-2.479698
0.599600,-2.578696
0.599700,-2.620892
0.599800,-2.574152
0.599900,-2.511182
0.600000,-2.465416
0.600100,-2.478075
0.600200,-2.540395
0.600300,-2.606285
0.600400,-2.655947
0.600500,-2.646209
0.600600,-2.609207
0.600700,-2.560844
0.600800,-2.547860
0.600900,-2.557273
0.601000,-2.566686
0.601100,-2.567011
0.601200,-2.536500
0.601300,-2.498524
0.601400,-2.443669
0.601500,-2.374533
0.601600,-2.303449
0.601700,-2.248594
0.601800,-2.203802
0.601900,-2.157387
0.602000,-2.103506
0.602100,-1.998341
0.602200,-1.915248
0.602300,-1.796126
0.602400,-1.714331
0.602500,-1.647467
0.602600,-1.584173
0.602700,-1.511467
0.602800,-1.433892
0.602900,-1.352746
0.603000,-1.288479
0.603100,-1.232001
0.603200,-1.192078
0.603300,-1.161567
0.603400,-1.139495
0.603500,-1.132679
0.603600,-1.113204
0.603700,-1.096001
0.603800,-1.086589
0.603900,-1.079448
0.604000,-1.084641
0.604100,-1.088211
0.604200,-1.096001
0.604300,-1.067438
0.604400,-0.981749
0.604500,-0.833090
0.604600,-0.789921
0.604700,-0.857758
0.604800,-0.993758
0.604900,-1.018751
0.605000,-0.953185
0.605100,-0.835362
0.605200,-0.756164
0.605300,-0.768823
0.605400,-0.840555
0.605500,-0.890541
0.605600,-0.866522
0.605700,-0.811018
0.605800,-0.751944
0.605900,-0.723381
0.606000,-0.720785
0.606100,-0.731820
0.606200,-0.738961
0.606300,-0.728250
0.606400,-0.712021
0.606500,-0.722083
0.606600,-0.736689
0.606700,-0.730522
0.606800,-0.711047
0.606900,-0.752269
0.607000,-0.804202
0.607100,-0.855486
0.607200,-0.863601
0.607300,-0.856460
0.607400,-0.858083
0.607500,-0.906445
0.607600,-1.009338
0.607700,-1.091457
0.607800,-1.094379
0.607900,-1.032059
0.608000,-0.986617
0.608100,-1.027839
0.608200,-1.100870
0.608300,-1.183639
0.608400,-1.214149
0.608500,-1.186884
0.608600,-1.151505
0.608700,-1.136899
0.608800,-1.177472
0.608900,-1.236546
0.609000,-1.265758
0.609100,-1.280364
0.609200,-1.268355
0.609300,-1.287830
0.609400,-1.314121
0.609500,-1.351772
0.609600,-1.359238
0.609700,-1.363457
0.609800,-1.379037
0.609900,-1.402732
0.610000,-1.408899
0.610100,-1.401758
0.610200,-1.384230
0.610300,-1.391696
0.610400,-1.429347
0.610500,-1.483228
0.610600,-1.506923
0.610700,-1.516985
0.610800,-1.507572
0.610900,-1.504001
0.611000,-1.506273
0.611100,-1.495887
0.611200,-1.487123
0.611300,-1.483553
0.611400,-1.480631
0.611500,-1.477061
0.611600,-1.468946
0.611700,-1.464078
0.611800,-1.467648
0.611900,-1.466999
0.612000,-1.463753
0.612100,-1.471868
0.612200,-1.469920
0.612300,-1.479333
0.612400,-1.498483
0.612500,-1.522827
0.612600,-1.549768
0.612700,-1.630264
0.612800,-1.781195
0.612900,-1.896746
0.613000,-1.892202
0.613100,-1.803916
0.613200,-1.740622
0.613300,-1.804889
0.613400,-1.944785
0.613500,-2.068451
0.613600,-2.107401
0.613700,-2.072021
0.613800,-2.031773
0.613900,-2.048002
0.614000,-2.130122
0.614100,-2.213864
0.614200,-2.267096
0.614300,-2.277482
0.614400,-2.286246
0.614500,-2.298905
0.614600,-2.312213
0.614700,-2.334934
0.614800,-2.369015
0.614900,-2.382972
0.615000,-2.377129
0.615100,-2.406017
0.615200,-2.448213
0.615300,-2.456652
0.615400,-2.447239
0.615500,-2.461521
0.615600,-2.506314
0.615700,-2.540395
0.615800,-2.536500
0.615900,-2.454380
0.616000,-2.387841
0.616100,-2.406666
0.616200,-2.502419
0.616300,-2.597197
0.616400,-2.613102
0.616500,-2.570257
0.616600,-2.493979
0.616700,-2.466714
0.616800,-2.525139
0.616900,-2.620892
0.617000,-2.697818
0.617100,-2.690677
0.617200,-2.628357
0.617300,-2.596548
0.617400,-2.590056
0.617500,-2.610505
0.617600,-2.615049
0.617700,-2.606935
0.617800,-2.592328
0.617900,-2.564089
0.618000,-2.530333
0.618100,-2.475803
0.618200,-2.406017
0.618300,-2.337855
0.618400,-2.277482
0.618500,-2.234962
0.618600,-2.191143
0.618700,-2.120059
0.618800,-2.021711
0.618900,-1.914923
0.619000,-1.802942
0.619100,-1.729586
0.619200,-1.664021
0.619300,-1.592937
0.619400,-1.507247
0.619500,-1.416364
0.619600,-1.329051
0.619700,-1.254722
0.619800,-1.201815
0.619900,-1.170980
0.620000,-1.139495
0.620100,-1.122942
0.620200,-1.103467
0.620300,-1.077825
0.620400,-1.055429
0.620500,-1.031410
0.620600,-1.024918
0.620700,-1.015830
0.620800,-1.028813
0.620900,-1.010636
0.621000,-0.976231
0.621100,-0.852240
0.621200,-0.715591
0.621300,-0.691248
0.621400,-0.783753
0.621500,-0.910016
0.621600,-0.896059
0.621700,-0.805500
0.621800,-0.683782
0.621900,-0.639315
0.622000,-0.677940
0.622100,-0.752269
0.622200,-0.778560
0.622300,-0.733768
0.622400,-0.652298
0.622500,-0.601988
0.622600,-0.590627
0.622700,-0.620813
0.622800,-0.637367
0.622900,-0.635095
0.623000,-0.621787
0.623100,-0.616269
0.623200,-0.610102
0.623300,-0.622761
0.623400,-0.629577
0.623500,-0.647754
0.623600,-0.669176
0.623700,-0.712021
0.623800,-0.764928
0.623900,-0.777586
0.624000,-0.770446
0.624100,-0.762980
0.624200,-0.806474
0.624300,-0.921052
0.624400,-0.986942
0.624500,-0.984670
0.624600,-0.910990
0.624700,-0.882751
0.624800,-0.918780
0.624900,-1.034655
0.625000,-1.126837
0.625100,-1.151180
0.625200,-1.091133
0.625300,-0.998951
0.625400,-0.953834
0.625500,-1.099572
0.625600,-1.170331
0.625700,-1.212202
0.625800,-1.216421
0.625900,-1.200841
0.626000,-1.210579
0.626100,-1.237844
0.626200,-1.282312
0.626300,-1.315094
0.626400,-1.339438
0.626500,-1.360211
0.626600,-1.372870
0.626700,-1.381309
0.626800,-1.372221
0.626900,-1.370598
0.627000,-1.392020
0.627100,-1.450445
0.627200,-1.494264
0.627300,-1.508870
0.627400,-1.504975
0.627500,-1.488421
0.627600,-1.496211
0.627700,-1.499782
0.627800,-1.501405
0.627900,-1.495238
0.628000,-1.486474
0.628100,-1.480631
0.628200,-1.474464
0.628300,-1.471219
0.628400,-1.464078
0.628500,-1.466999
0.628600,-1.467648
0.628700,-1.468622
0.628800,-1.477061
0.628900,-1.482254
0.629000,-1.491667
0.629100,-1.498159
0.629200,-1.521853
0.629300,-1.557557
0.629400,-1.651686
0.629500,-1.814302
0.629600,-1.885386
0.629700,-1.854875
0.629800,-1.755877
0.629900,-1.727963
0.630000,-1.813004
0.630100,-1.966532
0.630200,-2.082732
0.630300,-2.098637
0.630400,-2.046379
0.630500,-2.007429
0.630600,-2.038589
0.630700,-2.120384
0.630800,-2.214838
0.630900,-2.273263
0.631000,-2.283000
0.631100,-2.262227
0.631200,-2.255735
0.631300,-2.276509
0.631400,-2.308642
0.631500,-2.330389
