0.000100,-1.771133
0.000200,-1.758150
0.000300,-1.696479
0.000400,-1.677004
0.000500,-1.731534
0.000600,-1.832804
0.000700,-1.914598
0.000800,-1.943162
0.000900,-1.945758
0.001000,-1.939267
0.001100,-1.959715
0.001200,-1.996069
0.001300,-2.020737
0.001400,-2.035668
0.001500,-2.047353
0.001600,-2.073969
0.001700,-2.106102
0.001800,-2.133692
0.001900,-2.142131
0.002000,-2.139534
0.002100,-2.154790
0.002200,-2.182704
0.002300,-2.213864
0.002400,-2.180432
0.002500,-2.104479
0.002600,-2.076565
0.002700,-2.132394
0.002800,-2.239506
0.002900,-2.336556
0.003000,-2.321626
0.003100,-2.228146
0.003200,-2.160957
0.003300,-2.192117
0.003400,-2.290141
0.003500,-2.388490
0.003600,-2.424194
0.003700,-2.378103
0.003800,-2.316108
0.003900,-2.289816
0.004000,-2.303449
0.004100,-2.339153
0.004200,-2.344346
0.004300,-2.325521
0.004400,-2.293062
0.004500,-2.259306
0.004600,-2.221005
0.004700,-2.149921
0.004800,-2.068451
0.004900,-2.003859
0.005000,-1.957768
0.005100,-1.923362
0.005200,-1.875973
0.005300,-1.781844
0.005400,-1.688364
0.005500,-1.581252
0.005600,-1.495238
0.005700,-1.432593
0.005800,-1.368001
0.005900,-1.293672
0.006000,-1.209281
0.006100,-1.115801
0.006200,-1.032059
0.006300,-0.965195
0.006400,-0.923973
0.006500,-0.888918
0.006600,-0.865548
0.006700,-0.841854
0.006800,-0.812966
0.006900,-0.785052
0.007000,-0.754541
0.007100,-0.742532
0.007200,-0.722407
0.007300,-0.735066
0.007400,-0.716240
0.007500,-0.706178
0.007600,-0.592575
0.007700,-0.457873
0.007800,-0.357902
0.007900,-0.421520
0.008000,-0.556222
0.008100,-0.609128
0.008200,-0.548107
0.008300,-0.398799
0.008400,-0.318952
0.008500,-0.313434
0.008600,-0.392308
0.008700,-0.455277
0.008800,-0.443592
0.008900,-0.375105
0.009000,-0.301425
0.009100,-0.269291
0.009200,-0.266695
0.009300,-0.288117
0.009400,-0.303697
0.009500,-0.289415
0.009600,-0.275783
0.009700,-0.265396
0.009800,-0.269616
0.009900,-0.258255
0.010000,-0.279353
0.010100,-0.311162
0.010200,-0.354332
0.010300,-0.391659
0.010400,-0.423792
0.010500,-0.426064
0.010600,-0.429959
0.010700,-0.436126
0.010800,-0.526685
0.010900,-0.627630
0.011000,-0.664307
0.011100,-0.632498
0.011200,-0.547458
0.011300,-0.542265
0.011400,-0.629577
0.011500,-0.756813
0.011600,-0.812317
0.011700,-0.786999
0.011800,-0.719162
0.011900,-0.704555
0.012000,-0.753243
0.012100,-0.828546
0.012200,-0.879181
0.012300,-0.901252
0.012400,-0.885997
0.012500,-0.897033
0.012600,-0.933061
0.012700,-0.981749
0.012800,-1.025243
0.012900,-1.046665
0.013000,-1.074254
0.013100,-1.101844
0.013200,-1.111906
0.013300,-1.107362
0.013400,-1.094379
0.013500,-1.098273
0.013600,-1.144040
0.013700,-1.204412
0.013800,-1.232651
0.013900,-1.212202
0.014000,-1.179744
0.014100,-1.185262
0.014200,-1.196946
0.014300,-1.197920
0.014400,-1.199868
0.014500,-1.192402
0.014600,-1.184937
0.014700,-1.179744
0.014800,-1.182340
0.014900,-1.182016
0.015000,-1.181691
0.015100,-1.193051
0.015200,-1.198245
0.015300,-1.204087
0.015400,-1.209281
0.015500,-1.221290
0.015600,-1.242388
0.015700,-1.263810
0.015800,-1.286207
0.015900,-1.356966
0.016000,-1.496536
0.016100,-1.629290
0.016200,-1.642274
0.016300,-1.565023
0.016400,-1.485825
0.016500,-1.521204
0.016600,-1.663371
0.016700,-1.816899
0.016800,-1.879868
0.016900,-1.840918
0.017000,-1.785415
0.017100,-1.776651
0.017200,-1.849357
0.017300,-1.944460
0.017400,-2.019114
0.017500,-2.042809
0.017600,-2.037940
0.017700,-2.035343
0.017800,-2.047028
0.017900,-2.072995
0.018000,-2.089549
0.018100,-2.102857
0.018200,-2.120384
0.018300,-2.141482
0.018400,-2.178160
0.018500,-2.187897
0.018600,-2.184976
0.018700,-2.189520
0.018800,-2.198284
0.018900,-2.231716
0.019000,-2.246322
0.019100,-2.187248
0.019200,-2.108374
0.019300,-2.104479
0.019400,-2.175563
0.019500,-2.284623
0.019600,-2.348891
0.019700,-2.301501
0.019800,-2.202179
0.019900,-2.145377
0.020000,-2.176537
0.020100,-2.281702
0.020200,-2.365769
0.020300,-2.382647
0.020400,-2.326494
0.020500,-2.272938
0.020600,-2.258332
0.020700,-2.277807
0.020800,-2.287220
0.020900,-2.275535
0.021000,-2.264174
0.021100,-2.243401
0.021200,-2.217759
0.021300,-2.165501
0.021400,-2.088575
0.021500,-2.005482
0.021600,-1.941539
0.021700,-1.902264
0.021800,-1.872403
0.021900,-1.813004
0.022000,-1.710111
0.022100,-1.621825
0.022200,-1.506598
0.022300,-1.437787
0.022400,-1.370273
0.022500,-1.302111
0.022600,-1.233624
0.022700,-1.150531
0.022800,-1.058999
0.022900,-0.982398
0.023000,-0.923973
0.023100,-0.892164
0.023200,-0.861004
0.023300,-0.831792
0.023400,-0.826598
0.023500,-0.790570
0.023600,-0.765901
0.023700,-0.736365
0.023800,-0.720460
0.023900,-0.719162
0.024000,-0.718188
0.024100,-0.727276
0.024200,-0.691897
0.024300,-0.576346
0.024400,-0.431582
0.024500,-0.374131
0.024600,-0.477997
0.024700,-0.609778
0.024800,-0.633472
0.024900,-0.527009
0.025000,-0.390036
0.025100,-0.333234
0.025200,-0.360499
0.025300,-0.455277
0.025400,-0.483191
0.025500,-0.453654
0.025600,-0.370885
0.025700,-0.304346
0.025800,-0.288117
0.025900,-0.294609
0.026000,-0.313759
0.026100,-0.307916
0.026200,-0.303697
0.026300,-0.291687
0.026400,-0.298504
0.026500,-0.298828
0.026600,-0.299477
0.026700,-0.314408
0.026800,-0.346542
0.026900,-0.380623
0.027000,-0.427687
0.027100,-0.453654
0.027200,-0.452355
0.027300,-0.451057
0.027400,-0.466637
0.027500,-0.586732
0.027600,-0.670150
0.027700,-0.696116
0.027800,-0.633472
0.027900,-0.567906
0.028000,-0.586083
0.028100,-0.688002
0.028200,-0.798684
0.028300,-0.842178
0.028400,-0.798684
0.028500,-0.719486
0.028600,-0.705529
0.028700,-0.766226
0.028800,-0.844126
0.028900,-0.886321
0.029000,-0.898655
0.029100,-0.888918
0.029200,-0.905147
0.029300,-0.946369
0.029400,-0.989214
0.029500,-1.031734
0.029600,-1.055104
0.029700,-1.076851
0.029800,-1.099247
0.029900,-1.100546
0.030000,-1.084966
0.030100,-1.065815
0.030200,-1.068412
0.030300,-1.116450
0.030400,-1.165462
0.030500,-1.176498
0.030600,-1.139171
0.030700,-1.117099
0.030800,-1.127810
0.030900,-1.136250
0.031000,-1.130407
0.031100,-1.128135
0.031200,-1.120670
0.031300,-1.115476
0.031400,-1.120994
0.031500,-1.118398
0.031600,-1.118398
0.031700,-1.118722
0.031800,-1.132355
0.031900,-1.137223
0.032000,-1.143066
0.032100,-1.148259
0.032200,-1.151180
0.032300,-1.169682
0.032400,-1.194350
0.032500,-1.221290
0.032600,-1.313147
0.032700,-1.478035
0.032800,-1.591963
0.032900,-1.580278
0.033000,-1.474140
0.033100,-1.421233
0.033200,-1.489395
0.033300,-1.654283
0.033400,-1.795801
0.033500,-1.828909
0.033600,-1.772756
0.033700,-1.713682
0.033800,-1.734130
0.033900,-1.826312
0.034000,-1.928880
0.034100,-1.988279
0.034200,-1.996069
0.034300,-1.990875
0.034400,-1.998341
0.034500,-2.013921
0.034600,-2.045405
0.034700,-2.071047
0.034800,-2.085005
0.034900,-2.108050
0.035000,-2.136938
0.035100,-2.165177
0.035200,-2.175239
0.035300,-2.174265
0.035400,-2.183353
0.035500,-2.202504
0.035600,-2.234313
0.035700,-2.228470
0.035800,-2.156737
0.035900,-2.095391
0.036000,-2.105778
0.036100,-2.190494
0.036200,-2.291439
0.036300,-2.321950
0.036400,-2.261578
0.036500,-2.173616
0.036600,-2.135964
0.036700,-2.188222
0.036800,-2.299554
0.036900,-2.375506
0.037000,-2.375506
0.037100,-2.329416
0.037200,-2.292413
0.037300,-2.281053
0.037400,-2.289492
0.037500,-2.300528
0.037600,-2.299229
0.037700,-2.286246
0.037800,-2.259306
0.037900,-2.216461
0.038000,-2.155439
0.038100,-2.074618
0.038200,-2.002236
0.038300,-1.954522
0.038400,-1.915897
0.038500,-1.883114
0.038600,-1.796126
0.038700,-1.699076
0.038800,-1.608842
0.038900,-1.499133
0.039000,-1.432269
0.039100,-1.363133
0.039200,-1.298216
0.039300,-1.221290
0.039400,-1.133328
0.039500,-1.044068
0.039600,-0.968116
0.039700,-0.913911
0.039800,-0.872689
0.039900,-0.842503
0.040000,-0.820431
0.040100,-0.804527
0.040200,-0.780832
0.040300,-0.737663
0.040400,-0.713319
0.040500,-0.696766
0.040600,-0.702283
0.040700,-0.696766
0.040800,-0.701634
0.040900,-0.633472
0.041000,-0.510780
0.041100,-0.370561
0.041200,-0.368289
0.041300,-0.496174
0.041400,-0.609128
0.041500,-0.595171
0.041600,-0.471181
0.041700,-0.356604
0.041800,-0.315382
0.041900,-0.372833
0.042000,-0.454952
0.042100,-0.488059
0.042200,-0.453329
0.042300,-0.379974
0.042400,-0.327716
0.042500,-0.312785
0.042600,-0.318952
0.042700,-0.334532
0.042800,-0.339401
0.042900,-0.346542
0.043000,-0.341024
0.043100,-0.337129
0.043200,-0.329988
0.043300,-0.331286
0.043400,-0.354332
0.043500,-0.406589
0.043600,-0.442618
0.043700,-0.483191
0.043800,-0.494226
0.043900,-0.486761
0.044000,-0.494226
0.044100,-0.538045
0.044200,-0.660088
0.044300,-0.712345
0.044400,-0.715267
0.044500,-0.650999
0.044600,-0.605558
0.044700,-0.643534
0.044800,-0.758436
0.044900,-0.842178
0.045000,-0.854837
0.045100,-0.800632
0.045200,-0.746102
0.045300,-0.753892
0.045400,-0.816536
0.045500,-0.868794
0.045600,-0.884049
0.045700,-0.902875
0.045800,-0.910340
0.045900,-0.941176
0.046000,-0.969414
0.046100,-0.998627
0.046200,-1.025567
0.046300,-1.055753
0.046400,-1.089185
0.046500,-1.092756
0.046600,-1.090159
0.046700,-1.074254
0.046800,-1.064192
0.046900,-1.079448
0.047000,-1.140794
0.047100,-1.182340
0.047200,-1.197596
0.047300,-1.166436
0.047400,-1.154102
0.047500,-1.165462
0.047600,-1.164488
0.047700,-1.162541
0.047800,-1.159295
0.047900,-1.152479
0.048000,-1.141768
0.048100,-1.144040
0.048200,-1.143390
0.048300,-1.142417
0.048400,-1.133653
0.048500,-1.143390
0.048600,-1.145662
0.048700,-1.147285
0.048800,-1.160269
0.048900,-1.170006
0.049000,-1.187534
0.049100,-1.209281
0.049200,-1.244660
0.049300,-1.362808
0.049400,-1.519257
0.049500,-1.596183
0.049600,-1.541978
0.049700,-1.450121
0.049800,-1.429997
0.049900,-1.533214
0.050000,-1.693558
0.050100,-1.796450
0.050200,-1.801319
0.050300,-1.737701
0.050400,-1.715629
0.050500,-1.755228
0.050600,-1.848059
0.050700,-1.917195
0.050800,-1.964584
0.050900,-1.966532
0.051000,-1.972050
0.051100,-1.992498
0.051200,-2.026580
0.051300,-2.055143
0.051400,-2.076890
0.051500,-2.088575
0.051600,-2.119735
0.051700,-2.151544
0.051800,-2.184002
0.051900,-2.193415
0.052000,-2.191143
0.052100,-2.205749
0.052200,-2.236909
0.052300,-2.262227
0.052400,-2.239506
0.052500,-2.153492
0.052600,-2.105129
0.052700,-2.145377
0.052800,-2.243076
0.052900,-2.340451
0.053000,-2.335258
0.053100,-2.245349
0.053200,-2.162904
0.053300,-2.180107
0.053400,-2.264174
0.053500,-2.363497
0.053600,-2.403745
0.053700,-2.367716
0.053800,-2.317731
0.053900,-2.295659
0.054000,-2.295010
0.054100,-2.313511
0.054200,-2.313186
0.054300,-2.292738
0.054400,-2.271315
0.054500,-2.244699
0.054600,-2.206399
0.054700,-2.135964
0.054800,-2.051572
0.054900,-1.974646
0.055000,-1.926933
0.055100,-1.893825
0.055200,-1.856823
0.055300,-1.772756
0.055400,-1.676355
0.055500,-1.581577
0.055600,-1.484202
0.055700,-1.422207
0.055800,-1.355343
0.055900,-1.284259
0.056000,-1.198569
0.056100,-1.115801
0.056200,-1.028164
0.056300,-0.965844
0.056400,-0.916832
0.056500,-0.881128
0.056600,-0.844450
0.056700,-0.822703
0.056800,-0.806150
0.056900,-0.779534
0.057000,-0.759734
0.057100,-0.722732
0.057200,-0.725653
0.057300,-0.711696
0.057400,-0.738637
0.057500,-0.706828
0.057600,-0.658140
0.057700,-0.487086
0.057800,-0.392308
0.057900,-0.416976
0.058000,-0.569854
0.058100,-0.648727
0.058200,-0.584785
0.058300,-0.468584
0.058400,-0.383544
0.058500,-0.384842
0.058600,-0.458847
0.058700,-0.518895
0.058800,-0.517596
0.058900,-0.453005
0.059000,-0.374780
0.059100,-0.340375
0.059200,-0.345243
0.059300,-0.365367
0.059400,-0.379324
0.059500,-0.365692
0.059600,-0.347840
0.059700,-0.350761
0.059800,-0.355955
0.059900,-0.359850
0.060000,-0.361797
0.060100,-0.392308
0.060200,-0.415028
0.060300,-0.451382
0.060400,-0.488709
0.060500,-0.499095
0.060600,-0.496823
0.060700,-0.487086
0.060800,-0.562389
0.060900,-0.685730
0.061000,-0.725329
0.061100,-0.703906
0.061200,-0.616269
0.061300,-0.596145
0.061400,-0.675668
0.061500,-0.797710
0.061600,-0.868469
0.061700,-0.850617
0.061800,-0.779209
0.061900,-0.746751
0.062000,-0.795763
0.062100,-0.885023
0.062200,-0.940527
0.062300,-0.952536
0.062400,-0.933710
0.062500,-0.942799
0.062600,-0.990188
0.062700,-1.046016
0.062800,-1.085939
0.062900,-1.094703
0.063000,-1.107362
0.063100,-1.131056
0.063200,-1.143715
0.063300,-1.143390
0.063400,-1.118722
0.063500,-1.106063
0.063600,-1.134302
0.063700,-1.184937
0.063800,-1.210579
0.063900,-1.190779
0.064000,-1.145987
0.064100,-1.135276
0.064200,-1.142092
0.064300,-1.141768
0.064400,-1.142092
0.064500,-1.133978
0.064600,-1.124240
0.064700,-1.116126
0.064800,-1.103142
0.064900,-1.100546
0.065000,-1.101195
0.065100,-1.099572
0.065200,-1.095352
0.065300,-1.095028
0.065400,-1.101519
0.065500,-1.110932
0.065600,-1.124240
0.065700,-1.145013
0.065800,-1.171304
0.065900,-1.224536
0.066000,-1.372221
0.066100,-1.516011
0.066200,-1.567944
0.066300,-1.495562
0.066400,-1.406302
0.066500,-1.416364
0.066600,-1.546522
0.066700,-1.713033
0.066800,-1.804889
0.066900,-1.786064
0.067000,-1.720823
0.067100,-1.702321
0.067200,-1.759772
0.067300,-1.864937
0.067400,-1.933424
0.067500,-1.969128
0.067600,-1.966856
0.067700,-1.970751
0.067800,-1.984384
0.067900,-2.020088
0.068000,-2.055143
0.068100,-2.074942
0.068200,-2.089873
0.068300,-2.112594
0.068400,-2.139210
0.068500,-2.166150
0.068600,-2.178809
0.068700,-2.182379
0.068800,-2.203802
0.068900,-2.232690
0.069000,-2.248594
0.069100,-2.199907
0.069200,-2.122007
0.069300,-2.106427
0.069400,-2.160957
0.069500,-2.264499
0.069600,-2.346943
0.069700,-2.312862
0.069800,-2.224251
0.069900,-2.152842
0.070000,-2.185301
0.070100,-2.283000
0.070200,-2.380700
0.070300,-2.403421
0.070400,-2.353110
0.070500,-2.292413
0.070600,-2.270666
0.070700,-2.279105
0.070800,-2.298905
0.070900,-2.293062
0.071000,-2.280079
0.071100,-2.252489
0.071200,-2.209969
0.071300,-2.153167
0.071400,-2.077215
0.071500,-1.999964
0.071600,-1.939267
0.071700,-1.897396
0.071800,-1.863964
0.071900,-1.815601
0.072000,-1.726340
0.072100,-1.648116
0.072200,-1.555610
0.072300,-1.474789
0.072400,-1.408574
0.072500,-1.343658
0.072600,-1.270951
0.072700,-1.195973
0.072800,-1.100546
0.072900,-1.021997
0.073000,-0.959677
0.073100,-0.931438
0.073200,-0.893787
0.073300,-0.870741
0.073400,-0.851267
0.073500,-0.827247
0.073600,-0.803228
0.073700,-0.774341
0.073800,-0.772069
0.073900,-0.752594
0.074000,-0.773042
0.074100,-0.761682
0.074200,-0.748699
0.074300,-0.634121
0.074400,-0.499420
0.074500,-0.416002
0.074600,-0.497148
0.074700,-0.632498
0.074800,-0.663009
0.074900,-0.575696
0.075000,-0.436451
0.075100,-0.357253
0.075200,-0.381921
0.075300,-0.448785
0.075400,-0.512728
0.075500,-0.479620
0.075600,-0.410809
0.075700,-0.337778
0.075800,-0.311162
0.075900,-0.323496
0.076000,-0.340375
0.076100,-0.354981
0.076200,-0.352384
0.076300,-0.342322
0.076400,-0.334857
0.076500,-0.330313
0.076600,-0.326093
0.076700,-0.344594
0.076800,-0.382895
0.076900,-0.415678
0.077000,-0.459172
0.077100,-0.493577
0.077200,-0.502016
0.077300,-0.512728
0.077400,-0.528308
0.077500,-0.638016
0.077600,-0.728250
0.077700,-0.754541
0.077800,-0.720135
0.077900,-0.637367
0.078000,-0.654570
0.078100,-0.749348
0.078200,-0.870741
0.078300,-0.924947
0.078400,-0.898980
0.078500,-0.822054
0.078600,-0.798035
0.078700,-0.854188
0.078800,-0.934035
0.078900,-0.968441
0.079000,-0.982073
0.079100,-0.971686
0.079200,-0.987591
0.079300,-1.009013
0.079400,-1.047314
0.079500,-1.079123
0.079600,-1.096651
0.079700,-1.117099
0.079800,-1.133978
0.079900,-1.134627
0.080000,-1.118073
0.080100,-1.101844
0.080200,-1.098923
0.080300,-1.142417
0.080400,-1.197271
0.080500,-1.211553
0.080600,-1.198569
0.080700,-1.164164
0.080800,-1.175199
0.080900,-1.174875
0.081000,-1.170006
0.081100,-1.159620
0.081200,-1.153452
0.081300,-1.154751
0.081400,-1.148908
0.081500,-1.146636
0.081600,-1.147935
0.081700,-1.149233
0.081800,-1.156049
0.081900,-1.163839
0.082000,-1.177472
0.082100,-1.188507
0.082200,-1.207333
0.082300,-1.223887
0.082400,-1.256020
0.082500,-1.289128
0.082600,-1.372546
0.082700,-1.527371
0.082800,-1.648116
0.082900,-1.650388
0.083000,-1.561452
0.083100,-1.491343
0.083200,-1.551066
0.083300,-1.702970
0.083400,-1.848384
0.083500,-1.891878
0.083600,-1.847085
0.083700,-1.785415
0.083800,-1.798722
0.083900,-1.882789
0.084000,-1.974971
0.084100,-2.027553
0.084200,-2.041186
0.084300,-2.039563
0.084400,-2.042160
0.084500,-2.067802
0.084600,-2.087277
0.084700,-2.106752
0.084800,-2.118112
0.084900,-2.139534
0.085000,-2.172967
0.085100,-2.208022
0.085200,-2.210618
0.085300,-2.216136
0.085400,-2.222303
0.085500,-2.253463
0.085600,-2.284948
0.085700,-2.291439
0.085800,-2.222628
0.085900,-2.147974
0.086000,-2.149921
0.086100,-2.233664
0.086200,-2.354084
0.086300,-2.404394
0.086400,-2.343373
0.086500,-2.236260
0.086600,-2.177511
0.086700,-2.222303
0.086800,-2.344346
0.086900,-2.438476
0.087000,-2.439449
0.087100,-2.371611
0.087200,-2.311239
0.087300,-2.290790
0.087400,-2.311239
0.087500,-2.336881
0.087600,-2.332337
0.087700,-2.315134
0.087800,-2.282351
0.087900,-2.242427
0.088000,-2.185301
0.088100,-2.112919
0.088200,-2.039563
0.088300,-1.985358
0.088400,-1.949329
0.088500,-1.915897
0.088600,-1.842541
0.088700,-1.741596
0.088800,-1.671486
0.088900,-1.568269
0.089000,-1.490694
0.089100,-1.429997
0.089200,-1.364106
0.089300,-1.285557
0.089400,-1.198245
0.089500,-1.098923
0.089600,-1.022321
0.089700,-0.966493
0.089800,-0.927219
0.089900,-0.896059
0.090000,-0.865224
0.090100,-0.849644
0.090200,-0.813940
0.090300,-0.790245
0.090400,-0.760384
0.090500,-0.746751
0.090600,-0.738312
0.090700,-0.748374
0.090800,-0.735715
0.090900,-0.693844
0.091000,-0.576995
0.091100,-0.424441
0.091200,-0.400098
0.091300,-0.514350
0.091400,-0.631525
0.091500,-0.625033
0.091600,-0.505262
0.091700,-0.377377
0.091800,-0.332585
0.091900,-0.392632
0.092000,-0.475076
0.092100,-0.507210
0.092200,-0.457549
0.092300,-0.374131
0.092400,-0.318303
0.092500,-0.306294
0.092600,-0.329339
0.092700,-0.338103
0.092800,-0.345893
0.092900,-0.339401
0.093000,-0.322847
0.093100,-0.314084
0.093200,-0.321549
0.093300,-0.325768
0.093400,-0.337129
0.093500,-0.379974
0.093600,-0.416327
0.093700,-0.468260
0.093800,-0.498121
0.093900,-0.498771
0.094000,-0.501043
0.094100,-0.537396
0.094200,-0.657167
0.094300,-0.738312
0.094400,-0.756813
0.094500,-0.696116
0.094600,-0.640937
0.094700,-0.678264
0.094800,-0.784403
0.094900,-0.907095
0.095000,-0.939877
0.095100,-0.885348
0.095200,-0.815887
0.095300,-0.818808
0.095400,-0.888269
0.095500,-0.971037
0.095600,-1.009338
0.095700,-1.028488
0.095800,-1.015505
0.095900,-1.038226
0.096000,-1.073930
0.096100,-1.129433
0.096200,-1.162865
0.096300,-1.185262
0.096400,-1.206684
0.096500,-1.221939
0.096600,-1.219343
0.096700,-1.212526
0.096800,-1.204736
0.096900,-1.209605
0.097000,-1.262188
0.097100,-1.309901
0.097200,-1.324832
0.097300,-1.296918
0.097400,-1.274846
0.097500,-1.287830
0.097600,-1.290751
0.097700,-1.282636
0.097800,-1.275171
0.097900,-1.268030
0.098000,-1.257968
0.098100,-1.252125
0.098200,-1.247581
0.098300,-1.246608
0.098400,-1.244335
0.098500,-1.244985
0.098600,-1.244985
0.098700,-1.254722
0.098800,-1.259591
0.098900,-1.271925
0.099000,-1.297242
0.099100,-1.322884
0.099200,-1.358913
0.099300,-1.457262
0.099400,-1.614035
0.099500,-1.712383
0.099600,-1.677978
0.099700,-1.579305
0.099800,-1.530617
0.099900,-1.628641
0.100000,-1.789959
0.100100,-1.926608
0.100200,-1.945434
0.100300,-1.885386
0.100400,-1.828259
0.100500,-1.856823
0.100600,-1.944785
0.100700,-2.034694
0.100800,-2.081110
0.100900,-2.083057
0.101000,-2.069100
0.101100,-2.074942
0.101200,-2.090847
0.101300,-2.105129
0.101400,-2.122981
0.101500,-2.141482
0.101600,-2.150895
0.101700,-2.180107
0.101800,-2.201530
0.101900,-2.201530
0.102000,-2.187248
0.102100,-2.199258
0.102200,-2.224251
0.102300,-2.246971
0.102400,-2.230093
0.102500,-2.134666
0.102600,-2.078188
0.102700,-2.096365
0.102800,-2.185950
0.102900,-2.292089
0.103000,-2.312862
0.103100,-2.231391
0.103200,-2.134990
0.103300,-2.109024
0.103400,-2.178160
0.103500,-2.297606
0.103600,-2.360251
0.103700,-2.347268
0.103800,-2.290466
0.103900,-2.241129
0.104000,-2.227821
0.104100,-2.241778
0.104200,-2.253788
0.104300,-2.252814
0.104400,-2.241778
0.104500,-2.208671
0.104600,-2.160308
0.104700,-2.088575
0.104800,-2.002236
0.104900,-1.930178
0.105000,-1.876298
0.105100,-1.840269
0.105200,-1.799047
0.105300,-1.719849
0.105400,-1.617281
0.105500,-1.528670
0.105600,-1.424803
0.105700,-1.363782
0.105800,-1.297892
0.105900,-1.231352
0.106000,-1.155075
0.106100,-1.063219
0.106200,-0.977854
0.106300,-0.907419
0.106400,-0.863276
0.106500,-0.828870
0.106600,-0.808097
0.106700,-0.791543
0.106800,-0.777911
0.106900,-0.753892
0.107000,-0.722732
0.107100,-0.714942
0.107200,-0.692221
0.107300,-0.714293
0.107400,-0.707152
0.107500,-0.719811
0.107600,-0.644508
0.107700,-0.509157
0.107800,-0.390685
0.107900,-0.397176
0.108000,-0.546160
0.108100,-0.638341
0.108200,-0.624384
0.108300,-0.473129
0.108400,-0.369587
0.108500,-0.335181
0.108600,-0.401721
0.108700,-0.477673
0.108800,-0.497797
0.108900,-0.442618
0.109000,-0.362122
0.109100,-0.312461
0.109200,-0.302399
0.109300,-0.321549
0.109400,-0.335506
0.109500,-0.337453
0.109600,-0.342322
0.109700,-0.341348
0.109800,-0.334857
0.109900,-0.339076
0.110000,-0.335506
0.110100,-0.374456
0.110200,-0.423143
0.110300,-0.470857
0.110400,-0.512078
0.110500,-0.522140
0.110600,-0.520842
0.110700,-0.518895
0.110800,-0.580890
0.110900,-0.711372
0.111000,-0.764603
0.111100,-0.757462
0.111200,-0.675992
0.111300,-0.647104
0.111400,-0.703257
0.111500,-0.826598
0.111600,-0.916508
0.111700,-0.925596
0.111800,-0.853863
0.111900,-0.797710
0.112000,-0.834064
0.112100,-0.918780
0.112200,-0.974283
0.112300,-0.988240
0.112400,-0.988565
0.112500,-0.991486
0.112600,-1.019725
0.112700,-1.049911
0.112800,-1.067763
0.112900,-1.067438
0.113000,-1.075228
0.113100,-1.096326
0.113200,-1.126188
0.113300,-1.129758
0.113400,-1.114503
0.113500,-1.102493
0.113600,-1.121643
0.113700,-1.183639
0.113800,-1.230703
0.113900,-1.239142
0.114000,-1.238818
0.114100,-1.223238
0.114200,-1.229405
0.114300,-1.226483
0.114400,-1.220966
0.114500,-1.213176
0.114600,-1.209930
0.114700,-1.207658
0.114800,-1.201166
0.114900,-1.197920
0.115000,-1.202789
0.115100,-1.196946
0.115200,-1.193701
0.115300,-1.195973
0.115400,-1.200192
0.115500,-1.209605
0.115600,-1.216097
0.115700,-1.229080
0.115800,-1.248880
0.115900,-1.298216
0.116000,-1.426426
0.116100,-1.586445
0.116200,-1.641300
0.116300,-1.567944
0.116400,-1.475114
0.116500,-1.459534
0.116600,-1.598779
0.116700,-1.767562
0.116800,-1.879544
0.116900,-1.875649
0.117000,-1.813978
0.117100,-1.790932
0.117200,-1.841892
0.117300,-1.944460
0.117400,-2.031448
0.117500,-2.067802
0.117600,-2.063257
0.117700,-2.069100
0.117800,-2.086303
0.117900,-2.120059
0.118000,-2.145377
0.118100,-2.161931
0.118200,-2.174265
0.118300,-2.199258
0.118400,-2.238532
0.118500,-2.264174
0.118600,-2.271315
0.118700,-2.267096
0.118800,-2.285272
0.118900,-2.314160
0.119000,-2.338179
0.119100,-2.309941
0.119200,-2.222303
0.119300,-2.179783
0.119400,-2.226198
0.119500,-2.333635
0.119600,-2.429712
0.119700,-2.423869
0.119800,-2.330389
0.119900,-2.231067
0.120000,-2.224900
0.120100,-2.320327
0.120200,-2.435230
0.120300,-2.481321
0.120400,-2.433282
0.120500,-2.358628
0.120600,-2.324871
0.120700,-2.330714
0.120800,-2.352136
0.120900,-2.347917
0.121000,-2.331688
0.121100,-2.294036
0.121200,-2.258656
0.121300,-2.225224
0.121400,-2.173291
0.121500,-2.097014
0.121600,-2.022360
0.121700,-1.970751
0.121800,-1.927257
0.121900,-1.887983
0.122000,-1.798722
0.122100,-1.712708
0.122200,-1.593586
0.122300,-1.499133
0.122400,-1.432269
0.122500,-1.363133
0.122600,-1.290426
0.122700,-1.215123
0.122800,-1.125214
0.122900,-1.038226
0.123000,-0.979476
0.123100,-0.941176
0.123200,-0.914885
0.123300,-0.878207
0.123400,-0.867496
0.123500,-0.840231
0.123600,-0.822379
0.123700,-0.794140
0.123800,-0.773691
0.123900,-0.769472
0.124000,-0.767200
0.124100,-0.784403
0.124200,-0.750646
0.124300,-0.691897
0.124400,-0.510780
0.124500,-0.453329
0.124600,-0.482541
0.124700,-0.639639
0.124800,-0.690598
0.124900,-0.640937
0.125000,-0.497797
0.125100,-0.402370
0.125200,-0.405940
0.125300,-0.475401
0.125400,-0.548107
0.125500,-0.540966
0.125600,-0.475725
0.125700,-0.402694
0.125800,-0.364394
0.125900,-0.379974
0.126000,-0.391334
0.126100,-0.401721
0.126200,-0.396203
0.126300,-0.386141
0.126400,-0.378026
0.126500,-0.375754
0.126600,-0.385816
0.126700,-0.390685
0.126800,-0.435153
0.126900,-0.464040
0.127000,-0.514675
0.127100,-0.540966
0.127200,-0.563038
0.127300,-0.557195
0.127400,-0.563038
0.127500,-0.655219
0.127600,-0.763629
0.127700,-0.798684
0.127800,-0.775639
0.127900,-0.682159
0.128000,-0.679887
0.128100,-0.749348
0.128200,-0.885997
0.128300,-0.957080
0.128400,-0.944097
0.128500,-0.869768
0.128600,-0.827572
0.128700,-0.873338
0.128800,-0.953834
0.128900,-1.005768
0.129000,-1.018751
0.129100,-1.015505
0.129200,-1.021672
0.129300,-1.048937
0.129400,-1.095677
0.129500,-1.137548
0.129600,-1.157347
0.129700,-1.174875
0.129800,-1.195973
0.129900,-1.202464
0.130000,-1.192402
0.130100,-1.180717
0.130200,-1.169357
0.130300,-1.206359
0.130400,-1.262837
0.130500,-1.281013
0.130600,-1.254073
0.130700,-1.211877
0.130800,-1.215772
0.130900,-1.222264
0.131000,-1.221939
0.131100,-1.215772
0.131200,-1.206684
0.131300,-1.195648
0.131400,-1.194350
0.131500,-1.186884
0.131600,-1.188832
0.131700,-1.186560
0.131800,-1.187858
0.131900,-1.194674
0.132000,-1.197271
0.132100,-1.196622
0.132200,-1.214799
0.132300,-1.228756
0.132400,-1.254722
0.132500,-1.273548
0.132600,-1.341386
0.132700,-1.487448
0.132800,-1.628641
0.132900,-1.656231
0.133000,-1.576383
0.133100,-1.503028
0.133200,-1.530617
0.133300,-1.676030
0.133400,-1.828909
0.133500,-1.905510
0.133600,-1.873701
0.133700,-1.824364
0.133800,-1.825014
0.133900,-1.891553
0.134000,-1.989253
0.134100,-2.058064
0.134200,-2.086627
0.134300,-2.096365
0.134400,-2.113568
0.134500,-2.137587
0.134600,-2.167773
0.134700,-2.189196
0.134800,-2.203153
0.134900,-2.215162
0.135000,-2.241454
0.135100,-2.274886
0.135200,-2.277807
0.135300,-2.276833
0.135400,-2.279754
0.135500,-2.297931
0.135600,-2.329091
0.135700,-2.332986
0.135800,-2.285272
0.135900,-2.201205
0.136000,-2.191792
0.136100,-2.248594
0.136200,-2.357654
0.136300,-2.415106
0.136400,-2.370638
0.136500,-2.279105
0.136600,-2.227172
0.136700,-2.258007
0.136800,-2.358628
0.136900,-2.445292
0.137000,-2.454380
0.137100,-2.403745
0.137200,-2.358304
0.137300,-2.329091
0.137400,-2.333311
0.137500,-2.348566
0.137600,-2.348241
0.137700,-2.329416
0.137800,-2.305721
0.137900,-2.268394
0.138000,-2.210943
0.138100,-2.137912
0.138200,-2.063907
0.138300,-2.000288
0.138400,-1.961988
0.138500,-1.920441
0.138600,-1.857796
0.138700,-1.749061
0.138800,-1.668240
0.138900,-1.548469
0.139000,-1.474464
0.139100,-1.406302
0.139200,-1.336517
0.139300,-1.264460
0.139400,-1.179744
0.139500,-1.086264
0.139600,-1.005118
0.139700,-0.944422
0.139800,-0.904173
0.139900,-0.873014
0.140000,-0.848345
0.140100,-0.835362
0.140200,-0.806150
0.140300,-0.769472
0.140400,-0.746751
0.140500,-0.718512
0.140600,-0.713644
0.140700,-0.705205
0.140800,-0.712995
0.140900,-0.671124
0.141000,-0.552002
0.141100,-0.401071
0.141200,-0.350761
0.141300,-0.437425
0.141400,-0.564012
0.141500,-0.580565
0.141600,-0.476374
0.141700,-0.354332
0.141800,-0.295582
0.141900,-0.335181
0.142000,-0.416002
0.142100,-0.452355
0.142200,-0.426064
0.142300,-0.359200
0.142400,-0.300127
0.142500,-0.294284
0.142600,-0.298828
0.142700,-0.317979
0.142800,-0.309539
0.142900,-0.309864
0.143000,-0.304995
0.143100,-0.303697
0.143200,-0.309864
0.143300,-0.305320
0.143400,-0.324795
0.143500,-0.360823
0.143600,-0.417301
0.143700,-0.464365
0.143800,-0.494226
0.143900,-0.497472
0.144000,-0.496823
0.144100,-0.530580
0.144200,-0.640613
0.144300,-0.736689
0.144400,-0.749997
0.144500,-0.697739
0.144600,-0.640613
0.144700,-0.657816
0.144800,-0.760708
0.144900,-0.865224
0.145000,-0.895410
0.145100,-0.848345
0.145200,-0.788947
0.145300,-0.787648
0.145400,-0.855486
0.145500,-0.926894
0.145600,-0.944097
0.145700,-0.947343
0.145800,-0.938255
0.145900,-0.956431
0.146000,-0.993433
0.146100,-1.032383
0.146200,-1.054455
0.146300,-1.068412
0.146400,-1.089510
0.146500,-1.114503
0.146600,-1.117748
0.146700,-1.104765
0.146800,-1.094379
0.146900,-1.093405
0.147000,-1.144364
0.147100,-1.191104
0.147200,-1.198569
0.147300,-1.179419
0.147400,-1.160918
0.147500,-1.172927
0.147600,-1.170655
0.147700,-1.173252
0.147800,-1.165137
0.147900,-1.161567
0.148000,-1.158970
0.148100,-1.154426
0.148200,-1.154102
0.148300,-1.149233
0.148400,-1.148908
0.148500,-1.151505
0.148600,-1.152154
0.148700,-1.157672
0.148800,-1.170331
0.148900,-1.176822
0.149000,-1.189806
0.149100,-1.208307
0.149200,-1.235247
0.149300,-1.321586
0.149400,-1.482904
0.149500,-1.590016
0.149600,-1.579629
0.149700,-1.488746
0.149800,-1.435190
0.149900,-1.503677
0.150000,-1.658827
0.150100,-1.793204
0.150200,-1.824364
0.150300,-1.774054
0.150400,-1.726665
0.150500,-1.754579
0.150600,-1.847410
0.150700,-1.940565
0.150800,-1.994121
0.150900,-1.992498
0.151000,-1.991525
0.151100,-2.011973
0.151200,-2.042809
0.151300,-2.070723
0.151400,-2.088575
0.151500,-2.097988
0.151600,-2.101883
0.151700,-2.136938
0.151800,-2.155114
0.151900,-2.171668
0.152000,-2.165177
0.152100,-2.178160
0.152200,-2.198609
0.152300,-2.228795
0.152400,-2.219706
0.152500,-2.152193
0.152600,-2.084031
0.152700,-2.094417
0.152800,-2.178160
0.152900,-2.284299
0.153000,-2.309291
0.153100,-2.237883
0.153200,-2.138885
0.153300,-2.095067
0.153400,-2.153167
0.153500,-2.270341
0.153600,-2.343373
0.153700,-2.319678
0.153800,-2.247945
0.153900,-2.196986
0.154000,-2.193740
0.154100,-2.212890
0.154200,-2.230093
0.154300,-2.218084
0.154400,-2.191143
0.154500,-2.157062
0.154600,-2.123954
0.154700,-2.075592
0.154800,-2.009052
0.154900,-1.933100
0.155000,-1.882465
0.155100,-1.845462
0.155200,-1.809434
0.155300,-1.732508
0.155400,-1.645195
0.155500,-1.552364
0.155600,-1.438760
0.155700,-1.366703
0.155800,-1.304708
0.155900,-1.235247
0.156000,-1.154426
0.156100,-1.070684
0.156200,-0.986293
0.156300,-0.918455
0.156400,-0.870741
0.156500,-0.839906
0.156600,-0.812966
0.156700,-0.801281
0.156800,-0.783104
0.156900,-0.757462
0.157000,-0.728250
0.157100,-0.710398
0.157200,-0.695792
0.157300,-0.698064
0.157400,-0.703257
0.157500,-0.704880
0.157600,-0.650675
0.157700,-0.520193
0.157800,-0.402370
0.157900,-0.384842
0.158000,-0.521816
0.158100,-0.634121
0.158200,-0.621138
0.158300,-0.498446
0.158400,-0.387439
0.158500,-0.359525
0.158600,-0.421520
0.158700,-0.507210
0.158800,-0.531878
0.158900,-0.475725
0.159000,-0.400747
0.159100,-0.354981
0.159200,-0.345568
0.159300,-0.359200
0.159400,-0.378351
0.159500,-0.380298
0.159600,-0.370561
0.159700,-0.365692
0.159800,-0.364718
0.159900,-0.368938
0.160000,-0.365692
0.160100,-0.396527
0.160200,-0.422494
0.160300,-0.471181
0.160400,-0.505911
0.160500,-0.530904
0.160600,-0.522790
0.160700,-0.533501
0.160800,-0.576021
0.160900,-0.700011
0.161000,-0.765901
0.161100,-0.764603
0.161200,-0.698388
0.161300,-0.657816
0.161400,-0.709424
0.161500,-0.829520
0.161600,-0.933061
0.161700,-0.951887
0.161800,-0.892488
0.161900,-0.829195
0.162000,-0.840231
0.162100,-0.920078
0.162200,-0.987591
0.162300,-1.020698
0.162400,-1.025892
0.162500,-1.017777
0.162600,-1.043744
0.162700,-1.077176
0.162800,-1.104116
0.162900,-1.111581
0.163000,-1.125214
0.163100,-1.149557
0.163200,-1.164488
0.163300,-1.167409
0.163400,-1.160918
0.163500,-1.154751
0.163600,-1.170006
0.163700,-1.221290
0.163800,-1.259591
0.163900,-1.273223
0.164000,-1.274522
0.164100,-1.255371
0.164200,-1.252450
0.164300,-1.246932
0.164400,-1.239142
0.164500,-1.229729
0.164600,-1.222264
0.164700,-1.216746
0.164800,-1.207982
0.164900,-1.206035
0.165000,-1.204412
0.165100,-1.208956
0.165200,-1.207982
0.165300,-1.217071
0.165400,-1.222264
0.165500,-1.236870
0.165600,-1.249529
0.165700,-1.277767
0.165800,-1.305357
0.165900,-1.344307
0.166000,-1.461806
0.166100,-1.623772
0.166200,-1.702646
0.166300,-1.651362
0.166400,-1.556259
0.166500,-1.527696
0.166600,-1.630913
0.166700,-1.805214
0.166800,-1.910054
0.166900,-1.920441
0.167000,-1.853577
0.167100,-1.814302
0.167200,-1.861691
0.167300,-1.954847
0.167400,-2.047353
0.167500,-2.082408
0.167600,-2.086952
0.167700,-2.086952
0.167800,-2.106752
0.167900,-2.136613
0.168000,-2.163878
0.168100,-2.184652
0.168200,-2.191468
0.168300,-2.205749
0.168400,-2.236909
0.168500,-2.264499
0.168600,-2.267745
0.168700,-2.263201
0.168800,-2.278781
0.168900,-2.302800
0.169000,-2.326819
0.169100,-2.307669
0.169200,-2.230742
0.169300,-2.188222
0.169400,-2.222303
0.169500,-2.310914
0.169600,-2.401473
0.169700,-2.394008
0.169800,-2.316432
0.169900,-2.233339
0.170000,-2.230093
0.170100,-2.306046
0.170200,-2.413807
0.170300,-2.460223
0.170400,-2.426791
0.170500,-2.368366
0.170600,-2.325845
0.170700,-2.321301
0.170800,-2.340127
0.170900,-2.349540
0.171000,-2.338504
0.171100,-2.316108
0.171200,-2.274886
0.171300,-2.230418
0.171400,-2.164852
0.171500,-2.083057
0.171600,-2.016517
0.171700,-1.972374
0.171800,-1.933100
0.171900,-1.885711
0.172000,-1.799047
0.172100,-1.704593
0.172200,-1.595209
0.172300,-1.501729
0.172400,-1.433892
0.172500,-1.374493
0.172600,-1.308278
0.172700,-1.236870
0.172800,-1.146636
0.172900,-1.065491
0.173000,-1.001873
0.173100,-0.956107
0.173200,-0.923973
0.173300,-0.901577
0.173400,-0.889567
0.173500,-0.869119
0.173600,-0.837634
0.173700,-0.823352
0.173800,-0.793166
0.173900,-0.792842
0.174000,-0.781157
0.174100,-0.807123
0.174200,-0.789271
0.174300,-0.725004
0.174400,-0.569529
0.174500,-0.467611
0.174600,-0.496823
0.174700,-0.633147
0.174800,-0.708450
0.174900,-0.657167
0.175000,-0.518895
0.175100,-0.421520
0.175200,-0.394255
0.175300,-0.474427
0.175400,-0.522465
0.175500,-0.525062
0.175600,-0.453978
0.175700,-0.377377
0.175800,-0.341348
0.175900,-0.332260
0.176000,-0.346217
0.176100,-0.356279
0.176200,-0.348814
0.176300,-0.332260
0.176400,-0.321549
0.176500,-0.319926
0.176600,-0.314733
0.176700,-0.324470
0.176800,-0.347515
0.176900,-0.391983
0.177000,-0.429310
0.177100,-0.461768
0.177200,-0.465663
0.177300,-0.459821
0.177400,-0.467935
0.177500,-0.529606
0.177600,-0.646455
0.177700,-0.687353
0.177800,-0.663009
0.177900,-0.589004
0.178000,-0.562713
0.178100,-0.628279
0.178200,-0.755839
0.178300,-0.814913
0.178400,-0.812641
0.178500,-0.738637
0.178600,-0.700011
0.178700,-0.737663
0.178800,-0.815563
0.178900,-0.869119
0.179000,-0.889567
0.179100,-0.889567
0.179200,-0.908718
0.179300,-0.952212
0.179400,-0.997978
0.179500,-1.051209
0.179600,-1.070359
0.179700,-1.091457
0.179800,-1.124565
0.179900,-1.145338
0.180000,-1.145987
0.180100,-1.134627
0.180200,-1.126837
0.180300,-1.155400
0.180400,-1.214149
0.180500,-1.243362
0.180600,-1.235572
0.180700,-1.190130
0.180800,-1.181367
0.180900,-1.190779
0.181000,-1.187534
0.181100,-1.188507
0.181200,-1.182989
0.181300,-1.183639
0.181400,-1.173577
0.181500,-1.167409
0.181600,-1.166760
0.181700,-1.171629
0.181800,-1.170655
0.181900,-1.177147
0.182000,-1.180717
0.182100,-1.189481
0.182200,-1.196622
0.182300,-1.213500
0.182400,-1.241090
0.182500,-1.274522
0.182600,-1.326779
0.182700,-1.465051
0.182800,-1.614035
0.182900,-1.640975
0.183000,-1.576383
0.183100,-1.489395
0.183200,-1.514388
0.183300,-1.645519
0.183400,-1.808460
0.183500,-1.896746
0.183600,-1.876947
0.183700,-1.814952
0.183800,-1.790932
0.183900,-1.846111
0.184000,-1.935047
0.184100,-2.018465
0.184200,-2.047028
0.184300,-2.039563
0.184400,-2.032747
0.184500,-2.050599
0.184600,-2.077864
0.184700,-2.102532
0.184800,-2.119086
0.184900,-2.134017
0.185000,-2.156088
0.185100,-2.178160
0.185200,-2.189845
0.185300,-2.197310
0.185400,-2.199582
0.185500,-2.221005
0.185600,-2.239831
0.185700,-2.259306
0.185800,-2.220680
0.185900,-2.138561
0.186000,-2.117787
0.186100,-2.176537
0.186200,-2.276509
0.186300,-2.356031
0.186400,-2.328442
0.186500,-2.238857
0.186600,-2.165177
0.186700,-2.194389
0.186800,-2.287544
0.186900,-2.370638
0.187000,-2.390437
0.187100,-2.357979
0.187200,-2.304747
0.187300,-2.276833
0.187400,-2.274886
0.187500,-2.292413
0.187600,-2.301177
0.187700,-2.300852
0.187800,-2.274236
0.187900,-2.228795
0.188000,-2.169721
0.188100,-2.089224
0.188200,-2.001587
0.188300,-1.941863
0.188400,-1.902913
0.188500,-1.857147
0.188600,-1.797099
0.188700,-1.694531
0.188800,-1.612087
0.188900,-1.502703
0.189000,-1.417338
0.189100,-1.342684
0.189200,-1.274846
0.189300,-1.195648
0.189400,-1.117424
0.189500,-1.027190
0.189600,-0.944097
0.189700,-0.879181
0.189800,-0.838932
0.189900,-0.805500
0.190000,-0.787648
0.190100,-0.783753
0.190200,-0.760708
0.190300,-0.731171
0.190400,-0.708450
0.190500,-0.698713
0.190600,-0.703906
0.190700,-0.708450
0.190800,-0.731171
0.190900,-0.690923
0.191000,-0.605558
0.191100,-0.434503
0.191200,-0.383219
0.191300,-0.437100
0.191400,-0.579916
0.191500,-0.615295
0.191600,-0.537720
0.191700,-0.417301
0.191800,-0.330962
0.191900,-0.345893
0.192000,-0.415028
0.192100,-0.464040
0.192200,-0.453654
0.192300,-0.391983
0.192400,-0.336155
0.192500,-0.296232
0.192600,-0.299153
0.192700,-0.299802
0.192800,-0.317654
0.192900,-0.325444
0.193000,-0.323172
0.193100,-0.314084
0.193200,-0.303372
0.193300,-0.301100
0.193400,-0.327716
0.193500,-0.372184
0.193600,-0.410809
0.193700,-0.459821
0.193800,-0.503315
0.193900,-0.503315
0.194000,-0.520193
0.194100,-0.545835
0.194200,-0.656842
0.194300,-0.759410
0.194400,-0.790245
0.194500,-0.723381
0.194600,-0.677940
0.194700,-0.686703
0.194800,-0.796412
0.194900,-0.906445
0.195000,-0.955782
0.195100,-0.912937
0.195200,-0.858407
0.195300,-0.859056
0.195400,-0.923648
0.195500,-1.000574
0.195600,-1.019400
0.195700,-1.032383
0.195800,-1.034980
0.195900,-1.065491
0.196000,-1.107362
0.196100,-1.147610
0.196200,-1.173252
0.196300,-1.187534
0.196400,-1.216097
0.196500,-1.244985
0.196600,-1.256670
0.196700,-1.231677
0.196800,-1.202464
0.196900,-1.188183
0.197000,-1.233949
0.197100,-1.287505
0.197200,-1.312173
0.197300,-1.306331
0.197400,-1.273548
0.197500,-1.280364
0.197600,-1.287830
0.197700,-1.289452
0.197800,-1.288479
0.197900,-1.282961
0.198000,-1.275820
0.198100,-1.264135
0.198200,-1.262188
0.198300,-1.246932
0.198400,-1.248555
0.198500,-1.246283
0.198600,-1.249204
0.198700,-1.258942
0.198800,-1.270627
0.198900,-1.280040
0.199000,-1.285233
0.199100,-1.311849
0.199200,-1.333920
0.199300,-1.414092
0.199400,-1.569892
0.199500,-1.682522
0.199600,-1.678302
0.199700,-1.588393
0.199800,-1.536784
0.199900,-1.588717
0.200000,-1.731858
0.200100,-1.868832
0.200200,-1.915897
0.200300,-1.880842
0.200400,-1.831505
0.200500,-1.838971
0.200600,-1.908431
0.200700,-2.005806
0.200800,-2.064880
0.200900,-2.081759
0.201000,-2.075592
0.201100,-2.085654
0.201200,-2.112594
0.201300,-2.136938
0.201400,-2.155764
0.201500,-2.164527
0.201600,-2.176862
0.201700,-2.195038
0.201800,-2.247296
0.201900,-2.263850
0.202000,-2.257683
0.202100,-2.260929
0.202200,-2.290141
0.202300,-2.320976
0.202400,-2.324547
0.202500,-2.244699
0.202600,-2.161282
0.202700,-2.164527
0.202800,-2.270341
0.202900,-2.371287
0.203000,-2.407640
0.203100,-2.344671
0.203200,-2.244375
0.203300,-2.206074
0.203400,-2.254761
0.203500,-2.365769
0.203600,-2.436853
0.203700,-2.431010
0.203800,-2.379077
0.203900,-2.335583
0.204000,-2.326819
0.204100,-2.345320
0.204200,-2.363821
0.204300,-2.360251
0.204400,-2.346943
0.204500,-2.324222
0.204600,-2.293062
0.204700,-2.240480
0.204800,-2.159983
0.204900,-2.078837
0.205000,-2.024307
0.205100,-1.988279
0.205200,-1.955820
0.205300,-1.888956
0.205400,-1.787362
0.205500,-1.717901
0.205600,-1.607868
0.205700,-1.533214
0.205800,-1.465701
0.205900,-1.393643
0.206000,-1.315094
0.206100,-1.225185
0.206200,-1.133978
0.206300,-1.058674
0.206400,-1.007066
0.206500,-0.972985
0.206600,-0.934684
0.206700,-0.918780
0.206800,-0.894111
0.206900,-0.871715
0.207000,-0.843801
0.207100,-0.827897
0.207200,-0.807773
0.207300,-0.812966
0.207400,-0.814264
0.207500,-0.815887
0.207600,-0.775314
0.207700,-0.655544
0.207800,-0.512403
0.207900,-0.489358
0.208000,-0.583811
0.208100,-0.701634
0.208200,-0.693844
0.208300,-0.598417
0.208400,-0.473129
0.208500,-0.411133
0.208600,-0.437100
0.208700,-0.509482
0.208800,-0.522140
0.208900,-0.491954
0.209000,-0.413406
0.209100,-0.357902
0.209200,-0.343296
0.209300,-0.362446
0.209400,-0.374131
0.209500,-0.378026
0.209600,-0.366666
0.209700,-0.362446
0.209800,-0.363420
0.209900,-0.379974
0.210000,-0.392957
0.210100,-0.410809
0.210200,-0.433205
0.210300,-0.470857
0.210400,-0.541615
0.210500,-0.556871
0.210600,-0.561090
0.210700,-0.551028
0.210800,-0.593873
0.210900,-0.725004
0.211000,-0.805500
0.211100,-0.805825
0.211200,-0.725653
0.211300,-0.688976
0.211400,-0.716565
0.211500,-0.834064
0.211600,-0.940851
0.211700,-0.959677
0.211800,-0.883400
0.211900,-0.812641
0.212000,-0.817185
0.212100,-0.891515
0.212200,-0.961949
0.212300,-0.988565
0.212400,-0.984345
0.212500,-0.962274
0.212600,-0.976880
0.212700,-1.022321
0.212800,-1.071658
0.212900,-1.100221
0.213000,-1.113529
0.213100,-1.127161
0.213200,-1.142092
0.213300,-1.149882
0.213400,-1.146636
0.213500,-1.133004
0.213600,-1.137548
0.213700,-1.186235
0.213800,-1.224861
0.213900,-1.235572
0.214000,-1.194025
0.214100,-1.170331
0.214200,-1.171954
0.214300,-1.170006
0.214400,-1.169032
0.214500,-1.168708
0.214600,-1.155725
0.214700,-1.147935
0.214800,-1.137548
0.214900,-1.131056
0.215000,-1.126837
0.215100,-1.124240
0.215200,-1.120345
0.215300,-1.125214
0.215400,-1.125863
0.215500,-1.128460
0.215600,-1.131056
0.215700,-1.152154
0.215800,-1.176822
0.215900,-1.214474
0.216000,-1.316717
0.216100,-1.480956
0.216200,-1.564049
0.216300,-1.532565
0.216400,-1.439085
0.216500,-1.404030
0.216600,-1.486474
0.216700,-1.648116
0.216800,-1.760746
0.216900,-1.788011
0.217000,-1.738025
0.217100,-1.709138
0.217200,-1.734130
0.217300,-1.824689
0.217400,-1.916871
0.217500,-1.974322
0.217600,-1.988603
0.217700,-1.983735
0.217800,-1.993148
0.217900,-2.022360
0.218000,-2.062284
0.218100,-2.080460
0.218200,-2.095391
0.218300,-2.101883
0.218400,-2.118437
0.218500,-2.164203
0.218600,-2.186924
0.218700,-2.189196
0.218800,-2.191468
0.218900,-2.213215
0.219000,-2.238857
0.219100,-2.235286
0.219200,-2.147649
0.219300,-2.097339
0.219400,-2.115191
0.219500,-2.229119
0.219600,-2.319029
0.219700,-2.341425
0.219800,-2.252165
0.219900,-2.153492
0.220000,-2.143105
0.220100,-2.223277
0.220200,-2.340127
0.220300,-2.394657
0.220400,-2.366743
0.220500,-2.301501
0.220600,-2.255086
0.220700,-2.249893
0.220800,-2.270341
0.220900,-2.281702
0.221000,-2.274236
0.221100,-2.250217
0.221200,-2.208671
0.221300,-2.166475
0.221400,-2.090847
0.221500,-2.011973
0.221600,-1.937644
0.221700,-1.879868
0.221800,-1.834426
0.221900,-1.796126
0.222000,-1.718875
0.222100,-1.625395
0.222200,-1.553987
0.222300,-1.448498
0.222400,-1.381634
0.222500,-1.324832
0.222600,-1.261863
0.222700,-1.188832
0.222800,-1.104765
0.222900,-1.015505
0.223000,-0.948317
0.223100,-0.905796
0.223200,-0.875935
0.223300,-0.846073
0.223400,-0.829844
0.223500,-0.803553
0.223600,-0.782780
0.223700,-0.749023
0.223800,-0.728899
0.223900,-0.719811
0.224000,-0.720135
0.224100,-0.741558
0.224200,-0.719162
0.224300,-0.667229
0.224400,-0.522140
0.224500,-0.423792
0.224600,-0.425090
0.224700,-0.559143
0.224800,-0.649052
0.224900,-0.606532
0.225000,-0.517921
0.225100,-0.405291
0.225200,-0.386790
0.225300,-0.422169
0.225400,-0.505587
0.225500,-0.523763
0.225600,-0.482541
0.225700,-0.412756
0.225800,-0.361797
0.225900,-0.354007
0.226000,-0.368938
0.226100,-0.383544
0.226200,-0.384842
0.226300,-0.398799
0.226400,-0.392632
0.226500,-0.391009
0.226600,-0.396852
0.226700,-0.409835
0.226800,-0.424117
0.226900,-0.460794
0.227000,-0.519868
0.227100,-0.567906
0.227200,-0.580565
0.227300,-0.580565
0.227400,-0.584136
0.227500,-0.663983
0.227600,-0.786675
0.227700,-0.845749
0.227800,-0.812641
0.227900,-0.730197
0.228000,-0.711372
0.228100,-0.761682
0.228200,-0.894761
0.228300,-0.981099
0.228400,-0.993758
0.228500,-0.918455
0.228600,-0.859381
0.228700,-0.878531
0.228800,-0.949615
0.228900,-1.013558
0.229000,-1.049586
0.229100,-1.050235
0.229200,-1.051534
0.229300,-1.064517
0.229400,-1.101844
0.229500,-1.147610
0.229600,-1.180068
0.229700,-1.202789
0.229800,-1.219667
0.229900,-1.229080
0.230000,-1.220966
0.230100,-1.203438
0.230200,-1.195973
0.230300,-1.219992
0.230400,-1.269004
0.230500,-1.305032
0.230600,-1.309901
0.230700,-1.266732
0.230800,-1.255047
0.230900,-1.258942
0.231000,-1.263486
0.231100,-1.271276
0.231200,-1.266083
0.231300,-1.256345
0.231400,-1.253424
0.231500,-1.253748
0.231600,-1.254722
0.231700,-1.253424
0.231800,-1.257643
0.231900,-1.257319
0.232000,-1.268030
0.232100,-1.270302
0.232200,-1.281662
0.232300,-1.287830
0.232400,-1.311849
0.232500,-1.339438
0.232600,-1.395915
0.232700,-1.528670
0.232800,-1.672460
0.232900,-1.719524
0.233000,-1.666617
0.233100,-1.588717
0.233200,-1.582226
0.233300,-1.697777
0.233400,-1.846761
0.233500,-1.955820
0.233600,-1.961338
0.233700,-1.913300
0.233800,-1.884737
0.233900,-1.926608
0.234000,-2.015868
0.234100,-2.100909
0.234200,-2.145052
0.234300,-2.157711
0.234400,-2.162255
0.234500,-2.178160
0.234600,-2.198609
0.234700,-2.227821
0.234800,-2.255086
0.234900,-2.271640
0.235000,-2.290466
0.235100,-2.335907
0.235200,-2.359277
0.235300,-2.354409
0.235400,-2.346943
0.235500,-2.369015
0.235600,-2.397578
0.235700,-2.419974
0.235800,-2.379726
0.235900,-2.289816
0.236000,-2.262227
0.236100,-2.320327
0.236200,-2.436853
0.236300,-2.501445
0.236400,-2.490084
0.236500,-2.402122
0.236600,-2.320003
0.236700,-2.319678
0.236800,-2.402447
0.236900,-2.501445
0.237000,-2.542018
0.237100,-2.511832
0.237200,-2.456328
0.237300,-2.413158
0.237400,-2.410561
0.237500,-2.426141
0.237600,-2.433931
0.237700,-2.424519
0.237800,-2.401149
0.237900,-2.369015
0.238000,-2.313186
0.238100,-2.229444
0.238200,-2.150895
0.238300,-2.093768
0.238400,-2.048651
0.238500,-2.014570
0.238600,-1.968155
0.238700,-1.872727
0.238800,-1.791906
0.238900,-1.702321
0.239000,-1.607868
0.239100,-1.546522
0.239200,-1.493615
0.239300,-1.423830
0.239400,-1.350149
0.239500,-1.265758
0.239600,-1.183639
0.239700,-1.120670
0.239800,-1.073930
0.239900,-1.039200
0.240000,-1.012584
0.240100,-0.997328
0.240200,-0.972011
0.240300,-0.952212
0.240400,-0.931438
0.240500,-0.904173
0.240600,-0.898980
0.240700,-0.888918
0.240800,-0.911963
0.240900,-0.873663
0.241000,-0.798035
0.241100,-0.638990
0.241200,-0.568556
0.241300,-0.624384
0.241400,-0.762656
0.241500,-0.820107
0.241600,-0.742207
0.241700,-0.613673
0.241800,-0.532852
0.241900,-0.531878
0.242000,-0.594522
0.242100,-0.639964
0.242200,-0.641587
0.242300,-0.577969
0.242400,-0.511105
0.242500,-0.468260
0.242600,-0.451706
0.242700,-0.463391
0.242800,-0.480594
0.242900,-0.487410
0.243000,-0.465014
0.243100,-0.441969
0.243200,-0.442618
0.243300,-0.441644
0.243400,-0.438723
0.243500,-0.457873
0.243600,-0.506561
0.243700,-0.549730
0.243800,-0.565959
0.243900,-0.559143
0.244000,-0.544212
0.244100,-0.568880
0.244200,-0.661061
0.244300,-0.762980
0.244400,-0.775964
0.244500,-0.721109
0.244600,-0.639639
0.244700,-0.650026
0.244800,-0.715267
0.244900,-0.824002
0.245000,-0.884374
0.245100,-0.872364
0.245200,-0.813615
0.245300,-0.769147
0.245400,-0.785052
0.245500,-0.849644
0.245600,-0.902226
0.245700,-0.937605
0.245800,-0.931438
0.245900,-0.932737
0.246000,-0.950913
0.246100,-0.985968
0.246200,-1.024918
0.246300,-1.044393
0.246400,-1.065166
0.246500,-1.081720
0.246600,-1.085939
0.246700,-1.080421
0.246800,-1.074254
0.246900,-1.065166
0.247000,-1.102168
0.247100,-1.158970
0.247200,-1.182340
0.247300,-1.175524
0.247400,-1.143390
0.247500,-1.141443
0.247600,-1.146312
0.247700,-1.143715
0.247800,-1.140794
0.247900,-1.137223
0.248000,-1.136899
0.248100,-1.138846
0.248200,-1.136899
0.248300,-1.134951
0.248400,-1.138197
0.248500,-1.146312
0.248600,-1.154751
0.248700,-1.168059
0.248800,-1.181367
0.248900,-1.192402
0.249000,-1.210254
0.249100,-1.240441
0.249200,-1.275820
0.249300,-1.348851
0.249400,-1.504651
0.249500,-1.630913
0.249600,-1.655581
0.249700,-1.583200
0.249800,-1.518283
0.249900,-1.544250
0.250000,-1.684794
0.250100,-1.827935
0.250200,-1.906159
0.250300,-1.894799
0.250400,-1.844813
0.250500,-1.831181
0.250600,-1.888307
0.250700,-1.983410
0.250800,-2.057740
0.250900,-2.093768
0.251000,-2.094417
0.251100,-2.086952
0.251200,-2.097014
0.251300,-2.128174
0.251400,-2.160957
0.251500,-2.173940
0.251600,-2.184652
0.251700,-2.231716
0.251800,-2.258981
0.251900,-2.256384
0.252000,-2.243726
0.252100,-2.257683
0.252200,-2.303124
0.252300,-2.345969
0.252400,-2.344996
0.252500,-2.266446
0.252600,-2.181406
0.252700,-2.186274
0.252800,-2.267420
0.252900,-2.394981
0.253000,-2.436528
0.253100,-2.389464
0.253200,-2.309291
0.253300,-2.254761
0.253400,-2.276833
0.253500,-2.353435
0.253600,-2.432958
0.253700,-2.468013
0.253800,-2.437826
0.253900,-2.388814
0.254000,-2.342399
0.254100,-2.332012
0.254200,-2.348241
0.254300,-2.357330
0.254400,-2.352461
0.254500,-2.328766
0.254600,-2.286246
0.254700,-2.234962
0.254800,-2.164527
0.254900,-2.094093
0.255000,-2.043458
0.255100,-2.002885
0.255200,-1.961014
0.255300,-1.898045
0.255400,-1.795801
0.255500,-1.693233
0.255600,-1.577032
0.255700,-1.497185
0.255800,-1.443304
0.255900,-1.378388
0.256000,-1.299839
0.256100,-1.219018
0.256200,-1.130732
0.256300,-1.047639
0.256400,-0.995381
0.256500,-0.953510
0.256600,-0.925596
0.256700,-0.904498
0.256800,-0.886971
0.256900,-0.863276
0.257000,-0.832116
0.257100,-0.804851
0.257200,-0.782131
0.257300,-0.771419
0.257400,-0.786675
0.257500,-0.787973
0.257600,-0.761682
0.257700,-0.638016
0.257800,-0.512403
0.257900,-0.439372
0.258000,-0.544537
0.258100,-0.654245
0.258200,-0.681835
0.258300,-0.596470
0.258400,-0.469558
0.258500,-0.401396
0.258600,-0.410160
0.258700,-0.480919
0.258800,-0.524413
0.258900,-0.510456
0.259000,-0.451382
0.259100,-0.373807
0.259200,-0.349138
0.259300,-0.347840
0.259400,-0.367964
0.259500,-0.369587
0.259600,-0.354656
0.259700,-0.341673
0.259800,-0.351735
0.259900,-0.368613
0.260000,-0.357577
0.260100,-0.360499
0.260200,-0.405940
0.260300,-0.477348
0.260400,-0.507859
0.260500,-0.536747
0.260600,-0.512078
0.260700,-0.526360
0.260800,-0.570828
0.260900,-0.689949
0.261000,-0.790245
0.261100,-0.799009
0.261200,-0.735391
0.261300,-0.664632
0.261400,-0.702933
0.261500,-0.784078
0.261600,-0.883076
0.261700,-0.923324
0.261800,-0.908068
0.261900,-0.859381
0.262000,-0.842827
0.262100,-0.874961
0.262200,-0.943772
0.262300,-0.993433
0.262400,-1.027515
0.262500,-1.030111
0.262600,-1.039200
0.262700,-1.066140
0.262800,-1.093080
0.262900,-1.113204
0.263000,-1.123915
0.263100,-1.145662
0.263200,-1.169357
0.263300,-1.174226
0.263400,-1.169357
0.263500,-1.161567
0.263600,-1.164488
0.263700,-1.215123
0.263800,-1.263161
0.263900,-1.285233
0.264000,-1.300813
0.264100,-1.290751
0.264200,-1.291075
0.264300,-1.293347
0.264400,-1.292698
0.264500,-1.282961
0.264600,-1.273872
0.264700,-1.266407
0.264800,-1.260889
0.264900,-1.252450
0.265000,-1.246608
0.265100,-1.244335
0.265200,-1.246608
0.265300,-1.245309
0.265400,-1.249529
0.265500,-1.246932
0.265600,-1.257968
0.265700,-1.278092
0.265800,-1.302436
0.265900,-1.330674
0.266000,-1.415715
0.266100,-1.575085
0.266200,-1.674407
0.266300,-1.668240
0.266400,-1.570541
0.266500,-1.523152
0.266600,-1.575734
0.266700,-1.732832
0.266800,-1.862665
0.266900,-1.901615
0.267000,-1.865262
0.267100,-1.820145
0.267200,-1.825014
0.267300,-1.896746
0.267400,-1.986656
0.267500,-2.053845
0.267600,-2.072021
0.267700,-2.073644
0.267800,-2.070074
0.267900,-2.086952
0.268000,-2.122007
0.268100,-2.156088
0.268200,-2.159009
0.268300,-2.174914
0.268400,-2.205425
0.268500,-2.256060
0.268600,-2.248919
0.268700,-2.245673
0.268800,-2.268719
0.268900,-2.299879
0.269000,-2.329091
0.269100,-2.314160
0.269200,-2.233988
0.269300,-2.166799
0.269400,-2.191468
0.269500,-2.301826
0.269600,-2.408939
0.269700,-2.419001
0.269800,-2.369989
0.269900,-2.278781
0.270000,-2.234313
0.270100,-2.287869
0.270200,-2.393034
0.270300,-2.482294
0.270400,-2.489760
0.270500,-2.435554
0.270600,-2.379077
0.270700,-2.357005
0.270800,-2.358304
0.270900,-2.369339
0.271000,-2.362523
0.271100,-2.347917
0.271200,-2.313511
0.271300,-2.281377
0.271400,-2.223601
0.271500,-2.141482
0.271600,-2.063582
0.271700,-2.001911
0.271800,-1.949329
0.271900,-1.917195
0.272000,-1.843515
0.272100,-1.745815
0.272200,-1.640326
0.272300,-1.516985
0.272400,-1.435190
0.272500,-1.381309
0.272600,-1.317367
0.272700,-1.243686
0.272800,-1.155725
0.272900,-1.064192
0.273000,-0.991486
0.273100,-0.943123
0.273200,-0.913262
0.273300,-0.875935
0.273400,-0.863601
0.273500,-0.843477
0.273600,-0.817185
0.273700,-0.793491
0.273800,-0.761682
0.273900,-0.753243
0.274000,-0.744154
0.274100,-0.751944
0.274200,-0.748049
0.274300,-0.690274
0.274400,-0.572775
0.274500,-0.435802
0.274600,-0.437100
0.274700,-0.543887
0.274800,-0.650026
0.274900,-0.649701
0.275000,-0.541615
0.275100,-0.437100
0.275200,-0.381272
0.275300,-0.421520
0.275400,-0.494226
0.275500,-0.535448
0.275600,-0.499095
0.275700,-0.421196
0.275800,-0.364718
0.275900,-0.335831
0.276000,-0.351735
0.276100,-0.358551
0.276200,-0.366341
0.276300,-0.362771
0.276400,-0.350437
0.276500,-0.337778
0.276600,-0.337778
0.276700,-0.362771
0.276800,-0.366341
0.276900,-0.413730
0.277000,-0.448136
0.277100,-0.485787
0.277200,-0.499420
0.277300,-0.492928
0.277400,-0.488059
0.277500,-0.539343
0.277600,-0.665930
0.277700,-0.721758
0.277800,-0.711372
0.277900,-0.639964
0.278000,-0.612050
0.278100,-0.644508
0.278200,-0.768174
0.278300,-0.858407
0.278400,-0.872040
0.278500,-0.813940
0.278600,-0.750322
0.278700,-0.774665
0.278800,-0.837309
0.278900,-0.909367
0.279000,-0.945071
0.279100,-0.954484
0.279200,-0.948641
0.279300,-0.969090
0.279400,-1.005118
0.279500,-1.050235
0.279600,-1.076526
0.279700,-1.096326
0.279800,-1.117748
0.279900,-1.130732
0.280000,-1.133328
0.280100,-1.129758
0.280200,-1.123266
0.280300,-1.145662
0.280400,-1.198569
0.280500,-1.239791
0.280600,-1.258293
0.280700,-1.257319
0.280800,-1.238493
0.280900,-1.246608
0.281000,-1.256020
0.281100,-1.250178
0.281200,-1.249204
0.281300,-1.240765
0.281400,-1.239791
0.281500,-1.236546
0.281600,-1.234598
0.281700,-1.239142
0.281800,-1.246283
0.281900,-1.252775
0.282000,-1.261863
0.282100,-1.273548
0.282200,-1.279390
0.282300,-1.291400
0.282400,-1.308603
0.282500,-1.337166
0.282600,-1.377414
0.282700,-1.496861
0.282800,-1.657854
0.282900,-1.744842
0.283000,-1.698751
0.283100,-1.602999
0.283200,-1.576059
0.283300,-1.679276
0.283400,-1.835725
0.283500,-1.952899
0.283600,-1.958417
0.283700,-1.901615
0.283800,-1.871429
0.283900,-1.906159
0.284000,-1.981463
0.284100,-2.062608
0.284200,-2.112269
0.284300,-2.124928
0.284400,-2.117787
0.284500,-2.111945
0.284600,-2.131095
0.284700,-2.156737
0.284800,-2.172317
0.284900,-2.190169
0.285000,-2.204127
0.285100,-2.222628
0.285200,-2.250542
0.285300,-2.261253
0.285400,-2.261578
0.285500,-2.267096
0.285600,-2.291764
0.285700,-2.322275
0.285800,-2.292089
0.285900,-2.210943
0.286000,-2.149272
0.286100,-2.186274
0.286200,-2.299229
0.286300,-2.379077
0.286400,-2.381349
0.286500,-2.286571
0.286600,-2.193740
0.286700,-2.190494
0.286800,-2.277482
0.286900,-2.376156
0.287000,-2.407640
0.287100,-2.368041
0.287200,-2.309941
0.287300,-2.289167
0.287400,-2.295010
0.287500,-2.304098
0.287600,-2.294361
0.287700,-2.273587
0.287800,-2.258332
0.287900,-2.239181
0.288000,-2.205425
0.288100,-2.149921
0.288200,-2.071372
0.288300,-2.006131
0.288400,-1.960689
0.288500,-1.925959
0.288600,-1.880842
0.288700,-1.790283
0.288800,-1.681223
0.288900,-1.549768
0.289000,-1.457911
0.289100,-1.395591
0.289200,-1.330350
0.289300,-1.261538
0.289400,-1.189157
0.289500,-1.102168
0.289600,-1.018751
0.289700,-0.951238
0.289800,-0.910665
0.289900,-0.876584
0.290000,-0.848994
0.290100,-0.831467
0.290200,-0.807448
0.290300,-0.780183
0.290400,-0.755839
0.290500,-0.737014
0.290600,-0.736689
0.290700,-0.732470
0.290800,-0.757462
0.290900,-0.739286
0.291000,-0.683133
0.291100,-0.524088
0.291200,-0.438074
0.291300,-0.456575
0.291400,-0.614322
0.291500,-0.690274
0.291600,-0.644183
0.291700,-0.516947
0.291800,-0.420871
0.291900,-0.404966
0.292000,-0.480919
0.292100,-0.542914
0.292200,-0.552327
0.292300,-0.487086
0.292400,-0.414704
0.292500,-0.372508
0.292600,-0.385167
0.292700,-0.396852
0.292800,-0.401721
0.292900,-0.395554
0.293000,-0.385167
0.293100,-0.388088
0.293200,-0.401721
0.293300,-0.392632
0.293400,-0.399773
0.293500,-0.422818
0.293600,-0.453654
0.293700,-0.501367
0.293800,-0.546160
0.293900,-0.565634
0.294000,-0.570179
0.294100,-0.575047
0.294200,-0.646455
0.294300,-0.768498
0.294400,-0.820756
0.294500,-0.793816
0.294600,-0.714293
0.294700,-0.691897
0.294800,-0.767524
0.294900,-0.896059
0.295000,-0.960326
0.295100,-0.928517
0.295200,-0.860030
0.295300,-0.833739
0.295400,-0.884374
0.295500,-0.960002
0.295600,-1.005443
0.295700,-1.018751
0.295800,-1.017128
0.295900,-1.030436
0.296000,-1.063219
0.296100,-1.110608
0.296200,-1.146312
0.296300,-1.154426
0.296400,-1.163515
0.296500,-1.191104
0.296600,-1.208307
0.296700,-1.204087
0.296800,-1.195324
0.296900,-1.187209
0.297000,-1.219667
0.297100,-1.276145
0.297200,-1.307954
0.297300,-1.312498
0.297400,-1.290426
0.297500,-1.279390
0.297600,-1.287505
0.297700,-1.280689
0.297800,-1.275820
0.297900,-1.264784
0.298000,-1.259591
0.298100,-1.246932
0.298200,-1.243362
0.298300,-1.237844
0.298400,-1.230378
0.298500,-1.227457
0.298600,-1.226159
0.298700,-1.231028
0.298800,-1.232326
0.298900,-1.225834
0.299000,-1.238493
0.299100,-1.252450
0.299200,-1.286531
0.299300,-1.332946
0.299400,-1.477061
0.299500,-1.623448
0.299600,-1.666617
0.299700,-1.597806
0.299800,-1.502054
0.299900,-1.519581
0.300000,-1.653309
0.300100,-1.808460
0.300200,-1.890904
0.300300,-1.861367
0.300400,-1.792555
0.300500,-1.769510
0.300600,-1.836374
0.300700,-1.925310
0.300800,-2.007105
0.300900,-2.026904
0.301000,-2.018140
0.301100,-2.013596
0.301200,-2.041510
0.301300,-2.078837
0.301400,-2.104155
0.301500,-2.114217
0.301600,-2.126227
0.301700,-2.150246
0.301800,-2.175239
0.301900,-2.198933
0.302000,-2.211916
0.302100,-2.209969
0.302200,-2.218408
0.302300,-2.246647
0.302400,-2.268719
0.302500,-2.223601
0.302600,-2.147324
0.302700,-2.130446
0.302800,-2.190494
0.302900,-2.293711
0.303000,-2.371287
0.303100,-2.337206
0.303200,-2.237883
0.303300,-2.184002
0.303400,-2.231716
0.303500,-2.338504
0.303600,-2.424843
0.303700,-2.441397
0.303800,-2.394332
0.303900,-2.341101
0.304000,-2.321950
0.304100,-2.344996
0.304200,-2.366418
0.304300,-2.360251
0.304400,-2.348891
0.304500,-2.323573
0.304600,-2.305721
0.304700,-2.277158
0.304800,-2.221979
0.304900,-2.149272
0.305000,-2.089873
0.305100,-2.042809
0.305200,-2.008078
0.305300,-1.955820
0.305400,-1.848384
0.305500,-1.746465
0.305600,-1.622149
0.305700,-1.550417
0.305800,-1.495562
0.305900,-1.435514
0.306000,-1.366703
0.306100,-1.288479
0.306200,-1.199868
0.306300,-1.125863
0.306400,-1.064842
0.306500,-1.034331
0.306600,-1.000899
0.306700,-0.975906
0.306800,-0.954808
0.306900,-0.932412
0.307000,-0.909367
0.307100,-0.880479
0.307200,-0.861329
0.307300,-0.857758
0.307400,-0.853863
0.307500,-0.850617
0.307600,-0.824326
0.307700,-0.734742
0.307800,-0.579916
0.307900,-0.512403
0.308000,-0.570503
0.308100,-0.710723
0.308200,-0.756489
0.308300,-0.659114
0.308400,-0.526035
0.308500,-0.441969
0.308600,-0.467935
0.308700,-0.535773
0.308800,-0.588355
0.308900,-0.560117
0.309000,-0.480919
0.309100,-0.420222
0.309200,-0.385816
0.309300,-0.400747
0.309400,-0.417301
0.309500,-0.426389
0.309600,-0.414055
0.309700,-0.395878
0.309800,-0.389386
0.309900,-0.400098
0.310000,-0.395229
0.310100,-0.404966
0.310200,-0.435153
0.310300,-0.471181
0.310400,-0.504288
0.310500,-0.540642
0.310600,-0.535448
0.310700,-0.537396
0.310800,-0.546484
0.310900,-0.636718
0.311000,-0.725978
0.311100,-0.745128
0.311200,-0.699038
0.311300,-0.618541
0.311400,-0.623085
0.311500,-0.720785
0.311600,-0.829195
0.311700,-0.872364
0.311800,-0.829844
0.311900,-0.766226
0.312000,-0.751295
0.312100,-0.818808
0.312200,-0.897033
0.312300,-0.934360
0.312400,-0.947992
0.312500,-0.944746
0.312600,-0.964870
0.312700,-0.996030
0.312800,-1.040822
0.312900,-1.063219
0.313000,-1.070035
0.313100,-1.089185
0.313200,-1.112555
0.313300,-1.127161
0.313400,-1.120670
0.313500,-1.107362
0.313600,-1.108660
0.313700,-1.160269
0.313800,-1.206035
0.313900,-1.230378
0.314000,-1.238493
0.314100,-1.225185
0.314200,-1.227782
0.314300,-1.232001
0.314400,-1.228106
0.314500,-1.221290
0.314600,-1.212851
0.314700,-1.206359
0.314800,-1.199543
0.314900,-1.187534
0.315000,-1.180717
0.315100,-1.180393
0.315200,-1.187534
0.315300,-1.190455
0.315400,-1.196622
0.315500,-1.201491
0.315600,-1.208956
0.315700,-1.222264
0.315800,-1.245958
0.315900,-1.268030
0.316000,-1.340736
0.316100,-1.496211
0.316200,-1.620202
0.316300,-1.628316
0.316400,-1.532240
0.316500,-1.473166
0.316600,-1.524775
0.316700,-1.691286
0.316800,-1.837672
0.316900,-1.882789
0.317000,-1.836049
0.317100,-1.777949
0.317200,-1.795152
0.317300,-1.877921
0.317400,-1.979840
0.317500,-2.044107
0.317600,-2.066828
0.317700,-2.061959
0.317800,-2.078837
0.317900,-2.102532
0.318000,-2.137262
0.318100,-2.155439
0.318200,-2.179783
0.318300,-2.197635
0.318400,-2.231716
0.318500,-2.265148
0.318600,-2.270666
0.318700,-2.271640
0.318800,-2.282351
0.318900,-2.305721
0.319000,-2.332337
0.319100,-2.333311
0.319200,-2.274886
0.319300,-2.203802
0.319400,-2.208671
0.319500,-2.291439
0.319600,-2.398227
0.319700,-2.443344
0.319800,-2.373234
0.319900,-2.276184
0.320000,-2.240155
0.320100,-2.294685
0.320200,-2.408614
0.320300,-2.490084
0.320400,-2.492032
0.320500,-2.431010
0.320600,-2.381998
0.320700,-2.381349
0.320800,-2.401798
0.320900,-2.414456
0.321000,-2.403096
0.321100,-2.386542
0.321200,-2.363497
0.321300,-2.331688
0.321400,-2.285272
0.321500,-2.216136
0.321600,-2.139534
0.321700,-2.078837
0.321800,-2.038589
0.321900,-2.000938
0.322000,-1.931801
0.322100,-1.823066
0.322200,-1.702321
0.322300,-1.579629
0.322400,-1.505300
0.322500,-1.445252
0.322600,-1.367677
0.322700,-1.289777
0.322800,-1.203763
0.322900,-1.112555
0.323000,-1.036278
0.323100,-0.989863
0.323200,-0.944422
0.323300,-0.918455
0.323400,-0.885672
0.323500,-0.872689
0.323600,-0.853214
0.323700,-0.833739
0.323800,-0.808746
0.323900,-0.795763
0.324000,-0.801281
0.324100,-0.799009
0.324200,-0.807123
0.324300,-0.768823
0.324400,-0.648078
0.324500,-0.511429
0.324600,-0.465339
0.324700,-0.587381
0.324800,-0.703582
0.324900,-0.708450
0.325000,-0.602312
0.325100,-0.469558
0.325200,-0.422494
0.325300,-0.465014
0.325400,-0.554923
0.325500,-0.581539
0.325600,-0.532852
0.325700,-0.448460
0.325800,-0.386141
0.325900,-0.366990
0.326000,-0.373482
0.326100,-0.380298
0.326200,-0.384842
0.326300,-0.371210
0.326400,-0.358876
0.326500,-0.353358
0.326600,-0.366990
0.326700,-0.369262
0.326800,-0.384518
0.326900,-0.422818
0.327000,-0.466312
0.327100,-0.515973
0.327200,-0.537396
0.327300,-0.548756
0.327400,-0.539343
0.327500,-0.577969
0.327600,-0.696116
0.327700,-0.769796
0.327800,-0.786999
0.327900,-0.720460
0.328000,-0.666255
0.328100,-0.691248
0.328200,-0.808097
0.328300,-0.908068
0.328400,-0.943123
0.328500,-0.887620
0.328600,-0.820756
0.328700,-0.821405
0.328800,-0.895085
0.328900,-0.972336
0.329000,-1.004794
0.329100,-1.012584
0.329200,-1.006417
0.329300,-1.025892
0.329400,-1.067438
0.329500,-1.108011
0.329600,-1.113529
0.329700,-1.124889
0.329800,-1.145013
0.329900,-1.165787
0.330000,-1.166436
0.330100,-1.153777
0.330200,-1.135600
0.330300,-1.143066
0.330400,-1.194999
0.330500,-1.244985
0.330600,-1.262512
0.330700,-1.263486
0.330800,-1.231352
0.330900,-1.237519
0.331000,-1.232326
0.331100,-1.232326
0.331200,-1.225834
0.331300,-1.219667
0.331400,-1.207333
0.331500,-1.200517
0.331600,-1.190779
0.331700,-1.182016
0.331800,-1.180717
0.331900,-1.182989
0.332000,-1.184612
0.332100,-1.192727
0.332200,-1.206035
0.332300,-1.211877
0.332400,-1.232326
0.332500,-1.254398
0.332600,-1.291400
0.332700,-1.397538
0.332800,-1.558207
0.332900,-1.661749
0.333000,-1.626694
0.333100,-1.541004
0.333200,-1.496211
0.333300,-1.595858
0.333400,-1.758799
0.333500,-1.884737
0.333600,-1.906159
0.333700,-1.855849
0.333800,-1.816899
0.333900,-1.843190
0.334000,-1.930178
0.334100,-2.022035
0.334200,-2.088250
0.334300,-2.097988
0.334400,-2.088575
0.334500,-2.093444
0.334600,-2.118437
0.334700,-2.150570
0.334800,-2.171993
0.334900,-2.189520
0.335000,-2.210618
0.335100,-2.245024
0.335200,-2.262551
0.335300,-2.275210
0.335400,-2.270991
0.335500,-2.284623
0.335600,-2.312213
0.335700,-2.330389
0.335800,-2.317406
0.335900,-2.247621
0.336000,-2.185950
0.336100,-2.199582
0.336200,-2.280404
0.336300,-2.376480
0.336400,-2.389464
0.336500,-2.319354
0.336600,-2.233664
0.336700,-2.216461
0.336800,-2.287220
0.336900,-2.378752
0.337000,-2.433931
0.337100,-2.430036
0.337200,-2.388165
0.337300,-2.351163
0.337400,-2.344671
0.337500,-2.356031
0.337600,-2.358628
0.337700,-2.353435
0.337800,-2.337855
0.337900,-2.309616
0.338000,-2.269368
0.338100,-2.214189
0.338200,-2.135964
0.338300,-2.067152
0.338400,-2.013272
0.338500,-1.976269
0.338600,-1.937968
0.338700,-1.856174
0.338800,-1.759123
0.338900,-1.637729
0.339000,-1.540030
0.339100,-1.472192
0.339200,-1.405977
0.339300,-1.334245
0.339400,-1.266732
0.339500,-1.188183
0.339600,-1.109958
0.339700,-1.038226
0.339800,-0.987591
0.339900,-0.951238
0.340000,-0.921701
0.340100,-0.905796
0.340200,-0.885348
0.340300,-0.858083
0.340400,-0.829195
0.340500,-0.807123
0.340600,-0.780508
0.340700,-0.787973
0.340800,-0.788298
0.340900,-0.782780
0.341000,-0.712021
0.341100,-0.564985
0.341200,-0.446513
0.341300,-0.448136
0.341400,-0.564012
0.341500,-0.656193
0.341600,-0.615945
0.341700,-0.497148
0.341800,-0.381272
0.341900,-0.359850
0.342000,-0.422818
0.342100,-0.488059
0.342200,-0.502341
0.342300,-0.433205
0.342400,-0.366341
0.342500,-0.309215
0.342600,-0.291687
0.342700,-0.299153
0.342800,-0.308890
0.342900,-0.313434
0.343000,-0.303372
0.343100,-0.296232
0.343200,-0.285520
0.343300,-0.282275
0.343400,-0.272537
0.343500,-0.306618
0.343600,-0.343296
0.343700,-0.397176
0.343800,-0.432556
0.343900,-0.446513
0.344000,-0.451706
0.344100,-0.449110
0.344200,-0.529930
0.344300,-0.634770
0.344400,-0.688326
0.344500,-0.666904
0.344600,-0.599066
0.344700,-0.571477
0.344800,-0.628279
0.344900,-0.745128
0.345000,-0.808422
0.345100,-0.796737
0.345200,-0.745128
0.345300,-0.720460
0.345400,-0.758761
0.345500,-0.820107
0.345600,-0.850942
0.345700,-0.869119
0.345800,-0.875935
0.345900,-0.898655
0.346000,-0.932087
0.346100,-0.974283
0.346200,-0.987591
0.346300,-0.986942
0.346400,-1.007390
0.346500,-1.038226
0.346600,-1.060947
0.346700,-1.059324
0.346800,-1.044068
0.346900,-1.024918
0.347000,-1.051209
0.347100,-1.110608
0.347200,-1.152803
0.347300,-1.164813
0.347400,-1.159295
0.347500,-1.155725
0.347600,-1.164488
0.347700,-1.159944
0.347800,-1.158970
0.347900,-1.160918
0.348000,-1.152803
0.348100,-1.147285
0.348200,-1.149233
0.348300,-1.146312
0.348400,-1.147285
0.348500,-1.153452
0.348600,-1.158646
0.348700,-1.174226
0.348800,-1.181367
0.348900,-1.198569
0.349000,-1.217720
0.349100,-1.243037
0.349200,-1.262188
0.349300,-1.314445
0.349400,-1.441357
0.349500,-1.592937
0.349600,-1.653309
0.349700,-1.595534
0.349800,-1.496211
0.349900,-1.480956
0.350000,-1.612087
0.350100,-1.775352
0.350200,-1.877271
0.350300,-1.860718
0.350400,-1.796450
0.350500,-1.771133
0.350600,-1.820145
0.350700,-1.916221
0.350800,-1.985682
0.350900,-2.016842
0.351000,-2.016193
0.351100,-2.022685
0.351200,-2.044432
0.351300,-2.067477
0.351400,-2.086303
0.351500,-2.093119
0.351600,-2.098637
0.351700,-2.125577
0.351800,-2.160957
0.351900,-2.182704
0.352000,-2.180432
0.352100,-2.175239
0.352200,-2.194064
0.352300,-2.223277
0.352400,-2.259955
0.352500,-2.227172
0.352600,-2.140833
0.352700,-2.110322
0.352800,-2.161282
0.352900,-2.271315
0.353000,-2.361874
0.353100,-2.345969
0.353200,-2.252165
0.353300,-2.178484
0.353400,-2.196986
0.353500,-2.287544
0.353600,-2.388814
0.353700,-2.422571
0.353800,-2.382647
0.353900,-2.330065
0.354000,-2.303774
0.354100,-2.309291
0.354200,-2.324547
0.354300,-2.313511
0.354400,-2.297931
0.354500,-2.275210
0.354600,-2.245024
0.354700,-2.211916
0.354800,-2.157711
0.354900,-2.080136
0.355000,-2.017167
0.355100,-1.968479
0.355200,-1.932451
0.355300,-1.874350
0.355400,-1.778598
0.355500,-1.673758
0.355600,-1.550092
0.355700,-1.468622
0.355800,-1.409872
0.355900,-1.353720
0.356000,-1.276794
0.356100,-1.202464
0.356200,-1.115476
0.356300,-1.036603
0.356400,-0.981099
0.356500,-0.938904
0.356600,-0.904498
0.356700,-0.857758
0.356800,-0.847372
0.356900,-0.809395
0.357000,-0.786999
0.357100,-0.746751
0.357200,-0.728899
0.357300,-0.711696
0.357400,-0.718512
0.357500,-0.723381
0.357600,-0.702608
0.357700,-0.624708
0.357800,-0.458522
0.357900,-0.390685
0.358000,-0.442942
0.358100,-0.583486
0.358200,-0.646131
0.358300,-0.578942
0.358400,-0.451382
0.358500,-0.356928
0.358600,-0.372184
0.358700,-0.449759
0.358800,-0.519544
0.358900,-0.506236
0.359000,-0.441969
0.359100,-0.365367
0.359200,-0.338752
0.359300,-0.333558
0.359400,-0.358551
0.359500,-0.369587
0.359600,-0.366990
0.359700,-0.352384
0.359800,-0.351086
0.359900,-0.360174
0.360000,-0.361797
0.360100,-0.374780
0.360200,-0.400422
0.360300,-0.442618
0.360400,-0.483191
0.360500,-0.532202
0.360600,-0.545510
0.360700,-0.545835
0.360800,-0.555897
0.360900,-0.634446
0.361000,-0.755839
0.361100,-0.782455
0.361200,-0.759085
0.361300,-0.672746
0.361400,-0.672746
0.361500,-0.747400
0.361600,-0.864574
0.361700,-0.931763
0.361800,-0.905147
0.361900,-0.823677
0.362000,-0.785052
0.362100,-0.831467
0.362200,-0.918130
0.362300,-0.959677
0.362400,-0.964546
0.362500,-0.958703
0.362600,-0.972011
0.362700,-1.009338
0.362800,-1.047963
0.362900,-1.064192
0.363000,-1.074904
0.363100,-1.091133
0.363200,-1.110608
0.363300,-1.120670
0.363400,-1.113204
0.363500,-1.105739
0.363600,-1.103142
0.363700,-1.143715
0.363800,-1.206035
0.363900,-1.234598
0.364000,-1.236221
0.364100,-1.227782
0.364200,-1.226159
0.364300,-1.224861
0.364400,-1.220316
0.364500,-1.214799
0.364600,-1.209930
0.364700,-1.206035
0.364800,-1.197920
0.364900,-1.196297
0.365000,-1.188832
0.365100,-1.178445
0.365200,-1.186235
0.365300,-1.190130
0.365400,-1.201166
0.365500,-1.210904
0.365600,-1.221615
0.365700,-1.238493
0.365800,-1.261214
0.365900,-1.292049
0.366000,-1.354693
0.366100,-1.496211
0.366200,-1.637405
0.366300,-1.652011
0.366400,-1.575085
0.366500,-1.493939
0.366600,-1.523152
0.366700,-1.666617
0.366800,-1.815925
0.366900,-1.884088
0.367000,-1.847410
0.367100,-1.787362
0.367200,-1.768861
0.367300,-1.839295
0.367400,-1.936995
0.367500,-2.011000
0.367600,-2.033720
0.367700,-2.032097
0.367800,-2.038914
0.367900,-2.061959
0.368000,-2.092794
0.368100,-2.117787
0.368200,-2.137262
0.368300,-2.146026
0.368400,-2.171344
0.368500,-2.212566
0.368600,-2.222303
0.368700,-2.218733
0.368800,-2.224251
0.368900,-2.246322
0.369000,-2.274236
0.369100,-2.290466
0.369200,-2.236585
0.369300,-2.143754
0.369400,-2.131095
0.369500,-2.198609
0.369600,-2.304423
0.369700,-2.371287
0.369800,-2.324222
0.369900,-2.224575
0.370000,-2.156413
0.370100,-2.187248
0.370200,-2.284623
0.370300,-2.369015
0.370400,-2.371287
0.370500,-2.316432
0.370600,-2.262551
0.370700,-2.245349
0.370800,-2.260604
0.370900,-2.281702
0.371000,-2.284299
0.371100,-2.270991
0.371200,-2.244699
0.371300,-2.218408
0.371400,-2.180107
0.371500,-2.118437
0.371600,-2.041510
0.371700,-1.982761
0.371800,-1.934398
0.371900,-1.899018
0.372000,-1.836374
0.372100,-1.740298
0.372200,-1.642274
0.372300,-1.523801
0.372400,-1.453042
0.372500,-1.397863
0.372600,-1.335219
0.372700,-1.263486
0.372800,-1.185911
0.372900,-1.097949
0.373000,-1.013558
0.373100,-0.951887
0.373200,-0.922025
0.373300,-0.893462
0.373400,-0.883725
0.373500,-0.856784
0.373600,-0.844450
0.373700,-0.802579
0.373800,-0.792517
0.373900,-0.762006
0.374000,-0.767849
0.374100,-0.770770
0.374200,-0.774990
0.374300,-0.737014
0.374400,-0.623085
0.374500,-0.471506
0.374600,-0.417625
0.374700,-0.523114
0.374800,-0.643209
0.374900,-0.665606
0.375000,-0.560766
0.375100,-0.426389
0.375200,-0.363095
0.375300,-0.385492
0.375400,-0.465014
0.375500,-0.496823
0.375600,-0.460145
0.375700,-0.373807
0.375800,-0.320900
0.375900,-0.295258
0.376000,-0.306294
0.376100,-0.311811
0.376200,-0.307267
0.376300,-0.306294
0.376400,-0.301749
0.376500,-0.293959
0.376600,-0.291363
0.376700,-0.287143
0.376800,-0.303372
0.376900,-0.336480
0.377000,-0.379974
0.377100,-0.428336
0.377200,-0.462093
0.377300,-0.453329
0.377400,-0.461768
0.377500,-0.485463
0.377600,-0.602961
0.377700,-0.681510
0.377800,-0.695467
0.377900,-0.640613
0.378000,-0.584460
0.378100,-0.601988
0.378200,-0.703257
0.378300,-0.813290
0.378400,-0.844126
0.378500,-0.793816
0.378600,-0.717863
0.378700,-0.675668
0.378800,-0.763305
0.378900,-0.839906
0.379000,-0.874636
0.379100,-0.885672
0.379200,-0.868145
0.379300,-0.888918
0.379400,-0.925271
0.379500,-0.977529
0.379600,-1.019725
0.379700,-1.041472
0.379800,-1.060947
0.379900,-1.083992
0.380000,-1.085939
0.380100,-1.054455
0.380200,-0.999601
0.380300,-0.919753
0.380400,-1.048288
0.380500,-1.101195
0.380600,-1.117748
0.380700,-1.122617
0.380800,-1.126837
0.380900,-1.127810
0.381000,-1.126837
0.381100,-1.117748
0.381200,-1.111257
0.381300,-1.095677
0.381400,-1.092756
0.381500,-1.072956
0.381600,-1.091457
0.381700,-1.022646
0.381800,-1.014207
0.381900,-0.996355
0.382000,-1.015505
0.382100,-1.029137
0.382200,-1.057701
0.382300,-1.111257
0.382400,-1.110932
0.382500,-1.133004
0.382600,-1.162216
0.382700,-1.258617
0.382800,-1.416364
0.382900,-1.534837
0.383000,-1.513090
0.383100,-1.416040
0.383200,-1.359887
0.383300,-1.438436
0.383400,-1.601376
0.383500,-1.738675
0.383600,-1.771457
0.383700,-1.724068
0.383800,-1.669214
0.383900,-1.692908
0.384000,-1.777949
0.384100,-1.876298
0.384200,-1.930178
0.384300,-1.947381
0.384400,-1.949329
0.384500,-1.965233
0.384600,-1.980489
0.384700,-2.017491
0.384800,-2.043133
0.384900,-2.062608
0.385000,-2.079162
0.385100,-2.121033
0.385200,-2.150246
0.385300,-2.165826
0.385400,-2.164852
0.385500,-2.188222
0.385600,-2.215487
0.385700,-2.245673
0.385800,-2.244699
0.385900,-2.165177
0.386000,-2.097339
0.386100,-2.120384
0.386200,-2.208995
0.386300,-2.323249
0.386400,-2.345969
0.386500,-2.276509
0.386600,-2.171019
0.386700,-2.131095
0.386800,-2.195687
0.386900,-2.315134
0.387000,-2.394981
0.387100,-2.375506
0.387200,-2.301177
0.387300,-2.241454
0.387400,-2.228146
0.387500,-2.251516
0.387600,-2.274561
0.387700,-2.262227
0.387800,-2.236909
0.387900,-2.201854
0.388000,-2.160957
0.388100,-2.113892
0.388200,-2.042809
0.388300,-1.973997
0.388400,-1.924661
0.388500,-1.886360
0.388600,-1.848384
0.388700,-1.777949
0.388800,-1.678951
0.388900,-1.584498
0.389000,-1.483877
0.389100,-1.422207
0.389200,-1.361510
0.389300,-1.298216
0.389400,-1.219343
0.389500,-1.137873
0.389600,-1.049586
0.389700,-0.969414
0.389800,-0.922025
0.389900,-0.885348
0.390000,-0.861653
0.390100,-0.833090
0.390200,-0.811668
0.390300,-0.775639
0.390400,-0.750646
0.390500,-0.728575
0.390600,-0.715916
0.390700,-0.715591
0.390800,-0.716240
0.390900,-0.710398
0.391000,-0.658465
0.391100,-0.511754
0.391200,-0.379649
0.391300,-0.371859
0.391400,-0.483191
0.391500,-0.606856
0.391600,-0.572126
0.391700,-0.453654
0.391800,-0.331611
0.391900,-0.292661
0.392000,-0.347515
0.392100,-0.428661
0.392200,-0.462742
0.392300,-0.410160
0.392400,-0.339401
0.392500,-0.278380
0.392600,-0.266695
0.392700,-0.280327
0.392800,-0.297530
0.392900,-0.297854
0.393000,-0.288766
0.393100,-0.274160
0.393200,-0.269940
0.393300,-0.269616
0.393400,-0.271563
0.393500,-0.307592
0.393600,-0.341348
0.393700,-0.392957
0.393800,-0.430933
0.393900,-0.450408
0.394000,-0.450732
0.394100,-0.463391
0.394200,-0.506236
0.394300,-0.638341
0.394400,-0.695467
0.394500,-0.701634
0.394600,-0.626331
0.394700,-0.588031
0.394800,-0.626980
0.394900,-0.761357
0.395000,-0.871066
0.395100,-0.892164
0.395200,-0.822379
0.395300,-0.751295
0.395400,-0.763305
0.395500,-0.832765
0.395600,-0.908718
0.395700,-0.951887
0.395800,-0.958054
0.395900,-0.950913
0.396000,-0.969739
0.396100,-1.002197
0.396200,-1.053157
0.396300,-1.075553
0.396400,-1.094054
0.396500,-1.108011
0.396600,-1.101195
0.396700,-1.079772
0.396800,-1.056402
0.396900,-1.039849
0.397000,-1.061271
0.397100,-1.121319
0.397200,-1.159944
0.397300,-1.176498
0.397400,-1.181691
0.397500,-1.167085
0.397600,-1.168383
0.397700,-1.166760
0.397800,-1.155725
0.397900,-1.150207
0.398000,-1.136574
0.398100,-1.130083
0.398200,-1.125538
0.398300,-1.129758
0.398400,-1.128784
0.398500,-1.130407
0.398600,-1.136250
0.398700,-1.134951
0.398800,-1.144689
0.398900,-1.143715
0.399000,-1.153777
0.399100,-1.173577
0.399200,-1.199543
0.399300,-1.232975
0.399400,-1.353071
0.399500,-1.516011
0.399600,-1.578980
0.399700,-1.531591
0.399800,-1.424154
0.399900,-1.406951
0.400000,-1.509519
0.400100,-1.677004
0.400200,-1.788336
0.400300,-1.784441
0.400400,-1.721796
0.400500,-1.680574
0.400600,-1.726990
0.400700,-1.828909
0.400800,-1.920441
0.400900,-1.964584
0.401000,-1.973023
0.401100,-1.970751
0.401200,-1.981787
0.401300,-2.003534
0.401400,-2.031448
0.401500,-2.051572
0.401600,-2.072995
0.401700,-2.093768
0.401800,-2.130771
0.401900,-2.140833
0.402000,-2.150246
0.402100,-2.150895
0.402200,-2.178484
0.402300,-2.204127
0.402400,-2.227496
0.402500,-2.199258
0.402600,-2.108374
0.402700,-2.067477
0.402800,-2.111296
0.402900,-2.219382
0.403000,-2.317731
0.403100,-2.317406
0.403200,-2.236585
0.403300,-2.144728
0.403400,-2.135639
0.403500,-2.224251
0.403600,-2.343697
0.403700,-2.401798
0.403800,-2.374533
0.403900,-2.322924
0.404000,-2.286246
0.404100,-2.283974
0.404200,-2.311239
0.404300,-2.314809
0.404400,-2.310265
0.404500,-2.297282
0.404600,-2.272289
0.404700,-2.232041
0.404800,-2.169721
0.404900,-2.091496
0.405000,-2.021711
0.405100,-1.973023
0.405200,-1.934723
0.405300,-1.890255
0.405400,-1.788336
0.405500,-1.675381
0.405600,-1.555610
0.405700,-1.455639
0.405800,-1.383581
0.405900,-1.313147
0.406000,-1.232651
0.406100,-1.156698
0.406200,-1.060297
0.406300,-0.964221
0.406400,-0.893787
0.406500,-0.844775
0.406600,-0.809720
0.406700,-0.788298
0.406800,-0.763954
0.406900,-0.744804
0.407000,-0.717539
0.407100,-0.689949
0.407200,-0.668851
0.407300,-0.647754
0.407400,-0.662360
0.407500,-0.660737
0.407600,-0.650999
0.407700,-0.581539
0.407800,-0.418599
0.407900,-0.339725
0.408000,-0.349138
0.408100,-0.513377
0.408200,-0.570179
0.408300,-0.534475
0.408400,-0.387114
0.408500,-0.282599
0.408600,-0.274809
0.408700,-0.341998
0.408800,-0.425090
0.408900,-0.430933
0.409000,-0.369912
0.409100,-0.297205
0.409200,-0.245597
0.409300,-0.257282
0.409400,-0.261177
0.409500,-0.271563
0.409600,-0.272537
0.409700,-0.272212
0.409800,-0.274485
0.409900,-0.280002
0.410000,-0.275783
0.410100,-0.276107
0.410200,-0.291038
0.410300,-0.338427
0.410400,-0.384518
0.410500,-0.439048
0.410600,-0.427038
0.410700,-0.425415
0.410800,-0.422169
0.410900,-0.512078
0.411000,-0.625682
0.411100,-0.656842
0.411200,-0.625357
0.411300,-0.534799
0.411400,-0.520518
0.411500,-0.578293
0.411600,-0.710723
0.411700,-0.788622
0.411800,-0.771419
0.411900,-0.685730
0.412000,-0.411783
0.412100,-0.561739
0.412200,-0.768823
0.412300,-0.819133
0.412400,-0.838608
0.412500,-0.814264
0.412600,-0.796737
0.412700,-0.915858
0.412800,-0.906121
0.412900,-0.927219
0.413000,-0.844450
0.413100,-0.916508
0.413200,-0.975257
0.413300,-0.982722
0.413400,-0.951238
0.413500,-0.805176
0.413600,-0.648078
0.413700,-0.831142
0.413800,-1.060622
0.413900,-1.094054
0.414000,-1.096651
0.414100,-1.092106
0.414200,-1.083018
0.414300,-1.082694
0.414400,-1.084966
0.414500,-1.077825
0.414600,-1.061596
0.414700,-0.958054
0.414800,-0.876584
0.414900,-0.865224
0.415000,-0.809071
0.415100,-0.756489
0.415200,-0.685730
0.415300,-0.719811
0.415400,-0.754217
0.415500,-0.760384
0.415600,-0.816861
0.415700,-0.886321
0.415800,-0.999601
0.415900,-1.108660
0.416000,-1.162216
0.416100,-1.298541
0.416200,-1.452068
0.416300,-1.484526
0.416400,-1.415390
0.416500,-1.312173
0.416600,-1.323858
0.416700,-1.457911
0.416800,-1.620851
0.416900,-1.713357
0.417000,-1.682197
0.417100,-1.613386
0.417200,-1.592288
0.417300,-1.656231
0.417400,-1.754579
0.417500,-1.837672
0.417600,-1.856823
0.417700,-1.842541
0.417800,-1.835400
0.417900,-1.855200
0.418000,-1.882789
0.418100,-1.906159
0.418200,-1.914274
0.418300,-1.915572
0.418400,-1.937319
0.418500,-1.973673
0.418600,-1.998341
0.418700,-1.989577
0.418800,-1.983410
0.418900,-2.002560
0.419000,-2.043133
0.419100,-2.063582
0.419200,-2.022035
0.419300,-1.929854
0.419400,-1.906808
0.419500,-1.968155
0.419600,-2.090522
0.419700,-2.170045
0.419800,-2.138561
0.419900,-2.038589
0.420000,-1.960689
0.420100,-1.985358
0.420200,-2.093768
0.420300,-2.208671
0.420400,-2.228470
0.420500,-2.171993
0.420600,-2.108050
0.420700,-2.076565
0.420800,-2.091821
0.420900,-2.118112
0.421000,-2.123305
0.421100,-2.106102
0.421200,-2.075267
0.421300,-2.037615
0.421400,-1.996393
0.421500,-1.934073
0.421600,-1.864613
0.421700,-1.796126
0.421800,-1.748412
0.421900,-1.719200
0.422000,-1.663047
0.422100,-1.569242
0.422200,-1.490694
0.422300,-1.370923
0.422400,-1.290751
0.422500,-1.229080
0.422600,-1.163839
0.422700,-1.097949
0.422800,-1.024593
0.422900,-0.938904
0.423000,-0.855162
0.423100,-0.793166
0.423200,-0.750971
0.423300,-0.719486
0.423400,-0.691572
0.423500,-0.673396
0.423600,-0.650026
0.423700,-0.621463
0.423800,-0.592575
0.423900,-0.575047
0.424000,-0.564985
0.424100,-0.568880
0.424200,-0.563362
0.424300,-0.548107
0.424400,-0.430933
0.424500,-0.277406
0.424600,-0.207621
0.424700,-0.281301
0.424800,-0.432231
0.424900,-0.461119
0.425000,-0.383869
0.425100,-0.241702
0.425200,-0.148871
0.425300,-0.172566
0.425400,-0.236508
0.425500,-0.305644
0.425600,-0.279678
0.425700,-0.220604
0.425800,-0.136213
0.425900,-0.105702
0.426000,-0.119010
0.426100,-0.133941
0.426200,-0.158284
0.426300,-0.158933
0.426400,-0.152766
0.426500,-0.145950
0.426600,-0.147573
0.426700,-0.150170
0.426800,-0.163478
0.426900,-0.218657
0.427000,-0.248193
0.427100,-0.315382
0.427200,-0.339401
0.427300,-0.349463
0.427400,-0.351086
0.427500,-0.369587
0.427600,-0.468584
0.427700,-0.564336
0.427800,-0.605233
0.427900,-0.554599
0.428000,-0.469558
0.428100,-0.393931
0.428200,-0.573424
0.428300,-0.694169
0.428400,-0.750646
0.428500,-0.716890
0.428600,-0.452355
0.428700,-0.249167
0.428800,-0.485787
0.428900,-0.765901
0.429000,-0.802904
0.429100,-0.825625
0.429200,-0.801930
0.429300,-0.786675
0.429400,-0.829520
0.429500,-0.906121
0.429600,-0.913911
0.429700,-0.929491
0.429800,-0.964870
0.429900,-0.984670
0.430000,-1.000574
0.430100,-0.986293
0.430200,-0.907419
0.430300,-0.886646
0.430400,-1.054779
0.430500,-1.100221
0.430600,-1.125863
0.430700,-1.133328
0.430800,-1.129433
0.430900,-1.131381
0.431000,-1.137873
0.431100,-1.139820
0.431200,-1.133653
0.431300,-1.130083
0.431400,-1.120020
0.431500,-1.116775
0.431600,-1.140145
0.431700,-1.106388
0.431800,-1.086589
0.431900,-1.116775
0.432000,-1.110608
0.432100,-1.113529
0.432200,-1.116450
0.432300,-1.127161
0.432400,-1.128460
0.432500,-1.147610
0.432600,-1.169682
0.432700,-1.250178
0.432800,-1.399161
0.432900,-1.515686
0.433000,-1.510168
0.433100,-1.407276
0.433200,-1.341386
0.433300,-1.387152
0.433400,-1.540030
0.433500,-1.682197
0.433600,-1.734455
0.433700,-1.698751
0.433800,-1.636431
0.433900,-1.646493
0.434000,-1.712708
0.434100,-1.814627
0.434200,-1.873052
0.434300,-1.901291
0.434400,-1.908431
0.434500,-1.919792
0.434600,-1.948355
0.434700,-1.968479
0.434800,-1.998665
0.434900,-2.020088
0.435000,-2.046379
0.435100,-2.076565
0.435200,-2.107401
0.435300,-2.121033
0.435400,-2.116489
0.435500,-2.125902
0.435600,-2.153816
0.435700,-2.189845
0.435800,-2.186924
0.435900,-2.124928
0.436000,-2.058389
0.436100,-2.069425
0.436200,-2.150895
0.436300,-2.260279
0.436400,-2.303124
0.436500,-2.244375
0.436600,-2.151544
0.436700,-2.111620
0.436800,-2.161931
0.436900,-2.267420
0.437000,-2.334934
0.437100,-2.331363
0.437200,-2.271964
0.437300,-2.227821
0.437400,-2.222303
0.437500,-2.233014
0.437600,-2.233664
0.437700,-2.218084
0.437800,-2.206074
0.437900,-2.184327
0.438000,-2.144403
0.438100,-2.084680
0.438200,-2.010675
0.438300,-1.931477
0.438400,-1.870455
0.438500,-1.823715
0.438600,-1.790283
0.438700,-1.720498
0.438800,-1.616632
0.438900,-1.511791
0.439000,-1.398512
0.439100,-1.330025
0.439200,-1.269977
0.439300,-1.201491
0.439400,-1.123591
0.439500,-1.037252
0.439600,-0.954159
0.439700,-0.885672
0.439800,-0.832116
0.439900,-0.786026
0.440000,-0.748374
0.440100,-0.726627
0.440200,-0.699038
0.440300,-0.677615
0.440400,-0.646780
0.440500,-0.620164
0.440600,-0.613023
0.440700,-0.599066
0.440800,-0.610751
0.440900,-0.590627
0.441000,-0.558818
0.441100,-0.424117
0.441200,-0.285196
0.441300,-0.252088
0.441400,-0.358551
0.441500,-0.470532
0.441600,-0.466962
0.441700,-0.350112
0.441800,-0.226771
0.441900,-0.188795
0.442000,-0.230666
0.442100,-0.310513
0.442200,-0.341998
0.442300,-0.292661
0.442400,-0.220279
0.442500,-0.167373
0.442600,-0.159907
0.442700,-0.169969
0.442800,-0.169645
0.442900,-0.178408
0.443000,-0.169645
0.443100,-0.169645
0.443200,-0.173215
0.443300,-0.182628
0.443400,-0.178733
0.443500,-0.204050
0.443600,-0.238456
0.443700,-0.286170
0.443800,-0.332585
0.443900,-0.360823
0.444000,-0.363095
0.444100,-0.362771
0.444200,-0.401071
0.444300,-0.509806
0.444400,-0.581864
0.444500,-0.586408
0.444600,-0.515973
0.444700,-0.371535
0.444800,-0.573100
0.444900,-0.624708
0.445000,-0.727601
0.445100,-0.755515
0.445200,-0.694169
0.445300,-0.454303
0.445400,-0.417625
0.445500,-0.921376
0.445600,-0.813615
0.445700,-0.834713
0.445800,-0.837634
0.445900,-0.821080
0.446000,-0.882751
0.446100,-0.912937
0.446200,-0.942474
0.446300,-0.952861
0.446400,-0.960651
0.446500,-0.983047
0.446600,-1.009663
0.446700,-1.011610
0.446800,-0.980775
0.446900,-0.874961
0.447000,-0.926570
0.447100,-1.068737
0.447200,-1.113853
0.447300,-1.125538
0.447400,-1.132355
0.447500,-1.117748
0.447600,-1.128135
0.447700,-1.126188
0.447800,-1.123591
0.447900,-1.124240
0.448000,-1.116775
0.448100,-1.138197
0.448200,-1.121968
0.448300,-1.127486
0.448400,-1.126512
0.448500,-1.135925
0.448600,-1.135925
0.448700,-1.140469
0.448800,-1.150856
0.448900,-1.163190
0.449000,-1.168383
0.449100,-1.182340
0.449200,-1.209605
0.449300,-1.239142
0.449400,-1.345281
0.449500,-1.512765
0.449600,-1.603648
0.449700,-1.573462
0.449800,-1.466025
0.449900,-1.436488
0.450000,-1.518932
0.450100,-1.694531
0.450200,-1.810083
0.450300,-1.820469
0.450400,-1.747114
0.450500,-1.696803
0.450600,-1.729911
0.450700,-1.821443
0.450800,-1.925959
0.450900,-1.965233
0.451000,-1.969453
0.451100,-1.954847
0.451200,-1.967505
0.451300,-2.002236
0.451400,-2.032422
0.451500,-2.049950
0.451600,-2.054818
0.451700,-2.068126
0.451800,-2.095716
0.451900,-2.132069
0.452000,-2.141482
0.452100,-2.143754
0.452200,-2.147649
0.452300,-2.174589
0.452400,-2.204451
0.452500,-2.194389
0.452600,-2.119410
0.452700,-2.063907
0.452800,-2.097988
0.452900,-2.194714
0.453000,-2.298256
0.453100,-2.310590
0.453200,-2.234313
0.453300,-2.148298
0.453400,-2.134666
0.453500,-2.215162
0.453600,-2.331363
0.453700,-2.396280
0.453800,-2.368041
0.453900,-2.294685
0.454000,-2.258656
0.454100,-2.258332
0.454200,-2.276833
0.454300,-2.291764
0.454400,-2.279754
0.454500,-2.259306
0.454600,-2.217759
0.454700,-2.179783
0.454800,-2.121033
0.454900,-2.054169
0.455000,-1.982436
0.455100,-1.929529
0.455200,-1.885061
0.455300,-1.836699
0.455400,-1.747763
0.455500,-1.645844
0.455600,-1.523476
0.455700,-1.419610
0.455800,-1.356316
0.455900,-1.293672
0.456000,-1.226159
0.456100,-1.141768
0.456200,-1.055429
0.456300,-0.974283
0.456400,-0.904498
0.456500,-0.859706
0.456600,-0.827897
0.456700,-0.801605
0.456800,-0.781806
0.456900,-0.765901
0.457000,-0.725978
0.457100,-0.708775
0.457200,-0.680212
0.457300,-0.682484
0.457400,-0.667229
0.457500,-0.689300
0.457600,-0.678914
0.457700,-0.622761
0.457800,-0.478322
0.457900,-0.367315
0.458000,-0.395229
0.458100,-0.531553
0.458200,-0.630551
0.458300,-0.582837
0.458400,-0.460470
0.458500,-0.361797
0.458600,-0.344919
0.458700,-0.432556
0.458800,-0.491630
0.458900,-0.518570
0.459000,-0.453005
0.459100,-0.382570
0.459200,-0.344594
0.459300,-0.336804
0.459400,-0.359200
0.459500,-0.379000
0.459600,-0.390036
0.459700,-0.385167
0.459800,-0.374456
0.459900,-0.372184
0.460000,-0.370885
0.460100,-0.378026
0.460200,-0.412756
0.460300,-0.452355
0.460400,-0.497472
0.460500,-0.544861
0.460600,-0.555897
0.460700,-0.564336
0.460800,-0.570503
0.460900,-0.638341
0.461000,-0.752918
0.461100,-0.804851
0.461200,-0.792842
0.461300,-0.713644
0.461400,-0.694493
0.461500,-0.760384
0.461600,-0.885023
0.461700,-0.966818
0.461800,-0.967467
0.461900,-0.899629
0.462000,-0.850293
0.462100,-0.872689
0.462200,-0.949939
0.462300,-1.002197
0.462400,-1.025892
0.462500,-1.023620
0.462600,-1.026216
0.462700,-1.059648
0.462800,-1.098598
0.462900,-1.145338
0.463000,-1.168383
0.463100,-1.193051
0.463200,-1.218369
0.463300,-1.222264
0.463400,-1.190455
0.463500,-1.143390
0.463600,-1.118722
0.463700,-1.143715
0.463800,-1.203438
0.463900,-1.243362
0.464000,-1.250827
0.464100,-1.257968
0.464200,-1.254398
0.464300,-1.260565
0.464400,-1.259591
0.464500,-1.254722
0.464600,-1.251152
0.464700,-1.243037
0.464800,-1.230378
0.464900,-1.222588
0.465000,-1.218693
0.465100,-1.219992
0.465200,-1.219018
0.465300,-1.232975
0.465400,-1.236870
0.465500,-1.242388
0.465600,-1.249529
0.465700,-1.263161
0.465800,-1.284584
0.465900,-1.309901
0.466000,-1.357939
0.466100,-1.486149
0.466200,-1.645844
0.466300,-1.696803
0.466400,-1.638054
0.466500,-1.540679
0.466600,-1.546197
0.466700,-1.674732
0.466800,-1.845462
0.466900,-1.943162
0.467000,-1.934073
0.467100,-1.874026
0.467200,-1.855200
0.467300,-1.909405
0.467400,-2.013921
0.467500,-2.088250
0.467600,-2.122656
0.467700,-2.122981
0.467800,-2.138885
0.467900,-2.166799
0.468000,-2.184976
0.468100,-2.218084
0.468200,-2.236909
0.468300,-2.248270
0.468400,-2.278131
0.468500,-2.312537
0.468600,-2.332337
0.468700,-2.331363
0.468800,-2.337206
0.468900,-2.346294
0.469000,-2.376156
0.469100,-2.389788
0.469200,-2.350514
0.469300,-2.261253
0.469400,-2.243076
0.469500,-2.294361
0.469600,-2.396604
0.469700,-2.469960
0.469800,-2.442046
0.469900,-2.347592
0.470000,-2.271640
0.470100,-2.290466
0.470200,-2.380375
0.470300,-2.484242
0.470400,-2.513779
0.470500,-2.466065
0.470600,-2.409588
0.470700,-2.378103
0.470800,-2.387841
0.470900,-2.410237
0.471000,-2.411860
0.471100,-2.400824
0.471200,-2.378752
0.471300,-2.344346
0.471400,-2.299554
0.471500,-2.231716
0.471600,-2.152842
0.471700,-2.084355
0.471800,-2.036966
0.471900,-2.000938
0.472000,-1.945758
0.472100,-1.850006
0.472200,-1.753605
0.472300,-1.635782
0.472400,-1.544574
0.472500,-1.477710
0.472600,-1.409548
0.472700,-1.338789
0.472800,-1.263161
0.472900,-1.170006
0.473000,-1.083992
0.473100,-1.026216
0.473200,-0.988889
0.473300,-0.955457
0.473400,-0.928192
0.473500,-0.903524
0.473600,-0.883400
0.473700,-0.853214
0.473800,-0.831467
0.473900,-0.800307
0.474000,-0.800956
0.474100,-0.792842
0.474200,-0.812317
0.474300,-0.787973
0.474400,-0.702933
0.474500,-0.539668
0.474600,-0.453329
0.474700,-0.512728
0.474800,-0.642885
0.474900,-0.703906
0.475000,-0.630551
0.475100,-0.496174
0.475200,-0.405291
0.475300,-0.417950
0.475400,-0.500069
0.475500,-0.566284
0.475600,-0.560117
0.475700,-0.475725
0.475800,-0.404966
0.475900,-0.362771
0.476000,-0.365043
0.476100,-0.379974
0.476200,-0.389386
0.476300,-0.383219
0.476400,-0.359200
0.476500,-0.354007
0.476600,-0.353033
0.476700,-0.358551
0.476800,-0.361797
0.476900,-0.400422
0.477000,-0.430933
0.477100,-0.474752
0.477200,-0.522140
0.477300,-0.519219
0.477400,-0.523114
0.477500,-0.522140
0.477600,-0.622436
0.477700,-0.717214
0.477800,-0.750971
0.477900,-0.714942
0.478000,-0.627630
0.478100,-0.621463
0.478200,-0.698064
0.478300,-0.813290
0.478400,-0.862951
0.478500,-0.832765
0.478600,-0.753243
0.478700,-0.683782
0.478800,-0.761033
0.478900,-0.838608
0.479000,-0.879505
0.479100,-0.897033
0.479200,-0.883076
0.479300,-0.888269
0.479400,-0.911963
0.479500,-0.938579
0.479600,-0.947343
0.479700,-0.956431
0.479800,-0.965195
0.479900,-0.994407
0.480000,-0.990837
0.480100,-0.939877
0.480200,-0.794465
0.480300,-0.713644
0.480400,-0.993109
0.480500,-1.080097
0.480600,-1.103142
0.480700,-1.112880
0.480800,-1.118398
0.480900,-1.112555
0.481000,-1.110932
0.481100,-1.111581
0.481200,-1.106388
0.481300,-1.091782
0.481400,-1.074254
0.481500,-1.080421
0.481600,-1.049911
0.481700,-0.973959
0.481800,-0.967467
0.481900,-0.918455
0.482000,-0.895085
0.482100,-0.929815
0.482200,-0.970713
0.482300,-1.011935
0.482400,-1.194025
0.482500,-1.129433
0.482600,-1.156374
0.482700,-1.227457
0.482800,-1.380011
0.482900,-1.516011
0.483000,-1.528345
0.483100,-1.441357
0.483200,-1.360536
0.483300,-1.395266
0.483400,-1.545223
0.483500,-1.694531
0.483600,-1.766264
0.483700,-1.730885
0.483800,-1.674083
0.483900,-1.660450
0.484000,-1.732832
0.484100,-1.833453
0.484200,-1.904212
0.484300,-1.926608
0.484400,-1.926283
0.484500,-1.924011
0.484600,-1.936995
0.484700,-1.963935
0.484800,-2.000288
0.484900,-2.025930
0.485000,-2.034694
0.485100,-2.057415
0.485200,-2.087277
0.485300,-2.101234
0.485400,-2.111620
0.485500,-2.122656
0.485600,-2.147974
0.485700,-2.169072
0.485800,-2.184652
0.485900,-2.126876
0.486000,-2.050599
0.486100,-2.053520
0.486200,-2.121682
0.486300,-2.222952
0.486400,-2.275210
0.486500,-2.227172
0.486600,-2.134341
0.486700,-2.078513
0.486800,-2.111945
0.486900,-2.211267
0.487000,-2.296308
0.487100,-2.311239
0.487200,-2.271964
0.487300,-2.214513
0.487400,-2.191792
0.487500,-2.192766
0.487600,-2.203477
0.487700,-2.209320
0.487800,-2.204776
0.487900,-2.180432
0.488000,-2.141482
0.488100,-2.087926
0.488200,-2.011973
0.488300,-1.936995
0.488400,-1.883439
0.488500,-1.846436
0.488600,-1.810407
0.488700,-1.742245
0.488800,-1.637080
0.488900,-1.546522
0.489000,-1.427400
0.489100,-1.359887
0.489200,-1.297242
0.489300,-1.229080
0.489400,-1.160918
0.489500,-1.081720
0.489600,-1.001223
0.489700,-0.930789
0.489800,-0.874312
0.489900,-0.842503
0.490000,-0.809071
0.490100,-0.790245
0.490200,-0.774016
0.490300,-0.751620
0.490400,-0.717539
0.490500,-0.688326
0.490600,-0.672097
0.490700,-0.666255
0.490800,-0.678914
0.490900,-0.678264
0.491000,-0.650350
0.491100,-0.536097
0.491200,-0.382570
0.491300,-0.343620
0.491400,-0.438074
0.491500,-0.577319
0.491600,-0.587381
0.491700,-0.500393
0.491800,-0.372833
0.491900,-0.312785
0.492000,-0.332585
0.492100,-0.402694
0.492200,-0.440021
0.492300,-0.411783
0.492400,-0.333234
0.492500,-0.276757
0.492600,-0.248843
0.492700,-0.244948
0.492800,-0.260203
0.492900,-0.259878
0.493000,-0.259229
0.493100,-0.252738
0.493200,-0.243325
0.493300,-0.234236
0.493400,-0.224824
0.493500,-0.260203
0.493600,-0.292337
0.493700,-0.342971
0.493800,-0.376728
0.493900,-0.400422
0.494000,-0.395878
0.494100,-0.394255
0.494200,-0.426713
0.494300,-0.537396
0.494400,-0.616269
0.494500,-0.635744
0.494600,-0.577319
0.494700,-0.521167
0.494800,-0.542914
0.494900,-0.643534
0.495000,-0.738961
0.495100,-0.773691
0.495200,-0.728250
0.495300,-0.485138
0.495400,-0.473778
0.495500,-0.690923
0.495600,-0.789921
0.495700,-0.819133
0.495800,-0.829520
0.495900,-0.808746
0.496000,-0.873987
0.496100,-0.905796
0.496200,-0.943123
0.496300,-0.967467
0.496400,-0.983047
0.496500,-1.009987
0.496600,-1.036603
0.496700,-1.041796
0.496800,-1.019725
0.496900,-0.902226
0.497000,-0.895734
0.497100,-1.064517
0.497200,-1.109309
0.497300,-1.132030
0.497400,-1.097949
0.497500,-1.090484
0.497600,-1.093405
0.497700,-1.090484
0.497800,-1.090159
0.497900,-1.084966
0.498000,-1.074254
0.498100,-1.048288
0.498200,-1.007715
0.498300,-0.946044
0.498400,-0.918780
0.498500,-0.910990
0.498600,-0.938579
0.498700,-0.965844
0.498800,-1.030760
0.498900,-1.035305
0.499000,-1.160918
0.499100,-1.133328
0.499200,-1.154102
0.499300,-1.181691
0.499400,-1.280040
0.499500,-1.445577
0.499600,-1.551715
0.499700,-1.531266
0.499800,-1.437137
0.499900,-1.378713
0.500000,-1.459858
0.500100,-1.618254
0.500200,-1.750684
0.500300,-1.776326
0.500400,-1.724393
0.500500,-1.678627
0.500600,-1.701348
0.500700,-1.796450
0.500800,-1.890579
0.500900,-1.929529
0.501000,-1.936346
0.501100,-1.940565
0.501200,-1.959715
0.501300,-1.988603
0.501400,-2.012947
0.501500,-2.038589
0.501600,-2.048651
0.501700,-2.070074
0.501800,-2.111296
0.501900,-2.147324
0.502000,-2.156737
0.502100,-2.147649
0.502200,-2.149921
0.502300,-2.181406
0.502400,-2.225224
0.502500,-2.218408
0.502600,-2.140184
0.502700,-2.070723
0.502800,-2.092145
0.502900,-2.183353
0.503000,-2.293387
0.503100,-2.319354
0.503200,-2.244375
0.503300,-2.148298
0.503400,-2.124279
0.503500,-2.189845
0.503600,-2.294361
0.503700,-2.351812
0.503800,-2.332012
0.503900,-2.278781
0.504000,-2.238857
0.504100,-2.238857
0.504200,-2.252489
0.504300,-2.252814
0.504400,-2.240480
0.504500,-2.219382
0.504600,-2.190819
0.504700,-2.162580
0.504800,-2.104155
0.504900,-2.018465
0.505000,-1.943486
0.505100,-1.887983
0.505200,-1.853901
0.505300,-1.820794
0.505400,-1.747763
0.505500,-1.645195
0.505600,-1.560803
0.505700,-1.452717
0.505800,-1.392345
0.505900,-1.325806
0.506000,-1.254722
0.506100,-1.169682
0.506200,-1.082044
0.506300,-0.994083
0.506400,-0.925596
0.506500,-0.879505
0.506600,-0.838932
0.506700,-0.808097
0.506800,-0.788947
0.506900,-0.770446
0.507000,-0.745128
0.507100,-0.715267
0.507200,-0.688976
0.507300,-0.677940
0.507400,-0.673071
0.507500,-0.685405
0.507600,-0.676966
0.507700,-0.634121
0.507800,-0.485138
0.507900,-0.358551
0.508000,-0.351735
0.508100,-0.467935
0.508200,-0.584460
0.508300,-0.552327
0.508400,-0.437749
0.508500,-0.313434
0.508600,-0.286819
0.508700,-0.347191
0.508800,-0.434503
0.508900,-0.445864
0.509000,-0.396852
0.509100,-0.310513
0.509200,-0.270590
0.509300,-0.267344
0.509400,-0.294933
0.509500,-0.304346
0.509600,-0.307592
0.509700,-0.286494
0.509800,-0.278704
0.509900,-0.293635
0.510000,-0.310189
0.510100,-0.321549
0.510200,-0.333558
0.510300,-0.364394
0.510400,-0.400422
0.510500,-0.456250
0.510600,-0.482217
0.510700,-0.488384
0.510800,-0.480269
0.510900,-0.528957
0.511000,-0.638990
0.511100,-0.707152
0.511200,-0.702283
0.511300,-0.633472
0.511400,-0.586408
0.511500,-0.635095
0.511600,-0.759410
0.511700,-0.849319
0.511800,-0.863925
0.511900,-0.803228
0.512000,-0.749672
0.512100,-0.779209
0.512200,-0.856784
0.512300,-0.922675
0.512400,-0.944422
0.512500,-0.940202
0.512600,-0.935658
0.512700,-0.958703
0.512800,-1.003820
0.512900,-1.051858
0.513000,-1.071982
0.513100,-1.080421
0.513200,-1.098273
0.513300,-1.105739
0.513400,-1.110283
0.513500,-1.094379
0.513600,-1.082369
0.513700,-1.098923
0.513800,-1.148259
0.513900,-1.182665
0.514000,-1.182665
0.514100,-1.146636
0.514200,-1.138522
0.514300,-1.148259
0.514400,-1.157023
0.514500,-1.152803
0.514600,-1.150856
0.514700,-1.151180
0.514800,-1.140469
0.514900,-1.140794
0.515000,-1.139495
0.515100,-1.138197
0.515200,-1.131381
0.515300,-1.136250
0.515400,-1.136899
0.515500,-1.143715
0.515600,-1.148584
0.515700,-1.159295
0.515800,-1.174550
0.515900,-1.203438
0.516000,-1.238818
0.516100,-1.358588
0.516200,-1.513090
0.516300,-1.582226
0.516400,-1.529319
0.516500,-1.432918
0.516600,-1.409223
0.516700,-1.519257
0.516800,-1.679276
0.516900,-1.793854
0.517000,-1.793204
0.517100,-1.733157
0.517200,-1.690636
0.517300,-1.730235
0.517400,-1.822417
0.517500,-1.907782
0.517600,-1.950952
0.517700,-1.955820
0.517800,-1.947381
0.517900,-1.958742
0.518000,-1.982112
0.518100,-2.017167
0.518200,-2.037615
0.518300,-2.045405
0.518400,-2.058389
0.518500,-2.095391
0.518600,-2.122656
0.518700,-2.132718
0.518800,-2.127200
0.518900,-2.135639
0.519000,-2.162580
0.519100,-2.190169
0.519200,-2.169396
0.519300,-2.088575
0.519400,-2.048651
0.519500,-2.082408
0.519600,-2.183678
0.519700,-2.283325
0.519800,-2.276833
0.519900,-2.182704
0.520000,-2.101883
0.520100,-2.098312
0.520200,-2.176537
0.520300,-2.286895
0.520400,-2.338179
0.520500,-2.306370
0.520600,-2.242752
0.520700,-2.210294
0.520800,-2.214189
0.520900,-2.231716
0.521000,-2.240155
0.521100,-2.228470
0.521200,-2.204127
0.521300,-2.172967
0.521400,-2.123954
0.521500,-2.074618
0.521600,-2.000288
0.521700,-1.937644
0.521800,-1.889930
0.521900,-1.845462
0.522000,-1.804889
0.522100,-1.713033
0.522200,-1.615658
0.522300,-1.487448
0.522400,-1.400135
0.522500,-1.336192
0.522600,-1.272574
0.522700,-1.198245
0.522800,-1.120994
0.522900,-1.035629
0.523000,-0.950913
0.523100,-0.883725
0.523200,-0.838932
0.523300,-0.813290
0.523400,-0.775964
0.523500,-0.759410
0.523600,-0.736365
0.523700,-0.704555
0.523800,-0.671448
0.523900,-0.651324
0.524000,-0.649052
0.524100,-0.634446
0.524200,-0.650350
0.524300,-0.621138
0.524400,-0.546484
0.524500,-0.383869
0.524600,-0.296881
0.524700,-0.322847
0.524800,-0.475401
0.524900,-0.548107
0.525000,-0.484814
0.525100,-0.357577
0.525200,-0.257931
0.525300,-0.259878
0.525400,-0.322198
0.525500,-0.386790
0.525600,-0.388737
0.525700,-0.337453
0.525800,-0.266045
0.525900,-0.232614
0.526000,-0.234561
0.526100,-0.248518
0.526200,-0.261177
0.526300,-0.265072
0.526400,-0.257931
0.526500,-0.255010
0.526600,-0.257931
0.526700,-0.254036
0.526800,-0.276432
0.526900,-0.287143
0.527000,-0.344594
0.527100,-0.374780
0.527200,-0.418274
0.527300,-0.434503
0.527400,-0.430608
0.527500,-0.450732
0.527600,-0.523439
0.527700,-0.629902
0.527800,-0.673720
0.527900,-0.658465
0.528000,-0.571477
0.528100,-0.555897
0.528200,-0.632174
0.528300,-0.751295
0.528400,-0.815887
0.528500,-0.802579
0.528600,-0.733119
0.528700,-0.604260
0.528800,-0.700985
0.528900,-0.811018
0.529000,-0.860679
0.529100,-0.884374
0.529200,-0.879830
0.529300,-0.895734
0.529400,-0.925596
0.529500,-0.960651
0.529600,-0.987591
0.529700,-1.002846
0.529800,-1.019400
0.529900,-1.037577
0.530000,-1.046665
0.530100,-1.041147
0.530200,-1.019400
0.530300,-1.013882
0.530400,-1.070035
0.530500,-1.129109
0.530600,-1.159620
0.530700,-1.165137
0.530800,-1.154426
0.530900,-1.154426
0.531000,-1.161892
0.531100,-1.164488
0.531200,-1.158970
0.531300,-1.152479
0.531400,-1.150856
0.531500,-1.140145
0.531600,-1.136899
0.531700,-1.127161
0.531800,-1.133328
0.531900,-1.135600
0.532000,-1.133653
0.532100,-1.131056
0.532200,-1.151830
0.532300,-1.151505
0.532400,-1.166436
0.532500,-1.186235
0.532600,-1.206684
0.532700,-1.272250
0.532800,-1.407276
0.532900,-1.549443
0.533000,-1.558207
0.533100,-1.484202
0.533200,-1.396565
0.533300,-1.421233
0.533400,-1.550092
0.533500,-1.711085
0.533600,-1.783142
0.533700,-1.754255
0.533800,-1.685768
0.533900,-1.675056
0.534000,-1.738675
0.534100,-1.839295
0.534200,-1.907133
0.534300,-1.933424
0.534400,-1.925634
0.534500,-1.924011
0.534600,-1.942188
0.534700,-1.972050
0.534800,-1.994121
0.534900,-2.009052
0.535000,-2.023009
0.535100,-2.053520
0.535200,-2.087926
0.535300,-2.114866
0.535400,-2.113243
0.535500,-2.121033
0.535600,-2.134666
0.535700,-2.168747
0.535800,-2.183678
0.535900,-2.136289
0.536000,-2.052871
0.536100,-2.033720
0.536200,-2.095067
0.536300,-2.206723
0.536400,-2.277807
0.536500,-2.230742
0.536600,-2.113243
0.536700,-2.038914
0.536800,-2.065854
0.536900,-2.166150
0.537000,-2.253463
0.537100,-2.265797
0.537200,-2.206723
0.537300,-2.140184
0.537400,-2.108699
0.537500,-2.126876
0.537600,-2.153492
0.537700,-2.149921
0.537800,-2.122007
0.537900,-2.091172
0.538000,-2.059362
0.538100,-2.010350
0.538200,-1.931477
0.538300,-1.851954
0.538400,-1.785415
0.538500,-1.746789
0.538600,-1.713033
0.538700,-1.663371
0.538800,-1.562102
0.538900,-1.476736
0.539000,-1.370923
0.539100,-1.293023
0.539200,-1.234923
0.539300,-1.178445
0.539400,-1.112555
0.539500,-1.033032
0.539600,-0.941500
0.539700,-0.861978
0.539800,-0.804527
0.539900,-0.769796
0.540000,-0.743181
0.540100,-0.718188
0.540200,-0.709424
0.540300,-0.682159
0.540400,-0.656193
0.540500,-0.629577
0.540600,-0.617568
0.540700,-0.622436
0.540800,-0.622436
0.540900,-0.636393
0.541000,-0.590952
0.541100,-0.502016
0.541200,-0.340375
0.541300,-0.292337
0.541400,-0.379649
0.541500,-0.517921
0.541600,-0.557844
0.541700,-0.457549
0.541800,-0.332260
0.541900,-0.263773
0.542000,-0.273186
0.542100,-0.363095
0.542200,-0.411133
0.542300,-0.396852
0.542400,-0.320251
0.542500,-0.258580
0.542600,-0.226446
0.542700,-0.241702
0.542800,-0.259554
0.542900,-0.256633
0.543000,-0.241377
0.543100,-0.228719
0.543200,-0.224499
0.543300,-0.225473
0.543400,-0.220929
0.543500,-0.236833
0.543600,-0.263773
0.543700,-0.300776
0.543800,-0.327067
0.543900,-0.366341
0.544000,-0.362122
0.544100,-0.369912
0.544200,-0.384193
0.544300,-0.489358
0.544400,-0.592575
0.544500,-0.628279
0.544600,-0.578293
0.544700,-0.442942
0.544800,-0.374131
0.544900,-0.603286
0.545000,-0.732470
0.545100,-0.783753
0.545200,-0.736365
0.545300,-0.413730
0.545400,-0.324470
0.545500,-0.568556
0.545600,-0.799009
0.545700,-0.843152
0.545800,-0.866846
0.545900,-0.851591
0.546000,-0.871715
0.546100,-0.899954
0.546200,-0.930465
0.546300,-0.974932
0.546400,-1.002197
0.546500,-1.025243
0.546600,-1.038875
0.546700,-1.041147
0.546800,-1.036603
0.546900,-0.939553
0.547000,-0.855162
0.547100,-1.116126
0.547200,-1.103142
0.547300,-1.113204
0.547400,-1.099247
0.547500,-1.012259
0.547600,-1.136899
0.547700,-1.084966
0.547800,-1.077825
0.547900,-1.034655
0.548000,-1.026865
0.548100,-0.983047
0.548200,-0.949290
0.548300,-0.884698
0.548400,-0.872689
0.548500,-0.879181
0.548600,-0.876259
0.548700,-0.873338
0.548800,-0.903849
0.548900,-0.918780
0.549000,-0.994083
0.549100,-1.137548
0.549200,-1.126512
0.549300,-1.155725
0.549400,-1.234923
0.549500,-1.401433
0.549600,-1.506923
0.549700,-1.502054
0.549800,-1.413118
0.549900,-1.346254
0.550000,-1.409548
0.550100,-1.563725
0.550200,-1.711734
0.550300,-1.759448
0.550400,-1.728613
0.550500,-1.677653
0.550600,-1.683171
0.550700,-1.758150
0.550800,-1.858121
0.550900,-1.934073
0.551000,-1.946408
0.551100,-1.947706
0.551200,-1.955820
0.551300,-1.972374
0.551400,-1.998665
0.551500,-2.024632
0.551600,-2.039238
0.551700,-2.066828
0.551800,-2.086303
0.551900,-2.109673
0.552000,-2.122656
0.552100,-2.130446
0.552200,-2.140833
0.552300,-2.173616
0.552400,-2.188547
0.552500,-2.190819
0.552600,-2.117787
0.552700,-2.043782
0.552800,-2.056117
0.552900,-2.134017
0.553000,-2.235936
0.553100,-2.286895
0.553200,-2.220356
0.553300,-2.118761
0.553400,-2.073320
0.553500,-2.132394
0.553600,-2.243401
0.553700,-2.310590
0.553800,-2.306370
0.553900,-2.255086
0.554000,-2.213539
0.554100,-2.197310
0.554200,-2.206399
0.554300,-2.221979
0.554400,-2.217434
0.554500,-2.208671
0.554600,-2.187248
0.554700,-2.155439
0.554800,-2.106427
0.554900,-2.031773
0.555000,-1.954847
0.555100,-1.909730
0.555200,-1.874026
0.555300,-1.842866
0.555400,-1.772431
0.555500,-1.668565
0.555600,-1.569892
0.555700,-1.465051
0.555800,-1.405328
0.555900,-1.349176
0.556000,-1.278092
0.556100,-1.209605
0.556200,-1.137548
0.556300,-1.048612
0.556400,-0.981099
0.556500,-0.924622
0.556600,-0.902550
0.556700,-0.862302
0.556800,-0.848345
0.556900,-0.834388
0.557000,-0.812317
0.557100,-0.783104
0.557200,-0.757462
0.557300,-0.747725
0.557400,-0.749023
0.557500,-0.750971
0.557600,-0.759085
0.557700,-0.704880
0.557800,-0.586732
0.557900,-0.435802
0.558000,-0.415678
0.558100,-0.535124
0.558200,-0.655544
0.558300,-0.663658
0.558400,-0.521491
0.558500,-0.400422
0.558600,-0.342322
0.558700,-0.381272
0.558800,-0.461444
0.558900,-0.485787
0.559000,-0.451057
0.559100,-0.366341
0.559200,-0.312136
0.559300,-0.280002
0.559400,-0.290064
0.559500,-0.302399
0.559600,-0.305969
0.559700,-0.300451
0.559800,-0.281950
0.559900,-0.284547
0.560000,-0.280652
0.560100,-0.266695
0.560200,-0.284547
0.560300,-0.323172
0.560400,-0.363745
0.560500,-0.401396
0.560600,-0.420871
0.560700,-0.416327
0.560800,-0.407888
0.560900,-0.454627
0.561000,-0.569529
0.561100,-0.660088
0.561200,-0.657491
0.561300,-0.584785
0.561400,-0.416651
0.561500,-0.568880
0.561600,-0.685405
0.561700,-0.799333
0.561800,-0.818159
0.561900,-0.754866
0.562000,-0.471181
0.562100,-0.497148
0.562200,-0.935333
0.562300,-0.834388
0.562400,-0.870417
0.562500,-0.869119
0.562600,-0.835362
0.562700,-0.884049
0.562800,-0.923324
0.562900,-0.954159
0.563000,-0.959677
0.563100,-0.972011
0.563200,-1.000574
0.563300,-1.018751
0.563400,-1.026865
0.563500,-0.920078
0.563600,-0.829844
0.563700,-0.840880
0.563800,-1.072631
0.563900,-1.115152
0.564000,-1.124240
0.564100,-1.127486
0.564200,-1.112231
0.564300,-1.115801
0.564400,-1.111906
0.564500,-1.097949
0.564600,-1.091133
0.564700,-1.053481
0.564800,-0.973634
0.564900,-0.889243
0.565000,-0.847696
0.565100,-0.824002
0.565200,-0.796088
0.565300,-0.801605
0.565400,-0.812966
0.565500,-0.878207
0.565600,-0.912288
0.565700,-0.997653
0.565800,-1.034006
0.565900,-1.125214
0.566000,-1.163515
0.566100,-1.274522
0.566200,-1.442006
0.566300,-1.518283
0.566400,-1.489071
0.566500,-1.370598
0.566600,-1.339114
0.566700,-1.427400
0.566800,-1.613386
0.566900,-1.739648
0.567000,-1.749061
0.567100,-1.680250
0.567200,-1.630264
0.567300,-1.668565
0.567400,-1.769185
0.567500,-1.871104
0.567600,-1.924336
0.567700,-1.922064
0.567800,-1.915897
0.567900,-1.936670
0.568000,-1.970427
0.568100,-2.005157
0.568200,-2.034370
0.568300,-2.047677
0.568400,-2.062933
0.568500,-2.099611
0.568600,-2.131420
0.568700,-2.138561
0.568800,-2.133367
0.568900,-2.145377
0.569000,-2.169721
0.569100,-2.195363
0.569200,-2.181406
0.569300,-2.090522
0.569400,-2.033071
0.569500,-2.057415
0.569600,-2.154141
0.569700,-2.262551
0.569800,-2.272938
0.569900,-2.188547
0.570000,-2.086952
0.570100,-2.064556
0.570200,-2.147324
0.570300,-2.266122
0.570400,-2.332012
0.570500,-2.302800
0.570600,-2.229444
0.570700,-2.180107
0.570800,-2.178160
0.570900,-2.196337
0.571000,-2.207048
0.571100,-2.196661
0.571200,-2.177835
0.571300,-2.142780
0.571400,-2.100260
0.571500,-2.050923
0.571600,-1.982112
0.571700,-1.918818
0.571800,-1.864613
0.571900,-1.826312
0.572000,-1.794178
0.572100,-1.707839
0.572200,-1.615658
0.572300,-1.501405
0.572400,-1.403056
0.572500,-1.336192
0.572600,-1.282961
0.572700,-1.217071
0.572800,-1.153777
0.572900,-1.071658
0.573000,-0.994083
0.573100,-0.922999
0.573200,-0.885348
0.573300,-0.858083
0.573400,-0.829844
0.573500,-0.833090
0.573600,-0.809720
0.573700,-0.796412
0.573800,-0.767524
0.573900,-0.759085
0.574000,-0.737987
0.574100,-0.748699
0.574200,-0.750646
0.574300,-0.732470
0.574400,-0.665930
0.574500,-0.516623
0.574600,-0.399773
0.574700,-0.416976
0.574800,-0.551677
0.574900,-0.647754
0.575000,-0.614971
0.575100,-0.490656
0.575200,-0.367315
0.575300,-0.345568
0.575400,-0.400098
0.575500,-0.481243
0.575600,-0.497472
0.575700,-0.444565
0.575800,-0.365692
0.575900,-0.311811
0.576000,-0.300776
0.576100,-0.316680
0.576200,-0.332585
0.576300,-0.346542
0.576400,-0.328365
0.576500,-0.314408
0.576600,-0.304346
0.576700,-0.302399
0.576800,-0.298504
0.576900,-0.334532
0.577000,-0.364718
0.577100,-0.414379
0.577200,-0.435153
0.577300,-0.457549
0.577400,-0.449759
0.577500,-0.454952
0.577600,-0.523763
0.577700,-0.639964
0.577800,-0.692546
0.577900,-0.675019
0.578000,-0.601988
0.578100,-0.567582
0.578200,-0.625357
0.578300,-0.740584
0.578400,-0.823352
0.578500,-0.826598
0.578600,-0.758111
0.578700,-0.553300
0.578800,-0.615620
0.578900,-0.803553
0.579000,-0.853214
0.579100,-0.893462
0.579200,-0.897682
0.579300,-0.900278
0.579400,-0.929166
0.579500,-0.955457
0.579600,-0.998951
0.579700,-1.025567
0.579800,-1.048937
0.579900,-1.071982
0.580000,-1.081395
0.580100,-1.073605
0.580200,-1.058025
0.580300,-1.052183
0.580400,-1.082044
0.580500,-1.136250
0.580600,-1.167409
0.580700,-1.157997
0.580800,-1.107037
0.580900,-1.109958
0.581000,-1.111257
0.581100,-1.115801
0.581200,-1.108985
0.581300,-1.092756
0.581400,-1.052832
0.581500,-1.058674
0.581600,-0.974283
0.581700,-0.932087
0.581800,-0.914235
0.581900,-0.879181
0.582000,-0.893138
0.582100,-0.906770
0.582200,-0.904823
0.582300,-0.928842
0.582400,-1.018751
0.582500,-1.120345
0.582600,-1.139171
0.582700,-1.180393
0.582800,-1.316393
0.582900,-1.462130
0.583000,-1.514388
0.583100,-1.446550
0.583200,-1.349825
0.583300,-1.349825
0.583400,-1.471219
0.583500,-1.629939
0.583600,-1.715954
0.583700,-1.705567
0.583800,-1.647791
0.583900,-1.616956
0.584000,-1.661424
0.584100,-1.753605
0.584200,-1.820794
0.584300,-1.853901
0.584400,-1.872403
0.584500,-1.877271
0.584600,-1.888632
0.584700,-1.898694
0.584800,-1.920116
0.584900,-1.935047
0.585000,-1.956470
0.585100,-1.987954
0.585200,-2.024957
0.585300,-2.037615
0.585400,-2.037291
0.585500,-2.034370
0.585600,-2.053845
0.585700,-2.085654
0.585800,-2.109024
0.585900,-2.062608
0.586000,-1.979515
0.586100,-1.958742
0.586200,-2.007754
0.586300,-2.110971
0.586400,-2.189520
0.586500,-2.171344
0.586600,-2.085005
0.586700,-2.013596
0.586800,-2.027229
0.586900,-2.114866
0.587000,-2.207372
0.587100,-2.235936
0.587200,-2.203477
0.587300,-2.155114
0.587400,-2.134666
0.587500,-2.136289
0.587600,-2.139859
0.587700,-2.137912
0.587800,-2.123305
0.587900,-2.108699
0.588000,-2.089873
0.588100,-2.045081
0.588200,-1.965233
0.588300,-1.881166
0.588400,-1.819820
0.588500,-1.774379
0.588600,-1.745815
0.588700,-1.698426
0.588800,-1.602674
0.588900,-1.517309
0.589000,-1.406302
0.589100,-1.330025
0.589200,-1.269004
0.589300,-1.205061
0.589400,-1.137548
0.589500,-1.060297
0.589600,-0.972336
0.589700,-0.898331
0.589800,-0.837634
0.589900,-0.804202
0.590000,-0.777262
0.590100,-0.754541
0.590200,-0.743505
0.590300,-0.721109
0.590400,-0.704880
0.590500,-0.684107
0.590600,-0.666579
0.590700,-0.669176
0.590800,-0.668851
0.590900,-0.684431
0.591000,-0.656842
0.591100,-0.580241
0.591200,-0.425090
0.591300,-0.345568
0.591400,-0.410160
0.591500,-0.560117
0.591600,-0.608804
0.591700,-0.528632
0.591800,-0.389711
0.591900,-0.308566
0.592000,-0.304995
0.592100,-0.379974
0.592200,-0.419248
0.592300,-0.409511
0.592400,-0.331936
0.592500,-0.266045
0.592600,-0.237807
0.592700,-0.236508
0.592800,-0.249167
0.592900,-0.244623
0.593000,-0.242351
0.593100,-0.233912
0.593200,-0.240079
0.593300,-0.241377
0.593400,-0.233263
0.593500,-0.233587
0.593600,-0.266370
0.593700,-0.316680
0.593800,-0.360499
0.593900,-0.405291
0.594000,-0.407238
0.594100,-0.408212
0.594200,-0.417301
0.594300,-0.516623
0.594400,-0.621787
0.594500,-0.664632
0.594600,-0.627954
0.594700,-0.551028
0.594800,-0.557844
0.594900,-0.649377
0.595000,-0.771419
0.595100,-0.833739
0.595200,-0.807123
0.595300,-0.732794
0.595400,-0.651649
0.595500,-0.777586
0.595600,-0.855811
0.595700,-0.893787
0.595800,-0.899629
0.595900,-0.890541
0.596000,-0.904173
0.596100,-0.941825
0.596200,-0.982722
0.596300,-1.022646
0.596400,-1.035629
0.596500,-1.052832
0.596600,-1.071333
0.596700,-1.073930
0.596800,-1.062569
0.596900,-1.043095
0.597000,-1.044068
0.597100,-1.075553
0.597200,-1.122942
0.597300,-1.140469
0.597400,-1.130083
0.597500,-1.097949
0.597600,-1.106063
0.597700,-1.104441
0.597800,-1.105090
0.597900,-1.054779
0.598000,-1.058350
0.598100,-0.976231
0.598200,-0.942799
0.598300,-0.898331
0.598400,-0.859056
0.598500,-0.856784
0.598600,-0.833415
0.598700,-0.846073
0.598800,-0.860030
0.598900,-0.899954
0.599000,-0.954159
0.599100,-1.055429
0.599200,-1.133978
0.599300,-1.165137
0.599400,-1.236870
0.599500,-1.381958
0.599600,-1.516336
0.599700,-1.512765
0.599800,-1.444603
0.599900,-1.360861
0.600000,-1.406951
0.600100,-1.562751
0.600200,-1.710760
0.600300,-1.770808
0.600400,-1.724068
0.600500,-1.664345
0.600600,-1.655906
0.600700,-1.738025
0.600800,-1.834426
0.600900,-1.881816
0.601000,-1.897396
0.601100,-1.880842
0.601200,-1.881166
0.601300,-1.903563
0.601400,-1.924336
0.601500,-1.942513
0.601600,-1.944460
0.601700,-1.953224
0.601800,-1.981463
0.601900,-2.023009
0.602000,-2.046379
0.602100,-2.048976
0.602200,-2.060012
0.602300,-2.088250
0.602400,-2.122981
0.602500,-2.133692
0.602600,-2.078188
0.602700,-1.998990
0.602800,-1.998990
0.602900,-2.071372
0.603000,-2.189520
0.603100,-2.244050
0.603200,-2.197310
0.603300,-2.101883
0.603400,-2.054818
0.603500,-2.101558
0.603600,-2.218733
0.603700,-2.307344
0.603800,-2.307669
0.603900,-2.247621
0.604000,-2.190819
0.604100,-2.174265
0.604200,-2.193740
0.604300,-2.207048
0.604400,-2.199582
0.604500,-2.181081
0.604600,-2.150895
0.604700,-2.115515
0.604800,-2.067477
0.604900,-1.989577
0.605000,-1.913300
0.605100,-1.856498
0.605200,-1.809109
0.605300,-1.776975
0.605400,-1.712708
0.605500,-1.607219
0.605600,-1.518932
0.605700,-1.400135
0.605800,-1.326455
0.605900,-1.261863
0.606000,-1.194674
0.606100,-1.115152
0.606200,-1.034980
0.606300,-0.947667
0.606400,-0.867820
0.606500,-0.815887
0.606600,-0.778236
0.606700,-0.744479
0.606800,-0.719811
0.606900,-0.696116
0.607000,-0.672097
0.607100,-0.635095
0.607200,-0.613348
0.607300,-0.593873
0.607400,-0.598742
0.607500,-0.592575
0.607600,-0.598417
0.607700,-0.551353
0.607800,-0.439697
0.607900,-0.277081
0.608000,-0.231640
0.608100,-0.339076
0.608200,-0.459821
0.608300,-0.490331
0.608400,-0.375429
0.608500,-0.260528
0.608600,-0.197234
0.608700,-0.245272
0.608800,-0.328365
0.608900,-0.360499
0.609000,-0.330637
0.609100,-0.248843
0.609200,-0.198208
0.609300,-0.174189
0.609400,-0.192041
0.609500,-0.194962
0.609600,-0.202427
0.609700,-0.196910
0.609800,-0.185874
0.609900,-0.174189
0.610000,-0.180356
0.610100,-0.185225
0.610200,-0.211191
0.610300,-0.250466
0.610400,-0.290064
0.610500,-0.345568
0.610600,-0.376403
0.610700,-0.374456
0.610800,-0.372184
0.610900,-0.411783
0.611000,-0.523439
0.611100,-0.612699
0.611200,-0.629252
0.611300,-0.582513
0.611400,-0.504613
0.611500,-0.566608
0.611600,-0.670799
0.611700,-0.783429
0.611800,-0.824002
0.611900,-0.774016
0.612000,-0.685081
0.612100,-0.597768
0.612200,-0.790894
0.612300,-0.861329
0.612400,-0.893787
0.612500,-0.900278
0.612600,-0.892488
0.612700,-0.911639
0.612800,-0.942799
0.612900,-0.982722
0.613000,-1.005443
0.613100,-1.021997
0.613200,-1.042445
0.613300,-1.065815
0.613400,-1.072631
0.613500,-1.057376
0.613600,-0.986942
0.613700,-1.158970
0.613800,-1.103467
0.613900,-1.149882
0.614000,-1.154751
0.614100,-1.121968
0.614200,-1.106388
0.614300,-1.121968
0.614400,-1.131705
0.614500,-1.131056
0.614600,-1.122942
0.614700,-1.122293
0.614800,-1.120670
0.614900,-1.118398
0.615000,-1.087887
0.615100,-1.110932
0.615200,-1.041147
0.615300,-1.056727
0.615400,-1.032383
0.615500,-1.082044
0.615600,-1.090808
0.615700,-1.188507
0.615800,-1.142741
0.615900,-1.159620
0.616000,-1.193376
0.616100,-1.283285
0.616200,-1.449147
0.616300,-1.541328
0.616400,-1.513090
0.616500,-1.405328
0.616600,-1.356966
0.616700,-1.437137
0.616800,-1.600727
0.616900,-1.712708
0.617000,-1.732832
0.617100,-1.671161
0.617200,-1.627992
0.617300,-1.648441
0.617400,-1.734455
0.617500,-1.826312
0.617600,-1.871429
0.617700,-1.874675
0.617800,-1.870131
0.617900,-1.875649
0.618000,-1.899992
0.618100,-1.923038
0.618200,-1.941214
0.618300,-1.944460
0.618400,-1.963286
0.618500,-1.995744
0.618600,-2.019439
0.618700,-2.027229
0.618800,-2.024632
0.618900,-2.030799
0.619000,-2.065205
0.619100,-2.090522
0.619200,-2.085329
0.619300,-2.010026
0.619400,-1.958093
0.619500,-1.984708
0.619600,-2.073644
0.619700,-2.175888
0.619800,-2.200556
0.619900,-2.118761
0.620000,-2.026904
0.620100,-2.001587
0.620200,-2.073969
0.620300,-2.178484
0.620400,-2.241129
0.620500,-2.222628
0.620600,-2.159983
0.620700,-2.119735
0.620800,-2.111296
0.620900,-2.128499
0.621000,-2.133367
0.621100,-2.118112
0.621200,-2.099611
0.621300,-2.071372
0.621400,-2.041186
0.621500,-1.990226
0.621600,-1.913625
0.621700,-1.843190
0.621800,-1.793854
0.621900,-1.756202
0.622000,-1.721147
0.622100,-1.638379
0.622200,-1.548145
0.622300,-1.448822
0.622400,-1.347553
0.622500,-1.283935
0.622600,-1.228756
0.622700,-1.170980
0.622800,-1.093405
0.622900,-1.013558
0.623000,-0.935333
0.623100,-0.863925
0.623200,-0.821730
0.623300,-0.791543
0.623400,-0.764279
0.623500,-0.743505
0.623600,-0.725004
0.623700,-0.698064
0.623800,-0.677940
0.623900,-0.644508
0.624000,-0.644183
0.624100,-0.642885
0.624200,-0.661386
0.624300,-0.642885
0.624400,-0.599391
0.624500,-0.446188
0.624600,-0.332585
0.624700,-0.320900
0.624800,-0.467286
0.624900,-0.559467
0.625000,-0.542589
0.625100,-0.409835
0.625200,-0.298504
0.625300,-0.264098
0.625400,-0.326742
0.625500,-0.401396
0.625600,-0.416651
0.625700,-0.357902
0.625800,-0.276107
0.625900,-0.222227
0.626000,-0.216384
0.626100,-0.224824
0.626200,-0.239754
0.626300,-0.242351
0.626400,-0.219630
0.626500,-0.208919
0.626600,-0.197234
0.626700,-0.200480
0.626800,-0.213788
0.626900,-0.225797
0.627000,-0.274485
0.627100,-0.310513
0.627200,-0.357577
0.627300,-0.371859
0.627400,-0.370885
0.627500,-0.372508
0.627600,-0.423468
0.627700,-0.550704
0.627800,-0.598417
0.627900,-0.592899
0.628000,-0.497472
0.628100,-0.204050
0.628200,-0.347515
0.628300,-0.636718
0.628400,-0.727925
0.628500,-0.742856
0.628600,-0.656517
0.628700,-0.106351
0.628800,-0.058313
0.628900,-0.457224
0.629000,-0.885672
0.629100,-0.817835
0.629200,-0.767200
0.629300,-0.591601
0.629400,-0.561415
0.629500,-0.644183
0.629600,-0.778236
0.629700,-0.747725
0.629800,-0.756164
0.629900,-0.813615
0.630000,-0.800307
0.630100,-0.703582
0.630200,-0.527334
0.630300,-0.423143
0.630400,-0.519219
0.630500,-0.860355
0.630600,-1.066789
0.630700,-1.051534
0.630800,-1.048612
0.630900,-0.949615
0.631000,-0.983696
0.631100,-0.993109
0.631200,-0.964221
0.631300,-0.926894
0.631400,-0.838932
0.631500,-0.786675
