0.000100,-2.511182
0.000200,-2.453082
0.000300,-2.420948
0.000400,-2.410561
0.000500,-2.419974
0.000600,-2.424519
0.000700,-2.409263
0.000800,-2.395306
0.000900,-2.370638
0.001000,-2.329416
0.001100,-2.261902
0.001200,-2.177511
0.001300,-2.110322
0.001400,-2.069100
0.001500,-2.038914
0.001600,-1.999964
0.001700,-1.915248
0.001800,-1.822092
0.001900,-1.738025
0.002000,-1.634808
0.002100,-1.571515
0.002200,-1.508221
0.002300,-1.439734
0.002400,-1.358913
0.002500,-1.272574
0.002600,-1.180717
0.002700,-1.115476
0.002800,-1.067763
0.002900,-1.028164
0.003000,-0.998951
0.003100,-0.972660
0.003200,-0.951562
0.003300,-0.903849
0.003400,-0.879830
0.003500,-0.850293
0.003600,-0.842827
0.003700,-0.838608
0.003800,-0.846398
0.003900,-0.836985
0.004000,-0.772718
0.004100,-0.623410
0.004200,-0.531229
0.004300,-0.524737
0.004400,-0.678589
0.004500,-0.753243
0.004600,-0.731496
0.004700,-0.595821
0.004800,-0.509157
0.004900,-0.488709
0.005000,-0.550054
0.005100,-0.632498
0.005200,-0.636069
0.005300,-0.589653
0.005400,-0.504938
0.005500,-0.458847
0.005600,-0.358227
0.005700,-0.323496
0.005800,-0.247869
0.005900,-0.020337
0.006000,0.186097
0.006100,0.446411
0.006200,0.590201
0.006300,0.788845
0.006400,1.005016
0.006500,0.943670
0.006600,0.940424
0.006700,0.727499
0.006800,0.736587
0.006900,0.780406
0.007000,0.995279
0.007100,1.068634
0.007200,0.751843
0.007300,0.114689
0.007400,0.015042
0.007500,0.381170
0.007600,1.129006
0.007700,1.417235
0.007800,1.004692
0.007900,0.235109
0.008000,-0.072270
0.008100,0.319500
0.008200,1.048186
0.008300,1.404252
0.008400,1.242610
0.008500,0.839155
0.008600,0.662583
0.008700,0.738535
0.008800,0.995603
0.008900,1.106286
0.009000,0.971909
0.009100,0.789494
0.009200,0.636616
0.009300,0.642134
0.009400,0.593447
0.009500,0.456149
0.009600,0.421418
0.009700,0.525609
0.009800,0.724253
0.009900,0.924195
0.010000,0.839155
0.010100,0.505161
0.010200,0.310736
0.010300,0.410707
0.010400,0.756062
0.010500,0.758334
0.010600,0.703804
0.010700,0.692120
0.010800,0.710621
0.010900,0.732043
0.011000,0.786897
0.011100,0.844348
0.011200,0.898878
0.011300,0.904071
0.011400,0.937179
0.011500,0.930362
0.011600,0.948864
0.011700,0.933284
0.011800,0.898229
0.011900,0.862849
0.012000,0.787871
0.012100,0.664855
0.012200,0.476922
0.012300,0.078660
0.012400,-0.976231
0.012500,-1.743868
0.012600,-1.783142
0.012700,-1.707515
0.012800,-1.281013
0.012900,-1.349825
0.013000,-1.735753
0.013100,-1.890255
0.013200,-1.981787
0.013300,-1.957119
0.013400,-1.890904
0.013500,-1.864937
0.013600,-1.923687
0.013700,-2.022035
0.013800,-2.102532
0.013900,-2.134666
0.014000,-2.124279
0.014100,-2.118112
0.014200,-2.133043
0.014300,-2.169072
0.014400,-2.201205
0.014500,-2.218084
0.014600,-2.219706
0.014700,-2.241129
0.014800,-2.273587
0.014900,-2.299554
0.015000,-2.313511
0.015100,-2.312213
0.015200,-2.328766
0.015300,-2.356681
0.015400,-2.380051
0.015500,-2.357330
0.015600,-2.271315
0.015700,-2.248594
0.015800,-2.298256
0.015900,-2.401798
0.016000,-2.489435
0.016100,-2.467688
0.016200,-2.365120
0.016300,-2.283649
0.016400,-2.299879
0.016500,-2.401798
0.016600,-2.503068
0.016700,-2.536175
0.016800,-2.486839
0.016900,-2.421597
0.017000,-2.397903
0.017100,-2.410886
0.017200,-2.437502
0.017300,-2.436204
0.017400,-2.424194
0.017500,-2.391736
0.017600,-2.353110
0.017700,-2.305072
0.017800,-2.228146
0.017900,-2.149921
0.018000,-2.085654
0.018100,-2.035343
0.018200,-2.001911
0.018300,-1.949329
0.018400,-1.853901
0.018500,-1.766589
0.018600,-1.679925
0.018700,-1.595534
0.018800,-1.534512
0.018900,-1.474140
0.019000,-1.402407
0.019100,-1.323534
0.019200,-1.235896
0.019300,-1.150207
0.019400,-1.087562
0.019500,-1.040173
0.019600,-1.015505
0.019700,-0.991161
0.019800,-0.972985
0.019900,-0.944746
0.020000,-0.909367
0.020100,-0.893138
0.020200,-0.872689
0.020300,-0.869443
0.020400,-0.871066
0.020500,-0.883076
0.020600,-0.865873
0.020700,-0.777586
0.020800,-0.624708
0.020900,-0.534150
0.021000,-0.594522
0.021100,-0.745128
0.021200,-0.792517
0.021300,-0.728575
0.021400,-0.582513
0.021500,-0.500718
0.021600,-0.492279
0.021700,-0.565634
0.021800,-0.631849
0.021900,-0.616594
0.022000,-0.547458
0.022100,-0.451382
0.022200,-0.146275
0.022300,-0.004108
0.022400,-0.049874
0.022500,-0.043058
0.022600,0.229591
0.022700,0.554497
0.022800,0.843050
0.022900,1.029035
0.023000,1.240013
0.023100,1.298763
0.023200,1.268901
0.023300,1.290648
0.023400,1.236118
0.023500,1.204634
0.023600,1.304280
0.023700,1.468519
0.023800,1.492862
0.023900,1.032930
0.024000,0.530153
0.024100,0.515547
0.024200,0.962496
0.024300,1.702867
0.024400,1.872623
0.024500,1.320834
0.024600,0.570077
0.024700,0.420120
0.024800,0.799556
0.024900,1.495459
0.025000,1.817444
0.025100,1.630160
0.025200,1.212424
0.025300,1.005990
0.025400,0.986190
0.025500,1.189703
0.025600,1.286428
0.025700,1.190352
0.025800,0.950811
0.025900,0.817083
0.026000,0.808320
0.026100,0.788520
0.026200,0.699585
0.026300,0.728473
0.026400,0.937503
0.026500,1.132252
0.026600,1.265006
0.026700,1.030658
0.026800,0.723604
0.026900,0.582086
0.027000,0.677838
0.027100,0.975155
0.027200,0.987813
0.027300,0.951785
0.027400,0.975479
0.027500,1.012806
0.027600,1.061818
0.027700,1.102391
0.027800,1.158219
0.027900,1.228004
0.028000,1.259813
0.028100,1.274094
0.028200,1.284156
0.028300,1.303631
0.028400,1.295517
0.028500,1.267278
0.028600,1.294868
0.028700,1.162763
0.028800,1.094601
0.028900,0.894983
0.029000,0.383118
0.029100,-0.759734
0.029200,-1.852603
0.029300,-1.681548
0.029400,-1.226483
0.029500,-0.680212
0.029600,-1.070684
0.029700,-1.702321
0.029800,-1.859095
0.029900,-1.928556
0.030000,-1.899018
0.030100,-1.853577
0.030200,-1.845462
0.030300,-1.915572
0.030400,-2.020737
0.030500,-2.094417
0.030600,-2.124928
0.030700,-2.129148
0.030800,-2.148947
0.030900,-2.165177
0.031000,-2.182704
0.031100,-2.202179
0.031200,-2.215487
0.031300,-2.234313
0.031400,-2.252814
0.031500,-2.274886
0.031600,-2.283325
0.031700,-2.278131
0.031800,-2.280728
0.031900,-2.291764
0.032000,-2.309291
0.032100,-2.308318
0.032200,-2.233988
0.032300,-2.141482
0.032400,-2.115515
0.032500,-2.188547
0.032600,-2.285921
0.032700,-2.344671
0.032800,-2.297931
0.032900,-2.190494
0.033000,-2.127849
0.033100,-2.174589
0.033200,-2.286246
0.033300,-2.363172
0.033400,-2.362848
0.033500,-2.317081
0.033600,-2.272614
0.033700,-2.257034
0.033800,-2.261902
0.033900,-2.271964
0.034000,-2.272938
0.034100,-2.259306
0.034200,-2.230093
0.034300,-2.191143
0.034400,-2.137262
0.034500,-2.057740
0.034600,-1.984059
0.034700,-1.929854
0.034800,-1.891553
0.034900,-1.860718
0.035000,-1.796450
0.035100,-1.701023
0.035200,-1.623448
0.035300,-1.513090
0.035400,-1.444927
0.035500,-1.388450
0.035600,-1.324183
0.035700,-1.257643
0.035800,-1.180068
0.035900,-1.095352
0.036000,-1.021348
0.036100,-0.969739
0.036200,-0.931438
0.036300,-0.907095
0.036400,-0.879505
0.036500,-0.862951
0.036600,-0.843477
0.036700,-0.814264
0.036800,-0.797386
0.036900,-0.778560
0.037000,-0.773691
0.037100,-0.778236
0.037200,-0.759734
0.037300,-0.733768
0.037400,-0.599716
0.037500,-0.459821
0.037600,-0.414704
0.037700,-0.501367
0.037800,-0.642560
0.037900,-0.667553
0.038000,-0.569529
0.038100,-0.445539
0.038200,-0.379000
0.038300,-0.407238
0.038400,-0.474427
0.038500,-0.522790
0.038600,-0.489682
0.038700,-0.419573
0.038800,0.020885
0.038900,0.406812
0.039000,0.490554
0.039100,0.630774
0.039200,0.671671
0.039300,0.878105
0.039400,1.079994
0.039500,1.248452
0.039600,1.464948
0.039700,1.608089
0.039800,1.627239
0.039900,1.655478
0.040000,1.555507
0.040100,1.417559
0.040200,1.365951
0.040300,1.550313
0.040400,1.738246
0.040500,1.674628
0.040600,1.020596
0.040700,0.534048
0.040800,0.681408
0.040900,1.285779
0.041000,1.900213
0.041100,1.829778
0.041200,1.134524
0.041300,0.498020
0.041400,0.510029
0.041500,1.176071
0.041600,1.768757
0.041700,1.819067
0.041800,1.407822
0.041900,1.107909
0.042000,1.185159
0.042100,1.338686
0.042200,1.455860
0.042300,1.348424
0.042400,1.241636
0.042500,1.205608
0.042600,1.262409
0.042700,1.292595
0.042800,1.232548
0.042900,1.104663
0.043000,1.119593
0.043100,1.316615
0.043200,1.502924
0.043300,1.487994
0.043400,1.139068
0.043500,0.838506
0.043600,0.751518
0.043700,0.745026
0.043800,0.908940
0.043900,0.906668
0.044000,0.915107
0.044100,0.911537
0.044200,0.929713
0.044300,1.000147
0.044400,1.035851
0.044500,1.059546
0.044600,1.105636
0.044700,1.133226
0.044800,1.145560
0.044900,1.145885
0.045000,1.136147
0.045100,1.142314
0.045200,1.086811
0.045300,1.058572
0.045400,0.980348
0.045500,0.843050
0.045600,0.605456
0.045700,-0.158609
0.045800,-1.369624
0.045900,-1.729262
0.046000,-1.694531
0.046100,-1.233949
0.046200,-0.986293
0.046300,-1.582875
0.046400,-1.779572
0.046500,-1.898369
0.046600,-1.937968
0.046700,-1.889606
0.046800,-1.844489
0.046900,-1.851954
0.047000,-1.929854
0.047100,-2.018465
0.047200,-2.070398
0.047300,-2.084680
0.047400,-2.073969
0.047500,-2.067477
0.047600,-2.077539
0.047700,-2.104804
0.047800,-2.123305
0.047900,-2.141157
0.048000,-2.151219
0.048100,-2.167449
0.048200,-2.193415
0.048300,-2.212241
0.048400,-2.218408
0.048500,-2.229769
0.048600,-2.253788
0.048700,-2.280079
0.048800,-2.277482
0.048900,-2.212566
0.049000,-2.142456
0.049100,-2.158685
0.049200,-2.258007
0.049300,-2.350514
0.049400,-2.381674
0.049500,-2.312537
0.049600,-2.218733
0.049700,-2.200881
0.049800,-2.273263
0.049900,-2.385569
0.050000,-2.452757
0.050100,-2.432309
0.050200,-2.379726
0.050300,-2.348241
0.050400,-2.347917
0.050500,-2.367067
0.050600,-2.359926
0.050700,-2.351812
0.050800,-2.331039
0.050900,-2.308642
0.051000,-2.279754
0.051100,-2.227172
0.051200,-2.152518
0.051300,-2.075916
0.051400,-2.028202
0.051500,-1.985358
0.051600,-1.953224
0.051700,-1.875973
0.051800,-1.779247
0.051900,-1.664670
0.052000,-1.557557
0.052100,-1.485825
0.052200,-1.428374
0.052300,-1.354044
0.052400,-1.283285
0.052500,-1.206359
0.052600,-1.121643
0.052700,-1.053806
0.052800,-1.008364
0.052900,-0.988240
0.053000,-0.960651
0.053100,-0.948966
0.053200,-0.928517
0.053300,-0.911963
0.053400,-0.882102
0.053500,-0.867171
0.053600,-0.859381
0.053700,-0.850617
0.053800,-0.870092
0.053900,-0.844126
0.054000,-0.787324
0.054100,-0.633797
0.054200,-0.502016
0.054300,-0.502016
0.054400,-0.610102
0.054500,-0.719162
0.054600,-0.672422
0.054700,-0.578942
0.054800,-0.455601
0.054900,-0.432880
0.055000,-0.474102
0.055100,-0.545510
0.055200,-0.564336
0.055300,-0.519544
0.055400,-0.453329
0.055500,-0.145626
0.055600,0.109496
0.055700,0.307815
0.055800,0.310412
0.055900,0.363318
0.056000,0.550277
0.056100,0.737236
0.056200,0.954057
0.056300,1.175097
0.056400,1.291622
0.056500,1.292271
0.056600,1.241961
0.056700,1.222161
0.056800,1.084863
0.056900,1.195546
0.057000,1.347774
0.057100,1.539602
0.057200,1.330896
0.057300,0.663881
0.057400,0.433103
0.057500,0.817083
0.057600,1.559077
0.057700,2.015115
0.057800,1.784012
0.057900,1.077722
0.058000,0.675890
0.058100,0.969961
0.058200,1.671707
0.058300,2.159229
0.058400,2.135210
0.058500,1.743439
0.058600,1.547392
0.058700,1.583745
0.058800,1.745062
0.058900,1.818418
0.059000,1.692480
0.059100,1.519478
0.059200,1.402629
0.059300,1.359135
0.059400,1.296166
0.059500,1.181913
0.059600,1.158219
0.059700,1.301035
0.059800,1.500328
0.059900,1.680146
0.060000,1.646390
0.060100,1.442552
0.060200,1.417559
0.060300,1.527917
0.060400,1.591860
0.060500,1.628538
0.060600,1.608413
0.060700,1.663917
0.060800,1.763564
0.060900,1.807707
0.061000,1.849578
0.061100,1.914819
0.061200,1.974542
0.061300,1.982981
0.061400,2.004728
0.061500,1.994017
0.061600,1.960260
0.061700,1.986551
0.061800,1.937864
0.061900,1.896967
0.062000,1.794723
0.062100,1.690857
0.062200,1.444175
0.062300,1.105636
0.062400,0.048474
0.062500,-1.118722
0.062600,-1.577682
0.062700,-1.305032
0.062800,-0.720460
0.062900,-0.783429
0.063000,-1.851305
0.063100,-1.787037
0.063200,-1.894799
0.063300,-1.906808
0.063400,-1.866236
0.063500,-1.847085
0.063600,-1.898369
0.063700,-1.988928
0.063800,-2.069100
0.063900,-2.111945
0.064000,-2.119086
0.064100,-2.125577
0.064200,-2.138236
0.064300,-2.161931
0.064400,-2.181081
0.064500,-2.185625
0.064600,-2.193740
0.064700,-2.214513
0.064800,-2.234637
0.064900,-2.266446
0.065000,-2.273263
0.065100,-2.258007
0.065200,-2.257358
0.065300,-2.275210
0.065400,-2.296957
0.065500,-2.273587
0.065600,-2.184976
0.065700,-2.136289
0.065800,-2.179134
0.065900,-2.291115
0.066000,-2.377779
0.066100,-2.369989
0.066200,-2.266446
0.066300,-2.185301
0.066400,-2.202504
0.066500,-2.316432
0.066600,-2.418676
0.066700,-2.450485
0.066800,-2.394657
0.066900,-2.336881
0.067000,-2.333311
0.067100,-2.350514
0.067200,-2.362523
0.067300,-2.360576
0.067400,-2.337855
0.067500,-2.314160
0.067600,-2.291764
0.067700,-2.251516
0.067800,-2.179458
0.067900,-2.098312
0.068000,-2.030475
0.068100,-1.987630
0.068200,-1.950627
0.068300,-1.907133
0.068400,-1.818197
0.068500,-1.719200
0.068600,-1.605920
0.068700,-1.515362
0.068800,-1.451419
0.068900,-1.395591
0.069000,-1.323858
0.069100,-1.240765
0.069200,-1.158646
0.069300,-1.072631
0.069400,-1.013233
0.069500,-0.977204
0.069600,-0.940202
0.069700,-0.910990
0.069800,-0.895085
0.069900,-0.877558
0.070000,-0.858083
0.070100,-0.828870
0.070200,-0.814913
0.070300,-0.800307
0.070400,-0.814264
0.070500,-0.816536
0.070600,-0.808422
0.070700,-0.729873
0.070800,-0.580565
0.070900,-0.492279
0.071000,-0.537396
0.071100,-0.671124
0.071200,-0.741558
0.071300,-0.681835
0.071400,-0.549405
0.071500,-0.470532
0.071600,-0.467286
0.071700,-0.543563
0.071800,-0.603935
0.071900,-0.604260
0.072000,-0.538370
0.072100,-0.455601
0.072200,-0.183926
0.072300,-0.006056
0.072400,0.024780
0.072500,0.094889
0.072600,0.294832
0.072700,0.588253
0.072800,0.791441
0.072900,0.951785
0.073000,1.069283
0.073100,1.123164
0.073200,1.190677
0.073300,1.263383
0.073400,1.150104
0.073500,0.983269
0.073600,1.024491
0.073700,1.204958
0.073800,1.447421
0.073900,1.006964
0.074000,0.360722
0.074100,0.218880
0.074200,0.722306
0.074300,1.397435
0.074400,1.680471
0.074500,1.237417
0.074600,0.439595
0.074700,0.208168
0.074800,0.668750
0.074900,1.528891
0.075000,1.980384
0.075100,1.772327
0.075200,1.331870
0.075300,1.195870
0.075400,1.343879
0.075500,1.655153
0.075600,1.730456
0.075700,1.585044
0.075800,1.415612
0.075900,1.329273
0.076000,1.504223
0.076100,1.542199
0.076200,1.472738
0.076300,1.422428
0.076400,1.518829
0.076500,1.678199
0.076600,1.773950
0.076700,1.536681
0.076800,1.126085
0.076900,0.953732
0.077000,0.920625
0.077100,0.991384
0.077200,1.002419
0.077300,0.954057
0.077400,0.975479
0.077500,0.996577
0.077600,1.079994
0.077700,1.116348
0.077800,1.183211
0.077900,1.215670
0.078000,1.264357
0.078100,1.297464
0.078200,1.331221
0.078300,1.307526
0.078400,1.293894
0.078500,1.291622
0.078600,1.262734
0.078700,1.178667
0.078800,1.073503
0.078900,0.910887
0.079000,0.440244
0.079100,-0.680212
0.079200,-1.650388
0.079300,-1.689663
0.079400,-1.350149
0.079500,-0.824975
0.079600,-1.024593
0.079700,-1.695830
0.079800,-1.835725
0.079900,-1.907782
0.080000,-1.888307
0.080100,-1.832479
0.080200,-1.823391
0.080300,-1.883114
0.080400,-1.979840
0.080500,-2.059038
0.080600,-2.097014
0.080700,-2.099611
0.080800,-2.092145
0.080900,-2.095391
0.081000,-2.130771
0.081100,-2.163229
0.081200,-2.182055
0.081300,-2.196337
0.081400,-2.195038
0.081500,-2.210618
0.081600,-2.248270
0.081700,-2.257034
0.081800,-2.260604
0.081900,-2.260929
0.082000,-2.279430
0.082100,-2.281053
0.082200,-2.241454
0.082300,-2.160632
0.082400,-2.135315
0.082500,-2.206399
0.082600,-2.313836
0.082700,-2.383946
0.082800,-2.342074
0.082900,-2.242752
0.083000,-2.176537
0.083100,-2.205100
0.083200,-2.317081
0.083300,-2.414456
0.083400,-2.430036
0.083500,-2.369339
0.083600,-2.307993
0.083700,-2.289816
0.083800,-2.304423
0.083900,-2.323573
0.084000,-2.321950
0.084100,-2.306046
0.084200,-2.285272
0.084300,-2.256709
0.084400,-2.220680
0.084500,-2.152193
0.084600,-2.073320
0.084700,-2.015219
0.084800,-1.975945
0.084900,-1.944785
0.085000,-1.890579
0.085100,-1.774379
0.085200,-1.666942
0.085300,-1.564049
0.085400,-1.487772
0.085500,-1.423830
0.085600,-1.358913
0.085700,-1.282312
0.085800,-1.202789
0.085900,-1.111581
0.086000,-1.032708
0.086100,-0.978178
0.086200,-0.951238
0.086300,-0.928192
0.086400,-0.902550
0.086500,-0.890866
0.086600,-0.859706
0.086700,-0.842178
0.086800,-0.804851
0.086900,-0.801605
0.087000,-0.791219
0.087100,-0.802904
0.087200,-0.797061
0.087300,-0.769796
0.087400,-0.654245
0.087500,-0.514350
0.087600,-0.442293
0.087700,-0.524413
0.087800,-0.658465
0.087900,-0.685081
0.088000,-0.605883
0.088100,-0.477997
0.088200,-0.416327
0.088300,-0.429635
0.088400,-0.498771
0.088500,-0.549405
0.088600,-0.533501
0.088700,-0.463067
0.088800,-0.188795
0.088900,0.262698
0.089000,0.446087
0.089100,0.450955
0.089200,0.498020
0.089300,0.671022
0.089400,0.906019
0.089500,1.136147
0.089600,1.387373
0.089700,1.589912
0.089800,1.589912
0.089900,1.654829
0.090000,1.513636
0.090100,1.456834
0.090200,1.396786
0.090300,1.636652
0.090400,1.799917
0.090500,1.875869
0.090600,1.213722
0.090700,0.724902
0.090800,0.832014
0.090900,1.490266
0.091000,2.056661
0.091100,2.149167
0.091200,1.522075
0.091300,0.931336
0.091400,0.816759
0.091500,1.414314
0.091600,2.112489
0.091700,2.360794
0.091800,2.101778
0.091900,1.725587
0.092000,1.631783
0.092100,1.706113
0.092200,1.928127
0.092300,1.932346
0.092400,1.838217
0.092500,1.704490
0.092600,1.684041
0.092700,1.671382
0.092800,1.568814
0.092900,1.460729
0.093000,1.518829
0.093100,1.704490
0.093200,1.877167
0.093300,1.933644
0.093400,1.679172
0.093500,1.370820
0.093600,1.204958
0.093700,1.269226
0.093800,1.537330
0.093900,1.508118
0.094000,1.457808
0.094100,1.492213
0.094200,1.499679
0.094300,1.548690
0.094400,1.594132
0.094500,1.608089
0.094600,1.649635
0.094700,1.683067
0.094800,1.653206
0.094900,1.645740
0.095000,1.597702
0.095100,1.527917
0.095200,1.434113
0.095300,1.315965
0.095400,1.179316
0.095500,0.984892
0.095600,0.714840
0.095700,0.015691
0.095800,-1.234273
0.095900,-1.747763
0.096000,-1.741271
0.096100,-1.522827
0.096200,-1.152479
0.096300,-1.763018
0.096400,-1.806188
0.096500,-1.934723
0.096600,-1.978217
0.096700,-1.934723
0.096800,-1.888307
0.096900,-1.888956
0.097000,-1.951925
0.097100,-2.041186
0.097200,-2.100909
0.097300,-2.117138
0.097400,-2.108699
0.097500,-2.106427
0.097600,-2.115515
0.097700,-2.139210
0.097800,-2.160957
0.097900,-2.188547
0.098000,-2.199258
0.098100,-2.221005
0.098200,-2.255086
0.098300,-2.286246
0.098400,-2.287220
0.098500,-2.291439
0.098600,-2.318055
0.098700,-2.347917
0.098800,-2.359926
0.098900,-2.297282
0.099000,-2.226198
0.099100,-2.243726
0.099200,-2.347268
0.099300,-2.462819
0.099400,-2.506963
0.099500,-2.436204
0.099600,-2.332012
0.099700,-2.298256
0.099800,-2.359277
0.099900,-2.476776
0.100000,-2.544290
0.100100,-2.529034
0.100200,-2.463469
0.100300,-2.414781
0.100400,-2.407965
0.100500,-2.427115
0.100600,-2.431659
0.100700,-2.418676
0.100800,-2.394657
0.100900,-2.363172
0.101000,-2.328442
0.101100,-2.270341
0.101200,-2.188547
0.101300,-2.098637
0.101400,-2.041835
0.101500,-1.996069
0.101600,-1.958417
0.101700,-1.877921
0.101800,-1.771457
0.101900,-1.643896
0.102000,-1.524125
0.102100,-1.450770
0.102200,-1.390722
0.102300,-1.322235
0.102400,-1.243362
0.102500,-1.157672
0.102600,-1.059324
0.102700,-0.986293
0.102800,-0.936307
0.102900,-0.903524
0.103000,-0.881777
0.103100,-0.854512
0.103200,-0.839906
0.103300,-0.817510
0.103400,-0.800632
0.103500,-0.766226
0.103600,-0.757462
0.103700,-0.757462
0.103800,-0.750646
0.103900,-0.753567
0.104000,-0.709100
0.104100,-0.574074
0.104200,-0.444241
0.104300,-0.410809
0.104400,-0.539992
0.104500,-0.657167
0.104600,-0.655544
0.104700,-0.543887
0.104800,-0.428661
0.104900,-0.377702
0.105000,-0.422169
0.105100,-0.509157
0.105200,-0.539019
0.105300,-0.506885
0.105400,-0.430284
0.105500,0.028350
0.105600,0.300350
0.105700,0.473027
0.105800,0.474325
0.105900,0.557418
0.106000,0.734640
0.106100,0.944644
0.106200,1.172825
0.106300,1.414314
0.106400,1.565893
0.106500,1.511039
0.106600,1.584394
0.106700,1.444175
0.106800,1.341283
0.106900,1.330896
0.107000,1.561025
0.107100,1.755449
0.107200,1.608413
0.107300,0.874534
0.107400,0.482764
0.107500,0.781379
0.107600,1.485072
0.107700,1.959936
0.107800,1.803812
0.107900,1.059546
0.108000,0.523013
0.108100,0.618439
0.108200,1.314992
0.108300,1.933320
0.108400,2.016088
0.108500,1.611659
0.108600,1.289350
0.108700,1.278638
0.108800,1.511364
0.108900,1.707086
0.109000,1.654829
0.109100,1.524022
0.109200,1.415612
0.109300,1.482476
0.109400,1.531163
0.109500,1.467545
0.109600,1.389970
0.109700,1.422428
0.109800,1.577578
0.109900,1.776222
0.110000,1.728509
0.110100,1.378610
0.110200,1.141340
0.110300,1.088434
0.110400,1.147507
0.110500,1.342581
0.110600,1.266304
0.110700,1.274094
0.110800,1.339011
0.110900,1.409769
0.111000,1.480204
0.111100,1.557454
0.111200,1.625292
0.111300,1.682418
0.111400,1.731105
0.111500,1.754800
0.111600,1.737597
0.111700,1.773626
0.111800,1.760318
0.111900,1.745712
0.112000,1.685989
0.112100,1.607440
0.112200,1.405874
0.112300,1.168930
0.112400,0.307490
0.112500,-0.895410
0.112600,-1.481930
0.112700,-1.209930
0.112800,-0.580565
0.112900,-0.440021
0.113000,-1.215448
0.113100,-1.721472
0.113200,-1.843515
0.113300,-1.859419
0.113400,-1.808460
0.113500,-1.769185
0.113600,-1.790932
0.113700,-1.879868
0.113800,-1.965233
0.113900,-2.023658
0.114000,-2.037291
0.114100,-2.035343
0.114200,-2.033396
0.114300,-2.046055
0.114400,-2.071372
0.114500,-2.084355
0.114600,-2.109997
0.114700,-2.134017
0.114800,-2.148298
0.114900,-2.193091
0.115000,-2.206723
0.115100,-2.197635
0.115200,-2.208671
0.115300,-2.231716
0.115400,-2.261902
0.115500,-2.247621
0.115600,-2.170045
0.115700,-2.110971
0.115800,-2.152193
0.115900,-2.264174
0.116000,-2.348241
0.116100,-2.358304
0.116200,-2.262551
0.116300,-2.168422
0.116400,-2.155764
0.116500,-2.240480
0.116600,-2.345645
0.116700,-2.386867
0.116800,-2.347592
0.116900,-2.282026
0.117000,-2.249568
0.117100,-2.247621
0.117200,-2.265473
0.117300,-2.258656
0.117400,-2.245024
0.117500,-2.232365
0.117600,-2.212890
0.117700,-2.178484
0.117800,-2.122332
0.117900,-2.041186
0.118000,-1.965233
0.118100,-1.912651
0.118200,-1.880193
0.118300,-1.841567
0.118400,-1.753281
0.118500,-1.640975
0.118600,-1.507247
0.118700,-1.406302
0.118800,-1.342684
0.118900,-1.285233
0.119000,-1.214799
0.119100,-1.137223
0.119200,-1.057701
0.119300,-0.973634
0.119400,-0.905147
0.119500,-0.850942
0.119600,-0.818808
0.119700,-0.783104
0.119800,-0.770121
0.119900,-0.754541
0.120000,-0.730197
0.120100,-0.701310
0.120200,-0.669176
0.120300,-0.658465
0.120400,-0.659763
0.120500,-0.676966
0.120600,-0.671448
0.120700,-0.618866
0.120800,-0.454627
0.120900,-0.360499
0.121000,-0.353358
0.121100,-0.523763
0.121200,-0.586408
0.121300,-0.575047
0.121400,-0.440670
0.121500,-0.335181
0.121600,-0.312785
0.121700,-0.367640
0.121800,-0.442293
0.121900,-0.440995
0.122000,-0.398475
0.122100,0.166297
0.122200,0.622334
0.122300,0.978725
0.122400,1.030983
0.122500,1.124462
0.122600,1.200090
0.122700,1.460404
0.122800,1.649960
0.122900,1.862561
0.123000,2.071267
0.123100,2.186169
0.123200,2.153062
0.123300,2.217005
0.123400,2.075811
0.123500,1.982332
0.123600,2.065749
0.123700,2.268613
0.123800,2.480890
0.123900,2.129692
0.124000,1.512662
0.124100,1.356213
0.124200,1.864509
0.124300,2.622732
0.124400,2.934331
0.124500,2.624680
0.124600,1.871000
0.124700,1.575306
0.124800,1.879115
0.124900,2.669797
0.125000,3.102465
0.125100,2.958351
0.125200,2.521138
0.125300,2.385138
0.125400,2.488680
0.125500,2.675964
0.125600,2.700632
0.125700,2.560737
0.125800,2.371506
0.125900,2.294904
0.126000,2.386761
0.126100,2.358198
0.126200,2.218952
0.126300,2.158580
0.126400,2.232909
0.126500,2.416623
0.126600,2.490303
0.126700,2.365014
0.126800,1.971296
0.126900,1.727210
0.127000,1.685989
0.127100,1.753826
0.127200,1.780766
0.127300,1.735325
0.127400,1.687936
0.127500,1.680795
0.127600,1.711306
0.127700,1.748957
0.127800,1.747659
0.127900,1.757396
0.128000,1.760318
0.128100,1.784012
0.128200,1.746036
0.128300,1.715201
0.128400,1.665215
0.128500,1.590237
0.128600,1.505196
0.128700,1.443201
0.128800,1.277340
0.128900,1.048835
0.129000,0.639213
0.129100,-0.405291
0.129200,-1.491992
0.129300,-1.704269
0.129400,-1.440383
0.129500,-0.899305
0.129600,-0.957729
0.129700,-1.681223
0.129800,-1.842541
0.129900,-1.944460
0.130000,-1.933424
0.130100,-1.875649
0.130200,-1.847734
0.130300,-1.899018
0.130400,-1.996393
0.130500,-2.081759
0.130600,-2.118437
0.130700,-2.124604
0.130800,-2.127849
0.130900,-2.136613
0.131000,-2.167773
0.131100,-2.206723
0.131200,-2.228470
0.131300,-2.246322
0.131400,-2.259630
0.131500,-2.281702
0.131600,-2.322275
0.131700,-2.339478
0.131800,-2.339478
0.131900,-2.350838
0.132000,-2.369015
0.132100,-2.392709
0.132200,-2.369015
0.132300,-2.278781
0.132400,-2.233014
0.132500,-2.286895
0.132600,-2.399201
0.132700,-2.472232
0.132800,-2.448213
0.132900,-2.341425
0.133000,-2.256709
0.133100,-2.273263
0.133200,-2.384270
0.133300,-2.485540
0.133400,-2.499497
0.133500,-2.447889
0.133600,-2.383946
0.133700,-2.368366
0.133800,-2.384270
0.133900,-2.398227
0.134000,-2.376156
0.134100,-2.357654
0.134200,-2.338179
0.134300,-2.309616
0.134400,-2.273912
0.134500,-2.217110
0.134600,-2.134017
0.134700,-2.068126
0.134800,-2.018140
0.134900,-1.988928
0.135000,-1.937319
0.135100,-1.841567
0.135200,-1.730235
0.135300,-1.607543
0.135400,-1.522178
0.135500,-1.452393
0.135600,-1.389099
0.135700,-1.318016
0.135800,-1.243362
0.135900,-1.151180
0.136000,-1.057376
0.136100,-0.990512
0.136200,-0.953185
0.136300,-0.920402
0.136400,-0.886646
0.136500,-0.875610
0.136600,-0.838932
0.136700,-0.818159
0.136800,-0.783429
0.136900,-0.772069
0.137000,-0.757462
0.137100,-0.755839
0.137200,-0.754866
0.137300,-0.720785
0.137400,-0.638341
0.137500,-0.474752
0.137600,-0.401721
0.137700,-0.444241
0.137800,-0.579916
0.137900,-0.630875
0.138000,-0.561739
0.138100,-0.445539
0.138200,-0.344919
0.138300,-0.351735
0.138400,-0.413730
0.138500,-0.486112
0.138600,-0.472804
0.138700,-0.387439
0.138800,0.145524
0.138900,0.588903
0.139000,0.723928
0.139100,0.795012
0.139200,0.839480
0.139300,0.998849
0.139400,1.288051
0.139500,1.573683
0.139600,1.823287
0.139700,2.021931
0.139800,2.110866
0.139900,2.151764
0.140000,2.264069
0.140100,2.198503
0.140200,2.081978
0.140300,2.210513
0.140400,2.348460
0.140500,2.459792
0.140600,1.966427
0.140700,1.378934
0.140800,1.356213
0.140900,1.984604
0.141000,2.635716
0.141100,2.801253
0.141200,2.303019
0.141300,1.565893
0.141400,1.340309
0.141500,1.849578
0.141600,2.578589
0.141700,2.860976
0.141800,2.538990
0.141900,2.116060
0.142000,2.037511
0.142100,2.140728
0.142200,2.304966
0.142300,2.291658
0.142400,2.193635
0.142500,2.003105
0.142600,1.940136
0.142700,1.929749
0.142800,1.846007
0.142900,1.730132
0.143000,1.696051
0.143100,1.825234
0.143200,1.945005
0.143300,1.970647
0.143400,1.685339
0.143500,1.370170
0.143600,1.253321
0.143700,1.275393
0.143800,1.506170
0.143900,1.500652
0.144000,1.487344
0.144100,1.539278
0.144200,1.560700
0.144300,1.625941
0.144400,1.719745
0.144500,1.762590
0.144600,1.815821
0.144700,1.850551
0.144800,1.895344
0.144900,1.897291
0.145000,1.914494
0.145100,1.875544
0.145200,1.874246
0.145300,1.835621
0.145400,1.781416
0.145500,1.673330
0.145600,1.471440
0.145700,0.922248
0.145800,-0.203726
0.145900,-1.133653
0.146000,-1.224536
0.146100,-0.648727
0.146200,-0.153416
0.146300,-0.487410
0.146400,-1.575734
0.146500,-1.736403
0.146600,-1.792231
0.146700,-1.775028
0.146800,-1.709462
0.146900,-1.705567
0.147000,-1.770484
0.147100,-1.862016
0.147200,-1.930178
0.147300,-1.957768
0.147400,-1.957768
0.147500,-1.954522
0.147600,-1.970102
0.147700,-1.995420
0.147800,-2.018790
0.147900,-2.039887
0.148000,-2.057090
0.148100,-2.068451
0.148200,-2.086303
0.148300,-2.114866
0.148400,-2.125253
0.148500,-2.126551
0.148600,-2.138561
0.148700,-2.167449
0.148800,-2.173616
0.148900,-2.126227
0.149000,-2.047677
0.149100,-2.044756
0.149200,-2.142131
0.149300,-2.250217
0.149400,-2.311564
0.149500,-2.262551
0.149600,-2.163554
0.149700,-2.117138
0.149800,-2.176862
0.149900,-2.298905
0.150000,-2.377779
0.150100,-2.374533
0.150200,-2.318704
0.150300,-2.274236
0.150400,-2.277807
0.150500,-2.293387
0.150600,-2.290790
0.150700,-2.281702
0.150800,-2.270991
0.150900,-2.251191
0.151000,-2.230093
0.151100,-2.180107
0.151200,-2.106102
0.151300,-2.029501
0.151400,-1.965233
0.151500,-1.918493
0.151600,-1.883439
0.151700,-1.815276
0.151800,-1.706865
0.151900,-1.579954
0.152000,-1.463429
0.152100,-1.388450
0.152200,-1.324183
0.152300,-1.256020
0.152400,-1.175199
0.152500,-1.095028
0.152600,-1.002522
0.152700,-0.926570
0.152800,-0.861329
0.152900,-0.836011
0.153000,-0.802579
0.153100,-0.787324
0.153200,-0.765252
0.153300,-0.747400
0.153400,-0.716565
0.153500,-0.703582
0.153600,-0.686703
0.153700,-0.691572
0.153800,-0.712670
0.153900,-0.719162
0.154000,-0.713968
0.154100,-0.583811
0.154200,-0.468909
0.154300,-0.416327
0.154400,-0.530580
0.154500,-0.656517
0.154600,-0.686379
0.154700,-0.583162
0.154800,-0.461119
0.154900,-0.400422
0.155000,-0.435153
0.155100,-0.513052
0.155200,-0.558494
0.155300,-0.527334
0.155400,-0.454627
0.155500,-0.188470
0.155600,0.099758
0.155700,0.146173
0.155800,0.228617
0.155900,0.372731
0.156000,0.568454
0.156100,0.784625
0.156200,0.952109
0.156300,1.184834
0.156400,1.344853
0.156500,1.424051
0.156600,1.561998
0.156700,1.569464
0.156800,1.551612
0.156900,1.497082
0.157000,1.782065
0.157100,1.952795
0.157200,1.960260
0.157300,1.363030
0.157400,0.945942
0.157500,1.178018
0.157600,1.878141
0.157700,2.497768
0.157800,2.478618
0.157900,1.768757
0.158000,1.179641
0.158100,1.222161
0.158200,1.944031
0.158300,2.582159
0.158400,2.670446
0.158500,2.219277
0.158600,1.895668
0.158700,1.926828
0.158800,2.072241
0.158900,2.214408
0.159000,2.112814
0.159100,1.959936
0.159200,1.885931
0.159300,1.930399
0.159400,1.933320
0.159500,1.796346
0.159600,1.660996
0.159700,1.712604
0.159800,1.856394
0.159900,2.074838
0.160000,2.051792
0.160100,1.695401
0.160200,1.446772
0.160300,1.440605
0.160400,1.486371
0.160500,1.646065
0.160600,1.645740
0.160700,1.683392
0.160800,1.691831
0.160900,1.760642
0.161000,1.806408
0.161100,1.889826
0.161200,1.949549
0.161300,1.994017
0.161400,2.042704
0.161500,2.072890
0.161600,2.052766
0.161700,2.035563
0.161800,2.001157
0.161900,1.984928
0.162000,1.883010
0.162100,1.797320
0.162200,1.590561
0.162300,1.371469
0.162400,0.609676
0.162500,-0.605883
0.162600,-1.326779
0.162700,-1.219018
0.162800,-0.567906
0.162900,-0.357902
0.163000,-0.992784
0.163100,-1.706541
0.163200,-1.847410
0.163300,-1.873376
0.163400,-1.822417
0.163500,-1.763667
0.163600,-1.792231
0.163700,-1.879219
0.163800,-1.983410
0.163900,-2.036642
0.164000,-2.055792
0.164100,-2.050923
0.164200,-2.055467
0.164300,-2.075267
0.164400,-2.106752
0.164500,-2.125253
0.164600,-2.140508
0.164700,-2.150895
0.164800,-2.170694
0.164900,-2.198933
0.165000,-2.217434
0.165100,-2.226847
0.165200,-2.234313
0.165300,-2.251516
0.165400,-2.284299
0.165500,-2.284299
0.165600,-2.219706
0.165700,-2.159009
0.165800,-2.184652
0.165900,-2.302800
0.166000,-2.407640
0.166100,-2.444318
0.166200,-2.361549
0.166300,-2.255735
0.166400,-2.228146
0.166500,-2.312862
0.166600,-2.431335
0.166700,-2.491058
0.166800,-2.460223
0.166900,-2.385893
0.167000,-2.350514
0.167100,-2.342724
0.167200,-2.353110
0.167300,-2.356356
0.167400,-2.338504
0.167500,-2.320003
0.167600,-2.290790
0.167700,-2.247945
0.167800,-2.195038
0.167900,-2.117463
0.168000,-2.040212
0.168100,-1.991849
0.168200,-1.954198
0.168300,-1.918169
0.168400,-1.833453
0.168500,-1.727314
0.168600,-1.602999
0.168700,-1.499782
0.168800,-1.440708
0.168900,-1.394617
0.169000,-1.338140
0.169100,-1.267705
0.169200,-1.184288
0.169300,-1.101519
0.169400,-1.036278
0.169500,-0.987916
0.169600,-0.958054
0.169700,-0.931438
0.169800,-0.908718
0.169900,-0.888593
0.170000,-0.858407
0.170100,-0.839582
0.170200,-0.814264
0.170300,-0.807773
0.170400,-0.799658
0.170500,-0.811668
0.170600,-0.799009
0.170700,-0.753243
0.170800,-0.604584
0.170900,-0.485787
0.171000,-0.476374
0.171100,-0.608155
0.171200,-0.708775
0.171300,-0.704880
0.171400,-0.575372
0.171500,-0.461444
0.171600,-0.413406
0.171700,-0.460145
0.171800,-0.538694
0.171900,-0.554274
0.172000,-0.503315
0.172100,-0.337778
0.172200,0.179605
0.172300,0.523337
0.172400,0.668425
0.172500,0.757360
0.172600,0.887518
0.172700,1.166982
0.172800,1.503249
0.172900,1.762590
0.173000,2.069969
0.173100,2.162799
0.173200,2.283219
0.173300,2.271534
0.173400,2.342618
0.173500,2.225444
0.173600,2.305291
0.173700,2.475696
0.173800,2.689921
0.173900,2.424088
0.174000,1.744413
0.174100,1.509416
0.174200,1.883010
0.174300,2.643830
0.174400,3.029759
0.174500,2.772040
0.174600,1.946952
0.174700,1.475660
0.174800,1.627564
0.174900,2.377673
0.175000,2.913558
0.175100,2.869415
0.175200,2.418245
0.175300,2.113463
0.175400,2.115735
0.175500,2.274456
0.175600,2.384489
0.175700,2.272833
0.175800,2.178379
0.175900,2.199802
0.176000,2.283868
0.176100,2.260174
0.176200,2.143324
0.176300,2.068021
0.176400,2.225768
0.176500,2.439668
0.176600,2.646751
0.176700,2.553921
0.176800,2.190713
0.176900,1.991095
0.177000,1.980060
0.177100,2.056661
0.177200,2.195582
0.177300,2.193635
0.177400,2.257902
0.177500,2.352680
0.177600,2.384489
0.177700,2.459792
0.177800,2.531849
0.177900,2.613969
0.178000,2.665577
0.178100,2.725300
0.178200,2.736336
0.178300,2.714264
0.178400,2.738284
0.178500,2.695114
0.178600,2.634417
0.178700,2.562360
0.178800,2.373778
0.178900,2.194284
0.179000,1.832050
0.179100,0.902448
0.179200,-0.289091
0.179300,-0.825949
0.179400,-0.608804
0.179500,0.050097
0.179600,0.160779
0.179700,-0.619190
0.179800,-1.628966
0.179900,-1.738025
0.180000,-1.741920
0.180100,-1.676679
0.180200,-1.638054
0.180300,-1.670512
0.180400,-1.764641
0.180500,-1.862016
0.180600,-1.909081
0.180700,-1.914923
0.180800,-1.914923
0.180900,-1.921090
0.181000,-1.946732
0.181100,-1.982436
0.181200,-2.005157
0.181300,-2.033071
0.181400,-2.055467
0.181500,-2.076241
0.181600,-2.108699
0.181700,-2.120059
0.181800,-2.121358
0.181900,-2.138885
0.182000,-2.163878
0.182100,-2.195363
0.182200,-2.174265
0.182300,-2.091821
0.182400,-2.048651
0.182500,-2.102532
0.182600,-2.216461
0.182700,-2.299879
0.182800,-2.294361
0.182900,-2.198933
0.183000,-2.111296
0.183100,-2.126227
0.183200,-2.235286
0.183300,-2.342074
0.183400,-2.377129
0.183500,-2.338179
0.183600,-2.281377
0.183700,-2.266122
0.183800,-2.271315
0.183900,-2.282026
0.184000,-2.280404
0.184100,-2.261253
0.184200,-2.244699
0.184300,-2.210943
0.184400,-2.167449
0.184500,-2.095067
0.184600,-2.006131
0.184700,-1.932451
0.184800,-1.881816
0.184900,-1.843839
0.185000,-1.795152
0.185100,-1.696154
0.185200,-1.593262
0.185300,-1.468622
0.185400,-1.372221
0.185500,-1.304383
0.185600,-1.237844
0.185700,-1.166436
0.185800,-1.080421
0.185900,-0.986293
0.186000,-0.898655
0.186100,-0.834388
0.186200,-0.790894
0.186300,-0.759085
0.186400,-0.729224
0.186500,-0.704555
0.186600,-0.694493
0.186700,-0.655219
0.186800,-0.633147
0.186900,-0.604260
0.187000,-0.591601
0.187100,-0.583811
0.187200,-0.597443
0.187300,-0.580565
0.187400,-0.518570
0.187500,-0.367640
0.187600,-0.282924
0.187700,-0.300127
0.187800,-0.460470
0.187900,-0.521167
0.188000,-0.490656
0.188100,-0.357577
0.188200,-0.192365
0.188300,-0.046628
0.188400,-0.327716
0.188500,-0.392957
0.188600,-0.405291
0.188700,-0.181330
0.188800,0.486010
0.188900,0.972883
0.189000,1.136796
0.189100,1.263059
0.189200,1.302982
0.189300,1.374065
0.189400,1.565893
0.189500,1.741492
0.189600,1.925205
0.189700,2.131964
0.189800,2.188441
0.189900,2.195582
0.190000,2.143649
0.190100,2.013816
0.190200,1.890150
0.190300,1.930723
0.190400,2.073864
0.190500,2.151764
0.190600,1.661320
0.190700,0.981322
0.190800,0.851814
0.190900,1.284806
0.191000,1.937864
0.191100,2.162475
0.191200,1.676900
0.191300,0.924195
0.191400,0.626229
0.191500,1.001446
0.191600,1.694103
0.191700,2.058284
0.191800,1.809005
0.191900,1.382829
0.192000,1.258190
0.192100,1.360108
0.192200,1.487020
0.192300,1.449044
0.192400,1.311746
0.192500,1.219565
0.192600,1.139718
0.192700,1.114400
0.192800,0.995603
0.192900,0.828119
0.193000,0.776186
0.193100,0.903422
0.193200,1.101741
0.193300,1.203985
0.193400,1.033904
0.193500,0.687251
0.193600,0.539566
0.193700,0.741131
0.193800,1.073827
0.193900,1.090381
0.194000,1.102391
0.194100,1.147832
0.194200,1.236767
0.194300,1.316939
0.194400,1.399058
0.194500,1.450342
0.194600,1.570113
0.194700,1.616528
0.194800,1.639898
0.194900,1.652557
0.195000,1.675277
0.195100,1.684366
0.195200,1.663917
0.195300,1.661969
0.195400,1.542848
0.195500,1.362381
0.195600,1.159517
0.195700,0.679136
0.195800,-0.450083
0.195900,-1.561452
0.196000,-1.708164
0.196100,-1.429997
0.196200,-0.912288
0.196300,-1.136574
0.196400,-1.718875
0.196500,-1.876622
0.196600,-1.961014
0.196700,-1.945758
0.196800,-1.887333
0.196900,-1.872727
0.197000,-1.925634
0.197100,-2.027878
0.197200,-2.101558
0.197300,-2.139534
0.197400,-2.145052
0.197500,-2.147974
0.197600,-2.163229
0.197700,-2.190169
0.197800,-2.214838
0.197900,-2.236909
0.198000,-2.257683
0.198100,-2.284299
0.198200,-2.314485
0.198300,-2.346619
0.198400,-2.354733
0.198500,-2.359602
0.198600,-2.384919
0.198700,-2.413158
0.198800,-2.428089
0.198900,-2.377454
0.199000,-2.288843
0.199100,-2.267420
0.199200,-2.337855
0.199300,-2.444967
0.199400,-2.511182
0.199500,-2.478399
0.199600,-2.378103
0.199700,-2.316108
0.199800,-2.350514
0.199900,-2.458924
0.200000,-2.542667
0.200100,-2.549159
0.200200,-2.495278
0.200300,-2.447889
0.200400,-2.437177
0.200500,-2.444643
0.200600,-2.442695
0.200700,-2.430036
0.200800,-2.408939
0.200900,-2.388165
0.201000,-2.358628
0.201100,-2.308642
0.201200,-2.222628
0.201300,-2.131744
0.201400,-2.065205
0.201500,-2.015868
0.201600,-1.981138
0.201700,-1.926608
0.201800,-1.828909
0.201900,-1.744517
0.202000,-1.620202
0.202100,-1.532240
0.202200,-1.457262
0.202300,-1.392020
0.202400,-1.312173
0.202500,-1.226483
0.202600,-1.137223
0.202700,-1.055753
0.202800,-0.988240
0.202900,-0.939228
0.203000,-0.903524
0.203100,-0.866522
0.203200,-0.859381
0.203300,-0.824651
0.203400,-0.801281
0.203500,-0.759410
0.203600,-0.759410
0.203700,-0.742207
0.203800,-0.763954
0.203900,-0.755190
0.204000,-0.740259
0.204100,-0.619190
0.204200,-0.475401
0.204300,-0.400098
0.204400,-0.482541
0.204500,-0.603935
0.204600,-0.627954
0.204700,-0.543563
0.204800,-0.421196
0.204900,-0.349138
0.205000,-0.352709
0.205100,-0.431907
0.205200,-0.463716
0.205300,-0.446188
0.205400,-0.245921
0.205500,0.367213
0.205600,0.735938
0.205700,0.946267
0.205800,1.070257
0.205900,1.177694
0.206000,1.315316
0.206100,1.577254
0.206200,1.753177
0.206300,2.052766
0.206400,2.270885
0.206500,2.296203
0.206600,2.332880
0.206700,2.211811
0.206800,2.133262
0.206900,2.073864
0.207000,2.234857
0.207100,2.446484
0.207200,2.404613
0.207300,1.865807
0.207400,1.298763
0.207500,1.437359
0.207600,2.038809
0.207700,2.636040
0.207800,2.635391
0.207900,1.998885
0.208000,1.376013
0.208100,1.294543
0.208200,1.833998
0.208300,2.415649
0.208400,2.560737
0.208500,2.206618
0.208600,1.905730
0.208700,1.980709
0.208800,2.052766
0.208900,2.131964
0.209000,1.985902
0.209100,1.865482
0.209200,1.760967
0.209300,1.702218
0.209400,1.693454
0.209500,1.562647
0.209600,1.452614
0.209700,1.468519
0.209800,1.722991
0.209900,1.981033
0.210000,2.068021
0.210100,1.794723
0.210200,1.502600
0.210300,1.450342
0.210400,1.618151
0.210500,1.845358
0.210600,1.871649
0.210700,1.875220
0.210800,1.914819
0.210900,1.949874
0.211000,2.019009
0.211100,2.094637
0.211200,2.159878
0.211300,2.217005
0.211400,2.247191
0.211500,2.270236
0.211600,2.241024
0.211700,2.258226
0.211800,2.220899
0.211900,2.151764
0.212000,2.090742
0.212100,2.005702
0.212200,1.844384
0.212300,1.644767
0.212400,1.030334
0.212500,-0.144976
0.212600,-1.002846
0.212700,-0.942474
0.212800,-0.368938
0.212900,0.050097
0.213000,-0.432556
0.213100,-1.579629
0.213200,-1.742570
0.213300,-1.783792
0.213400,-1.729262
0.213500,-1.673758
0.213600,-1.680574
0.213700,-1.760422
0.213800,-1.854551
0.213900,-1.921739
0.214000,-1.929205
0.214100,-1.936670
0.214200,-1.950303
0.214300,-1.974322
0.214400,-2.008403
0.214500,-2.019763
0.214600,-2.039238
0.214700,-2.058064
0.214800,-2.080785
0.214900,-2.114217
0.215000,-2.143754
0.215100,-2.150895
0.215200,-2.151219
0.215300,-2.174265
0.215400,-2.208346
0.215500,-2.219706
0.215600,-2.164852
0.215700,-2.096365
0.215800,-2.099611
0.215900,-2.205749
0.216000,-2.306370
0.216100,-2.353435
0.216200,-2.280728
0.216300,-2.184976
0.216400,-2.163878
0.216500,-2.244699
0.216600,-2.368041
0.216700,-2.442046
0.216800,-2.412834
0.216900,-2.363821
0.217000,-2.329091
0.217100,-2.344996
0.217200,-2.368041
0.217300,-2.369664
0.217400,-2.356356
0.217500,-2.339802
0.217600,-2.323249
0.217700,-2.301826
0.217800,-2.248594
0.217900,-2.159009
0.218000,-2.080460
0.218100,-2.028527
0.218200,-2.001262
0.218300,-1.969128
0.218400,-1.903563
0.218500,-1.810083
0.218600,-1.721796
0.218700,-1.603973
0.218800,-1.532889
0.218900,-1.476736
0.219000,-1.409223
0.219100,-1.326130
0.219200,-1.237844
0.219300,-1.152154
0.219400,-1.074254
0.219500,-1.022646
0.219600,-0.985319
0.219700,-0.945395
0.219800,-0.909042
0.219900,-0.888269
0.220000,-0.846073
0.220100,-0.818159
0.220200,-0.777911
0.220300,-0.759734
0.220400,-0.740909
0.220500,-0.742856
0.220600,-0.739286
0.220700,-0.675019
0.220800,-0.569529
0.220900,-0.407888
0.221000,-0.396852
0.221100,-0.483515
0.221200,-0.609128
0.221300,-0.597119
0.221400,-0.495525
0.221500,-0.377702
0.221600,-0.330313
0.221700,-0.375105
0.221800,-0.456575
0.221900,-0.488709
0.222000,-0.452355
0.222100,-0.163153
0.222200,0.347414
0.222300,0.577542
0.222400,0.606430
0.222500,0.638239
0.222600,0.712244
0.222700,0.922897
0.222800,1.162438
0.222900,1.338037
0.223000,1.493512
0.223100,1.569788
0.223200,1.542523
0.223300,1.558752
0.223400,1.579526
0.223500,1.398409
0.223600,1.339984
0.223700,1.486046
0.223800,1.624967
0.223900,1.494810
0.224000,0.811241
0.224100,0.436025
0.224200,0.696339
0.224300,1.393216
0.224400,1.874895
0.224500,1.675926
0.224600,0.894009
0.224700,0.282498
0.224800,0.398373
0.224900,1.155622
0.225000,1.808356
0.225100,1.809979
0.225200,1.351020
0.225300,1.017999
0.225400,1.074477
0.225500,1.285130
0.225600,1.443526
0.225700,1.368223
0.225800,1.198142
0.225900,1.099469
0.226000,1.170877
0.226100,1.164061
0.226200,1.087784
0.226300,0.978725
0.226400,1.060195
0.226500,1.184510
0.226600,1.386400
0.226700,1.368548
0.226800,1.029684
0.226900,0.798582
0.227000,0.751193
0.227100,0.703804
0.227200,0.930362
0.227300,0.926792
0.227400,0.933933
0.227500,0.995603
0.227600,1.058572
0.227700,1.126410
0.227800,1.170553
0.227900,1.205283
0.228000,1.262734
0.228100,1.299087
0.228200,1.339011
0.228300,1.350696
0.228400,1.385426
0.228500,1.374065
0.228600,1.362705
0.228700,1.379908
0.228800,1.304280
0.228900,1.136472
0.229000,0.892062
0.229100,0.072818
0.229200,-1.125214
0.229300,-1.806837
0.229400,-1.463429
0.229500,-0.757138
0.229600,-0.546484
0.229700,-1.262512
0.229800,-1.739973
0.229900,-1.859744
0.230000,-1.874675
0.230100,-1.816574
0.230200,-1.776002
0.230300,-1.817224
0.230400,-1.911353
0.230500,-2.017167
0.230600,-2.071697
0.230700,-2.090522
0.230800,-2.091496
0.230900,-2.101883
0.231000,-2.126227
0.231100,-2.160308
0.231200,-2.186274
0.231300,-2.212890
0.231400,-2.228470
0.231500,-2.240155
0.231600,-2.270666
0.231700,-2.295010
0.231800,-2.305396
0.231900,-2.311239
0.232000,-2.324547
0.232100,-2.340127
0.232200,-2.324547
0.232300,-2.245998
0.232400,-2.183678
0.232500,-2.206399
0.232600,-2.308642
0.232700,-2.389139
0.232800,-2.404719
0.232900,-2.314485
0.233000,-2.216136
0.233100,-2.207372
0.233200,-2.296633
0.233300,-2.405693
0.233400,-2.457301
0.233500,-2.414132
0.233600,-2.350838
0.233700,-2.319029
0.233800,-2.317731
0.233900,-2.335583
0.234000,-2.338179
0.234100,-2.330714
0.234200,-2.314485
0.234300,-2.289816
0.234400,-2.249244
0.234500,-2.198284
0.234600,-2.125577
0.234700,-2.062608
0.234800,-2.023009
0.234900,-1.978541
0.235000,-1.933100
0.235100,-1.846111
0.235200,-1.740622
0.235300,-1.621176
0.235400,-1.526398
0.235500,-1.454665
0.235600,-1.392345
0.235700,-1.324507
0.235800,-1.251152
0.235900,-1.166760
0.236000,-1.077500
0.236100,-1.009338
0.236200,-0.957080
0.236300,-0.928517
0.236400,-0.896059
0.236500,-0.884698
0.236600,-0.857434
0.236700,-0.829195
0.236800,-0.800632
0.236900,-0.777586
0.237000,-0.770446
0.237100,-0.766551
0.237200,-0.783104
0.237300,-0.766551
0.237400,-0.692221
0.237500,-0.564661
0.237600,-0.433854
0.237700,-0.465014
0.237800,-0.589329
0.237900,-0.693844
0.238000,-0.627954
0.238100,-0.519868
0.238200,-0.408537
0.238300,-0.385492
0.238400,-0.454952
0.238500,-0.521167
0.238600,-0.541940
0.238700,-0.470207
0.238800,-0.243325
0.238900,0.311385
0.239000,0.519767
0.239100,0.599938
0.239200,0.640836
0.239300,0.716463
0.239400,1.021570
0.239500,1.278314
0.239600,1.499029
0.239700,1.755774
0.239800,1.836594
0.239900,1.861587
0.240000,1.773301
0.240100,1.774599
0.240200,1.645091
0.240300,1.791802
0.240400,1.913845
0.240500,2.062828
0.240600,1.711630
0.240700,1.045264
0.240800,0.893685
0.240900,1.385101
0.241000,2.074513
0.241100,2.399420
0.241200,2.050494
0.241300,1.230600
0.241400,0.907642
0.241500,1.197493
0.241600,1.956690
0.241700,2.419219
0.241800,2.271210
0.241900,1.835621
0.242000,1.675602
0.242100,1.733053
0.242200,1.860289
0.242300,1.883659
0.242400,1.800566
0.242500,1.722666
0.242600,1.770704
0.242700,1.826208
0.242800,1.756747
0.242900,1.622695
0.243000,1.509091
0.243100,1.609712
0.243200,1.827831
0.243300,1.975516
0.243400,1.793425
0.243500,1.402953
0.243600,1.228977
0.243700,1.214696
0.243800,1.257541
0.243900,1.323431
0.244000,1.338361
0.244100,1.400032
0.244200,1.462027
0.244300,1.513636
0.244400,1.578552
0.244500,1.688910
0.244600,1.761941
0.244700,1.825234
0.244800,1.872623
0.244900,1.942084
0.245000,1.950523
0.245100,1.953119
0.245200,1.925854
0.245300,1.940785
0.245400,1.861587
0.245500,1.780442
0.245600,1.593807
0.245700,1.203011
0.245800,0.188369
0.245900,-0.951238
0.246000,-1.285882
0.246100,-0.857434
0.246200,-0.188146
0.246300,-0.250466
0.246400,-1.235247
0.246500,-1.720823
0.246600,-1.817873
0.246700,-1.799696
0.246800,-1.724718
0.246900,-1.699725
0.247000,-1.748737
0.247100,-1.844489
0.247200,-1.927906
0.247300,-1.964584
0.247400,-1.968804
0.247500,-1.974646
0.247600,-1.983735
0.247700,-2.013921
0.247800,-2.040861
0.247900,-2.056441
0.248000,-2.081434
0.248100,-2.102857
0.248200,-2.136613
0.248300,-2.173291
0.248400,-2.188222
0.248500,-2.199907
0.248600,-2.210618
0.248700,-2.238532
0.248800,-2.258981
0.248900,-2.236585
0.249000,-2.155764
0.249100,-2.118437
0.249200,-2.183353
0.249300,-2.300528
0.249400,-2.386218
0.249500,-2.364795
0.249600,-2.267420
0.249700,-2.197310
0.249800,-2.222952
0.249900,-2.332012
0.250000,-2.439774
0.250100,-2.465741
0.250200,-2.421922
0.250300,-2.367392
0.250400,-2.353759
0.250500,-2.357979
0.250600,-2.366418
0.250700,-2.362523
0.250800,-2.348241
0.250900,-2.326819
0.251000,-2.296957
0.251100,-2.245673
0.251200,-2.167449
0.251300,-2.077864
0.251400,-2.007429
0.251500,-1.960040
0.251600,-1.924011
0.251700,-1.868832
0.251800,-1.769185
0.251900,-1.680250
0.252000,-1.552040
0.252100,-1.458560
0.252200,-1.391047
0.252300,-1.328078
0.252400,-1.260565
0.252500,-1.176498
0.252600,-1.088861
0.252700,-1.013558
0.252800,-0.956431
0.252900,-0.914885
0.253000,-0.895085
0.253100,-0.866522
0.253200,-0.856784
0.253300,-0.837309
0.253400,-0.816861
0.253500,-0.785376
0.253600,-0.774341
0.253700,-0.754541
0.253800,-0.771095
0.253900,-0.764603
0.254000,-0.757138
0.254100,-0.671124
0.254200,-0.524737
0.254300,-0.444565
0.254400,-0.501692
0.254500,-0.648727
0.254600,-0.704555
0.254700,-0.650675
0.254800,-0.512403
0.254900,-0.426064
0.255000,-0.419573
0.255100,-0.505587
0.255200,-0.563038
0.255300,-0.558818
0.255400,-0.484814
0.255500,-0.161855
0.255600,0.310736
0.255700,0.510029
0.255800,0.566506
0.255900,0.618115
0.256000,0.755413
0.256100,1.067660
0.256200,1.330247
0.256300,1.599974
0.256400,1.796022
0.256500,1.865482
0.256600,1.798618
0.256700,1.795697
0.256800,1.689234
0.256900,1.659697
0.257000,1.746361
0.257100,1.942084
0.257200,1.955067
0.257300,1.442877
0.257400,0.781704
0.257500,0.758334
0.257600,1.343879
0.257700,2.012842
0.257800,2.242646
0.257900,1.724938
0.258000,0.986190
0.258100,0.774563
0.258200,1.251374
0.258300,2.020308
0.258400,2.386112
0.258500,2.151114
0.258600,1.781740
0.258700,1.791802
0.258800,1.838217
0.258900,1.980060
0.259000,1.926828
0.259100,1.832050
0.259200,1.747334
0.259300,1.673654
0.259400,1.687287
0.259500,1.568490
0.259600,1.428271
0.259700,1.397435
0.259800,1.524022
0.259900,1.791153
0.260000,1.900537
0.260100,1.666838
0.260200,1.315965
0.260300,1.177694
0.260400,1.388347
0.260500,1.624967
0.260600,1.603869
0.260700,1.559402
0.260800,1.561349
0.260900,1.603869
0.261000,1.667487
0.261100,1.708060
0.261200,1.768432
0.261300,1.771354
0.261400,1.748308
0.261500,1.731105
0.261600,1.672681
0.261700,1.626265
0.261800,1.578552
0.261900,1.533110
0.262000,1.457483
0.262100,1.308500
0.262200,1.087460
0.262300,0.897580
0.262400,0.322097
0.262500,-0.829520
0.262600,-1.824040
0.262700,-1.729586
0.262800,-1.496861
0.262900,-0.969090
0.263000,-1.391371
0.263100,-1.764966
0.263200,-1.926283
0.263300,-2.001262
0.263400,-1.966856
0.263500,-1.906484
0.263600,-1.899992
0.263700,-1.961338
0.263800,-2.054818
0.263900,-2.123954
0.264000,-2.154790
0.264100,-2.159334
0.264200,-2.158360
0.264300,-2.164527
0.264400,-2.185950
0.264500,-2.197310
0.264600,-2.209644
0.264700,-2.231067
0.264800,-2.257358
0.264900,-2.273263
0.265000,-2.293387
0.265100,-2.295010
0.265200,-2.301177
0.265300,-2.326170
0.265400,-2.355382
0.265500,-2.367716
0.265600,-2.301177
0.265700,-2.212890
0.265800,-2.197635
0.265900,-2.285272
0.266000,-2.391736
0.266100,-2.447889
0.266200,-2.382647
0.266300,-2.277482
0.266400,-2.227496
0.266500,-2.277807
0.266600,-2.395306
0.266700,-2.476776
0.266800,-2.468337
0.266900,-2.410886
0.267000,-2.377129
0.267100,-2.377454
0.267200,-2.386542
0.267300,-2.381998
0.267400,-2.362848
0.267500,-2.356356
0.267600,-2.344346
0.267700,-2.318055
0.267800,-2.263201
0.267900,-2.170045
0.268000,-2.078188
0.268100,-2.017167
0.268200,-1.972050
0.268300,-1.939267
0.268400,-1.874026
0.268500,-1.770808
0.268600,-1.690961
0.268700,-1.560479
0.268800,-1.485500
0.268900,-1.415390
0.269000,-1.352421
0.269100,-1.271276
0.269200,-1.190779
0.269300,-1.102493
0.269400,-1.027190
0.269500,-0.976231
0.269600,-0.931763
0.269700,-0.894761
0.269800,-0.874312
0.269900,-0.861653
0.270000,-0.845424
0.270100,-0.814264
0.270200,-0.797061
0.270300,-0.772718
0.270400,-0.771419
0.270500,-0.779858
0.270600,-0.775314
0.270700,-0.751295
0.270800,-0.629902
0.270900,-0.477348
0.271000,-0.426064
0.271100,-0.514675
0.271200,-0.655868
0.271300,-0.672746
0.271400,-0.585759
0.271500,-0.456900
0.271600,-0.387114
0.271700,-0.418274
0.271800,-0.496823
0.271900,-0.543563
0.272000,-0.510131
0.272100,-0.447487
0.272200,0.013095
0.272300,0.264646
0.272400,0.419471
0.272500,0.481466
0.272600,0.570726
0.272700,0.743403
0.272800,0.913484
0.272900,1.100443
0.273000,1.307526
0.273100,1.524347
0.273200,1.524347
0.273300,1.581473
0.273400,1.491889
0.273500,1.370495
0.273600,1.335765
0.273700,1.570113
0.273800,1.762914
0.273900,1.751554
0.274000,1.044940
0.274100,0.556444
0.274200,0.709971
0.274300,1.387373
0.274400,2.075487
0.274500,1.980384
0.274600,1.257216
0.274700,0.572024
0.274800,0.586630
0.274900,1.256891
0.275000,1.905406
0.275100,1.939812
0.275200,1.474361
0.275300,1.081942
0.275400,1.089407
0.275500,1.210801
0.275600,1.273121
0.275700,1.103689
0.275800,0.877456
0.275900,0.689847
0.276000,0.626554
0.276100,0.617141
0.276200,0.486984
0.276300,0.349361
0.276400,0.362020
0.276500,0.550277
0.276600,0.778783
0.276700,0.897580
0.276800,0.623633
0.276900,0.313657
0.277000,0.230889
0.277100,0.396750
0.277200,0.585332
0.277300,0.512626
0.277400,0.447385
0.277500,0.417199
0.277600,0.451280
0.277700,0.539891
0.277800,0.584358
0.277900,0.626229
0.278000,0.676215
0.278100,0.743079
0.278200,0.828444
0.278300,0.860577
0.278400,0.924520
0.278500,0.944969
0.278600,0.970610
0.278700,0.998525
0.278800,0.942372
0.278900,0.895957
0.279000,0.684330
0.279100,0.029648
0.279200,-1.137873
0.279300,-1.725042
0.279400,-1.638703
0.279500,-1.029462
0.279600,-0.605233
0.279700,-1.147610
0.279800,-1.720173
0.279900,-1.851954
0.280000,-1.881166
0.280100,-1.829233
0.280200,-1.774054
0.280300,-1.785415
0.280400,-1.859419
0.280500,-1.956794
0.280600,-2.009052
0.280700,-2.027553
0.280800,-2.011973
0.280900,-2.017491
0.281000,-2.033396
0.281100,-2.065854
0.281200,-2.089549
0.281300,-2.103506
0.281400,-2.119410
0.281500,-2.136613
0.281600,-2.166150
0.281700,-2.189520
0.281800,-2.204451
0.281900,-2.203477
0.282000,-2.230418
0.282100,-2.254112
0.282200,-2.260604
0.282300,-2.190169
0.282400,-2.125577
0.282500,-2.137587
0.282600,-2.243076
0.282700,-2.344671
0.282800,-2.380700
0.282900,-2.307019
0.283000,-2.202828
0.283100,-2.176212
0.283200,-2.262551
0.283300,-2.374857
0.283400,-2.435879
0.283500,-2.404394
0.283600,-2.337530
0.283700,-2.298905
0.283800,-2.291439
0.283900,-2.305072
0.284000,-2.303774
0.284100,-2.287869
0.284200,-2.265797
0.284300,-2.237883
0.284400,-2.196012
0.284500,-2.129472
0.284600,-2.041835
0.284700,-1.967830
0.284800,-1.917195
0.284900,-1.880517
0.285000,-1.848384
0.285100,-1.776002
0.285200,-1.681223
0.285300,-1.608192
0.285400,-1.509195
0.285500,-1.446550
0.285600,-1.393319
0.285700,-1.328402
0.285800,-1.251152
0.285900,-1.171629
0.286000,-1.092756
0.286100,-1.021672
0.286200,-0.981099
0.286300,-0.948966
0.286400,-0.920078
0.286500,-0.899629
0.286600,-0.872040
0.286700,-0.847047
0.286800,-0.818159
0.286900,-0.792193
0.287000,-0.773691
0.287100,-0.772718
0.287200,-0.780508
0.287300,-0.773367
0.287400,-0.712995
0.287500,-0.576670
0.287600,-0.433854
0.287700,-0.433530
0.287800,-0.541615
0.287900,-0.654570
0.288000,-0.621138
0.288100,-0.516298
0.288200,-0.403019
0.288300,-0.351735
0.288400,-0.412107
0.288500,-0.472155
0.288600,-0.512728
0.288700,-0.467611
0.288800,-0.278704
0.288900,0.342870
0.289000,0.634669
0.289100,0.739184
0.289200,0.758010
0.289300,0.782029
0.289400,0.968014
0.289500,1.250724
0.289600,1.507144
0.289700,1.753502
0.289800,1.825559
0.289900,1.748633
0.290000,1.816470
0.290100,1.767459
0.290200,1.696051
0.290300,1.710657
0.290400,1.837244
0.290500,1.960585
0.290600,1.704490
0.290700,0.969312
0.290800,0.704129
0.290900,1.017999
0.291000,1.735650
0.291100,2.148193
0.291200,1.931697
0.291300,1.165035
0.291400,0.719384
0.291500,0.869016
0.291600,1.609712
0.291700,2.175458
0.291800,2.129043
0.291900,1.677549
0.292000,1.376987
0.292100,1.387698
0.292200,1.584719
0.292300,1.694428
0.292400,1.586666
0.292500,1.423726
0.292600,1.232872
0.292700,1.226705
0.292800,1.202686
0.292900,1.082916
0.293000,1.086811
0.293100,1.199116
0.293200,1.396137
0.293300,1.534409
0.293400,1.454562
0.293500,1.135498
0.293600,1.010534
0.293700,1.019298
0.293800,1.335116
0.293900,1.492213
0.294000,1.408796
0.294100,1.419507
0.294200,1.450667
0.294300,1.494485
0.294400,1.571736
0.294500,1.609063
0.294600,1.636327
0.294700,1.660996
0.294800,1.641196
0.294900,1.607764
0.295000,1.562323
0.295100,1.515583
0.295200,1.449368
0.295300,1.367249
0.295400,1.341283
0.295500,1.209178
0.295600,0.968988
0.295700,0.605781
0.295800,-0.354007
0.295900,-1.598130
0.296000,-1.754579
0.296100,-1.686092
0.296200,-1.191753
0.296300,-1.185586
0.296400,-1.722121
0.296500,-1.878894
0.296600,-1.991200
0.296700,-2.003210
0.296800,-1.955496
0.296900,-1.927582
0.297000,-1.970102
0.297100,-2.061635
0.297200,-2.144079
0.297300,-2.193415
0.297400,-2.208671
0.297500,-2.209969
0.297600,-2.211916
0.297700,-2.237559
0.297800,-2.265473
0.297900,-2.292089
0.298000,-2.321301
0.298100,-2.346619
0.298200,-2.361874
0.298300,-2.390762
0.298400,-2.401798
0.298500,-2.401798
0.298600,-2.408939
0.298700,-2.427115
0.298800,-2.443994
0.298900,-2.408614
0.299000,-2.319354
0.299100,-2.270991
0.299200,-2.316757
0.299300,-2.427115
0.299400,-2.512805
0.299500,-2.507937
0.299600,-2.418027
0.299700,-2.332012
0.299800,-2.333311
0.299900,-2.422896
0.300000,-2.510533
0.300100,-2.525464
0.300200,-2.475478
0.300300,-2.407965
0.300400,-2.374208
0.300500,-2.376156
0.300600,-2.383296
0.300700,-2.371287
0.300800,-2.344671
0.300900,-2.315459
0.301000,-2.285921
0.301100,-2.246322
0.301200,-2.170045
0.301300,-2.070723
0.301400,-1.995744
0.301500,-1.951601
0.301600,-1.913949
0.301700,-1.875973
0.301800,-1.797424
0.301900,-1.709787
0.302000,-1.615982
0.302100,-1.520231
0.302200,-1.453691
0.302300,-1.384880
0.302400,-1.311199
0.302500,-1.232651
0.302600,-1.146312
0.302700,-1.054130
0.302800,-0.999925
0.302900,-0.955782
0.303000,-0.918455
0.303100,-0.896708
0.303200,-0.872040
0.303300,-0.856135
0.303400,-0.820756
0.303500,-0.801281
0.303600,-0.763954
0.303700,-0.762656
0.303800,-0.750971
0.303900,-0.767849
0.304000,-0.742532
0.304100,-0.667553
0.304200,-0.513701
0.304300,-0.423468
0.304400,-0.467935
0.304500,-0.597443
0.304600,-0.678589
0.304700,-0.609453
0.304800,-0.495200
0.304900,-0.396203
0.305000,-0.398475
0.305100,-0.458847
0.305200,-0.521491
0.305300,-0.512078
0.305400,-0.454303
0.305500,-0.079736
0.305600,0.316903
0.305700,0.559041
0.305800,0.590201
0.305900,0.635318
0.306000,0.788196
0.306100,1.033255
0.306200,1.268252
0.306300,1.475010
0.306400,1.700270
0.306500,1.705463
0.306600,1.870026
0.306700,1.829778
0.306800,1.846981
0.306900,1.670409
0.307000,1.837568
0.307100,1.993368
0.307200,2.191363
0.307300,1.771029
0.307400,1.109856
0.307500,1.023842
0.307600,1.551936
0.307700,2.250436
0.307800,2.493549
0.307900,2.051468
0.308000,1.221837
0.308100,0.978076
0.308200,1.414963
0.308300,2.228689
0.308400,2.568527
0.308500,2.283219
0.308600,1.802838
0.308700,1.635029
0.308800,1.720719
0.308900,1.984604
0.309000,1.983955
0.309100,1.821015
0.309200,1.590886
0.309300,1.444175
0.309400,1.454562
0.309500,1.413664
0.309600,1.259488
0.309700,1.173474
0.309800,1.283183
0.309900,1.456185
0.310000,1.568490
0.310100,1.341283
0.310200,0.933284
0.310300,0.746649
0.310400,0.875184
0.310500,1.161140
0.310600,1.179641
0.310700,1.157894
0.310800,1.189703
0.310900,1.277016
0.311000,1.375364
0.311100,1.464299
0.311200,1.595755
0.311300,1.653855
0.311400,1.705139
0.311500,1.729158
0.311600,1.773950
0.311700,1.813874
0.311800,1.826208
0.311900,1.768757
0.312000,1.753177
0.312100,1.714552
0.312200,1.573683
0.312300,1.389645
0.312400,0.930038
0.312500,-0.208270
0.312600,-1.271600
0.312700,-1.569567
0.312800,-0.994407
0.312900,-0.446837
0.313000,-0.642885
0.313100,-2.015868
0.313200,-1.803267
0.313300,-1.884737
0.313400,-1.859744
0.313500,-1.788985
0.313600,-1.770808
0.313700,-1.826961
0.313800,-1.924011
0.313900,-1.991849
0.314000,-2.024307
0.314100,-2.022035
0.314200,-2.008727
0.314300,-2.018465
0.314400,-2.046704
0.314500,-2.077864
0.314600,-2.097663
0.314700,-2.111945
0.314800,-2.124604
0.314900,-2.147649
0.315000,-2.183353
0.315100,-2.202179
0.315200,-2.207372
0.315300,-2.227496
0.315400,-2.253139
0.315500,-2.272938
0.315600,-2.228146
0.315700,-2.143754
0.315800,-2.122981
0.315900,-2.203802
0.316000,-2.313511
0.316100,-2.383946
0.316200,-2.346619
0.316300,-2.241454
0.316400,-2.172642
0.316500,-2.209644
0.316600,-2.327793
0.316700,-2.428089
0.316800,-2.441721
0.316900,-2.384919
0.317000,-2.319354
0.317100,-2.298905
0.317200,-2.316108
0.317300,-2.338179
0.317400,-2.338179
0.317500,-2.325521
0.317600,-2.299879
0.317700,-2.267096
0.317800,-2.218408
0.317900,-2.131744
0.318000,-2.044432
0.318100,-1.982436
0.318200,-1.943486
0.318300,-1.912651
0.318400,-1.856174
0.318500,-1.759123
0.318600,-1.672460
0.318700,-1.554961
0.318800,-1.469920
0.318900,-1.418312
0.319000,-1.357939
0.319100,-1.286531
0.319200,-1.207658
0.319300,-1.119371
0.319400,-1.030111
0.319500,-0.964221
0.319600,-0.928842
0.319700,-0.892488
0.319800,-0.865224
0.319900,-0.847372
0.320000,-0.810694
0.320100,-0.791219
0.320200,-0.749023
0.320300,-0.736689
0.320400,-0.728250
0.320500,-0.730522
0.320600,-0.740909
0.320700,-0.693844
0.320800,-0.605558
0.320900,-0.438723
0.321000,-0.398150
0.321100,-0.475076
0.321200,-0.620489
0.321300,-0.666255
0.321400,-0.573100
0.321500,-0.471506
0.321600,-0.379974
0.321700,-0.413730
0.321800,-0.485138
0.321900,-0.551028
0.322000,-0.535124
0.322100,-0.474752
0.322200,-0.155363
0.322300,0.305218
0.322400,0.463289
0.322500,0.399347
0.322600,0.372731
0.322700,0.497371
0.322800,0.770344
0.322900,1.021245
0.323000,1.229951
0.323100,1.249751
0.323200,1.241312
0.323300,1.153025
0.323400,1.169254
0.323500,1.027737
0.323600,0.974181
0.323700,1.077722
0.323800,1.229302
0.323900,1.298113
0.324000,0.685952
0.324100,0.217581
0.324200,0.303271
0.324300,1.003069
0.324400,1.648012
0.324500,1.780117
0.324600,1.193598
0.324700,0.511977
0.324800,0.457772
0.324900,1.061169
0.325000,1.825883
0.325100,2.139105
0.325200,1.860938
0.325300,1.474686
0.325400,1.374390
0.325500,1.486371
0.325600,1.762590
0.325700,1.803163
0.325800,1.730456
0.325900,1.616203
0.326000,1.561674
0.326100,1.557454
0.326200,1.496757
0.326300,1.435736
0.326400,1.430218
0.326500,1.577254
0.326600,1.815821
0.326700,1.914170
0.326800,1.639898
0.326900,1.318887
0.327000,1.191975
0.327100,1.429894
0.327200,1.614256
0.327300,1.598351
0.327400,1.559726
0.327500,1.517531
0.327600,1.553235
0.327700,1.590561
0.327800,1.603220
0.327900,1.634055
0.328000,1.627239
0.328100,1.618800
0.328200,1.576280
0.328300,1.573359
0.328400,1.464948
0.328500,1.442552
0.328600,1.376338
0.328700,1.279288
0.328800,1.100119
0.328900,0.922572
0.329000,0.638888
0.329100,-0.023258
0.329200,-1.278741
0.329300,-1.788660
0.329400,-1.788660
0.329500,-1.641949
0.329600,-1.339438
0.329700,-1.713357
0.329800,-1.856174
0.329900,-2.003534
0.330000,-2.056117
0.330100,-2.018465
0.330200,-1.981138
0.330300,-1.995420
0.330400,-2.072670
0.330500,-2.167449
0.330600,-2.228795
0.330700,-2.256384
0.330800,-2.260279
0.330900,-2.258007
0.331000,-2.267420
0.331100,-2.286895
0.331200,-2.307344
0.331300,-2.331688
0.331400,-2.351487
0.331500,-2.372910
0.331600,-2.399201
0.331700,-2.435879
0.331800,-2.433282
0.331900,-2.440423
0.332000,-2.464442
0.332100,-2.493006
0.332200,-2.490734
0.332300,-2.424519
0.332400,-2.340451
0.332500,-2.332337
0.332600,-2.430036
0.332700,-2.522218
0.332800,-2.564414
0.332900,-2.491058
0.333000,-2.381349
0.333100,-2.342399
0.333200,-2.406991
0.333300,-2.530982
0.333400,-2.602066
0.333500,-2.589732
0.333600,-2.532280
0.333700,-2.489435
0.333800,-2.486514
0.333900,-2.503068
0.334000,-2.506638
0.334100,-2.493006
0.334200,-2.477750
0.334300,-2.448213
0.334400,-2.416079
0.334500,-2.353110
0.334600,-2.261578
0.334700,-2.168747
0.334800,-2.104479
0.334900,-2.060985
0.335000,-2.012947
0.335100,-1.929205
0.335200,-1.810732
0.335300,-1.709787
0.335400,-1.575085
0.335500,-1.501405
0.335600,-1.438436
0.335700,-1.365080
0.335800,-1.278417
0.335900,-1.190130
0.336000,-1.100546
0.336100,-1.022646
0.336200,-0.980775
0.336300,-0.944422
0.336400,-0.917481
0.336500,-0.902875
0.336600,-0.890866
0.336700,-0.866522
0.336800,-0.847372
0.336900,-0.818159
0.337000,-0.804527
0.337100,-0.805176
0.337200,-0.808422
0.337300,-0.811018
0.337400,-0.760384
0.337500,-0.651649
0.337600,-0.498771
0.337700,-0.501367
0.337800,-0.600365
0.337900,-0.729224
0.338000,-0.715591
0.338100,-0.616918
0.338200,-0.502016
0.338300,-0.446837
0.338400,-0.505911
0.338500,-0.578942
0.338600,-0.618866
0.338700,-0.585434
0.338800,-0.523763
0.338900,-0.280002
0.339000,-0.123554
0.339100,-0.026829
0.339200,0.026727
0.339300,0.100083
0.339400,0.358774
0.339500,0.631747
0.339600,0.851489
0.339700,1.025140
0.339800,1.140691
0.339900,1.190352
0.340000,1.213073
0.340100,1.194247
0.340200,1.094925
0.340300,1.063116
0.340400,1.273445
0.340500,1.496757
0.340600,1.399058
0.340700,0.700559
0.340800,0.332483
0.340900,0.591824
0.341000,1.339335
0.341100,1.846332
0.341200,1.754800
0.341300,1.052080
0.341400,0.467509
0.341500,0.509380
0.341600,1.216643
0.341700,1.843086
0.341800,1.927477
0.341900,1.529540
0.342000,1.227679
0.342100,1.258839
0.342200,1.461703
0.342300,1.618475
0.342400,1.576929
0.342500,1.440280
0.342600,1.286753
0.342700,1.256567
0.342800,1.257541
0.342900,1.214371
0.343000,1.174772
0.343100,1.277016
0.343200,1.467545
0.343300,1.683067
0.343400,1.655153
0.343500,1.356213
0.343600,1.144262
0.343700,1.138419
0.343800,1.453588
0.343900,1.598027
0.344000,1.564920
0.344100,1.574657
0.344200,1.615554
0.344300,1.665864
0.344400,1.748957
0.344500,1.791802
0.344600,1.832050
0.344700,1.897940
0.344800,1.945005
0.344900,1.924232
0.345000,1.888852
0.345100,1.802838
0.345200,1.771678
0.345300,1.711306
0.345400,1.665864
0.345500,1.513636
0.345600,1.339011
0.345700,1.097197
0.345800,0.279252
0.345900,-0.955782
0.346000,-1.658827
0.346100,-1.480956
0.346200,-0.793491
0.346300,-0.626331
0.346400,-1.319639
0.346500,-1.775028
0.346600,-1.903887
0.346700,-1.925634
0.346800,-1.883439
0.346900,-1.841243
0.347000,-1.868183
0.347100,-1.961663
0.347200,-2.062608
0.347300,-2.116814
0.347400,-2.126551
0.347500,-2.133043
0.347600,-2.153492
0.347700,-2.174589
0.347800,-2.205100
0.347900,-2.232041
0.348000,-2.245024
0.348100,-2.266771
0.348200,-2.286246
0.348300,-2.309941
0.348400,-2.327144
0.348500,-2.333635
0.348600,-2.341750
0.348700,-2.360900
0.348800,-2.381998
0.348900,-2.371611
0.349000,-2.290141
0.349100,-2.233339
0.349200,-2.249568
0.349300,-2.338504
0.349400,-2.423869
0.349500,-2.435879
0.349600,-2.351812
0.349700,-2.256384
0.349800,-2.245673
0.349900,-2.318380
0.350000,-2.413807
0.350100,-2.448538
0.350200,-2.433607
0.350300,-2.385244
0.350400,-2.351812
0.350500,-2.342074
0.350600,-2.354084
0.350700,-2.365769
0.350800,-2.367392
0.350900,-2.350838
0.351000,-2.321626
0.351100,-2.282026
0.351200,-2.216136
0.351300,-2.134017
0.351400,-2.055792
0.351500,-2.001262
0.351600,-1.957443
0.351700,-1.918493
0.351800,-1.831830
0.351900,-1.746465
0.352000,-1.641949
0.352100,-1.534837
0.352200,-1.459534
0.352300,-1.393319
0.352400,-1.310875
0.352500,-1.227457
0.352600,-1.145662
0.352700,-1.060947
0.352800,-0.985643
0.352900,-0.939228
0.353000,-0.905472
0.353100,-0.880154
0.353200,-0.860355
0.353300,-0.848345
0.353400,-0.821080
0.353500,-0.800956
0.353600,-0.789596
0.353700,-0.777911
0.353800,-0.799983
0.353900,-0.806799
0.354000,-0.821405
0.354100,-0.767524
0.354200,-0.641587
0.354300,-0.532202
0.354400,-0.556222
0.354500,-0.696116
0.354600,-0.795438
0.354700,-0.766551
0.354800,-0.650999
0.354900,-0.549730
0.355000,-0.530255
0.355100,-0.590952
0.355200,-0.657167
0.355300,-0.663334
0.355400,-0.613348
0.355500,-0.539668
0.355600,-0.483840
0.355700,-0.324795
0.355800,-0.288442
0.355900,-0.234561
0.356000,-0.159907
0.356100,0.016665
0.356200,0.210765
0.356300,0.323719
0.356400,0.495098
0.356500,0.661933
0.356600,0.650248
0.356700,0.581762
0.356800,0.438297
0.356900,0.361695
0.357000,0.406163
0.357100,0.623957
0.357200,0.720683
0.357300,0.442516
0.357400,-0.246246
0.357500,-0.396852
0.357600,-0.111545
0.357700,0.627528
0.357800,0.979374
0.357900,0.638564
0.358000,-0.084929
0.358100,-0.294609
0.358200,0.051071
0.358300,0.702182
0.358400,1.091030
0.358500,1.085188
0.358600,0.760282
0.358700,0.720358
0.358800,0.831690
0.358900,1.021570
0.359000,1.120243
0.359100,1.047212
0.359200,1.027088
0.359300,1.005341
0.359400,1.065064
0.359500,1.032606
0.359600,0.954057
0.359700,0.917379
0.359800,1.108882
0.359900,1.427297
0.360000,1.684366
0.360100,1.613607
0.360200,1.327001
0.360300,1.267927
0.360400,1.400681
0.360500,1.760642
0.360600,1.871649
0.360700,1.876518
0.360800,2.023554
0.360900,2.148842
0.361000,2.296203
0.361100,2.441291
0.361200,2.528928
0.361300,2.621434
0.361400,2.663305
0.361500,2.702580
0.361600,2.712317
0.361700,2.726274
0.361800,2.658112
0.361900,2.652594
0.362000,2.600011
0.362100,2.523085
0.362200,2.404288
0.362300,2.216680
0.362400,1.842762
0.362500,0.817408
0.362600,-0.414704
0.362700,-0.927868
0.362800,-0.528308
0.362900,0.091644
0.363000,0.031921
0.363100,-1.057701
0.363200,-1.712383
0.363300,-1.811706
0.363400,-1.806188
0.363500,-1.751658
0.363600,-1.738999
0.363700,-1.810083
0.363800,-1.918818
0.363900,-2.003210
0.364000,-2.033396
0.364100,-2.043133
0.364200,-2.047028
0.364300,-2.076241
0.364400,-2.112919
0.364500,-2.139534
0.364600,-2.165177
0.364700,-2.178484
0.364800,-2.215162
0.364900,-2.270666
0.365000,-2.301826
0.365100,-2.310914
0.365200,-2.309616
0.365300,-2.329416
0.365400,-2.366418
0.365500,-2.401149
0.365600,-2.376805
0.365700,-2.299229
0.365800,-2.284948
0.365900,-2.342074
0.366000,-2.451459
0.366100,-2.537149
0.366200,-2.513130
0.366300,-2.423220
0.366400,-2.356681
0.366500,-2.379401
0.366600,-2.480996
0.366700,-2.585837
0.366800,-2.604013
0.366900,-2.549808
0.367000,-2.492357
0.367100,-2.475803
0.367200,-2.497550
0.367300,-2.517999
0.367400,-2.511507
0.367500,-2.498199
0.367600,-2.477426
0.367700,-2.450810
0.367800,-2.401473
0.367900,-2.328117
0.368000,-2.255411
0.368100,-2.187897
0.368200,-2.147000
0.368300,-2.115191
0.368400,-2.070723
0.368500,-1.971725
0.368600,-1.888632
0.368700,-1.787037
0.368800,-1.691286
0.368900,-1.631238
0.369000,-1.565997
0.369100,-1.487123
0.369200,-1.407600
0.369300,-1.316717
0.369400,-1.234923
0.369500,-1.172603
0.369600,-1.138522
0.369700,-1.099572
0.369800,-1.059973
0.369900,-1.038875
0.370000,-0.996355
0.370100,-0.968441
0.370200,-0.924622
0.370300,-0.902226
0.370400,-0.872689
0.370500,-0.865873
0.370600,-0.850942
0.370700,-0.825949
0.370800,-0.715267
0.370900,-0.550054
0.371000,-0.450408
0.371100,-0.501367
0.371200,-0.640288
0.371300,-0.692871
0.371400,-0.614646
0.371500,-0.477997
0.371600,-0.390685
0.371700,-0.399124
0.371800,-0.495525
0.371900,-0.555248
0.372000,-0.551677
0.372100,-0.453978
0.372200,-0.070323
0.372300,0.265295
0.372400,0.209467
0.372500,0.158507
0.372600,0.272760
0.372700,0.474650
0.372800,0.744053
0.372900,0.868692
0.373000,0.915432
0.373100,1.044940
0.373200,1.194247
0.373300,1.194247
0.373400,1.082591
0.373500,0.938802
0.373600,0.763852
0.373700,0.953732
0.373800,1.125111
0.373900,1.300385
0.374000,0.809293
0.374100,0.285419
0.374200,0.233810
0.374300,0.683031
0.374400,1.491564
0.374500,1.637950
0.374600,1.228653
0.374700,0.485361
0.374800,0.234135
0.374900,0.694392
0.375000,1.430543
0.375100,1.819392
0.375200,1.543822
0.375300,1.094276
0.375400,0.921599
0.375500,0.989112
0.375600,1.265980
0.375700,1.410094
0.375800,1.290973
0.375900,1.014429
0.376000,0.790468
0.376100,0.756062
0.376200,0.734315
0.376300,0.699909
0.376400,0.705103
0.376500,0.865771
0.376600,1.070257
0.376700,1.139718
0.376800,0.900501
0.376900,0.613571
0.377000,0.535347
0.377100,0.675241
0.377200,0.944644
0.377300,0.925169
0.377400,0.894334
0.377500,0.976128
0.377600,1.033579
0.377700,1.130954
0.377800,1.223460
0.377900,1.327326
0.378000,1.398734
0.378100,1.463975
0.378200,1.534084
0.378300,1.590237
0.378400,1.599650
0.378500,1.584719
0.378600,1.614905
0.378700,1.577903
0.378800,1.476958
0.378900,1.356863
0.379000,1.149780
0.379100,0.630124
0.379200,-0.458522
0.379300,-1.528670
0.379400,-1.626694
0.379500,-1.029137
0.379600,-0.404966
0.379700,-0.746427
0.379800,-1.671161
0.379900,-1.824364
0.380000,-1.884737
0.380100,-1.832154
0.380200,-1.770484
0.380300,-1.767562
0.380400,-1.845462
0.380500,-1.952250
0.380600,-2.023983
0.380700,-2.037291
0.380800,-2.021386
0.380900,-2.021062
0.381000,-2.043458
0.381100,-2.070723
0.381200,-2.104155
0.381300,-2.115515
0.381400,-2.125253
0.381500,-2.153492
0.381600,-2.180432
0.381700,-2.201205
0.381800,-2.202179
0.381900,-2.213864
0.382000,-2.236909
0.382100,-2.275859
0.382200,-2.283974
0.382300,-2.233339
0.382400,-2.153816
0.382500,-2.159983
0.382600,-2.230093
0.382700,-2.343373
0.382800,-2.387841
0.382900,-2.338504
0.383000,-2.243076
0.383100,-2.191468
0.383200,-2.228470
0.383300,-2.343697
0.383400,-2.429387
0.383500,-2.440748
0.383600,-2.381998
0.383700,-2.317081
0.383800,-2.293711
0.383900,-2.305396
0.384000,-2.330389
0.384100,-2.335258
0.384200,-2.331039
0.384300,-2.304098
0.384400,-2.255735
0.384500,-2.197959
0.384600,-2.115840
0.384700,-2.048976
0.384800,-2.003534
0.384900,-1.968155
0.385000,-1.941539
0.385100,-1.878570
0.385200,-1.780546
0.385300,-1.717252
0.385400,-1.628966
0.385500,-1.569242
0.385600,-1.510168
0.385700,-1.448498
0.385800,-1.379362
0.385900,-1.296918
0.386000,-1.214799
0.386100,-1.149233
0.386200,-1.097949
0.386300,-1.076202
0.386400,-1.057701
0.386500,-1.051534
0.386600,-1.036603
0.386700,-1.024269
0.386800,-0.990188
0.386900,-0.978827
0.387000,-0.962923
0.387100,-0.974283
0.387200,-0.992135
0.387300,-1.001223
0.387400,-0.975257
0.387500,-0.870741
0.387600,-0.718512
0.387700,-0.687353
0.387800,-0.772718
0.387900,-0.915209
0.388000,-0.913262
0.388100,-0.799009
0.388200,-0.647754
0.388300,-0.568556
0.388400,-0.597443
0.388500,-0.654894
0.388600,-0.676641
0.388700,-0.615620
0.388800,-0.528632
0.388900,-0.350761
0.389000,-0.003134
0.389100,0.199080
0.389200,0.352607
0.389300,0.534048
0.389400,0.790143
0.389500,1.042992
0.389600,1.292920
0.389700,1.562323
0.389800,1.879439
0.389900,2.058933
0.390000,1.956041
0.390100,1.875220
0.390200,1.738895
0.390300,1.836270
0.390400,2.091391
0.390500,2.340670
0.390600,2.261472
0.390700,1.641521
0.390800,1.236767
0.390900,1.383154
0.391000,1.944356
0.391100,2.601634
0.391200,2.476995
0.391300,1.806733
0.391400,1.214371
0.391500,1.183211
0.391600,1.640222
0.391700,2.232584
0.391800,2.371506
0.391900,2.051792
0.392000,1.686313
0.392100,1.569788
0.392200,1.622370
0.392300,1.745062
0.392400,1.677874
0.392500,1.526619
0.392600,1.375039
0.392700,1.249102
0.392800,1.201713
0.392900,1.092978
0.393000,0.980348
0.393100,1.034553
0.393200,1.186782
0.393300,1.328299
0.393400,1.311097
0.393500,0.991059
0.393600,0.731394
0.393700,0.656091
0.393800,0.850191
0.393900,1.022868
0.394000,0.962496
0.394100,0.958926
0.394200,1.003718
0.394300,1.030658
0.394400,1.110181
0.394500,1.171202
0.394600,1.245207
0.394700,1.267603
0.394800,1.291297
0.394900,1.329273
0.395000,1.345502
0.395100,1.374715
0.395200,1.303307
0.395300,1.262409
0.395400,1.212748
0.395500,1.093302
0.395600,0.905370
0.395700,0.644406
0.395800,-0.119984
0.395900,-1.406302
0.396000,-1.774379
0.396100,-1.757825
0.396200,-1.458560
0.396300,-1.265109
0.396400,-1.741271
0.396500,-1.908756
0.396600,-2.052546
0.396700,-2.092470
0.396800,-2.057090
0.396900,-2.026255
0.397000,-2.066828
0.397100,-2.164203
0.397200,-2.275210
0.397300,-2.342074
0.397400,-2.359602
0.397500,-2.361549
0.397600,-2.379077
0.397700,-2.413483
0.397800,-2.437826
0.397900,-2.455354
0.398000,-2.468986
0.398100,-2.496901
0.398200,-2.524815
0.398300,-2.552729
0.398400,-2.559870
0.398500,-2.559221
0.398600,-2.560844
0.398700,-2.590056
0.398800,-2.614075
0.398900,-2.602066
0.399000,-2.519297
0.399100,-2.458275
0.399200,-2.476452
0.399300,-2.577397
0.399400,-2.675746
0.399500,-2.704634
0.399600,-2.620567
0.399700,-2.519297
0.399800,-2.496576
0.399900,-2.572204
0.400000,-2.673474
0.400100,-2.720214
0.400200,-2.690353
0.400300,-2.623813
0.400400,-2.567011
0.400500,-2.546237
0.400600,-2.551106
0.400700,-2.555001
0.400800,-2.542992
0.400900,-2.518323
0.401000,-2.472881
0.401100,-2.409263
0.401200,-2.326170
0.401300,-2.225549
0.401400,-2.140184
0.401500,-2.076890
0.401600,-2.026904
0.401700,-1.979190
0.401800,-1.901291
0.401900,-1.800994
0.402000,-1.726340
0.402100,-1.606569
0.402200,-1.536460
0.402300,-1.465701
0.402400,-1.396565
0.402500,-1.320937
0.402600,-1.238818
0.402700,-1.154426
0.402800,-1.087887
0.402900,-1.048612
0.403000,-1.019725
0.403100,-0.992135
0.403200,-0.977529
0.403300,-0.963572
0.403400,-0.936632
0.403500,-0.914560
0.403600,-0.884049
0.403700,-0.878856
0.403800,-0.860030
0.403900,-0.879830
0.404000,-0.866197
0.404100,-0.812966
0.404200,-0.659114
0.404300,-0.533825
0.404400,-0.515000
0.404500,-0.633472
0.404600,-0.746751
0.404700,-0.711047
0.404800,-0.602312
0.404900,-0.478646
0.405000,-0.450408
0.405100,-0.509157
0.405200,-0.590627
0.405300,-0.603935
0.405400,-0.546484
0.405500,-0.440995
0.405600,-0.013196
0.405700,0.220502
0.405800,0.259452
0.405900,0.393180
0.406000,0.640186
0.406100,0.912186
0.406200,1.190352
0.406300,1.380233
0.406400,1.572385
0.406500,1.702218
0.406600,1.643144
0.406700,1.551936
0.406800,1.384777
0.406900,1.234820
0.407000,1.228977
0.407100,1.374065
0.407200,1.487669
0.407300,1.215670
0.407400,0.433753
0.407500,0.093591
0.407600,0.339299
0.407700,0.987164
0.407800,1.438982
0.407900,1.191975
0.408000,0.395127
0.408100,-0.158609
0.408200,0.017314
0.408300,0.691146
0.408400,1.234171
0.408500,1.199765
0.408600,0.844024
0.408700,0.552874
0.408800,0.465886
0.408900,0.648626
0.409000,0.867718
0.409100,0.896930
0.409200,0.747298
0.409300,0.573647
0.409400,0.590525
0.409500,0.633695
0.409600,0.624931
0.409700,0.644406
0.409800,0.735938
0.409900,0.957627
0.410000,1.236767
0.410100,1.169904
0.410200,0.765800
0.410300,0.587280
0.410400,0.592148
0.410500,0.925169
0.410600,1.016052
0.410700,0.952109
0.410800,0.958276
0.410900,1.012806
0.411000,1.034878
0.411100,1.090706
0.411200,1.125111
0.411300,1.137121
0.411400,1.123488
0.411500,1.091679
0.411600,1.049808
0.411700,1.000147
0.411800,0.953408
0.411900,0.906668
0.412000,0.777484
0.412100,0.696339
0.412200,0.523662
0.412300,0.342870
0.412400,-0.010275
0.412500,-0.947018
0.412600,-1.787362
0.412700,-1.846436
0.412800,-1.793529
0.412900,-1.555610
0.413000,-1.478684
0.413100,-1.765940
0.413200,-1.935696
0.413300,-2.043782
0.413400,-2.043458
0.413500,-1.986980
0.413600,-1.951601
0.413700,-1.998665
0.413800,-2.085978
0.413900,-2.178484
0.414000,-2.237559
0.414100,-2.244375
0.414200,-2.246322
0.414300,-2.254112
0.414400,-2.272614
0.414500,-2.294361
0.414600,-2.321301
0.414700,-2.330389
0.414800,-2.353435
0.414900,-2.377454
0.415000,-2.390762
0.415100,-2.392385
0.415200,-2.377129
0.415300,-2.385569
0.415400,-2.399850
0.415500,-2.419001
0.415600,-2.378752
0.415700,-2.287869
0.415800,-2.236909
0.415900,-2.255735
0.416000,-2.345969
0.416100,-2.443344
0.416200,-2.426466
0.416300,-2.325521
0.416400,-2.237559
0.416500,-2.226198
0.416600,-2.299554
0.416700,-2.392060
0.416800,-2.435879
0.416900,-2.389464
0.417000,-2.322924
0.417100,-2.280728
0.417200,-2.277158
0.417300,-2.286571
0.417400,-2.280079
0.417500,-2.265148
0.417600,-2.239506
0.417700,-2.207048
0.417800,-2.160308
0.417900,-2.082732
0.418000,-1.991200
0.418100,-1.913949
0.418200,-1.864288
0.418300,-1.828584
0.418400,-1.790932
0.418500,-1.698751
0.418600,-1.601052
0.418700,-1.521529
0.418800,-1.423505
0.418900,-1.358264
0.419000,-1.291400
0.419100,-1.223238
0.419200,-1.150207
0.419300,-1.055753
0.419400,-0.972660
0.419500,-0.913911
0.419600,-0.867820
0.419700,-0.843477
0.419800,-0.819782
0.419900,-0.808746
0.420000,-0.777911
0.420100,-0.762006
0.420200,-0.739610
0.420300,-0.719162
0.420400,-0.725004
0.420500,-0.726302
0.420600,-0.755190
0.420700,-0.725004
0.420800,-0.682484
0.420900,-0.506236
0.421000,-0.423792
0.421100,-0.449759
0.421200,-0.600365
0.421300,-0.679238
0.421400,-0.630875
0.421500,-0.488709
0.421600,-0.384193
0.421700,-0.375105
0.421800,-0.455277
0.421900,-0.529606
0.422000,-0.536422
0.422100,-0.467286
0.422200,-0.236508
0.422300,0.230889
0.422400,0.397399
0.422500,0.424015
0.422600,0.485361
0.422700,0.640186
0.422800,0.826172
0.422900,1.026114
0.423000,1.194247
0.423100,1.405225
0.423200,1.582122
0.423300,1.493187
0.423400,1.413664
0.423500,1.194572
0.423600,1.105636
0.423700,1.164061
0.423800,1.396786
0.423900,1.427946
0.424000,1.017999
0.424100,0.329237
0.424200,0.174087
0.424300,0.570401
0.424400,1.355889
0.424500,1.651583
0.424600,1.275068
0.424700,0.556769
0.424800,0.317228
0.424900,0.627528
0.425000,1.345502
0.425100,1.730456
0.425200,1.577578
0.425300,1.127383
0.425400,0.936205
0.425500,0.970286
0.425600,1.164710
0.425700,1.215020
0.425800,1.106935
0.425900,0.953408
0.426000,0.832339
0.426100,0.862200
0.426200,0.886544
0.426300,0.831040
0.426400,0.839804
0.426500,1.010534
0.426600,1.245531
0.426700,1.433464
0.426800,1.308175
0.426900,0.997875
0.427000,0.959899
0.427100,1.088758
0.427200,1.461703
0.427300,1.575306
0.427400,1.629511
0.427500,1.686962
0.427600,1.764537
0.427700,1.796671
0.427800,1.824260
0.427900,1.900213
0.428000,1.915792
0.428100,1.893072
0.428200,1.908652
0.428300,1.880738
0.428400,1.805435
0.428500,1.712929
0.428600,1.615879
0.428700,1.522075
0.428800,1.367249
0.428900,1.214696
0.429000,0.902773
0.429100,0.402268
0.429200,-0.810694
0.429300,-1.745815
0.429400,-1.796450
0.429500,-1.727639
0.429600,-1.317691
0.429700,-1.608517
0.429800,-1.811381
0.429900,-1.994446
0.430000,-2.082408
0.430100,-2.076890
0.430200,-2.011973
0.430300,-2.000613
0.430400,-2.074293
0.430500,-2.180432
0.430600,-2.262551
0.430700,-2.284948
0.430800,-2.283325
0.430900,-2.287544
0.431000,-2.306370
0.431100,-2.336881
0.431200,-2.352461
0.431300,-2.368041
0.431400,-2.369664
0.431500,-2.398876
0.431600,-2.424843
0.431700,-2.448862
0.431800,-2.444318
0.431900,-2.437177
0.432000,-2.447564
0.432100,-2.475154
0.432200,-2.491383
0.432300,-2.431010
0.432400,-2.332337
0.432500,-2.299229
0.432600,-2.354409
0.432700,-2.460872
0.432800,-2.523517
0.432900,-2.483917
0.433000,-2.370638
0.433100,-2.286246
0.433200,-2.312213
0.433300,-2.415106
0.433400,-2.524490
0.433500,-2.540395
0.433600,-2.477426
0.433700,-2.413158
0.433800,-2.387841
0.433900,-2.397254
0.434000,-2.419001
0.434100,-2.420299
0.434200,-2.398552
0.434300,-2.364795
0.434400,-2.330714
0.434500,-2.280404
0.434600,-2.201530
0.434700,-2.114542
0.434800,-2.043458
0.434900,-1.994121
0.435000,-1.962961
0.435100,-1.914923
0.435200,-1.821768
0.435300,-1.736403
0.435400,-1.630589
0.435500,-1.553987
0.435600,-1.494913
0.435700,-1.415066
0.435800,-1.338464
0.435900,-1.252125
0.436000,-1.165462
0.436100,-1.078149
0.436200,-1.016803
0.436300,-0.973309
0.436400,-0.938579
0.436500,-0.902550
0.436600,-0.877233
0.436700,-0.851267
0.436800,-0.833739
0.436900,-0.811018
0.437000,-0.790894
0.437100,-0.792842
0.437200,-0.795114
0.437300,-0.797386
0.437400,-0.768823
0.437500,-0.666255
0.437600,-0.530255
0.437700,-0.455926
0.437800,-0.534799
0.437900,-0.677615
0.438000,-0.710073
0.438100,-0.626007
0.438200,-0.488384
0.438300,-0.416002
0.438400,-0.431258
0.438500,-0.525386
0.438600,-0.574723
0.438700,-0.557520
0.438800,-0.471830
0.438900,-0.155038
0.439000,0.173438
0.439100,0.316903
0.439200,0.303920
0.439300,0.434077
0.439400,0.622984
0.439500,0.913809
0.439600,1.174772
0.439700,1.388347
0.439800,1.487344
0.439900,1.674304
0.440000,1.572060
0.440100,1.580175
0.440200,1.436710
0.440300,1.427297
0.440400,1.609063
0.440500,1.725912
0.440600,1.747010
0.440700,1.122190
0.440800,0.666153
0.440900,0.701208
0.441000,1.233846
0.441100,1.924881
0.441200,1.978112
0.441300,1.400357
0.441400,0.690172
0.441500,0.491204
0.441600,0.936854
0.441700,1.642819
0.441800,1.994341
0.441900,1.734676
0.442000,1.300061
0.442100,1.132252
0.442200,1.155947
0.442300,1.403278
0.442400,1.501951
0.442500,1.467545
0.442600,1.313693
0.442700,1.193273
0.442800,1.147183
0.442900,1.115049
0.443000,1.147832
0.443100,1.242934
0.443200,1.433788
0.443300,1.605817
0.443400,1.650609
0.443500,1.348099
0.443600,1.076424
0.443700,1.030658
0.443800,1.237741
0.443900,1.371793
0.444000,1.327650
0.444100,1.273445
0.444200,1.286753
0.444300,1.307851
0.444400,1.358486
0.444500,1.371469
0.444600,1.376662
0.444700,1.427297
0.444800,1.432490
0.444900,1.448719
0.445000,1.434113
0.445100,1.412042
0.445200,1.387698
0.445300,1.326352
0.445400,1.243908
0.445500,1.096548
0.445600,0.928415
0.445700,0.694392
0.445800,0.017314
0.445900,-1.244011
0.446000,-1.768861
0.446100,-1.764966
0.446200,-1.572813
0.446300,-1.156698
0.446400,-1.750035
0.446500,-1.822092
0.446600,-1.961014
0.446700,-2.010350
0.446800,-1.959715
0.446900,-1.902264
0.447000,-1.913949
0.447100,-2.000938
0.447200,-2.096365
0.447300,-2.159659
0.447400,-2.177511
0.447500,-2.175239
0.447600,-2.195363
0.447700,-2.212890
0.447800,-2.239831
0.447900,-2.264174
0.448000,-2.285597
0.448100,-2.320327
0.448200,-2.355707
0.448300,-2.379726
0.448400,-2.381674
0.448500,-2.378103
0.448600,-2.388814
0.448700,-2.417702
0.448800,-2.444643
0.448900,-2.434256
0.449000,-2.357330
0.449100,-2.274886
0.449200,-2.280079
0.449300,-2.358304
0.449400,-2.465416
0.449500,-2.502419
0.449600,-2.440423
0.449700,-2.344022
0.449800,-2.305396
0.449900,-2.365769
0.450000,-2.485216
0.450100,-2.560519
0.450200,-2.556624
0.450300,-2.508586
0.450400,-2.463144
0.450500,-2.448213
0.450600,-2.462170
0.450700,-2.476127
0.450800,-2.471908
0.450900,-2.455679
0.451000,-2.430361
0.451100,-2.394657
0.451200,-2.339802
0.451300,-2.262551
0.451400,-2.182704
0.451500,-2.126551
0.451600,-2.081434
0.451700,-2.041186
0.451800,-1.961338
0.451900,-1.853901
0.452000,-1.729262
0.452100,-1.614684
0.452200,-1.550092
0.452300,-1.482254
0.452400,-1.411171
0.452500,-1.330674
0.452600,-1.253748
0.452700,-1.167409
0.452800,-1.095677
0.452900,-1.049911
0.453000,-1.013558
0.453100,-0.984670
0.453200,-0.974283
0.453300,-0.946694
0.453400,-0.927219
0.453500,-0.887944
0.453600,-0.871066
0.453700,-0.854837
0.453800,-0.860030
0.453900,-0.867496
0.454000,-0.872689
0.454100,-0.833739
0.454200,-0.712021
0.454300,-0.571477
0.454400,-0.541940
0.454500,-0.659114
0.454600,-0.788298
0.454700,-0.775314
0.454800,-0.668202
0.454900,-0.528308
0.455000,-0.491305
0.455100,-0.538694
0.455200,-0.623735
0.455300,-0.642885
0.455400,-0.591276
0.455500,-0.513701
0.455600,-0.326742
0.455700,-0.187497
0.455800,-0.069349
0.455900,0.026403
0.456000,0.234459
0.456100,0.456798
0.456200,0.625905
0.456300,0.733666
0.456400,0.857656
0.456500,1.128033
0.456600,1.170228
0.456700,1.105312
0.456800,0.873561
0.456900,0.660635
0.457000,0.608702
0.457100,0.827145
0.457200,0.969961
0.457300,0.761905
0.457400,0.010498
0.457500,-0.324470
0.457600,-0.099860
0.457700,0.644406
0.457800,1.198142
0.457900,1.006639
0.458000,0.373705
0.458100,-0.177759
0.458200,-0.021311
0.458300,0.737236
0.458400,1.481827
0.458500,1.556805
0.458600,1.162114
0.458700,0.785274
0.458800,0.827795
0.458900,1.063441
0.459000,1.307526
0.459100,1.280261
0.459200,1.134200
0.459300,0.964119
0.459400,1.005341
0.459500,1.010859
0.459600,0.916405
0.459700,0.837532
0.459800,0.842076
0.459900,1.017999
0.460000,1.216643
0.460100,1.218266
0.460200,0.866095
0.460300,0.562611
0.460400,0.543461
0.460500,0.719709
0.460600,0.942372
0.460700,0.902124
0.460800,0.929064
0.460900,0.979050
0.461000,1.040071
0.461100,1.111154
0.461200,1.193273
0.461300,1.224109
0.461400,1.291297
0.461500,1.274743
0.461600,1.303307
0.461700,1.302008
0.461800,1.321808
0.461900,1.314342
0.462000,1.285455
0.462100,1.218591
0.462200,1.096873
0.462300,0.958276
0.462400,0.667776
0.462500,-0.080060
0.462600,-1.360211
0.462700,-1.732832
0.462800,-1.689013
0.462900,-1.083343
0.463000,-0.897033
0.463100,-2.059687
0.463200,-1.848708
0.463300,-1.980813
0.463400,-1.996393
0.463500,-1.930178
0.463600,-1.883114
0.463700,-1.924011
0.463800,-2.025930
0.463900,-2.128499
0.464000,-2.172642
0.464100,-2.160632
0.464200,-2.152518
0.464300,-2.173616
0.464400,-2.200881
0.464500,-2.230418
0.464600,-2.244375
0.464700,-2.248919
0.464800,-2.263525
0.464900,-2.300852
0.465000,-2.317406
0.465100,-2.329740
0.465200,-2.318055
0.465300,-2.324547
0.465400,-2.341101
0.465500,-2.366094
0.465600,-2.338504
0.465700,-2.237234
0.465800,-2.165826
0.465900,-2.192766
0.466000,-2.292089
0.466100,-2.398552
0.466200,-2.397578
0.466300,-2.302800
0.466400,-2.198284
0.466500,-2.184976
0.466600,-2.280079
0.466700,-2.409912
0.466800,-2.475803
0.466900,-2.436853
0.467000,-2.362523
0.467100,-2.318704
0.467200,-2.322924
0.467300,-2.358953
0.467400,-2.382647
0.467500,-2.372261
0.467600,-2.344346
0.467700,-2.301177
0.467800,-2.262876
0.467900,-2.228795
0.468000,-2.170694
0.468100,-2.107076
0.468200,-2.057415
0.468300,-2.017491
0.468400,-1.984708
0.468500,-1.904536
0.468600,-1.806512
0.468700,-1.680250
0.468800,-1.590016
0.468900,-1.533214
0.469000,-1.485500
0.469100,-1.423180
0.469200,-1.358264
0.469300,-1.275495
0.469400,-1.183963
0.469500,-1.117748
0.469600,-1.082044
0.469700,-1.051534
0.469800,-1.019400
0.469900,-1.002522
0.470000,-0.981099
0.470100,-0.955457
0.470200,-0.934035
0.470300,-0.907095
0.470400,-0.891190
0.470500,-0.891190
0.470600,-0.885348
0.470700,-0.881453
0.470800,-0.794465
0.470900,-0.651649
0.471000,-0.509157
0.471100,-0.543887
0.471200,-0.648403
0.471300,-0.757462
0.471400,-0.698388
0.471500,-0.557195
0.471600,-0.440346
0.471700,-0.416327
0.471800,-0.483191
0.471900,-0.556871
0.472000,-0.557520
0.472100,-0.496174
0.472200,-0.293635
0.472300,0.262698
0.472400,0.430831
0.472500,0.474974
0.472600,0.556769
0.472700,0.730420
0.472800,1.044940
0.472900,1.313044
0.473000,1.571411
0.473100,1.741167
0.473200,1.939162
0.473300,1.888852
0.473400,1.909301
0.473500,1.810952
0.473600,1.754151
0.473700,1.852174
0.473800,2.042055
0.473900,2.125472
0.474000,1.779468
0.474100,1.116348
0.474200,0.972883
0.474300,1.320509
0.474400,2.175133
0.474500,2.529902
0.474600,2.284842
0.474700,1.522075
0.474800,1.060195
0.474900,1.275068
0.475000,2.019334
0.475100,2.591248
0.475200,2.560737
0.475300,2.117358
0.475400,1.781740
0.475500,1.725263
0.475600,1.842112
0.475700,2.012193
0.475800,1.971621
0.475900,1.855420
0.476000,1.717798
0.476100,1.648986
0.476200,1.603545
0.476300,1.512662
0.476400,1.439956
0.476500,1.497407
0.476600,1.600299
0.476700,1.651583
0.476800,1.410094
0.476900,0.934257
0.477000,0.686277
0.477100,0.569428
0.477200,0.733341
0.477300,0.758659
0.477400,0.659661
0.477500,0.615194
0.477600,0.639537
0.477700,0.696988
0.477800,0.763203
0.477900,0.798907
0.478000,0.811566
0.478100,0.841427
0.478200,0.866095
0.478300,0.874210
0.478400,0.823575
0.478500,0.809293
0.478600,0.813188
0.478700,0.725876
0.478800,0.651871
0.478900,0.511652
0.479000,0.345466
0.479100,-0.079736
0.479200,-1.040822
0.479300,-1.786388
0.479400,-1.841243
0.479500,-1.774379
0.479600,-1.502054
0.479700,-1.614035
0.479800,-1.804240
0.479900,-1.979840
0.480000,-2.072021
0.480100,-2.054494
0.480200,-1.981787
0.480300,-1.953548
0.480400,-2.014245
0.480500,-2.114542
0.480600,-2.207697
0.480700,-2.225224
0.480800,-2.217110
0.480900,-2.206723
0.481000,-2.213864
0.481100,-2.216785
0.481200,-2.230418
0.481300,-2.238532
0.481400,-2.240480
0.481500,-2.255086
0.481600,-2.284299
0.481700,-2.290466
0.481800,-2.286571
0.481900,-2.279430
0.482000,-2.298905
0.482100,-2.338504
0.482200,-2.359277
0.482300,-2.313511
0.482400,-2.226847
0.482500,-2.196337
0.482600,-2.241129
0.482700,-2.337855
0.482800,-2.405044
0.482900,-2.369339
0.483000,-2.259955
0.483100,-2.167449
0.483200,-2.171019
0.483300,-2.266771
0.483400,-2.377454
0.483500,-2.412509
0.483600,-2.380700
0.483700,-2.328766
0.483800,-2.306370
0.483900,-2.322924
0.484000,-2.350514
0.484100,-2.371287
0.484200,-2.375506
0.484300,-2.373884
0.484400,-2.348566
0.484500,-2.323249
0.484600,-2.280404
0.484700,-2.212890
0.484800,-2.156088
0.484900,-2.121033
0.485000,-2.096040
0.485100,-2.056766
0.485200,-1.966856
0.485300,-1.864288
0.485400,-1.749061
0.485500,-1.681548
0.485600,-1.627343
0.485700,-1.565672
0.485800,-1.494264
0.485900,-1.416040
0.486000,-1.325156
0.486100,-1.232326
0.486200,-1.161892
0.486300,-1.123266
0.486400,-1.085290
0.486500,-1.055753
0.486600,-1.035305
0.486700,-1.008364
0.486800,-0.973959
0.486900,-0.942474
0.487000,-0.910665
0.487100,-0.904173
0.487200,-0.886971
0.487300,-0.895734
0.487400,-0.853214
0.487500,-0.766226
0.487600,-0.600040
0.487700,-0.495849
0.487800,-0.549730
0.487900,-0.678264
0.488000,-0.738637
0.488100,-0.635095
0.488200,-0.501043
0.488300,-0.387439
0.488400,-0.393281
0.488500,-0.448136
0.488600,-0.500069
0.488700,-0.468260
0.488800,-0.067726
0.488900,0.462965
0.489000,0.871289
0.489100,0.948864
0.489200,1.013455
0.489300,1.134200
0.489400,1.348748
0.489500,1.597378
0.489600,1.793425
0.489700,1.966427
0.489800,2.161176
0.489900,2.380269
0.490000,2.252059
0.490100,2.215706
0.490200,2.056661
0.490300,2.007649
0.490400,2.168642
0.490500,2.369883
0.490600,2.358198
0.490700,1.802513
0.490800,1.190352
0.490900,1.161789
0.491000,1.619774
0.491100,2.317950
0.491200,2.437720
0.491300,1.963831
0.491400,1.243908
0.491500,1.018973
0.491600,1.385426
0.491700,2.107945
0.491800,2.497443
0.491900,2.256279
0.492000,1.868403
0.492100,1.697349
0.492200,1.689883
0.492300,1.851201
0.492400,1.833998
0.492500,1.716499
0.492600,1.515908
0.492700,1.381206
0.492800,1.322132
0.492900,1.172176
0.493000,0.997875
0.493100,0.956978
0.493200,1.029360
0.493300,1.159842
0.493400,1.198467
0.493500,0.912835
0.493600,0.518793
0.493700,0.338001
0.493800,0.252961
0.493900,0.414278
0.494000,0.313333
0.494100,0.255233
0.494200,0.184149
0.494300,0.127997
0.494400,0.152016
0.494500,0.173114
0.494600,0.167271
0.494700,0.169868
0.494800,0.165973
0.494900,0.168569
0.495000,0.169543
0.495100,0.150068
0.495200,0.132865
0.495300,0.036140
0.495400,-0.009301
0.495500,-0.123229
0.495600,-0.243000
0.495700,-0.445215
0.495800,-1.000250
0.495900,-1.795152
0.496000,-1.933100
0.496100,-1.942513
0.496200,-1.863964
0.496300,-1.767562
0.496400,-1.798722
0.496500,-1.945434
0.496600,-2.093768
0.496700,-2.148623
0.496800,-2.103830
0.496900,-2.041835
0.497000,-2.034694
0.497100,-2.109673
0.497200,-2.211916
0.497300,-2.283974
0.497400,-2.301501
0.497500,-2.295334
0.497600,-2.307669
0.497700,-2.324871
0.497800,-2.353759
0.497900,-2.378752
0.498000,-2.395306
0.498100,-2.395631
0.498200,-2.411535
0.498300,-2.437826
0.498400,-2.438151
0.498500,-2.428738
0.498600,-2.419001
0.498700,-2.436528
0.498800,-2.460547
0.498900,-2.457951
0.499000,-2.385244
0.499100,-2.301826
0.499200,-2.288194
0.499300,-2.350514
0.499400,-2.456652
0.499500,-2.503717
0.499600,-2.443994
0.499700,-2.336556
0.499800,-2.275535
0.499900,-2.303124
0.500000,-2.396280
0.500100,-2.475478
0.500200,-2.483268
0.500300,-2.424519
0.500400,-2.364146
0.500500,-2.336881
0.500600,-2.346943
0.500700,-2.348566
0.500800,-2.348891
0.500900,-2.334284
0.501000,-2.307669
0.501100,-2.263850
0.501200,-2.211592
0.501300,-2.132394
0.501400,-2.050599
0.501500,-1.985033
0.501600,-1.936346
0.501700,-1.888956
0.501800,-1.817548
0.501900,-1.721472
0.502000,-1.615333
0.502100,-1.498808
0.502200,-1.426751
0.502300,-1.367028
0.502400,-1.306006
0.502500,-1.236546
0.502600,-1.164164
0.502700,-1.086264
0.502800,-1.023620
0.502900,-0.973309
0.503000,-0.937281
0.503100,-0.911314
0.503200,-0.899629
0.503300,-0.885023
0.503400,-0.868794
0.503500,-0.838283
0.503600,-0.825625
0.503700,-0.818808
0.503800,-0.823677
0.503900,-0.834388
0.504000,-0.848021
0.504100,-0.814264
0.504200,-0.711047
0.504300,-0.571477
0.504400,-0.525386
0.504500,-0.635095
0.504600,-0.777911
0.504700,-0.801605
0.504800,-0.696766
0.504900,-0.573424
0.505000,-0.515000
0.505100,-0.546484
0.505200,-0.619840
0.505300,-0.650999
0.505400,-0.616918
0.505500,-0.534150
0.505600,-0.439372
0.505700,-0.230666
0.505800,-0.100833
0.505900,0.072818
0.506000,0.204598
0.506100,0.417523
0.506200,0.608377
0.506300,0.803776
0.506400,0.939451
0.506500,1.162114
0.506600,1.130954
0.506700,1.136147
0.506800,0.950162
0.506900,0.879078
0.507000,0.970286
0.507100,1.204958
0.507200,1.423726
0.507300,1.337063
0.507400,0.783976
0.507500,0.471404
0.507600,0.634019
0.507700,1.342581
0.507800,1.944356
0.507900,1.924556
0.508000,1.380557
0.508100,0.898229
0.508200,0.985866
0.508300,1.574008
0.508400,2.226417
0.508500,2.329635
0.508600,2.024203
0.508700,1.735974
0.508800,1.785960
0.508900,1.876193
0.509000,2.034589
0.509100,1.970647
0.509200,1.878790
0.509300,1.782389
0.509400,1.801540
0.509500,1.823936
0.509600,1.745712
0.509700,1.663592
0.509800,1.671058
0.509900,1.828155
0.510000,2.012518
0.510100,2.058933
0.510200,1.772327
0.510300,1.512337
0.510400,1.446772
0.510500,1.524671
0.510600,1.753826
0.510700,1.753826
0.510800,1.761291
0.510900,1.848929
0.511000,1.908976
0.511100,1.987850
0.511200,2.065425
0.511300,2.151114
0.511400,2.190064
0.511500,2.244919
0.511600,2.215057
0.511700,2.230637
0.511800,2.231286
0.511900,2.233558
0.512000,2.247840
0.512100,2.137157
0.512200,2.022580
0.512300,1.826532
0.512400,1.565244
0.512500,0.796310
0.512600,-0.461444
0.512700,-1.340412
0.512800,-1.328402
0.512900,-0.684431
0.513000,-0.495525
0.513100,-1.177472
0.513200,-1.746140
0.513300,-1.882140
0.513400,-1.913625
0.513500,-1.863639
0.513600,-1.822742
0.513700,-1.864613
0.513800,-1.959391
0.513900,-2.050599
0.514000,-2.091172
0.514100,-2.097988
0.514200,-2.092470
0.514300,-2.111945
0.514400,-2.141807
0.514500,-2.175239
0.514600,-2.199258
0.514700,-2.207372
0.514800,-2.221979
0.514900,-2.259630
0.515000,-2.295334
0.515100,-2.313186
0.515200,-2.312537
0.515300,-2.323249
0.515400,-2.347592
0.515500,-2.386542
0.515600,-2.382647
0.515700,-2.318055
0.515800,-2.260929
0.515900,-2.280404
0.516000,-2.366094
0.516100,-2.467039
0.516200,-2.490084
0.516300,-2.418351
0.516400,-2.332986
0.516500,-2.338179
0.516600,-2.414456
0.516700,-2.517349
0.516800,-2.561817
0.516900,-2.543641
0.517000,-2.494629
0.517100,-2.461196
0.517200,-2.463469
0.517300,-2.473855
0.517400,-2.475478
0.517500,-2.451459
0.517600,-2.425168
0.517700,-2.393683
0.517800,-2.359602
0.517900,-2.296957
0.518000,-2.207697
0.518100,-2.125253
0.518200,-2.064880
0.518300,-2.011000
0.518400,-1.974646
0.518500,-1.897720
0.518600,-1.798722
0.518700,-1.718550
0.518800,-1.594884
0.518900,-1.522827
0.519000,-1.456937
0.519100,-1.386178
0.519200,-1.301462
0.519300,-1.214474
0.519400,-1.125863
0.519500,-1.054779
0.519600,-1.009987
0.519700,-0.969414
0.519800,-0.940527
0.519900,-0.915858
0.520000,-0.898655
0.520100,-0.882102
0.520200,-0.858732
0.520300,-0.838283
0.520400,-0.819457
0.520500,-0.815563
0.520600,-0.815563
0.520700,-0.806799
0.520800,-0.762656
0.520900,-0.636718
0.521000,-0.515649
0.521100,-0.511105
0.521200,-0.645157
0.521300,-0.743830
0.521400,-0.747076
0.521500,-0.624059
0.521600,-0.531229
0.521700,-0.498771
0.521800,-0.566933
0.521900,-0.638990
0.522000,-0.664956
0.522100,-0.618217
0.522200,-0.549405
0.522300,-0.500718
0.522400,-0.401721
0.522500,-0.446188
0.522600,-0.310838
0.522700,-0.161530
0.522800,0.116961
0.522900,0.376302
0.523000,0.549628
0.523100,0.740482
0.523200,0.829742
0.523300,0.819031
0.523400,0.844997
0.523500,0.804749
0.523600,0.713542
0.523700,0.699585
0.523800,0.796635
0.523900,0.937828
0.524000,0.723928
0.524100,0.053343
0.524200,-0.303048
0.524300,0.005305
0.524400,0.637265
0.524500,1.055651
0.524600,0.735938
0.524700,-0.003783
0.524800,-0.484489
0.524900,-0.242026
0.525000,0.490879
0.525100,1.002744
0.525200,0.862525
0.525300,0.372407
0.525400,0.108197
0.525500,0.169868
0.525600,0.359748
0.525700,0.501266
0.525800,0.367863
0.525900,0.219529
0.526000,0.097161
0.526100,0.152665
0.526200,0.197782
0.526300,0.140331
0.526400,0.132865
0.526500,0.243223
0.526600,0.459070
0.526700,0.748272
0.526800,0.785274
0.526900,0.511977
0.527000,0.383118
0.527100,0.488282
0.527200,0.815136
0.527300,1.033579
0.527400,1.032606
0.527500,1.108558
0.527600,1.196195
0.527700,1.283507
0.527800,1.399383
0.527900,1.480204
0.528000,1.538628
0.528100,1.563946
0.528200,1.651583
0.528300,1.651907
0.528400,1.642495
0.528500,1.644117
0.528600,1.602896
0.528700,1.569788
0.528800,1.494485
0.528900,1.387373
0.529000,1.211775
0.529100,0.889141
0.529200,-0.111869
0.529300,-1.273872
0.529400,-1.688040
0.529500,-1.418961
0.529600,-0.833415
0.529700,-0.872040
0.529800,-1.980489
0.529900,-1.808460
0.530000,-1.908756
0.530100,-1.915897
0.530200,-1.859095
0.530300,-1.837672
0.530400,-1.880193
0.530500,-1.966532
0.530600,-2.053195
0.530700,-2.107401
0.530800,-2.121358
0.530900,-2.120709
0.531000,-2.129148
0.531100,-2.158036
0.531200,-2.197959
0.531300,-2.229769
0.531400,-2.252814
0.531500,-2.262551
0.531600,-2.278781
0.531700,-2.325845
0.531800,-2.344996
0.531900,-2.359277
0.532000,-2.375831
0.532100,-2.397578
0.532200,-2.426141
0.532300,-2.406342
0.532400,-2.326819
0.532500,-2.278781
0.532600,-2.325845
0.532700,-2.428738
0.532800,-2.510858
0.532900,-2.507287
0.533000,-2.411535
0.533100,-2.328766
0.533200,-2.335583
0.533300,-2.433931
0.533400,-2.539746
0.533500,-2.576099
0.533600,-2.531956
0.533700,-2.464442
0.533800,-2.428089
0.533900,-2.429712
0.534000,-2.451459
0.534100,-2.451459
0.534200,-2.426791
0.534300,-2.391411
0.534400,-2.362523
0.534500,-2.312537
0.534600,-2.241454
0.534700,-2.163554
0.534800,-2.094417
0.534900,-2.050274
0.535000,-2.012622
0.535100,-1.971725
0.535200,-1.882465
0.535300,-1.790932
0.535400,-1.703944
0.535500,-1.611763
0.535600,-1.541978
0.535700,-1.475763
0.535800,-1.407600
0.535900,-1.325156
0.536000,-1.227457
0.536100,-1.133653
0.536200,-1.059973
0.536300,-1.004469
0.536400,-0.960326
0.536500,-0.918130
0.536600,-0.888269
0.536700,-0.843152
0.536800,-0.807773
0.536900,-0.762331
0.537000,-0.753892
0.537100,-0.727601
0.537200,-0.742856
0.537300,-0.737663
0.537400,-0.727601
0.537500,-0.639964
0.537600,-0.489033
0.537700,-0.403019
0.537800,-0.439372
0.537900,-0.593548
0.538000,-0.641587
0.538100,-0.600689
0.538200,-0.473778
0.538300,-0.390360
0.538400,-0.385492
0.538500,-0.450083
0.538600,-0.516298
0.538700,-0.519544
0.538800,-0.472155
0.538900,-0.268642
0.539000,0.213037
0.539100,0.427586
0.539200,0.531776
0.539300,0.495423
0.539400,0.606430
0.539500,0.823575
0.539600,1.066687
0.539700,1.300710
0.539800,1.469492
0.539900,1.505196
0.540000,1.459430
0.540100,1.391917
0.540200,1.320834
0.540300,1.209178
0.540400,1.265980
0.540500,1.428920
0.540600,1.398734
0.540700,0.995928
0.540800,0.272111
0.540900,0.157209
0.541000,0.705103
0.541100,1.300061
0.541200,1.602246
0.541300,1.143937
0.541400,0.393829
0.541500,0.132541
0.541600,0.531127
0.541700,1.271822
0.541800,1.627239
0.541900,1.411068
0.542000,0.980023
0.542100,0.813188
0.542200,0.921923
0.542300,1.112453
0.542400,1.191651
0.542500,1.112777
0.542600,0.965093
0.542700,0.927766
0.542800,0.926467
0.542900,0.812215
0.543000,0.702182
0.543100,0.690497
0.543200,0.867069
0.543300,1.123813
0.543400,1.291946
0.543500,1.168281
0.543600,0.873561
0.543700,0.761255
0.543800,0.928090
0.543900,1.220214
0.544000,1.251374
0.544100,1.213722
0.544200,1.195546
0.544300,1.210152
0.544400,1.223135
0.544500,1.281560
0.544600,1.294218
0.544700,1.285779
0.544800,1.301684
0.544900,1.275068
0.545000,1.258514
0.545100,1.225407
0.545200,1.173799
0.545300,1.149780
0.545400,1.084214
0.545500,1.021570
0.545600,0.891737
0.545700,0.703480
0.545800,0.247443
0.545900,-0.880154
0.546000,-1.723744
0.546100,-1.737701
0.546200,-1.581577
0.546300,-1.122293
0.546400,-1.461157
0.546500,-1.770159
0.546600,-1.919467
0.546700,-1.992823
0.546800,-1.971076
0.546900,-1.916221
0.547000,-1.909081
0.547100,-1.977568
0.547200,-2.081110
0.547300,-2.146675
0.547400,-2.184002
0.547500,-2.180757
0.547600,-2.178809
0.547700,-2.186599
0.547800,-2.208995
0.547900,-2.230742
0.548000,-2.242427
0.548100,-2.255735
0.548200,-2.258981
0.548300,-2.275859
0.548400,-2.298256
0.548500,-2.305721
0.548600,-2.306046
0.548700,-2.323898
0.548800,-2.346294
0.548900,-2.361874
0.549000,-2.310914
0.549100,-2.232041
0.549200,-2.211592
0.549300,-2.294685
0.549400,-2.405693
0.549500,-2.460223
0.549600,-2.418676
0.549700,-2.323249
0.549800,-2.266446
0.549900,-2.311564
0.550000,-2.428738
0.550100,-2.507612
0.550200,-2.516700
0.550300,-2.460872
0.550400,-2.407316
0.550500,-2.394657
0.550600,-2.403745
0.550700,-2.420948
0.550800,-2.409912
0.550900,-2.394332
0.551000,-2.363497
0.551100,-2.336232
0.551200,-2.285921
0.551300,-2.207048
0.551400,-2.124279
0.551500,-2.066828
0.551600,-2.041510
0.551700,-2.020412
0.551800,-1.972050
0.551900,-1.885386
0.552000,-1.813004
0.552100,-1.709138
0.552200,-1.631562
0.552300,-1.571190
0.552400,-1.510818
0.552500,-1.436164
0.552600,-1.352097
0.552700,-1.250827
0.552800,-1.175849
0.552900,-1.115801
0.553000,-1.075877
0.553100,-1.029787
0.553200,-1.005118
0.553300,-0.974932
0.553400,-0.950589
0.553500,-0.915534
0.553600,-0.881128
0.553700,-0.854837
0.553800,-0.831792
0.553900,-0.843477
0.554000,-0.814913
0.554100,-0.789596
0.554200,-0.661386
0.554300,-0.504613
0.554400,-0.447162
0.554500,-0.514026
0.554600,-0.661711
0.554700,-0.669825
0.554800,-0.587381
0.554900,-0.456250
0.555000,-0.372508
0.555100,-0.396203
0.555200,-0.462417
0.555300,-0.523763
0.555400,-0.498446
0.555500,-0.437425
0.555600,0.073142
0.555700,0.376302
0.555800,0.430507
0.555900,0.469457
0.556000,0.542163
0.556100,0.653170
0.556200,0.783652
0.556300,0.928090
0.556400,0.985866
0.556500,1.050458
0.556600,1.094601
0.556700,1.019622
0.556800,0.825523
0.556900,0.527232
0.557000,0.512950
0.557100,0.599289
0.557200,0.779757
0.557300,0.616492
0.557400,-0.118361
0.557500,-0.617243
0.557600,-0.514350
0.557700,0.163052
0.557800,0.634993
0.557900,0.699585
0.558000,0.118259
0.558100,-0.554923
0.558200,-0.633797
0.558300,-0.145301
0.558400,0.603509
0.558500,0.935880
0.558600,0.794363
0.558700,0.538592
0.558800,0.524311
0.558900,0.525934
0.559000,0.734964
0.559100,0.812539
0.559200,0.806697
0.559300,0.717437
0.559400,0.725876
0.559500,0.731394
0.559600,0.649599
0.559700,0.592473
0.559800,0.653494
0.559900,0.851489
0.560000,1.097522
0.560100,1.195221
0.560200,0.989436
0.560300,0.700234
0.560400,0.654793
0.560500,0.822926
0.560600,1.098496
0.560700,1.067011
0.560800,1.010534
0.560900,0.984568
0.561000,0.989436
0.561100,0.983269
0.561200,0.999174
0.561300,1.015727
0.561400,1.040396
0.561500,1.054677
0.561600,1.042018
0.561700,1.032930
0.561800,0.975155
0.561900,0.958276
0.562000,0.937828
0.562100,0.876482
0.562200,0.808644
0.562300,0.676215
0.562400,0.486335
0.562500,-0.162828
0.562600,-1.356966
0.562700,-1.760097
0.562800,-1.735104
0.562900,-1.435514
0.563000,-1.015830
0.563100,-1.531915
0.563200,-1.777300
0.563300,-1.909405
0.563400,-1.950952
0.563500,-1.912002
0.563600,-1.873701
0.563700,-1.877921
0.563800,-1.960689
0.563900,-2.050274
0.564000,-2.117787
0.564100,-2.146675
0.564200,-2.159009
0.564300,-2.160308
0.564400,-2.173291
0.564500,-2.207372
0.564600,-2.239181
0.564700,-2.254112
0.564800,-2.272289
0.564900,-2.312862
0.565000,-2.350514
0.565100,-2.350189
0.565200,-2.341750
0.565300,-2.363497
0.565400,-2.405044
0.565500,-2.445941
0.565600,-2.441072
0.565700,-2.361549
0.565800,-2.305396
0.565900,-2.324871
0.566000,-2.426791
0.566100,-2.530982
0.566200,-2.552080
0.566300,-2.511507
0.566400,-2.435230
0.566500,-2.396929
0.566600,-2.445941
0.566700,-2.542992
0.566800,-2.621216
0.566900,-2.649455
0.567000,-2.611479
0.567100,-2.568634
0.567200,-2.540070
0.567300,-2.548509
0.567400,-2.564089
0.567500,-2.562142
0.567600,-2.550132
0.567700,-2.517999
0.567800,-2.480347
0.567900,-2.409588
0.568000,-2.328766
0.568100,-2.245024
0.568200,-2.187248
0.568300,-2.146351
0.568400,-2.112919
0.568500,-2.042160
0.568600,-1.943811
0.568700,-1.866236
0.568800,-1.755553
0.568900,-1.669863
0.569000,-1.598130
0.569100,-1.525424
0.569200,-1.435839
0.569300,-1.339114
0.569400,-1.234598
0.569500,-1.156698
0.569600,-1.093405
0.569700,-1.052183
0.569800,-1.013882
0.569900,-0.996030
0.570000,-0.982398
0.570100,-0.956756
0.570200,-0.941825
0.570300,-0.913262
0.570400,-0.906445
0.570500,-0.900278
0.570600,-0.915209
0.570700,-0.907095
0.570800,-0.855486
0.570900,-0.733119
0.571000,-0.583162
0.571100,-0.573100
0.571200,-0.651649
0.571300,-0.770770
0.571400,-0.749672
0.571500,-0.650350
0.571600,-0.528632
0.571700,-0.454303
0.571800,-0.484814
0.571900,-0.529606
0.572000,-0.558818
0.572100,-0.496823
0.572200,-0.352060
0.572300,0.299376
0.572400,0.671346
0.572500,0.831365
0.572600,0.863499
0.572700,1.033255
0.572800,1.325378
0.572900,1.619774
0.573000,1.802838
0.573100,1.885282
0.573200,2.164098
0.573300,2.296203
0.573400,2.197854
0.573500,1.959936
0.573600,1.951496
0.573700,2.095286
0.573800,2.398446
0.573900,2.477319
0.574000,2.235830
0.574100,1.537005
0.574200,1.285130
0.574300,1.534409
0.574400,2.329959
0.574500,2.647076
0.574600,2.418570
0.574700,1.848604
0.574800,1.380882
0.574900,1.352968
0.575000,1.743115
0.575100,2.204995
0.575200,2.432852
0.575300,2.201100
0.575400,1.838217
0.575500,1.658724
0.575600,1.694428
0.575700,1.834972
0.575800,1.782389
0.575900,1.612308
0.576000,1.413664
0.576100,1.304280
0.576200,1.252997
0.576300,1.194572
0.576400,1.097846
0.576500,1.122190
0.576600,1.218266
0.576700,1.338037
0.576800,1.296166
0.576900,0.908615
0.577000,0.612272
0.577100,0.485361
0.577200,0.606105
0.577300,0.684005
0.577400,0.605781
0.577500,0.514898
0.577600,0.469781
0.577700,0.445438
0.577800,0.447060
0.577900,0.415251
0.578000,0.435375
0.578100,0.442841
0.578200,0.412006
0.578300,0.399022
0.578400,0.384741
0.578500,0.324044
0.578600,0.277953
0.578700,0.213686
0.578800,0.165324
0.578900,0.059835
0.579000,-0.104079
0.579100,-0.341673
0.579200,-1.171629
0.579300,-1.813653
0.579400,-1.891228
0.579500,-1.847734
0.579600,-1.751333
0.579700,-1.712059
0.579800,-1.792555
0.579900,-1.938618
0.580000,-2.050274
0.580100,-2.062284
0.580200,-2.002236
0.580300,-1.955171
0.580400,-1.974322
0.580500,-2.054818
0.580600,-2.137912
0.580700,-2.188222
0.580800,-2.198609
0.580900,-2.189196
0.581000,-2.178809
0.581100,-2.185950
0.581200,-2.209320
0.581300,-2.231716
0.581400,-2.234637
0.581500,-2.245024
0.581600,-2.280079
0.581700,-2.304747
0.581800,-2.289816
0.581900,-2.289492
0.582000,-2.315134
0.582100,-2.349540
0.582200,-2.373559
0.582300,-2.345320
0.582400,-2.254761
0.582500,-2.200556
0.582600,-2.244699
0.582700,-2.363821
0.582800,-2.455029
0.582900,-2.461846
0.583000,-2.396929
0.583100,-2.308318
0.583200,-2.290790
0.583300,-2.357330
0.583400,-2.465091
0.583500,-2.536175
0.583600,-2.523841
0.583700,-2.470285
0.583800,-2.427764
0.583900,-2.425492
0.584000,-2.447239
0.584100,-2.467688
0.584200,-2.462819
0.584300,-2.443344
0.584400,-2.414456
0.584500,-2.374208
0.584600,-2.312537
0.584700,-2.242103
0.584800,-2.177835
0.584900,-2.132394
0.585000,-2.089873
0.585100,-2.054818
0.585200,-1.971725
0.585300,-1.881166
0.585400,-1.777625
0.585500,-1.659152
0.585600,-1.588068
0.585700,-1.523801
0.585800,-1.449796
0.585900,-1.368975
0.586000,-1.271600
0.586100,-1.180068
0.586200,-1.103467
0.586300,-1.053157
0.586400,-1.015830
0.586500,-0.974932
0.586600,-0.952861
0.586700,-0.910990
0.586800,-0.877233
0.586900,-0.833090
0.587000,-0.810045
0.587100,-0.788947
0.587200,-0.791868
0.587300,-0.793166
0.587400,-0.774016
0.587500,-0.709749
0.587600,-0.574723
0.587700,-0.448785
0.587800,-0.485138
0.587900,-0.614322
0.588000,-0.700660
0.588100,-0.656193
0.588200,-0.548756
0.588300,-0.444890
0.588400,-0.421196
0.588500,-0.468260
0.588600,-0.535448
0.588700,-0.561090
0.588800,-0.523763
0.588900,-0.456900
0.589000,-0.053120
0.589100,0.161753
0.589200,0.309762
0.589300,0.316903
0.589400,0.349686
0.589500,0.497371
0.589600,0.803451
0.589700,1.025465
0.589800,1.178018
0.589900,1.317264
0.590000,1.351994
0.590100,1.270199
0.590200,1.071555
0.590300,1.114076
0.590400,1.313044
0.590500,1.547392
0.590600,1.582771
0.590700,1.103689
0.590800,0.518144
0.590900,0.422717
0.591000,0.929713
0.591100,1.611984
0.591200,1.800890
0.591300,1.611984
0.591400,0.990735
0.591500,0.655442
0.591600,0.837857
0.591700,1.499029
0.591800,2.077434
0.591900,2.108919
0.592000,1.793100
0.592100,1.573359
0.592200,1.435411
0.592300,1.506170
0.592400,1.562647
0.592500,1.521101
0.592600,1.340309
0.592700,1.157245
0.592800,1.030658
0.592900,0.896281
0.593000,0.764501
0.593100,0.722955
0.593200,0.849542
0.593300,0.955680
0.593400,1.044291
0.593500,0.895308
0.593600,0.608377
0.593700,0.448683
0.593800,0.554497
0.593900,0.754439
0.594000,0.792740
0.594100,0.721656
0.594200,0.700234
0.594300,0.707699
0.594400,0.726201
0.594500,0.761255
0.594600,0.777484
0.594700,0.794363
0.594800,0.797933
0.594900,0.819355
0.595000,0.779432
0.595100,0.761255
0.595200,0.701208
0.595300,0.674917
0.595400,0.604158
0.595500,0.572024
0.595600,0.496072
0.595700,0.319175
0.595800,-0.004757
0.595900,-1.042121
0.596000,-1.742894
0.596100,-1.784116
0.596200,-1.706865
0.596300,-1.345605
0.596400,-1.314121
0.596500,-1.723095
0.596600,-1.869481
0.596700,-1.960365
0.596800,-1.955171
0.596900,-1.899668
0.597000,-1.883114
0.597100,-1.926283
0.597200,-2.023983
0.597300,-2.108374
0.597400,-2.150895
0.597500,-2.158360
0.597600,-2.177511
0.597700,-2.218084
0.597800,-2.244050
0.597900,-2.274561
0.598000,-2.305396
0.598100,-2.329416
0.598200,-2.349540
0.598300,-2.390113
0.598400,-2.405044
0.598500,-2.405693
0.598600,-2.395955
0.598700,-2.418027
0.598800,-2.451784
0.598900,-2.467039
0.599000,-2.414456
0.599100,-2.321950
0.599200,-2.297931
0.599300,-2.363172
0.599400,-2.478724
0.599500,-2.538772
0.599600,-2.519622
0.599700,-2.418027
0.599800,-2.339478
0.599900,-2.357979
0.600000,-2.452108
0.600100,-2.557922
0.600200,-2.576424
0.600300,-2.532280
0.600400,-2.469311
0.600500,-2.433931
0.600600,-2.434256
0.600700,-2.447239
0.600800,-2.453082
0.600900,-2.440748
0.601000,-2.418676
0.601100,-2.384270
0.601200,-2.336232
0.601300,-2.267745
0.601400,-2.191792
0.601500,-2.124279
0.601600,-2.081759
0.601700,-2.045081
0.601800,-1.996069
0.601900,-1.897396
0.602000,-1.815276
0.602100,-1.699400
0.602200,-1.614035
0.602300,-1.550417
0.602400,-1.485825
0.602500,-1.415715
0.602600,-1.338464
0.602700,-1.238493
0.602800,-1.162216
0.602900,-1.110608
0.603000,-1.057701
0.603100,-1.036278
0.603200,-1.004145
0.603300,-0.996355
0.603400,-0.972660
0.603500,-0.945071
0.603600,-0.930140
0.603700,-0.907095
0.603800,-0.909367
0.603900,-0.898006
0.604000,-0.910665
0.604100,-0.882102
0.604200,-0.796412
0.604300,-0.637367
0.604400,-0.567906
0.604500,-0.631525
0.604600,-0.779209
0.604700,-0.826274
0.604800,-0.766875
0.604900,-0.629577
0.605000,-0.557844
0.605100,-0.570503
0.605200,-0.649701
0.605300,-0.706828
0.605400,-0.696116
0.605500,-0.628279
0.605600,-0.554599
0.605700,-0.519868
0.605800,-0.466312
0.605900,-0.493253
0.606000,-0.356604
0.606100,-0.114790
0.606200,0.195185
0.606300,0.422392
0.606400,0.596693
0.606500,0.733017
0.606600,0.850840
0.606700,0.946267
0.606800,0.938477
0.606900,0.867718
0.607000,0.737236
0.607100,0.924844
0.607200,1.148806
0.607300,1.288376
0.607400,0.818382
0.607500,0.181877
0.607600,0.232512
0.607700,0.874534
0.607800,1.573683
0.607900,1.780766
0.608000,1.164061
0.608100,0.424664
0.608200,0.207844
0.608300,0.752816
0.608400,1.567516
0.608500,1.935917
0.608600,1.634380
0.608700,1.124462
0.608800,1.020921
0.608900,1.139068
0.609000,1.408471
0.609100,1.407822
0.609200,1.263059
0.609300,1.098496
0.609400,1.005341
0.609500,1.047212
0.609600,0.986840
0.609700,0.932634
0.609800,0.928415
0.609900,1.053054
0.610000,1.230925
0.610100,1.358486
0.610200,1.100768
0.610300,0.718086
0.610400,0.600588
0.610500,0.788520
0.610600,1.030334
0.610700,0.990085
0.610800,0.954706
0.610900,0.994954
0.611000,1.012482
0.611100,1.096873
0.611200,1.191001
0.611300,1.279937
0.611400,1.357187
0.611500,1.377960
0.611600,1.421454
0.611700,1.472738
0.611800,1.475010
0.611900,1.476309
0.612000,1.491564
0.612100,1.512986
0.612200,1.431841
0.612300,1.275717
0.612400,1.067985
0.612500,0.512301
0.612600,-0.608155
0.612700,-1.696803
0.612800,-1.682522
0.612900,-1.247257
0.613000,-0.621138
0.613100,-1.025567
0.613200,-1.713357
0.613300,-1.869806
0.613400,-1.937644
0.613500,-1.895448
0.613600,-1.832804
0.613700,-1.825338
0.613800,-1.905510
0.613900,-2.012298
0.614000,-2.091496
0.614100,-2.113243
0.614200,-2.103506
0.614300,-2.107401
0.614400,-2.132069
0.614500,-2.160632
0.614600,-2.191143
0.614700,-2.205100
0.614800,-2.221979
0.614900,-2.245673
0.615000,-2.264824
0.615100,-2.294036
0.615200,-2.292413
0.615300,-2.299879
0.615400,-2.318380
0.615500,-2.343373
0.615600,-2.350189
0.615700,-2.301501
0.615800,-2.238857
0.615900,-2.242752
0.616000,-2.319029
0.616100,-2.425168
0.616200,-2.487812
0.616300,-2.430361
0.616400,-2.321950
0.616500,-2.270666
0.616600,-2.335583
0.616700,-2.452433
0.616800,-2.530333
0.616900,-2.527412
0.617000,-2.463793
0.617100,-2.409588
0.617200,-2.386542
0.617300,-2.401473
0.617400,-2.421273
0.617500,-2.425168
0.617600,-2.405368
0.617700,-2.370962
0.617800,-2.334284
0.617900,-2.284623
0.618000,-2.204776
0.618100,-2.130122
0.618200,-2.073320
0.618300,-2.039563
0.618400,-2.009701
0.618500,-1.959391
0.618600,-1.865911
0.618700,-1.794178
0.618800,-1.680574
0.618900,-1.609166
0.619000,-1.549118
0.619100,-1.476412
0.619200,-1.400460
0.619300,-1.313796
0.619400,-1.209930
0.619500,-1.119371
0.619600,-1.055104
0.619700,-1.014207
0.619800,-0.986942
0.619900,-0.956756
0.620000,-0.949615
0.620100,-0.918130
0.620200,-0.899305
0.620300,-0.869443
0.620400,-0.858407
0.620500,-0.862627
0.620600,-0.864899
0.620700,-0.890216
0.620800,-0.846073
0.620900,-0.756813
0.621000,-0.589004
0.621100,-0.559143
0.621200,-0.638016
0.621300,-0.782780
0.621400,-0.776288
0.621500,-0.668202
0.621600,-0.532202
0.621700,-0.453654
0.621800,-0.488059
0.621900,-0.555897
0.622000,-0.610751
0.622100,-0.561415
0.622200,-0.474752
0.622300,-0.083306
0.622400,0.295805
0.622500,0.397724
0.622600,0.334431
0.622700,0.436025
0.622800,0.697637
0.622900,0.866420
0.623000,1.108558
0.623100,1.249426
0.623200,1.481502
0.623300,1.554857
0.623400,1.419507
0.623500,1.403278
0.623600,1.199765
0.623700,1.246505
0.623800,1.354591
0.623900,1.589912
0.624000,1.481502
0.624100,0.854086
0.624200,0.500616
0.624300,0.641485
0.624400,1.265006
0.624500,1.872298
0.624600,1.834972
0.624700,1.138744
0.624800,0.530802
0.624900,0.510678
0.625000,1.018973
0.625100,1.616203
0.625200,1.757396
0.625300,1.379259
0.625400,0.935556
0.625500,0.806048
0.625600,0.863823
0.625700,1.021245
0.625800,0.934257
0.625900,0.774239
0.626000,0.552225
0.626100,0.432779
0.626200,0.390259
0.626300,0.314631
0.626400,0.221152
0.626500,0.274708
0.626600,0.469132
0.626700,0.705103
0.626800,0.718735
0.626900,0.430507
0.627000,0.147472
0.627100,0.066651
0.627200,0.337676
0.627300,0.451280
0.627400,0.336703
0.627500,0.316579
0.627600,0.286393
0.627700,0.304245
0.627800,0.326316
0.627900,0.294182
0.628000,0.300350
0.628100,0.317228
0.628200,0.264646
0.628300,0.239004
0.628400,0.181228
0.628500,0.134164
0.628600,0.063080
0.628700,0.025754
0.628800,-0.026180
0.628900,-0.155688
0.629000,-0.309215
0.629100,-0.548756
0.629200,-1.298216
0.629300,-1.845138
0.629400,-1.953224
0.629500,-1.927257
0.629600,-1.821768
0.629700,-1.751658
0.629800,-1.834102
0.629900,-1.991849
0.630000,-2.127200
0.630100,-2.144403
0.630200,-2.080136
0.630300,-2.030150
0.630400,-2.045730
0.630500,-2.147324
0.630600,-2.241778
0.630700,-2.300528
0.630800,-2.317406
0.630900,-2.319354
0.631000,-2.330065
0.631100,-2.348566
0.631200,-2.367716
0.631300,-2.381349
0.631400,-2.381349
0.631500,-2.397578
0.631600,-2.429063
0.631700,-2.457626
0.631800,-2.470285
0.631900,-2.454380
0.632000,-2.455679
0.632100,-2.482294
0.632200,-2.519297
0.632300,-2.511507
0.632400,-2.431659
0.632500,-2.370313
0.632600,-2.387191
0.632700,-2.474829
0.632800,-2.580643
0.632900,-2.612452
0.633000,-2.522543
0.633100,-2.426791
0.633200,-2.401798
0.633300,-2.466390
0.633400,-2.571230
0.633500,-2.626410
0.633600,-2.594925
0.633700,-2.523841
0.633800,-2.470934
0.633900,-2.455029
0.634000,-2.463793
0.634100,-2.465091
0.634200,-2.451784
0.634300,-2.424843
0.634400,-2.387191
0.634500,-2.344346
0.634600,-2.274886
0.634700,-2.182379
0.634800,-2.108050
0.634900,-2.047677
0.635000,-2.009701
0.635100,-1.974646
0.635200,-1.890255
0.635300,-1.797424
0.635400,-1.713682
0.635500,-1.602999
0.635600,-1.543600
0.635700,-1.483877
0.635800,-1.414741
0.635900,-1.342035
0.636000,-1.256020
0.636100,-1.168383
0.636200,-1.101195
0.636300,-1.044393
0.636400,-1.021348
0.636500,-0.984021
0.636600,-0.976555
0.636700,-0.946044
0.636800,-0.923973
0.636900,-0.895410
0.637000,-0.871715
0.637100,-0.855486
0.637200,-0.846398
0.637300,-0.860679
0.637400,-0.838608
0.637500,-0.784727
0.637600,-0.648727
0.637700,-0.511105
0.637800,-0.513701
0.637900,-0.625357
0.638000,-0.740909
0.638100,-0.693520
0.638200,-0.581214
0.638300,-0.453329
0.638400,-0.418274
0.638500,-0.477673
0.638600,-0.546160
0.638700,-0.575047
0.638800,-0.512728
0.638900,-0.404642
0.639000,0.084503
0.639100,0.300025
0.639200,0.228292
0.639300,0.219853
0.639400,0.400970
0.639500,0.635318
0.639600,0.870315
0.639700,0.980023
0.639800,1.122839
0.639900,1.180615
0.640000,1.244882
0.640100,1.161464
0.640200,1.125436
0.640300,0.939775
0.640400,1.006639
0.640500,1.178992
0.640600,1.401006
0.640700,1.141016
0.640800,0.465237
0.640900,0.203624
0.641000,0.448034
0.641100,1.155622
0.641200,1.629836
0.641300,1.424700
0.641400,0.670373
0.641500,0.271462
0.641600,0.458421
0.641700,1.089407
0.641800,1.592184
0.641900,1.637950
0.642000,1.289350
0.642100,0.964119
0.642200,0.854086
0.642300,0.939451
0.642400,1.052730
0.642500,0.987489
0.642600,0.844673
0.642700,0.647652
0.642800,0.559366
0.642900,0.459070
0.643000,0.329562
0.643100,0.300674
0.643200,0.396101
0.643300,0.580139
0.643400,0.748597
0.643500,0.639862
0.643600,0.298077
0.643700,0.125075
0.643800,0.163701
0.643900,0.520091
0.644000,0.646678
0.644100,0.621361
0.644200,0.665179
0.644300,0.755088
0.644400,0.827145
0.644500,0.956004
0.644600,1.032930
0.644700,1.138095
0.644800,1.202686
0.644900,1.262409
0.645000,1.312395
0.645100,1.348748
0.645200,1.389321
0.645300,1.423726
0.645400,1.392567
