LabVIEW Measurement	
Writer_Version	2
Reader_Version	2
Separator	Tab
Decimal_Separator	.
Multi_Headings	Yes
X_Columns	One
Time_Pref	Relative
Operator	as989
Description	Time Domain Data
Date	1903/12/31
Time	19:00:00
***End_of_Header***	
	
Channels	1	
Samples	15000	
Date	1903/12/31	
Time	19:00:00	
X_Dimension	Time	
X0	0.0000000000000000E+0	
Delta_X	0.000100	
***End_of_Header***		
X_Value	Untitled	Comment
0.000000	-3.080827	Tare Values:0.000000, 0.000000, 0.000000, 0.000000\0D\0A
0.000100	-3.029543
0.000200	-2.967872
0.000300	-2.938659
0.000400	-2.955862
0.000500	-2.966573
0.000600	-2.957161
0.000700	-2.929246
0.000800	-2.891919
0.000900	-2.857189
0.001000	-2.814019
0.001100	-2.759813
0.001200	-2.678992
0.001300	-2.604338
0.001400	-2.542992
0.001500	-2.496901
0.001600	-2.447239
0.001700	-2.360576
0.001800	-2.262227
0.001900	-2.137587
0.002000	-2.054494
0.002100	-1.994121
0.002200	-1.945109
0.002300	-1.881491
0.002400	-1.811381
0.002500	-1.720498
0.002600	-1.632211
0.002700	-1.568269
0.002800	-1.525424
0.002900	-1.487448
0.003000	-1.456937
0.003100	-1.439409
0.003200	-1.419935
0.003300	-1.392345
0.003400	-1.371572
0.003500	-1.359887
0.003600	-1.343009
0.003700	-1.349825
0.003800	-1.344307
0.003900	-1.320288
0.004000	-1.244985
0.004100	-1.096975
0.004200	-0.985968
0.004300	-1.012584
0.004400	-1.155075
0.004500	-1.235247
0.004600	-1.182016
0.004700	-1.055753
0.004800	-0.954159
0.004900	-0.953510
0.005000	-1.037901
0.005100	-1.125214
0.005200	-1.129758
0.005300	-1.071009
0.005400	-0.988565
0.005500	-0.942474
0.005600	-0.940202
0.005700	-0.975257
0.005800	-0.997653
0.005900	-1.006741
0.006000	-0.987591
0.006100	-0.979152
0.006200	-0.995381
0.006300	-1.018102
0.006400	-1.043419
0.006500	-1.083343
0.006600	-1.125538
0.006700	-1.161567
0.006800	-1.203763
0.006900	-1.227457
0.007000	-1.226159
0.007100	-1.232975
0.007200	-1.293023
0.007300	-1.407925
0.007400	-1.460832
0.007500	-1.449147
0.007600	-1.370923
0.007700	-1.350798
0.007800	-1.416689
0.007900	-1.548145
0.008000	-1.624422
0.008100	-1.615658
0.008200	-1.551715
0.008300	-1.509844
0.008400	-1.533214
0.008500	-1.607219
0.008600	-1.662722
0.008700	-1.682846
0.008800	-1.662722
0.008900	-1.647791
0.009000	-1.658178
0.009100	-1.695830
0.009200	-1.724718
0.009300	-1.736727
0.009400	-1.748737
0.009500	-1.762369
0.009600	-1.764317
0.009700	-1.751333
0.009800	-1.745166
0.009900	-1.737701
0.010000	-1.775028
0.010100	-1.825014
0.010200	-1.846436
0.010300	-1.851954
0.010400	-1.835076
0.010500	-1.830207
0.010600	-1.839295
0.010700	-1.836374
0.010800	-1.834426
0.010900	-1.829558
0.011000	-1.829558
0.011100	-1.833128
0.011200	-1.838321
0.011300	-1.846111
0.011400	-1.845462
0.011500	-1.847410
0.011600	-1.858770
0.011700	-1.872727
0.011800	-1.895123
0.011900	-1.899992
0.012000	-1.926283
0.012100	-1.949978
0.012200	-1.988928
0.012300	-2.053520
0.012400	-2.197310
0.012500	-2.357979
0.012600	-2.408614
0.012700	-2.354084
0.012800	-2.277807
0.012900	-2.307993
0.013000	-2.452757
0.013100	-2.639068
0.013200	-2.729303
0.013300	-2.724434
0.013400	-2.678018
0.013500	-2.681589
0.013600	-2.743909
0.013700	-2.862057
0.013800	-2.952941
0.013900	-3.000330
0.014000	-3.010068
0.014100	-3.015261
0.014200	-3.037333
0.014300	-3.076932
0.014400	-3.113286
0.014500	-3.147367
0.014600	-3.168465
0.014700	-3.193458
0.014800	-3.225267
0.014900	-3.252208
0.015000	-3.268762
0.015100	-3.277201
0.015200	-3.306089
0.015300	-3.332380
0.015400	-3.345688
0.015500	-3.307063
0.015600	-3.227215
0.015700	-3.214556
0.015800	-3.263893
0.015900	-3.348285
0.016000	-3.403140
0.016100	-3.352180
0.016200	-3.233057
0.016300	-3.144446
0.016400	-3.140226
0.016500	-3.199950
0.016600	-3.253181
0.016700	-3.244742
0.016800	-3.178527
0.016900	-3.097381
0.017000	-3.047070
0.017100	-3.023700
0.017200	-3.017858
0.017300	-3.001953
0.017400	-2.976636
0.017500	-2.940282
0.017600	-2.904902
0.017700	-2.843881
0.017800	-2.763059
0.017900	-2.678668
0.018000	-2.612128
0.018100	-2.567984
0.018200	-2.527412
0.018300	-2.468986
0.018400	-2.373884
0.018500	-2.284948
0.018600	-2.169072
0.018700	-2.099286
0.018800	-2.040537
0.018900	-1.987305
0.019000	-1.919143
0.019100	-1.849357
0.019200	-1.767887
0.019300	-1.691935
0.019400	-1.631887
0.019500	-1.588393
0.019600	-1.558207
0.019700	-1.541004
0.019800	-1.528994
0.019900	-1.501080
0.020000	-1.486149
0.020100	-1.460832
0.020200	-1.448822
0.020300	-1.440708
0.020400	-1.460183
0.020500	-1.469271
0.020600	-1.462130
0.020700	-1.368975
0.020800	-1.225510
0.020900	-1.143066
0.021000	-1.228106
0.021100	-1.377414
0.021200	-1.423505
0.021300	-1.357290
0.021400	-1.221939
0.021500	-1.145013
0.021600	-1.165137
0.021700	-1.252775
0.021800	-1.295619
0.021900	-1.267056
0.022000	-1.172278
0.022100	-1.097949
0.022200	-1.053157
0.022300	-1.049262
0.022400	-1.042770
0.022500	-1.029462
0.022600	-1.000574
0.022700	-0.972011
0.022800	-0.960002
0.022900	-0.954808
0.023000	-0.950913
0.023100	-0.936632
0.023200	-0.980126
0.023300	-1.006092
0.023400	-1.049586
0.023500	-1.083667
0.023600	-1.072307
0.023700	-1.065815
0.023800	-1.073930
0.023900	-1.179419
0.024000	-1.272250
0.024100	-1.295295
0.024200	-1.248230
0.024300	-1.162865
0.024400	-1.153777
0.024500	-1.238818
0.024600	-1.347228
0.024700	-1.385204
0.024800	-1.346579
0.024900	-1.265109
0.025000	-1.236546
0.025100	-1.279390
0.025200	-1.345281
0.025300	-1.363133
0.025400	-1.371572
0.025500	-1.359887
0.025600	-1.378063
0.025700	-1.412145
0.025800	-1.444278
0.025900	-1.466999
0.026000	-1.479658
0.026100	-1.506923
0.026200	-1.541653
0.026300	-1.564374
0.026400	-1.568918
0.026500	-1.565672
0.026600	-1.573462
0.026700	-1.627018
0.026800	-1.690636
0.026900	-1.722445
0.027000	-1.739973
0.027100	-1.728613
0.027200	-1.738350
0.027300	-1.743543
0.027400	-1.743219
0.027500	-1.736403
0.027600	-1.723744
0.027700	-1.710111
0.027800	-1.691610
0.027900	-1.673109
0.028000	-1.654283
0.028100	-1.640326
0.028200	-1.630589
0.028300	-1.625071
0.028400	-1.617281
0.028500	-1.609166
0.028600	-1.597481
0.028700	-1.594884
0.028800	-1.605596
0.028900	-1.617281
0.029000	-1.683171
0.029100	-1.829558
0.029200	-1.952250
0.029300	-1.958093
0.029400	-1.863314
0.029500	-1.792231
0.029600	-1.839944
0.029700	-2.002560
0.029800	-2.163878
0.029900	-2.223601
0.030000	-2.179783
0.030100	-2.119410
0.030200	-2.138561
0.030300	-2.225874
0.030400	-2.344996
0.030500	-2.421922
0.030600	-2.442371
0.030700	-2.443669
0.030800	-2.446915
0.030900	-2.463469
0.031000	-2.501769
0.031100	-2.529359
0.031200	-2.542018
0.031300	-2.547211
0.031400	-2.567011
0.031500	-2.587135
0.031600	-2.601741
0.031700	-2.594600
0.031800	-2.593627
0.031900	-2.608557
0.032000	-2.627383
0.032100	-2.624462
0.032200	-2.568634
0.032300	-2.504366
0.032400	-2.512805
0.032500	-2.596872
0.032600	-2.711450
0.032700	-2.768253
0.032800	-2.724758
0.032900	-2.636147
0.033000	-2.586161
0.033100	-2.640691
0.033200	-2.756243
0.033300	-2.853943
0.033400	-2.869847
0.033500	-2.822783
0.033600	-2.776043
0.033700	-2.757541
0.033800	-2.765981
0.033900	-2.790974
0.034000	-2.794219
0.034100	-2.777990
0.034200	-2.759489
0.034300	-2.724434
0.034400	-2.680615
0.034500	-2.619593
0.034600	-2.550782
0.034700	-2.506314
0.034800	-2.465416
0.034900	-2.426141
0.035000	-2.364146
0.035100	-2.262227
0.035200	-2.156088
0.035300	-2.045081
0.035400	-1.971400
0.035500	-1.899018
0.035600	-1.832154
0.035700	-1.762694
0.035800	-1.678302
0.035900	-1.598455
0.036000	-1.520231
0.036100	-1.470569
0.036200	-1.432269
0.036300	-1.407600
0.036400	-1.389424
0.036500	-1.372221
0.036600	-1.364431
0.036700	-1.338789
0.036800	-1.329051
0.036900	-1.318989
0.037000	-1.339763
0.037100	-1.356316
0.037200	-1.361510
0.037300	-1.346254
0.037400	-1.217720
0.037500	-1.098273
0.037600	-1.058025
0.037700	-1.174875
0.037800	-1.310875
0.037900	-1.318340
0.038000	-1.231677
0.038100	-1.091457
0.038200	-1.047963
0.038300	-1.094054
0.038400	-1.184937
0.038500	-1.239467
0.038600	-1.212851
0.038700	-1.142092
0.038800	-1.078799
0.038900	-1.059648
0.039000	-1.059973
0.039100	-1.060297
0.039200	-1.055753
0.039300	-1.047639
0.039400	-1.032708
0.039500	-1.010961
0.039600	-0.998302
0.039700	-0.984021
0.039800	-1.009987
0.039900	-1.047639
0.040000	-1.096651
0.040100	-1.136574
0.040200	-1.159944
0.040300	-1.157997
0.040400	-1.150856
0.040500	-1.182989
0.040600	-1.299190
0.040700	-1.369949
0.040800	-1.385853
0.040900	-1.327429
0.041000	-1.272899
0.041100	-1.303085
0.041200	-1.402732
0.041300	-1.499133
0.041400	-1.526722
0.041500	-1.495887
0.041600	-1.442655
0.041700	-1.445252
0.041800	-1.509195
0.041900	-1.567295
0.042000	-1.597481
0.042100	-1.617605
0.042200	-1.635133
0.042300	-1.664345
0.042400	-1.694531
0.042500	-1.731858
0.042600	-1.756851
0.042700	-1.790608
0.042800	-1.829558
0.042900	-1.857472
0.043000	-1.869481
0.043100	-1.865586
0.043200	-1.854875
0.043300	-1.866885
0.043400	-1.923362
0.043500	-1.972699
0.043600	-1.996718
0.043700	-1.988928
0.043800	-1.969128
0.043900	-1.979840
0.044000	-1.986331
0.044100	-1.983735
0.044200	-1.988928
0.044300	-1.992498
0.044400	-1.995744
0.044500	-2.003534
0.044600	-2.016517
0.044700	-2.033720
0.044800	-2.048976
0.044900	-2.060336
0.045000	-2.072346
0.045100	-2.081759
0.045200	-2.089549
0.045300	-2.096040
0.045400	-2.121358
0.045500	-2.132394
0.045600	-2.160632
0.045700	-2.241778
0.045800	-2.386867
0.045900	-2.461521
0.046000	-2.414781
0.046100	-2.287869
0.046200	-2.210943
0.046300	-2.281377
0.046400	-2.421922
0.046500	-2.527412
0.046600	-2.524815
0.046700	-2.446590
0.046800	-2.383946
0.046900	-2.395306
0.047000	-2.477101
0.047100	-2.551431
0.047200	-2.583240
0.047300	-2.570581
0.047400	-2.561493
0.047500	-2.580319
0.047600	-2.613102
0.047700	-2.632901
0.047800	-2.637770
0.047900	-2.641016
0.048000	-2.661140
0.048100	-2.697818
0.048200	-2.734171
0.048300	-2.742611
0.048400	-2.726706
0.048500	-2.735470
0.048600	-2.779288
0.048700	-2.819861
0.048800	-2.814019
0.048900	-2.746506
0.049000	-2.689379
0.049100	-2.718591
0.049200	-2.807852
0.049300	-2.911394
0.049400	-2.922430
0.049500	-2.847451
0.049600	-2.755269
0.049700	-2.735470
0.049800	-2.805255
0.049900	-2.912043
0.050000	-2.955213
0.050100	-2.919509
0.050200	-2.860759
0.050300	-2.833819
0.050400	-2.830573
0.050500	-2.829599
0.050600	-2.815966
0.050700	-2.779288
0.050800	-2.752673
0.050900	-2.725732
0.051000	-2.689054
0.051100	-2.623488
0.051200	-2.529684
0.051300	-2.447239
0.051400	-2.395955
0.051500	-2.365769
0.051600	-2.331039
0.051700	-2.257034
0.051800	-2.164203
0.051900	-2.087277
0.052000	-1.985358
0.052100	-1.916221
0.052200	-1.848708
0.052300	-1.775677
0.052400	-1.692584
0.052500	-1.607219
0.052600	-1.522503
0.052700	-1.450445
0.052800	-1.401758
0.052900	-1.362483
0.053000	-1.331324
0.053100	-1.304708
0.053200	-1.290426
0.053300	-1.272574
0.053400	-1.262188
0.053500	-1.257643
0.053600	-1.253424
0.053700	-1.273548
0.053800	-1.281987
0.053900	-1.298541
0.054000	-1.241090
0.054100	-1.135925
0.054200	-1.016803
0.054300	-1.034331
0.054400	-1.179419
0.054500	-1.281662
0.054600	-1.269977
0.054700	-1.145013
0.054800	-1.040822
0.054900	-1.016479
0.055000	-1.087238
0.055100	-1.171629
0.055200	-1.188183
0.055300	-1.132355
0.055400	-1.036603
0.055500	-1.005768
0.055600	-1.005443
0.055700	-1.031734
0.055800	-1.040173
0.055900	-1.026865
0.056000	-1.010961
0.056100	-1.006741
0.056200	-1.011285
0.056300	-1.020374
0.056400	-1.013233
0.056500	-1.025243
0.056600	-1.041796
0.056700	-1.078149
0.056800	-1.119371
0.056900	-1.142417
0.057000	-1.120994
0.057100	-1.111581
0.057200	-1.149882
0.057300	-1.262188
0.057400	-1.304383
0.057500	-1.286856
0.057600	-1.191104
0.057700	-1.141768
0.057800	-1.181042
0.057900	-1.295944
0.058000	-1.379686
0.058100	-1.377090
0.058200	-1.296593
0.058300	-1.229080
0.058400	-1.253424
0.058500	-1.319639
0.058600	-1.375142
0.058700	-1.392345
0.058800	-1.383257
0.058900	-1.374168
0.059000	-1.385204
0.059100	-1.424154
0.059200	-1.464078
0.059300	-1.480307
0.059400	-1.476412
0.059500	-1.487448
0.059600	-1.497510
0.059700	-1.495238
0.059800	-1.488097
0.059900	-1.478359
0.060000	-1.498483
0.060100	-1.550741
0.060200	-1.584173
0.060300	-1.593262
0.060400	-1.555610
0.060500	-1.550741
0.060600	-1.557882
0.060700	-1.551066
0.060800	-1.528670
0.060900	-1.517958
0.061000	-1.494264
0.061100	-1.471543
0.061200	-1.455314
0.061300	-1.438111
0.061400	-1.414741
0.061500	-1.404355
0.061600	-1.386827
0.061700	-1.379362
0.061800	-1.369624
0.061900	-1.364756
0.062000	-1.359562
0.062100	-1.359238
0.062200	-1.368001
0.062300	-1.391047
0.062400	-1.485176
0.062500	-1.613386
0.062600	-1.655257
0.062700	-1.578006
0.062800	-1.458884
0.062900	-1.426751
0.063000	-1.530293
0.063100	-1.680250
0.063200	-1.774379
0.063300	-1.756202
0.063400	-1.689338
0.063500	-1.650713
0.063600	-1.697453
0.063700	-1.799372
0.063800	-1.889606
0.063900	-1.935047
0.064000	-1.948680
0.064100	-1.957119
0.064200	-1.983085
0.064300	-2.020737
0.064400	-2.053845
0.064500	-2.084031
0.064600	-2.102207
0.064700	-2.108699
0.064800	-2.147974
0.064900	-2.164203
0.065000	-2.173291
0.065100	-2.174265
0.065200	-2.186274
0.065300	-2.212241
0.065400	-2.226523
0.065500	-2.198933
0.065600	-2.122981
0.065700	-2.095391
0.065800	-2.138885
0.065900	-2.230418
0.066000	-2.319354
0.066100	-2.321626
0.066200	-2.257358
0.066300	-2.197310
0.066400	-2.225874
0.066500	-2.328442
0.066600	-2.448538
0.066700	-2.516700
0.066800	-2.508261
0.066900	-2.471583
0.067000	-2.455029
0.067100	-2.471259
0.067200	-2.504691
0.067300	-2.529684
0.067400	-2.536175
0.067500	-2.525789
0.067600	-2.499497
0.067700	-2.439449
0.067800	-2.364146
0.067900	-2.295659
0.068000	-2.247945
0.068100	-2.217434
0.068200	-2.184327
0.068300	-2.144403
0.068400	-2.065854
0.068500	-1.996393
0.068600	-1.939916
0.068700	-1.859744
0.068800	-1.803267
0.068900	-1.748412
0.069000	-1.692259
0.069100	-1.634484
0.069200	-1.561128
0.069300	-1.494588
0.069400	-1.454665
0.069500	-1.426751
0.069600	-1.417013
0.069700	-1.391047
0.069800	-1.393968
0.069900	-1.390722
0.070000	-1.382932
0.070100	-1.366703
0.070200	-1.365729
0.070300	-1.368001
0.070400	-1.389099
0.070500	-1.393643
0.070600	-1.396565
0.070700	-1.305357
0.070800	-1.183314
0.070900	-1.068412
0.071000	-1.138846
0.071100	-1.269328
0.071200	-1.335868
0.071300	-1.268679
0.071400	-1.143066
0.071500	-1.052507
0.071600	-1.061271
0.071700	-1.129109
0.071800	-1.192727
0.071900	-1.181367
0.072000	-1.124889
0.072100	-1.062245
0.072200	-1.034655
0.072300	-1.045042
0.072400	-1.046016
0.072500	-1.044068
0.072600	-1.045042
0.072700	-1.045691
0.072800	-1.042770
0.072900	-1.039849
0.073000	-1.033357
0.073100	-1.020049
0.073200	-1.060622
0.073300	-1.092106
0.073400	-1.143390
0.073500	-1.161567
0.073600	-1.159620
0.073700	-1.128784
0.073800	-1.125863
0.073900	-1.186884
0.074000	-1.278092
0.074100	-1.302111
0.074200	-1.259266
0.074300	-1.164813
0.074400	-1.147285
0.074500	-1.215448
0.074600	-1.329376
0.074700	-1.379686
0.074800	-1.349825
0.074900	-1.260889
0.075000	-1.220641
0.075100	-1.251801
0.075200	-1.307304
0.075300	-1.340087
0.075400	-1.343982
0.075500	-1.332946
0.075600	-1.338464
0.075700	-1.362159
0.075800	-1.397863
0.075900	-1.427725
0.076000	-1.434865
0.076100	-1.448173
0.076200	-1.473491
0.076300	-1.487123
0.076400	-1.482904
0.076500	-1.473166
0.076600	-1.474789
0.076700	-1.512116
0.076800	-1.577357
0.076900	-1.601376
0.077000	-1.611114
0.077100	-1.590989
0.077200	-1.604622
0.077300	-1.631238
0.077400	-1.653309
0.077500	-1.671486
0.077600	-1.680250
0.077700	-1.699725
0.077800	-1.715954
0.077900	-1.733481
0.078000	-1.739973
0.078100	-1.760422
0.078200	-1.769510
0.078300	-1.786064
0.078400	-1.801644
0.078500	-1.818847
0.078600	-1.821119
0.078700	-1.829558
0.078800	-1.844813
0.078900	-1.866560
0.079000	-1.933100
0.079100	-2.079811
0.079200	-2.227496
0.079300	-2.255086
0.079400	-2.187573
0.079500	-2.108699
0.079600	-2.144079
0.079700	-2.283325
0.079800	-2.445941
0.079900	-2.504691
0.080000	-2.467364
0.080100	-2.394981
0.080200	-2.387516
0.080300	-2.456652
0.080400	-2.561168
0.080500	-2.623488
0.080600	-2.630954
0.080700	-2.609856
0.080800	-2.604338
0.080900	-2.621865
0.081000	-2.642639
0.081100	-2.658868
0.081200	-2.651727
0.081300	-2.649130
0.081400	-2.659192
0.081500	-2.682238
0.081600	-2.693598
0.081700	-2.678343
0.081800	-2.660491
0.081900	-2.660815
0.082000	-2.667632
0.082100	-2.663087
0.082200	-2.590056
0.082300	-2.493655
0.082400	-2.456652
0.082500	-2.497550
0.082600	-2.587459
0.082700	-2.631603
0.082800	-2.582591
0.082900	-2.470285
0.083000	-2.388490
0.083100	-2.407640
0.083200	-2.508586
0.083300	-2.603364
0.083400	-2.615698
0.083500	-2.552404
0.083600	-2.484567
0.083700	-2.451459
0.083800	-2.461846
0.083900	-2.478075
0.084000	-2.479049
0.084100	-2.452757
0.084200	-2.414456
0.084300	-2.368690
0.084400	-2.307019
0.084500	-2.227172
0.084600	-2.152193
0.084700	-2.096689
0.084800	-2.053520
0.084900	-2.016842
0.085000	-1.955820
0.085100	-1.847410
0.085200	-1.770808
0.085300	-1.675381
0.085400	-1.602350
0.085500	-1.530617
0.085600	-1.464402
0.085700	-1.394293
0.085800	-1.315094
0.085900	-1.216746
0.086000	-1.138522
0.086100	-1.075877
0.086200	-1.040173
0.086300	-1.003820
0.086400	-0.985319
0.086500	-0.975257
0.086600	-0.959352
0.086700	-0.933710
0.086800	-0.925596
0.086900	-0.917806
0.087000	-0.925596
0.087100	-0.945720
0.087200	-0.959352
0.087300	-0.956431
0.087400	-0.860679
0.087500	-0.747076
0.087600	-0.685405
0.087700	-0.804527
0.087800	-0.966493
0.087900	-1.023620
0.088000	-0.955133
0.088100	-0.836660
0.088200	-0.772718
0.088300	-0.810369
0.088400	-0.902550
0.088500	-0.960975
0.088600	-0.942799
0.088700	-0.879505
0.088800	-0.810369
0.088900	-0.791543
0.089000	-0.811018
0.089100	-0.837309
0.089200	-0.855162
0.089300	-0.858732
0.089400	-0.857758
0.089500	-0.857758
0.089600	-0.867820
0.089700	-0.871715
0.089800	-0.898006
0.089900	-0.944746
0.090000	-0.993109
0.090100	-1.033357
0.090200	-1.067114
0.090300	-1.065491
0.090400	-1.068087
0.090500	-1.085615
0.090600	-1.194350
0.090700	-1.274522
0.090800	-1.287830
0.090900	-1.233300
0.091000	-1.145013
0.091100	-1.150856
0.091200	-1.232326
0.091300	-1.329051
0.091400	-1.362159
0.091500	-1.308603
0.091600	-1.228756
0.091700	-1.194350
0.091800	-1.234923
0.091900	-1.297567
0.092000	-1.329376
0.092100	-1.340087
0.092200	-1.329051
0.092300	-1.325806
0.092400	-1.340736
0.092500	-1.368001
0.092600	-1.397538
0.092700	-1.417013
0.092800	-1.439734
0.092900	-1.458560
0.093000	-1.458884
0.093100	-1.444927
0.093200	-1.426102
0.093300	-1.431295
0.093400	-1.487123
0.093500	-1.539705
0.093600	-1.556584
0.093700	-1.543600
0.093800	-1.519257
0.093900	-1.532565
0.094000	-1.542302
0.094100	-1.538732
0.094200	-1.537758
0.094300	-1.538083
0.094400	-1.541978
0.094500	-1.548145
0.094600	-1.556908
0.094700	-1.559180
0.094800	-1.574760
0.094900	-1.586770
0.095000	-1.598130
0.095100	-1.612737
0.095200	-1.637405
0.095300	-1.650713
0.095400	-1.673758
0.095500	-1.699725
0.095600	-1.732508
0.095700	-1.820145
0.095800	-1.970102
0.095900	-2.085329
0.096000	-2.067152
0.096100	-1.963286
0.096200	-1.904861
0.096300	-1.965883
0.096400	-2.137262
0.096500	-2.263201
0.096600	-2.288843
0.096700	-2.219382
0.096800	-2.155764
0.096900	-2.161606
0.097000	-2.244050
0.097100	-2.328766
0.097200	-2.374533
0.097300	-2.378752
0.097400	-2.361874
0.097500	-2.362523
0.097600	-2.374533
0.097700	-2.392709
0.097800	-2.396929
0.097900	-2.403096
0.098000	-2.417378
0.098100	-2.455029
0.098200	-2.493330
0.098300	-2.500471
0.098400	-2.483917
0.098500	-2.484242
0.098600	-2.505340
0.098700	-2.530008
0.098800	-2.515727
0.098900	-2.430686
0.099000	-2.345320
0.099100	-2.343048
0.099200	-2.411860
0.099300	-2.504366
0.099400	-2.525139
0.099500	-2.456003
0.099600	-2.352136
0.099700	-2.310914
0.099800	-2.363821
0.099900	-2.473531
0.100000	-2.539421
0.100100	-2.533254
0.100200	-2.490734
0.100300	-2.462819
0.100400	-2.455679
0.100500	-2.474180
0.100600	-2.486839
0.100700	-2.486839
0.100800	-2.485865
0.100900	-2.477426
0.101000	-2.457951
0.101100	-2.413807
0.101200	-2.342399
0.101300	-2.283325
0.101400	-2.247945
0.101500	-2.226523
0.101600	-2.202504
0.101700	-2.148947
0.101800	-2.062284
0.101900	-2.009377
0.102000	-1.914923
0.102100	-1.866236
0.102200	-1.814302
0.102300	-1.768212
0.102400	-1.712059
0.102500	-1.645195
0.102600	-1.578980
0.102700	-1.525099
0.102800	-1.493615
0.102900	-1.475114
0.103000	-1.457911
0.103100	-1.457586
0.103200	-1.456288
0.103300	-1.456288
0.103400	-1.446226
0.103500	-1.427075
0.103600	-1.420584
0.103700	-1.422207
0.103800	-1.423505
0.103900	-1.425777
0.104000	-1.374818
0.104100	-1.244335
0.104200	-1.107037
0.104300	-1.076851
0.104400	-1.198569
0.104500	-1.307304
0.104600	-1.306006
0.104700	-1.165137
0.104800	-1.051209
0.104900	-0.998302
0.105000	-1.062245
0.105100	-1.152803
0.105200	-1.185586
0.105300	-1.127486
0.105400	-1.048612
0.105500	-0.975581
0.105600	-0.972011
0.105700	-0.979476
0.105800	-0.986617
0.105900	-0.981749
0.106000	-0.967142
0.106100	-0.958703
0.106200	-0.959028
0.106300	-0.961949
0.106400	-0.951238
0.106500	-0.966169
0.106600	-1.006417
0.106700	-1.055104
0.106800	-1.116775
0.106900	-1.153128
0.107000	-1.165462
0.107100	-1.182989
0.107200	-1.236870
0.107300	-1.385204
0.107400	-1.470245
0.107500	-1.491018
0.107600	-1.428374
0.107700	-1.378388
0.107800	-1.432269
0.107900	-1.552689
0.108000	-1.665968
0.108100	-1.689987
0.108200	-1.621176
0.108300	-1.546846
0.108400	-1.548145
0.108500	-1.621176
0.108600	-1.679925
0.108700	-1.699076
0.108800	-1.684794
0.108900	-1.657204
0.109000	-1.662073
0.109100	-1.684469
0.109200	-1.721472
0.109300	-1.733157
0.109400	-1.734130
0.109500	-1.732832
0.109600	-1.728613
0.109700	-1.709462
0.109800	-1.671811
0.109900	-1.627018
0.110000	-1.602674
0.110100	-1.618254
0.110200	-1.622149
0.110300	-1.600402
0.110400	-1.532565
0.110500	-1.487448
0.110600	-1.468622
0.110700	-1.447524
0.110800	-1.429997
0.110900	-1.399161
0.111000	-1.368975
0.111100	-1.343009
0.111200	-1.316717
0.111300	-1.293023
0.111400	-1.269328
0.111500	-1.258617
0.111600	-1.240441
0.111700	-1.239791
0.111800	-1.232326
0.111900	-1.237844
0.112000	-1.248555
0.112100	-1.260565
0.112200	-1.285557
0.112300	-1.329051
0.112400	-1.446550
0.112500	-1.596183
0.112600	-1.679601
0.112700	-1.616632
0.112800	-1.505949
0.112900	-1.461157
0.113000	-1.540679
0.113100	-1.689338
0.113200	-1.794503
0.113300	-1.798398
0.113400	-1.721147
0.113500	-1.665643
0.113600	-1.677653
0.113700	-1.770159
0.113800	-1.860718
0.113900	-1.922388
0.114000	-1.929854
0.114100	-1.915572
0.114200	-1.929205
0.114300	-1.959066
0.114400	-2.012947
0.114500	-2.049300
0.114600	-2.079162
0.114700	-2.115515
0.114800	-2.145377
0.114900	-2.180432
0.115000	-2.212241
0.115100	-2.245349
0.115200	-2.277158
0.115300	-2.313186
0.115400	-2.356031
0.115500	-2.357005
0.115600	-2.299554
0.115700	-2.274561
0.115800	-2.321626
0.115900	-2.434256
0.116000	-2.547211
0.116100	-2.580968
0.116200	-2.517025
0.116300	-2.439449
0.116400	-2.443669
0.116500	-2.534552
0.116600	-2.646209
0.116700	-2.705933
0.116800	-2.695870
0.116900	-2.657245
0.117000	-2.619269
0.117100	-2.602066
0.117200	-2.609856
0.117300	-2.615374
0.117400	-2.611803
0.117500	-2.597522
0.117600	-2.560194
0.117700	-2.499497
0.117800	-2.424194
0.117900	-2.340776
0.118000	-2.280728
0.118100	-2.235611
0.118200	-2.207372
0.118300	-2.168422
0.118400	-2.085005
0.118500	-1.992174
0.118600	-1.920766
0.118700	-1.817873
0.118800	-1.738999
0.118900	-1.668240
0.119000	-1.597481
0.119100	-1.525424
0.119200	-1.445577
0.119300	-1.368975
0.119400	-1.305032
0.119500	-1.259915
0.119600	-1.237195
0.119700	-1.225834
0.119800	-1.235247
0.119900	-1.230703
0.120000	-1.228106
0.120100	-1.230703
0.120200	-1.224536
0.120300	-1.232975
0.120400	-1.250178
0.120500	-1.271600
0.120600	-1.260565
0.120700	-1.193376
0.120800	-1.051858
0.120900	-0.945720
0.121000	-0.957080
0.121100	-1.088211
0.121200	-1.166111
0.121300	-1.118398
0.121400	-0.990837
0.121500	-0.887295
0.121600	-0.856135
0.121700	-0.923973
0.121800	-0.991161
0.121900	-1.009338
0.122000	-0.958379
0.122100	-0.899305
0.122200	-0.860030
0.122300	-0.860679
0.122400	-0.863276
0.122500	-0.866846
0.122600	-0.875286
0.122700	-0.879181
0.122800	-0.882102
0.122900	-0.877233
0.123000	-0.852240
0.123100	-0.856135
0.123200	-0.873987
0.123300	-0.904823
0.123400	-0.931114
0.123500	-0.960651
0.123600	-0.948966
0.123700	-0.922675
0.123800	-0.914560
0.123900	-0.955457
0.124000	-1.065166
0.124100	-1.094054
0.124200	-1.039524
0.124300	-0.949615
0.124400	-0.900928
0.124500	-0.938255
0.124600	-1.031734
0.124700	-1.074904
0.124800	-1.026541
0.124900	-0.934684
0.125000	-0.883725
0.125100	-0.903849
0.125200	-0.952536
0.125300	-0.969739
0.125400	-0.977204
0.125500	-0.989214
0.125600	-1.026541
0.125700	-1.068412
0.125800	-1.103467
0.125900	-1.139820
0.126000	-1.170980
0.126100	-1.210254
0.126200	-1.265758
0.126300	-1.301787
0.126400	-1.307304
0.126500	-1.309577
0.126600	-1.314770
0.126700	-1.365405
0.126800	-1.443629
0.126900	-1.496861
0.127000	-1.525424
0.127100	-1.523152
0.127200	-1.534512
0.127300	-1.562102
0.127400	-1.580278
0.127500	-1.589691
0.127600	-1.601701
0.127700	-1.615982
0.127800	-1.626694
0.127900	-1.639677
0.128000	-1.640975
0.128100	-1.647142
0.128200	-1.649414
0.128300	-1.653309
0.128400	-1.652985
0.128500	-1.658503
0.128600	-1.658827
0.128700	-1.668889
0.128800	-1.690312
0.128900	-1.707839
0.129000	-1.763992
0.129100	-1.890904
0.129200	-2.039563
0.129300	-2.082408
0.129400	-2.020088
0.129500	-1.933749
0.129600	-1.941539
0.129700	-2.062608
0.129800	-2.217759
0.129900	-2.303124
0.130000	-2.290466
0.130100	-2.234313
0.130200	-2.212890
0.130300	-2.272614
0.130400	-2.364146
0.130500	-2.434256
0.130600	-2.456328
0.130700	-2.448213
0.130800	-2.446266
0.130900	-2.452757
0.131000	-2.472557
0.131100	-2.487812
0.131200	-2.496576
0.131300	-2.511507
0.131400	-2.534228
0.131500	-2.572853
0.131600	-2.614075
0.131700	-2.641990
0.131800	-2.656596
0.131900	-2.686133
0.132000	-2.735470
0.132100	-2.777341
0.132200	-2.758840
0.132300	-2.692949
0.132400	-2.676071
0.132500	-2.757541
0.132600	-2.876015
0.132700	-2.963003
0.132800	-2.945476
0.132900	-2.846802
0.133000	-2.782859
0.133100	-2.812071
0.133200	-2.928922
0.133300	-3.019481
0.133400	-3.026297
0.133500	-2.978259
0.133600	-2.919833
0.133700	-2.907175
0.133800	-2.915614
0.133900	-2.914965
0.134000	-2.896139
0.134100	-2.869847
0.134200	-2.845828
0.134300	-2.825704
0.134400	-2.785456
0.134500	-2.717942
0.134600	-2.628357
0.134700	-2.558572
0.134800	-2.513779
0.134900	-2.473855
0.135000	-2.415106
0.135100	-2.321301
0.135200	-2.232041
0.135300	-2.106752
0.135400	-2.039887
0.135500	-1.975295
0.135600	-1.916871
0.135700	-1.848708
0.135800	-1.768861
0.135900	-1.680574
0.136000	-1.607219
0.136100	-1.538732
0.136200	-1.495238
0.136300	-1.458560
0.136400	-1.424803
0.136500	-1.401433
0.136600	-1.364431
0.136700	-1.339114
0.136800	-1.308278
0.136900	-1.287180
0.137000	-1.269328
0.137100	-1.257643
0.137200	-1.245309
0.137300	-1.219992
0.137400	-1.118722
0.137500	-0.987591
0.137600	-0.896059
0.137700	-0.984670
0.137800	-1.104116
0.137900	-1.174550
0.138000	-1.102493
0.138100	-0.997328
0.138200	-0.935658
0.138300	-0.950589
0.138400	-1.045042
0.138500	-1.099896
0.138600	-1.097949
0.138700	-1.038875
0.138800	-0.964870
0.138900	-0.919753
0.139000	-0.913586
0.139100	-0.923648
0.139200	-0.917157
0.139300	-0.907419
0.139400	-0.882426
0.139500	-0.871715
0.139600	-0.871715
0.139700	-0.879505
0.139800	-0.912613
0.139900	-0.939877
0.140000	-0.994732
0.140100	-1.034980
0.140200	-1.095028
0.140300	-1.112880
0.140400	-1.128135
0.140500	-1.144364
0.140600	-1.236221
0.140700	-1.335543
0.140800	-1.367677
0.140900	-1.326455
0.141000	-1.269653
0.141100	-1.270302
0.141200	-1.355992
0.141300	-1.482904
0.141400	-1.530617
0.141500	-1.498808
0.141600	-1.422531
0.141700	-1.401109
0.141800	-1.447199
0.141900	-1.512441
0.142000	-1.535810
0.142100	-1.543276
0.142200	-1.526722
0.142300	-1.542951
0.142400	-1.565997
0.142500	-1.589367
0.142600	-1.581577
0.142700	-1.576708
0.142800	-1.567944
0.142900	-1.578006
0.143000	-1.564698
0.143100	-1.538083
0.143200	-1.509195
0.143300	-1.495238
0.143400	-1.526722
0.143500	-1.559830
0.143600	-1.566646
0.143700	-1.555935
0.143800	-1.537433
0.143900	-1.522503
0.144000	-1.515362
0.144100	-1.499782
0.144200	-1.486799
0.144300	-1.475438
0.144400	-1.465051
0.144500	-1.452717
0.144600	-1.454340
0.144700	-1.460183
0.144800	-1.468946
0.144900	-1.479333
0.145000	-1.497834
0.145100	-1.520231
0.145200	-1.550741
0.145300	-1.577357
0.145400	-1.614359
0.145500	-1.652336
0.145600	-1.686741
0.145700	-1.781195
0.145800	-1.939916
0.145900	-2.078188
0.146000	-2.087277
0.146100	-2.025930
0.146200	-1.977892
0.146300	-2.038265
0.146400	-2.197310
0.146500	-2.352786
0.146600	-2.413807
0.146700	-2.394008
0.146800	-2.361549
0.146900	-2.378752
0.147000	-2.454380
0.147100	-2.555650
0.147200	-2.626085
0.147300	-2.663737
0.147400	-2.679317
0.147500	-2.691651
0.147600	-2.695546
0.147700	-2.711126
0.147800	-2.718267
0.147900	-2.720214
0.148000	-2.716319
0.148100	-2.711450
0.148200	-2.709503
0.148300	-2.718267
0.148400	-2.707231
0.148500	-2.706257
0.148600	-2.724434
0.148700	-2.750725
0.148800	-2.765656
0.148900	-2.711450
0.149000	-2.647832
0.149100	-2.659517
0.149200	-2.765007
0.149300	-2.875365
0.149400	-2.938984
0.149500	-2.899709
0.149600	-2.822783
0.149700	-2.805255
0.149800	-2.888349
0.149900	-3.006173
0.150000	-3.083424
0.150100	-3.086670
0.150200	-3.042202
0.150300	-3.008445
0.150400	-3.011042
0.150500	-3.007146
0.150600	-2.994812
0.150700	-2.966249
0.150800	-2.944177
0.150900	-2.926325
0.151000	-2.884778
0.151100	-2.818239
0.151200	-2.721513
0.151300	-2.624787
0.151400	-2.554352
0.151500	-2.502094
0.151600	-2.456977
0.151700	-2.382647
0.151800	-2.272938
0.151900	-2.147000
0.152000	-2.017491
0.152100	-1.916871
0.152200	-1.819171
0.152300	-1.709787
0.152400	-1.598455
0.152500	-1.479009
0.152600	-1.357290
0.152700	-1.251152
0.152800	-1.162216
0.152900	-1.100221
0.153000	-1.036278
0.153100	-0.994732
0.153200	-0.970388
0.153300	-0.931763
0.153400	-0.898655
0.153500	-0.869443
0.153600	-0.845424
0.153700	-0.833739
0.153800	-0.829520
0.153900	-0.821405
0.154000	-0.779858
0.154100	-0.661711
0.154200	-0.515000
0.154300	-0.476374
0.154400	-0.577969
0.154500	-0.689300
0.154600	-0.704880
0.154700	-0.605233
0.154800	-0.498771
0.154900	-0.441320
0.155000	-0.488384
0.155100	-0.574723
0.155200	-0.599391
0.155300	-0.563038
0.155400	-0.485138
0.155500	-0.446188
0.155600	-0.424117
0.155700	-0.442942
0.155800	-0.442293
0.155900	-0.444890
0.156000	-0.438398
0.156100	-0.439048
0.156200	-0.446513
0.156300	-0.463716
0.156400	-0.474752
0.156500	-0.515324
0.156600	-0.544861
0.156700	-0.599716
0.156800	-0.649701
0.156900	-0.696116
0.157000	-0.705854
0.157100	-0.721434
0.157200	-0.762980
0.157300	-0.887295
0.157400	-0.976555
0.157500	-0.993758
0.157600	-0.932412
0.157700	-0.894761
0.157800	-0.942799
0.157900	-1.084966
0.158000	-1.224211
0.158100	-1.275820
0.158200	-1.230378
0.158300	-1.186560
0.158400	-1.214799
0.158500	-1.319639
0.158600	-1.416689
0.158700	-1.442980
0.158800	-1.457911
0.158900	-1.468946
0.159000	-1.524125
0.159100	-1.587744
0.159200	-1.655257
0.159300	-1.692584
0.159400	-1.714655
0.159500	-1.745815
0.159600	-1.780546
0.159700	-1.796126
0.159800	-1.788985
0.159900	-1.770808
0.160000	-1.772756
0.160100	-1.811057
0.160200	-1.846111
0.160300	-1.833777
0.160400	-1.782493
0.160500	-1.739324
0.160600	-1.715954
0.160700	-1.682197
0.160800	-1.643572
0.160900	-1.604297
0.161000	-1.554961
0.161100	-1.516336
0.161200	-1.470569
0.161300	-1.428049
0.161400	-1.392020
0.161500	-1.363782
0.161600	-1.336192
0.161700	-1.316717
0.161800	-1.297242
0.161900	-1.281662
0.162000	-1.276469
0.162100	-1.280689
0.162200	-1.309901
0.162300	-1.334894
0.162400	-1.446875
0.162500	-1.608517
0.162600	-1.717901
0.162700	-1.693558
0.162800	-1.615009
0.162900	-1.591963
0.163000	-1.688364
0.163100	-1.882140
0.163200	-2.028202
0.163300	-2.088900
0.163400	-2.054169
0.163500	-2.038265
0.163600	-2.078513
0.163700	-2.196986
0.163800	-2.317081
0.163900	-2.394332
0.164000	-2.421597
0.164100	-2.419650
0.164200	-2.438476
0.164300	-2.468986
0.164400	-2.526113
0.164500	-2.561817
0.164600	-2.575450
0.164700	-2.564739
0.164800	-2.572529
0.164900	-2.592004
0.165000	-2.606610
0.165100	-2.609856
0.165200	-2.594600
0.165300	-2.593627
0.165400	-2.596548
0.165500	-2.576424
0.165600	-2.489760
0.165700	-2.406017
0.165800	-2.410886
0.165900	-2.496576
0.166000	-2.565712
0.166100	-2.587459
0.166200	-2.509235
0.166300	-2.410886
0.166400	-2.385893
0.166500	-2.471583
0.166600	-2.595574
0.166700	-2.675746
0.166800	-2.662114
0.166900	-2.615698
0.167000	-2.598495
0.167100	-2.620242
0.167200	-2.673474
0.167300	-2.713073
0.167400	-2.741637
0.167500	-2.757541
0.167600	-2.753322
0.167700	-2.737093
0.167800	-2.699441
0.167900	-2.644262
0.168000	-2.605636
0.168100	-2.583240
0.168200	-2.567660
0.168300	-2.543965
0.168400	-2.487163
0.168500	-2.413158
0.168600	-2.364795
0.168700	-2.287544
0.168800	-2.239831
0.168900	-2.197635
0.169000	-2.144079
0.169100	-2.082732
0.169200	-2.002885
0.169300	-1.922713
0.169400	-1.848384
0.169500	-1.796450
0.169600	-1.755877
0.169700	-1.716278
0.169800	-1.689663
0.169900	-1.661099
0.170000	-1.629615
0.170100	-1.590016
0.170200	-1.564049
0.170300	-1.550417
0.170400	-1.548794
0.170500	-1.549118
0.170600	-1.543600
0.170700	-1.481281
0.170800	-1.346579
0.170900	-1.236546
0.171000	-1.238168
0.171100	-1.351448
0.171200	-1.439409
0.171300	-1.405653
0.171400	-1.287830
0.171500	-1.168708
0.171600	-1.118722
0.171700	-1.170006
0.171800	-1.221939
0.171900	-1.233300
0.172000	-1.175849
0.172100	-1.099896
0.172200	-1.020049
0.172300	-0.979152
0.172400	-0.959028
0.172500	-0.960002
0.172600	-0.962598
0.172700	-0.951562
0.172800	-0.928517
0.172900	-0.908393
0.173000	-0.888269
0.173100	-0.876584
0.173200	-0.897682
0.173300	-0.914560
0.173400	-0.919753
0.173500	-0.924297
0.173600	-0.911314
0.173700	-0.874312
0.173800	-0.851267
0.173900	-0.868469
0.174000	-0.955782
0.174100	-0.976880
0.174200	-0.934684
0.174300	-0.843801
0.174400	-0.795763
0.174500	-0.828221
0.174600	-0.935982
0.174700	-1.018426
0.174800	-1.029137
0.174900	-0.987266
0.175000	-0.964546
0.175100	-1.011285
0.175200	-1.104441
0.175300	-1.168383
0.175400	-1.207658
0.175500	-1.245958
0.175600	-1.279066
0.175700	-1.325156
0.175800	-1.363782
0.175900	-1.390722
0.176000	-1.408574
0.176100	-1.442331
0.176200	-1.482904
0.176300	-1.507572
0.176400	-1.514063
0.176500	-1.512441
0.176600	-1.509195
0.176700	-1.536784
0.176800	-1.595209
0.176900	-1.626369
0.177000	-1.634159
0.177100	-1.638054
0.177200	-1.613710
0.177300	-1.612737
0.177400	-1.612737
0.177500	-1.599753
0.177600	-1.597157
0.177700	-1.582875
0.177800	-1.571839
0.177900	-1.559830
0.178000	-1.555610
0.178100	-1.551715
0.178200	-1.550741
0.178300	-1.549443
0.178400	-1.541004
0.178500	-1.546522
0.178600	-1.539705
0.178700	-1.545223
0.178800	-1.554312
0.178900	-1.573137
0.179000	-1.606894
0.179100	-1.713033
0.179200	-1.864613
0.179300	-1.926933
0.179400	-1.872403
0.179500	-1.789309
0.179600	-1.783142
0.179700	-1.900317
0.179800	-2.051248
0.179900	-2.159659
0.180000	-2.161606
0.180100	-2.102532
0.180200	-2.075916
0.180300	-2.121033
0.180400	-2.224575
0.180500	-2.317081
0.180600	-2.374533
0.180700	-2.420624
0.180800	-2.450810
0.180900	-2.492032
0.181000	-2.540719
0.181100	-2.591679
0.181200	-2.638419
0.181300	-2.696195
0.181400	-2.751699
0.181500	-2.806878
0.181600	-2.890621
0.181700	-2.929895
0.181800	-2.968521
0.181900	-3.000006
0.182000	-3.058431
0.182100	-3.099978
0.182200	-3.084398
0.182300	-3.015910
0.182400	-2.969819
0.182500	-3.012664
0.182600	-3.122049
0.182700	-3.184694
0.182800	-3.155157
0.182900	-3.034087
0.183000	-2.934440
0.183100	-2.913666
0.183200	-2.988321
0.183300	-3.048369
0.183400	-3.051615
0.183500	-2.989294
0.183600	-2.920158
0.183700	-2.892244
0.183800	-2.894840
0.183900	-2.887050
0.184000	-2.858812
0.184100	-2.835766
0.184200	-2.807203
0.184300	-2.769876
0.184400	-2.721837
0.184500	-2.630305
0.184600	-2.530333
0.184700	-2.448538
0.184800	-2.394981
0.184900	-2.355058
0.185000	-2.302151
0.185100	-2.202504
0.185200	-2.112594
0.185300	-1.988928
0.185400	-1.907458
0.185500	-1.840269
0.185600	-1.774379
0.185700	-1.708488
0.185800	-1.639352
0.185900	-1.552689
0.186000	-1.466674
0.186100	-1.407276
0.186200	-1.357290
0.186300	-1.321911
0.186400	-1.286207
0.186500	-1.279390
0.186600	-1.252775
0.186700	-1.249853
0.186800	-1.243362
0.186900	-1.261214
0.187000	-1.292374
0.187100	-1.334569
0.187200	-1.397214
0.187300	-1.443954
0.187400	-1.437462
0.187500	-1.352421
0.187600	-1.331324
0.187700	-1.437137
0.187800	-1.609166
0.187900	-1.747763
0.188000	-1.706216
0.188100	-1.617281
0.188200	-1.525424
0.188300	-1.520880
0.188400	-1.597806
0.188500	-1.654283
0.188600	-1.655906
0.188700	-1.573137
0.188800	-1.501405
0.188900	-1.453367
0.189000	-1.447849
0.189100	-1.460183
0.189200	-1.465701
0.189300	-1.457911
0.189400	-1.439085
0.189500	-1.420584
0.189600	-1.408899
0.189700	-1.404030
0.189800	-1.407600
0.189900	-1.425128
0.190000	-1.444927
0.190100	-1.464727
0.190200	-1.494913
0.190300	-1.491992
0.190400	-1.472841
0.190500	-1.459858
0.190600	-1.522827
0.190700	-1.632211
0.190800	-1.667266
0.190900	-1.629939
0.191000	-1.557233
0.191100	-1.544250
0.191200	-1.629615
0.191300	-1.768212
0.191400	-1.843839
0.191500	-1.836049
0.191600	-1.759448
0.191700	-1.733481
0.191800	-1.790608
0.191900	-1.868183
0.192000	-1.888956
0.192100	-1.876622
0.192200	-1.845787
0.192300	-1.830856
0.192400	-1.824040
0.192500	-1.815276
0.192600	-1.808460
0.192700	-1.779572
0.192800	-1.763667
0.192900	-1.755877
0.193000	-1.746789
0.193100	-1.724718
0.193200	-1.701672
0.193300	-1.696479
0.193400	-1.722770
0.193500	-1.759448
0.193600	-1.780870
0.193700	-1.796450
0.193800	-1.803591
0.193900	-1.799372
0.194000	-1.808135
0.194100	-1.810083
0.194200	-1.822742
0.194300	-1.827935
0.194400	-1.829233
0.194500	-1.841567
0.194600	-1.851954
0.194700	-1.867209
0.194800	-1.885386
0.194900	-1.903887
0.195000	-1.925634
0.195100	-1.944460
0.195200	-1.950952
0.195300	-1.958093
0.195400	-1.980164
0.195500	-1.996069
0.195600	-2.022035
0.195700	-2.068126
0.195800	-2.195363
0.195900	-2.320003
0.196000	-2.327468
0.196100	-2.247945
0.196200	-2.124928
0.196300	-2.121033
0.196400	-2.211592
0.196500	-2.340127
0.196600	-2.381349
0.196700	-2.324871
0.196800	-2.241129
0.196900	-2.201854
0.197000	-2.254437
0.197100	-2.337530
0.197200	-2.418351
0.197300	-2.452108
0.197400	-2.450161
0.197500	-2.459898
0.197600	-2.480022
0.197700	-2.522867
0.197800	-2.563440
0.197900	-2.593951
0.198000	-2.624137
0.198100	-2.656920
0.198200	-2.693598
0.198300	-2.736119
0.198400	-2.762735
0.198500	-2.771498
0.198600	-2.798114
0.198700	-2.826353
0.198800	-2.854267
0.198900	-2.808176
0.199000	-2.728329
0.199100	-2.702362
0.199200	-2.765331
0.199300	-2.864329
0.199400	-2.915614
0.199500	-2.865303
0.199600	-2.757866
0.199700	-2.682238
0.199800	-2.709828
0.199900	-2.818563
0.200000	-2.892568
0.200100	-2.911719
0.200200	-2.870497
0.200300	-2.839661
0.200400	-2.837714
0.200500	-2.841284
0.200600	-2.831871
0.200700	-2.804281
0.200800	-2.770525
0.200900	-2.722811
0.201000	-2.659192
0.201100	-2.571555
0.201200	-2.455029
0.201300	-2.341425
0.201400	-2.251516
0.201500	-2.179134
0.201600	-2.124604
0.201700	-2.053520
0.201800	-1.941863
0.201900	-1.843839
0.202000	-1.710760
0.202100	-1.632211
0.202200	-1.561777
0.202300	-1.500756
0.202400	-1.435514
0.202500	-1.368651
0.202600	-1.300164
0.202700	-1.233624
0.202800	-1.194350
0.202900	-1.164488
0.203000	-1.143390
0.203100	-1.122942
0.203200	-1.113204
0.203300	-1.088861
0.203400	-1.080421
0.203500	-1.059324
0.203600	-1.058350
0.203700	-1.070684
0.203800	-1.089185
0.203900	-1.115476
0.204000	-1.096975
0.204100	-1.032383
0.204200	-0.907419
0.204300	-0.896059
0.204400	-0.991811
0.204500	-1.158646
0.204600	-1.223887
0.204700	-1.182340
0.204800	-1.099247
0.204900	-1.067438
0.205000	-1.127810
0.205100	-1.231677
0.205200	-1.306006
0.205300	-1.313472
0.205400	-1.269977
0.205500	-1.250178
0.205600	-1.232326
0.205700	-1.263810
0.205800	-1.277767
0.205900	-1.312822
0.206000	-1.329701
0.206100	-1.342035
0.206200	-1.356316
0.206300	-1.356641
0.206400	-1.375467
0.206500	-1.383906
0.206600	-1.423180
0.206700	-1.450445
0.206800	-1.488746
0.206900	-1.510818
0.207000	-1.491992
0.207100	-1.476736
0.207200	-1.452393
0.207300	-1.542951
0.207400	-1.606569
0.207500	-1.598455
0.207600	-1.503352
0.207700	-1.430321
0.207800	-1.392020
0.207900	-1.469271
0.208000	-1.552040
0.208100	-1.563075
0.208200	-1.479333
0.208300	-1.386178
0.208400	-1.354369
0.208500	-1.387152
0.208600	-1.416364
0.208700	-1.392020
0.208800	-1.340412
0.208900	-1.296269
0.209000	-1.280689
0.209100	-1.281013
0.209200	-1.273223
0.209300	-1.250178
0.209400	-1.223887
0.209500	-1.225834
0.209600	-1.231677
0.209700	-1.222913
0.209800	-1.198894
0.209900	-1.167734
0.210000	-1.147610
0.210100	-1.182665
0.210200	-1.213176
0.210300	-1.229080
0.210400	-1.227457
0.210500	-1.195324
0.210600	-1.179419
0.210700	-1.166436
0.210800	-1.145338
0.210900	-1.127161
0.211000	-1.105414
0.211100	-1.088861
0.211200	-1.071658
0.211300	-1.059324
0.211400	-1.051858
0.211500	-1.049262
0.211600	-1.056727
0.211700	-1.069710
0.211800	-1.087238
0.211900	-1.097949
0.212000	-1.111906
0.212100	-1.132030
0.212200	-1.160918
0.212300	-1.196622
0.212400	-1.295295
0.212500	-1.456937
0.212600	-1.579954
0.212700	-1.590665
0.212800	-1.531266
0.212900	-1.488421
0.213000	-1.567620
0.213100	-1.737376
0.213200	-1.904212
0.213300	-1.985033
0.213400	-1.983085
0.213500	-1.968804
0.213600	-2.022685
0.213700	-2.148947
0.213800	-2.289167
0.213900	-2.392060
0.214000	-2.456977
0.214100	-2.495602
0.214200	-2.539746
0.214300	-2.605961
0.214400	-2.689054
0.214500	-2.748453
0.214600	-2.810773
0.214700	-2.868224
0.214800	-2.919509
0.214900	-2.991891
0.215000	-3.045447
0.215100	-3.087643
0.215200	-3.111338
0.215300	-3.132436
0.215400	-3.170412
0.215500	-3.184370
0.215600	-3.130489
0.215700	-3.057457
0.215800	-3.059080
0.215900	-3.154183
0.216000	-3.245067
0.216100	-3.290509
0.216200	-3.221048
0.216300	-3.130164
0.216400	-3.084398
0.216500	-3.147367
0.216600	-3.261296
0.216700	-3.321993
0.216800	-3.295053
0.216900	-3.211959
0.217000	-3.151262
0.217100	-3.122374
0.217200	-3.130489
0.217300	-3.114259
0.217400	-3.089591
0.217500	-3.058106
0.217600	-3.013638
0.217700	-2.963003
0.217800	-2.909122
0.217900	-2.833819
0.218000	-2.765981
0.218100	-2.724109
0.218200	-2.699116
0.218300	-2.680940
0.218400	-2.626085
0.218500	-2.542018
0.218600	-2.446266
0.218700	-2.369989
0.218800	-2.329416
0.218900	-2.292738
0.219000	-2.250866
0.219100	-2.202504
0.219200	-2.147974
0.219300	-2.093119
0.219400	-2.052546
0.219500	-2.032747
0.219600	-2.029501
0.219700	-2.005157
0.219800	-2.004183
0.219900	-1.974646
0.220000	-1.954198
0.220100	-1.908756
0.220200	-1.892202
0.220300	-1.860069
0.220400	-1.850331
0.220500	-1.840918
0.220600	-1.827286
0.220700	-1.783142
0.220800	-1.651686
0.220900	-1.524450
0.221000	-1.488097
0.221100	-1.589691
0.221200	-1.693558
0.221300	-1.662073
0.221400	-1.556908
0.221500	-1.413443
0.221600	-1.347228
0.221700	-1.350474
0.221800	-1.407600
0.221900	-1.396240
0.222000	-1.336517
0.222100	-1.235896
0.222200	-1.154102
0.222300	-1.117748
0.222400	-1.109634
0.222500	-1.112555
0.222600	-1.117424
0.222700	-1.090808
0.222800	-1.058350
0.222900	-1.026541
0.223000	-1.002197
0.223100	-1.000899
0.223200	-1.008689
0.223300	-1.017128
0.223400	-1.020049
0.223500	-1.042445
0.223600	-1.055429
0.223700	-1.040173
0.223800	-1.042445
0.223900	-1.074254
0.224000	-1.197920
0.224100	-1.267705
0.224200	-1.268355
0.224300	-1.193051
0.224400	-1.148908
0.224500	-1.167409
0.224600	-1.275171
0.224700	-1.354044
0.224800	-1.355667
0.224900	-1.270302
0.225000	-1.203438
0.225100	-1.201815
0.225200	-1.265109
0.225300	-1.329376
0.225400	-1.356966
0.225500	-1.379686
0.225600	-1.402732
0.225700	-1.456288
0.225800	-1.513090
0.225900	-1.574111
0.226000	-1.635457
0.226100	-1.687066
0.226200	-1.743868
0.226300	-1.801968
0.226400	-1.836699
0.226500	-1.860393
0.226600	-1.871754
0.226700	-1.906484
0.226800	-1.984384
0.226900	-2.041835
0.227000	-2.062933
0.227100	-2.072021
0.227200	-2.055143
0.227300	-2.062284
0.227400	-2.056766
0.227500	-2.051572
0.227600	-2.037291
0.227700	-2.019763
0.227800	-2.002560
0.227900	-1.976269
0.228000	-1.949004
0.228100	-1.925310
0.228200	-1.898369
0.228300	-1.875324
0.228400	-1.861367
0.228500	-1.844164
0.228600	-1.827935
0.228700	-1.815925
0.228800	-1.813004
0.228900	-1.815276
0.229000	-1.827610
0.229100	-1.916221
0.229200	-2.062284
0.229300	-2.131420
0.229400	-2.085005
0.229500	-1.977892
0.229600	-1.935047
0.229700	-2.016842
0.229800	-2.161931
0.229900	-2.252489
0.230000	-2.248270
0.230100	-2.164852
0.230200	-2.098312
0.230300	-2.095067
0.230400	-2.154465
0.230500	-2.205100
0.230600	-2.229769
0.230700	-2.219706
0.230800	-2.217434
0.230900	-2.227496
0.231000	-2.264824
0.231100	-2.308642
0.231200	-2.349540
0.231300	-2.383946
0.231400	-2.413483
0.231500	-2.450810
0.231600	-2.487163
0.231700	-2.530657
0.231800	-2.547536
0.231900	-2.581617
0.232000	-2.624787
0.232100	-2.671202
0.232200	-2.681589
0.232300	-2.631603
0.232400	-2.609207
0.232500	-2.662763
0.232600	-2.798114
0.232700	-2.902955
0.232800	-2.937685
0.232900	-2.865952
0.233000	-2.790000
0.233100	-2.798439
0.233200	-2.891919
0.233300	-3.000979
0.233400	-3.048044
0.233500	-3.014612
0.233600	-2.967223
0.233700	-2.944502
0.233800	-2.952616
0.233900	-2.964951
0.234000	-2.963652
0.234100	-2.960082
0.234200	-2.963328
0.234300	-2.959757
0.234400	-2.950020
0.234500	-2.927948
0.234600	-2.889322
0.234700	-2.880883
0.234800	-2.889972
0.234900	-2.913342
0.235000	-2.923404
0.235100	-2.878936
0.235200	-2.826029
0.235300	-2.736768
0.235400	-2.664386
0.235500	-2.600767
0.235600	-2.536175
0.235700	-2.458600
0.235800	-2.369015
0.235900	-2.269043
0.236000	-2.175888
0.236100	-2.096689
0.236200	-2.045405
0.236300	-1.988279
0.236400	-1.946408
0.236500	-1.904536
0.236600	-1.854226
0.236700	-1.792880
0.236800	-1.734455
0.236900	-1.670837
0.237000	-1.626694
0.237100	-1.581252
0.237200	-1.556908
0.237300	-1.496536
0.237400	-1.406951
0.237500	-1.217720
0.237600	-1.091133
0.237700	-1.055429
0.237800	-1.156698
0.237900	-1.213176
0.238000	-1.133328
0.238100	-0.998302
0.238200	-0.851591
0.238300	-0.828870
0.238400	-0.873987
0.238500	-0.936307
0.238600	-0.935333
0.238700	-0.866197
0.238800	-0.769796
0.238900	-0.694169
0.239000	-0.658789
0.239100	-0.630551
0.239200	-0.609128
0.239300	-0.585434
0.239400	-0.546160
0.239500	-0.520518
0.239600	-0.497797
0.239700	-0.500069
0.239800	-0.508508
0.239900	-0.559792
0.240000	-0.586408
0.240100	-0.641911
0.240200	-0.682484
0.240300	-0.720135
0.240400	-0.717539
0.240500	-0.730847
0.240600	-0.777911
0.240700	-0.889892
0.240800	-0.927543
0.240900	-0.877882
0.241000	-0.783753
0.241100	-0.734417
0.241200	-0.788947
0.241300	-0.906770
0.241400	-0.980775
0.241500	-0.965195
0.241600	-0.891190
0.241700	-0.867171
0.241800	-0.944097
0.241900	-1.072956
0.242000	-1.168059
0.242100	-1.241739
0.242200	-1.294646
0.242300	-1.385204
0.242400	-1.500431
0.242500	-1.624746
0.242600	-1.741920
0.242700	-1.842866
0.242800	-1.957119
0.242900	-2.078513
0.243000	-2.199907
0.243100	-2.303449
0.243200	-2.394332
0.243300	-2.481970
0.243400	-2.591679
0.243500	-2.732548
0.243600	-2.837714
0.243700	-2.909122
0.243800	-2.959757
0.243900	-2.995786
0.244000	-3.042526
0.244100	-3.069142
0.244200	-3.083748
0.244300	-3.084722
0.244400	-3.081476
0.244500	-3.061352
0.244600	-3.039930
0.244700	-3.025648
0.244800	-3.003576
0.244900	-2.982154
0.245000	-2.958134
0.245100	-2.946774
0.245200	-2.926325
0.245300	-2.917237
0.245400	-2.914315
0.245500	-2.928597
0.245600	-2.928597
0.245700	-2.963003
0.245800	-3.072713
0.245900	-3.201248
0.246000	-3.226241
0.246100	-3.138928
0.246200	-3.029867
0.246300	-3.006173
0.246400	-3.115233
0.246500	-3.265191
0.246600	-3.351531
0.246700	-3.333354
0.246800	-3.257076
0.246900	-3.222995
0.247000	-3.256427
0.247100	-3.339196
0.247200	-3.391130
0.247300	-3.406385
0.247400	-3.377173
0.247500	-3.357049
0.247600	-3.354776
0.247700	-3.381392
0.247800	-3.414500
0.247900	-3.448257
0.248000	-3.488830
0.248100	-3.506033
0.248200	-3.531351
0.248300	-3.576468
0.248400	-3.597241
0.248500	-3.603084
0.248600	-3.613795
0.248700	-3.615418
0.248800	-3.608926
0.248900	-3.537193
0.249000	-3.407684
0.249100	-3.318748
0.249200	-3.326538
0.249300	-3.395350
0.249400	-3.425536
0.249500	-3.355426
0.249600	-3.204494
0.249700	-3.073362
0.249800	-3.046746
0.249900	-3.113610
0.250000	-3.172035
0.250100	-3.174632
0.250200	-3.095433
0.250300	-3.004874
0.250400	-2.944502
0.250500	-2.912368
0.250600	-2.894840
0.250700	-2.854267
0.250800	-2.796167
0.250900	-2.739689
0.251000	-2.678992
0.251100	-2.612777
0.251200	-2.526438
0.251300	-2.437177
0.251400	-2.366743
0.251500	-2.312213
0.251600	-2.280728
0.251700	-2.238532
0.251800	-2.155439
0.251900	-2.072346
0.252000	-1.971076
0.252100	-1.912002
0.252200	-1.868508
0.252300	-1.826312
0.252400	-1.774054
0.252500	-1.714006
0.252600	-1.642598
0.252700	-1.576059
0.252800	-1.531591
0.252900	-1.507896
0.253000	-1.507572
0.253100	-1.505624
0.253200	-1.520231
0.253300	-1.524775
0.253400	-1.525424
0.253500	-1.531591
0.253600	-1.551066
0.253700	-1.574436
0.253800	-1.615009
0.253900	-1.662398
0.254000	-1.688040
0.254100	-1.647791
0.254200	-1.539381
0.254300	-1.512765
0.254400	-1.619877
0.254500	-1.812355
0.254600	-1.912326
0.254700	-1.885061
0.254800	-1.805539
0.254900	-1.753930
0.255000	-1.798722
0.255100	-1.905835
0.255200	-1.992174
0.255300	-2.017167
0.255400	-1.970427
0.255500	-1.926608
0.255600	-1.905835
0.255700	-1.939591
0.255800	-1.984708
0.255900	-2.033396
0.256000	-2.055143
0.256100	-2.082408
0.256200	-2.104804
0.256300	-2.132069
0.256400	-2.169396
0.256500	-2.201854
0.256600	-2.241129
0.256700	-2.303124
0.256800	-2.377454
0.256900	-2.436204
0.257000	-2.458600
0.257100	-2.467688
0.257200	-2.479373
0.257300	-2.582266
0.257400	-2.694572
0.257500	-2.723785
0.257600	-2.657894
0.257700	-2.582915
0.257800	-2.564739
0.257900	-2.649780
0.258000	-2.766305
0.258100	-2.819537
0.258200	-2.795518
0.258300	-2.718591
0.258400	-2.694248
0.258500	-2.732224
0.258600	-2.789351
0.258700	-2.814019
0.258800	-2.812721
0.258900	-2.778639
0.259000	-2.753646
0.259100	-2.729303
0.259200	-2.714696
0.259300	-2.705608
0.259400	-2.694248
0.259500	-2.712100
0.259600	-2.731575
0.259700	-2.756243
0.259800	-2.768253
0.259900	-2.765331
0.260000	-2.769551
0.260100	-2.820186
0.260200	-2.869847
0.260300	-2.889647
0.260400	-2.885103
0.260500	-2.857838
0.260600	-2.829274
0.260700	-2.804931
0.260800	-2.769551
0.260900	-2.737417
0.261000	-2.700739
0.261100	-2.669904
0.261200	-2.642314
0.261300	-2.632901
0.261400	-2.605636
0.261500	-2.592653
0.261600	-2.575450
0.261700	-2.576748
0.261800	-2.574476
0.261900	-2.566037
0.262000	-2.563116
0.262100	-2.567011
0.262200	-2.586810
0.262300	-2.606285
0.262400	-2.663087
0.262500	-2.803632
0.262600	-2.928922
0.262700	-2.943853
0.262800	-2.870497
0.262900	-2.796167
0.263000	-2.831222
0.263100	-2.980855
0.263200	-3.148665
0.263300	-3.242470
0.263400	-3.246041
0.263500	-3.229162
0.263600	-3.263893
0.263700	-3.374576
0.263800	-3.526806
0.263900	-3.643657
0.264000	-3.712794
0.264100	-3.744279
0.264200	-3.781281
0.264300	-3.842628
0.264400	-3.895860
0.264500	-3.946171
0.264600	-3.979278
0.264700	-3.998104
0.264800	-4.018553
0.264900	-4.038353
0.265000	-4.040950
0.265100	-3.989341
0.265200	-3.943249
0.265300	-3.909168
0.265400	-3.879955
0.265500	-3.821205
0.265600	-3.683581
0.265700	-3.529079
0.265800	-3.459617
0.265900	-3.485909
0.266000	-3.528429
0.266100	-3.512200
0.266200	-3.410280
0.266300	-3.259998
0.266400	-3.148665
0.266500	-3.145095
0.266600	-3.221048
0.266700	-3.281745
0.266800	-3.260971
0.266900	-3.190861
0.267000	-3.110689
0.267100	-3.067844
0.267200	-3.054536
0.267300	-3.053887
0.267400	-3.049667
0.267500	-3.032789
0.267600	-3.003251
0.267700	-2.965600
0.267800	-2.921456
0.267900	-2.859785
0.268000	-2.792921
0.268100	-2.739689
0.268200	-2.692625
0.268300	-2.662114
0.268400	-2.608882
0.268500	-2.519297
0.268600	-2.445616
0.268700	-2.346619
0.268800	-2.283649
0.268900	-2.235611
0.269000	-2.186274
0.269100	-2.137262
0.269200	-2.078837
0.269300	-2.006131
0.269400	-1.944460
0.269500	-1.912976
0.269600	-1.906159
0.269700	-1.909730
0.269800	-1.924985
0.269900	-1.932775
0.270000	-1.958742
0.270100	-1.969778
0.270200	-1.996069
0.270300	-2.016842
0.270400	-2.047353
0.270500	-2.098312
0.270600	-2.127200
0.270700	-2.135315
0.270800	-2.060661
0.270900	-1.973348
0.271000	-1.958417
0.271100	-2.102207
0.271200	-2.255411
0.271300	-2.326170
0.271400	-2.273912
0.271500	-2.199907
0.271600	-2.151544
0.271700	-2.217110
0.271800	-2.324547
0.271900	-2.411860
0.272000	-2.427115
0.272100	-2.397254
0.272200	-2.362523
0.272300	-2.361225
0.272400	-2.406666
0.272500	-2.456652
0.272600	-2.497550
0.272700	-2.517999
0.272800	-2.533254
0.272900	-2.528061
0.273000	-2.529359
0.273100	-2.522543
0.273200	-2.517674
0.273300	-2.535851
0.273400	-2.548185
0.273500	-2.577722
0.273600	-2.569607
0.273700	-2.537798
0.273800	-2.523841
0.273900	-2.559545
0.274000	-2.683536
0.274100	-2.790974
0.274200	-2.821484
0.274300	-2.781885
0.274400	-2.770525
0.274500	-2.830248
0.274600	-2.972091
0.274700	-3.141849
0.274800	-3.240198
0.274900	-3.253831
0.275000	-3.240847
0.275100	-3.271683
0.275200	-3.358996
0.275300	-3.462539
0.275400	-3.535246
0.275500	-3.592697
0.275600	-3.604058
0.275700	-3.631647
0.275800	-3.653395
0.275900	-3.672545
0.276000	-3.687801
0.276100	-3.698837
0.276200	-3.699486
0.276300	-3.698512
0.276400	-3.680011
0.276500	-3.642359
0.276600	-3.597566
0.276700	-3.558291
0.276800	-3.552773
0.276900	-3.547904
0.277000	-3.509603
0.277100	-3.462539
0.277200	-3.396972
0.277300	-3.343416
0.277400	-3.301220
0.277500	-3.272657
0.277600	-3.241496
0.277700	-3.216828
0.277800	-3.189238
0.277900	-3.177229
0.278000	-3.167167
0.278100	-3.156455
0.278200	-3.154508
0.278300	-3.150613
0.278400	-3.144770
0.278500	-3.145744
0.278600	-3.137954
0.278700	-3.140551
0.278800	-3.140551
0.278900	-3.153859
0.279000	-3.162298
0.279100	-3.232408
0.279200	-3.366137
0.279300	-3.455073
0.279400	-3.432352
0.279500	-3.332380
0.279600	-3.264867
0.279700	-3.304466
0.279800	-3.435923
0.279900	-3.546606
0.280000	-3.575170
0.280100	-3.527780
0.280200	-3.476496
0.280300	-3.478119
0.280400	-3.544659
0.280500	-3.645605
0.280600	-3.708574
0.280700	-3.729997
0.280800	-3.742006
0.280900	-3.777711
0.281000	-3.821530
0.281100	-3.865349
0.281200	-3.913063
0.281300	-3.952013
0.281400	-3.982524
0.281500	-4.027317
0.281600	-4.079576
0.281700	-4.096454
0.281800	-4.105867
0.281900	-4.131509
0.282000	-4.192531
0.282100	-4.249983
0.282200	-4.270432
0.282300	-4.214603
0.282400	-4.170460
0.282500	-4.207138
0.282600	-4.336323
0.282700	-4.448630
0.282800	-4.492449
0.282900	-4.450253
0.283000	-4.372352
0.283100	-4.375923
0.283200	-4.466807
0.283300	-4.603134
0.283400	-4.715116
0.283500	-4.749198
0.283600	-4.745303
0.283700	-4.747899
0.283800	-4.766076
0.283900	-4.813141
0.284000	-4.846249
0.284100	-4.879033
0.284200	-4.908246
0.284300	-4.917009
0.284400	-4.906947
0.284500	-4.885524
0.284600	-4.844626
0.284700	-4.816387
0.284800	-4.792692
0.284900	-4.774840
0.285000	-4.755690
0.285100	-4.689149
0.285200	-4.600537
0.285300	-4.495046
0.285400	-4.395073
0.285500	-4.323015
0.285600	-4.244790
0.285700	-4.162670
0.285800	-4.074058
0.285900	-3.976033
0.286000	-3.879955
0.286100	-3.793940
0.286200	-3.722856
0.286300	-3.674493
0.286400	-3.615418
0.286500	-3.580363
0.286600	-3.538167
0.286700	-3.506682
0.286800	-3.461565
0.286900	-3.440142
0.287000	-3.409956
0.287100	-3.404113
0.287200	-3.415798
0.287300	-3.404763
0.287400	-3.364514
0.287500	-3.227215
0.287600	-3.124971
0.287700	-3.107443
0.287800	-3.247664
0.287900	-3.355426
0.288000	-3.345363
0.288100	-3.252208
0.288200	-3.150937
0.288300	-3.134384
0.288400	-3.196379
0.288500	-3.294728
0.288600	-3.326538
0.288700	-3.296676
0.288800	-3.229487
0.288900	-3.193458
0.289000	-3.192160
0.289100	-3.219425
0.289200	-3.220723
0.289300	-3.220398
0.289400	-3.219100
0.289500	-3.222346
0.289600	-3.240847
0.289700	-3.264217
0.289800	-3.285640
0.289900	-3.307063
0.290000	-3.351206
0.290100	-3.412553
0.290200	-3.465460
0.290300	-3.492400
0.290400	-3.479742
0.290500	-3.481689
0.290600	-3.519341
0.290700	-3.636192
0.290800	-3.668650
0.290900	-3.637815
0.291000	-3.541737
0.291100	-3.498892
0.291200	-3.519341
0.291300	-3.612172
0.291400	-3.678388
0.291500	-3.663132
0.291600	-3.580038
0.291700	-3.505708
0.291800	-3.501813
0.291900	-3.550826
0.292000	-3.584583
0.292100	-3.590425
0.292200	-3.576793
0.292300	-3.568029
0.292400	-3.591074
0.292500	-3.620936
0.292600	-3.650473
0.292700	-3.662158
0.292800	-3.687476
0.292900	-3.719935
0.293000	-3.750446
0.293100	-3.771219
0.293200	-3.780632
0.293300	-3.803028
0.293400	-3.853988
0.293500	-3.927345
0.293600	-3.991288
0.293700	-4.020825
0.293800	-4.051986
0.293900	-4.057504
0.294000	-4.073733
0.294100	-4.085743
0.294200	-4.086392
0.294300	-4.077628
0.294400	-4.075356
0.294500	-4.069838
0.294600	-4.065294
0.294700	-4.054258
0.294800	-4.044845
0.294900	-4.041924
0.295000	-4.042573
0.295100	-4.050687
0.295200	-4.052635
0.295300	-4.054258
0.295400	-4.065294
0.295500	-4.081848
0.295600	-4.113008
0.295700	-4.145791
0.295800	-4.260370
0.295900	-4.413575
0.296000	-4.489853
0.296100	-4.450902
0.296200	-4.362939
0.296300	-4.337946
0.296400	-4.421040
0.296500	-4.561586
0.296600	-4.659287
0.296700	-4.649874
0.296800	-4.577167
0.296900	-4.531075
0.297000	-4.535619
0.297100	-4.609950
0.297200	-4.669998
0.297300	-4.686228
0.297400	-4.664480
0.297500	-4.640786
0.297600	-4.654094
0.297700	-4.669998
0.297800	-4.678762
0.297900	-4.681684
0.298000	-4.676815
0.298100	-4.667726
0.298200	-4.664156
0.298300	-4.679736
0.298400	-4.651172
0.298500	-4.619038
0.298600	-4.608327
0.298700	-4.626179
0.298800	-4.639163
0.298900	-4.597616
0.299000	-4.513872
0.299100	-4.476220
0.299200	-4.519066
0.299300	-4.638838
0.299400	-4.719985
0.299500	-4.726152
0.299600	-4.653120
0.299700	-4.580088
0.299800	-4.599238
0.299900	-4.693044
0.300000	-4.813466
0.300100	-4.863777
0.300200	-4.848846
0.300300	-4.809896
0.300400	-4.790745
0.300500	-4.806974
0.300600	-4.839433
0.300700	-4.864751
0.300800	-4.867672
0.300900	-4.856636
0.301000	-4.834240
0.301100	-4.796912
0.301200	-4.742706
0.301300	-4.677789
0.301400	-4.617740
0.301500	-4.581062
0.301600	-4.538541
0.301700	-4.498292
0.301800	-4.429155
0.301900	-4.363264
0.302000	-4.283091
0.302100	-4.224990
0.302200	-4.197725
0.302300	-4.179223
0.302400	-4.168837
0.302500	-4.133457
0.302600	-4.100349
0.302700	-4.072110
0.302800	-4.058153
0.302900	-4.060100
0.303000	-4.074382
0.303100	-4.081848
0.303200	-4.096454
0.303300	-4.114955
0.303400	-4.113657
0.303500	-4.119824
0.303600	-4.113332
0.303700	-4.116903
0.303800	-4.126316
0.303900	-4.140273
0.304000	-4.124693
0.304100	-4.048740
0.304200	-3.910791
0.304300	-3.795238
0.304400	-3.822828
0.304500	-3.951040
0.304600	-3.991937
0.304700	-3.936758
0.304800	-3.783553
0.304900	-3.664106
0.305000	-3.627428
0.305100	-3.667027
0.305200	-3.706302
0.305300	-3.678388
0.305400	-3.600812
0.305500	-3.506682
0.305600	-3.447608
0.305700	-3.427159
0.305800	-3.418720
0.305900	-3.404438
0.306000	-3.371655
0.306100	-3.345039
0.306200	-3.310958
0.306300	-3.294079
0.306400	-3.280771
0.306500	-3.272981
0.306600	-3.274604
0.306700	-3.297000
0.306800	-3.335626
0.306900	-3.359645
0.307000	-3.349908
0.307100	-3.340170
0.307200	-3.333354
0.307300	-3.418720
0.307400	-3.516420
0.307500	-3.543036
0.307600	-3.484610
0.307700	-3.406061
0.307800	-3.383015
0.307900	-3.441116
0.308000	-3.541737
0.308100	-3.601786
0.308200	-3.575170
0.308300	-3.498568
0.308400	-3.443388
0.308500	-3.470004
0.308600	-3.540764
0.308700	-3.583284
0.308800	-3.606654
0.308900	-3.596917
0.309000	-3.597566
0.309100	-3.611199
0.309200	-3.645605
0.309300	-3.678712
0.309400	-3.707276
0.309500	-3.732593
0.309600	-3.757262
0.309700	-3.781930
0.309800	-3.784527
0.309900	-3.785825
0.310000	-3.804002
0.310100	-3.854313
0.310200	-3.925722
0.310300	-3.966944
0.310400	-3.976033
0.310500	-3.980901
0.310600	-3.983174
0.310700	-4.002324
0.310800	-4.008491
0.310900	-4.026668
0.311000	-4.032835
0.311100	-4.040950
0.311200	-4.052310
0.311300	-4.069189
0.311400	-4.084120
0.311500	-4.103595
0.311600	-4.127939
0.311700	-4.149037
0.311800	-4.170784
0.311900	-4.186364
0.312000	-4.203567
0.312100	-4.217525
0.312200	-4.230508
0.312300	-4.254852
0.312400	-4.294776
0.312500	-4.435647
0.312600	-4.567104
0.312700	-4.599563
0.312800	-4.531724
0.312900	-4.439866
0.313000	-4.447332
0.313100	-4.569376
0.313200	-4.716090
0.313300	-4.790096
0.313400	-4.758286
0.313500	-4.694018
0.313600	-4.674218
0.313700	-4.728100
0.313800	-4.817361
0.313900	-4.888770
0.314000	-4.895587
0.314100	-4.873190
0.314200	-4.862803
0.314300	-4.874164
0.314400	-4.880980
0.314500	-4.880656
0.314600	-4.874813
0.314700	-4.871892
0.314800	-4.874164
0.314900	-4.899157
0.315000	-4.911816
0.315100	-4.890069
0.315200	-4.876111
0.315300	-4.895262
0.315400	-4.922527
0.315500	-4.941029
0.315600	-4.888770
0.315700	-4.814764
0.315800	-4.799184
0.315900	-4.875138
0.316000	-4.985173
0.316100	-5.035484
0.316200	-5.002701
0.316300	-4.909544
0.316400	-4.847872
0.316500	-4.880980
0.316600	-4.977383
0.316700	-5.085471
0.316800	-5.106569
0.316900	-5.071838
0.317000	-5.022825
0.317100	-5.007894
0.317200	-5.020878
0.317300	-5.049117
0.317400	-5.069890
0.317500	-5.065671
0.317600	-5.054635
0.317700	-5.026720
0.317800	-4.982576
0.317900	-4.925124
0.318000	-4.856961
0.318100	-4.810545
0.318200	-4.762181
0.318300	-4.723880
0.318400	-4.662858
0.318500	-4.566455
0.318600	-4.474273
0.318700	-4.360667
0.318800	-4.285039
0.318900	-4.243816
0.319000	-4.192856
0.319100	-4.137027
0.319200	-4.075680
0.319300	-3.992586
0.319400	-3.914037
0.319500	-3.865673
0.319600	-3.831917
0.319700	-3.813740
0.319800	-3.787124
0.319900	-3.776088
0.320000	-3.754341
0.320100	-3.732269
0.320200	-3.713443
0.320300	-3.696889
0.320400	-3.699161
0.320500	-3.689424
0.320600	-3.697214
0.320700	-3.653395
0.320800	-3.573547
0.320900	-3.408333
0.321000	-3.344714
0.321100	-3.411254
0.321200	-3.525833
0.321300	-3.557317
0.321400	-3.465460
0.321500	-3.313230
0.321600	-3.221697
0.321700	-3.214556
0.321800	-3.282394
0.321900	-3.317449
0.322000	-3.301545
0.322100	-3.219100
0.322200	-3.140551
0.322300	-3.099978
0.322400	-3.110040
0.322500	-3.129515
0.322600	-3.126594
0.322700	-3.121400
0.322800	-3.111013
0.322900	-3.100302
0.323000	-3.100627
0.323100	-3.100627
0.323200	-3.121400
0.323300	-3.121725
0.323400	-3.168789
0.323500	-3.200274
0.323600	-3.239549
0.323700	-3.215205
0.323800	-3.209687
0.323900	-3.220074
0.324000	-3.325888
0.324100	-3.410605
0.324200	-3.423264
0.324300	-3.348285
0.324400	-3.298299
0.324500	-3.289535
0.324600	-3.379120
0.324700	-3.496945
0.324800	-3.547580
0.324900	-3.514797
0.325000	-3.442090
0.325100	-3.417097
0.325200	-3.457021
0.325300	-3.529728
0.325400	-3.588802
0.325500	-3.629700
0.325600	-3.622234
0.325700	-3.627103
0.325800	-3.649500
0.325900	-3.678388
0.326000	-3.723180
0.326100	-3.752393
0.326200	-3.775114
0.326300	-3.796537
0.326400	-3.803678
0.326500	-3.806924
0.326600	-3.817310
0.326700	-3.832566
0.326800	-3.894562
0.326900	-3.955259
0.327000	-3.993560
0.327100	-4.023098
0.327200	-4.036730
0.327300	-4.063346
0.327400	-4.095156
0.327500	-4.118850
0.327600	-4.138650
0.327700	-4.152283
0.327800	-4.165591
0.327900	-4.173056
0.328000	-4.178250
0.328100	-4.184417
0.328200	-4.187987
0.328300	-4.196751
0.328400	-4.206489
0.328500	-4.219148
0.328600	-4.242193
0.328700	-4.261993
0.328800	-4.296399
0.328900	-4.332428
0.329000	-4.380142
0.329100	-4.462912
0.329200	-4.631373
0.329300	-4.772893
0.329400	-4.798535
0.329500	-4.731021
0.329600	-4.677464
0.329700	-4.746601
0.329800	-4.904351
0.329900	-5.054310
0.330000	-5.111438
0.330100	-5.077680
0.330200	-5.018281
0.330300	-5.022501
0.330400	-5.098454
0.330500	-5.195181
0.330600	-5.263994
0.330700	-5.270161
0.330800	-5.265942
0.330900	-5.267240
0.331000	-5.282171
0.331100	-5.304568
0.331200	-5.327614
0.331300	-5.348063
0.331400	-5.357151
0.331500	-5.375653
0.331600	-5.412007
0.331700	-5.421420
0.331800	-5.410059
0.331900	-5.421744
0.332000	-5.448361
0.332100	-5.485364
0.332200	-5.477898
0.332300	-5.401295
0.332400	-5.334754
0.332500	-5.341246
0.332600	-5.431482
0.332700	-5.517823
0.332800	-5.536649
0.332900	-5.478872
0.333000	-5.394803
0.333100	-5.361371
0.333200	-5.407462
0.333300	-5.496724
0.333400	-5.568783
0.333500	-5.575599
0.333600	-5.529183
0.333700	-5.479196
0.333800	-5.455177
0.333900	-5.446738
0.334000	-5.446738
0.334100	-5.439597
0.334200	-5.423367
0.334300	-5.376951
0.334400	-5.313007
0.334500	-5.242896
0.334600	-5.152011
0.334700	-5.068267
0.334800	-5.007245
0.334900	-4.952065
0.335000	-4.894938
0.335100	-4.804702
0.335200	-4.690123
0.335300	-4.577491
0.335400	-4.461614
0.335500	-4.378844
0.335600	-4.306461
0.335700	-4.234403
0.335800	-4.156827
0.335900	-4.072110
0.336000	-3.982524
0.336100	-3.894237
0.336200	-3.828995
0.336300	-3.775114
0.336400	-3.731295
0.336500	-3.686827
0.336600	-3.667027
0.336700	-3.626129
0.336800	-3.592697
0.336900	-3.552449
0.337000	-3.540764
0.337100	-3.532000
0.337200	-3.556344
0.337300	-3.556344
0.337400	-3.529728
0.337500	-3.415474
0.337600	-3.299597
0.337700	-3.274279
0.337800	-3.396323
0.337900	-3.549203
0.338000	-3.558291
0.338100	-3.486882
0.338200	-3.378471
0.338300	-3.337249
0.338400	-3.380743
0.338500	-3.457994
0.338600	-3.502138
0.338700	-3.464486
0.338800	-3.397946
0.338900	-3.334003
0.339000	-3.307387
0.339100	-3.327836
0.339200	-3.339846
0.339300	-3.349908
0.339400	-3.352180
0.339500	-3.354127
0.339600	-3.351531
0.339700	-3.355101
0.339800	-3.350557
0.339900	-3.371006
0.340000	-3.408333
0.340100	-3.455398
0.340200	-3.500840
0.340300	-3.518367
0.340400	-3.494348
0.340500	-3.486882
0.340600	-3.521938
0.340700	-3.629700
0.340800	-3.684555
0.340900	-3.664106
0.341000	-3.569002
0.341100	-3.533947
0.341200	-3.545957
0.341300	-3.644306
0.341400	-3.717987
0.341500	-3.719610
0.341600	-3.659562
0.341700	-3.589776
0.341800	-3.594320
0.341900	-3.652421
0.342000	-3.701758
0.342100	-3.734216
0.342200	-3.750446
0.342300	-3.770570
0.342400	-3.811792
0.342500	-3.865673
0.342600	-3.925073
0.342700	-3.978305
0.342800	-4.034133
0.342900	-4.092559
0.343000	-4.139624
0.343100	-4.165591
0.343200	-4.179548
0.343300	-4.197076
0.343400	-4.220770
0.343500	-4.283416
0.343600	-4.341192
0.343700	-4.357746
0.343800	-4.357421
0.343900	-4.340543
0.344000	-4.341517
0.344100	-4.333727
0.344200	-4.328533
0.344300	-4.317173
0.344400	-4.306137
0.344500	-4.296399
0.344600	-4.294452
0.344700	-4.287635
0.344800	-4.286661
0.344900	-4.281793
0.345000	-4.286337
0.345100	-4.288284
0.345200	-4.288609
0.345300	-4.284389
0.345400	-4.283091
0.345500	-4.286986
0.345600	-4.296399
0.345700	-4.310032
0.345800	-4.398644
0.345900	-4.539190
0.346000	-4.634618
0.346100	-4.600537
0.346200	-4.507056
0.346300	-4.456096
0.346400	-4.541787
0.346500	-4.693693
0.346600	-4.814764
0.346700	-4.839108
0.346800	-4.785552
0.346900	-4.748873
0.347000	-4.774840
0.347100	-4.858908
0.347200	-4.955635
0.347300	-4.998481
0.347400	-5.010491
0.347500	-5.011465
0.347600	-5.045871
0.347700	-5.095533
0.347800	-5.133834
0.347900	-5.160450
0.348000	-5.174408
0.348100	-5.186418
0.348200	-5.220824
0.348300	-5.262696
0.348400	-5.262696
0.348500	-5.253932
0.348600	-5.252634
0.348700	-5.286066
0.348800	-5.317551
0.348900	-5.300673
0.349000	-5.209139
0.349100	-5.166293
0.349200	-5.207840
0.349300	-5.322096
0.349400	-5.411682
0.349500	-5.435377
0.349600	-5.368836
0.349700	-5.294505
0.349800	-5.291584
0.349900	-5.369161
0.350000	-5.472705
0.350100	-5.516524
0.350200	-5.483416
0.350300	-5.422393
0.350400	-5.380846
0.350500	-5.364617
0.350600	-5.358449
0.350700	-5.349686
0.350800	-5.326964
0.350900	-5.292233
0.351000	-5.251335
0.351100	-5.210437
0.351200	-5.157529
0.351300	-5.085471
0.351400	-5.016333
0.351500	-4.962452
0.351600	-4.926747
0.351700	-4.893964
0.351800	-4.822230
0.351900	-4.743031
0.352000	-4.639487
0.352100	-4.546006
0.352200	-4.480115
0.352300	-4.426234
0.352400	-4.368457
0.352500	-4.303215
0.352600	-4.224016
0.352700	-4.158125
0.352800	-4.107814
0.352900	-4.073733
0.353000	-4.055232
0.353100	-4.032835
0.353200	-4.025370
0.353300	-4.019203
0.353400	-4.009140
0.353500	-3.998754
0.353600	-3.990314
0.353700	-3.989665
0.353800	-4.014334
0.353900	-4.043871
0.354000	-4.062697
0.354100	-4.014334
0.354200	-3.922151
0.354300	-3.788422
0.354400	-3.832890
0.354500	-3.949417
0.354600	-4.063022
0.354700	-4.021799
0.354800	-3.921502
0.354900	-3.799133
0.355000	-3.769921
0.355100	-3.825100
0.355200	-3.886447
0.355300	-3.907870
0.355400	-3.844575
0.355500	-3.778035
0.355600	-3.718312
0.355700	-3.729023
0.355800	-3.745252
0.355900	-3.753367
0.356000	-3.738111
0.356100	-3.727075
0.356200	-3.720908
0.356300	-3.721558
0.356400	-3.724154
0.356500	-3.721882
0.356600	-3.730971
0.356700	-3.759209
0.356800	-3.803028
0.356900	-3.841330
0.357000	-3.842628
0.357100	-3.826723
0.357200	-3.820556
0.357300	-3.890991
0.357400	-3.998754
0.357500	-4.039002
0.357600	-4.002649
0.357700	-3.919230
0.357800	-3.888719
0.357900	-3.920853
0.358000	-4.026019
0.358100	-4.089638
0.358200	-4.069838
0.358300	-3.996482
0.358400	-3.930591
0.358500	-3.937407
0.358600	-3.988042
0.358700	-4.020176
0.358800	-4.042573
0.358900	-4.035432
0.359000	-4.023422
0.359100	-4.028940
0.359200	-4.052959
0.359300	-4.076005
0.359400	-4.086392
0.359500	-4.099375
0.359600	-4.116903
0.359700	-4.121447
0.359800	-4.115605
0.359900	-4.099375
0.360000	-4.094831
0.360100	-4.128913
0.360200	-4.190259
0.360300	-4.231482
0.360400	-4.244465
0.360500	-4.236351
0.360600	-4.228236
0.360700	-4.239272
0.360800	-4.247711
0.360900	-4.249659
0.361000	-4.244790
0.361100	-4.244790
0.361200	-4.239921
0.361300	-4.242842
0.361400	-4.244790
0.361500	-4.247062
0.361600	-4.243492
0.361700	-4.248360
0.361800	-4.249334
0.361900	-4.254852
0.362000	-4.265888
0.362100	-4.278222
0.362200	-4.286661
0.362300	-4.307760
0.362400	-4.347359
0.362500	-4.466482
0.362600	-4.617091
0.362700	-4.669025
0.362800	-4.608976
0.362900	-4.499266
0.363000	-4.478492
0.363100	-4.561262
0.363200	-4.704729
0.363300	-4.788148
0.363400	-4.773542
0.363500	-4.704729
0.363600	-4.668700
0.363700	-4.706677
0.363800	-4.792692
0.363900	-4.881305
0.364000	-4.917009
0.364100	-4.924475
0.364200	-4.928370
0.364300	-4.957908
0.364400	-5.008219
0.364500	-5.049441
0.364600	-5.085146
0.364700	-5.114359
0.364800	-5.140326
0.364900	-5.196480
0.365000	-5.251660
0.365100	-5.270811
0.365200	-5.285417
0.365300	-5.326315
0.365400	-5.380846
0.365500	-5.421744
0.365600	-5.397075
0.365700	-5.341246
0.365800	-5.336377
0.365900	-5.411682
0.366000	-5.548009
0.366100	-5.632403
0.366200	-5.645386
0.366300	-5.581117
0.366400	-5.522042
0.366500	-5.553203
0.366600	-5.648957
0.366700	-5.764186
0.366800	-5.808330
0.366900	-5.784310
0.367000	-5.732701
0.367100	-5.705760
0.367200	-5.711278
0.367300	-5.730429
0.367400	-5.730429
0.367500	-5.726858
0.367600	-5.709006
0.367700	-5.666809
0.367800	-5.618445
0.367900	-5.564888
0.368000	-5.498672
0.368100	-5.446413
0.368200	-5.399997
0.368300	-5.366889
0.368400	-5.315928
0.368500	-5.216929
0.368600	-5.112087
0.368700	-4.989717
0.368800	-4.904675
0.368900	-4.839758
0.369000	-4.780683
0.369100	-4.712844
0.369200	-4.632996
0.369300	-4.540813
0.369400	-4.467781
0.369500	-4.411303
0.369600	-4.378844
0.369700	-4.357746
0.369800	-4.342490
0.369900	-4.334700
0.370000	-4.322691
0.370100	-4.304514
0.370200	-4.288609
0.370300	-4.277898
0.370400	-4.262318
0.370500	-4.269134
0.370600	-4.271731
0.370700	-4.247387
0.370800	-4.157801
0.370900	-4.010439
0.371000	-3.911440
0.371100	-3.947469
0.371200	-4.085418
0.371300	-4.132808
0.371400	-4.083146
0.371500	-3.961426
0.371600	-3.877034
0.371700	-3.879955
0.371800	-3.952338
0.371900	-4.022773
0.372000	-4.013035
0.372100	-3.960777
0.372200	-3.890342
0.372300	-3.867296
0.372400	-3.869569
0.372500	-3.894886
0.372600	-3.886447
0.372700	-3.872490
0.372800	-3.853988
0.372900	-3.839382
0.373000	-3.823802
0.373100	-3.808546
0.373200	-3.797511
0.373300	-3.805950
0.373400	-3.812766
0.373500	-3.837110
0.373600	-3.838084
0.373700	-3.798809
0.373800	-3.760832
0.373900	-3.715715
0.374000	-3.773491
0.374100	-3.817959
0.374200	-3.800432
0.374300	-3.709548
0.374400	-3.602435
0.374500	-3.563809
0.374600	-3.609576
0.374700	-3.701758
0.374800	-3.735190
0.374900	-3.711820
0.375000	-3.643982
0.375100	-3.614444
0.375200	-3.664755
0.375300	-3.745901
0.375400	-3.808546
0.375500	-3.857234
0.375600	-3.882552
0.375700	-3.912738
0.375800	-3.954285
0.375900	-3.999727
0.376000	-4.041599
0.376100	-4.070487
0.376200	-4.110411
0.376300	-4.136703
0.376400	-4.147739
0.376500	-4.144817
0.376600	-4.135404
0.376700	-4.134106
0.376800	-4.164942
0.376900	-4.197725
0.377000	-4.212980
0.377100	-4.211682
0.377200	-4.190584
0.377300	-4.175653
0.377400	-4.171433
0.377500	-4.157152
0.377600	-4.140598
0.377700	-4.119175
0.377800	-4.104893
0.377900	-4.076330
0.378000	-4.056205
0.378100	-4.032186
0.378200	-4.016606
0.378300	-4.006868
0.378400	-3.999403
0.378500	-3.989665
0.378600	-3.985121
0.378700	-3.983174
0.378800	-3.992262
0.378900	-4.011412
0.379000	-4.020825
0.379100	-4.079576
0.379200	-4.210059
0.379300	-4.335999
0.379400	-4.362939
0.379500	-4.288284
0.379600	-4.221420
0.379700	-4.245764
0.379800	-4.381765
0.379900	-4.536269
0.380000	-4.604432
0.380100	-4.577491
0.380200	-4.526856
0.380300	-4.532049
0.380400	-4.611573
0.380500	-4.728749
0.380600	-4.809896
0.380700	-4.842030
0.380800	-4.855987
0.380900	-4.881305
0.381000	-4.941354
0.381100	-4.991989
0.381200	-5.043923
0.381300	-5.083848
0.381400	-5.123772
0.381500	-5.168241
0.381600	-5.225368
0.381700	-5.265617
0.381800	-5.282171
0.381900	-5.295804
0.382000	-5.336702
0.382100	-5.388312
0.382200	-5.398698
0.382300	-5.347089
0.382400	-5.272433
0.382500	-5.254256
0.382600	-5.323718
0.382700	-5.415252
0.382800	-5.434403
0.382900	-5.369161
0.383000	-5.244194
0.383100	-5.165319
0.383200	-5.177329
0.383300	-5.254581
0.383400	-5.307164
0.383500	-5.284119
0.383600	-5.214008
0.383700	-5.132860
0.383800	-5.087094
0.383900	-5.063074
0.384000	-5.049117
0.384100	-5.012763
0.384200	-4.967970
0.384300	-4.900780
0.384400	-4.826450
0.384500	-4.725503
0.384600	-4.614169
0.384700	-4.510626
0.384800	-4.430778
0.384900	-4.373975
0.385000	-4.326261
0.385100	-4.249659
0.385200	-4.138975
0.385300	-4.063022
0.385400	-3.976357
0.385500	-3.904299
0.385600	-3.852041
0.385700	-3.798160
0.385800	-3.728698
0.385900	-3.663132
0.386000	-3.600487
0.386100	-3.545632
0.386200	-3.512849
0.386300	-3.511551
0.386400	-3.505059
0.386500	-3.513498
0.386600	-3.529728
0.386700	-3.540764
0.386800	-3.543685
0.386900	-3.548554
0.387000	-3.569002
0.387100	-3.602110
0.387200	-3.640087
0.387300	-3.678388
0.387400	-3.669948
0.387500	-3.613795
0.387600	-3.482014
0.387700	-3.481040
0.387800	-3.575494
0.387900	-3.754341
0.388000	-3.782255
0.388100	-3.725777
0.388200	-3.602759
0.388300	-3.566406
0.388400	-3.626779
0.388500	-3.721882
0.388600	-3.796212
0.388700	-3.776412
0.388800	-3.721233
0.388900	-3.668001
0.389000	-3.662158
0.389100	-3.694292
0.389200	-3.717987
0.389300	-3.736488
0.389400	-3.742656
0.389500	-3.767324
0.389600	-3.780307
0.389700	-3.801081
0.389800	-3.834513
0.389900	-3.865998
0.390000	-3.921178
0.390100	-4.000052
0.390200	-4.072759
0.390300	-4.127939
0.390400	-4.138326
0.390500	-4.154555
0.390600	-4.207462
0.390700	-4.338595
0.390800	-4.436296
0.390900	-4.451227
0.391000	-4.388257
0.391100	-4.353851
0.391200	-4.379169
0.391300	-4.481413
0.391400	-4.585606
0.391500	-4.615468
0.391600	-4.558341
0.391700	-4.461614
0.391800	-4.433699
0.391900	-4.460315
0.392000	-4.518416
0.392100	-4.531075
0.392200	-4.526531
0.392300	-4.492774
0.392400	-4.477843
0.392500	-4.483686
0.392600	-4.508679
0.392700	-4.529452
0.392800	-4.544383
0.392900	-4.557042
0.393000	-4.564183
0.393100	-4.556393
0.393200	-4.535944
0.393300	-4.526206
0.393400	-4.523934
0.393500	-4.559963
0.393600	-4.591773
0.393700	-4.595019
0.393800	-4.565157
0.393900	-4.524259
0.394000	-4.518092
0.394100	-4.508679
0.394200	-4.495046
0.394300	-4.475895
0.394400	-4.458043
0.394500	-4.437270
0.394600	-4.418768
0.394700	-4.400267
0.394800	-4.383064
0.394900	-4.366185
0.395000	-4.358071
0.395100	-4.347035
0.395200	-4.340543
0.395300	-4.339894
0.395400	-4.346385
0.395500	-4.365211
0.395600	-4.395398
0.395700	-4.430129
0.395800	-4.518092
0.395900	-4.657989
0.396000	-4.773866
0.396100	-4.759909
0.396200	-4.673894
0.396300	-4.612871
0.396400	-4.669674
0.396500	-4.821905
0.396600	-4.953039
0.396700	-4.999455
0.396800	-4.947196
0.396900	-4.886498
0.397000	-4.887797
0.397100	-4.956285
0.397200	-5.046520
0.397300	-5.093585
0.397400	-5.079628
0.397500	-5.054310
0.397600	-5.045222
0.397700	-5.047169
0.397800	-5.050091
0.397900	-5.050415
0.398000	-5.044573
0.398100	-5.031264
0.398200	-5.034186
0.398300	-5.061451
0.398400	-5.068592
0.398500	-5.055933
0.398600	-5.057881
0.398700	-5.090339
0.398800	-5.128316
0.398900	-5.126369
0.399000	-5.065995
0.399100	-5.023150
0.399200	-5.058530
0.399300	-5.184470
0.399400	-5.293207
0.399500	-5.342220
0.399600	-5.300348
0.399700	-5.226666
0.399800	-5.219850
0.399900	-5.314305
0.400000	-5.446738
0.400100	-5.548659
0.400200	-5.574626
0.400300	-5.553203
0.400400	-5.533078
0.400500	-5.546062
0.400600	-5.580468
0.400700	-5.618445
0.400800	-5.641166
0.400900	-5.645711
0.401000	-5.623314
0.401100	-5.578845
0.401200	-5.517498
0.401300	-5.446413
0.401400	-5.385066
0.401500	-5.334105
0.401600	-5.296778
0.401700	-5.264319
0.401800	-5.189014
0.401900	-5.097156
0.402000	-5.022176
0.402100	-4.907921
0.402200	-4.827099
0.402300	-4.763155
0.402400	-4.694018
0.402500	-4.614819
0.402600	-4.529128
0.402700	-4.438243
0.402800	-4.368782
0.402900	-4.308733
0.403000	-4.271406
0.403100	-4.237324
0.403200	-4.213305
0.403300	-4.185715
0.403400	-4.152932
0.403500	-4.111060
0.403600	-4.082821
0.403700	-4.047117
0.403800	-4.051661
0.403900	-4.040301
0.404000	-4.040301
0.404100	-3.983174
0.404200	-3.869244
0.404300	-3.728698
0.404400	-3.713118
0.404500	-3.844575
0.404600	-3.944223
0.404700	-3.962400
0.404800	-3.845225
0.404900	-3.736164
0.405000	-3.684879
0.405100	-3.733243
0.405200	-3.817959
0.405300	-3.841979
0.405400	-3.794589
0.405500	-3.704030
0.405600	-3.632621
0.405700	-3.610874
0.405800	-3.618664
0.405900	-3.618664
0.406000	-3.599189
0.406100	-3.575170
0.406200	-3.552124
0.406300	-3.540114
0.406400	-3.527780
0.406500	-3.528429
0.406600	-3.522911
0.406700	-3.553747
0.406800	-3.592697
0.406900	-3.637490
0.407000	-3.644955
0.407100	-3.635867
0.407200	-3.623857
0.407300	-3.679686
0.407400	-3.793291
0.407500	-3.863077
0.407600	-3.834838
0.407700	-3.749147
0.407800	-3.714417
0.407900	-3.743954
0.408000	-3.874113
0.408100	-3.964997
0.408200	-3.978629
0.408300	-3.906571
0.408400	-3.833864
0.408500	-3.839382
0.408600	-3.901378
0.408700	-3.961102
0.408800	-3.984796
0.408900	-3.982849
0.409000	-3.962400
0.409100	-3.969216
0.409200	-3.994209
0.409300	-4.032835
0.409400	-4.047442
0.409500	-4.056530
0.409600	-4.059127
0.409700	-4.054907
0.409800	-4.036730
0.409900	-4.007842
0.410000	-3.989341
0.410100	-3.997455
0.410200	-4.040950
0.410300	-4.059776
0.410400	-4.057504
0.410500	-4.003622
0.410600	-3.975383
0.410700	-3.963698
0.410800	-3.945197
0.410900	-3.910791
0.411000	-3.878008
0.411100	-3.838408
0.411200	-3.805625
0.411300	-3.776088
0.411400	-3.745577
0.411500	-3.719285
0.411600	-3.696564
0.411700	-3.684879
0.411800	-3.667352
0.411900	-3.660860
0.412000	-3.655667
0.412100	-3.669624
0.412200	-3.687151
0.412300	-3.718961
0.412400	-3.760832
0.412500	-3.880929
0.412600	-4.044196
0.412700	-4.132158
0.412800	-4.108139
0.412900	-4.034133
0.413000	-4.022773
0.413100	-4.126965
0.413200	-4.308733
0.413300	-4.442788
0.413400	-4.458043
0.413500	-4.419417
0.413600	-4.400267
0.413700	-4.458692
0.413800	-4.570350
0.413900	-4.688500
0.414000	-4.763480
0.414100	-4.790745
0.414200	-4.803404
0.414300	-4.832941
0.414400	-4.879682
0.414500	-4.927396
0.414600	-4.969917
0.414700	-4.998481
0.414800	-5.025746
0.414900	-5.061127
0.415000	-5.132860
0.415100	-5.169539
0.415200	-5.198427
0.415300	-5.230562
0.415400	-5.296453
0.415500	-5.360722
0.415600	-5.385390
0.415700	-5.343843
0.415800	-5.331833
0.415900	-5.400646
0.416000	-5.543465
0.416100	-5.661291
0.416200	-5.700242
0.416300	-5.637921
0.416400	-5.573977
0.416500	-5.587609
0.416600	-5.696347
0.416700	-5.832674
0.416800	-5.904084
0.416900	-5.896294
0.417000	-5.861887
0.417100	-5.851501
0.417200	-5.885258
0.417300	-5.929078
0.417400	-5.956019
0.417500	-5.950176
0.417600	-5.928753
0.417700	-5.904409
0.417800	-5.868704
0.417900	-5.808006
0.418000	-5.729455
0.418100	-5.647009
0.418200	-5.585337
0.418300	-5.534377
0.418400	-5.485039
0.418500	-5.393830
0.418600	-5.288338
0.418700	-5.179277
0.418800	-5.049117
0.418900	-4.952714
0.419000	-4.863453
0.419100	-4.764778
0.419200	-4.660261
0.419300	-4.539190
0.419400	-4.411952
0.419500	-4.310032
0.419600	-4.226613
0.419700	-4.154555
0.419800	-4.078602
0.419900	-4.017255
0.420000	-3.952987
0.420100	-3.891316
0.420200	-3.823802
0.420300	-3.771544
0.420400	-3.721882
0.420500	-3.691696
0.420600	-3.651772
0.420700	-3.618664
0.420800	-3.521288
0.420900	-3.375225
0.421000	-3.247988
0.421100	-3.272332
0.421200	-3.400867
0.421300	-3.493050
0.421400	-3.448906
0.421500	-3.339846
0.421600	-3.238575
0.421700	-3.235978
0.421800	-3.318423
0.421900	-3.402166
0.422000	-3.426510
0.422100	-3.394376
0.422200	-3.343416
0.422300	-3.320370
0.422400	-3.335626
0.422500	-3.374576
0.422600	-3.429106
0.422700	-3.459293
0.422800	-3.470329
0.422900	-3.481365
0.423000	-3.498568
0.423100	-3.516744
0.423200	-3.561862
0.423300	-3.603084
0.423400	-3.648850
0.423500	-3.707276
0.423600	-3.763754
0.423700	-3.799133
0.423800	-3.816012
0.423900	-3.826723
0.424000	-3.901702
0.424100	-4.019203
0.424200	-4.078277
0.424300	-4.039976
0.424400	-3.969216
0.424500	-3.938705
0.424600	-4.002324
0.424700	-4.126965
0.424800	-4.200646
0.424900	-4.192531
0.425000	-4.123395
0.425100	-4.088664
0.425200	-4.120149
0.425300	-4.195777
0.425400	-4.251606
0.425500	-4.285688
0.425600	-4.297697
0.425700	-4.331130
0.425800	-4.382415
0.425900	-4.441489
0.426000	-4.496669
0.426100	-4.537892
0.426200	-4.579114
0.426300	-4.618714
0.426400	-4.658963
0.426500	-4.667077
0.426600	-4.677139
0.426700	-4.686228
0.426800	-4.725503
0.426900	-4.790745
0.427000	-4.837486
0.427100	-4.856636
0.427200	-4.828397
0.427300	-4.829371
0.427400	-4.843977
0.427500	-4.850794
0.427600	-4.856312
0.427700	-4.856636
0.427800	-4.859233
0.427900	-4.857285
0.428000	-4.860531
0.428100	-4.863453
0.428200	-4.863777
0.428300	-4.866698
0.428400	-4.857285
0.428500	-4.862803
0.428600	-4.861830
0.428700	-4.869620
0.428800	-4.861505
0.428900	-4.868646
0.429000	-4.883252
0.429100	-4.923501
0.429200	-5.030291
0.429300	-5.149090
0.429400	-5.167591
0.429500	-5.068592
0.429600	-4.965048
0.429700	-4.929344
0.429800	-5.019579
0.429900	-5.143572
0.430000	-5.194532
0.430100	-5.153310
0.430200	-5.068267
0.430300	-5.013737
0.430400	-5.036133
0.430500	-5.088716
0.430600	-5.135457
0.430700	-5.128316
0.430800	-5.105595
0.430900	-5.067294
0.431000	-5.042300
0.431100	-5.023150
0.431200	-5.003025
0.431300	-4.980953
0.431400	-4.967970
0.431500	-4.959530
0.431600	-4.960504
0.431700	-4.966347
0.431800	-4.957258
0.431900	-4.946547
0.432000	-4.951416
0.432100	-4.976409
0.432200	-4.993612
0.432300	-4.960180
0.432400	-4.884875
0.432500	-4.868321
0.432600	-4.941678
0.432700	-5.068592
0.432800	-5.159477
0.432900	-5.156555
0.433000	-5.080602
0.433100	-5.033861
0.433200	-5.080602
0.433300	-5.198103
0.433400	-5.293856
0.433500	-5.319174
0.433600	-5.280224
0.433700	-5.239975
0.433800	-5.229912
0.433900	-5.246142
0.434000	-5.246466
0.434100	-5.220499
0.434200	-5.192585
0.434300	-5.160126
0.434400	-5.125070
0.434500	-5.079303
0.434600	-4.999455
0.434700	-4.918308
0.434800	-4.865725
0.434900	-4.833915
0.435000	-4.820932
0.435100	-4.782955
0.435200	-4.698887
0.435300	-4.633969
0.435400	-4.548928
0.435500	-4.482712
0.435600	-4.425909
0.435700	-4.376897
0.435800	-4.311655
0.435900	-4.245114
0.436000	-4.171433
0.436100	-4.110087
0.436200	-4.063346
0.436300	-4.039002
0.436400	-4.019852
0.436500	-4.013035
0.436600	-4.001675
0.436700	-3.987069
0.436800	-3.982200
0.436900	-3.961102
0.437000	-3.962075
0.437100	-3.950390
0.437200	-3.956882
0.437300	-3.956233
0.437400	-3.923450
0.437500	-3.823477
0.437600	-3.651772
0.437700	-3.582635
0.437800	-3.603733
0.437900	-3.725777
0.438000	-3.738111
0.438100	-3.639762
0.438200	-3.507656
0.438300	-3.396648
0.438400	-3.405412
0.438500	-3.454099
0.438600	-3.511226
0.438700	-3.483637
0.438800	-3.416123
0.438900	-3.348285
0.439000	-3.311607
0.439100	-3.316151
0.439200	-3.324590
0.439300	-3.333354
0.439400	-3.335951
0.439500	-3.331406
0.439600	-3.323941
0.439700	-3.326538
0.439800	-3.336924
0.439900	-3.362242
0.440000	-3.398271
0.440100	-3.435273
0.440200	-3.493699
0.440300	-3.543685
0.440400	-3.553747
0.440500	-3.566081
0.440600	-3.587504
0.440700	-3.702082
0.440800	-3.818933
0.440900	-3.863726
0.441000	-3.810169
0.441100	-3.758560
0.441200	-3.772193
0.441300	-3.870542
0.441400	-3.999727
0.441500	-4.055556
0.441600	-4.021150
0.441700	-3.952013
0.441800	-3.953312
0.441900	-4.035432
0.442000	-4.130211
0.442100	-4.183768
0.442200	-4.209410
0.442300	-4.219797
0.442400	-4.262967
0.442500	-4.328533
0.442600	-4.391828
0.442700	-4.438893
0.442800	-4.455771
0.442900	-4.476545
0.443000	-4.486931
0.443100	-4.482387
0.443200	-4.472650
0.443300	-4.464210
0.443400	-4.455771
0.443500	-4.497318
0.443600	-4.533997
0.443700	-4.553472
0.443800	-4.548278
0.443900	-4.538216
0.444000	-4.513548
0.444100	-4.499590
0.444200	-4.469404
0.444300	-4.442463
0.444400	-4.406109
0.444500	-4.381765
0.444600	-4.352877
0.444700	-4.319769
0.444800	-4.292179
0.444900	-4.266213
0.445000	-4.237000
0.445100	-4.212656
0.445200	-4.178574
0.445300	-4.157152
0.445400	-4.128263
0.445500	-4.115280
0.445600	-4.107814
0.445700	-4.107490
0.445800	-4.150984
0.445900	-4.274652
0.446000	-4.386634
0.446100	-4.389555
0.446200	-4.293802
0.446300	-4.216226
0.446400	-4.247387
0.446500	-4.385011
0.446600	-4.519390
0.446700	-4.573272
0.446800	-4.526856
0.446900	-4.473948
0.447000	-4.478492
0.447100	-4.550226
0.447200	-4.648251
0.447300	-4.709598
0.447400	-4.729073
0.447500	-4.714792
0.447600	-4.722582
0.447700	-4.736863
0.447800	-4.762830
0.447900	-4.780683
0.448000	-4.794315
0.448100	-4.796912
0.448200	-4.802105
0.448300	-4.829695
0.448400	-4.857285
0.448500	-4.855662
0.448600	-4.843328
0.448700	-4.855662
0.448800	-4.879682
0.448900	-4.899482
0.449000	-4.852741
0.449100	-4.782306
0.449200	-4.786525
0.449300	-4.887472
0.449400	-4.995884
0.449500	-5.049766
0.449600	-5.000429
0.449700	-4.894613
0.449800	-4.853715
0.449900	-4.913439
0.450000	-5.028992
0.450100	-5.110464
0.450200	-5.102025
0.450300	-5.050415
0.450400	-5.009842
0.450500	-5.020878
0.450600	-5.054635
0.450700	-5.076058
0.450800	-5.075084
0.450900	-5.067294
0.451000	-5.054310
0.451100	-5.040028
0.451200	-5.003674
0.451300	-4.941678
0.451400	-4.871567
0.451500	-4.824502
0.451600	-4.780358
0.451700	-4.735890
0.451800	-4.665130
0.451900	-4.562236
0.452000	-4.451227
0.452100	-4.317173
0.452200	-4.223367
0.452300	-4.139949
0.452400	-4.056530
0.452500	-3.965321
0.452600	-3.872814
0.452700	-3.766350
0.452800	-3.687801
0.452900	-3.623857
0.453000	-3.582310
0.453100	-3.539141
0.453200	-3.512525
0.453300	-3.487856
0.453400	-3.459293
0.453500	-3.447283
0.453600	-3.416772
0.453700	-3.418395
0.453800	-3.419044
0.453900	-3.441441
0.454000	-3.442090
0.454100	-3.437870
0.454200	-3.325888
0.454300	-3.231759
0.454400	-3.208064
0.454500	-3.340495
0.454600	-3.490128
0.454700	-3.511876
0.454800	-3.440142
0.454900	-3.329134
0.455000	-3.300571
0.455100	-3.357698
0.455200	-3.449231
0.455300	-3.494997
0.455400	-3.462214
0.455500	-3.399569
0.455600	-3.345039
0.455700	-3.338547
0.455800	-3.356075
0.455900	-3.383015
0.456000	-3.401841
0.456100	-3.406061
0.456200	-3.408658
0.456300	-3.420343
0.456400	-3.439169
0.456500	-3.475197
0.456600	-3.524534
0.456700	-3.570625
0.456800	-3.626779
0.456900	-3.687151
0.457000	-3.736488
0.457100	-3.747524
0.457200	-3.761806
0.457300	-3.796861
0.457400	-3.927345
0.457500	-4.019203
0.457600	-4.024071
0.457700	-3.954285
0.457800	-3.896185
0.457900	-3.928968
0.458000	-4.050038
0.458100	-4.156178
0.458200	-4.181171
0.458300	-4.110411
0.458400	-4.043871
0.458500	-4.045169
0.458600	-4.117227
0.458700	-4.190584
0.458800	-4.209085
0.458900	-4.209735
0.459000	-4.202269
0.459100	-4.237649
0.459200	-4.276924
0.459300	-4.306786
0.459400	-4.315874
0.459500	-4.337297
0.459600	-4.360343
0.459700	-4.387283
0.459800	-4.401890
0.459900	-4.395073
0.460000	-4.394424
0.460100	-4.409031
0.460200	-4.476545
0.460300	-4.544059
0.460400	-4.572298
0.460500	-4.589501
0.460600	-4.589825
0.460700	-4.607678
0.460800	-4.618714
0.460900	-4.621310
0.461000	-4.621960
0.461100	-4.623258
0.461200	-4.620661
0.461300	-4.615468
0.461400	-4.612222
0.461500	-4.608002
0.461600	-4.598589
0.461700	-4.592098
0.461800	-4.581386
0.461900	-4.565481
0.462000	-4.558990
0.462100	-4.545682
0.462200	-4.533023
0.462300	-4.531400
0.462400	-4.542436
0.462500	-4.605081
0.462600	-4.735240
0.462700	-4.825476
0.462800	-4.779384
0.462900	-4.654094
0.463000	-4.572298
0.463100	-4.627153
0.463200	-4.754067
0.463300	-4.860856
0.463400	-4.857935
0.463500	-4.780034
0.463600	-4.701483
0.463700	-4.702457
0.463800	-4.775165
0.463900	-4.864751
0.464000	-4.906947
0.464100	-4.902078
0.464200	-4.890718
0.464300	-4.896885
0.464400	-4.919282
0.464500	-4.941354
0.464600	-4.964075
0.464700	-4.975760
0.464800	-4.999130
0.464900	-5.009517
0.465000	-5.040677
0.465100	-5.053012
0.465200	-5.065022
0.465300	-5.074110
0.465400	-5.087743
0.465500	-5.106244
0.465600	-5.086444
0.465700	-5.002701
0.465800	-4.941354
0.465900	-4.946222
0.466000	-5.019904
0.466100	-5.102349
0.466200	-5.110788
0.466300	-5.018281
0.466400	-4.913764
0.466500	-4.887472
0.466600	-4.975111
0.466700	-5.092612
0.466800	-5.152011
0.466900	-5.137405
0.467000	-5.087418
0.467100	-5.065671
0.467200	-5.079953
0.467300	-5.121824
0.467400	-5.159152
0.467500	-5.181549
0.467600	-5.186742
0.467700	-5.174083
0.467800	-5.162723
0.467900	-5.140975
0.468000	-5.093585
0.468100	-5.050740
0.468200	-5.023150
0.468300	-5.011465
0.468400	-4.994586
0.468500	-4.936160
0.468600	-4.854364
0.468700	-4.758611
0.468800	-4.659612
0.468900	-4.590799
0.469000	-4.533672
0.469100	-4.468755
0.469200	-4.396372
0.469300	-4.303865
0.469400	-4.204541
0.469500	-4.127939
0.469600	-4.064969
0.469700	-4.024396
0.469800	-3.970515
0.469900	-3.930266
0.470000	-3.884175
0.470100	-3.842303
0.470200	-3.793940
0.470300	-3.759209
0.470400	-3.740383
0.470500	-3.723830
0.470600	-3.725128
0.470700	-3.703705
0.470800	-3.644306
0.470900	-3.498568
0.471000	-3.374252
0.471100	-3.377173
0.471200	-3.512200
0.471300	-3.626454
0.471400	-3.610874
0.471500	-3.486882
0.471600	-3.362242
0.471700	-3.324915
0.471800	-3.391455
0.471900	-3.477794
0.472000	-3.506033
0.472100	-3.456696
0.472200	-3.382042
0.472300	-3.331731
0.472400	-3.334328
0.472500	-3.362566
0.472600	-3.390481
0.472700	-3.389182
0.472800	-3.373278
0.472900	-3.352829
0.473000	-3.353154
0.473100	-3.356724
0.473200	-3.366462
0.473300	-3.398271
0.473400	-3.447283
0.473500	-3.478119
0.473600	-3.530701
0.473700	-3.558616
0.473800	-3.594645
0.473900	-3.608277
0.474000	-3.700459
0.474100	-3.825100
0.474200	-3.908194
0.474300	-3.907870
0.474400	-3.857559
0.474500	-3.823802
0.474600	-3.880929
0.474700	-4.017904
0.474800	-4.106516
0.474900	-4.115280
0.475000	-4.057179
0.475100	-4.012386
0.475200	-4.023098
0.475300	-4.079251
0.475400	-4.125667
0.475500	-4.139299
0.475600	-4.123395
0.475700	-4.112683
0.475800	-4.119824
0.475900	-4.144168
0.476000	-4.173056
0.476100	-4.197725
0.476200	-4.219797
0.476300	-4.241869
0.476400	-4.249983
0.476500	-4.224666
0.476600	-4.190909
0.476700	-4.159424
0.476800	-4.157152
0.476900	-4.185066
0.477000	-4.184417
0.477100	-4.147414
0.477200	-4.084120
0.477300	-4.050363
0.477400	-4.039976
0.477500	-4.020176
0.477600	-4.003298
0.477700	-3.979278
0.477800	-3.954610
0.477900	-3.930266
0.478000	-3.917283
0.478100	-3.900404
0.478200	-3.884499
0.478300	-3.877034
0.478400	-3.878008
0.478500	-3.887096
0.478600	-3.897807
0.478700	-3.908194
0.478800	-3.925073
0.478900	-3.946820
0.479000	-3.984796
0.479100	-4.030238
0.479200	-4.149686
0.479300	-4.296724
0.479400	-4.377221
0.479500	-4.310032
0.479600	-4.212656
0.479700	-4.185391
0.479800	-4.294452
0.479900	-4.460964
0.480000	-4.553147
0.480100	-4.542436
0.480200	-4.469404
0.480300	-4.436620
0.480400	-4.485958
0.480500	-4.590150
0.480600	-4.682657
0.480700	-4.723880
0.480800	-4.734916
0.480900	-4.732644
0.481000	-4.756663
0.481100	-4.792692
0.481200	-4.828722
0.481300	-4.861180
0.481400	-4.886823
0.481500	-4.924800
0.481600	-4.964075
0.481700	-5.011789
0.481800	-5.023474
0.481900	-5.043274
0.482000	-5.076707
0.482100	-5.132536
0.482200	-5.175706
0.482300	-5.171811
0.482400	-5.113710
0.482500	-5.111438
0.482600	-5.187067
0.482700	-5.318200
0.482800	-5.438298
0.482900	-5.453554
0.483000	-5.399348
0.483100	-5.359099
0.483200	-5.397075
0.483300	-5.514901
0.483400	-5.642140
0.483500	-5.713550
0.483600	-5.718743
0.483700	-5.695373
0.483800	-5.703163
0.483900	-5.726209
0.484000	-5.749904
0.484100	-5.764511
0.484200	-5.762888
0.484300	-5.756720
0.484400	-5.726534
0.484500	-5.675898
0.484600	-5.590855
0.484700	-5.482767
0.484800	-5.393180
0.484900	-5.326640
0.485000	-5.261073
0.485100	-5.184795
0.485200	-5.047818
0.485300	-4.931291
0.485400	-4.799184
0.485500	-4.688175
0.485600	-4.589825
0.485700	-4.493099
0.485800	-4.396372
0.485900	-4.300294
0.486000	-4.203892
0.486100	-4.110736
0.486200	-4.044196
0.486300	-3.980901
0.486400	-3.939679
0.486500	-3.891316
0.486600	-3.871191
0.486700	-3.839707
0.486800	-3.804651
0.486900	-3.770570
0.487000	-3.738111
0.487100	-3.714741
0.487200	-3.707600
0.487300	-3.704030
0.487400	-3.684230
0.487500	-3.596917
0.487600	-3.452152
0.487700	-3.323292
0.487800	-3.371979
0.487900	-3.490778
0.488000	-3.575819
0.488100	-3.477470
0.488200	-3.340170
0.488300	-3.226566
0.488400	-3.221048
0.488500	-3.300246
0.488600	-3.369707
0.488700	-3.375225
0.488800	-3.305764
0.488900	-3.245067
0.489000	-3.222671
0.489100	-3.243444
0.489200	-3.269735
0.489300	-3.292132
0.489400	-3.304466
0.489500	-3.312580
0.489600	-3.322643
0.489700	-3.342118
0.489800	-3.349583
0.489900	-3.365812
0.490000	-3.394700
0.490100	-3.457021
0.490200	-3.488181
0.490300	-3.534272
0.490400	-3.519990
0.490500	-3.518692
0.490600	-3.512525
0.490700	-3.607628
0.490800	-3.719935
0.490900	-3.750446
0.491000	-3.724479
0.491100	-3.637165
0.491200	-3.619962
0.491300	-3.698837
0.491400	-3.813740
0.491500	-3.869569
0.491600	-3.846848
0.491700	-3.764078
0.491800	-3.727400
0.491900	-3.764403
0.492000	-3.833215
0.492100	-3.866972
0.492200	-3.877034
0.492300	-3.865673
0.492400	-3.880280
0.492500	-3.915660
0.492600	-3.964023
0.492700	-4.006219
0.492800	-4.031212
0.492900	-4.063671
0.493000	-4.098077
0.493100	-4.119175
0.493200	-4.125667
0.493300	-4.122096
0.493400	-4.116903
0.493500	-4.130536
0.493600	-4.186689
0.493700	-4.225639
0.493800	-4.242842
0.493900	-4.259721
0.494000	-4.264265
0.494100	-4.266537
0.494200	-4.270108
0.494300	-4.267511
0.494400	-4.249983
0.494500	-4.242193
0.494600	-4.231157
0.494700	-4.220121
0.494800	-4.202918
0.494900	-4.191233
0.495000	-4.174355
0.495100	-4.168512
0.495200	-4.154230
0.495300	-4.139299
0.495400	-4.113332
0.495500	-4.100998
0.495600	-4.087690
0.495700	-4.095156
0.495800	-4.110411
0.495900	-4.218823
0.496000	-4.323340
0.496100	-4.328209
0.496200	-4.221095
0.496300	-4.098726
0.496400	-4.090287
0.496500	-4.208761
0.496600	-4.350930
0.496700	-4.408706
0.496800	-4.363264
0.496900	-4.280170
0.497000	-4.251606
0.497100	-4.318146
0.497200	-4.410004
0.497300	-4.476220
0.497400	-4.483036
0.497500	-4.476220
0.497600	-4.468430
0.497700	-4.498292
0.497800	-4.532698
0.497900	-4.560288
0.498000	-4.575868
0.498100	-4.576193
0.498200	-4.594694
0.498300	-4.623907
0.498400	-4.649874
0.498500	-4.643058
0.498600	-4.635268
0.498700	-4.649874
0.498800	-4.677139
0.498900	-4.690447
0.499000	-4.643707
0.499100	-4.580088
0.499200	-4.585606
0.499300	-4.655067
0.499400	-4.772893
0.499500	-4.842354
0.499600	-4.814115
0.499700	-4.737837
0.499800	-4.692395
0.499900	-4.740109
0.500000	-4.849171
0.500100	-4.950442
0.500200	-4.983550
0.500300	-4.956285
0.500400	-4.929019
0.500500	-4.938432
0.500600	-4.966996
0.500700	-5.001078
0.500800	-5.020553
0.500900	-5.034186
0.501000	-5.036458
0.501100	-5.031589
0.501200	-5.013737
0.501300	-4.968619
0.501400	-4.920255
0.501500	-4.898833
0.501600	-4.889095
0.501700	-4.886498
0.501800	-4.853715
0.501900	-4.787824
0.502000	-4.737188
0.502100	-4.647927
0.502200	-4.595668
0.502300	-4.552498
0.502400	-4.499266
0.502500	-4.439866
0.502600	-4.365861
0.502700	-4.280819
0.502800	-4.212007
0.502900	-4.146116
0.503000	-4.101647
0.503100	-4.055556
0.503200	-4.015308
0.503300	-3.986744
0.503400	-3.943249
0.503500	-3.912738
0.503600	-3.860156
0.503700	-3.839707
0.503800	-3.793940
0.503900	-3.798484
0.504000	-3.759859
0.504100	-3.726102
0.504200	-3.592697
0.504300	-3.432677
0.504400	-3.337573
0.504500	-3.383015
0.504600	-3.493050
0.504700	-3.479092
0.504800	-3.358996
0.504900	-3.188589
0.505000	-3.072388
0.505100	-3.065572
0.505200	-3.106794
0.505300	-3.130813
0.505400	-3.050316
0.505500	-2.941580
0.505600	-2.824406
0.505700	-2.765656
0.505800	-2.732224
0.505900	-2.713398
0.506000	-2.690353
0.506100	-2.642314
0.506200	-2.597197
0.506300	-2.548509
0.506400	-2.525464
0.506500	-2.490084
0.506600	-2.495278
0.506700	-2.513779
0.506800	-2.544290
0.506900	-2.573178
0.507000	-2.596548
0.507100	-2.586810
0.507200	-2.595574
0.507300	-2.620892
0.507400	-2.724758
0.507500	-2.812396
0.507600	-2.836091
0.507700	-2.785456
0.507800	-2.731899
0.507900	-2.745532
0.508000	-2.851995
0.508100	-2.965600
0.508200	-2.990593
0.508300	-2.958783
0.508400	-2.901657
0.508500	-2.903929
0.508600	-2.968846
0.508700	-3.039605
0.508800	-3.075958
0.508900	-3.097056
0.509000	-3.112312
0.509100	-3.165868
0.509200	-3.243119
0.509300	-3.326862
0.509400	-3.392428
0.509500	-3.450854
0.509600	-3.515446
0.509700	-3.585232
0.509800	-3.638464
0.509900	-3.679361
0.510000	-3.706951
0.510100	-3.751095
0.510200	-3.847497
0.510300	-3.941302
0.510400	-3.999403
0.510500	-4.010763
0.510600	-4.022448
0.510700	-4.068540
0.510800	-4.103595
0.510900	-4.136703
0.511000	-4.167863
0.511100	-4.193505
0.511200	-4.217525
0.511300	-4.226938
0.511400	-4.234728
0.511500	-4.245114
0.511600	-4.255826
0.511700	-4.274652
0.511800	-4.286661
0.511900	-4.299645
0.512000	-4.301592
0.512100	-4.307110
0.512200	-4.302891
0.512300	-4.315550
0.512400	-4.325936
0.512500	-4.382739
0.512600	-4.515820
0.512700	-4.604107
0.512800	-4.577491
0.512900	-4.457719
0.513000	-4.362615
0.513100	-4.385985
0.513200	-4.521013
0.513300	-4.651822
0.513400	-4.677139
0.513500	-4.620986
0.513600	-4.564832
0.513700	-4.581711
0.513800	-4.684929
0.513900	-4.790420
0.514000	-4.855338
0.514100	-4.860207
0.514200	-4.850469
0.514300	-4.853066
0.514400	-4.877734
0.514500	-4.895262
0.514600	-4.909219
0.514700	-4.906623
0.514800	-4.902728
0.514900	-4.917983
0.515000	-4.921554
0.515100	-4.919606
0.515200	-4.902078
0.515300	-4.882279
0.515400	-4.890393
0.515500	-4.906623
0.515600	-4.903701
0.515700	-4.828722
0.515800	-4.764778
0.515900	-4.762181
0.516000	-4.834564
0.516100	-4.922203
0.516200	-4.951416
0.516300	-4.861830
0.516400	-4.751145
0.516500	-4.698238
0.516600	-4.738811
0.516700	-4.810220
0.516800	-4.844626
0.516900	-4.796263
0.517000	-4.708624
0.517100	-4.643707
0.517200	-4.603783
0.517300	-4.589501
0.517400	-4.561262
0.517500	-4.509003
0.517600	-4.458043
0.517700	-4.413899
0.517800	-4.369431
0.517900	-4.305163
0.518000	-4.213630
0.518100	-4.122421
0.518200	-4.063671
0.518300	-4.022124
0.518400	-3.987069
0.518500	-3.914686
0.518600	-3.813415
0.518700	-3.728698
0.518800	-3.628726
0.518900	-3.563160
0.519000	-3.502787
0.519100	-3.437870
0.519200	-3.360619
0.519300	-3.288561
0.519400	-3.202546
0.519500	-3.139901
0.519600	-3.100951
0.519700	-3.079529
0.519800	-3.060378
0.519900	-3.057782
0.520000	-3.049018
0.520100	-3.048693
0.520200	-3.036359
0.520300	-3.048369
0.520400	-3.048693
0.520500	-3.077257
0.520600	-3.104522
0.520700	-3.137305
0.520800	-3.110689
0.520900	-3.026297
0.521000	-2.926650
0.521100	-2.932817
0.521200	-3.089266
0.521300	-3.228513
0.521400	-3.261945
0.521500	-3.184045
0.521600	-3.084398
0.521700	-3.069791
0.521800	-3.144121
0.521900	-3.247988
0.522000	-3.297000
0.522100	-3.254155
0.522200	-3.179501
0.522300	-3.113610
0.522400	-3.110689
0.522500	-3.121076
0.522600	-3.146393
0.522700	-3.140875
0.522800	-3.116207
0.522900	-3.100302
0.523000	-3.099653
0.523100	-3.104197
0.523200	-3.097706
0.523300	-3.103873
0.523400	-3.138279
0.523500	-3.153209
0.523600	-3.194756
0.523700	-3.217802
0.523800	-3.220398
0.523900	-3.211635
0.524000	-3.246690
0.524100	-3.357698
0.524200	-3.429756
0.524300	-3.424887
0.524400	-3.365812
0.524500	-3.309659
0.524600	-3.348285
0.524700	-3.459942
0.524800	-3.546606
0.524900	-3.547580
0.525000	-3.486882
0.525100	-3.432677
0.525200	-3.427808
0.525300	-3.497918
0.525400	-3.561862
0.525500	-3.590101
0.525600	-3.595943
0.525700	-3.598540
0.525800	-3.625156
0.525900	-3.668650
0.526000	-3.713118
0.526100	-3.733567
0.526200	-3.751419
0.526300	-3.764727
0.526400	-3.773491
0.526500	-3.765377
0.526600	-3.744928
0.526700	-3.717338
0.526800	-3.724803
0.526900	-3.770570
0.527000	-3.801081
0.527100	-3.808871
0.527200	-3.814064
0.527300	-3.794265
0.527400	-3.802704
0.527500	-3.796212
0.527600	-3.788098
0.527700	-3.774790
0.527800	-3.769272
0.527900	-3.759209
0.528000	-3.746551
0.528100	-3.729997
0.528200	-3.716689
0.528300	-3.699810
0.528400	-3.692020
0.528500	-3.682607
0.528600	-3.672545
0.528700	-3.665729
0.528800	-3.663132
0.528900	-3.674817
0.529000	-3.685529
0.529100	-3.711820
0.529200	-3.809845
0.529300	-3.956882
0.529400	-4.045819
0.529500	-3.997780
0.529600	-3.904948
0.529700	-3.861129
0.529800	-3.957856
0.529900	-4.110411
0.530000	-4.208761
0.530100	-4.205190
0.530200	-4.137676
0.530300	-4.100349
0.530400	-4.127614
0.530500	-4.223692
0.530600	-4.298022
0.530700	-4.340867
0.530800	-4.337946
0.530900	-4.320743
0.531000	-4.314901
0.531100	-4.330156
0.531200	-4.344438
0.531300	-4.348333
0.531400	-4.341841
0.531500	-4.343140
0.531600	-4.348982
0.531700	-4.356448
0.531800	-4.345736
0.531900	-4.335999
0.532000	-4.327235
0.532100	-4.332428
0.532200	-4.327884
0.532300	-4.296399
0.532400	-4.201620
0.532500	-4.144817
0.532600	-4.150335
0.532700	-4.222069
0.532800	-4.286986
0.532900	-4.261344
0.533000	-4.155529
0.533100	-4.058153
0.533200	-4.040625
0.533300	-4.093857
0.533400	-4.180522
0.533500	-4.214279
0.533600	-4.186364
0.533700	-4.134755
0.533800	-4.111385
0.533900	-4.117877
0.534000	-4.131834
0.534100	-4.140598
0.534200	-4.140598
0.534300	-4.136703
0.534400	-4.113008
0.534500	-4.072110
0.534600	-4.012711
0.534700	-3.933512
0.534800	-3.865673
0.534900	-3.820556
0.535000	-3.772193
0.535100	-3.722207
0.535200	-3.619962
0.535300	-3.514148
0.535400	-3.401192
0.535500	-3.322967
0.535600	-3.264542
0.535700	-3.207090
0.535800	-3.146718
0.535900	-3.075309
0.536000	-2.996760
0.536100	-2.923404
0.536200	-2.867575
0.536300	-2.832845
0.536400	-2.814344
0.536500	-2.796167
0.536600	-2.787079
0.536700	-2.774420
0.536800	-2.759164
0.536900	-2.725083
0.537000	-2.710152
0.537100	-2.685159
0.537200	-2.694897
0.537300	-2.683212
0.537400	-2.665035
0.537500	-2.579994
0.537600	-2.426141
0.537700	-2.285597
0.537800	-2.283649
0.537900	-2.405693
0.538000	-2.478399
0.538100	-2.431659
0.538200	-2.295010
0.538300	-2.185625
0.538400	-2.184327
0.538500	-2.265473
0.538600	-2.359277
0.538700	-2.379401
0.538800	-2.332661
0.538900	-2.289816
0.539000	-2.267096
0.539100	-2.285272
0.539200	-2.304098
0.539300	-2.329740
0.539400	-2.339802
0.539500	-2.353435
0.539600	-2.380051
0.539700	-2.407640
0.539800	-2.431335
0.539900	-2.443669
0.540000	-2.502419
0.540100	-2.565063
0.540200	-2.654973
0.540300	-2.726706
0.540400	-2.758191
0.540500	-2.773771
0.540600	-2.800062
0.540700	-2.885752
0.540800	-3.022077
0.540900	-3.084073
0.541000	-3.071739
0.541100	-2.997409
0.541200	-2.987996
0.541300	-3.067844
0.541400	-3.199950
0.541500	-3.284666
0.541600	-3.290184
0.541700	-3.221372
0.541800	-3.177553
0.541900	-3.222021
0.542000	-3.304790
0.542100	-3.352504
0.542200	-3.378147
0.542300	-3.379120
0.542400	-3.388209
0.542500	-3.433326
0.542600	-3.483637
0.542700	-3.521938
0.542800	-3.552124
0.542900	-3.592048
0.543000	-3.629700
0.543100	-3.666378
0.543200	-3.684879
0.543300	-3.684879
0.543400	-3.688774
0.543500	-3.721233
0.543600	-3.777386
0.543700	-3.808871
0.543800	-3.812766
0.543900	-3.808871
0.544000	-3.790694
0.544100	-3.776737
0.544200	-3.751744
0.544300	-3.718961
0.544400	-3.681634
0.544500	-3.641710
0.544600	-3.600163
0.544700	-3.570301
0.544800	-3.534596
0.544900	-3.502463
0.545000	-3.479092
0.545100	-3.458319
0.545200	-3.437870
0.545300	-3.424238
0.545400	-3.412877
0.545500	-3.406385
0.545600	-3.421316
0.545700	-3.440467
0.545800	-3.486882
0.545900	-3.611523
0.546000	-3.777062
0.546100	-3.835487
0.546200	-3.779983
0.546300	-3.696240
0.546400	-3.710846
0.546500	-3.860156
0.546600	-4.049064
0.546700	-4.169161
0.546800	-4.166240
0.546900	-4.103919
0.547000	-4.103595
0.547100	-4.176627
0.547200	-4.301592
0.547300	-4.397345
0.547400	-4.435647
0.547500	-4.415847
0.547600	-4.410978
0.547700	-4.409355
0.547800	-4.429155
0.547900	-4.435322
0.548000	-4.430453
0.548100	-4.418768
0.548200	-4.425260
0.548300	-4.443761
0.548400	-4.454797
0.548500	-4.429480
0.548600	-4.408381
0.548700	-4.405136
0.548800	-4.420716
0.548900	-4.415847
0.549000	-4.366834
0.549100	-4.268485
0.549200	-4.237649
0.549300	-4.285688
0.549400	-4.388257
0.549500	-4.470053
0.549600	-4.437594
0.549700	-4.345087
0.549800	-4.275950
0.549900	-4.292179
0.550000	-4.398644
0.550100	-4.518416
0.550200	-4.561262
0.550300	-4.520364
0.550400	-4.458692
0.550500	-4.438893
0.550600	-4.460964
0.550700	-4.489853
0.550800	-4.497967
0.550900	-4.489853
0.551000	-4.467781
0.551100	-4.443112
0.551200	-4.405136
0.551300	-4.350930
0.551400	-4.294776
0.551500	-4.249009
0.551600	-4.218823
0.551700	-4.206489
0.551800	-4.176627
0.551900	-4.101972
0.552000	-4.037379
0.552100	-3.939679
0.552200	-3.876060
0.552300	-3.830618
0.552400	-3.786150
0.552500	-3.738761
0.552600	-3.677089
0.552700	-3.592697
0.552800	-3.524534
0.552900	-3.472601
0.553000	-3.437221
0.553100	-3.420343
0.553200	-3.388858
0.553300	-3.375550
0.553400	-3.330108
0.553500	-3.300246
0.553600	-3.262919
0.553700	-3.226566
0.553800	-3.204494
0.553900	-3.185019
0.554000	-3.179176
0.554100	-3.131138
0.554200	-3.041228
0.554300	-2.856215
0.554400	-2.769551
0.554500	-2.825704
0.554600	-2.966573
0.554700	-3.017533
0.554800	-2.944826
0.554900	-2.799737
0.555000	-2.691975
0.555100	-2.698792
0.555200	-2.772797
0.555300	-2.824081
0.555400	-2.807203
0.555500	-2.711450
0.555600	-2.632252
0.555700	-2.576424
0.555800	-2.579345
0.555900	-2.582266
0.556000	-2.594600
0.556100	-2.596872
0.556200	-2.578696
0.556300	-2.561493
0.556400	-2.547211
0.556500	-2.534877
0.556600	-2.526113
0.556700	-2.544290
0.556800	-2.559221
0.556900	-2.580319
0.557000	-2.586486
0.557100	-2.564739
0.557200	-2.528710
0.557300	-2.517674
0.557400	-2.588109
0.557500	-2.664710
0.557600	-2.682238
0.557700	-2.627708
0.557800	-2.528061
0.557900	-2.504042
0.558000	-2.570581
0.558100	-2.694248
0.558200	-2.759813
0.558300	-2.736443
0.558400	-2.671202
0.558500	-2.637770
0.558600	-2.690677
0.558700	-2.780587
0.558800	-2.853943
0.558900	-2.901332
0.559000	-2.909771
0.559100	-2.925351
0.559200	-2.954888
0.559300	-2.991566
0.559400	-3.023376
0.559500	-3.056808
0.559600	-3.092188
0.559700	-3.127243
0.559800	-3.142498
0.559900	-3.151262
0.560000	-3.152885
0.560100	-3.160026
0.560200	-3.211635
0.560300	-3.280447
0.560400	-3.319397
0.560500	-3.336600
0.560600	-3.321993
0.560700	-3.327187
0.560800	-3.330757
0.560900	-3.324590
0.561000	-3.309335
0.561100	-3.299272
0.561200	-3.282719
0.561300	-3.271683
0.561400	-3.259349
0.561500	-3.252532
0.561600	-3.250909
0.561700	-3.249611
0.561800	-3.245391
0.561900	-3.248313
0.562000	-3.254804
0.562100	-3.262919
0.562200	-3.284666
0.562300	-3.308036
0.562400	-3.341793
0.562500	-3.430405
0.562600	-3.587504
0.562700	-3.733243
0.562800	-3.749147
0.562900	-3.671247
0.563000	-3.589451
0.563100	-3.625156
0.563200	-3.765701
0.563300	-3.906571
0.563400	-3.952338
0.563500	-3.895860
0.563600	-3.813740
0.563700	-3.783878
0.563800	-3.828995
0.563900	-3.911115
0.564000	-3.958830
0.564100	-3.952013
0.564200	-3.930915
0.564300	-3.909493
0.564400	-3.902676
0.564500	-3.904299
0.564600	-3.899106
0.564700	-3.896834
0.564800	-3.890342
0.564900	-3.901053
0.565000	-3.916309
0.565100	-3.914686
0.565200	-3.897158
0.565300	-3.885149
0.565400	-3.898457
0.565500	-3.917283
0.565600	-3.898457
0.565700	-3.825425
0.565800	-3.736488
0.565900	-3.727075
0.566000	-3.782580
0.566100	-3.884499
0.566200	-3.932214
0.566300	-3.886122
0.566400	-3.800756
0.566500	-3.746551
0.566600	-3.788098
0.566700	-3.900404
0.566800	-3.988691
0.566900	-4.006219
0.567000	-3.973761
0.567100	-3.944548
0.567200	-3.945522
0.567300	-3.961751
0.567400	-3.985770
0.567500	-3.998429
0.567600	-4.015308
0.567700	-4.015957
0.567800	-4.007193
0.567900	-3.987718
0.568000	-3.939679
0.568100	-3.890991
0.568200	-3.853339
0.568300	-3.833864
0.568400	-3.825749
0.568500	-3.786150
0.568600	-3.705653
0.568700	-3.626454
0.568800	-3.528105
0.568900	-3.471302
0.569000	-3.421641
0.569100	-3.368084
0.569200	-3.294728
0.569300	-3.215530
0.569400	-3.125944
0.569500	-3.053887
0.569600	-2.978583
0.569700	-2.924702
0.569800	-2.867575
0.569900	-2.828950
0.570000	-2.789026
0.570100	-2.747479
0.570200	-2.701713
0.570300	-2.663737
0.570400	-2.630629
0.570500	-2.595574
0.570600	-2.592328
0.570700	-2.565063
0.570800	-2.533903
0.570900	-2.395631
0.571000	-2.260604
0.571100	-2.174589
0.571200	-2.290790
0.571300	-2.420299
0.571400	-2.438800
0.571500	-2.339153
0.571600	-2.207048
0.571700	-2.153816
0.571800	-2.210618
0.571900	-2.313186
0.572000	-2.365444
0.572100	-2.344671
0.572200	-2.289167
0.572300	-2.255411
0.572400	-2.263525
0.572500	-2.298256
0.572600	-2.311888
0.572700	-2.324222
0.572800	-2.328442
0.572900	-2.337855
0.573000	-2.343373
0.573100	-2.350838
0.573200	-2.340451
0.573300	-2.341101
0.573400	-2.364471
0.573500	-2.399526
0.573600	-2.429063
0.573700	-2.439125
0.573800	-2.416404
0.573900	-2.390437
0.574000	-2.403096
0.574100	-2.492032
0.574200	-2.543965
0.574300	-2.529359
0.574400	-2.445616
0.574500	-2.351163
0.574600	-2.350838
0.574700	-2.424519
0.574800	-2.506638
0.574900	-2.514753
0.575000	-2.448213
0.575100	-2.366094
0.575200	-2.346943
0.575300	-2.394008
0.575400	-2.453731
0.575500	-2.482294
0.575600	-2.484891
0.575700	-2.461846
0.575800	-2.473855
0.575900	-2.498199
0.576000	-2.527736
0.576100	-2.557598
0.576200	-2.579020
0.576300	-2.612128
0.576400	-2.648806
0.576500	-2.663412
0.576600	-2.667307
0.576700	-2.666982
0.576800	-2.683212
0.576900	-2.730601
0.577000	-2.768577
0.577100	-2.795842
0.577200	-2.815966
0.577300	-2.833494
0.577400	-2.852644
0.577500	-2.864654
0.577600	-2.877637
0.577700	-2.885427
0.577800	-2.898086
0.577900	-2.911719
0.578000	-2.923079
0.578100	-2.933790
0.578200	-2.953266
0.578300	-2.974039
0.578400	-2.990593
0.578500	-3.015586
0.578600	-3.037982
0.578700	-3.054860
0.578800	-3.073362
0.578900	-3.105171
0.579000	-3.147367
0.579100	-3.195405
0.579200	-3.294079
0.579300	-3.470004
0.579400	-3.591399
0.579500	-3.584258
0.579600	-3.491751
0.579700	-3.447608
0.579800	-3.530701
0.579900	-3.690722
0.580000	-3.825100
0.580100	-3.847497
0.580200	-3.785825
0.580300	-3.738436
0.580400	-3.756613
0.580500	-3.837110
0.580600	-3.927020
0.580700	-3.969216
0.580800	-3.958180
0.580900	-3.941302
0.581000	-3.939354
0.581100	-3.949417
0.581200	-3.969865
0.581300	-3.981551
0.581400	-3.973111
0.581500	-3.969216
0.581600	-3.978305
0.581700	-3.981875
0.581800	-3.959154
0.581900	-3.912089
0.582000	-3.881254
0.582100	-3.870218
0.582200	-3.858533
0.582300	-3.817635
0.582400	-3.705004
0.582500	-3.613146
0.582600	-3.602435
0.582700	-3.658263
0.582800	-3.726426
0.582900	-3.718961
0.583000	-3.626779
0.583100	-3.510902
0.583200	-3.463837
0.583300	-3.495646
0.583400	-3.577442
0.583500	-3.619962
0.583600	-3.584258
0.583700	-3.499217
0.583800	-3.430405
0.583900	-3.385937
0.584000	-3.373927
0.584100	-3.355750
0.584200	-3.335951
0.584300	-3.302843
0.584400	-3.249936
0.584500	-3.189238
0.584600	-3.119777
0.584700	-3.043175
0.584800	-2.982803
0.584900	-2.940282
0.585000	-2.927948
0.585100	-2.916588
0.585200	-2.876988
0.585300	-2.825704
0.585400	-2.784482
0.585500	-2.744883
0.585600	-2.740663
0.585700	-2.738716
0.585800	-2.738716
0.585900	-2.738716
0.586000	-2.730926
0.586100	-2.718916
0.586200	-2.742286
0.586300	-2.775393
0.586400	-2.829599
0.586500	-2.883805
0.586600	-2.944502
0.586700	-3.004550
0.586800	-3.033438
0.586900	-3.073037
0.587000	-3.100302
0.587100	-3.129515
0.587200	-3.164245
0.587300	-3.198002
0.587400	-3.209038
0.587500	-3.177553
0.587600	-3.044798
0.587700	-2.945151
0.587800	-2.930220
0.587900	-3.059405
0.588000	-3.150613
0.588100	-3.118479
0.588200	-2.971442
0.588300	-2.839012
0.588400	-2.790649
0.588500	-2.819212
0.588600	-2.873093
0.588700	-2.867900
0.588800	-2.795842
0.588900	-2.693598
0.589000	-2.639068
0.589100	-2.614400
0.589200	-2.610505
0.589300	-2.600443
0.589400	-2.589082
0.589500	-2.574152
0.589600	-2.568634
0.589700	-2.568958
0.589800	-2.561168
0.589900	-2.545588
0.590000	-2.557598
0.590100	-2.588433
0.590200	-2.640367
0.590300	-2.677045
0.590400	-2.668281
0.590500	-2.633550
0.590600	-2.613751
0.590700	-2.637121
0.590800	-2.733847
0.590900	-2.757217
0.591000	-2.716644
0.591100	-2.605636
0.591200	-2.547536
0.591300	-2.562142
0.591400	-2.638419
0.591500	-2.683861
0.591600	-2.656271
0.591700	-2.568634
0.591800	-2.499173
0.591900	-2.516376
0.592000	-2.571879
0.592100	-2.601741
0.592200	-2.612452
0.592300	-2.602390
0.592400	-2.606935
0.592500	-2.624462
0.592600	-2.659842
0.592700	-2.673474
0.592800	-2.670553
0.592900	-2.682887
0.593000	-2.708854
0.593100	-2.726057
0.593200	-2.723460
0.593300	-2.712749
0.593400	-2.698467
0.593500	-2.710477
0.593600	-2.767279
0.593700	-2.806878
0.593800	-2.830573
0.593900	-2.842258
0.594000	-2.845504
0.594100	-2.849723
0.594200	-2.850697
0.594300	-2.854267
0.594400	-2.847451
0.594500	-2.845828
0.594600	-2.840635
0.594700	-2.833169
0.594800	-2.828950
0.594900	-2.817589
0.595000	-2.809475
0.595100	-2.799088
0.595200	-2.792596
0.595300	-2.783508
0.595400	-2.780262
0.595500	-2.777666
0.595600	-2.781236
0.595700	-2.790000
0.595800	-2.818563
0.595900	-2.920483
0.596000	-3.068168
0.596100	-3.119128
0.596200	-3.056159
0.596300	-2.942554
0.596400	-2.920807
0.596500	-3.012664
0.596600	-3.174632
0.596700	-3.266489
0.596800	-3.253506
0.596900	-3.193782
0.597000	-3.171062
0.597100	-3.229487
0.597200	-3.326862
0.597300	-3.411903
0.597400	-3.436572
