LabVIEW Measurement	
Writer_Version	2
Reader_Version	2
Separator	Tab
Decimal_Separator	.
Multi_Headings	Yes
X_Columns	One
Time_Pref	Relative
Operator	as989
Description	Time Domain Data
Date	1903/12/31
Time	19:00:00
***End_of_Header***	
	
Channels	1	
Samples	15000	
Date	1903/12/31	
Time	19:00:00	
X_Dimension	Time	
X0	0.0000000000000000E+0	
Delta_X	0.000100	
***End_of_Header***		
X_Value	Untitled	Comment
0.000000	-1.910379	Tare Values:0.000000, 0.000000, 0.000000, 0.000000\0D\0A
0.000100	-1.935372
0.000200	-2.063582
0.000300	-2.163554
0.000400	-2.173616
0.000500	-2.106102
0.000600	-2.046055
0.000700	-2.058389
0.000800	-2.137587
0.000900	-2.225549
0.001000	-2.259630
0.001100	-2.272289
0.001200	-2.262551
0.001300	-2.273587
0.001400	-2.303124
0.001500	-2.327468
0.001600	-2.338829
0.001700	-2.359277
0.001800	-2.376805
0.001900	-2.417378
0.002000	-2.460223
0.002100	-2.493979
0.002200	-2.511182
0.002300	-2.547211
0.002400	-2.593302
0.002500	-2.654648
0.002600	-2.686133
0.002700	-2.657570
0.002800	-2.627059
0.002900	-2.671202
0.003000	-2.780587
0.003100	-2.907175
0.003200	-2.957485
0.003300	-2.905552
0.003400	-2.835766
0.003500	-2.821160
0.003600	-2.884129
0.003700	-2.976636
0.003800	-3.039280
0.003900	-3.025648
0.004000	-2.964301
0.004100	-2.909771
0.004200	-2.895814
0.004300	-2.887700
0.004400	-2.867251
0.004500	-2.825055
0.004600	-2.777016
0.004700	-2.730601
0.004800	-2.678668
0.004900	-2.615698
0.005000	-2.534877
0.005100	-2.432958
0.005200	-2.350514
0.005300	-2.286571
0.005400	-2.227496
0.005500	-2.134341
0.005600	-2.022360
0.005700	-1.899018
0.005800	-1.789309
0.005900	-1.716603
0.006000	-1.649414
0.006100	-1.584173
0.006200	-1.513414
0.006300	-1.442655
0.006400	-1.365405
0.006500	-1.312173
0.006600	-1.272899
0.006700	-1.255696
0.006800	-1.230378
0.006900	-1.214149
0.007000	-1.206359
0.007100	-1.191429
0.007200	-1.177147
0.007300	-1.160269
0.007400	-1.161567
0.007500	-1.157672
0.007600	-1.174550
0.007700	-1.165462
0.007800	-1.131705
0.007900	-1.015830
0.008000	-0.895085
0.008100	-0.882102
0.008200	-0.977529
0.008300	-1.090808
0.008400	-1.067114
0.008500	-0.961949
0.008600	-0.843477
0.008700	-0.791868
0.008800	-0.844450
0.008900	-0.901577
0.009000	-0.921701
0.009100	-0.861329
0.009200	-0.785052
0.009300	-0.719811
0.009400	-0.698388
0.009500	-0.699687
0.009600	-0.691897
0.009700	-0.678264
0.009800	-0.645482
0.009900	-0.628603
0.010000	-0.617892
0.010100	-0.613997
0.010200	-0.606207
0.010300	-0.612374
0.010400	-0.655868
0.010500	-0.691897
0.010600	-0.741882
0.010700	-0.769796
0.010800	-0.775314
0.010900	-0.780832
0.011000	-0.822054
0.011100	-0.950264
0.011200	-1.024269
0.011300	-1.045691
0.011400	-0.996355
0.011500	-0.956756
0.011600	-1.000899
0.011700	-1.118398
0.011800	-1.216421
0.011900	-1.227133
0.012000	-1.182340
0.012100	-1.137548
0.012200	-1.163190
0.012300	-1.230054
0.012400	-1.292698
0.012500	-1.317367
0.012600	-1.325806
0.012700	-1.319639
0.012800	-1.348851
0.012900	-1.385529
0.013000	-1.426102
0.013100	-1.422856
0.013200	-1.420584
0.013300	-1.434541
0.013400	-1.450445
0.013500	-1.455963
0.013600	-1.452717
0.013700	-1.444603
0.013800	-1.458560
0.013900	-1.505624
0.014000	-1.554961
0.014100	-1.575085
0.014200	-1.593911
0.014300	-1.591314
0.014400	-1.602025
0.014500	-1.607868
0.014600	-1.615333
0.014700	-1.619228
0.014800	-1.618254
0.014900	-1.616632
0.015000	-1.619877
0.015100	-1.631238
0.015200	-1.636431
0.015300	-1.652011
0.015400	-1.669214
0.015500	-1.689663
0.015600	-1.716278
0.015700	-1.741596
0.015800	-1.765290
0.015900	-1.790932
0.016000	-1.819820
0.016100	-1.862665
0.016200	-1.963610
0.016300	-2.125577
0.016400	-2.198933
0.016500	-2.163554
0.016600	-2.057415
0.016700	-2.029501
0.016800	-2.107725
0.016900	-2.256384
0.017000	-2.355707
0.017100	-2.357330
0.017200	-2.300203
0.017300	-2.258981
0.017400	-2.295659
0.017500	-2.388165
0.017600	-2.474829
0.017700	-2.512805
0.017800	-2.529034
0.017900	-2.534228
0.018000	-2.549483
0.018100	-2.579020
0.018200	-2.606610
0.018300	-2.635822
0.018400	-2.645235
0.018500	-2.674773
0.018600	-2.700415
0.018700	-2.730601
0.018800	-2.748778
0.018900	-2.748128
0.019000	-2.752673
0.019100	-2.786105
0.019200	-2.803632
0.019300	-2.789351
0.019400	-2.716644
0.019500	-2.678992
0.019600	-2.721513
0.019700	-2.821484
0.019800	-2.921456
0.019900	-2.934115
0.020000	-2.867251
0.020100	-2.798439
0.020200	-2.798439
0.020300	-2.870497
0.020400	-2.956187
0.020500	-2.994163
0.020600	-2.959433
0.020700	-2.898411
0.020800	-2.867251
0.020900	-2.867251
0.021000	-2.870821
0.021100	-2.863031
0.021200	-2.835766
0.021300	-2.805904
0.021400	-2.771174
0.021500	-2.724758
0.021600	-2.650753
0.021700	-2.565712
0.021800	-2.483917
0.021900	-2.416404
0.022000	-2.360576
0.022100	-2.308318
0.022200	-2.218408
0.022300	-2.122007
0.022400	-2.016193
0.022500	-1.919467
0.022600	-1.846436
0.022700	-1.777949
0.022800	-1.710111
0.022900	-1.629615
0.023000	-1.541653
0.023100	-1.452717
0.023200	-1.377414
0.023300	-1.324507
0.023400	-1.274522
0.023500	-1.226808
0.023600	-1.188183
0.023700	-1.148908
0.023800	-1.105090
0.023900	-1.067114
0.024000	-1.031734
0.024100	-1.007066
0.024200	-0.997978
0.024300	-0.994732
0.024400	-0.988240
0.024500	-0.928517
0.024600	-0.796412
0.024700	-0.703582
0.024800	-0.731171
0.024900	-0.880154
0.025000	-0.980126
0.025100	-0.942149
0.025200	-0.833090
0.025300	-0.741882
0.025400	-0.746427
0.025500	-0.823352
0.025600	-0.914885
0.025700	-0.922675
0.025800	-0.875286
0.025900	-0.813615
0.026000	-0.787648
0.026100	-0.805500
0.026200	-0.824002
0.026300	-0.838932
0.026400	-0.837959
0.026500	-0.831142
0.026600	-0.825300
0.026700	-0.840555
0.026800	-0.860030
0.026900	-0.853863
0.027000	-0.888918
0.027100	-0.926570
0.027200	-0.976880
0.027300	-1.016479
0.027400	-1.027839
0.027500	-1.019075
0.027600	-1.015830
0.027700	-1.060622
0.027800	-1.173901
0.027900	-1.213500
0.028000	-1.196946
0.028100	-1.108336
0.028200	-1.076202
0.028300	-1.130732
0.028400	-1.247906
0.028500	-1.322560
0.028600	-1.311849
0.028700	-1.244660
0.028800	-1.193051
0.028900	-1.221939
0.029000	-1.297567
0.029100	-1.352746
0.029200	-1.368326
0.029300	-1.354044
0.029400	-1.339438
0.029500	-1.361185
0.029600	-1.399161
0.029700	-1.431944
0.029800	-1.436813
0.029900	-1.439409
0.030000	-1.446226
0.030100	-1.450445
0.030200	-1.449796
0.030300	-1.446226
0.030400	-1.439409
0.030500	-1.461481
0.030600	-1.515362
0.030700	-1.545548
0.030800	-1.553013
0.030900	-1.551066
0.031000	-1.551066
0.031100	-1.562751
0.031200	-1.565347
0.031300	-1.576059
0.031400	-1.583849
0.031500	-1.592937
0.031600	-1.598779
0.031700	-1.615982
0.031800	-1.627343
0.031900	-1.635133
0.032000	-1.648765
0.032100	-1.663047
0.032200	-1.674732
0.032300	-1.689338
0.032400	-1.706216
0.032500	-1.717901
0.032600	-1.734455
0.032700	-1.755228
0.032800	-1.803591
0.032900	-1.933424
0.033000	-2.071697
0.033100	-2.124604
0.033200	-2.051897
0.033300	-1.960689
0.033400	-1.957119
0.033500	-2.085005
0.033600	-2.248270
0.033700	-2.334284
0.033800	-2.326819
0.033900	-2.258656
0.034000	-2.239831
0.034100	-2.293387
0.034200	-2.392060
0.034300	-2.466065
0.034400	-2.496252
0.034500	-2.488786
0.034600	-2.483268
0.034700	-2.496901
0.034800	-2.526438
0.034900	-2.550457
0.035000	-2.564414
0.035100	-2.571555
0.035200	-2.585187
0.035300	-2.611154
0.035400	-2.629331
0.035500	-2.630954
0.035600	-2.629006
0.035700	-2.635498
0.035800	-2.647507
0.035900	-2.656271
0.036000	-2.608233
0.036100	-2.523517
0.036200	-2.490409
0.036300	-2.534877
0.036400	-2.632577
0.036500	-2.704634
0.036600	-2.674773
0.036700	-2.579345
0.036800	-2.490409
0.036900	-2.486189
0.037000	-2.572204
0.037100	-2.669579
0.037200	-2.697169
0.037300	-2.651727
0.037400	-2.582591
0.037500	-2.550132
0.037600	-2.547211
0.037700	-2.566037
0.037800	-2.573178
0.037900	-2.568309
0.038000	-2.547860
0.038100	-2.505664
0.038200	-2.465741
0.038300	-2.390113
0.038400	-2.307344
0.038500	-2.248594
0.038600	-2.212566
0.038700	-2.183678
0.038800	-2.142456
0.038900	-2.052546
0.039000	-1.992174
0.039100	-1.938618
0.039200	-1.865911
0.039300	-1.806188
0.039400	-1.746789
0.039500	-1.690961
0.039600	-1.623772
0.039700	-1.541653
0.039800	-1.471219
0.039900	-1.412469
0.040000	-1.375467
0.040100	-1.344307
0.040200	-1.321911
0.040300	-1.309252
0.040400	-1.282312
0.040500	-1.249529
0.040600	-1.217395
0.040700	-1.191104
0.040800	-1.178445
0.040900	-1.181691
0.041000	-1.191104
0.041100	-1.170006
0.041200	-1.096975
0.041300	-0.939877
0.041400	-0.871391
0.041500	-0.929491
0.041600	-1.069710
0.041700	-1.117099
0.041800	-1.045691
0.041900	-0.898006
0.042000	-0.823677
0.042100	-0.811018
0.042200	-0.895085
0.042300	-0.935009
0.042400	-0.924622
0.042500	-0.848670
0.042600	-0.772718
0.042700	-0.727925
0.042800	-0.724355
0.042900	-0.724355
0.043000	-0.731171
0.043100	-0.735391
0.043200	-0.733768
0.043300	-0.731171
0.043400	-0.725653
0.043500	-0.726302
0.043600	-0.724355
0.043700	-0.759085
0.043800	-0.791868
0.043900	-0.831142
0.044000	-0.849968
0.044100	-0.839582
0.044200	-0.825949
0.044300	-0.838283
0.044400	-0.927219
0.044500	-1.019400
0.044600	-1.033032
0.044700	-0.998951
0.044800	-0.916183
0.044900	-0.918455
0.045000	-0.996030
0.045100	-1.111257
0.045200	-1.164813
0.045300	-1.152803
0.045400	-1.087887
0.045500	-1.066140
0.045600	-1.120670
0.045700	-1.191104
0.045800	-1.235247
0.045900	-1.258617
0.046000	-1.263486
0.046100	-1.284259
0.046200	-1.313796
0.046300	-1.355667
0.046400	-1.386178
0.046500	-1.409548
0.046600	-1.444603
0.046700	-1.478359
0.046800	-1.499457
0.046900	-1.496861
0.047000	-1.488746
0.047100	-1.492641
0.047200	-1.541328
0.047300	-1.610789
0.047400	-1.640651
0.047500	-1.643896
0.047600	-1.614684
0.047700	-1.622149
0.047800	-1.624422
0.047900	-1.629615
0.048000	-1.627992
0.048100	-1.628966
0.048200	-1.627992
0.048300	-1.628641
0.048400	-1.628641
0.048500	-1.633834
0.048600	-1.642598
0.048700	-1.648765
0.048800	-1.652011
0.048900	-1.655257
0.049000	-1.664345
0.049100	-1.677004
0.049200	-1.689987
0.049300	-1.704918
0.049400	-1.725042
0.049500	-1.794178
0.049600	-1.925634
0.049700	-2.050923
0.049800	-2.053845
0.049900	-1.966856
0.050000	-1.885386
0.050100	-1.916221
0.050200	-2.057740
0.050300	-2.196012
0.050400	-2.250217
0.050500	-2.201205
0.050600	-2.147324
0.050700	-2.147974
0.050800	-2.223926
0.050900	-2.310590
0.051000	-2.367716
0.051100	-2.367392
0.051200	-2.371936
0.051300	-2.375831
0.051400	-2.378752
0.051500	-2.398552
0.051600	-2.406017
0.051700	-2.416404
0.051800	-2.424519
0.051900	-2.455679
0.052000	-2.479049
0.052100	-2.484567
0.052200	-2.472557
0.052300	-2.462819
0.052400	-2.481970
0.052500	-2.501445
0.052600	-2.507287
0.052700	-2.443344
0.052800	-2.367716
0.052900	-2.368366
0.053000	-2.439774
0.053100	-2.550132
0.053200	-2.602390
0.053300	-2.556624
0.053400	-2.466714
0.053500	-2.422571
0.053600	-2.471908
0.053700	-2.580319
0.053800	-2.674123
0.053900	-2.686133
0.054000	-2.637445
0.054100	-2.598820
0.054200	-2.590381
0.054300	-2.604013
0.054400	-2.615698
0.054500	-2.622515
0.054600	-2.617970
0.054700	-2.600118
0.054800	-2.572853
0.054900	-2.545913
0.055000	-2.490734
0.055100	-2.432958
0.055200	-2.390113
0.055300	-2.358953
0.055400	-2.341425
0.055500	-2.293711
0.055600	-2.201205
0.055700	-2.107725
0.055800	-2.016842
0.055900	-1.959066
0.056000	-1.902264
0.056100	-1.843190
0.056200	-1.779572
0.056300	-1.704269
0.056400	-1.627667
0.056500	-1.554312
0.056600	-1.502054
0.056700	-1.464402
0.056800	-1.433892
0.056900	-1.409872
0.057000	-1.384555
0.057100	-1.356966
0.057200	-1.325806
0.057300	-1.304059
0.057400	-1.270627
0.057500	-1.271600
0.057600	-1.248880
0.057700	-1.258293
0.057800	-1.210904
0.057900	-1.103142
0.058000	-0.953834
0.058100	-0.908068
0.058200	-1.003496
0.058300	-1.131705
0.058400	-1.149557
0.058500	-1.046990
0.058600	-0.926570
0.058700	-0.862302
0.058800	-0.902550
0.058900	-0.980450
0.059000	-1.016803
0.059100	-0.978178
0.059200	-0.884698
0.059300	-0.816536
0.059400	-0.782780
0.059500	-0.792842
0.059600	-0.794789
0.059700	-0.799983
0.059800	-0.785376
0.059900	-0.775639
0.060000	-0.768174
0.060100	-0.777262
0.060200	-0.768823
0.060300	-0.777262
0.060400	-0.812966
0.060500	-0.855811
0.060600	-0.898980
0.060700	-0.931763
0.060800	-0.938255
0.060900	-0.935658
0.061000	-0.972336
0.061100	-1.084316
0.061200	-1.179419
0.061300	-1.198245
0.061400	-1.148908
0.061500	-1.080097
0.061600	-1.102168
0.061700	-1.216097
0.061800	-1.344956
0.061900	-1.400784
0.062000	-1.359562
0.062100	-1.287830
0.062200	-1.267381
0.062300	-1.325156
0.062400	-1.404355
0.062500	-1.447199
0.062600	-1.469271
0.062700	-1.460832
0.062800	-1.483877
0.062900	-1.522827
0.063000	-1.574760
0.063100	-1.614684
0.063200	-1.644870
0.063300	-1.683171
0.063400	-1.720498
0.063500	-1.750035
0.063600	-1.759772
0.063700	-1.770484
0.063800	-1.785090
0.063900	-1.838971
0.064000	-1.884737
0.064100	-1.903563
0.064200	-1.906484
0.064300	-1.885711
0.064400	-1.893825
0.064500	-1.885711
0.064600	-1.880517
0.064700	-1.877271
0.064800	-1.862016
0.064900	-1.857472
0.065000	-1.844489
0.065100	-1.841892
0.065200	-1.834426
0.065300	-1.826961
0.065400	-1.814302
0.065500	-1.801319
0.065600	-1.800021
0.065700	-1.791257
0.065800	-1.790932
0.065900	-1.788011
0.066000	-1.797424
0.066100	-1.813978
0.066200	-1.887009
0.066300	-2.035992
0.066400	-2.120709
0.066500	-2.090522
0.066600	-1.976918
0.066700	-1.922064
0.066800	-1.979190
0.066900	-2.133043
0.067000	-2.254761
0.067100	-2.279430
0.067200	-2.217759
0.067300	-2.167124
0.067400	-2.181730
0.067500	-2.265148
0.067600	-2.345969
0.067700	-2.393683
0.067800	-2.404394
0.067900	-2.393034
0.068000	-2.399850
0.068100	-2.420299
0.068200	-2.443994
0.068300	-2.447564
0.068400	-2.460872
0.068500	-2.475803
0.068600	-2.500147
0.068700	-2.520595
0.068800	-2.516376
0.068900	-2.518972
0.069000	-2.528385
0.069100	-2.555975
0.069200	-2.579994
0.069300	-2.573827
0.069400	-2.497550
0.069500	-2.432958
0.069600	-2.451784
0.069700	-2.549808
0.069800	-2.658543
0.069900	-2.694248
0.070000	-2.641340
0.070100	-2.542018
0.070200	-2.508586
0.070300	-2.564089
0.070400	-2.669904
0.070500	-2.734171
0.070600	-2.718591
0.070700	-2.656271
0.070800	-2.616347
0.070900	-2.614075
0.071000	-2.624787
0.071100	-2.627708
0.071200	-2.611803
0.071300	-2.591354
0.071400	-2.558896
0.071500	-2.524815
0.071600	-2.473855
0.071700	-2.405693
0.071800	-2.341425
0.071900	-2.294361
0.072000	-2.260279
0.072100	-2.230742
0.072200	-2.153816
0.072300	-2.055143
0.072400	-1.933424
0.072500	-1.837023
0.072600	-1.771457
0.072700	-1.709138
0.072800	-1.645844
0.072900	-1.574436
0.073000	-1.489720
0.073100	-1.406302
0.073200	-1.332946
0.073300	-1.283285
0.073400	-1.233624
0.073500	-1.198569
0.073600	-1.173252
0.073700	-1.153452
0.073800	-1.122617
0.073900	-1.101195
0.074000	-1.074904
0.074100	-1.069386
0.074200	-1.059324
0.074300	-1.066464
0.074400	-1.052183
0.074500	-1.013233
0.074600	-0.877558
0.074700	-0.774341
0.074800	-0.753567
0.074900	-0.893138
0.075000	-0.995381
0.075100	-0.994083
0.075200	-0.889567
0.075300	-0.781157
0.075400	-0.758111
0.075500	-0.827572
0.075600	-0.903200
0.075700	-0.925596
0.075800	-0.881128
0.075900	-0.811018
0.076000	-0.764928
0.076100	-0.763954
0.076200	-0.775639
0.076300	-0.791219
0.076400	-0.785376
0.076500	-0.777586
0.076600	-0.770446
0.076700	-0.773042
0.076800	-0.774341
0.076900	-0.770121
0.077000	-0.786026
0.077100	-0.832765
0.077200	-0.874312
0.077300	-0.925920
0.077400	-0.939228
0.077500	-0.935333
0.077600	-0.934684
0.077700	-0.986293
0.077800	-1.104441
0.077900	-1.166760
0.078000	-1.161242
0.078100	-1.095028
0.078200	-1.059973
0.078300	-1.111906
0.078400	-1.226483
0.078500	-1.310550
0.078600	-1.319639
0.078700	-1.260240
0.078800	-1.210254
0.078900	-1.227782
0.079000	-1.294646
0.079100	-1.353071
0.079200	-1.368975
0.079300	-1.372870
0.079400	-1.373195
0.079500	-1.403381
0.079600	-1.431295
0.079700	-1.465376
0.079800	-1.476087
0.079900	-1.480956
0.080000	-1.496211
0.080100	-1.512116
0.080200	-1.511791
0.080300	-1.495562
0.080400	-1.486474
0.080500	-1.506273
0.080600	-1.563725
0.080700	-1.606569
0.080800	-1.627018
0.080900	-1.628641
0.081000	-1.628316
0.081100	-1.647467
0.081200	-1.663047
0.081300	-1.673109
0.081400	-1.677328
0.081500	-1.680250
0.081600	-1.685443
0.081700	-1.689013
0.081800	-1.693882
0.081900	-1.696803
0.082000	-1.699725
0.082100	-1.702321
0.082200	-1.715305
0.082300	-1.721796
0.082400	-1.729586
0.082500	-1.735753
0.082600	-1.748412
0.082700	-1.764317
0.082800	-1.798398
0.082900	-1.904861
0.083000	-2.041510
0.083100	-2.107725
0.083200	-2.044107
0.083300	-1.950952
0.083400	-1.920116
0.083500	-2.022360
0.083600	-2.175563
0.083700	-2.279754
0.083800	-2.279105
0.083900	-2.227496
0.084000	-2.198609
0.084100	-2.243076
0.084200	-2.336232
0.084300	-2.416404
0.084400	-2.449187
0.084500	-2.448538
0.084600	-2.443344
0.084700	-2.454056
0.084800	-2.479698
0.084900	-2.500147
0.085000	-2.520920
0.085100	-2.534877
0.085200	-2.558572
0.085300	-2.587784
0.085400	-2.610830
0.085500	-2.612128
0.085600	-2.601417
0.085700	-2.614075
0.085800	-2.637770
0.085900	-2.648157
0.086000	-2.611803
0.086100	-2.520271
0.086200	-2.470609
0.086300	-2.497550
0.086400	-2.585512
0.086500	-2.668930
0.086600	-2.652052
0.086700	-2.567011
0.086800	-2.475478
0.086900	-2.464442
0.087000	-2.543641
0.087100	-2.641990
0.087200	-2.687431
0.087300	-2.652701
0.087400	-2.590381
0.087500	-2.550457
0.087600	-2.550457
0.087700	-2.572204
0.087800	-2.584863
0.087900	-2.575125
0.088000	-2.549808
0.088100	-2.512805
0.088200	-2.473206
0.088300	-2.433282
0.088400	-2.376156
0.088500	-2.316432
0.088600	-2.278131
0.088700	-2.239506
0.088800	-2.198284
0.088900	-2.113243
0.089000	-2.014895
0.089100	-1.899992
0.089200	-1.820469
0.089300	-1.761071
0.089400	-1.702970
0.089500	-1.641624
0.089600	-1.565347
0.089700	-1.487448
0.089800	-1.402732
0.089900	-1.342684
0.090000	-1.299839
0.090100	-1.268355
0.090200	-1.235247
0.090300	-1.221615
0.090400	-1.194674
0.090500	-1.171304
0.090600	-1.149882
0.090700	-1.147285
0.090800	-1.137223
0.090900	-1.139495
0.091000	-1.145338
0.091100	-1.132355
0.091200	-1.060622
0.091300	-0.910016
0.091400	-0.818808
0.091500	-0.836660
0.091600	-0.974932
0.091700	-1.034006
0.091800	-0.994732
0.091900	-0.874636
0.092000	-0.782131
0.092100	-0.778885
0.092200	-0.848994
0.092300	-0.917481
0.092400	-0.913262
0.092500	-0.874636
0.092600	-0.808422
0.092700	-0.780183
0.092800	-0.785376
0.092900	-0.806799
0.093000	-0.824326
0.093100	-0.827247
0.093200	-0.831792
0.093300	-0.829844
0.093400	-0.829520
0.093500	-0.826274
0.093600	-0.840555
0.093700	-0.865873
0.093800	-0.923973
0.093900	-0.955133
0.094000	-1.000250
0.094100	-1.000899
0.094200	-1.012259
0.094300	-1.012908
0.094400	-1.098923
0.094500	-1.196622
0.094600	-1.228756
0.094700	-1.212526
0.094800	-1.129109
0.094900	-1.118073
0.095000	-1.186560
0.095100	-1.298216
0.095200	-1.354369
0.095300	-1.356641
0.095400	-1.301137
0.095500	-1.271276
0.095600	-1.313472
0.095700	-1.388125
0.095800	-1.429997
0.095900	-1.454989
0.096000	-1.455963
0.096100	-1.467324
0.096200	-1.496211
0.096300	-1.519906
0.096400	-1.526073
0.096500	-1.526398
0.096600	-1.537433
0.096700	-1.540355
0.096800	-1.540679
0.096900	-1.526398
0.097000	-1.513739
0.097100	-1.509195
0.097200	-1.542627
0.097300	-1.602025
0.097400	-1.630913
0.097500	-1.638703
0.097600	-1.641949
0.097700	-1.643247
0.097800	-1.652011
0.097900	-1.651686
0.098000	-1.650388
0.098100	-1.651362
0.098200	-1.650713
0.098300	-1.644870
0.098400	-1.650713
0.098500	-1.649739
0.098600	-1.652336
0.098700	-1.649090
0.098800	-1.652011
0.098900	-1.653634
0.099000	-1.659476
0.099100	-1.661424
0.099200	-1.661099
0.099300	-1.670512
0.099400	-1.684794
0.099500	-1.726016
0.099600	-1.843190
0.099700	-1.967181
0.099800	-1.989902
0.099900	-1.900966
0.100000	-1.813329
0.100100	-1.821443
0.100200	-1.949978
0.100300	-2.091821
0.100400	-2.158360
0.100500	-2.122007
0.100600	-2.068775
0.100700	-2.074942
0.100800	-2.148623
0.100900	-2.251840
0.101000	-2.317406
0.101100	-2.344022
0.101200	-2.352136
0.101300	-2.378428
0.101400	-2.417702
0.101500	-2.448862
0.101600	-2.474504
0.101700	-2.483268
0.101800	-2.491383
0.101900	-2.521244
0.102000	-2.556299
0.102100	-2.564089
0.102200	-2.559545
0.102300	-2.553054
0.102400	-2.567011
0.102500	-2.596548
0.102600	-2.595250
0.102700	-2.552404
0.102800	-2.472557
0.102900	-2.455354
0.103000	-2.511832
0.103100	-2.611803
0.103200	-2.685159
0.103300	-2.645560
0.103400	-2.550457
0.103500	-2.498199
0.103600	-2.534552
0.103700	-2.629006
0.103800	-2.713723
0.103900	-2.719890
0.104000	-2.677045
0.104100	-2.627059
0.104200	-2.613426
0.104300	-2.618620
0.104400	-2.621541
0.104500	-2.611803
0.104600	-2.591679
0.104700	-2.575450
0.104800	-2.551755
0.104900	-2.515727
0.105000	-2.454705
0.105100	-2.388814
0.105200	-2.331039
0.105300	-2.291764
0.105400	-2.252814
0.105500	-2.209320
0.105600	-2.118112
0.105700	-2.020412
0.105800	-1.903238
0.105900	-1.819496
0.106000	-1.744192
0.106100	-1.669538
0.106200	-1.589691
0.106300	-1.497510
0.106400	-1.405977
0.106500	-1.317042
0.106600	-1.260889
0.106700	-1.226159
0.106800	-1.186884
0.106900	-1.162216
0.107000	-1.141118
0.107100	-1.127486
0.107200	-1.092431
0.107300	-1.073281
0.107400	-1.054130
0.107500	-1.055104
0.107600	-1.050235
0.107700	-1.057701
0.107800	-1.034006
0.107900	-0.944746
0.108000	-0.801281
0.108100	-0.757462
0.108200	-0.833415
0.108300	-0.984021
0.108400	-1.029462
0.108500	-0.967467
0.108600	-0.849968
0.108700	-0.783753
0.108800	-0.816212
0.108900	-0.908393
0.109000	-0.970064
0.109100	-0.964870
0.109200	-0.895734
0.109300	-0.853539
0.109400	-0.850617
0.109500	-0.880803
0.109600	-0.913586
0.109700	-0.920727
0.109800	-0.907095
0.109900	-0.883400
0.110000	-0.877882
0.110100	-0.884698
0.110200	-0.887295
0.110300	-0.902875
0.110400	-0.918780
0.110500	-0.944746
0.110600	-0.973309
0.110700	-1.001223
0.110800	-0.997328
0.110900	-0.984021
0.111000	-0.987591
0.111100	-1.061596
0.111200	-1.144364
0.111300	-1.155400
0.111400	-1.090808
0.111500	-1.018102
0.111600	-1.009663
0.111700	-1.103467
0.111800	-1.205386
0.111900	-1.233949
0.112000	-1.194025
0.112100	-1.118398
0.112200	-1.089834
0.112300	-1.148908
0.112400	-1.233624
0.112500	-1.265433
0.112600	-1.274846
0.112700	-1.265758
0.112800	-1.278741
0.112900	-1.313796
0.113000	-1.351123
0.113100	-1.378388
0.113200	-1.386503
0.113300	-1.404679
0.113400	-1.419610
0.113500	-1.427725
0.113600	-1.431295
0.113700	-1.423180
0.113800	-1.427400
0.113900	-1.469596
0.114000	-1.514063
0.114100	-1.544899
0.114200	-1.552689
0.114300	-1.538083
0.114400	-1.541004
0.114500	-1.543925
0.114600	-1.552040
0.114700	-1.551715
0.114800	-1.551066
0.114900	-1.549118
0.115000	-1.545873
0.115100	-1.547820
0.115200	-1.553013
0.115300	-1.559830
0.115400	-1.573137
0.115500	-1.589042
0.115600	-1.599753
0.115700	-1.616632
0.115800	-1.635133
0.115900	-1.650064
0.116000	-1.677004
0.116100	-1.702646
0.116200	-1.771782
0.116300	-1.915897
0.116400	-2.030799
0.116500	-2.034694
0.116600	-1.940565
0.116700	-1.876622
0.116800	-1.929854
0.116900	-2.070074
0.117000	-2.202828
0.117100	-2.239831
0.117200	-2.186599
0.117300	-2.119086
0.117400	-2.130771
0.117500	-2.200232
0.117600	-2.295984
0.117700	-2.345320
0.117800	-2.355382
0.117900	-2.346619
0.118000	-2.339153
0.118100	-2.351487
0.118200	-2.376156
0.118300	-2.396929
0.118400	-2.417702
0.118500	-2.426791
0.118600	-2.459898
0.118700	-2.483268
0.118800	-2.502743
0.118900	-2.500471
0.119000	-2.513454
0.119100	-2.544614
0.119200	-2.578371
0.119300	-2.578696
0.119400	-2.526113
0.119500	-2.464118
0.119600	-2.482619
0.119700	-2.561168
0.119800	-2.671851
0.119900	-2.730926
0.120000	-2.689054
0.120100	-2.603364
0.120200	-2.561817
0.120300	-2.615049
0.120400	-2.713398
0.120500	-2.790000
0.120600	-2.785131
0.120700	-2.730276
0.120800	-2.685484
0.120900	-2.670228
0.121000	-2.687756
0.121100	-2.703011
0.121200	-2.698467
0.121300	-2.691326
0.121400	-2.664710
0.121500	-2.639068
0.121600	-2.603040
0.121700	-2.558896
0.121800	-2.507287
0.121900	-2.476452
0.122000	-2.461196
0.122100	-2.447889
0.122200	-2.394657
0.122300	-2.309291
0.122400	-2.215487
0.122500	-2.126227
0.122600	-2.067152
0.122700	-2.008078
0.122800	-1.957443
0.122900	-1.890904
0.123000	-1.806837
0.123100	-1.723419
0.123200	-1.646493
0.123300	-1.583849
0.123400	-1.537433
0.123500	-1.488421
0.123600	-1.462130
0.123700	-1.435514
0.123800	-1.401109
0.123900	-1.350798
0.124000	-1.324507
0.124100	-1.276794
0.124200	-1.264135
0.124300	-1.230378
0.124400	-1.211228
0.124500	-1.136250
0.124600	-0.997328
0.124700	-0.842827
0.124800	-0.788622
0.124900	-0.882102
0.125000	-0.979152
0.125100	-0.969739
0.125200	-0.834388
0.125300	-0.714942
0.125400	-0.657167
0.125500	-0.696441
0.125600	-0.765901
0.125700	-0.781157
0.125800	-0.732470
0.125900	-0.643859
0.126000	-0.589653
0.126100	-0.561415
0.126200	-0.567582
0.126300	-0.576995
0.126400	-0.575047
0.126500	-0.564661
0.126600	-0.553300
0.126700	-0.546160
0.126800	-0.542589
0.126900	-0.545510
0.127000	-0.566608
0.127100	-0.609453
0.127200	-0.658789
0.127300	-0.710073
0.127400	-0.741558
0.127500	-0.755515
0.127600	-0.764928
0.127700	-0.818159
0.127800	-0.932087
0.127900	-1.005118
0.128000	-1.024593
0.128100	-0.977854
0.128200	-0.935333
0.128300	-0.987266
0.128400	-1.100221
0.128500	-1.209930
0.128600	-1.241090
0.128700	-1.196622
0.128800	-1.133978
0.128900	-1.138846
0.129000	-1.208307
0.129100	-1.275495
0.129200	-1.308278
0.129300	-1.329051
0.129400	-1.331648
0.129500	-1.362159
0.129600	-1.405328
0.129700	-1.435839
0.129800	-1.446226
0.129900	-1.463753
0.130000	-1.486799
0.130100	-1.513090
0.130200	-1.521529
0.130300	-1.503677
0.130400	-1.488097
0.130500	-1.496211
0.130600	-1.551715
0.130700	-1.591314
0.130800	-1.596507
0.130900	-1.600078
0.131000	-1.584173
0.131100	-1.582875
0.131200	-1.579629
0.131300	-1.569242
0.131400	-1.564698
0.131500	-1.553987
0.131600	-1.545873
0.131700	-1.542627
0.131800	-1.531591
0.131900	-1.530293
0.132000	-1.525748
0.132100	-1.525099
0.132200	-1.516660
0.132300	-1.510818
0.132400	-1.504975
0.132500	-1.499457
0.132600	-1.495562
0.132700	-1.516985
0.132800	-1.538083
0.132900	-1.628316
0.133000	-1.775677
0.133100	-1.854875
0.133200	-1.820469
0.133300	-1.710111
0.133400	-1.671486
0.133500	-1.747114
0.133600	-1.904536
0.133700	-2.020088
0.133800	-2.025606
0.133900	-1.961338
0.134000	-1.917195
0.134100	-1.951276
0.134200	-2.054494
0.134300	-2.152518
0.134400	-2.201530
0.134500	-2.207372
0.134600	-2.210943
0.134700	-2.230742
0.134800	-2.259955
0.134900	-2.286571
0.135000	-2.312862
0.135100	-2.321626
0.135200	-2.341425
0.135300	-2.375506
0.135400	-2.411860
0.135500	-2.425817
0.135600	-2.429387
0.135700	-2.437826
0.135800	-2.461846
0.135900	-2.490409
0.136000	-2.475478
0.136100	-2.405044
0.136200	-2.343373
0.136300	-2.353435
0.136400	-2.435230
0.136500	-2.531956
0.136600	-2.550782
0.136700	-2.488462
0.136800	-2.407316
0.136900	-2.385244
0.137000	-2.452108
0.137100	-2.568309
0.137200	-2.629331
0.137300	-2.608233
0.137400	-2.557273
0.137500	-2.513779
0.137600	-2.508910
0.137700	-2.523841
0.137800	-2.540395
0.137900	-2.527412
0.138000	-2.508586
0.138100	-2.472557
0.138200	-2.433931
0.138300	-2.378103
0.138400	-2.300852
0.138500	-2.226198
0.138600	-2.172317
0.138700	-2.126551
0.138800	-2.078837
0.138900	-1.985033
0.139000	-1.892202
0.139100	-1.782169
0.139200	-1.689987
0.139300	-1.626044
0.139400	-1.568269
0.139500	-1.501080
0.139600	-1.433242
0.139700	-1.356966
0.139800	-1.282961
0.139900	-1.214799
0.140000	-1.172278
0.140100	-1.145987
0.140200	-1.117748
0.140300	-1.103142
0.140400	-1.080421
0.140500	-1.070035
0.140600	-1.044068
0.140700	-1.045042
0.140800	-1.037577
0.140900	-1.061271
0.141000	-1.074579
0.141100	-1.088861
0.141200	-1.049586
0.141300	-0.939877
0.141400	-0.842827
0.141500	-0.853214
0.141600	-0.992135
0.141700	-1.080746
0.141800	-1.052507
0.141900	-0.932737
0.142000	-0.819457
0.142100	-0.775314
0.142200	-0.821405
0.142300	-0.874312
0.142400	-0.852565
0.142500	-0.787648
0.142600	-0.691248
0.142700	-0.631200
0.142800	-0.599391
0.142900	-0.609128
0.143000	-0.614322
0.143100	-0.615945
0.143200	-0.603286
0.143300	-0.585434
0.143400	-0.576021
0.143500	-0.573100
0.143600	-0.565634
0.143700	-0.602312
0.143800	-0.637042
0.143900	-0.679238
0.144000	-0.713968
0.144100	-0.737987
0.144200	-0.740259
0.144300	-0.765577
0.144400	-0.825949
0.144500	-0.948641
0.144600	-1.014207
0.144700	-1.021672
0.144800	-0.982398
0.144900	-0.968765
0.145000	-1.038550
0.145100	-1.161892
0.145200	-1.255047
0.145300	-1.271925
0.145400	-1.249529
0.145500	-1.226808
0.145600	-1.265109
0.145700	-1.336192
0.145800	-1.392020
0.145900	-1.429672
0.146000	-1.447199
0.146100	-1.465701
0.146200	-1.499133
0.146300	-1.541978
0.146400	-1.589042
0.146500	-1.627018
0.146600	-1.655581
0.146700	-1.684145
0.146800	-1.702321
0.146900	-1.697128
0.147000	-1.675056
0.147100	-1.656555
0.147200	-1.666293
0.147300	-1.710111
0.147400	-1.727639
0.147500	-1.712059
0.147600	-1.668889
0.147700	-1.645844
0.147800	-1.638379
0.147900	-1.627667
0.148000	-1.615658
0.148100	-1.600402
0.148200	-1.578980
0.148300	-1.555935
0.148400	-1.534512
0.148500	-1.517958
0.148600	-1.504975
0.148700	-1.491343
0.148800	-1.482579
0.148900	-1.463753
0.149000	-1.452393
0.149100	-1.446226
0.149200	-1.452393
0.149300	-1.463429
0.149400	-1.487772
0.149500	-1.534837
0.149600	-1.654283
0.149700	-1.800994
0.149800	-1.862665
0.149900	-1.814627
0.150000	-1.736078
0.150100	-1.744192
0.150200	-1.856174
0.150300	-2.014570
0.150400	-2.106427
0.150500	-2.106102
0.150600	-2.057090
0.150700	-2.049950
0.150800	-2.109348
0.150900	-2.210943
0.151000	-2.295659
0.151100	-2.350838
0.151200	-2.381998
0.151300	-2.408614
0.151400	-2.449836
0.151500	-2.492681
0.151600	-2.529359
0.151700	-2.554677
0.151800	-2.570906
0.151900	-2.613102
0.152000	-2.645235
0.152100	-2.677045
0.152200	-2.676395
0.152300	-2.678018
0.152400	-2.705283
0.152500	-2.750076
0.152600	-2.778315
0.152700	-2.759489
0.152800	-2.689379
0.152900	-2.672176
0.153000	-2.725732
0.153100	-2.828301
0.153200	-2.914965
0.153300	-2.902955
0.153400	-2.833819
0.153500	-2.794869
0.153600	-2.827976
0.153700	-2.905227
0.153800	-2.980531
0.153900	-2.989294
0.154000	-2.940931
0.154100	-2.890296
0.154200	-2.857513
0.154300	-2.842582
0.154400	-2.819537
0.154500	-2.780262
0.154600	-2.729952
0.154700	-2.686458
0.154800	-2.633875
0.154900	-2.576748
0.155000	-2.486514
0.155100	-2.382647
0.155200	-2.299879
0.155300	-2.231391
0.155400	-2.175239
0.155500	-2.099286
0.155600	-1.964584
0.155700	-1.850656
0.155800	-1.773080
0.155900	-1.676030
0.156000	-1.609166
0.156100	-1.547171
0.156200	-1.484851
0.156300	-1.414417
0.156400	-1.338464
0.156500	-1.272250
0.156600	-1.230378
0.156700	-1.196297
0.156800	-1.168059
0.156900	-1.141118
0.157000	-1.121319
0.157100	-1.102493
0.157200	-1.081720
0.157300	-1.052183
0.157400	-1.031085
0.157500	-1.011610
0.157600	-1.008364
0.157700	-1.000250
0.157800	-0.975581
0.157900	-0.881128
0.158000	-0.730197
0.158100	-0.632174
0.158200	-0.666579
0.158300	-0.788298
0.158400	-0.821405
0.158500	-0.747076
0.158600	-0.594198
0.158700	-0.494226
0.158800	-0.482866
0.158900	-0.542914
0.159000	-0.581539
0.159100	-0.566933
0.159200	-0.498446
0.159300	-0.430284
0.159400	-0.399773
0.159500	-0.406914
0.159600	-0.430284
0.159700	-0.434179
0.159800	-0.417950
0.159900	-0.406265
0.160000	-0.413081
0.160100	-0.424117
0.160200	-0.430608
0.160300	-0.434179
0.160400	-0.460145
0.160500	-0.494551
0.160600	-0.541615
0.160700	-0.591276
0.160800	-0.596794
0.160900	-0.594198
0.161000	-0.594198
0.161100	-0.676317
0.161200	-0.780183
0.161300	-0.822379
0.161400	-0.793816
0.161500	-0.719811
0.161600	-0.710398
0.161700	-0.793816
0.161800	-0.920727
0.161900	-0.982073
0.162000	-0.955133
0.162100	-0.893462
0.162200	-0.892813
0.162300	-0.956756
0.162400	-1.057052
0.162500	-1.118073
0.162600	-1.151505
0.162700	-1.151830
0.162800	-1.187209
0.162900	-1.261538
0.163000	-1.353071
0.163100	-1.425452
0.163200	-1.474464
0.163300	-1.528994
0.163400	-1.598779
0.163500	-1.669538
0.163600	-1.738025
0.163700	-1.793854
0.163800	-1.846436
0.163900	-1.925310
0.164000	-2.023983
0.164100	-2.087601
0.164200	-2.134990
0.164300	-2.140184
0.164400	-2.163878
0.164500	-2.188547
0.164600	-2.202504
0.164700	-2.202828
0.164800	-2.196337
0.164900	-2.193415
0.165000	-2.185625
0.165100	-2.174914
0.165200	-2.173940
0.165300	-2.169396
0.165400	-2.169396
0.165500	-2.159659
0.165600	-2.152518
0.165700	-2.155439
0.165800	-2.157387
0.165900	-2.159983
0.166000	-2.171668
0.166100	-2.202179
0.166200	-2.263525
0.166300	-2.405044
0.166400	-2.534552
0.166500	-2.544614
0.166600	-2.469311
0.166700	-2.381024
0.166800	-2.394657
0.166900	-2.501445
0.167000	-2.614400
0.167100	-2.638095
0.167200	-2.565063
0.167300	-2.459898
0.167400	-2.409588
0.167500	-2.434905
0.167600	-2.490409
0.167700	-2.519297
0.167800	-2.498848
0.167900	-2.447239
0.168000	-2.394657
0.168100	-2.378103
0.168200	-2.377454
0.168300	-2.375182
0.168400	-2.343373
0.168500	-2.309941
0.168600	-2.292089
0.168700	-2.286571
0.168800	-2.279430
0.168900	-2.269043
0.169000	-2.246971
0.169100	-2.238532
0.169200	-2.249893
0.169300	-2.263201
0.169400	-2.228146
0.169500	-2.169072
0.169600	-2.175563
0.169700	-2.256384
0.169800	-2.370962
0.169900	-2.458600
0.170000	-2.431659
0.170100	-2.354409
0.170200	-2.317081
0.170300	-2.365120
0.170400	-2.469960
0.170500	-2.572204
0.170600	-2.609207
0.170700	-2.586161
0.170800	-2.550457
0.170900	-2.546562
0.171000	-2.568958
0.171100	-2.594925
0.171200	-2.594276
0.171300	-2.564089
0.171400	-2.509884
0.171500	-2.456652
0.171600	-2.392060
0.171700	-2.312213
0.171800	-2.216785
0.171900	-2.137262
0.172000	-2.063257
0.172100	-2.007429
0.172200	-1.938618
0.172300	-1.826637
0.172400	-1.729262
0.172500	-1.620851
0.172600	-1.549768
0.172700	-1.483877
0.172800	-1.415715
0.172900	-1.343333
0.173000	-1.269004
0.173100	-1.185911
0.173200	-1.120670
0.173300	-1.065491
0.173400	-1.036278
0.173500	-1.007066
0.173600	-0.988565
0.173700	-0.964870
0.173800	-0.943772
0.173900	-0.909691
0.174000	-0.883725
0.174100	-0.862302
0.174200	-0.863276
0.174300	-0.852565
0.174400	-0.839906
0.174500	-0.804527
0.174600	-0.701959
0.174700	-0.568556
0.174800	-0.517921
0.174900	-0.629577
0.175000	-0.781806
0.175100	-0.840555
0.175200	-0.791543
0.175300	-0.699362
0.175400	-0.664632
0.175500	-0.729224
0.175600	-0.832441
0.175700	-0.891190
0.175800	-0.867171
0.175900	-0.795114
0.176000	-0.740584
0.176100	-0.711372
0.176200	-0.711047
0.176300	-0.715267
0.176400	-0.723706
0.176500	-0.712021
0.176600	-0.715591
0.176700	-0.715267
0.176800	-0.725653
0.176900	-0.744154
0.177000	-0.771744
0.177100	-0.844126
0.177200	-0.897033
0.177300	-0.969739
0.177400	-1.010312
0.177500	-1.036278
0.177600	-1.063868
0.177700	-1.113529
0.177800	-1.228431
0.177900	-1.335868
0.178000	-1.372870
0.178100	-1.362159
0.178200	-1.318665
0.178300	-1.361510
0.178400	-1.469596
0.178500	-1.582875
0.178600	-1.611114
0.178700	-1.570541
0.178800	-1.511467
0.178900	-1.498483
0.179000	-1.546522
0.179100	-1.602350
0.179200	-1.614684
0.179300	-1.616956
0.179400	-1.601052
0.179500	-1.619228
0.179600	-1.639677
0.179700	-1.652985
0.179800	-1.640326
0.179900	-1.623772
0.180000	-1.617930
0.180100	-1.623448
0.180200	-1.606894
0.180300	-1.567620
0.180400	-1.535810
0.180500	-1.524450
0.180600	-1.560154
0.180700	-1.591963
0.180800	-1.591314
0.180900	-1.580278
0.181000	-1.555285
0.181100	-1.547820
0.181200	-1.529643
0.181300	-1.500756
0.181400	-1.479658
0.181500	-1.459209
0.181600	-1.440708
0.181700	-1.431944
0.181800	-1.438436
0.181900	-1.446875
0.182000	-1.450121
0.182100	-1.465701
0.182200	-1.486799
0.182300	-1.507247
0.182400	-1.533863
0.182500	-1.574436
0.182600	-1.618579
0.182700	-1.674407
0.182800	-1.729262
0.182900	-1.854875
0.183000	-2.038914
0.183100	-2.178160
0.183200	-2.204776
0.183300	-2.134990
0.183400	-2.101234
0.183500	-2.183678
0.183600	-2.356356
0.183700	-2.505015
0.183800	-2.538772
0.183900	-2.496901
0.184000	-2.462170
0.184100	-2.510209
0.184200	-2.615698
0.184300	-2.747804
0.184400	-2.818239
0.184500	-2.851346
0.184600	-2.872444
0.184700	-2.906850
0.184800	-2.951643
0.184900	-2.988321
0.185000	-3.003251
0.185100	-2.993189
0.185200	-2.983452
0.185300	-2.996760
0.185400	-3.010392
0.185500	-3.002602
0.185600	-2.978908
0.185700	-2.965600
0.185800	-2.979557
0.185900	-2.996111
0.186000	-2.990917
0.186100	-2.916912
0.186200	-2.835442
0.186300	-2.845179
0.186400	-2.913991
0.186500	-3.007146
0.186600	-3.022402
0.186700	-2.927623
0.186800	-2.813370
0.186900	-2.750401
0.187000	-2.792272
0.187100	-2.879260
0.187200	-2.933141
0.187300	-2.909447
0.187400	-2.859785
0.187500	-2.826029
0.187600	-2.837714
0.187700	-2.874392
0.187800	-2.896788
0.187900	-2.896463
0.188000	-2.873742
0.188100	-2.842582
0.188200	-2.795193
0.188300	-2.731899
0.188400	-2.656271
0.188500	-2.570257
0.188600	-2.507937
0.188700	-2.458924
0.188800	-2.415755
0.188900	-2.342724
0.189000	-2.248270
0.189100	-2.148298
0.189200	-2.064880
0.189300	-2.013921
0.189400	-1.972050
0.189500	-1.935372
0.189600	-1.893501
0.189700	-1.830856
0.189800	-1.761395
0.189900	-1.697453
0.190000	-1.653959
0.190100	-1.615982
0.190200	-1.575085
0.190300	-1.541328
0.190400	-1.497510
0.190500	-1.450770
0.190600	-1.398512
0.190700	-1.352097
0.190800	-1.305032
0.190900	-1.263486
0.191000	-1.225185
0.191100	-1.171304
0.191200	-1.084966
0.191300	-0.914235
0.191400	-0.742856
0.191500	-0.681510
0.191600	-0.756164
0.191700	-0.830493
0.191800	-0.781481
0.191900	-0.650999
0.192000	-0.498771
0.192100	-0.431582
0.192200	-0.450732
0.192300	-0.505262
0.192400	-0.498771
0.192500	-0.433205
0.192600	-0.327067
0.192700	-0.268642
0.192800	-0.245272
0.192900	-0.262800
0.193000	-0.283897
0.193100	-0.288766
0.193200	-0.295907
0.193300	-0.302723
0.193400	-0.332909
0.193500	-0.370885
0.193600	-0.408212
0.193700	-0.480919
0.193800	-0.555572
0.193900	-0.636393
0.194000	-0.696441
0.194100	-0.757138
0.194200	-0.776613
0.194300	-0.807773
0.194400	-0.858083
0.194500	-0.976880
0.194600	-1.034980
0.194700	-1.036278
0.194800	-0.955782
0.194900	-0.888269
0.195000	-0.900928
0.195100	-0.981424
0.195200	-1.064842
0.195300	-1.076526
0.195400	-1.018426
0.195500	-0.951887
0.195600	-0.948966
0.195700	-1.003496
0.195800	-1.072307
0.195900	-1.109634
0.196000	-1.115476
0.196100	-1.093080
0.196200	-1.088211
0.196300	-1.094379
0.196400	-1.119047
0.196500	-1.137548
0.196600	-1.145338
0.196700	-1.156374
0.196800	-1.159944
0.196900	-1.161242
0.197000	-1.161567
0.197100	-1.163839
0.197200	-1.187209
0.197300	-1.255371
0.197400	-1.305357
0.197500	-1.315094
0.197600	-1.312173
0.197700	-1.296269
0.197800	-1.312822
0.197900	-1.329701
0.198000	-1.333596
0.198100	-1.343982
0.198200	-1.355667
0.198300	-1.368651
0.198400	-1.385853
0.198500	-1.396565
0.198600	-1.409223
0.198700	-1.423180
0.198800	-1.433242
0.198900	-1.447849
0.199000	-1.457911
0.199100	-1.471868
0.199200	-1.492966
0.199300	-1.514713
0.199400	-1.539381
0.199500	-1.585147
0.199600	-1.714655
0.199700	-1.878245
0.199800	-1.971400
0.199900	-1.941214
0.200000	-1.853252
0.200100	-1.834426
0.200200	-1.934398
0.200300	-2.095716
0.200400	-2.205100
0.200500	-2.209969
0.200600	-2.155764
0.200700	-2.119086
0.200800	-2.167124
0.200900	-2.264174
0.201000	-2.365120
0.201100	-2.429063
0.201200	-2.471583
0.201300	-2.504366
0.201400	-2.554352
0.201500	-2.612128
0.201600	-2.660815
0.201700	-2.705933
0.201800	-2.745856
0.201900	-2.789675
0.202000	-2.828301
0.202100	-2.841284
0.202200	-2.838687
0.202300	-2.821484
0.202400	-2.826678
0.202500	-2.842907
0.202600	-2.851022
0.202700	-2.814993
0.202800	-2.726057
0.202900	-2.685484
0.203000	-2.726057
0.203100	-2.819537
0.203200	-2.917561
0.203300	-2.920807
0.203400	-2.845504
0.203500	-2.778964
0.203600	-2.779613
0.203700	-2.857189
0.203800	-2.960406
0.203900	-3.018832
0.204000	-3.012664
0.204100	-2.988645
0.204200	-2.985075
0.204300	-3.013963
0.204400	-3.054536
0.204500	-3.085371
0.204600	-3.104846
0.204700	-3.121400
0.204800	-3.123348
0.204900	-3.091214
0.205000	-3.022727
0.205100	-2.938659
0.205200	-2.880234
0.205300	-2.846477
0.205400	-2.801685
0.205500	-2.753322
0.205600	-2.655297
0.205700	-2.554027
0.205800	-2.465416
0.205900	-2.347917
0.206000	-2.229769
0.206100	-2.105453
0.206200	-1.968479
0.206300	-1.837672
0.206400	-1.689338
0.206500	-1.546197
0.206600	-1.419285
0.206700	-1.320937
0.206800	-1.240116
0.206900	-1.159620
0.207000	-1.097624
0.207100	-1.032708
0.207200	-0.973309
0.207300	-0.908393
0.207400	-0.850293
0.207500	-0.797061
0.207600	-0.749348
0.207700	-0.722083
0.207800	-0.676641
0.207900	-0.588031
0.208000	-0.417301
0.208100	-0.302399
0.208200	-0.290714
0.208300	-0.421845
0.208400	-0.487735
0.208500	-0.437425
0.208600	-0.305320
0.208700	-0.209893
0.208800	-0.210867
0.208900	-0.291363
0.209000	-0.370236
0.209100	-0.391983
0.209200	-0.346217
0.209300	-0.298504
0.209400	-0.283897
0.209500	-0.315382
0.209600	-0.357902
0.209700	-0.379324
0.209800	-0.388737
0.209900	-0.398475
0.210000	-0.407563
0.210100	-0.427687
0.210200	-0.438723
0.210300	-0.450732
0.210400	-0.486112
0.210500	-0.557195
0.210600	-0.625033
0.210700	-0.701634
0.210800	-0.746102
0.210900	-0.774665
0.211000	-0.824002
0.211100	-0.940202
0.211200	-1.104765
0.211300	-1.200517
0.211400	-1.215772
0.211500	-1.196297
0.211600	-1.202140
0.211700	-1.315744
0.211800	-1.481281
0.211900	-1.581901
0.212000	-1.605596
0.212100	-1.559505
0.212200	-1.539381
0.212300	-1.593262
0.212400	-1.679276
0.212500	-1.739324
0.212600	-1.751658
0.212700	-1.750360
0.212800	-1.768212
0.212900	-1.806512
0.213000	-1.856498
0.213100	-1.887983
0.213200	-1.891228
0.213300	-1.896097
0.213400	-1.911028
0.213500	-1.924661
0.213600	-1.910054
0.213700	-1.887333
0.213800	-1.859095
0.213900	-1.857796
0.214000	-1.886360
0.214100	-1.891228
0.214200	-1.877271
0.214300	-1.838646
0.214400	-1.813329
0.214500	-1.806837
0.214600	-1.793529
0.214700	-1.776651
0.214800	-1.756202
0.214900	-1.741271
0.215000	-1.714980
0.215100	-1.699725
0.215200	-1.677978
0.215300	-1.654608
0.215400	-1.640326
0.215500	-1.632211
0.215600	-1.618254
0.215700	-1.605920
0.215800	-1.598130
0.215900	-1.595209
0.216000	-1.591639
0.216100	-1.598779
0.216200	-1.631887
0.216300	-1.737052
0.216400	-1.859419
0.216500	-1.874675
0.216600	-1.792880
0.216700	-1.698102
0.216800	-1.692584
0.216900	-1.818522
0.217000	-1.975945
0.217100	-2.064556
0.217200	-2.041510
0.217300	-1.982436
0.217400	-1.965558
0.217500	-2.026255
0.217600	-2.124604
0.217700	-2.210294
0.217800	-2.258332
0.217900	-2.276833
0.218000	-2.291439
0.218100	-2.325196
0.218200	-2.381674
0.218300	-2.434256
0.218400	-2.481645
0.218500	-2.519946
0.218600	-2.579345
0.218700	-2.649455
0.218800	-2.696195
0.218900	-2.740663
0.219000	-2.776692
0.219100	-2.818563
0.219200	-2.869847
0.219300	-2.910420
0.219400	-2.889647
0.219500	-2.814344
0.219600	-2.788701
0.219700	-2.831547
0.219800	-2.918210
0.219900	-2.992540
0.220000	-2.963003
0.220100	-2.866277
0.220200	-2.794219
0.220300	-2.817589
0.220400	-2.916912
0.220500	-3.028569
0.220600	-3.077257
0.220700	-3.061352
0.220800	-3.030517
0.220900	-3.026622
0.221000	-3.056159
0.221100	-3.099328
0.221200	-3.117505
0.221300	-3.118803
0.221400	-3.108092
0.221500	-3.089915
0.221600	-3.057457
0.221700	-3.017209
0.221800	-2.962029
0.221900	-2.906525
0.222000	-2.865628
0.222100	-2.836740
0.222200	-2.782534
0.222300	-2.685159
0.222400	-2.579020
0.222500	-2.451134
0.222600	-2.355382
0.222700	-2.274236
0.222800	-2.195363
0.222900	-2.106102
0.223000	-2.018465
0.223100	-1.917195
0.223200	-1.825338
0.223300	-1.753281
0.223400	-1.710760
0.223500	-1.681548
0.223600	-1.657854
0.223700	-1.648116
0.223800	-1.626044
0.223900	-1.602350
0.224000	-1.569892
0.224100	-1.544250
0.224200	-1.537433
0.224300	-1.510168
0.224400	-1.496861
0.224500	-1.449796
0.224600	-1.336841
0.224700	-1.165787
0.224800	-1.058674
0.224900	-1.093729
0.225000	-1.194999
0.225100	-1.203438
0.225200	-1.111581
0.225300	-0.947667
0.225400	-0.846398
0.225500	-0.817185
0.225600	-0.872040
0.225700	-0.896708
0.225800	-0.882751
0.225900	-0.799983
0.226000	-0.726302
0.226100	-0.669176
0.226200	-0.651973
0.226300	-0.654570
0.226400	-0.657816
0.226500	-0.646455
0.226600	-0.628928
0.226700	-0.613023
0.226800	-0.612699
0.226900	-0.603611
0.227000	-0.623410
0.227100	-0.659763
0.227200	-0.705854
0.227300	-0.751620
0.227400	-0.796737
0.227500	-0.798360
0.227600	-0.796088
0.227700	-0.820756
0.227800	-0.909691
0.227900	-1.024918
0.228000	-1.068737
0.228100	-1.049911
0.228200	-1.016154
0.228300	-1.030760
0.228400	-1.145013
0.228500	-1.282312
0.228600	-1.342035
0.228700	-1.325806
0.228800	-1.282312
0.228900	-1.275495
0.229000	-1.311199
0.229100	-1.360861
0.229200	-1.377090
0.229300	-1.382283
0.229400	-1.364756
0.229500	-1.371572
0.229600	-1.395266
0.229700	-1.432918
0.229800	-1.459534
0.229900	-1.477710
0.230000	-1.500756
0.230100	-1.532565
0.230200	-1.548794
0.230300	-1.545223
0.230400	-1.537433
0.230500	-1.531915
0.230600	-1.566321
0.230700	-1.610789
0.230800	-1.632536
0.230900	-1.634159
0.231000	-1.589691
0.231100	-1.580603
0.231200	-1.589042
0.231300	-1.577357
0.231400	-1.567295
0.231500	-1.559830
0.231600	-1.551390
0.231700	-1.540030
0.231800	-1.531915
0.231900	-1.533538
0.232000	-1.534188
0.232100	-1.534837
0.232200	-1.539705
0.232300	-1.550417
0.232400	-1.554636
0.232500	-1.570865
0.232600	-1.592612
0.232700	-1.630264
0.232800	-1.655906
0.232900	-1.730885
0.233000	-1.870455
0.233100	-1.982112
0.233200	-1.983410
0.233300	-1.901291
0.233400	-1.830856
0.233500	-1.866885
0.233600	-2.005806
0.233700	-2.125577
0.233800	-2.170370
0.233900	-2.126551
0.234000	-2.072995
0.234100	-2.069749
0.234200	-2.127525
0.234300	-2.195687
0.234400	-2.236909
0.234500	-2.235936
0.234600	-2.231716
0.234700	-2.241778
0.234800	-2.267096
0.234900	-2.294685
0.235000	-2.309291
0.235100	-2.314485
0.235200	-2.333311
0.235300	-2.364146
0.235400	-2.397254
0.235500	-2.424519
0.235600	-2.434905
0.235700	-2.441397
0.235800	-2.462495
0.235900	-2.485540
0.236000	-2.499173
0.236100	-2.448538
0.236200	-2.385569
0.236300	-2.381349
0.236400	-2.468986
0.236500	-2.569283
0.236600	-2.629006
0.236700	-2.575125
0.236800	-2.469311
0.236900	-2.416404
0.237000	-2.460547
0.237100	-2.551431
0.237200	-2.603364
0.237300	-2.584214
0.237400	-2.525139
0.237500	-2.485865
0.237600	-2.482294
0.237700	-2.495927
0.237800	-2.505664
0.237900	-2.494953
0.238000	-2.476452
0.238100	-2.455679
0.238200	-2.430036
0.238300	-2.387516
0.238400	-2.320976
0.238500	-2.252489
0.238600	-2.208022
0.238700	-2.173940
0.238800	-2.154790
0.238900	-2.105453
0.239000	-2.028527
0.239100	-1.976269
0.239200	-1.888956
0.239300	-1.835400
0.239400	-1.793529
0.239500	-1.756202
0.239600	-1.700374
0.239700	-1.632211
0.239800	-1.556584
0.239900	-1.491992
0.240000	-1.449147
0.240100	-1.418636
0.240200	-1.382283
0.240300	-1.353071
0.240400	-1.319639
0.240500	-1.287180
0.240600	-1.255371
0.240700	-1.232326
0.240800	-1.197596
0.240900	-1.180393
0.241000	-1.163515
0.241100	-1.153128
0.241200	-1.096326
0.241300	-0.991811
0.241400	-0.826598
0.241500	-0.798684
0.241600	-0.880803
0.241700	-1.002846
0.241800	-1.013882
0.241900	-0.936632
0.242000	-0.817835
0.242100	-0.781157
0.242200	-0.818808
0.242300	-0.909691
0.242400	-0.948317
0.242500	-0.922999
0.242600	-0.848345
0.242700	-0.789921
0.242800	-0.771744
0.242900	-0.786026
0.243000	-0.798035
0.243100	-0.793816
0.243200	-0.790570
0.243300	-0.778560
0.243400	-0.780183
0.243500	-0.786026
0.243600	-0.792517
0.243700	-0.827572
0.243800	-0.859381
0.243900	-0.895410
0.244000	-0.938255
0.244100	-0.978178
0.244200	-0.993109
0.244300	-1.003820
0.244400	-1.043419
0.244500	-1.156374
0.244600	-1.257968
0.244700	-1.285233
0.244800	-1.240116
0.244900	-1.196622
0.245000	-1.235896
0.245100	-1.352421
0.245200	-1.467973
0.245300	-1.495238
0.245400	-1.441357
0.245500	-1.383257
0.245600	-1.392670
0.245700	-1.458560
0.245800	-1.527047
0.245900	-1.563075
0.246000	-1.586121
0.246100	-1.594884
0.246200	-1.641949
0.246300	-1.687391
0.246400	-1.756202
0.246500	-1.807486
0.246600	-1.857472
0.246700	-1.894150
0.246800	-1.924336
0.246900	-1.930503
0.247000	-1.930178
0.247100	-1.928880
0.247200	-1.953873
0.247300	-2.009377
0.247400	-2.060012
0.247500	-2.078513
0.247600	-2.045730
0.247700	-2.033396
0.247800	-2.051897
0.247900	-2.053195
0.248000	-2.048976
0.248100	-2.038265
0.248200	-2.028202
0.248300	-2.012947
0.248400	-2.001262
0.248500	-1.990551
0.248600	-1.984708
0.248700	-1.986331
0.248800	-2.000288
0.248900	-2.010675
0.249000	-2.025606
0.249100	-2.039563
0.249200	-2.060012
0.249300	-2.088250
0.249400	-2.116814
0.249500	-2.158685
0.249600	-2.258656
0.249700	-2.409588
0.249800	-2.496901
0.249900	-2.470934
0.250000	-2.397578
0.250100	-2.360576
0.250200	-2.439774
0.250300	-2.583889
0.250400	-2.710801
0.250500	-2.733847
0.250600	-2.682887
0.250700	-2.649455
0.250800	-2.660166
0.250900	-2.739689
0.251000	-2.807852
0.251100	-2.844530
0.251200	-2.834792
0.251300	-2.824406
0.251400	-2.807527
0.251500	-2.796491
0.251600	-2.789675
0.251700	-2.768902
0.251800	-2.751050
0.251900	-2.734171
0.252000	-2.721513
0.252100	-2.699116
0.252200	-2.685159
0.252300	-2.640367
0.252400	-2.608557
0.252500	-2.592328
0.252600	-2.580643
0.252700	-2.536824
0.252800	-2.440748
0.252900	-2.359926
0.253000	-2.359277
0.253100	-2.438800
0.253200	-2.515077
0.253300	-2.525464
0.253400	-2.439125
0.253500	-2.345320
0.253600	-2.334609
0.253700	-2.410561
0.253800	-2.504366
0.253900	-2.544939
0.254000	-2.512481
0.254100	-2.459249
0.254200	-2.440423
0.254300	-2.444318
0.254400	-2.450161
0.254500	-2.431984
0.254600	-2.406342
0.254700	-2.398227
0.254800	-2.384595
0.254900	-2.349540
0.255000	-2.284623
0.255100	-2.197635
0.255200	-2.128499
0.255300	-2.084355
0.255400	-2.048976
0.255500	-2.020737
0.255600	-1.956145
0.255700	-1.874999
0.255800	-1.797424
0.255900	-1.710760
0.256000	-1.656555
0.256100	-1.611114
0.256200	-1.549443
0.256300	-1.484202
0.256400	-1.409223
0.256500	-1.337815
0.256600	-1.276794
0.256700	-1.236221
0.256800	-1.208956
0.256900	-1.177472
0.257000	-1.165462
0.257100	-1.152154
0.257200	-1.132679
0.257300	-1.112880
0.257400	-1.096001
0.257500	-1.086264
0.257600	-1.085939
0.257700	-1.091782
0.257800	-1.085290
0.257900	-1.047639
0.258000	-0.929166
0.258100	-0.842178
0.258200	-0.865548
0.258300	-1.015180
0.258400	-1.124565
0.258500	-1.132355
0.258600	-1.017777
0.258700	-0.943448
0.258800	-0.927868
0.258900	-1.004794
0.259000	-1.085939
0.259100	-1.111257
0.259200	-1.064842
0.259300	-0.996030
0.259400	-0.960651
0.259500	-0.954159
0.259600	-0.962274
0.259700	-0.946694
0.259800	-0.928842
0.259900	-0.907419
0.260000	-0.883725
0.260100	-0.871391
0.260200	-0.854188
0.260300	-0.848670
0.260400	-0.837634
0.260500	-0.854512
0.260600	-0.861978
0.260700	-0.888593
0.260800	-0.893787
0.260900	-0.867171
0.261000	-0.848021
0.261100	-0.892164
0.261200	-0.993758
0.261300	-1.045691
0.261400	-1.013558
0.261500	-0.939228
0.261600	-0.902550
0.261700	-0.965519
0.261800	-1.096651
0.261900	-1.184612
0.262000	-1.175849
0.262100	-1.111906
0.262200	-1.081071
0.262300	-1.140794
0.262400	-1.244335
0.262500	-1.316717
0.262600	-1.345281
0.262700	-1.368326
0.262800	-1.399810
0.262900	-1.464402
0.263000	-1.535161
0.263100	-1.607543
0.263200	-1.656555
0.263300	-1.701672
0.263400	-1.740298
0.263500	-1.767562
0.263600	-1.780221
0.263700	-1.783142
0.263800	-1.776975
0.263900	-1.799047
0.264000	-1.844164
0.264100	-1.878570
0.264200	-1.874026
0.264300	-1.837672
0.264400	-1.841243
0.264500	-1.851954
0.264600	-1.861691
0.264700	-1.866885
0.264800	-1.867209
0.264900	-1.861042
0.265000	-1.849682
0.265100	-1.844813
0.265200	-1.836699
0.265300	-1.831505
0.265400	-1.826312
0.265500	-1.823391
0.265600	-1.814302
0.265700	-1.812355
0.265800	-1.810732
0.265900	-1.811057
0.266000	-1.818197
0.266100	-1.841243
0.266200	-1.874999
0.266300	-1.982436
0.266400	-2.118437
0.266500	-2.160308
0.266600	-2.092145
0.266700	-1.981787
0.266800	-1.961338
0.266900	-2.049950
0.267000	-2.189520
0.267100	-2.267745
0.267200	-2.248594
0.267300	-2.167773
0.267400	-2.130122
0.267500	-2.159009
0.267600	-2.247296
0.267700	-2.327144
0.267800	-2.347268
0.267900	-2.324871
0.268000	-2.299229
0.268100	-2.301826
0.268200	-2.332012
0.268300	-2.366094
0.268400	-2.382323
0.268500	-2.394332
0.268600	-2.397903
0.268700	-2.407965
0.268800	-2.450161
0.268900	-2.468986
0.269000	-2.473855
0.269100	-2.471583
0.269200	-2.488462
0.269300	-2.504691
0.269400	-2.488786
0.269500	-2.424843
0.269600	-2.382323
0.269700	-2.421922
0.269800	-2.527736
0.269900	-2.607584
0.270000	-2.597197
0.270100	-2.493979
0.270200	-2.397578
0.270300	-2.397903
0.270400	-2.486514
0.270500	-2.583889
0.270600	-2.606610
0.270700	-2.556624
0.270800	-2.481970
0.270900	-2.444318
0.271000	-2.442046
0.271100	-2.451784
0.271200	-2.454380
0.271300	-2.451459
0.271400	-2.435554
0.271500	-2.403096
0.271600	-2.364471
0.271700	-2.300852
0.271800	-2.237559
0.271900	-2.191468
0.272000	-2.159659
0.272100	-2.130771
0.272200	-2.086627
0.272300	-2.006131
0.272400	-1.924985
0.272500	-1.850656
0.272600	-1.767238
0.272700	-1.702970
0.272800	-1.654932
0.272900	-1.591963
0.273000	-1.519906
0.273100	-1.436488
0.273200	-1.357615
0.273300	-1.287830
0.273400	-1.253424
0.273500	-1.237844
0.273600	-1.211228
0.273700	-1.202140
0.273800	-1.166760
0.273900	-1.145013
0.274000	-1.109309
0.274100	-1.107686
0.274200	-1.099572
0.274300	-1.128135
0.274400	-1.140794
0.274500	-1.150856
0.274600	-1.092106
0.274700	-0.974283
0.274800	-0.907095
0.274900	-0.966493
0.275000	-1.136574
0.275100	-1.229080
0.275200	-1.204736
0.275300	-1.114827
0.275400	-1.031085
0.275500	-1.046340
0.275600	-1.126512
0.275700	-1.208956
0.275800	-1.213176
0.275900	-1.161892
0.276000	-1.086264
0.276100	-1.051534
0.276200	-1.062569
0.276300	-1.069061
0.276400	-1.072956
0.276500	-1.083992
0.276600	-1.069061
0.276700	-1.055429
0.276800	-1.038875
0.276900	-1.019400
0.277000	-1.023295
0.277100	-1.052183
0.277200	-1.074579
0.277300	-1.086589
0.277400	-1.096001
0.277500	-1.086913
0.277600	-1.065166
0.277700	-1.054779
0.277800	-1.111581
0.277900	-1.207009
0.278000	-1.230054
0.278100	-1.183963
0.278200	-1.103791
0.278300	-1.088536
0.278400	-1.163839
0.278500	-1.274522
0.278600	-1.327104
0.278700	-1.306655
0.278800	-1.238818
0.278900	-1.206035
0.279000	-1.246608
0.279100	-1.307629
0.279200	-1.333596
0.279300	-1.341386
0.279400	-1.349825
0.279500	-1.368001
0.279600	-1.389424
0.279700	-1.405653
0.279800	-1.429997
0.279900	-1.443304
0.280000	-1.459858
0.280100	-1.480956
0.280200	-1.474140
0.280300	-1.459534
0.280400	-1.432918
0.280500	-1.415715
0.280600	-1.442655
0.280700	-1.491343
0.280800	-1.518608
0.280900	-1.526073
0.281000	-1.500106
0.281100	-1.510168
0.281200	-1.524450
0.281300	-1.538083
0.281400	-1.545223
0.281500	-1.553338
0.281600	-1.559180
0.281700	-1.559505
0.281800	-1.561777
0.281900	-1.570216
0.282000	-1.579629
0.282100	-1.606245
0.282200	-1.632536
0.282300	-1.662073
0.282400	-1.694531
0.282500	-1.725042
0.282600	-1.756202
0.282700	-1.792231
0.282800	-1.830207
0.282900	-1.899992
0.283000	-2.038589
0.283100	-2.172642
0.283200	-2.200232
0.283300	-2.120709
0.283400	-2.030799
0.283500	-2.036317
0.283600	-2.169721
0.283700	-2.307344
0.283800	-2.367067
0.283900	-2.333635
0.284000	-2.272938
0.284100	-2.260279
0.284200	-2.322599
0.284300	-2.416729
0.284400	-2.481970
0.284500	-2.492032
0.284600	-2.488786
0.284700	-2.499497
0.284800	-2.513130
0.284900	-2.526113
0.285000	-2.534552
0.285100	-2.536175
0.285200	-2.550457
0.285300	-2.567335
0.285400	-2.581617
0.285500	-2.591030
0.285600	-2.581617
0.285700	-2.576748
0.285800	-2.580968
0.285900	-2.587784
0.286000	-2.575774
0.286100	-2.500796
0.286200	-2.409912
0.286300	-2.366743
0.286400	-2.412834
0.286500	-2.494953
0.286600	-2.548834
0.286700	-2.495278
0.286800	-2.384270
0.286900	-2.330714
0.287000	-2.374857
0.287100	-2.468986
0.287200	-2.542342
0.287300	-2.542018
0.287400	-2.506963
0.287500	-2.479698
0.287600	-2.491707
0.287700	-2.513130
0.287800	-2.527736
0.287900	-2.536500
0.288000	-2.543965
0.288100	-2.551755
0.288200	-2.554027
0.288300	-2.535851
0.288400	-2.488462
0.288500	-2.439449
0.288600	-2.410561
0.288700	-2.400824
0.288800	-2.392060
0.288900	-2.357330
0.289000	-2.274886
0.289100	-2.201205
0.289200	-2.097663
0.289300	-2.018790
0.289400	-1.952899
0.289500	-1.893176
0.289600	-1.817873
0.289700	-1.740947
0.289800	-1.659152
0.289900	-1.590989
0.290000	-1.542951
0.290100	-1.515686
0.290200	-1.494264
0.290300	-1.489395
0.290400	-1.480631
0.290500	-1.474464
0.290600	-1.457911
0.290700	-1.446550
0.290800	-1.437787
0.290900	-1.440383
0.291000	-1.443304
0.291100	-1.449147
0.291200	-1.419285
0.291300	-1.323858
0.291400	-1.170006
0.291500	-1.106713
0.291600	-1.170331
0.291700	-1.312173
0.291800	-1.337491
0.291900	-1.272899
0.292000	-1.153452
0.292100	-1.087887
0.292200	-1.117424
0.292300	-1.201166
0.292400	-1.246283
0.292500	-1.220316
0.292600	-1.134627
0.292700	-1.064192
0.292800	-1.029462
0.292900	-1.023620
0.293000	-1.012259
0.293100	-1.007066
0.293200	-0.999276
0.293300	-0.979801
0.293400	-0.976880
0.293500	-0.968441
0.293600	-0.964870
0.293700	-0.991486
0.293800	-1.020049
0.293900	-1.071982
0.294000	-1.110932
0.294100	-1.148584
0.294200	-1.158646
0.294300	-1.162216
0.294400	-1.190130
0.294500	-1.286856
0.294600	-1.389099
0.294700	-1.408574
0.294800	-1.366054
0.294900	-1.304059
0.295000	-1.327753
0.295100	-1.425128
0.295200	-1.540355
0.295300	-1.578980
0.295400	-1.528670
0.295500	-1.464402
0.295600	-1.457911
0.295700	-1.522503
0.295800	-1.585147
0.295900	-1.616632
0.296000	-1.633510
0.296100	-1.630913
0.296200	-1.652660
0.296300	-1.677328
0.296400	-1.704269
0.296500	-1.723095
0.296600	-1.740298
0.296700	-1.761395
0.296800	-1.778274
0.296900	-1.777949
0.297000	-1.762694
0.297100	-1.742894
0.297200	-1.742570
0.297300	-1.783467
0.297400	-1.825014
0.297500	-1.836049
0.297600	-1.838321
0.297700	-1.835076
0.297800	-1.849357
0.297900	-1.853252
0.298000	-1.851305
0.298100	-1.850331
0.298200	-1.848708
0.298300	-1.843839
0.298400	-1.837023
0.298500	-1.825663
0.298600	-1.822417
0.298700	-1.820794
0.298800	-1.810732
0.298900	-1.812030
0.299000	-1.808784
0.299100	-1.801319
0.299200	-1.802942
0.299300	-1.807811
0.299400	-1.822092
0.299500	-1.832154
0.299600	-1.897720
0.299700	-2.025606
0.299800	-2.136613
0.299900	-2.110647
0.300000	-2.020088
0.300100	-1.950303
0.300200	-1.996069
0.300300	-2.132394
0.300400	-2.262227
0.300500	-2.304423
0.300600	-2.267096
0.300700	-2.217759
0.300800	-2.228795
0.300900	-2.294036
0.301000	-2.383621
0.301100	-2.433282
0.301200	-2.451459
0.301300	-2.445616
0.301400	-2.446266
0.301500	-2.462819
0.301600	-2.475154
0.301700	-2.498848
0.301800	-2.514753
0.301900	-2.542992
0.302000	-2.554027
0.302100	-2.574801
0.302200	-2.590381
0.302300	-2.601417
0.302400	-2.613426
0.302500	-2.636472
0.302600	-2.659517
0.302700	-2.651078
0.302800	-2.598171
0.302900	-2.531307
0.303000	-2.536824
0.303100	-2.618295
0.303200	-2.722486
0.303300	-2.767279
0.303400	-2.714047
0.303500	-2.626410
0.303600	-2.592004
0.303700	-2.652052
0.303800	-2.740663
0.303900	-2.798764
0.304000	-2.787079
0.304100	-2.746181
0.304200	-2.701388
0.304300	-2.677045
0.304400	-2.665035
0.304500	-2.649780
0.304600	-2.634200
0.304700	-2.620242
0.304800	-2.593302
0.304900	-2.549483
0.305000	-2.490084
0.305100	-2.408614
0.305200	-2.353759
0.305300	-2.318055
0.305400	-2.288843
0.305500	-2.262551
0.305600	-2.207048
0.305700	-2.125577
0.305800	-2.068126
0.305900	-1.978541
0.306000	-1.906484
0.306100	-1.846436
0.306200	-1.785090
0.306300	-1.714655
0.306400	-1.641949
0.306500	-1.566321
0.306600	-1.498483
0.306700	-1.447849
0.306800	-1.418636
0.306900	-1.398837
0.307000	-1.377739
0.307100	-1.374493
0.307200	-1.350798
0.307300	-1.343333
0.307400	-1.324183
0.307500	-1.333271
0.307600	-1.340736
0.307700	-1.356316
0.307800	-1.364756
0.307900	-1.326130
0.308000	-1.219992
0.308100	-1.096975
0.308200	-1.079772
0.308300	-1.204087
0.308400	-1.311524
0.308500	-1.327753
0.308600	-1.209930
0.308700	-1.111257
0.308800	-1.061271
0.308900	-1.107686
0.309000	-1.168708
0.309100	-1.197596
0.309200	-1.163190
0.309300	-1.104765
0.309400	-1.070035
0.309500	-1.073281
0.309600	-1.078799
0.309700	-1.092431
0.309800	-1.087238
0.309900	-1.095352
0.310000	-1.092106
0.310100	-1.101844
0.310200	-1.100870
0.310300	-1.084641
0.310400	-1.098273
0.310500	-1.145338
0.310600	-1.196622
0.310700	-1.239142
0.310800	-1.265433
0.310900	-1.256020
0.311000	-1.258942
0.311100	-1.301787
0.311200	-1.426426
0.311300	-1.494913
0.311400	-1.488746
0.311500	-1.434541
0.311600	-1.390073
0.311700	-1.432918
0.311800	-1.547171
0.311900	-1.642274
0.312000	-1.630264
0.312100	-1.575085
0.312200	-1.533538
0.312300	-1.568593
0.312400	-1.640975
0.312500	-1.701023
0.312600	-1.708813
0.312700	-1.721147
0.312800	-1.722770
0.312900	-1.769510
0.313000	-1.815601
0.313100	-1.851954
0.313200	-1.864937
0.313300	-1.870455
0.313400	-1.905510
0.313500	-1.933100
0.313600	-1.949004
0.313700	-1.946083
0.313800	-1.936995
0.313900	-1.943486
0.314000	-1.993797
0.314100	-2.032097
0.314200	-2.040537
0.314300	-2.009701
0.314400	-1.987305
0.314500	-1.995095
0.314600	-1.985682
0.314700	-1.975945
0.314800	-1.957768
0.314900	-1.936670
0.315000	-1.921090
0.315100	-1.907458
0.315200	-1.891228
0.315300	-1.870780
0.315400	-1.862990
0.315500	-1.857796
0.315600	-1.862990
0.315700	-1.856498
0.315800	-1.852928
0.315900	-1.856823
0.316000	-1.867534
0.316100	-1.892527
0.316200	-1.915897
0.316300	-2.017491
0.316400	-2.159334
0.316500	-2.227821
0.316600	-2.178484
0.316700	-2.080785
0.316800	-2.053845
0.316900	-2.153167
0.317000	-2.321950
0.317100	-2.435554
0.317200	-2.447889
0.317300	-2.413158
0.317400	-2.394981
0.317500	-2.454705
0.317600	-2.561493
0.317700	-2.656920
0.317800	-2.699765
0.317900	-2.696520
0.318000	-2.690353
0.318100	-2.710477
0.318200	-2.750725
0.318300	-2.786429
0.318400	-2.800386
0.318500	-2.794869
0.318600	-2.811098
0.318700	-2.841609
0.318800	-2.878936
0.318900	-2.900034
0.319000	-2.899060
0.319100	-2.913666
0.319200	-2.944502
0.319300	-2.971767
0.319400	-2.958459
0.319500	-2.885427
0.319600	-2.827976
0.319700	-2.850697
0.319800	-2.931518
0.319900	-3.013314
0.320000	-3.014937
0.320100	-2.917561
0.320200	-2.816291
0.320300	-2.810449
0.320400	-2.889322
0.320500	-2.980206
0.320600	-2.999681
0.320700	-2.955213
0.320800	-2.874392
0.320900	-2.829274
0.321000	-2.819212
0.321100	-2.823107
0.321200	-2.813370
0.321300	-2.766305
0.321400	-2.709828
0.321500	-2.663087
0.321600	-2.622839
0.321700	-2.569607
0.321800	-2.491383
0.321900	-2.416079
0.322000	-2.357330
0.322100	-2.314485
0.322200	-2.280079
0.322300	-2.208346
0.322400	-2.121358
0.322500	-2.017167
0.322600	-1.940890
0.322700	-1.888632
0.322800	-1.848708
0.322900	-1.801644
0.323000	-1.748412
0.323100	-1.682846
0.323200	-1.629939
0.323300	-1.591314
0.323400	-1.588717
0.323500	-1.583200
0.323600	-1.586121
0.323700	-1.582550
0.323800	-1.591639
0.323900	-1.589691
0.324000	-1.595209
0.324100	-1.597806
0.324200	-1.611438
0.324300	-1.613061
0.324400	-1.631562
0.324500	-1.631562
0.324600	-1.574111
0.324700	-1.433892
0.324800	-1.334569
0.324900	-1.345605
0.325000	-1.470569
0.325100	-1.545873
0.325200	-1.509195
0.325300	-1.392670
0.325400	-1.278417
0.325500	-1.246608
0.325600	-1.307304
0.325700	-1.372221
0.325800	-1.381634
0.325900	-1.319963
0.326000	-1.236870
0.326100	-1.165462
0.326200	-1.157347
0.326300	-1.158646
0.326400	-1.161892
0.326500	-1.135600
0.326600	-1.106388
0.326700	-1.077176
0.326800	-1.063219
0.326900	-1.058350
0.327000	-1.069061
0.327100	-1.082044
0.327200	-1.116126
0.327300	-1.129109
0.327400	-1.157023
0.327500	-1.170655
0.327600	-1.171629
0.327700	-1.177147
0.327800	-1.225510
0.327900	-1.337166
0.328000	-1.392020
0.328100	-1.378388
0.328200	-1.311524
0.328300	-1.281013
0.328400	-1.318340
0.328500	-1.441357
0.328600	-1.513414
0.328700	-1.510493
0.328800	-1.458884
0.328900	-1.426102
0.329000	-1.444278
0.329100	-1.522827
0.329200	-1.596832
0.329300	-1.625071
0.329400	-1.633834
0.329500	-1.635457
0.329600	-1.661749
0.329700	-1.708488
0.329800	-1.758799
0.329900	-1.785739
0.330000	-1.804240
0.330100	-1.822417
0.330200	-1.829233
0.330300	-1.813653
0.330400	-1.789959
0.330500	-1.770484
0.330600	-1.780546
0.330700	-1.825987
0.330800	-1.846111
0.330900	-1.844489
0.331000	-1.824689
0.331100	-1.801968
0.331200	-1.796775
0.331300	-1.791257
0.331400	-1.788336
0.331500	-1.781520
0.331600	-1.771133
0.331700	-1.759448
0.331800	-1.751982
0.331900	-1.736727
0.332000	-1.729586
0.332100	-1.723744
0.332200	-1.737701
0.332300	-1.739973
0.332400	-1.751982
0.332500	-1.765940
0.332600	-1.788336
0.332700	-1.821443
0.332800	-1.859095
0.332900	-1.918169
0.333000	-2.048651
0.333100	-2.203477
0.333200	-2.257034
0.333300	-2.202828
0.333400	-2.134341
0.333500	-2.144079
0.333600	-2.258007
0.333700	-2.403096
0.333800	-2.489760
0.333900	-2.481645
0.334000	-2.431659
0.334100	-2.409588
0.334200	-2.459898
0.334300	-2.542992
0.334400	-2.607584
0.334500	-2.636147
0.334600	-2.636796
0.334700	-2.627383
0.334800	-2.637770
0.334900	-2.655947
0.335000	-2.672500
0.335100	-2.681264
0.335200	-2.694897
0.335300	-2.721188
0.335400	-2.745207
0.335500	-2.776043
0.335600	-2.788701
0.335700	-2.796167
0.335800	-2.811747
0.335900	-2.841284
0.336000	-2.852320
0.336100	-2.814668
0.336200	-2.743909
0.336300	-2.715021
0.336400	-2.759813
0.336500	-2.852320
0.336600	-2.927623
0.336700	-2.909122
0.336800	-2.828625
0.336900	-2.766305
0.337000	-2.785456
0.337100	-2.873093
0.337200	-2.960406
0.337300	-2.976960
0.337400	-2.949371
0.337500	-2.896139
0.337600	-2.876339
0.337700	-2.886726
0.337800	-2.899709
0.337900	-2.891919
0.338000	-2.878936
0.338100	-2.850697
0.338200	-2.823756
0.338300	-2.783833
0.338400	-2.731899
0.338500	-2.663737
0.338600	-2.599794
0.338700	-2.554027
0.338800	-2.508910
0.338900	-2.458275
0.339000	-2.356031
0.339100	-2.256384
0.339200	-2.146351
0.339300	-2.072995
0.339400	-2.019439
0.339500	-1.963286
0.339600	-1.899668
0.339700	-1.830856
0.339800	-1.758150
0.339900	-1.692584
0.340000	-1.648441
0.340100	-1.612737
0.340200	-1.596832
0.340300	-1.570541
0.340400	-1.572813
0.340500	-1.558856
0.340600	-1.542951
0.340700	-1.528020
0.340800	-1.505624
0.340900	-1.506598
0.341000	-1.508221
0.341100	-1.526073
0.341200	-1.493290
0.341300	-1.415390
0.341400	-1.261863
0.341500	-1.187858
0.341600	-1.232975
0.341700	-1.365080
0.341800	-1.417987
0.341900	-1.347228
0.342000	-1.211877
0.342100	-1.124889
0.342200	-1.141768
0.342300	-1.215448
0.342400	-1.266083
0.342500	-1.235896
0.342600	-1.166760
0.342700	-1.100870
0.342800	-1.071658
0.342900	-1.085290
0.343000	-1.100870
0.343100	-1.112555
0.343200	-1.105739
0.343300	-1.094054
0.343400	-1.099896
0.343500	-1.103467
0.343600	-1.098923
0.343700	-1.107037
0.343800	-1.130732
0.343900	-1.175199
0.344000	-1.207009
0.344100	-1.248555
0.344200	-1.237519
0.344300	-1.233300
0.344400	-1.249204
0.344500	-1.332946
0.344600	-1.441682
0.344700	-1.465051
0.344800	-1.431619
0.344900	-1.350149
0.345000	-1.355992
0.345100	-1.445901
0.345200	-1.566970
0.345300	-1.623448
0.345400	-1.598779
0.345500	-1.522827
0.345600	-1.499782
0.345700	-1.552689
0.345800	-1.633834
0.345900	-1.673758
0.346000	-1.685768
0.346100	-1.681223
0.346200	-1.703944
0.346300	-1.742245
0.346400	-1.794503
0.346500	-1.827935
0.346600	-1.845462
0.346700	-1.868832
0.346800	-1.900641
0.346900	-1.924336
0.347000	-1.920116
0.347100	-1.915248
0.347200	-1.917844
0.347300	-1.960689
0.347400	-2.018790
0.347500	-2.051248
0.347600	-2.060336
0.347700	-2.036966
0.347800	-2.044756
0.347900	-2.055792
0.348000	-2.061959
0.348100	-2.070398
0.348200	-2.078188
0.348300	-2.077864
0.348400	-2.074618
0.348500	-2.081110
0.348600	-2.085005
0.348700	-2.088250
0.348800	-2.093119
0.348900	-2.103506
0.349000	-2.107725
0.349100	-2.130771
0.349200	-2.132394
0.349300	-2.156088
0.349400	-2.173291
0.349500	-2.208995
0.349600	-2.267096
0.349700	-2.402122
0.349800	-2.528061
0.349900	-2.536175
0.350000	-2.447889
0.350100	-2.354084
0.350200	-2.383621
0.350300	-2.516051
0.350400	-2.662438
0.350500	-2.719890
0.350600	-2.668930
0.350700	-2.612128
0.350800	-2.615374
0.350900	-2.689703
0.351000	-2.792272
0.351100	-2.857838
0.351200	-2.879260
0.351300	-2.875690
0.351400	-2.876339
0.351500	-2.893867
0.351600	-2.921132
0.351700	-2.947098
0.351800	-2.966573
0.351900	-2.975662
0.352000	-2.991891
0.352100	-3.025648
0.352200	-3.039605
0.352300	-3.042851
0.352400	-3.050316
0.352500	-3.073686
0.352600	-3.104846
0.352700	-3.118803
0.352800	-3.058755
0.352900	-2.977934
0.353000	-2.968196
0.353100	-3.023051
0.353200	-3.121076
0.353300	-3.174632
0.353400	-3.121400
0.353500	-3.019805
0.353600	-2.950020
0.353700	-2.974039
0.353800	-3.071090
0.353900	-3.154832
0.354000	-3.163272
0.354100	-3.114259
0.354200	-3.053237
0.354300	-3.024674
0.354400	-3.033762
0.354500	-3.050965
0.354600	-3.058431
0.354700	-3.043825
0.354800	-3.013314
0.354900	-2.971442
0.355000	-2.928273
0.355100	-2.861084
0.355200	-2.802983
0.355300	-2.748778
0.355400	-2.712749
0.355500	-2.666009
0.355600	-2.592004
0.355700	-2.501445
0.355800	-2.435879
0.355900	-2.356356
0.356000	-2.283325
0.356100	-2.221005
0.356200	-2.153816
0.356300	-2.084355
0.356400	-2.004183
0.356500	-1.921090
0.356600	-1.840918
0.356700	-1.783142
0.356800	-1.751009
0.356900	-1.727314
0.357000	-1.709462
0.357100	-1.699076
0.357200	-1.672135
0.357300	-1.660450
0.357400	-1.630589
0.357500	-1.629939
0.357600	-1.611114
0.357700	-1.617605
0.357800	-1.607219
0.357900	-1.573137
0.358000	-1.465051
0.358100	-1.323534
0.358200	-1.279390
0.358300	-1.365405
0.358400	-1.516660
0.358500	-1.541653
0.358600	-1.448822
0.358700	-1.336517
0.358800	-1.269653
0.358900	-1.314770
0.359000	-1.393643
0.359100	-1.433567
0.359200	-1.392345
0.359300	-1.319963
0.359400	-1.255047
0.359500	-1.221939
0.359600	-1.220316
0.359700	-1.216421
0.359800	-1.227133
0.359900	-1.218693
0.360000	-1.221939
0.360100	-1.216746
0.360200	-1.220316
0.360300	-1.215123
0.360400	-1.233949
0.360500	-1.291725
0.360600	-1.333920
0.360700	-1.381634
0.360800	-1.399486
0.360900	-1.392670
0.361000	-1.385853
0.361100	-1.413443
0.361200	-1.514713
0.361300	-1.593911
0.361400	-1.601701
0.361500	-1.543276
0.361600	-1.466674
0.361700	-1.485500
0.361800	-1.587419
0.361900	-1.686092
0.362000	-1.712383
0.362100	-1.684145
0.362200	-1.656555
0.362300	-1.670512
0.362400	-1.746465
0.362500	-1.808135
0.362600	-1.835400
0.362700	-1.855849
0.362800	-1.850980
0.362900	-1.873701
0.363000	-1.912002
0.363100	-1.943162
0.363200	-1.955496
0.363300	-1.952575
0.363400	-1.969453
0.363500	-1.997367
0.363600	-2.003210
0.363700	-1.995744
0.363800	-1.984059
0.363900	-1.987630
0.364000	-2.046379
0.364100	-2.098312
0.364200	-2.128499
0.364300	-2.123954
0.364400	-2.100584
0.364500	-2.114542
0.364600	-2.116164
0.364700	-2.106427
0.364800	-2.095716
0.364900	-2.085654
0.365000	-2.077215
0.365100	-2.072995
0.365200	-2.064556
0.365300	-2.059362
0.365400	-2.058713
0.365500	-2.060661
0.365600	-2.072995
0.365700	-2.074293
0.365800	-2.076241
0.365900	-2.085329
0.366000	-2.098637
0.366100	-2.122007
0.366200	-2.144079
0.366300	-2.239181
0.366400	-2.384919
0.366500	-2.477750
0.366600	-2.441721
0.366700	-2.341101
0.366800	-2.282676
0.366900	-2.341425
0.367000	-2.491058
0.367100	-2.612777
0.367200	-2.634524
0.367300	-2.570581
0.367400	-2.520920
0.367500	-2.538447
0.367600	-2.622839
0.367700	-2.715021
0.367800	-2.756568
0.367900	-2.766305
0.368000	-2.768253
0.368100	-2.797790
0.368200	-2.828625
0.368300	-2.863356
0.368400	-2.879260
0.368500	-2.889322
0.368600	-2.912043
0.368700	-2.944826
0.368800	-2.975013
0.368900	-2.998707
0.369000	-3.007146
0.369100	-3.016235
0.369200	-3.047070
0.369300	-3.082775
0.369400	-3.086994
0.369500	-3.030192
0.369600	-2.977609
0.369700	-3.002602
0.369800	-3.118479
0.369900	-3.235654
0.370000	-3.285640
0.370100	-3.225592
0.370200	-3.134384
0.370300	-3.116207
0.370400	-3.196704
0.370500	-3.303492
0.370600	-3.353478
0.370700	-3.316151
0.370800	-3.258375
0.370900	-3.221697
0.371000	-3.213258
0.371100	-3.215854
0.371200	-3.202871
0.371300	-3.176255
0.371400	-3.147367
0.371500	-3.109391
0.371600	-3.064598
0.371700	-3.013314
0.371800	-2.936387
0.371900	-2.862707
0.372000	-2.804281
0.372100	-2.765981
0.372200	-2.734496
0.372300	-2.666333
0.372400	-2.578047
0.372500	-2.470934
0.372600	-2.377129
0.372700	-2.310590
0.372800	-2.266446
0.372900	-2.215487
0.373000	-2.147974
0.373100	-2.075267
0.373200	-2.004508
0.373300	-1.940890
0.373400	-1.905835
0.373500	-1.873052
0.373600	-1.850331
0.373700	-1.823066
0.373800	-1.808460
0.373900	-1.785415
0.374000	-1.763667
0.374100	-1.742894
0.374200	-1.719849
0.374300	-1.712383
0.374400	-1.710760
0.374500	-1.702321
0.374600	-1.644546
0.374700	-1.516660
0.374800	-1.391371
0.374900	-1.374168
0.375000	-1.493939
0.375100	-1.584173
0.375200	-1.579954
0.375300	-1.455963
0.375400	-1.347228
0.375500	-1.293672
0.375600	-1.347877
0.375700	-1.412469
0.375800	-1.430321
0.375900	-1.382932
0.376000	-1.295295
0.376100	-1.231352
0.376200	-1.201166
0.376300	-1.215772
0.376400	-1.219018
0.376500	-1.223562
0.376600	-1.211877
0.376700	-1.186235
0.376800	-1.182665
0.376900	-1.181042
0.377000	-1.198245
0.377100	-1.222264
0.377200	-1.255047
0.377300	-1.287180
0.377400	-1.323858
0.377500	-1.356641
0.377600	-1.362808
0.377700	-1.367352
0.377800	-1.411820
0.377900	-1.527047
0.378000	-1.600402
0.378100	-1.596507
0.378200	-1.527047
0.378300	-1.488097
0.378400	-1.528020
0.378500	-1.662722
0.378600	-1.763667
0.378700	-1.782169
0.378800	-1.719524
0.378900	-1.672135
0.379000	-1.696479
0.379100	-1.766913
0.379200	-1.817224
0.379300	-1.839944
0.379400	-1.841892
0.379500	-1.842541
0.379600	-1.861042
0.379700	-1.891878
0.379800	-1.931152
0.379900	-1.953873
0.380000	-1.970427
0.380100	-1.990551
0.380200	-2.004833
0.380300	-2.008403
0.380400	-2.006780
0.380500	-2.003859
0.380600	-2.023983
0.380700	-2.075267
0.380800	-2.102532
0.380900	-2.105453
0.381000	-2.093119
0.381100	-2.076565
0.381200	-2.085978
0.381300	-2.080460
0.381400	-2.080136
0.381500	-2.074293
0.381600	-2.072346
0.381700	-2.066179
0.381800	-2.069100
0.381900	-2.070398
0.382000	-2.069749
0.382100	-2.070074
0.382200	-2.079811
0.382300	-2.097663
0.382400	-2.109024
0.382500	-2.126227
0.382600	-2.148298
0.382700	-2.173940
0.382800	-2.212241
0.382900	-2.255735
0.383000	-2.379401
0.383100	-2.541044
0.383200	-2.620892
0.383300	-2.578371
0.383400	-2.498199
0.383500	-2.480347
0.383600	-2.584538
0.383700	-2.740338
0.383800	-2.840635
0.383900	-2.836740
0.384000	-2.790974
0.384100	-2.754296
0.384200	-2.791623
0.384300	-2.866602
0.384400	-2.948397
0.384500	-2.981180
0.384600	-2.970468
0.384700	-2.963977
0.384800	-2.972416
0.384900	-2.982154
0.385000	-3.001629
0.385100	-3.003576
0.385200	-3.010717
0.385300	-3.025323
0.385400	-3.042526
0.385500	-3.056808
0.385600	-3.053237
0.385700	-3.042526
0.385800	-3.053562
0.385900	-3.068168
0.386000	-3.080178
0.386100	-3.044474
0.386200	-2.967872
0.386300	-2.928273
0.386400	-2.959433
0.386500	-3.051615
0.386600	-3.127243
0.386700	-3.120751
0.386800	-3.037982
0.386900	-2.967223
0.387000	-2.979881
0.387100	-3.060054
0.387200	-3.145419
0.387300	-3.180475
0.387400	-3.166193
0.387500	-3.136006
0.387600	-3.122698
0.387700	-3.130489
0.387800	-3.151262
0.387900	-3.160675
0.388000	-3.156780
0.388100	-3.146393
0.388200	-3.129839
0.388300	-3.097056
0.388400	-3.044149
0.388500	-2.974688
0.388600	-2.924378
0.388700	-2.893542
0.388800	-2.872120
0.388900	-2.844205
0.389000	-2.767279
0.389100	-2.700415
0.389200	-2.623164
0.389300	-2.543641
0.389400	-2.483268
0.389500	-2.428414
0.389600	-2.362523
0.389700	-2.294361
0.389800	-2.217759
0.389900	-2.133367
0.390000	-2.065530
0.390100	-2.016517
0.390200	-1.976269
0.390300	-1.929529
0.390400	-1.900641
0.390500	-1.860718
0.390600	-1.831181
0.390700	-1.785415
0.390800	-1.767238
0.390900	-1.742570
0.391000	-1.742245
0.391100	-1.730885
0.391200	-1.731534
0.391300	-1.636756
0.391400	-1.506273
0.391500	-1.388775
0.391600	-1.429997
0.391700	-1.559505
0.391800	-1.640975
0.391900	-1.604947
0.392000	-1.481930
0.392100	-1.389099
0.392200	-1.391047
0.392300	-1.472517
0.392400	-1.543925
0.392500	-1.541004
0.392600	-1.496536
0.392700	-1.429023
0.392800	-1.407276
0.392900	-1.412145
0.393000	-1.428698
0.393100	-1.440383
0.393200	-1.440059
0.393300	-1.431619
0.393400	-1.440383
0.393500	-1.450121
0.393600	-1.461481
0.393700	-1.467973
0.393800	-1.499457
0.393900	-1.552689
0.394000	-1.614684
0.394100	-1.668240
0.394200	-1.701672
0.394300	-1.715954
0.394400	-1.730235
0.394500	-1.819496
0.394600	-1.941214
0.394700	-1.991525
0.394800	-1.983085
0.394900	-1.921415
0.395000	-1.924985
0.395100	-2.011000
0.395200	-2.141807
0.395300	-2.196337
0.395400	-2.184002
0.395500	-2.120059
0.395600	-2.087277
0.395700	-2.125902
0.395800	-2.185950
0.395900	-2.208022
0.396000	-2.204127
0.396100	-2.183678
0.396200	-2.189845
0.396300	-2.221979
0.396400	-2.249568
0.396500	-2.265473
0.396600	-2.269368
0.396700	-2.276184
0.396800	-2.289167
0.396900	-2.299879
0.397000	-2.294036
0.397100	-2.273587
0.397200	-2.258656
0.397300	-2.285921
0.397400	-2.335583
0.397500	-2.358304
0.397600	-2.346619
0.397700	-2.309291
0.397800	-2.313836
0.397900	-2.317731
0.398000	-2.314809
0.398100	-2.314809
0.398200	-2.308642
0.398300	-2.302475
0.398400	-2.296308
0.398500	-2.299229
0.398600	-2.303774
0.398700	-2.303774
0.398800	-2.300203
0.398900	-2.306695
0.399000	-2.307993
0.399100	-2.313836
0.399200	-2.310265
0.399300	-2.327793
0.399400	-2.344671
0.399500	-2.380375
0.399600	-2.439774
0.399700	-2.583240
0.399800	-2.722162
0.399900	-2.761112
0.400000	-2.688405
0.400100	-2.611154
0.400200	-2.628032
0.400300	-2.765007
0.400400	-2.926650
0.400500	-2.996435
0.400600	-2.975337
0.400700	-2.922430
0.400800	-2.918860
0.400900	-2.997084
0.401000	-3.108741
0.401100	-3.194756
0.401200	-3.218775
0.401300	-3.220398
0.401400	-3.232733
0.401500	-3.262594
0.401600	-3.293105
0.401700	-3.318423
0.401800	-3.334003
0.401900	-3.337573
0.402000	-3.359321
0.402100	-3.389507
0.402200	-3.407035
0.402300	-3.406385
0.402400	-3.401841
0.402500	-3.403789
0.402600	-3.418395
0.402700	-3.424562
0.402800	-3.370032
0.402900	-3.284991
0.403000	-3.251883
0.403100	-3.296351
0.403200	-3.387884
0.403300	-3.443064
0.403400	-3.400543
0.403500	-3.297000
0.403600	-3.224618
0.403700	-3.240847
0.403800	-3.323616
0.403900	-3.402166
0.404000	-3.410930
0.404100	-3.353803
0.404200	-3.289860
0.404300	-3.267788
0.404400	-3.278174
0.404500	-3.288886
0.404600	-3.274929
0.404700	-3.238251
0.404800	-3.198327
0.404900	-3.152885
0.405000	-3.101925
0.405100	-3.028569
0.405200	-2.962354
0.405300	-2.897437
0.405400	-2.849074
0.405500	-2.814993
0.405600	-2.771498
0.405700	-2.687107
0.405800	-2.628032
0.405900	-2.545588
0.406000	-2.483593
0.406100	-2.432309
0.406200	-2.384919
0.406300	-2.335258
0.406400	-2.270341
0.406500	-2.203477
0.406600	-2.141157
0.406700	-2.100584
0.406800	-2.076565
0.406900	-2.055792
0.407000	-2.031124
0.407100	-2.006455
0.407200	-1.981463
0.407300	-1.962312
0.407400	-1.931152
0.407500	-1.919143
0.407600	-1.911353
0.407700	-1.919143
0.407800	-1.923038
0.407900	-1.901940
0.408000	-1.810407
0.408100	-1.667266
0.408200	-1.609815
0.408300	-1.679276
0.408400	-1.812355
0.408500	-1.846436
0.408600	-1.760422
0.408700	-1.643896
0.408800	-1.571839
0.408900	-1.593262
0.409000	-1.670188
0.409100	-1.710111
0.409200	-1.694856
0.409300	-1.628641
0.409400	-1.577357
0.409500	-1.555285
0.409600	-1.568269
0.409700	-1.593586
0.409800	-1.615009
0.409900	-1.612412
0.410000	-1.611114
0.410100	-1.610464
0.410200	-1.616956
0.410300	-1.630264
0.410400	-1.662722
0.410500	-1.707515
0.410600	-1.758150
0.410700	-1.795477
0.410800	-1.829558
0.410900	-1.835400
0.411000	-1.837348
0.411100	-1.850006
0.411200	-1.945109
0.411300	-2.023658
0.411400	-2.033396
0.411500	-1.980489
0.411600	-1.912326
0.411700	-1.913300
0.411800	-2.002885
0.411900	-2.100584
0.412000	-2.117787
0.412100	-2.057090
0.412200	-2.000288
0.412300	-1.992823
0.412400	-2.042484
0.412500	-2.096365
0.412600	-2.122007
0.412700	-2.131095
0.412800	-2.123630
0.412900	-2.137912
0.413000	-2.163554
0.413100	-2.196337
0.413200	-2.231391
0.413300	-2.250217
0.413400	-2.271964
0.413500	-2.291764
0.413600	-2.289816
0.413700	-2.270666
0.413800	-2.255411
0.413900	-2.264499
0.414000	-2.316432
0.414100	-2.369664
0.414200	-2.393034
0.414300	-2.369015
0.414400	-2.349864
0.414500	-2.365444
0.414600	-2.376156
0.414700	-2.377129
0.414800	-2.378752
0.414900	-2.379401
0.415000	-2.372585
0.415100	-2.371611
0.415200	-2.374533
0.415300	-2.368041
0.415400	-2.369664
0.415500	-2.370638
0.415600	-2.382323
0.415700	-2.385569
0.415800	-2.400824
0.415900	-2.410561
0.416000	-2.433931
0.416100	-2.456328
0.416200	-2.484242
0.416300	-2.559545
0.416400	-2.704634
0.416500	-2.813694
0.416600	-2.803308
0.416700	-2.727355
0.416800	-2.660815
0.416900	-2.717618
0.417000	-2.862707
0.417100	-2.994812
0.417200	-3.037657
0.417300	-2.989944
0.417400	-2.949695
0.417500	-2.966573
0.417600	-3.052588
0.417700	-3.150937
0.417800	-3.201573
0.417900	-3.209363
0.418000	-3.210336
0.418100	-3.227864
0.418200	-3.249611
0.418300	-3.278499
0.418400	-3.297650
0.418500	-3.303492
0.418600	-3.311282
0.418700	-3.326213
0.418800	-3.353478
0.418900	-3.374252
0.419000	-3.368409
0.419100	-3.356399
0.419200	-3.366786
0.419300	-3.384638
0.419400	-3.388209
0.419500	-3.330108
0.419600	-3.250260
0.419700	-3.244093
0.419800	-3.330433
0.419900	-3.416772
0.420000	-3.448581
0.420100	-3.378471
0.420200	-3.286938
0.420300	-3.250585
0.420400	-3.310308
0.420500	-3.411254
0.420600	-3.460591
0.420700	-3.426834
0.420800	-3.353803
0.420900	-3.295377
0.421000	-3.284017
0.421100	-3.291482
0.421200	-3.282394
0.421300	-3.241821
0.421400	-3.207415
0.421500	-3.167167
0.421600	-3.122049
0.421700	-3.047395
0.421800	-2.951318
0.421900	-2.864654
0.422000	-2.804606
0.422100	-2.757541
0.422200	-2.723785
0.422300	-2.654324
0.422400	-2.555001
0.422500	-2.482294
0.422600	-2.386542
0.422700	-2.322924
0.422800	-2.272289
0.422900	-2.223926
0.423000	-2.153167
0.423100	-2.077539
0.423200	-1.997367
0.423300	-1.934723
0.423400	-1.898694
0.423500	-1.881816
0.423600	-1.859095
0.423700	-1.846436
0.423800	-1.829233
0.423900	-1.824364
0.424000	-1.801319
0.424100	-1.781195
0.424200	-1.764966
0.424300	-1.763018
0.424400	-1.777949
0.424500	-1.784765
0.424600	-1.750035
0.424700	-1.636431
0.424800	-1.508870
0.424900	-1.489720
0.425000	-1.586445
0.425100	-1.695830
0.425200	-1.692584
0.425300	-1.582550
0.425400	-1.460183
0.425500	-1.407276
0.425600	-1.443954
0.425700	-1.522178
0.425800	-1.546197
0.425900	-1.500756
0.426000	-1.427075
0.426100	-1.353720
0.426200	-1.332622
0.426300	-1.362483
0.426400	-1.388125
0.426500	-1.399810
0.426600	-1.392345
0.426700	-1.396240
0.426800	-1.406951
0.426900	-1.435514
0.427000	-1.458884
0.427100	-1.495238
0.427200	-1.534512
0.427300	-1.591963
0.427400	-1.660775
0.427500	-1.711734
0.427600	-1.733481
0.427700	-1.753281
0.427800	-1.818522
0.427900	-1.945434
0.428000	-2.044432
0.428100	-2.060012
0.428200	-2.013272
0.428300	-1.986656
0.428400	-2.029501
0.428500	-2.161282
0.428600	-2.277158
0.428700	-2.320976
0.428800	-2.280728
0.428900	-2.228146
0.429000	-2.236909
0.429100	-2.303774
0.429200	-2.384595
0.429300	-2.441721
0.429400	-2.472232
0.429500	-2.468662
0.429600	-2.477750
0.429700	-2.508261
0.429800	-2.564739
0.429900	-2.599469
0.430000	-2.616023
0.430100	-2.630954
0.430200	-2.641016
0.430300	-2.638744
0.430400	-2.636472
0.430500	-2.631278
0.430600	-2.639393
0.430700	-2.689703
0.430800	-2.715995
0.430900	-2.727355
0.431000	-2.703336
0.431100	-2.684835
0.431200	-2.694572
0.431300	-2.702687
0.431400	-2.705933
0.431500	-2.712749
0.431600	-2.711126
0.431700	-2.718916
0.431800	-2.714696
0.431900	-2.722486
0.432000	-2.728004
0.432100	-2.740663
0.432200	-2.748778
0.432300	-2.757866
0.432400	-2.766630
0.432500	-2.771823
0.432600	-2.784482
0.432700	-2.796167
0.432800	-2.827651
0.432900	-2.860110
0.433000	-2.967223
0.433100	-3.109715
0.433200	-3.175606
0.433300	-3.142174
0.433400	-3.052913
0.433500	-3.026946
0.433600	-3.097381
0.433700	-3.232083
0.433800	-3.344065
0.433900	-3.359321
0.434000	-3.326538
0.434100	-3.277525
0.434200	-3.297974
0.434300	-3.365812
0.434400	-3.451178
0.434500	-3.508630
0.434600	-3.524210
0.434700	-3.522911
0.434800	-3.526482
0.434900	-3.533623
0.435000	-3.550177
0.435100	-3.575170
0.435200	-3.592048
0.435300	-3.599838
0.435400	-3.617690
0.435500	-3.641710
0.435600	-3.639437
0.435700	-3.638139
0.435800	-3.664431
0.435900	-3.700135
0.436000	-3.728374
0.436100	-3.699161
0.436200	-3.624507
0.436300	-3.582310
0.436400	-3.616392
0.436500	-3.727075
0.436600	-3.807897
0.436700	-3.816012
0.436800	-3.763104
0.436900	-3.699810
0.437000	-3.688125
0.437100	-3.751744
0.437200	-3.843277
0.437300	-3.907545
0.437400	-3.907870
0.437500	-3.869893
0.437600	-3.839057
0.437700	-3.817959
0.437800	-3.815363
0.437900	-3.809196
0.438000	-3.801081
0.438100	-3.777062
0.438200	-3.744603
0.438300	-3.681634
0.438400	-3.590425
0.438500	-3.497269
0.438600	-3.429756
0.438700	-3.380743
0.438800	-3.331406
0.438900	-3.284666
0.439000	-3.201897
0.439100	-3.109715
0.439200	-3.038631
0.439300	-2.939308
0.439400	-2.868874
0.439500	-2.804281
0.439600	-2.733847
0.439700	-2.659192
0.439800	-2.578047
0.439900	-2.492681
0.440000	-2.423220
0.440100	-2.372261
0.440200	-2.332661
0.440300	-2.313836
0.440400	-2.299554
0.440500	-2.290790
0.440600	-2.264499
0.440700	-2.242103
0.440800	-2.214189
0.440900	-2.198284
0.441000	-2.199907
0.441100	-2.207048
0.441200	-2.195687
0.441300	-2.140833
0.441400	-1.991849
0.441500	-1.900641
0.441600	-1.897396
0.441700	-2.046379
0.441800	-2.109024
0.441900	-2.083057
0.442000	-1.966856
0.442100	-1.881816
0.442200	-1.876947
0.442300	-1.915572
0.442400	-1.970427
0.442500	-1.972374
0.442600	-1.928231
0.442700	-1.864937
0.442800	-1.817224
0.442900	-1.792880
0.443000	-1.777300
0.443100	-1.770484
0.443200	-1.773405
0.443300	-1.774703
0.443400	-1.759772
0.443500	-1.754255
0.443600	-1.745815
0.443700	-1.738025
0.443800	-1.745166
0.443900	-1.800994
0.444000	-1.850006
0.444100	-1.899668
0.444200	-1.895773
0.444300	-1.889930
0.444400	-1.906159
0.444500	-1.995095
0.444600	-2.112919
0.444700	-2.158685
0.444800	-2.129797
0.444900	-2.066828
0.445000	-2.068451
0.445100	-2.115840
0.445200	-2.221654
0.445300	-2.295659
0.445400	-2.292738
0.445500	-2.247945
0.445600	-2.204451
0.445700	-2.228470
0.445800	-2.288194
0.445900	-2.316432
0.446000	-2.345969
0.446100	-2.360900
0.446200	-2.378752
0.446300	-2.412834
0.446400	-2.443994
0.446500	-2.483268
0.446600	-2.502419
0.446700	-2.524490
0.446800	-2.551106
0.446900	-2.569607
0.447000	-2.571230
0.447100	-2.564089
0.447200	-2.558896
0.447300	-2.576424
0.447400	-2.632252
0.447500	-2.653675
0.447600	-2.655947
0.447700	-2.621865
0.447800	-2.607908
0.447900	-2.607584
0.448000	-2.609207
0.448100	-2.599794
0.448200	-2.593951
0.448300	-2.591354
0.448400	-2.587459
0.448500	-2.586810
0.448600	-2.577397
0.448700	-2.579020
0.448800	-2.587784
0.448900	-2.595899
0.449000	-2.609531
0.449100	-2.623164
0.449200	-2.646534
0.449300	-2.665035
0.449400	-2.683212
0.449500	-2.712424
0.449600	-2.761761
0.449700	-2.882506
0.449800	-3.022077
0.449900	-3.068818
0.450000	-2.999681
0.450100	-2.899709
0.450200	-2.885427
0.450300	-2.989294
0.450400	-3.127567
0.450500	-3.214556
0.450600	-3.191835
0.450700	-3.115882
0.450800	-3.076608
0.450900	-3.110364
0.451000	-3.183396
0.451100	-3.244742
0.451200	-3.257401
0.451300	-3.230136
0.451400	-3.225267
0.451500	-3.234031
0.451600	-3.260971
0.451700	-3.266814
0.451800	-3.271683
0.451900	-3.269411
0.452000	-3.269411
0.452100	-3.299597
0.452200	-3.338872
0.452300	-3.349908
0.452400	-3.348285
0.452500	-3.357698
0.452600	-3.382366
0.452700	-3.414500
0.452800	-3.383664
0.452900	-3.303492
0.453000	-3.272981
0.453100	-3.340170
0.453200	-3.461565
0.453300	-3.544009
0.453400	-3.532324
0.453500	-3.444686
0.453600	-3.375550
0.453700	-3.399894
0.453800	-3.507331
0.453900	-3.614769
0.454000	-3.648526
0.454100	-3.615094
0.454200	-3.568353
0.454300	-3.556344
0.454400	-3.584907
0.454500	-3.609900
0.454600	-3.600487
0.454700	-3.578740
0.454800	-3.554721
0.454900	-3.535246
0.455000	-3.504410
0.455100	-3.441116
0.455200	-3.359321
0.455300	-3.293430
0.455400	-3.248962
0.455500	-3.215530
0.455600	-3.175930
0.455700	-3.094460
0.455800	-3.018507
0.455900	-2.909122
0.456000	-2.820835
0.456100	-2.750725
0.456200	-2.687107
0.456300	-2.616997
0.456400	-2.545588
0.456500	-2.458924
0.456600	-2.378752
0.456700	-2.318055
0.456800	-2.284948
0.456900	-2.255735
0.457000	-2.232365
0.457100	-2.206399
0.457200	-2.194064
0.457300	-2.168422
0.457400	-2.158360
0.457500	-2.139859
0.457600	-2.148298
0.457700	-2.151869
0.457800	-2.165826
0.457900	-2.171668
0.458000	-2.098637
0.458100	-1.977243
0.458200	-1.880517
0.458300	-1.939591
0.458400	-2.087926
0.458500	-2.150895
0.458600	-2.112919
0.458700	-1.975945
0.458800	-1.892202
0.458900	-1.884088
0.459000	-1.959715
0.459100	-2.013596
0.459200	-2.002236
0.459300	-1.915897
0.459400	-1.835076
0.459500	-1.779897
0.459600	-1.772431
0.459700	-1.776002
0.459800	-1.768536
0.459900	-1.754904
0.460000	-1.737376
0.460100	-1.726990
0.460200	-1.733157
0.460300	-1.721796
0.460400	-1.741920
0.460500	-1.764641
0.460600	-1.799047
0.460700	-1.836374
0.460800	-1.876622
0.460900	-1.883439
0.461000	-1.891878
0.461100	-1.904212
0.461200	-1.987630
0.461300	-2.094417
0.461400	-2.135639
0.461500	-2.118761
0.461600	-2.058389
0.461700	-2.053195
0.461800	-2.136613
0.461900	-2.254761
0.462000	-2.308318
0.462100	-2.273912
0.462200	-2.216461
0.462300	-2.194064
0.462400	-2.241778
0.462500	-2.308967
0.462600	-2.345320
0.462700	-2.362199
0.462800	-2.354084
0.462900	-2.360900
0.463000	-2.393359
0.463100	-2.440099
0.463200	-2.482944
0.463300	-2.507287
0.463400	-2.527736
0.463500	-2.560519
0.463600	-2.575125
0.463700	-2.582591
0.463800	-2.578696
0.463900	-2.580643
0.464000	-2.624137
0.464100	-2.688405
0.464200	-2.719890
0.464300	-2.734821
0.464400	-2.724109
0.464500	-2.746181
0.464600	-2.760787
0.464700	-2.777990
0.464800	-2.785456
0.464900	-2.791623
0.465000	-2.794544
0.465100	-2.800711
0.465200	-2.807203
0.465300	-2.821160
0.465400	-2.828301
0.465500	-2.837714
0.465600	-2.850372
0.465700	-2.865628
0.465800	-2.881532
0.465900	-2.892568
0.466000	-2.915289
0.466100	-2.931194
0.466200	-2.950669
0.466300	-3.000979
0.466400	-3.121725
0.466500	-3.239224
0.466600	-3.247988
0.466700	-3.159377
0.466800	-3.059405
0.466900	-3.072063
0.467000	-3.197353
0.467100	-3.338547
0.467200	-3.395674
0.467300	-3.352180
0.467400	-3.288886
0.467500	-3.280447
0.467600	-3.344390
0.467700	-3.434300
0.467800	-3.485260
0.467900	-3.493374
0.468000	-3.470653
0.468100	-3.458968
0.468200	-3.469355
0.468300	-3.482663
0.468400	-3.489155
0.468500	-3.482987
0.468600	-3.482663
0.468700	-3.508305
0.468800	-3.537842
0.468900	-3.551799
0.469000	-3.551475
0.469100	-3.550501
0.469200	-3.575819
0.469300	-3.607628
0.469400	-3.635218
0.469500	-3.587828
0.469600	-3.525508
0.469700	-3.521288
0.469800	-3.585881
0.469900	-3.693968
0.470000	-3.754016
0.470100	-3.707925
0.470200	-3.614120
0.470300	-3.563485
0.470400	-3.597891
0.470500	-3.688125
0.470600	-3.755639
0.470700	-3.753367
0.470800	-3.682283
0.470900	-3.628726
0.471000	-3.613471
0.471100	-3.626129
0.471200	-3.631647
0.471300	-3.619638
0.471400	-3.591399
0.471500	-3.571924
0.471600	-3.549852
0.471700	-3.511226
0.471800	-3.442739
0.471900	-3.376199
0.472000	-3.341468
0.472100	-3.319721
0.472200	-3.299922
0.472300	-3.260322
0.472400	-3.182747
0.472500	-3.121400
0.472600	-3.026297
0.472700	-2.975337
0.472800	-2.929895
0.472900	-2.888024
0.473000	-2.829599
0.473100	-2.766630
0.473200	-2.691002
0.473300	-2.625436
0.473400	-2.580968
0.473500	-2.550132
0.473600	-2.528710
0.473700	-2.490734
0.473800	-2.478075
0.473900	-2.438800
0.474000	-2.418351
0.474100	-2.392060
0.474200	-2.378428
0.474300	-2.373559
0.474400	-2.370962
0.474500	-2.375506
0.474600	-2.346294
0.474700	-2.260604
0.474800	-2.123305
0.474900	-2.075916
0.475000	-2.182704
0.475100	-2.307669
0.475200	-2.359926
0.475300	-2.269043
0.475400	-2.163878
0.475500	-2.114217
0.475600	-2.161282
0.475700	-2.256060
0.475800	-2.294036
0.475900	-2.256709
0.476000	-2.176212
0.476100	-2.122656
0.476200	-2.118761
0.476300	-2.135315
0.476400	-2.148623
0.476500	-2.141807
0.476600	-2.135315
0.476700	-2.132069
0.476800	-2.142131
0.476900	-2.150570
0.477000	-2.143429
0.477100	-2.155439
0.477200	-2.174265
0.477300	-2.232041
0.477400	-2.269368
0.477500	-2.311888
0.477600	-2.303449
0.477700	-2.301501
0.477800	-2.310590
0.477900	-2.416729
0.478000	-2.493330
0.478100	-2.499497
0.478200	-2.432633
0.478300	-2.351163
0.478400	-2.351487
0.478500	-2.432633
0.478600	-2.526762
0.478700	-2.545913
0.478800	-2.481645
0.478900	-2.392385
0.479000	-2.363497
0.479100	-2.416729
0.479200	-2.489760
0.479300	-2.530333
0.479400	-2.538123
0.479500	-2.520595
0.479600	-2.528385
0.479700	-2.563765
0.479800	-2.622190
0.479900	-2.668605
0.480000	-2.696520
0.480100	-2.708854
0.480200	-2.711450
0.480300	-2.695546
0.480400	-2.674448
0.480500	-2.672176
0.480600	-2.688080
0.480700	-2.735145
0.480800	-2.790324
0.480900	-2.812071
0.481000	-2.826678
0.481100	-2.846153
0.481200	-2.856539
0.481300	-2.856539
0.481400	-2.856864
0.481500	-2.856864
0.481600	-2.843881
0.481700	-2.842258
0.481800	-2.845504
0.481900	-2.843556
0.482000	-2.839661
0.482100	-2.839661
0.482200	-2.839661
0.482300	-2.832520
0.482400	-2.833494
0.482500	-2.825055
0.482600	-2.816940
0.482700	-2.816291
0.482800	-2.808176
0.482900	-2.814019
0.483000	-2.874067
0.483100	-3.002278
0.483200	-3.077257
0.483300	-3.035061
0.483400	-2.913342
0.483500	-2.837064
0.483600	-2.877962
0.483700	-3.013638
0.483800	-3.127567
0.483900	-3.147691
0.484000	-3.084073
0.484100	-3.030517
0.484200	-3.034736
0.484300	-3.115882
0.484400	-3.202871
0.484500	-3.251559
0.484600	-3.247339
0.484700	-3.237601
0.484800	-3.251883
0.484900	-3.276876
0.485000	-3.307712
0.485100	-3.335626
0.485200	-3.351531
0.485300	-3.377173
0.485400	-3.403464
0.485500	-3.439818
0.485600	-3.456371
0.485700	-3.472601
0.485800	-3.482663
0.485900	-3.511226
0.486000	-3.537842
0.486100	-3.534921
0.486200	-3.464162
0.486300	-3.408008
0.486400	-3.424562
0.486500	-3.511551
0.486600	-3.611523
0.486700	-3.639437
0.486800	-3.587179
0.486900	-3.507981
0.487000	-3.484935
0.487100	-3.555370
0.487200	-3.672221
0.487300	-3.751419
0.487400	-3.747524
0.487500	-3.697538
0.487600	-3.657939
0.487700	-3.651772
0.487800	-3.672870
0.487900	-3.694942
0.488000	-3.698512
0.488100	-3.678388
0.488200	-3.645929
0.488300	-3.612821
0.488400	-3.562511
0.488500	-3.505384
0.488600	-3.452801
0.488700	-3.412228
0.488800	-3.382691
0.488900	-3.355750
0.489000	-3.287263
0.489100	-3.208064
0.489200	-3.125944
0.489300	-3.044474
0.489400	-2.994163
0.489500	-2.943528
0.489600	-2.891595
0.489700	-2.837714
0.489800	-2.770849
0.489900	-2.701388
0.490000	-2.646858
0.490100	-2.615374
0.490200	-2.600118
0.490300	-2.581292
0.490400	-2.576424
0.490500	-2.561168
0.490600	-2.543965
0.490700	-2.515077
0.490800	-2.510209
0.490900	-2.494953
0.491000	-2.513454
0.491100	-2.511182
0.491200	-2.509884
0.491300	-2.460547
0.491400	-2.333635
0.491500	-2.218084
0.491600	-2.204127
0.491700	-2.334284
0.491800	-2.440423
0.491900	-2.435230
0.492000	-2.332337
0.492100	-2.221654
0.492200	-2.213539
0.492300	-2.276833
0.492400	-2.380051
0.492500	-2.416729
0.492600	-2.397578
0.492700	-2.339802
0.492800	-2.312862
0.492900	-2.322599
0.493000	-2.357654
0.493100	-2.380700
0.493200	-2.391086
0.493300	-2.389788
0.493400	-2.393683
0.493500	-2.390113
0.493600	-2.377454
0.493700	-2.370313
0.493800	-2.376156
0.493900	-2.413158
0.494000	-2.448213
0.494100	-2.486189
0.494200	-2.479049
0.494300	-2.466714
0.494400	-2.445616
0.494500	-2.487488
0.494600	-2.588433
0.494700	-2.633550
0.494800	-2.613102
0.494900	-2.534228
0.495000	-2.474504
0.495100	-2.514753
0.495200	-2.608233
0.495300	-2.680940
0.495400	-2.671527
0.495500	-2.593302
0.495600	-2.515402
0.495700	-2.508261
0.495800	-2.554677
0.495900	-2.584863
0.496000	-2.587459
0.496100	-2.573502
0.496200	-2.547860
0.496300	-2.555975
0.496400	-2.564089
0.496500	-2.578696
0.496600	-2.575450
0.496700	-2.583240
0.496800	-2.596872
0.496900	-2.599794
0.497000	-2.583889
0.497100	-2.563116
0.497200	-2.545264
0.497300	-2.552080
0.497400	-2.594600
0.497500	-2.639068
0.497600	-2.638419
0.497700	-2.600767
0.497800	-2.585187
0.497900	-2.595899
0.498000	-2.586161
0.498100	-2.583240
0.498200	-2.579994
0.498300	-2.574152
0.498400	-2.574152
0.498500	-2.577397
0.498600	-2.588109
0.498700	-2.598171
0.498800	-2.613751
0.498900	-2.630629
0.499000	-2.645885
0.499100	-2.665360
0.499200	-2.686458
0.499300	-2.703011
0.499400	-2.731899
0.499500	-2.763059
0.499600	-2.804606
0.499700	-2.930545
0.499800	-3.090240
0.499900	-3.174957
0.500000	-3.135357
0.500100	-3.058106
0.500200	-3.046097
0.500300	-3.151911
0.500400	-3.321020
0.500500	-3.422939
0.500600	-3.424562
0.500700	-3.360619
0.500800	-3.329459
0.500900	-3.373602
0.501000	-3.469355
0.501100	-3.555045
0.501200	-3.593996
0.501300	-3.599838
0.501400	-3.608602
0.501500	-3.645280
0.501600	-3.689424
0.501700	-3.731944
0.501800	-3.759534
0.501900	-3.781606
0.502000	-3.816012
0.502100	-3.855287
0.502200	-3.893912
0.502300	-3.901702
0.502400	-3.896509
0.502500	-3.908843
0.502600	-3.930266
0.502700	-3.952662
0.502800	-3.922476
0.502900	-3.843277
0.503000	-3.787773
0.503100	-3.814064
0.503200	-3.900729
0.503300	-3.987393
0.503400	-3.978629
0.503500	-3.885798
0.503600	-3.786799
0.503700	-3.768298
0.503800	-3.845874
0.503900	-3.947144
0.504000	-3.997131
0.504100	-3.967918
0.504200	-3.904624
0.504300	-3.865024
0.504400	-3.868919
0.504500	-3.887745
0.504600	-3.899430
0.504700	-3.896185
0.504800	-3.871516
0.504900	-3.841330
0.505000	-3.797186
0.505100	-3.727075
0.505200	-3.648850
0.505300	-3.578091
0.505400	-3.524859
0.505500	-3.478768
0.505600	-3.438844
0.505700	-3.348934
0.505800	-3.256752
0.505900	-3.160999
0.506000	-3.060378
0.506100	-2.996760
0.506200	-2.942554
0.506300	-2.871795
0.506400	-2.811747
0.506500	-2.738391
0.506600	-2.674123
0.506700	-2.623488
0.506800	-2.589407
0.506900	-2.584214
0.507000	-2.565063
0.507100	-2.558572
0.507200	-2.547860
0.507300	-2.536824
0.507400	-2.529684
0.507500	-2.520920
0.507600	-2.521244
0.507700	-2.524815
0.507800	-2.541693
0.507900	-2.535202
0.508000	-2.481321
0.508100	-2.358304
0.508200	-2.270341
0.508300	-2.317406
0.508400	-2.464767
0.508500	-2.555001
0.508600	-2.517349
0.508700	-2.407316
0.508800	-2.315134
0.508900	-2.323573
0.509000	-2.400175
0.509100	-2.486839
0.509200	-2.497550
0.509300	-2.428089
0.509400	-2.358628
0.509500	-2.307344
0.509600	-2.330714
0.509700	-2.335258
0.509800	-2.342074
0.509900	-2.333635
0.510000	-2.315134
0.510100	-2.298905
0.510200	-2.297606
0.510300	-2.297606
0.510400	-2.301501
0.510500	-2.332986
0.510600	-2.370638
0.510700	-2.417378
0.510800	-2.451459
0.510900	-2.447889
0.511000	-2.440748
0.511100	-2.440748
0.511200	-2.519297
0.511300	-2.627708
0.511400	-2.664710
0.511500	-2.644586
0.511600	-2.553703
0.511700	-2.533903
0.511800	-2.590705
0.511900	-2.716644
0.512000	-2.787728
0.512100	-2.775718
0.512200	-2.695546
0.512300	-2.642314
0.512400	-2.674123
0.512500	-2.746506
0.512600	-2.795842
0.512700	-2.818563
0.512800	-2.824081
0.512900	-2.827651
0.513000	-2.855241
0.513100	-2.894516
0.513200	-2.947748
0.513300	-2.976311
0.513400	-2.996435
0.513500	-3.012015
0.513600	-3.020454
0.513700	-2.997734
0.513800	-2.968521
0.513900	-2.951967
0.514000	-2.975337
0.514100	-3.030517
0.514200	-3.054536
0.514300	-3.036359
0.514400	-2.989294
0.514500	-2.996111
0.514600	-3.003251
0.514700	-3.003901
0.514800	-3.010392
0.514900	-3.010392
0.515000	-3.007796
0.515100	-3.019481
0.515200	-3.021104
0.515300	-3.031815
0.515400	-3.038307
0.515500	-3.050965
0.515600	-3.053237
0.515700	-3.066545
0.515800	-3.089266
0.515900	-3.104846
0.516000	-3.135682
0.516100	-3.162298
0.516200	-3.186317
0.516300	-3.243119
0.516400	-3.367111
0.516500	-3.507656
0.516600	-3.548229
0.516700	-3.480391
0.516800	-3.385612
0.516900	-3.395350
0.517000	-3.520315
0.517100	-3.669948
0.517200	-3.751744
0.517300	-3.716040
0.517400	-3.644955
0.517500	-3.606979
0.517600	-3.657290
0.517700	-3.739410
0.517800	-3.798809
0.517900	-3.821854
0.518000	-3.810169
0.518100	-3.795563
0.518200	-3.796212
0.518300	-3.803678
0.518400	-3.816336
0.518500	-3.827697
0.518600	-3.830294
0.518700	-3.844251
0.518800	-3.874437
0.518900	-3.884175
0.519000	-3.889044
0.519100	-3.879306
0.519200	-3.895535
0.519300	-3.921502
0.519400	-3.936433
0.519500	-3.890991
0.519600	-3.806924
0.519700	-3.790045
0.519800	-3.853988
0.519900	-3.963374
0.520000	-4.036081
0.520100	-4.002973
0.520200	-3.906896
0.520300	-3.827697
0.520400	-3.826074
0.520500	-3.891316
0.520600	-3.959479
0.520700	-3.967593
0.520800	-3.891965
0.520900	-3.821530
0.521000	-3.783553
0.521100	-3.759534
0.521200	-3.744279
0.521300	-3.713118
0.521400	-3.684230
0.521500	-3.647877
0.521600	-3.606330
0.521700	-3.548878
0.521800	-3.475847
0.521900	-3.395350
0.522000	-3.337573
0.522100	-3.300895
0.522200	-3.278824
0.522300	-3.238575
0.522400	-3.155157
0.522500	-3.097056
0.522600	-3.008769
0.522700	-2.945151
0.522800	-2.887700
0.522900	-2.844854
0.523000	-2.787403
0.523100	-2.727355
0.523200	-2.654648
0.523300	-2.579994
0.523400	-2.521894
0.523500	-2.483917
0.523600	-2.453406
0.523700	-2.419650
0.523800	-2.408289
0.523900	-2.379401
0.524000	-2.348566
0.524100	-2.316757
0.524200	-2.288843
0.524300	-2.283974
0.524400	-2.277482
0.524500	-2.284623
0.524600	-2.259306
0.524700	-2.165501
0.524800	-2.029501
0.524900	-1.950303
0.525000	-2.022035
0.525100	-2.158036
0.525200	-2.210294
0.525300	-2.124604
0.525400	-1.994770
0.525500	-1.918493
0.525600	-1.933749
0.525700	-2.021386
0.525800	-2.080785
0.525900	-2.074618
0.526000	-2.002236
0.526100	-1.948355
0.526200	-1.924011
0.526300	-1.940890
0.526400	-1.955820
0.526500	-1.979840
0.526600	-1.982761
0.526700	-1.986007
0.526800	-1.996069
0.526900	-2.003859
0.527000	-2.002236
0.527100	-2.020412
0.527200	-2.049300
0.527300	-2.101883
0.527400	-2.147000
0.527500	-2.193415
0.527600	-2.191468
0.527700	-2.202179
0.527800	-2.201530
0.527900	-2.299554
0.528000	-2.384919
0.528100	-2.413158
0.528200	-2.366094
0.528300	-2.290141
0.528400	-2.291115
0.528500	-2.371936
0.528600	-2.478724
0.528700	-2.518323
0.528800	-2.486514
0.528900	-2.424519
0.529000	-2.404394
0.529100	-2.446266
0.529200	-2.512805
0.529300	-2.543965
0.529400	-2.556624
0.529500	-2.554027
0.529600	-2.580643
0.529700	-2.616023
0.529800	-2.658219
0.529900	-2.689379
0.530000	-2.711126
0.530100	-2.733522
0.530200	-2.757217
0.530300	-2.760138
0.530400	-2.752348
0.530500	-2.735794
0.530600	-2.731899
0.530700	-2.765981
0.530800	-2.812396
0.530900	-2.822458
0.531000	-2.791298
0.531100	-2.762410
0.531200	-2.754945
0.531300	-2.747479
0.531400	-2.734171
0.531500	-2.713723
0.531600	-2.696195
0.531700	-2.672825
0.531800	-2.655622
0.531900	-2.637445
0.532000	-2.624137
0.532100	-2.616672
0.532200	-2.615049
0.532300	-2.613426
0.532400	-2.607259
0.532500	-2.610830
0.532600	-2.611479
0.532700	-2.627059
0.532800	-2.649455
0.532900	-2.681264
0.533000	-2.750076
0.533100	-2.908473
0.533200	-3.036034
0.533300	-3.048044
0.533400	-2.979232
0.533500	-2.924053
0.533600	-2.986373
0.533700	-3.143796
0.533800	-3.310633
0.533900	-3.373927
0.534000	-3.346013
0.534100	-3.308361
0.534200	-3.327836
0.534300	-3.412553
0.534400	-3.525833
0.534500	-3.592373
0.534600	-3.619638
0.534700	-3.626454
0.534800	-3.645280
0.534900	-3.676765
0.535000	-3.717987
0.535100	-3.758885
0.535200	-3.783553
0.535300	-3.799783
0.535400	-3.831592
0.535500	-3.856910
0.535600	-3.874437
0.535700	-3.870867
0.535800	-3.874113
0.535900	-3.892290
0.536000	-3.911115
0.536100	-3.902027
0.536200	-3.839057
0.536300	-3.765052
0.536400	-3.763754
0.536500	-3.828022
0.536600	-3.922151
0.536700	-3.959479
0.536800	-3.899755
0.536900	-3.809196
0.537000	-3.752393
0.537100	-3.785501
0.537200	-3.858857
0.537300	-3.914686
0.537400	-3.897483
0.537500	-3.825749
0.537600	-3.768947
0.537700	-3.739085
0.537800	-3.730646
0.537900	-3.716040
0.538000	-3.694617
0.538100	-3.658263
0.538200	-3.618339
0.538300	-3.584907
0.538400	-3.528429
0.538500	-3.453775
0.538600	-3.383340
0.538700	-3.339846
0.538800	-3.299922
0.538900	-3.270060
0.539000	-3.211959
0.539100	-3.120102
0.539200	-3.038307
0.539300	-2.949371
0.539400	-2.903280
0.539500	-2.864005
0.539600	-2.825055
0.539700	-2.775393
0.539800	-2.719240
0.539900	-2.656596
0.540000	-2.603689
0.540100	-2.569932
0.540200	-2.541693
0.540300	-2.519622
0.540400	-2.505664
0.540500	-2.489760
0.540600	-2.487812
0.540700	-2.467688
0.540800	-2.458924
0.540900	-2.457626
0.541000	-2.459249
0.541100	-2.475803
0.541200	-2.465091
0.541300	-2.450161
0.541400	-2.339153
0.541500	-2.213215
0.541600	-2.176862
0.541700	-2.282676
0.541800	-2.420624
0.541900	-2.419325
0.542000	-2.331039
0.542100	-2.195687
0.542200	-2.164527
0.542300	-2.203477
0.542400	-2.295010
0.542500	-2.323898
0.542600	-2.296957
0.542700	-2.238857
0.542800	-2.200881
0.542900	-2.209644
0.543000	-2.221329
0.543100	-2.236585
0.543200	-2.251191
0.543300	-2.260604
0.543400	-2.274236
0.543500	-2.287544
0.543600	-2.298580
0.543700	-2.303449
0.543800	-2.337530
0.543900	-2.379401
0.544000	-2.440423
0.544100	-2.490084
0.544200	-2.517999
0.544300	-2.513130
0.544400	-2.522867
0.544500	-2.559221
0.544600	-2.666009
0.544700	-2.736768
0.544800	-2.734821
0.544900	-2.674448
0.545000	-2.614075
0.545100	-2.638419
0.545200	-2.734821
0.545300	-2.827976
0.545400	-2.843232
0.545500	-2.790000
0.545600	-2.721837
0.545700	-2.722811
0.545800	-2.781236
0.545900	-2.840635
0.546000	-2.849399
0.546100	-2.846153
0.546200	-2.838038
0.546300	-2.854917
0.546400	-2.875365
0.546500	-2.895814
0.546600	-2.892244
0.546700	-2.888998
0.546800	-2.895165
0.546900	-2.902955
0.547000	-2.890945
0.547100	-2.863680
0.547200	-2.842258
0.547300	-2.842582
0.547400	-2.881857
0.547500	-2.923079
0.547600	-2.940607
0.547700	-2.947098
0.547800	-2.939308
0.547900	-2.961056
0.548000	-2.986698
0.548100	-2.999681
0.548200	-3.012340
0.548300	-3.012989
0.548400	-3.025648
0.548500	-3.041228
0.548600	-3.052913
0.548700	-3.072388
0.548800	-3.088617
0.548900	-3.104197
0.549000	-3.126594
0.549100	-3.149314
0.549200	-3.169114
0.549300	-3.184045
0.549400	-3.207090
0.549500	-3.228188
0.549600	-3.250909
0.549700	-3.339196
0.549800	-3.476820
0.549900	-3.561862
0.550000	-3.498568
0.550100	-3.398271
0.550200	-3.335301
0.550300	-3.413202
0.550400	-3.542062
0.550500	-3.647552
0.550600	-3.644955
0.550700	-3.575170
0.550800	-3.515121
0.550900	-3.534272
0.551000	-3.616392
0.551100	-3.688125
0.551200	-3.715390
0.551300	-3.699161
0.551400	-3.681958
0.551500	-3.688450
0.551600	-3.713443
0.551700	-3.741682
0.551800	-3.758885
0.551900	-3.759209
0.552000	-3.775439
0.552100	-3.806274
0.552200	-3.835812
0.552300	-3.847497
0.552400	-3.851067
0.552500	-3.866647
0.552600	-3.898132
0.552700	-3.926696
0.552800	-3.923450
0.552900	-3.856585
0.553000	-3.806274
0.553100	-3.835812
0.553200	-3.923450
0.553300	-4.019203
0.553400	-4.032186
0.553500	-3.967593
0.553600	-3.890667
0.553700	-3.880604
0.553800	-3.951689
0.553900	-4.054582
0.554000	-4.105542
0.554100	-4.082172
0.554200	-4.029914
0.554300	-4.006544
0.554400	-4.008816
0.554500	-4.023747
0.554600	-4.026993
0.554700	-4.017580
0.554800	-4.000377
0.554900	-3.977331
0.555000	-3.943899
0.555100	-3.889368
0.555200	-3.816661
0.555300	-3.758885
0.555400	-3.711820
0.555500	-3.677089
0.555600	-3.635542
0.555700	-3.561537
0.555800	-3.475522
0.555900	-3.396323
0.556000	-3.303167
0.556100	-3.244093
0.556200	-3.189238
0.556300	-3.128541
0.556400	-3.058431
0.556500	-2.982154
0.556600	-2.911394
0.556700	-2.846477
0.556800	-2.807527
0.556900	-2.776692
0.557000	-2.748453
0.557100	-2.726706
0.557200	-2.707880
0.557300	-2.680615
0.557400	-2.664386
0.557500	-2.648157
0.557600	-2.642314
0.557700	-2.651078
0.557800	-2.659842
0.557900	-2.666009
0.558000	-2.605312
0.558100	-2.487812
0.558200	-2.377129
0.558300	-2.401149
0.558400	-2.531631
0.558500	-2.628357
0.558600	-2.596223
0.558700	-2.478075
0.558800	-2.367067
0.558900	-2.350838
0.559000	-2.413483
0.559100	-2.487488
0.559200	-2.491707
0.559300	-2.428089
0.559400	-2.346294
0.559500	-2.303449
0.559600	-2.306695
0.559700	-2.308967
0.559800	-2.315459
0.559900	-2.308967
0.560000	-2.292738
0.560100	-2.283325
0.560200	-2.280079
0.560300	-2.280079
0.560400	-2.279430
0.560500	-2.297931
0.560600	-2.346943
0.560700	-2.379077
0.560800	-2.413158
0.560900	-2.425168
0.561000	-2.424519
0.561100	-2.424519
0.561200	-2.474504
0.561300	-2.573178
0.561400	-2.623488
0.561500	-2.615049
0.561600	-2.544614
0.561700	-2.520595
0.561800	-2.584538
0.561900	-2.706582
0.562000	-2.793570
0.562100	-2.800062
0.562200	-2.743260
0.562300	-2.700090
0.562400	-2.733847
0.562500	-2.817265
0.562600	-2.882506
0.562700	-2.904253
0.562800	-2.905227
0.562900	-2.910420
0.563000	-2.942554
0.563100	-2.988970
0.563200	-3.033762
0.563300	-3.061677
0.563400	-3.081152
0.563500	-3.104846
0.563600	-3.126594
0.563700	-3.125944
0.563800	-3.111338
0.563900	-3.100951
0.564000	-3.120102
0.564100	-3.177553
0.564200	-3.215530
0.564300	-3.217802
0.564400	-3.177553
0.564500	-3.176580
0.564600	-3.192160
0.564700	-3.204494
0.564800	-3.203520
0.564900	-3.205143
0.565000	-3.190861
0.565100	-3.187615
0.565200	-3.180799
0.565300	-3.172035
0.565400	-3.156780
0.565500	-3.158403
0.565600	-3.152885
0.565700	-3.146718
0.565800	-3.150288
0.565900	-3.147042
0.566000	-3.155157
0.566100	-3.165544
0.566200	-3.183071
0.566300	-3.222346
0.566400	-3.333678
0.566500	-3.476171
0.566600	-3.523885
0.566700	-3.474548
0.566800	-3.374901
0.566900	-3.366786
0.567000	-3.485260
0.567100	-3.645929
0.567200	-3.740383
0.567300	-3.720908
0.567400	-3.656965
0.567500	-3.628077
0.567600	-3.681309
0.567700	-3.783878
0.567800	-3.859506
0.567900	-3.887745
0.568000	-3.880929
0.568100	-3.872165
0.568200	-3.887745
0.568300	-3.915011
0.568400	-3.937407
0.568500	-3.942276
0.568600	-3.941302
0.568700	-3.949741
0.568800	-3.976682
0.568900	-4.009465
0.569000	-4.009790
0.569100	-4.014009
0.569200	-4.023422
0.569300	-4.055881
0.569400	-4.078277
0.569500	-4.054258
0.569600	-3.982849
0.569700	-3.959154
0.569800	-3.996157
0.569900	-4.088015
0.570000	-4.161047
0.570100	-4.151634
0.570200	-4.064645
0.570300	-3.988042
0.570400	-3.991613
0.570500	-4.065943
0.570600	-4.152283
0.570700	-4.187987
0.570800	-4.141571
0.570900	-4.074382
0.571000	-4.034783
0.571100	-4.031212
0.571200	-4.039976
0.571300	-4.034458
0.571400	-4.018229
0.571500	-3.987069
0.571600	-3.948118
0.571700	-3.906896
0.571800	-3.848795
0.571900	-3.775114
0.572000	-3.713443
0.572100	-3.671571
0.572200	-3.637165
0.572300	-3.587179
0.572400	-3.496620
0.572500	-3.408658
0.572600	-3.313554
0.572700	-3.221697
0.572800	-3.148665
0.572900	-3.090240
0.573000	-3.021428
0.573100	-2.949371
0.573200	-2.863031
0.573300	-2.784482
0.573400	-2.723460
0.573500	-2.681264
0.573600	-2.656920
0.573700	-2.633875
0.573800	-2.617646
0.573900	-2.594276
0.574000	-2.575125
0.574100	-2.557922
0.574200	-2.536175
0.574300	-2.527412
0.574400	-2.523192
0.574500	-2.533254
0.574600	-2.512481
0.574700	-2.432633
0.574800	-2.292738
0.574900	-2.195687
0.575000	-2.250866
0.575100	-2.388490
0.575200	-2.455354
0.575300	-2.390762
0.575400	-2.258332
0.575500	-2.167124
0.575600	-2.174265
0.575700	-2.243076
0.575800	-2.302475
0.575900	-2.283000
0.576000	-2.208346
0.576100	-2.130122
0.576200	-2.097014
0.576300	-2.095716
0.576400	-2.114866
0.576500	-2.118112
0.576600	-2.113568
0.576700	-2.093768
0.576800	-2.079162
0.576900	-2.082083
0.577000	-2.082408
0.577100	-2.096040
0.577200	-2.127200
0.577300	-2.181730
0.577400	-2.228470
0.577500	-2.262551
0.577600	-2.290141
0.577700	-2.284623
0.577800	-2.312213
0.577900	-2.381674
0.578000	-2.494629
0.578100	-2.519622
0.578200	-2.497550
0.578300	-2.415106
0.578400	-2.414781
0.578500	-2.490409
0.578600	-2.605636
0.578700	-2.666982
0.578800	-2.652701
0.578900	-2.585837
0.579000	-2.555650
0.579100	-2.600767
0.579200	-2.675422
0.579300	-2.719565
0.579400	-2.745532
0.579500	-2.743260
0.579600	-2.756243
0.579700	-2.785131
0.579800	-2.818239
0.579900	-2.844205
0.580000	-2.863356
0.580100	-2.881857
0.580200	-2.902955
0.580300	-2.913017
0.580400	-2.898411
0.580500	-2.886726
0.580600	-2.877962
0.580700	-2.917237
0.580800	-2.976636
0.580900	-3.000979
0.581000	-2.988970
0.581100	-2.956511
0.581200	-2.959108
0.581300	-2.966249
0.581400	-2.968521
0.581500	-2.969495
0.581600	-2.968846
0.581700	-2.971118
0.581800	-2.966898
0.581900	-2.971118
0.582000	-2.971442
0.582100	-2.978583
0.582200	-2.984750
0.582300	-2.992216
0.582400	-2.999681
0.582500	-3.018507
0.582600	-3.033113
0.582700	-3.056808
0.582800	-3.078555
0.582900	-3.113610
0.583000	-3.176580
0.583100	-3.313879
0.583200	-3.451178
0.583300	-3.471952
0.583400	-3.392428
0.583500	-3.297000
0.583600	-3.326862
0.583700	-3.463512
0.583800	-3.594969
0.583900	-3.656316
0.584000	-3.609251
0.584100	-3.543360
0.584200	-3.532649
0.584300	-3.595618
0.584400	-3.680011
0.584500	-3.738436
0.584600	-3.760508
0.584700	-3.741033
0.584800	-3.744279
0.584900	-3.755314
0.585000	-3.784203
0.585100	-3.804327
0.585200	-3.824127
0.585300	-3.836785
0.585400	-3.857234
0.585500	-3.888394
0.585600	-3.902352
0.585700	-3.905273
0.585800	-3.908194
0.585900	-3.930915
0.586000	-3.956557
0.586100	-3.955584
0.586200	-3.907220
0.586300	-3.828346
0.586400	-3.819582
0.586500	-3.886772
0.586600	-3.976033
0.586700	-4.032186
0.586800	-3.997131
0.586900	-3.912738
0.587000	-3.868595
0.587100	-3.896509
0.587200	-3.978629
0.587300	-4.042248
0.587400	-4.053933
0.587500	-4.014334
0.587600	-3.969216
0.587700	-3.952013
0.587800	-3.943899
0.587900	-3.942276
0.588000	-3.933836
0.588100	-3.916309
0.588200	-3.887421
0.588300	-3.849769
0.588400	-3.786799
0.588500	-3.707925
0.588600	-3.634244
0.588700	-3.582310
0.588800	-3.538491
0.588900	-3.503761
0.589000	-3.440467
0.589100	-3.346986
0.589200	-3.273306
0.589300	-3.177553
0.589400	-3.116531
0.589500	-3.059080
0.589600	-3.005199
0.589700	-2.936712
0.589800	-2.869847
0.589900	-2.797465
0.590000	-2.722811
0.590100	-2.677694
0.590200	-2.646858
0.590300	-2.619593
0.590400	-2.608557
0.590500	-2.593951
0.590600	-2.589407
0.590700	-2.566362
0.590800	-2.558896
0.590900	-2.554027
0.591000	-2.560844
0.591100	-2.575450
0.591200	-2.579345
0.591300	-2.567011
0.591400	-2.460872
0.591500	-2.336556
0.591600	-2.275535
0.591700	-2.373884
0.591800	-2.499173
0.591900	-2.513779
0.592000	-2.423545
0.592100	-2.285921
0.592200	-2.213215
0.592300	-2.230418
0.592400	-2.294036
0.592500	-2.323573
0.592600	-2.284948
0.592700	-2.196661
0.592800	-2.125253
0.592900	-2.098312
0.593000	-2.087926
0.593100	-2.083057
0.593200	-2.080460
0.593300	-2.075267
0.593400	-2.063907
0.593500	-2.057090
0.593600	-2.061959
0.593700	-2.053195
0.593800	-2.067802
0.593900	-2.106427
0.594000	-2.174589
0.594100	-2.217110
0.594200	-2.254761
0.594300	-2.253139
0.594400	-2.251840
0.594500	-2.278131
0.594600	-2.382647
0.594700	-2.463793
0.594800	-2.482294
0.594900	-2.437826
0.595000	-2.380700
0.595100	-2.403096
0.595200	-2.510858
0.595300	-2.601741
0.595400	-2.634524
0.595500	-2.603689
0.595600	-2.566362
0.595700	-2.567984
0.595800	-2.624137
0.595900	-2.695221
0.596000	-2.716644
0.596100	-2.730276
0.596200	-2.734171
0.596300	-2.755918
0.596400	-2.789026
0.596500	-2.826029
0.596600	-2.844205
0.596700	-2.856539
0.596800	-2.880559
0.596900	-2.903280
0.597000	-2.908798
0.597100	-2.891595
0.597200	-2.875041
0.597300	-2.875690
0.597400	-2.919184
