LabVIEW Measurement	
Writer_Version	2
Reader_Version	2
Separator	Tab
Decimal_Separator	.
Multi_Headings	Yes
X_Columns	One
Time_Pref	Relative
Operator	as989
Description	Time Domain Data
Date	1903/12/31
Time	19:00:00
***End_of_Header***	
	
Channels	1	
Samples	15000	
Date	1903/12/31	
Time	19:00:00	
X_Dimension	Time	
X0	0.0000000000000000E+0	
Delta_X	0.000100	
***End_of_Header***		
X_Value	Untitled	Comment
0.000000	-1.293997	Tare Values:0.000000, 0.000000, 0.000000, 0.000000\0D\0A
0.000100	-1.257968
0.000200	-1.233624
0.000300	-1.214474
0.000400	-1.207009
0.000500	-1.205710
0.000600	-1.194674
0.000700	-1.113853
0.000800	-0.974283
0.000900	-0.874636
0.001000	-0.919753
0.001100	-1.064517
0.001200	-1.159944
0.001300	-1.117099
0.001400	-1.004145
0.001500	-0.912613
0.001600	-0.910016
0.001700	-0.990837
0.001800	-1.064192
0.001900	-1.066464
0.002000	-1.011610
0.002100	-0.938579
0.002200	-0.880479
0.002300	-0.880154
0.002400	-0.894761
0.002500	-0.915534
0.002600	-0.908718
0.002700	-0.906770
0.002800	-0.893462
0.002900	-0.889892
0.003000	-0.873338
0.003100	-0.879505
0.003200	-0.913911
0.003300	-0.951887
0.003400	-0.983696
0.003500	-1.014207
0.003600	-1.011935
0.003700	-1.022646
0.003800	-1.020374
0.003900	-1.105414
0.004000	-1.207982
0.004100	-1.258293
0.004200	-1.233624
0.004300	-1.153777
0.004400	-1.117424
0.004500	-1.175199
0.004600	-1.309252
0.004700	-1.386503
0.004800	-1.361834
0.004900	-1.293997
0.005000	-1.261214
0.005100	-1.306331
0.005200	-1.389424
0.005300	-1.448498
0.005400	-1.481605
0.005500	-1.490044
0.005600	-1.507247
0.005700	-1.541328
0.005800	-1.585796
0.005900	-1.639352
0.006000	-1.665643
0.006100	-1.682197
0.006200	-1.701997
0.006300	-1.708164
0.006400	-1.700698
0.006500	-1.674083
0.006600	-1.654608
0.006700	-1.678627
0.006800	-1.732183
0.006900	-1.758799
0.007000	-1.761720
0.007100	-1.713357
0.007200	-1.704269
0.007300	-1.702646
0.007400	-1.701348
0.007500	-1.689338
0.007600	-1.676030
0.007700	-1.660775
0.007800	-1.650064
0.007900	-1.641949
0.008000	-1.632211
0.008100	-1.621500
0.008200	-1.611763
0.008300	-1.611763
0.008400	-1.614035
0.008500	-1.616307
0.008600	-1.621176
0.008700	-1.626694
0.008800	-1.640975
0.008900	-1.660450
0.009000	-1.710111
0.009100	-1.842866
0.009200	-1.983410
0.009300	-2.002236
0.009400	-1.915248
0.009500	-1.810407
0.009600	-1.813329
0.009700	-1.944785
0.009800	-2.088250
0.009900	-2.155764
0.010000	-2.120059
0.010100	-2.047353
0.010200	-2.023334
0.010300	-2.080785
0.010400	-2.174914
0.010500	-2.255411
0.010600	-2.276833
0.010700	-2.262876
0.010800	-2.276833
0.010900	-2.308642
0.011000	-2.350514
0.011100	-2.383621
0.011200	-2.406342
0.011300	-2.433282
0.011400	-2.469960
0.011500	-2.524166
0.011600	-2.569607
0.011700	-2.599145
0.011800	-2.621216
0.011900	-2.653350
0.012000	-2.703011
0.012100	-2.734496
0.012200	-2.715670
0.012300	-2.649455
0.012400	-2.635822
0.012500	-2.710801
0.012600	-2.835442
0.012700	-2.932492
0.012800	-2.918535
0.012900	-2.819861
0.013000	-2.753971
0.013100	-2.788377
0.013200	-2.893217
0.013300	-2.989944
0.013400	-3.008120
0.013500	-2.956836
0.013600	-2.892244
0.013700	-2.863356
0.013800	-2.862057
0.013900	-2.881532
0.014000	-2.882831
0.014100	-2.864979
0.014200	-2.833819
0.014300	-2.801685
0.014400	-2.754945
0.014500	-2.695546
0.014600	-2.627059
0.014700	-2.566686
0.014800	-2.504366
0.014900	-2.461521
0.015000	-2.404719
0.015100	-2.298580
0.015200	-2.198284
0.015300	-2.067802
0.015400	-1.973348
0.015500	-1.909405
0.015600	-1.835076
0.015700	-1.760746
0.015800	-1.673758
0.015900	-1.577682
0.016000	-1.495887
0.016100	-1.434865
0.016200	-1.387801
0.016300	-1.358588
0.016400	-1.324507
0.016500	-1.308603
0.016600	-1.272250
0.016700	-1.248555
0.016800	-1.219992
0.016900	-1.197920
0.017000	-1.182665
0.017100	-1.175199
0.017200	-1.170006
0.017300	-1.144689
0.017400	-1.026216
0.017500	-0.877558
0.017600	-0.780832
0.017700	-0.859056
0.017800	-0.980450
0.017900	-1.031734
0.018000	-0.936307
0.018100	-0.799658
0.018200	-0.712345
0.018300	-0.714942
0.018400	-0.799983
0.018500	-0.866522
0.018600	-0.857758
0.018700	-0.786026
0.018800	-0.718188
0.018900	-0.677615
0.019000	-0.692221
0.019100	-0.714618
0.019200	-0.724030
0.019300	-0.715916
0.019400	-0.704231
0.019500	-0.686703
0.019600	-0.684107
0.019700	-0.664307
0.019800	-0.678264
0.019900	-0.695792
0.020000	-0.720785
0.020100	-0.743505
0.020200	-0.774990
0.020300	-0.761682
0.020400	-0.756489
0.020500	-0.759410
0.020600	-0.843477
0.020700	-0.932412
0.020800	-0.952212
0.020900	-0.900603
0.021000	-0.824651
0.021100	-0.816212
0.021200	-0.906770
0.021300	-1.021672
0.021400	-1.071009
0.021500	-1.036927
0.021600	-0.976231
0.021700	-0.963896
0.021800	-1.018426
0.021900	-1.096651
0.022000	-1.154751
0.022100	-1.190779
0.022200	-1.194350
0.022300	-1.220316
0.022400	-1.252125
0.022500	-1.306980
0.022600	-1.340412
0.022700	-1.365405
0.022800	-1.402083
0.022900	-1.434216
0.023000	-1.456288
0.023100	-1.456937
0.023200	-1.449796
0.023300	-1.455963
0.023400	-1.517309
0.023500	-1.593911
0.023600	-1.622799
0.023700	-1.638703
0.023800	-1.629615
0.023900	-1.652660
0.024000	-1.676030
0.024100	-1.689013
0.024200	-1.701672
0.024300	-1.711410
0.024400	-1.716928
0.024500	-1.736078
0.024600	-1.747438
0.024700	-1.758150
0.024800	-1.771457
0.024900	-1.771782
0.025000	-1.781844
0.025100	-1.795152
0.025200	-1.796126
0.025300	-1.797099
0.025400	-1.801644
0.025500	-1.817224
0.025600	-1.828584
0.025700	-1.894474
0.025800	-2.031773
0.025900	-2.134017
0.026000	-2.117463
0.026100	-2.000938
0.026200	-1.920441
0.026300	-1.952250
0.026400	-2.096040
0.026500	-2.238532
0.026600	-2.282351
0.026700	-2.236909
0.026800	-2.176212
0.026900	-2.185950
0.027000	-2.274561
0.027100	-2.385893
0.027200	-2.457626
0.027300	-2.484891
0.027400	-2.495602
0.027500	-2.513779
0.027600	-2.543965
0.027700	-2.564739
0.027800	-2.579345
0.027900	-2.594925
0.028000	-2.615049
0.028100	-2.647832
0.028200	-2.673150
0.028300	-2.675746
0.028400	-2.656271
0.028500	-2.651727
0.028600	-2.669579
0.028700	-2.696844
0.028800	-2.690028
0.028900	-2.619269
0.029000	-2.530982
0.029100	-2.528385
0.029200	-2.603040
0.029300	-2.703985
0.029400	-2.735470
0.029500	-2.669255
0.029600	-2.567984
0.029700	-2.516376
0.029800	-2.553378
0.029900	-2.643288
0.030000	-2.717293
0.030100	-2.712749
0.030200	-2.665684
0.030300	-2.627059
0.030400	-2.617646
0.030500	-2.631927
0.030600	-2.634849
0.030700	-2.632901
0.030800	-2.629980
0.030900	-2.623164
0.031000	-2.601741
0.031100	-2.533254
0.031200	-2.455679
0.031300	-2.386542
0.031400	-2.343373
0.031500	-2.317731
0.031600	-2.304098
0.031700	-2.248270
0.031800	-2.154465
0.031900	-2.092145
0.032000	-2.016517
0.032100	-1.948030
0.032200	-1.876298
0.032300	-1.814302
0.032400	-1.738675
0.032500	-1.655906
0.032600	-1.564698
0.032700	-1.496211
0.032800	-1.444278
0.032900	-1.394293
0.033000	-1.352097
0.033100	-1.315419
0.033200	-1.293672
0.033300	-1.264784
0.033400	-1.244335
0.033500	-1.212202
0.033600	-1.203763
0.033700	-1.195973
0.033800	-1.210254
0.033900	-1.207658
0.034000	-1.175524
0.034100	-1.055429
0.034200	-0.933061
0.034300	-0.917157
0.034400	-1.031734
0.034500	-1.172927
0.034600	-1.181691
0.034700	-1.075877
0.034800	-0.960326
0.034900	-0.914560
0.035000	-0.980450
0.035100	-1.072956
0.035200	-1.108336
0.035300	-1.066789
0.035400	-0.980775
0.035500	-0.933710
0.035600	-0.921701
0.035700	-0.944097
0.035800	-0.960326
0.035900	-0.958379
0.036000	-0.955457
0.036100	-0.952212
0.036200	-0.963247
0.036300	-0.973634
0.036400	-0.966818
0.036500	-0.977854
0.036600	-1.009013
0.036700	-1.063219
0.036800	-1.112880
0.036900	-1.142092
0.037000	-1.126837
0.037100	-1.122293
0.037200	-1.145338
0.037300	-1.253748
0.037400	-1.331973
0.037500	-1.326455
0.037600	-1.261863
0.037700	-1.176822
0.037800	-1.217395
0.037900	-1.325156
0.038000	-1.432918
0.038100	-1.430970
0.038200	-1.354044
0.038300	-1.282312
0.038400	-1.288479
0.038500	-1.357290
0.038600	-1.419285
0.038700	-1.424803
0.038800	-1.418961
0.038900	-1.401758
0.039000	-1.441032
0.039100	-1.488097
0.039200	-1.528345
0.039300	-1.540030
0.039400	-1.541004
0.039500	-1.561777
0.039600	-1.596507
0.039700	-1.618579
0.039800	-1.626369
0.039900	-1.623123
0.040000	-1.642274
0.040100	-1.701348
0.040200	-1.751009
0.040300	-1.771133
0.040400	-1.779247
0.040500	-1.770159
0.040600	-1.784765
0.040700	-1.796126
0.040800	-1.813978
0.040900	-1.823391
0.041000	-1.834426
0.041100	-1.850331
0.041200	-1.859095
0.041300	-1.870455
0.041400	-1.880842
0.041500	-1.897071
0.041600	-1.912651
0.041700	-1.920116
0.041800	-1.933749
0.041900	-1.941214
0.042000	-1.951276
0.042100	-1.964909
0.042200	-1.988279
0.042300	-2.006455
0.042400	-2.106752
0.042500	-2.247945
0.042600	-2.327468
0.042700	-2.277158
0.042800	-2.165826
0.042900	-2.113568
0.043000	-2.189520
0.043100	-2.351487
0.043200	-2.483268
0.043300	-2.491383
0.043400	-2.418676
0.043500	-2.361874
0.043600	-2.385244
0.043700	-2.466714
0.043800	-2.555326
0.043900	-2.595899
0.044000	-2.592653
0.044100	-2.569283
0.044200	-2.554027
0.044300	-2.567335
0.044400	-2.580968
0.044500	-2.579345
0.044600	-2.558896
0.044700	-2.546237
0.044800	-2.541044
0.044900	-2.543316
0.045000	-2.527087
0.045100	-2.508910
0.045200	-2.496576
0.045300	-2.510533
0.045400	-2.524166
0.045500	-2.504366
0.045600	-2.421597
0.045700	-2.370962
0.045800	-2.416404
0.045900	-2.528710
0.046000	-2.661789
0.046100	-2.705283
0.046200	-2.651402
0.046300	-2.588109
0.046400	-2.599794
0.046500	-2.706257
0.046600	-2.842907
0.046700	-2.926325
0.046800	-2.930545
0.046900	-2.891919
0.047000	-2.864979
0.047100	-2.874392
0.047200	-2.901007
0.047300	-2.919184
0.047400	-2.904253
0.047500	-2.880883
0.047600	-2.847451
0.047700	-2.814993
0.047800	-2.762735
0.047900	-2.686133
0.048000	-2.608233
0.048100	-2.540395
0.048200	-2.485865
0.048300	-2.435230
0.048400	-2.333635
0.048500	-2.220680
0.048600	-2.086952
0.048700	-1.966207
0.048800	-1.879544
0.048900	-1.798073
0.049000	-1.699076
0.049100	-1.614035
0.049200	-1.512441
0.049300	-1.420584
0.049400	-1.334569
0.049500	-1.270302
0.049600	-1.214474
0.049700	-1.171954
0.049800	-1.140469
0.049900	-1.108336
0.050000	-1.074904
0.050100	-1.047639
0.050200	-1.021672
0.050300	-1.012908
0.050400	-1.005118
0.050500	-0.993109
0.050600	-0.971037
0.050700	-0.899305
0.050800	-0.740259
0.050900	-0.619190
0.051000	-0.622761
0.051100	-0.749348
0.051200	-0.814264
0.051300	-0.769147
0.051400	-0.617568
0.051500	-0.511429
0.051600	-0.470532
0.051700	-0.536422
0.051800	-0.597768
0.051900	-0.613023
0.052000	-0.564336
0.052100	-0.496823
0.052200	-0.459821
0.052300	-0.454952
0.052400	-0.480594
0.052500	-0.494551
0.052600	-0.499420
0.052700	-0.497148
0.052800	-0.495849
0.052900	-0.500069
0.053000	-0.496823
0.053100	-0.499420
0.053200	-0.555248
0.053300	-0.602961
0.053400	-0.662360
0.053500	-0.708126
0.053600	-0.725978
0.053700	-0.741882
0.053800	-0.747725
0.053900	-0.838283
0.054000	-0.950913
0.054100	-1.007390
0.054200	-0.993109
0.054300	-0.910016
0.054400	-0.874961
0.054500	-0.937281
0.054600	-1.059648
0.054700	-1.127161
0.054800	-1.099572
0.054900	-1.038226
0.055000	-1.011610
0.055100	-1.059973
0.055200	-1.129758
0.055300	-1.182989
0.055400	-1.222264
0.055500	-1.241090
0.055600	-1.264784
0.055700	-1.305682
0.055800	-1.347877
0.055900	-1.401433
0.056000	-1.433892
0.056100	-1.475438
0.056200	-1.515686
0.056300	-1.528670
0.056400	-1.514063
0.056500	-1.491667
0.056600	-1.473166
0.056700	-1.497510
0.056800	-1.541328
0.056900	-1.572488
0.057000	-1.560479
0.057100	-1.508546
0.057200	-1.495238
0.057300	-1.504651
0.057400	-1.504326
0.057500	-1.507572
0.057600	-1.515037
0.057700	-1.520231
0.057800	-1.525424
0.057900	-1.529643
0.058000	-1.543276
0.058100	-1.544574
0.058200	-1.553663
0.058300	-1.574436
0.058400	-1.583524
0.058500	-1.589691
0.058600	-1.598130
0.058700	-1.609491
0.058800	-1.623448
0.058900	-1.641300
0.059000	-1.682522
0.059100	-1.805214
0.059200	-1.935696
0.059300	-1.972050
0.059400	-1.889606
0.059500	-1.787687
0.059600	-1.785090
0.059700	-1.899343
0.059800	-2.048651
0.059900	-2.133367
0.060000	-2.122332
0.060100	-2.062933
0.060200	-2.042160
0.060300	-2.095391
0.060400	-2.195687
0.060500	-2.283649
0.060600	-2.316432
0.060700	-2.319029
0.060800	-2.326494
0.060900	-2.352136
0.061000	-2.387191
0.061100	-2.416729
0.061200	-2.419001
0.061300	-2.442046
0.061400	-2.471908
0.061500	-2.497225
0.061600	-2.522543
0.061700	-2.533579
0.061800	-2.530333
0.061900	-2.533254
0.062000	-2.550132
0.062100	-2.558896
0.062200	-2.522218
0.062300	-2.431010
0.062400	-2.393359
0.062500	-2.443020
0.062600	-2.549808
0.062700	-2.623164
0.062800	-2.579345
0.062900	-2.455029
0.063000	-2.364471
0.063100	-2.384919
0.063200	-2.492032
0.063300	-2.579345
0.063400	-2.582915
0.063500	-2.524490
0.063600	-2.464442
0.063700	-2.441721
0.063800	-2.444643
0.063900	-2.453406
0.064000	-2.440423
0.064100	-2.421922
0.064200	-2.396929
0.064300	-2.369015
0.064400	-2.325196
0.064500	-2.254761
0.064600	-2.176862
0.064700	-2.118761
0.064800	-2.087601
0.064900	-2.059038
0.065000	-2.025930
0.065100	-1.948680
0.065200	-1.891553
0.065300	-1.820794
0.065400	-1.765290
0.065500	-1.723419
0.065600	-1.679925
0.065700	-1.626694
0.065800	-1.568918
0.065900	-1.490694
0.066000	-1.435190
0.066100	-1.385204
0.066200	-1.360211
0.066300	-1.334569
0.066400	-1.311524
0.066500	-1.299190
0.066600	-1.277118
0.066700	-1.254398
0.066800	-1.224536
0.066900	-1.213825
0.067000	-1.197920
0.067100	-1.204087
0.067200	-1.199219
0.067300	-1.180717
0.067400	-1.079772
0.067500	-0.937930
0.067600	-0.845749
0.067700	-0.923973
0.067800	-1.063543
0.067900	-1.135925
0.068000	-1.049262
0.068100	-0.935658
0.068200	-0.840880
0.068300	-0.861978
0.068400	-0.950589
0.068500	-1.022321
0.068600	-1.024269
0.068700	-0.953834
0.068800	-0.891839
0.068900	-0.855811
0.069000	-0.877233
0.069100	-0.895410
0.069200	-0.909691
0.069300	-0.907419
0.069400	-0.893138
0.069500	-0.895410
0.069600	-0.899629
0.069700	-0.898655
0.069800	-0.913911
0.069900	-0.955133
0.070000	-0.992784
0.070100	-1.029787
0.070200	-1.073281
0.070300	-1.091457
0.070400	-1.105739
0.070500	-1.127486
0.070600	-1.232001
0.070700	-1.343009
0.070800	-1.393968
0.070900	-1.340087
0.071000	-1.284584
0.071100	-1.270627
0.071200	-1.387476
0.071300	-1.527047
0.071400	-1.599104
0.071500	-1.560479
0.071600	-1.482579
0.071700	-1.459858
0.071800	-1.513414
0.071900	-1.591639
0.072000	-1.635457
0.072100	-1.652336
0.072200	-1.638379
0.072300	-1.639677
0.072400	-1.654283
0.072500	-1.678951
0.072600	-1.690312
0.072700	-1.699400
0.072800	-1.702970
0.072900	-1.714980
0.073000	-1.725691
0.073100	-1.720173
0.073200	-1.718226
0.073300	-1.723419
0.073400	-1.770808
0.073500	-1.830532
0.073600	-1.865911
0.073700	-1.886035
0.073800	-1.894799
0.073900	-1.902264
0.074000	-1.916546
0.074100	-1.922713
0.074200	-1.922713
0.074300	-1.924985
0.074400	-1.927906
0.074500	-1.926608
0.074600	-1.925634
0.074700	-1.924011
0.074800	-1.917195
0.074900	-1.914274
0.075000	-1.915248
0.075100	-1.909730
0.075200	-1.912002
0.075300	-1.914274
0.075400	-1.923687
0.075500	-1.940565
0.075600	-1.968804
0.075700	-2.044756
0.075800	-2.189845
0.075900	-2.310914
0.076000	-2.309616
0.076100	-2.211267
0.076200	-2.129472
0.076300	-2.175563
0.076400	-2.322924
0.076500	-2.465416
0.076600	-2.507287
0.076700	-2.465091
0.076800	-2.400824
0.076900	-2.393359
0.077000	-2.461196
0.077100	-2.548834
0.077200	-2.603364
0.077300	-2.611803
0.077400	-2.580968
0.077500	-2.572529
0.077600	-2.578371
0.077700	-2.580319
0.077800	-2.578047
0.077900	-2.565388
0.078000	-2.566362
0.078100	-2.574476
0.078200	-2.574476
0.078300	-2.573178
0.078400	-2.551431
0.078500	-2.534228
0.078600	-2.531631
0.078700	-2.530657
0.078800	-2.515077
0.078900	-2.432633
0.079000	-2.335258
0.079100	-2.325196
0.079200	-2.388165
0.079300	-2.484567
0.079400	-2.537798
0.079500	-2.478724
0.079600	-2.374208
0.079700	-2.317731
0.079800	-2.366743
0.079900	-2.472232
0.080000	-2.546562
0.080100	-2.549159
0.080200	-2.501120
0.080300	-2.452757
0.080400	-2.429387
0.080500	-2.437177
0.080600	-2.448213
0.080700	-2.446590
0.080800	-2.431335
0.080900	-2.403096
0.081000	-2.377454
0.081100	-2.332661
0.081200	-2.263525
0.081300	-2.194714
0.081400	-2.148947
0.081500	-2.125902
0.081600	-2.096365
0.081700	-2.047677
0.081800	-1.959715
0.081900	-1.869806
0.082000	-1.784441
0.082100	-1.736078
0.082200	-1.690312
0.082300	-1.642923
0.082400	-1.580927
0.082500	-1.511142
0.082600	-1.430321
0.082700	-1.376440
0.082800	-1.324507
0.082900	-1.289128
0.083000	-1.258617
0.083100	-1.234273
0.083200	-1.225834
0.083300	-1.202140
0.083400	-1.175849
0.083500	-1.151505
0.083600	-1.129109
0.083700	-1.132355
0.083800	-1.133978
0.083900	-1.137873
0.084000	-1.081720
0.084100	-0.964546
0.084200	-0.804527
0.084300	-0.777586
0.084400	-0.885997
0.084500	-1.015505
0.084600	-1.014207
0.084700	-0.905796
0.084800	-0.759410
0.084900	-0.717214
0.085000	-0.772393
0.085100	-0.876909
0.085200	-0.920727
0.085300	-0.898006
0.085400	-0.824975
0.085500	-0.784403
0.085600	-0.786026
0.085700	-0.813615
0.085800	-0.827897
0.085900	-0.823677
0.086000	-0.805825
0.086100	-0.792517
0.086200	-0.789921
0.086300	-0.786999
0.086400	-0.763305
0.086500	-0.773367
0.086600	-0.798360
0.086700	-0.846073
0.086800	-0.882102
0.086900	-0.913911
0.087000	-0.894761
0.087100	-0.896383
0.087200	-0.924297
0.087300	-1.056727
0.087400	-1.141768
0.087500	-1.144364
0.087600	-1.074254
0.087700	-1.013882
0.087800	-1.042770
0.087900	-1.170980
0.088000	-1.277118
0.088100	-1.304383
0.088200	-1.243362
0.088300	-1.176498
0.088400	-1.190455
0.088500	-1.270951
0.088600	-1.345281
0.088700	-1.377090
0.088800	-1.374493
0.088900	-1.373195
0.089000	-1.417987
0.089100	-1.485176
0.089200	-1.553338
0.089300	-1.601052
0.089400	-1.624746
0.089500	-1.660775
0.089600	-1.701672
0.089700	-1.719524
0.089800	-1.722770
0.089900	-1.723744
0.090000	-1.719200
0.090100	-1.770808
0.090200	-1.822417
0.090300	-1.840918
0.090400	-1.837997
0.090500	-1.828584
0.090600	-1.835400
0.090700	-1.830532
0.090800	-1.819171
0.090900	-1.796450
0.091000	-1.787037
0.091100	-1.767238
0.091200	-1.751009
0.091300	-1.745166
0.091400	-1.738999
0.091500	-1.734130
0.091600	-1.731858
0.091700	-1.744842
0.091800	-1.748737
0.091900	-1.757176
0.092000	-1.768212
0.092100	-1.785415
0.092200	-1.820469
0.092300	-1.856498
0.092400	-1.967505
0.092500	-2.137912
0.092600	-2.235611
0.092700	-2.212890
0.092800	-2.104479
0.092900	-2.066503
0.093000	-2.151219
0.093100	-2.333311
0.093200	-2.469311
0.093300	-2.488462
0.093400	-2.410561
0.093500	-2.348241
0.093600	-2.371936
0.093700	-2.467688
0.093800	-2.570906
0.093900	-2.627708
0.094000	-2.622190
0.094100	-2.598171
0.094200	-2.593627
0.094300	-2.607584
0.094400	-2.620567
0.094500	-2.626410
0.094600	-2.611479
0.094700	-2.602390
0.094800	-2.603364
0.094900	-2.602390
0.095000	-2.596872
0.095100	-2.583564
0.095200	-2.576748
0.095300	-2.578371
0.095400	-2.586486
0.095500	-2.557273
0.095600	-2.467039
0.095700	-2.395955
0.095800	-2.413158
0.095900	-2.507612
0.096000	-2.626734
0.096100	-2.648157
0.096200	-2.569283
0.096300	-2.458275
0.096400	-2.417053
0.096500	-2.489760
0.096600	-2.610180
0.096700	-2.689379
0.096800	-2.676395
0.096900	-2.612128
0.097000	-2.553054
0.097100	-2.546562
0.097200	-2.581617
0.097300	-2.599145
0.097400	-2.596872
0.097500	-2.586810
0.097600	-2.561168
0.097700	-2.528061
0.097800	-2.485540
0.097900	-2.428089
0.098000	-2.380700
0.098100	-2.343373
0.098200	-2.317406
0.098300	-2.294685
0.098400	-2.221329
0.098500	-2.147974
0.098600	-2.058713
0.098700	-1.970102
0.098800	-1.905510
0.098900	-1.845462
0.099000	-1.783467
0.099100	-1.712383
0.099200	-1.619877
0.099300	-1.527696
0.099400	-1.447849
0.099500	-1.389099
0.099600	-1.344956
0.099700	-1.297242
0.099800	-1.273223
0.099900	-1.228431
0.100000	-1.201166
0.100100	-1.159620
0.100200	-1.148584
0.100300	-1.132355
0.100400	-1.135925
0.100500	-1.155725
0.100600	-1.144689
0.100700	-1.108985
0.100800	-0.964221
0.100900	-0.871391
0.101000	-0.881128
0.101100	-1.030436
0.101200	-1.164164
0.101300	-1.137548
0.101400	-1.034331
0.101500	-0.918130
0.101600	-0.898655
0.101700	-0.972336
0.101800	-1.064192
0.101900	-1.099896
0.102000	-1.055104
0.102100	-0.986942
0.102200	-0.923648
0.102300	-0.909367
0.102400	-0.916508
0.102500	-0.935009
0.102600	-0.947343
0.102700	-0.940202
0.102800	-0.926245
0.102900	-0.911963
0.103000	-0.911639
0.103100	-0.907419
0.103200	-0.949939
0.103300	-0.995706
0.103400	-1.045691
0.103500	-1.083992
0.103600	-1.095352
0.103700	-1.103142
0.103800	-1.107686
0.103900	-1.163839
0.104000	-1.295944
0.104100	-1.350149
0.104200	-1.332622
0.104300	-1.266083
0.104400	-1.222588
0.104500	-1.272899
0.104600	-1.400135
0.104700	-1.487772
0.104800	-1.498159
0.104900	-1.427400
0.105000	-1.343333
0.105100	-1.335543
0.105200	-1.381958
0.105300	-1.407600
0.105400	-1.424154
0.105500	-1.417662
0.105600	-1.404030
0.105700	-1.402732
0.105800	-1.413443
0.105900	-1.429023
0.106000	-1.434216
0.106100	-1.440708
0.106200	-1.464402
0.106300	-1.477386
0.106400	-1.467648
0.106500	-1.451094
0.106600	-1.431619
0.106700	-1.462455
0.106800	-1.519906
0.106900	-1.554636
0.107000	-1.562751
0.107100	-1.548145
0.107200	-1.531266
0.107300	-1.544574
0.107400	-1.544899
0.107500	-1.541653
0.107600	-1.540679
0.107700	-1.547820
0.107800	-1.547820
0.107900	-1.559830
0.108000	-1.563075
0.108100	-1.576383
0.108200	-1.592612
0.108300	-1.607868
0.108400	-1.617605
0.108500	-1.631238
0.108600	-1.645519
0.108700	-1.663371
0.108800	-1.678951
0.108900	-1.709787
0.109000	-1.750684
0.109100	-1.869806
0.109200	-2.008078
0.109300	-2.056766
0.109400	-1.989253
0.109500	-1.887333
0.109600	-1.871754
0.109700	-1.990551
0.109800	-2.166150
0.109900	-2.259955
0.110000	-2.246971
0.110100	-2.184327
0.110200	-2.167773
0.110300	-2.229119
0.110400	-2.319678
0.110500	-2.404070
0.110600	-2.431335
0.110700	-2.445616
0.110800	-2.454380
0.110900	-2.481970
0.111000	-2.506638
0.111100	-2.512805
0.111200	-2.516376
0.111300	-2.523841
0.111400	-2.553378
0.111500	-2.579669
0.111600	-2.590705
0.111700	-2.569932
0.111800	-2.549808
0.111900	-2.560519
0.112000	-2.588109
0.112100	-2.604013
0.112200	-2.555001
0.112300	-2.454705
0.112400	-2.416729
0.112500	-2.464767
0.112600	-2.572204
0.112700	-2.659192
0.112800	-2.638095
0.112900	-2.540070
0.113000	-2.469636
0.113100	-2.491707
0.113200	-2.590381
0.113300	-2.689703
0.113400	-2.732548
0.113500	-2.697818
0.113600	-2.654648
0.113700	-2.629980
0.113800	-2.632252
0.113900	-2.636796
0.114000	-2.627383
0.114100	-2.605961
0.114200	-2.590381
0.114300	-2.555650
0.114400	-2.519297
0.114500	-2.453406
0.114600	-2.370313
0.114700	-2.306046
0.114800	-2.268394
0.114900	-2.243076
0.115000	-2.203477
0.115100	-2.102857
0.115200	-2.006455
0.115300	-1.900966
0.115400	-1.840594
0.115500	-1.803916
0.115600	-1.751009
0.115700	-1.695181
0.115800	-1.629939
0.115900	-1.547171
0.116000	-1.478359
0.116100	-1.435190
0.116200	-1.398512
0.116300	-1.364431
0.116400	-1.333920
0.116500	-1.309577
0.116600	-1.289452
0.116700	-1.259915
0.116800	-1.225834
0.116900	-1.194674
0.117000	-1.161567
0.117100	-1.157997
0.117200	-1.141118
0.117300	-1.113529
0.117400	-1.003496
0.117500	-0.854512
0.117600	-0.732145
0.117700	-0.794465
0.117800	-0.926894
0.117900	-0.982398
0.118000	-0.904823
0.118100	-0.766551
0.118200	-0.664632
0.118300	-0.677291
0.118400	-0.766875
0.118500	-0.839257
0.118600	-0.821730
0.118700	-0.758436
0.118800	-0.687677
0.118900	-0.673071
0.119000	-0.680861
0.119100	-0.709424
0.119200	-0.729548
0.119300	-0.729873
0.119400	-0.723057
0.119500	-0.729873
0.119600	-0.753567
0.119700	-0.762656
0.119800	-0.768498
0.119900	-0.798360
0.120000	-0.836011
0.120100	-0.899954
0.120200	-0.952861
0.120300	-0.989538
0.120400	-0.999925
0.120500	-1.035629
0.120600	-1.141118
0.120700	-1.285882
0.120800	-1.340412
0.120900	-1.317042
0.121000	-1.243362
0.121100	-1.240765
0.121200	-1.345605
0.121300	-1.476412
0.121400	-1.550741
0.121500	-1.534837
0.121600	-1.455314
0.121700	-1.437137
0.121800	-1.497185
0.121900	-1.594884
0.122000	-1.649739
0.122100	-1.670512
0.122200	-1.656231
0.122300	-1.677978
0.122400	-1.721147
0.122500	-1.773405
0.122600	-1.800670
0.122700	-1.800021
0.122800	-1.803591
0.122900	-1.813329
0.123000	-1.812355
0.123100	-1.791906
0.123200	-1.771457
0.123300	-1.749386
0.123400	-1.769510
0.123500	-1.799372
0.123600	-1.810407
0.123700	-1.802942
0.123800	-1.767562
0.123900	-1.761720
0.124000	-1.762369
0.124100	-1.759772
0.124200	-1.755877
0.124300	-1.744842
0.124400	-1.738350
0.124500	-1.738350
0.124600	-1.730235
0.124700	-1.720498
0.124800	-1.705567
0.124900	-1.704593
0.125000	-1.695181
0.125100	-1.690961
0.125200	-1.672135
0.125300	-1.669538
0.125400	-1.665319
0.125500	-1.670512
0.125600	-1.682197
0.125700	-1.736727
0.125800	-1.866560
0.125900	-1.977568
0.126000	-1.972699
0.126100	-1.863964
0.126200	-1.764966
0.126300	-1.792231
0.126400	-1.918818
0.126500	-2.077864
0.126600	-2.130446
0.126700	-2.094093
0.126800	-2.020088
0.126900	-2.011649
0.127000	-2.088250
0.127100	-2.206399
0.127200	-2.291115
0.127300	-2.335583
0.127400	-2.343697
0.127500	-2.352786
0.127600	-2.381024
0.127700	-2.418351
0.127800	-2.455354
0.127900	-2.481970
0.128000	-2.502743
0.128100	-2.526762
0.128200	-2.554677
0.128300	-2.567660
0.128400	-2.567660
0.128500	-2.566037
0.128600	-2.587784
0.128700	-2.609531
0.128800	-2.619918
0.128900	-2.561493
0.129000	-2.485540
0.129100	-2.491383
0.129200	-2.572204
0.129300	-2.681264
0.129400	-2.755594
0.129500	-2.713723
0.129600	-2.621865
0.129700	-2.585837
0.129800	-2.649130
0.129900	-2.762410
0.130000	-2.851346
0.130100	-2.876664
0.130200	-2.848100
0.130300	-2.809475
0.130400	-2.789351
0.130500	-2.798764
0.130600	-2.811747
0.130700	-2.820511
0.130800	-2.814019
0.130900	-2.778964
0.131000	-2.746506
0.131100	-2.698792
0.131200	-2.641340
0.131300	-2.575125
0.131400	-2.524815
0.131500	-2.476776
0.131600	-2.442046
0.131700	-2.375831
0.131800	-2.278781
0.131900	-2.167449
0.132000	-2.066828
0.132100	-2.007429
0.132200	-1.960040
0.132300	-1.908107
0.132400	-1.856174
0.132500	-1.795152
0.132600	-1.719200
0.132700	-1.665968
0.132800	-1.615658
0.132900	-1.590665
0.133000	-1.571839
0.133100	-1.554636
0.133200	-1.547495
0.133300	-1.522503
0.133400	-1.493290
0.133500	-1.469596
0.133600	-1.444603
0.133700	-1.432918
0.133800	-1.419935
0.133900	-1.404355
0.134000	-1.363457
0.134100	-1.222588
0.134200	-1.097300
0.134300	-1.031734
0.134400	-1.131705
0.134500	-1.233300
0.134600	-1.230378
0.134700	-1.114827
0.134800	-0.975581
0.134900	-0.890541
0.135000	-0.893787
0.135100	-0.936956
0.135200	-0.948966
0.135300	-0.879830
0.135400	-0.793816
0.135500	-0.712021
0.135600	-0.669176
0.135700	-0.639964
0.135800	-0.621787
0.135900	-0.623085
0.136000	-0.609453
0.136100	-0.599391
0.136200	-0.599066
0.136300	-0.583162
0.136400	-0.574723
0.136500	-0.591276
0.136600	-0.622436
0.136700	-0.661061
0.136800	-0.704231
0.136900	-0.722732
0.137000	-0.713644
0.137100	-0.693844
0.137200	-0.726302
0.137300	-0.832765
0.137400	-0.928517
0.137500	-0.924947
0.137600	-0.842178
0.137700	-0.785052
0.137800	-0.810369
0.137900	-0.929815
0.138000	-1.032059
0.138100	-1.042445
0.138200	-0.973309
0.138300	-0.912937
0.138400	-0.924297
0.138500	-0.999925
0.138600	-1.075228
0.138700	-1.106388
0.138800	-1.103791
0.138900	-1.103791
0.139000	-1.138846
0.139100	-1.196622
0.139200	-1.236546
0.139300	-1.247581
0.139400	-1.254398
0.139500	-1.291075
0.139600	-1.334894
0.139700	-1.350474
0.139800	-1.348851
0.139900	-1.349176
0.140000	-1.365080
0.140100	-1.426751
0.140200	-1.490694
0.140300	-1.528670
0.140400	-1.540355
0.140500	-1.536460
0.140600	-1.550741
0.140700	-1.559505
0.140800	-1.570216
0.140900	-1.578655
0.141000	-1.574760
0.141100	-1.578980
0.141200	-1.588717
0.141300	-1.594884
0.141400	-1.606245
0.141500	-1.614035
0.141600	-1.625720
0.141700	-1.648765
0.141800	-1.668565
0.141900	-1.694207
0.142000	-1.718550
0.142100	-1.757500
0.142200	-1.789959
0.142300	-1.836374
0.142400	-1.940565
0.142500	-2.110647
0.142600	-2.200881
0.142700	-2.177511
0.142800	-2.083057
0.142900	-2.037615
0.143000	-2.109348
0.143100	-2.264824
0.143200	-2.378103
0.143300	-2.391736
0.143400	-2.321626
0.143500	-2.262227
0.143600	-2.271315
0.143700	-2.342074
0.143800	-2.419325
0.143900	-2.454380
0.144000	-2.434581
0.144100	-2.399850
0.144200	-2.391411
0.144300	-2.398552
0.144400	-2.405044
0.144500	-2.397578
0.144600	-2.382972
0.144700	-2.362848
0.144800	-2.374208
0.144900	-2.411860
0.145000	-2.430036
0.145100	-2.414132
0.145200	-2.400499
0.145300	-2.417053
0.145400	-2.448213
0.145500	-2.448538
0.145600	-2.369989
0.145700	-2.304098
0.145800	-2.324222
0.145900	-2.440423
0.146000	-2.553703
0.146100	-2.590056
0.146200	-2.511507
0.146300	-2.408939
0.146400	-2.393683
0.146500	-2.491058
0.146600	-2.641665
0.146700	-2.730276
0.146800	-2.728978
0.146900	-2.674448
0.147000	-2.634524
0.147100	-2.658219
0.147200	-2.714372
0.147300	-2.744233
0.147400	-2.735794
0.147500	-2.707880
0.147600	-2.668605
0.147700	-2.639068
0.147800	-2.592004
0.147900	-2.514428
0.148000	-2.438476
0.148100	-2.376480
0.148200	-2.322924
0.148300	-2.278456
0.148400	-2.197635
0.148500	-2.097339
0.148600	-1.982761
0.148700	-1.884412
0.148800	-1.811381
0.148900	-1.756851
0.149000	-1.687066
0.149100	-1.609815
0.149200	-1.524125
0.149300	-1.427075
0.149400	-1.362483
0.149500	-1.322884
0.149600	-1.295944
0.149700	-1.275495
0.149800	-1.256345
0.149900	-1.234598
0.150000	-1.215448
0.150100	-1.189481
0.150200	-1.174226
0.150300	-1.152479
0.150400	-1.151505
0.150500	-1.159620
0.150600	-1.145662
0.150700	-1.094054
0.150800	-0.944746
0.150900	-0.837959
0.151000	-0.822379
0.151100	-0.952861
0.151200	-1.055104
0.151300	-1.033357
0.151400	-0.916183
0.151500	-0.799333
0.151600	-0.764603
0.151700	-0.822379
0.151800	-0.914885
0.151900	-0.953834
0.152000	-0.909042
0.152100	-0.838608
0.152200	-0.782131
0.152300	-0.783104
0.152400	-0.809071
0.152500	-0.847047
0.152600	-0.858083
0.152700	-0.861653
0.152800	-0.852240
0.152900	-0.850617
0.153000	-0.856784
0.153100	-0.887944
0.153200	-0.926570
0.153300	-0.982398
0.153400	-1.004145
0.153500	-1.054130
0.153600	-1.071658
0.153700	-1.083992
0.153800	-1.083343
0.153900	-1.118722
0.154000	-1.224211
0.154100	-1.276794
0.154200	-1.249204
0.154300	-1.164488
0.154400	-1.101844
0.154500	-1.145987
0.154600	-1.263810
0.154700	-1.351123
0.154800	-1.340412
0.154900	-1.265109
0.155000	-1.205061
0.155100	-1.211228
0.155200	-1.270951
0.155300	-1.327753
0.155400	-1.364756
0.155500	-1.373519
0.155600	-1.373844
0.155700	-1.388125
0.155800	-1.426751
0.155900	-1.466350
0.156000	-1.496211
0.156100	-1.530617
0.156200	-1.558207
0.156300	-1.566970
0.156400	-1.568269
0.156500	-1.568269
0.156600	-1.577682
0.156700	-1.618904
0.156800	-1.687391
0.156900	-1.739973
0.157000	-1.770159
0.157100	-1.786713
0.157200	-1.783467
0.157300	-1.805863
0.157400	-1.816574
0.157500	-1.821443
0.157600	-1.820794
0.157700	-1.826637
0.157800	-1.827610
0.157900	-1.828259
0.158000	-1.833777
0.158100	-1.839295
0.158200	-1.846436
0.158300	-1.868508
0.158400	-1.886360
0.158500	-1.912976
0.158600	-1.938293
0.158700	-1.971076
0.158800	-2.007105
0.158900	-2.043458
0.159000	-2.094742
0.159100	-2.221329
0.159200	-2.366743
0.159300	-2.433607
0.159400	-2.356681
0.159500	-2.255411
0.159600	-2.224900
0.159700	-2.322599
0.159800	-2.472232
0.159900	-2.550457
0.160000	-2.521894
0.160100	-2.426141
0.160200	-2.371611
0.160300	-2.382972
0.160400	-2.459249
0.160500	-2.512156
0.160600	-2.540395
0.160700	-2.530008
0.160800	-2.509235
0.160900	-2.498524
0.161000	-2.504366
0.161100	-2.512156
0.161200	-2.523192
0.161300	-2.538123
0.161400	-2.579020
0.161500	-2.615698
0.161600	-2.634849
0.161700	-2.642639
0.161800	-2.642963
0.161900	-2.664061
0.162000	-2.698143
0.162100	-2.715021
0.162200	-2.686782
0.162300	-2.610830
0.162400	-2.600767
0.162500	-2.672500
0.162600	-2.790974
0.162700	-2.898735
0.162800	-2.897112
0.162900	-2.823107
0.163000	-2.765656
0.163100	-2.790974
0.163200	-2.891919
0.163300	-3.007146
0.163400	-3.063300
0.163500	-3.042526
0.163600	-3.001953
0.163700	-2.980206
0.163800	-2.985075
0.163900	-2.982478
0.164000	-2.971118
0.164100	-2.964301
0.164200	-2.942554
0.164300	-2.907175
0.164400	-2.851671
0.164500	-2.767603
0.164600	-2.677369
0.164700	-2.604338
0.164800	-2.553054
0.164900	-2.507937
0.165000	-2.438476
0.165100	-2.323249
0.165200	-2.218408
0.165300	-2.096689
0.165400	-2.014895
0.165500	-1.957119
0.165600	-1.901615
0.165700	-1.850656
0.165800	-1.797099
0.165900	-1.752307
0.166000	-1.710760
0.166100	-1.693558
0.166200	-1.697128
0.166300	-1.711085
0.166400	-1.713033
0.166500	-1.741271
0.166600	-1.747763
0.166700	-1.739973
0.166800	-1.724393
0.166900	-1.705892
0.167000	-1.706216
0.167100	-1.684469
0.167200	-1.670837
0.167300	-1.636431
0.167400	-1.525748
0.167500	-1.359887
0.167600	-1.219667
0.167700	-1.259266
0.167800	-1.357939
0.167900	-1.393968
0.168000	-1.275171
0.168100	-1.090159
0.168200	-0.963572
0.168300	-0.922999
0.168400	-0.983047
0.168500	-0.996355
0.168600	-0.945071
0.168700	-0.836660
0.168800	-0.739610
0.168900	-0.691248
0.169000	-0.677940
0.169100	-0.677615
0.169200	-0.659114
0.169300	-0.647104
0.169400	-0.643209
0.169500	-0.644183
0.169600	-0.652298
0.169700	-0.645482
0.169800	-0.653596
0.169900	-0.673396
0.170000	-0.747400
0.170100	-0.808746
0.170200	-0.862302
0.170300	-0.854512
0.170400	-0.860355
0.170500	-0.875935
0.170600	-0.973309
0.170700	-1.083018
0.170800	-1.110932
0.170900	-1.073281
0.171000	-0.979801
0.171100	-0.976555
0.171200	-1.048612
0.171300	-1.173901
0.171400	-1.229405
0.171500	-1.188832
0.171600	-1.103791
0.171700	-1.061920
0.171800	-1.112231
0.171900	-1.192078
0.172000	-1.236870
0.172100	-1.254398
0.172200	-1.239142
0.172300	-1.248880
0.172400	-1.277118
0.172500	-1.324183
0.172600	-1.359887
0.172700	-1.376440
0.172800	-1.398512
0.172900	-1.432269
0.173000	-1.456612
0.173100	-1.454665
0.173200	-1.451094
0.173300	-1.447524
0.173400	-1.490694
0.173500	-1.541653
0.173600	-1.571515
0.173700	-1.579954
0.173800	-1.551390
0.173900	-1.536135
0.174000	-1.541004
0.174100	-1.541328
0.174200	-1.529968
0.174300	-1.515686
0.174400	-1.499782
0.174500	-1.494588
0.174600	-1.480307
0.174700	-1.470894
0.174800	-1.458235
0.174900	-1.443954
0.175000	-1.443304
0.175100	-1.439409
0.175200	-1.437787
0.175300	-1.444278
0.175400	-1.454665
0.175500	-1.465701
0.175600	-1.476736
0.175700	-1.536784
0.175800	-1.664994
0.175900	-1.791582
0.176000	-1.801644
0.176100	-1.706865
0.176200	-1.610464
0.176300	-1.635133
0.176400	-1.779897
0.176500	-1.934723
0.176600	-2.004833
0.176700	-1.960365
0.176800	-1.897720
0.176900	-1.896422
0.177000	-1.989253
0.177100	-2.114542
0.177200	-2.214189
0.177300	-2.250866
0.177400	-2.261902
0.177500	-2.287220
0.177600	-2.331363
0.177700	-2.376480
0.177800	-2.428089
0.177900	-2.455679
0.178000	-2.481321
0.178100	-2.524490
0.178200	-2.581617
0.178300	-2.613426
0.178400	-2.626085
0.178500	-2.629006
0.178600	-2.657245
0.178700	-2.699765
0.178800	-2.718916
0.178900	-2.673799
0.179000	-2.600118
0.179100	-2.612452
0.179200	-2.694897
0.179300	-2.821484
0.179400	-2.890296
0.179500	-2.858162
0.179600	-2.751699
0.179700	-2.680940
0.179800	-2.711126
0.179900	-2.833169
0.180000	-2.939958
0.180100	-2.968846
0.180200	-2.918210
0.180300	-2.862382
0.180400	-2.841933
0.180500	-2.849723
0.180600	-2.874716
0.180700	-2.880559
0.180800	-2.860759
0.180900	-2.819537
0.181000	-2.760463
0.181100	-2.701388
0.181200	-2.622839
0.181300	-2.549483
0.181400	-2.487488
0.181500	-2.429063
0.181600	-2.375506
0.181700	-2.293062
0.181800	-2.181081
0.181900	-2.063257
0.182000	-1.944135
0.182100	-1.850980
0.182200	-1.775028
0.182300	-1.699076
0.182400	-1.616632
0.182500	-1.534837
0.182600	-1.436813
0.182700	-1.350798
0.182800	-1.278092
0.182900	-1.229405
0.183000	-1.195973
0.183100	-1.173252
0.183200	-1.144364
0.183300	-1.128460
0.183400	-1.099247
0.183500	-1.097300
0.183600	-1.082694
0.183700	-1.099896
0.183800	-1.120994
0.183900	-1.135925
0.184000	-1.139171
0.184100	-1.043744
0.184200	-0.942474
0.184300	-0.908718
0.184400	-1.046340
0.184500	-1.209605
0.184600	-1.255696
0.184700	-1.186884
0.184800	-1.071658
0.184900	-1.022970
0.185000	-1.075228
0.185100	-1.169357
0.185200	-1.223887
0.185300	-1.195648
0.185400	-1.140469
0.185500	-1.071009
0.185600	-1.059648
0.185700	-1.059648
0.185800	-1.063219
0.185900	-1.064192
0.186000	-1.055104
0.186100	-1.040822
0.186200	-1.034006
0.186300	-1.034655
0.186400	-1.017777
0.186500	-1.019400
0.186600	-1.060622
0.186700	-1.094379
0.186800	-1.129109
0.186900	-1.140469
0.187000	-1.115152
0.187100	-1.100546
0.187200	-1.116775
0.187300	-1.210904
0.187400	-1.275495
0.187500	-1.267381
0.187600	-1.188832
0.187700	-1.102493
0.187800	-1.103791
0.187900	-1.196946
0.188000	-1.291400
0.188100	-1.320288
0.188200	-1.265758
0.188300	-1.192078
0.188400	-1.184612
0.188500	-1.249529
0.188600	-1.319639
0.188700	-1.355667
0.188800	-1.376765
0.188900	-1.384230
0.189000	-1.423180
0.189100	-1.476736
0.189200	-1.507572
0.189300	-1.537433
0.189400	-1.555610
0.189500	-1.582875
0.189600	-1.605596
0.189700	-1.614035
0.189800	-1.602674
0.189900	-1.586445
0.190000	-1.591639
0.190100	-1.638379
0.190200	-1.685768
0.190300	-1.712059
0.190400	-1.728937
0.190500	-1.729262
0.190600	-1.746140
0.190700	-1.767238
0.190800	-1.780221
0.190900	-1.794503
0.191000	-1.813329
0.191100	-1.833128
0.191200	-1.846436
0.191300	-1.857472
0.191400	-1.872727
0.191500	-1.893176
0.191600	-1.920116
0.191700	-1.944135
0.191800	-1.967505
0.191900	-1.986331
0.192000	-2.010350
0.192100	-2.032422
0.192200	-2.064556
0.192300	-2.103506
0.192400	-2.199907
0.192500	-2.357005
0.192600	-2.463144
0.192700	-2.443020
0.192800	-2.349864
0.192900	-2.306046
0.193000	-2.384919
0.193100	-2.542667
0.193200	-2.667307
0.193300	-2.687107
0.193400	-2.622515
0.193500	-2.561817
0.193600	-2.564089
0.193700	-2.635173
0.193800	-2.695870
0.193900	-2.718591
0.194000	-2.696520
0.194100	-2.683861
0.194200	-2.679966
0.194300	-2.687431
0.194400	-2.689054
0.194500	-2.684510
0.194600	-2.671851
0.194700	-2.675746
0.194800	-2.701064
0.194900	-2.714372
0.195000	-2.697493
0.195100	-2.667632
0.195200	-2.641990
0.195300	-2.649780
0.195400	-2.651727
0.195500	-2.621216
0.195600	-2.515077
0.195700	-2.427115
0.195800	-2.416729
0.195900	-2.480022
0.196000	-2.559545
0.196100	-2.554352
0.196200	-2.458600
0.196300	-2.338829
0.196400	-2.293062
0.196500	-2.347268
0.196600	-2.434905
0.196700	-2.482944
0.196800	-2.444643
0.196900	-2.371936
0.197000	-2.331363
0.197100	-2.320652
0.197200	-2.328766
0.197300	-2.322599
0.197400	-2.296957
0.197500	-2.269368
0.197600	-2.242103
0.197700	-2.219382
0.197800	-2.185301
0.197900	-2.122981
0.198000	-2.053195
0.198100	-2.017491
0.198200	-1.990551
0.198300	-1.971725
0.198400	-1.921090
0.198500	-1.846111
0.198600	-1.761071
0.198700	-1.680899
0.198800	-1.637729
0.198900	-1.597481
0.199000	-1.551066
0.199100	-1.496211
0.199200	-1.422531
0.199300	-1.349825
0.199400	-1.298216
0.199500	-1.269328
0.199600	-1.257319
0.199700	-1.247257
0.199800	-1.257319
0.199900	-1.258942
0.200000	-1.268679
0.200100	-1.270951
0.200200	-1.282636
0.200300	-1.296269
0.200400	-1.329051
0.200500	-1.366054
0.200600	-1.391371
0.200700	-1.368975
0.200800	-1.272899
0.200900	-1.170655
0.201000	-1.202464
0.201100	-1.370598
0.201200	-1.510493
0.201300	-1.517309
0.201400	-1.430970
0.201500	-1.327429
0.201600	-1.316717
0.201700	-1.397863
0.201800	-1.494913
0.201900	-1.530942
0.202000	-1.489395
0.202100	-1.425777
0.202200	-1.371896
0.202300	-1.361510
0.202400	-1.363782
0.202500	-1.354044
0.202600	-1.341386
0.202700	-1.313796
0.202800	-1.280040
0.202900	-1.259591
0.203000	-1.237195
0.203100	-1.204736
0.203200	-1.188507
0.203300	-1.195973
0.203400	-1.203763
0.203500	-1.219992
0.203600	-1.210904
0.203700	-1.180393
0.203800	-1.159944
0.203900	-1.200192
0.204000	-1.310226
0.204100	-1.348202
0.204200	-1.319963
0.204300	-1.229080
0.204400	-1.173901
0.204500	-1.215772
0.204600	-1.336192
0.204700	-1.425777
0.204800	-1.429023
0.204900	-1.357939
0.205000	-1.293347
0.205100	-1.306980
0.205200	-1.389099
0.205300	-1.452717
0.205400	-1.490369
0.205500	-1.495238
0.205600	-1.497185
0.205700	-1.532240
0.205800	-1.578331
0.205900	-1.627018
0.206000	-1.650064
0.206100	-1.673109
0.206200	-1.697128
0.206300	-1.712383
0.206400	-1.719200
0.206500	-1.713682
0.206600	-1.704269
0.206700	-1.728288
0.206800	-1.782818
0.206900	-1.823066
0.207000	-1.837348
0.207100	-1.840594
0.207200	-1.835400
0.207300	-1.842541
0.207400	-1.848384
0.207500	-1.846761
0.207600	-1.842541
0.207700	-1.842866
0.207800	-1.844489
0.207900	-1.850006
0.208000	-1.853901
0.208100	-1.850656
0.208200	-1.856174
0.208300	-1.856823
0.208400	-1.858770
0.208500	-1.861367
0.208600	-1.863314
0.208700	-1.861042
0.208800	-1.876298
0.208900	-1.890255
0.209000	-1.922713
0.209100	-2.022360
0.209200	-2.160957
0.209300	-2.200556
0.209400	-2.116489
0.209500	-1.988279
0.209600	-1.939267
0.209700	-2.017491
0.209800	-2.157387
0.209900	-2.230742
0.210000	-2.206399
0.210100	-2.129797
0.210200	-2.091496
0.210300	-2.134341
0.210400	-2.248270
0.210500	-2.342399
0.210600	-2.392709
0.210700	-2.410886
0.210800	-2.419650
0.210900	-2.444318
0.211000	-2.475803
0.211100	-2.509559
0.211200	-2.542992
0.211300	-2.567335
0.211400	-2.605312
0.211500	-2.645560
0.211600	-2.687107
0.211700	-2.705283
0.211800	-2.723785
0.211900	-2.759813
0.212000	-2.806554
0.212100	-2.846153
0.212200	-2.826353
0.212300	-2.756568
0.212400	-2.726706
0.212500	-2.774744
0.212600	-2.885103
0.212700	-2.980531
0.212800	-2.978583
0.212900	-2.889972
0.213000	-2.793570
0.213100	-2.780262
0.213200	-2.847127
0.213300	-2.937685
0.213400	-2.966898
0.213500	-2.897112
0.213600	-2.815317
0.213700	-2.747155
0.213800	-2.718591
0.213900	-2.711775
0.214000	-2.704634
0.214100	-2.692949
0.214200	-2.668281
0.214300	-2.638744
0.214400	-2.603040
0.214500	-2.548834
0.214600	-2.490409
0.214700	-2.448862
0.214800	-2.414781
0.214900	-2.390762
0.215000	-2.355382
0.215100	-2.266771
0.215200	-2.179458
0.215300	-2.070398
0.215400	-1.985358
0.215500	-1.918493
0.215600	-1.854551
0.215700	-1.793204
0.215800	-1.720498
0.215900	-1.635457
0.216000	-1.558207
0.216100	-1.493290
0.216200	-1.466025
0.216300	-1.444927
0.216400	-1.442655
0.216500	-1.449796
0.216600	-1.459209
0.216700	-1.459534
0.216800	-1.465376
0.216900	-1.480307
0.217000	-1.487448
0.217100	-1.514388
0.217200	-1.534837
0.217300	-1.528020
0.217400	-1.459858
0.217500	-1.309901
0.217600	-1.239467
0.217700	-1.272250
0.217800	-1.438436
0.217900	-1.486149
0.218000	-1.432269
0.218100	-1.293347
0.218200	-1.210904
0.218300	-1.223887
0.218400	-1.317691
0.218500	-1.395915
0.218600	-1.396565
0.218700	-1.346903
0.218800	-1.291725
0.218900	-1.276469
0.219000	-1.305682
0.219100	-1.339114
0.219200	-1.368975
0.219300	-1.386827
0.219400	-1.411820
0.219500	-1.432593
0.219600	-1.455314
0.219700	-1.460183
0.219800	-1.468297
0.219900	-1.500431
0.220000	-1.548469
0.220100	-1.605596
0.220200	-1.636756
0.220300	-1.635133
0.220400	-1.629290
0.220500	-1.630264
0.220600	-1.712059
0.220700	-1.817873
0.220800	-1.836049
0.220900	-1.790283
0.221000	-1.681548
0.221100	-1.663047
0.221200	-1.730560
0.221300	-1.837997
0.221400	-1.879544
0.221500	-1.820794
0.221600	-1.714980
0.221700	-1.645844
0.221800	-1.660450
0.221900	-1.707515
0.222000	-1.722121
0.222100	-1.710436
0.222200	-1.678951
0.222300	-1.679276
0.222400	-1.707839
0.222500	-1.747438
0.222600	-1.806188
0.222700	-1.844164
0.222800	-1.887009
0.222900	-1.933100
0.223000	-1.968155
0.223100	-1.972699
0.223200	-1.951276
0.223300	-1.931152
0.223400	-1.965558
0.223500	-2.017167
0.223600	-2.039887
0.223700	-2.041835
0.223800	-2.049300
0.223900	-2.054169
0.224000	-2.064231
0.224100	-2.078513
0.224200	-2.098637
0.224300	-2.124928
0.224400	-2.159009
0.224500	-2.193091
0.224600	-2.230742
0.224700	-2.272614
0.224800	-2.312862
0.224900	-2.356681
0.225000	-2.389788
0.225100	-2.432958
0.225200	-2.468013
0.225300	-2.502094
0.225400	-2.544290
0.225500	-2.586810
0.225600	-2.637770
0.225700	-2.729952
0.225800	-2.893217
0.225900	-3.036359
0.226000	-3.065247
0.226100	-2.978908
0.226200	-2.893542
0.226300	-2.909771
0.226400	-3.047395
0.226500	-3.196055
0.226600	-3.249286
0.226700	-3.188914
0.226800	-3.100951
0.226900	-3.085047
0.227000	-3.153209
0.227100	-3.255778
0.227200	-3.313879
0.227300	-3.317125
0.227400	-3.300571
0.227500	-3.290833
0.227600	-3.298623
0.227700	-3.302843
0.227800	-3.295053
0.227900	-3.271683
0.228000	-3.252857
0.228100	-3.248962
0.228200	-3.267463
0.228300	-3.273306
0.228400	-3.270060
0.228500	-3.260647
0.228600	-3.276876
0.228700	-3.302194
0.228800	-3.320370
0.228900	-3.262919
0.229000	-3.181448
0.229100	-3.177553
0.229200	-3.237926
0.229300	-3.336600
0.229400	-3.379769
0.229500	-3.295702
0.229600	-3.140551
0.229700	-3.023700
0.229800	-3.011691
0.229900	-3.072063
0.230000	-3.112312
0.230100	-3.059405
0.230200	-2.935738
0.230300	-2.807527
0.230400	-2.725083
0.230500	-2.702362
0.230600	-2.680615
0.230700	-2.643612
0.230800	-2.589082
0.230900	-2.518648
0.231000	-2.446590
0.231100	-2.367392
0.231200	-2.265797
0.231300	-2.152518
0.231400	-2.062284
0.231500	-1.990551
0.231600	-1.928231
0.231700	-1.829882
0.231800	-1.689338
0.231900	-1.562426
0.232000	-1.411171
0.232100	-1.311199
0.232200	-1.221615
0.232300	-1.136574
0.232400	-1.055104
0.232500	-0.966818
0.232600	-0.861978
0.232700	-0.778560
0.232800	-0.732794
0.232900	-0.720135
0.233000	-0.727276
0.233100	-0.748374
0.233200	-0.795438
0.233300	-0.839257
0.233400	-0.902550
0.233500	-0.962274
0.233600	-1.053157
0.233700	-1.154426
0.233800	-1.274197
0.233900	-1.393643
0.234000	-1.463753
0.234100	-1.461157
0.234200	-1.423830
0.234300	-1.466674
0.234400	-1.679925
0.234500	-1.926608
0.234600	-2.081759
0.234700	-2.067477
0.234800	-2.038589
0.234900	-2.048327
0.235000	-2.167449
0.235100	-2.329091
0.235200	-2.457951
0.235300	-2.498848
0.235400	-2.472881
0.235500	-2.460872
0.235600	-2.472557
0.235700	-2.515402
0.235800	-2.552080
0.235900	-2.577073
0.236000	-2.574476
0.236100	-2.561493
0.236200	-2.544939
0.236300	-2.519622
0.236400	-2.466714
0.236500	-2.441397
0.236600	-2.416729
0.236700	-2.402771
0.236800	-2.378103
0.236900	-2.341425
0.237000	-2.247945
0.237100	-2.170370
0.237200	-2.087277
0.237300	-2.111945
0.237400	-2.093119
0.237500	-2.012298
0.237600	-1.845462
0.237700	-1.663696
0.237800	-1.579629
0.237900	-1.598455
0.238000	-1.631238
0.238100	-1.604947
0.238200	-1.478359
0.238300	-1.337166
0.238400	-1.256670
0.238500	-1.248555
0.238600	-1.273548
0.238700	-1.257968
0.238800	-1.208631
0.238900	-1.138522
0.239000	-1.108011
0.239100	-1.114178
0.239200	-1.132030
0.239300	-1.147610
0.239400	-1.171304
0.239500	-1.217071
0.239600	-1.269977
0.239700	-1.317691
0.239800	-1.359887
0.239900	-1.406951
0.240000	-1.469596
0.240100	-1.591314
0.240200	-1.718550
0.240300	-1.813978
0.240400	-1.886684
0.240500	-1.951276
0.240600	-2.025281
0.240700	-2.097339
0.240800	-2.168098
0.240900	-2.229769
0.241000	-2.282026
0.241100	-2.333960
0.241200	-2.384270
0.241300	-2.427764
0.241400	-2.467039
0.241500	-2.495602
0.241600	-2.536175
0.241700	-2.564739
0.241800	-2.585187
0.241900	-2.606610
0.242000	-2.634849
0.242100	-2.666333
0.242200	-2.690353
0.242300	-2.709178
0.242400	-2.788052
0.242500	-2.932492
0.242600	-3.037657
0.242700	-2.996760
0.242800	-2.890945
0.242900	-2.820186
0.243000	-2.891595
0.243100	-3.052264
0.243200	-3.188914
0.243300	-3.219425
0.243400	-3.165544
0.243500	-3.122698
0.243600	-3.145095
0.243700	-3.254804
0.243800	-3.372629
0.243900	-3.449555
0.244000	-3.493050
0.244100	-3.531675
0.244200	-3.583933
0.244300	-3.646254
0.244400	-3.721233
0.244500	-3.784203
0.244600	-3.842303
0.244700	-3.908843
0.244800	-3.995832
0.244900	-4.067890
0.245000	-4.130536
0.245100	-4.163643
0.245200	-4.206489
0.245300	-4.272380
0.245400	-4.323340
0.245500	-4.332753
0.245600	-4.271081
0.245700	-4.210708
0.245800	-4.227587
0.245900	-4.312304
0.246000	-4.409031
0.246100	-4.422339
0.246200	-4.334700
0.246300	-4.220770
0.246400	-4.172083
0.246500	-4.221420
0.246600	-4.317822
0.246700	-4.388257
0.246800	-4.372028
0.246900	-4.307110
0.247000	-4.260045
0.247100	-4.242842
0.247200	-4.244465
0.247300	-4.243816
0.247400	-4.214279
0.247500	-4.167538
0.247600	-4.095156
0.247700	-4.010439
0.247800	-3.909493
0.247900	-3.778360
0.248000	-3.651772
0.248100	-3.549852
0.248200	-3.451827
0.248300	-3.355426
0.248400	-3.227215
0.248500	-3.080503
0.248600	-2.931518
0.248700	-2.788701
0.248800	-2.682887
0.248900	-2.583240
0.249000	-2.478075
0.249100	-2.375182
0.249200	-2.264174
0.249300	-2.145377
0.249400	-2.038914
0.249500	-1.964584
0.249600	-1.909081
0.249700	-1.861691
0.249800	-1.827935
0.249900	-1.798722
0.250000	-1.759448
0.250100	-1.734455
0.250200	-1.690636
0.250300	-1.687715
0.250400	-1.674407
0.250500	-1.699725
0.250600	-1.703620
0.250700	-1.664021
0.250800	-1.547820
0.250900	-1.433892
0.251000	-1.434865
0.251100	-1.602350
0.251200	-1.736078
0.251300	-1.759448
0.251400	-1.661749
0.251500	-1.579954
0.251600	-1.577032
0.251700	-1.690312
0.251800	-1.824364
0.251900	-1.904536
0.252000	-1.901615
0.252100	-1.863964
0.252200	-1.859419
0.252300	-1.886684
0.252400	-1.944460
0.252500	-1.987305
0.252600	-2.014245
0.252700	-2.026904
0.252800	-2.039563
0.252900	-2.063582
0.253000	-2.094742
0.253100	-2.109673
0.253200	-2.147649
0.253300	-2.200232
0.253400	-2.251516
0.253500	-2.304098
0.253600	-2.327793
0.253700	-2.316108
0.253800	-2.317406
0.253900	-2.366418
0.254000	-2.490409
0.254100	-2.555975
0.254200	-2.561168
0.254300	-2.491383
0.254400	-2.444318
0.254500	-2.492357
0.254600	-2.611479
0.254700	-2.713073
0.254800	-2.715995
0.254900	-2.646534
0.255000	-2.573178
0.255100	-2.584863
0.255200	-2.669255
0.255300	-2.756892
0.255400	-2.817265
0.255500	-2.862382
0.255600	-2.901007
0.255700	-2.953266
0.255800	-3.019805
0.255900	-3.091538
0.256000	-3.139252
0.256100	-3.161649
0.256200	-3.177878
0.256300	-3.176255
0.256400	-3.162298
0.256500	-3.125295
0.256600	-3.090565
0.256700	-3.080503
0.256800	-3.121725
0.256900	-3.137629
0.257000	-3.125295
0.257100	-3.065896
0.257200	-3.039605
0.257300	-3.049018
0.257400	-3.037008
0.257500	-3.029218
0.257600	-3.017209
0.257700	-3.000006
0.257800	-2.979232
0.257900	-2.957810
0.258000	-2.937361
0.258100	-2.916263
0.258200	-2.896463
0.258300	-2.890296
0.258400	-2.878936
0.258500	-2.872120
0.258600	-2.875041
0.258700	-2.886077
0.258800	-2.910096
0.258900	-2.943203
0.259000	-3.001304
0.259100	-3.127243
0.259200	-3.299597
0.259300	-3.383989
0.259400	-3.337249
0.259500	-3.243119
0.259600	-3.226566
0.259700	-3.341468
0.259800	-3.523561
0.259900	-3.649500
0.260000	-3.664106
0.260100	-3.606979
0.260200	-3.581661
0.260300	-3.628726
0.260400	-3.738111
0.260500	-3.836785
0.260600	-3.890342
0.260700	-3.912414
0.260800	-3.927994
0.260900	-3.952338
0.261000	-3.987069
0.261100	-4.031861
0.261200	-4.069838
0.261300	-4.103919
0.261400	-4.143194
0.261500	-4.169161
0.261600	-4.194479
0.261700	-4.197400
0.261800	-4.189286
0.261900	-4.202594
0.262000	-4.223692
0.262100	-4.244790
0.262200	-4.210708
0.262300	-4.124368
0.262400	-4.080874
0.262500	-4.116578
0.262600	-4.215253
0.262700	-4.315550
0.262800	-4.309383
0.262900	-4.234728
0.263000	-4.155853
0.263100	-4.164292
0.263200	-4.254203
0.263300	-4.376897
0.263400	-4.449604
0.263500	-4.455122
0.263600	-4.429804
0.263700	-4.430453
0.263800	-4.467132
0.263900	-4.513548
0.264000	-4.567104
0.264100	-4.614494
0.264200	-4.643058
0.264300	-4.647927
0.264400	-4.644031
0.264500	-4.600537
0.264600	-4.550875
0.264700	-4.505757
0.264800	-4.475895
0.264900	-4.454473
0.265000	-4.420391
0.265100	-4.340218
0.265200	-4.260370
0.265300	-4.174355
0.265400	-4.089638
0.265500	-4.016930
0.265600	-3.952013
0.265700	-3.880604
0.265800	-3.802055
0.265900	-3.700459
0.266000	-3.604058
0.266100	-3.525184
0.266200	-3.459617
0.266300	-3.414500
0.266400	-3.362891
0.266500	-3.328810
0.266600	-3.278824
0.266700	-3.237277
0.266800	-3.189563
0.266900	-3.147367
0.267000	-3.118803
0.267100	-3.091863
0.267200	-3.083099
0.267300	-3.051615
0.267400	-2.949371
0.267500	-2.788377
0.267600	-2.656596
0.267700	-2.689703
0.267800	-2.801685
0.267900	-2.866277
0.268000	-2.773121
0.268100	-2.621216
0.268200	-2.495278
0.268300	-2.475154
0.268400	-2.539097
0.268500	-2.592653
0.268600	-2.587784
0.268700	-2.508261
0.268800	-2.434905
0.268900	-2.387516
0.269000	-2.388165
0.269100	-2.387841
0.269200	-2.387516
0.269300	-2.386542
0.269400	-2.382323
0.269500	-2.377454
0.269600	-2.370313
0.269700	-2.351487
0.269800	-2.325845
0.269900	-2.337206
0.270000	-2.365120
0.270100	-2.390437
0.270200	-2.401473
0.270300	-2.362199
0.270400	-2.324222
0.270500	-2.290466
0.270600	-2.347592
0.270700	-2.429712
0.270800	-2.443994
0.270900	-2.377454
0.271000	-2.272614
0.271100	-2.237234
0.271200	-2.293711
0.271300	-2.403745
0.271400	-2.476127
0.271500	-2.464118
0.271600	-2.392060
0.271700	-2.363497
0.271800	-2.409588
0.271900	-2.482294
0.272000	-2.532929
0.272100	-2.555326
0.272200	-2.557598
0.272300	-2.587784
0.272400	-2.633875
0.272500	-2.684510
0.272600	-2.726706
0.272700	-2.755918
0.272800	-2.779938
0.272900	-2.807203
0.273000	-2.818888
0.273100	-2.810124
0.273200	-2.782210
0.273300	-2.761761
0.273400	-2.782859
0.273500	-2.831547
0.273600	-2.853618
0.273700	-2.842582
0.273800	-2.800711
0.273900	-2.805904
0.274000	-2.822783
0.274100	-2.831547
0.274200	-2.844205
0.274300	-2.850372
0.274400	-2.852320
0.274500	-2.859461
0.274600	-2.859461
0.274700	-2.865303
0.274800	-2.866602
0.274900	-2.880234
0.275000	-2.890621
0.275100	-2.905227
0.275200	-2.922755
0.275300	-2.939308
0.275400	-2.971442
0.275500	-3.001629
0.275600	-3.051290
0.275700	-3.123023
0.275800	-3.285965
0.275900	-3.437546
0.276000	-3.477145
0.276100	-3.399894
0.276200	-3.306089
0.276300	-3.329783
0.276400	-3.462214
0.276500	-3.630349
0.276600	-3.701109
0.276700	-3.672545
0.276800	-3.608926
0.276900	-3.593996
0.277000	-3.672870
0.277100	-3.772517
0.277200	-3.845874
0.277300	-3.862428
0.277400	-3.858857
0.277500	-3.863077
0.277600	-3.890667
0.277700	-3.929617
0.277800	-3.953636
0.277900	-3.962725
0.278000	-3.972787
0.278100	-4.004921
0.278200	-4.047442
0.278300	-4.073733
0.278400	-4.069838
0.278500	-4.073408
0.278600	-4.091910
0.278700	-4.128263
0.278800	-4.159099
0.278900	-4.123719
0.279000	-4.049714
0.279100	-4.044845
0.279200	-4.131185
0.279300	-4.269134
0.279400	-4.362939
0.279500	-4.344438
0.279600	-4.259072
0.279700	-4.200322
0.279800	-4.236351
0.279900	-4.347684
0.280000	-4.441814
0.280100	-4.451876
0.280200	-4.399293
0.280300	-4.350280
0.280400	-4.332104
0.280500	-4.358395
0.280600	-4.384037
0.280700	-4.395398
0.280800	-4.399293
0.280900	-4.389231
0.281000	-4.377546
0.281100	-4.361316
0.281200	-4.312304
0.281300	-4.256800
0.281400	-4.223043
0.281500	-4.204217
0.281600	-4.194154
0.281700	-4.166565
0.281800	-4.092884
0.281900	-4.033160
0.282000	-3.935784
0.282100	-3.871841
0.282200	-3.810819
0.282300	-3.756937
0.282400	-3.692669
0.282500	-3.624831
0.282600	-3.545632
0.282700	-3.465784
0.282800	-3.412877
0.282900	-3.372953
0.283000	-3.351855
0.283100	-3.307712
0.283200	-3.301220
0.283300	-3.274604
0.283400	-3.266814
0.283500	-3.232408
0.283600	-3.221048
0.283700	-3.202222
0.283800	-3.200274
0.283900	-3.187291
0.284000	-3.145419
0.284100	-3.044474
0.284200	-2.872120
0.284300	-2.803308
0.284400	-2.882182
0.284500	-3.005199
0.284600	-3.036684
0.284700	-2.923079
0.284800	-2.783833
0.284900	-2.690353
0.285000	-2.716968
0.285100	-2.788701
0.285200	-2.829599
0.285300	-2.789351
0.285400	-2.682887
0.285500	-2.601092
0.285600	-2.557922
0.285700	-2.562791
0.285800	-2.560844
0.285900	-2.557598
0.286000	-2.541044
0.286100	-2.531956
0.286200	-2.533579
0.286300	-2.542342
0.286400	-2.554352
0.286500	-2.575774
0.286600	-2.630629
0.286700	-2.681264
0.286800	-2.734171
0.286900	-2.778315
0.287000	-2.784806
0.287100	-2.792921
0.287200	-2.813694
0.287300	-2.924702
0.287400	-3.014612
0.287500	-3.029543
0.287600	-2.984750
0.287700	-2.906525
0.287800	-2.925351
0.287900	-3.025323
0.288000	-3.152885
0.288100	-3.203845
0.288200	-3.171386
0.288300	-3.097706
0.288400	-3.089266
0.288500	-3.169114
0.288600	-3.276227
0.288700	-3.337898
0.288800	-3.370681
0.288900	-3.376524
0.289000	-3.401517
0.289100	-3.444686
0.289200	-3.513498
0.289300	-3.572248
0.289400	-3.613471
0.289500	-3.646254
0.289600	-3.662483
0.289700	-3.671247
0.289800	-3.676116
0.289900	-3.674817
0.290000	-3.683581
0.290100	-3.747524
0.290200	-3.806599
0.290300	-3.837110
0.290400	-3.831267
0.290500	-3.814064
0.290600	-3.827697
0.290700	-3.843602
0.290800	-3.847172
0.290900	-3.846523
0.291000	-3.843277
0.291100	-3.831592
0.291200	-3.822828
0.291300	-3.814064
0.291400	-3.809520
0.291500	-3.802379
0.291600	-3.791019
0.291700	-3.792966
0.291800	-3.791993
0.291900	-3.794265
0.292000	-3.787448
0.292100	-3.801081
0.292200	-3.809845
0.292300	-3.828346
0.292400	-3.909168
0.292500	-4.056205
0.292600	-4.159099
0.292700	-4.131185
0.292800	-4.026019
0.292900	-3.945846
0.293000	-4.001675
0.293100	-4.142870
0.293200	-4.259721
0.293300	-4.266213
0.293400	-4.187338
0.293500	-4.120473
0.293600	-4.109437
0.293700	-4.190584
0.293800	-4.251606
0.293900	-4.294127
0.294000	-4.281468
0.294100	-4.264265
0.294200	-4.269134
0.294300	-4.276275
0.294400	-4.299320
0.294500	-4.324963
0.294600	-4.343789
0.294700	-4.373001
0.294800	-4.415522
0.294900	-4.447981
0.295000	-4.471351
0.295100	-4.484010
0.295200	-4.501213
0.295300	-4.540488
0.295400	-4.575544
0.295500	-4.574245
0.295600	-4.520039
0.295700	-4.462263
0.295800	-4.491476
0.295900	-4.585606
0.296000	-4.704080
0.296100	-4.742706
0.296200	-4.688175
0.296300	-4.601835
0.296400	-4.566455
0.296500	-4.642409
0.296600	-4.757637
0.296700	-4.836836
0.296800	-4.837810
0.296900	-4.791719
0.297000	-4.760883
0.297100	-4.754067
0.297200	-4.783279
0.297300	-4.811519
0.297400	-4.834240
0.297500	-4.845925
0.297600	-4.834564
0.297700	-4.818659
0.297800	-4.780358
0.297900	-4.722906
0.298000	-4.676166
0.298100	-4.654094
0.298200	-4.634618
0.298300	-4.611897
0.298400	-4.549901
0.298500	-4.455447
0.298600	-4.386634
0.298700	-4.294127
0.298800	-4.226938
0.298900	-4.162994
0.299000	-4.095156
0.299100	-4.018229
0.299200	-3.931889
0.299300	-3.839382
0.299400	-3.763429
0.299500	-3.711171
0.299600	-3.669624
0.299700	-3.635867
0.299800	-3.605681
0.299900	-3.586530
0.300000	-3.544009
0.300100	-3.523885
0.300200	-3.486882
0.300300	-3.483961
0.300400	-3.471627
0.300500	-3.488830
0.300600	-3.475847
0.300700	-3.441765
0.300800	-3.314528
0.300900	-3.180150
0.301000	-3.162947
0.301100	-3.297650
0.301200	-3.410280
0.301300	-3.408008
0.301400	-3.285640
0.301500	-3.184045
0.301600	-3.149314
0.301700	-3.224943
0.301800	-3.320046
0.301900	-3.350232
0.302000	-3.306413
0.302100	-3.215530
0.302200	-3.167167
0.302300	-3.153209
0.302400	-3.172684
0.302500	-3.169114
0.302600	-3.173658
0.302700	-3.160675
0.302800	-3.153859
0.302900	-3.151587
0.303000	-3.155157
0.303100	-3.155482
0.303200	-3.171386
0.303300	-3.235005
0.303400	-3.285965
0.303500	-3.335301
0.303600	-3.359645
0.303700	-3.346337
0.303800	-3.341468
0.303900	-3.379769
0.304000	-3.507981
0.304100	-3.562511
0.304200	-3.539141
0.304300	-3.444686
0.304400	-3.383989
0.304500	-3.423913
0.304600	-3.556993
0.304700	-3.667352
0.304800	-3.699810
0.304900	-3.644631
0.305000	-3.583609
0.305100	-3.620612
0.305200	-3.718636
0.305300	-3.820556
0.305400	-3.875411
0.305500	-3.903325
0.305600	-3.925722
0.305700	-3.981875
0.305800	-4.052959
0.305900	-4.134431
0.306000	-4.193505
0.306100	-4.235377
0.306200	-4.281144
0.306300	-4.312628
0.306400	-4.326586
0.306500	-4.323664
0.306600	-4.321068
0.306700	-4.335025
0.306800	-4.396372
0.306900	-4.432076
0.307000	-4.426883
0.307100	-4.369106
0.307200	-4.333727
0.307300	-4.318146
0.307400	-4.292829
0.307500	-4.266213
0.307600	-4.237974
0.307700	-4.204541
0.307800	-4.182145
0.307900	-4.154879
0.308000	-4.125991
0.308100	-4.100674
0.308200	-4.089962
0.308300	-4.072110
0.308400	-4.060100
0.308500	-4.049389
0.308600	-4.030563
0.308700	-4.013035
0.308800	-4.001026
0.308900	-4.002649
0.309000	-4.012386
0.309100	-4.084769
0.309200	-4.204217
0.309300	-4.228561
0.309400	-4.129886
0.309500	-3.975383
0.309600	-3.903650
0.309700	-3.960777
0.309800	-4.086716
0.309900	-4.143844
0.310000	-4.094182
0.310100	-3.980577
0.310200	-3.906896
0.310300	-3.917607
0.310400	-3.986095
0.310500	-4.053609
0.310600	-4.069189
0.310700	-4.044196
0.310800	-4.028616
0.310900	-4.041924
0.311000	-4.077953
0.311100	-4.121772
0.311200	-4.167863
0.311300	-4.200971
0.311400	-4.246088
0.311500	-4.305488
0.311600	-4.355798
0.311700	-4.385985
0.311800	-4.403513
0.311900	-4.428830
0.312000	-4.465833
0.312100	-4.487256
0.312200	-4.455771
0.312300	-4.357746
0.312400	-4.300943
0.312500	-4.330481
0.312600	-4.413899
0.312700	-4.499266
0.312800	-4.499590
0.312900	-4.419417
0.313000	-4.338595
0.313100	-4.346061
0.313200	-4.456420
0.313300	-4.595019
0.313400	-4.688825
0.313500	-4.699211
0.313600	-4.678438
0.313700	-4.672920
0.313800	-4.697264
0.313900	-4.742381
0.314000	-4.776139
0.314100	-4.794640
0.314200	-4.789447
0.314300	-4.764453
0.314400	-4.731670
0.314500	-4.676815
0.314600	-4.613196
0.314700	-4.562885
0.314800	-4.530101
0.314900	-4.505757
0.315000	-4.478492
0.315100	-4.404486
0.315200	-4.317497
0.315300	-4.251282
0.315400	-4.173705
0.315500	-4.120149
0.315600	-4.078277
0.315700	-4.031861
0.315800	-3.974734
0.315900	-3.908194
0.316000	-3.850418
0.316100	-3.797186
0.316200	-3.769272
0.316300	-3.753691
0.316400	-3.727400
0.316500	-3.725777
0.316600	-3.697538
0.316700	-3.668975
0.316800	-3.632621
0.316900	-3.614769
0.317000	-3.602110
0.317100	-3.599513
0.317200	-3.608277
0.317300	-3.567704
0.317400	-3.497269
0.317500	-3.320046
0.317600	-3.221697
0.317700	-3.237601
0.317800	-3.393077
0.317900	-3.464486
0.318000	-3.408658
0.318100	-3.274929
0.318200	-3.164245
0.318300	-3.158078
0.318400	-3.242470
0.318500	-3.322967
0.318600	-3.336275
0.318700	-3.288237
0.318800	-3.232408
0.318900	-3.207740
0.319000	-3.229487
0.319100	-3.257401
0.319200	-3.281420
0.319300	-3.303817
0.319400	-3.317449
0.319500	-3.335301
0.319600	-3.343741
0.319700	-3.344065
0.319800	-3.336600
0.319900	-3.368409
0.320000	-3.425536
0.320100	-3.471952
0.320200	-3.507656
0.320300	-3.507007
0.320400	-3.503112
0.320500	-3.519016
0.320600	-3.616717
0.320700	-3.740059
0.320800	-3.796212
0.320900	-3.782580
0.321000	-3.720584
0.321100	-3.735839
0.321200	-3.832566
0.321300	-3.991613
0.321400	-4.093208
0.321500	-4.112359
0.321600	-4.070487
0.321700	-4.056205
0.321800	-4.115280
0.321900	-4.211682
0.322000	-4.272704
0.322100	-4.323664
0.322200	-4.347684
0.322300	-4.373001
0.322400	-4.411627
0.322500	-4.461614
0.322600	-4.515170
0.322700	-4.553796
0.322800	-4.595019
0.322900	-4.637540
0.323000	-4.669998
0.323100	-4.668376
0.323200	-4.662208
0.323300	-4.654743
0.323400	-4.693693
0.323500	-4.758286
0.323600	-4.790745
0.323700	-4.775165
0.323800	-4.721608
0.323900	-4.712844
0.324000	-4.700834
0.324100	-4.692070
0.324200	-4.678113
0.324300	-4.658313
0.324400	-4.646953
0.324500	-4.634943
0.324600	-4.629425
0.324700	-4.618714
0.324800	-4.613196
0.324900	-4.600537
0.325000	-4.598265
0.325100	-4.598914
0.325200	-4.589176
0.325300	-4.584307
0.325400	-4.581386
0.325500	-4.573921
0.325600	-4.572298
0.325700	-4.599238
0.325800	-4.710247
0.325900	-4.817037
0.326000	-4.824827
0.326100	-4.706028
0.326200	-4.576193
0.326300	-4.560613
0.326400	-4.665779
0.326500	-4.795938
0.326600	-4.840407
0.326700	-4.774516
0.326800	-4.667402
0.326900	-4.615468
0.327000	-4.646304
0.327100	-4.726152
0.327200	-4.777437
0.327300	-4.783929
0.327400	-4.767050
0.327500	-4.761532
0.327600	-4.774840
0.327700	-4.797886
0.327800	-4.816387
0.327900	-4.825800
0.328000	-4.824827
0.328100	-4.860856
0.328200	-4.893315
0.328300	-4.917334
0.328400	-4.910193
0.328500	-4.909544
0.328600	-4.930318
0.328700	-4.972189
0.328800	-4.996209
0.328900	-4.954662
0.329000	-4.875787
0.329100	-4.872541
0.329200	-4.946222
0.329300	-5.072812
0.329400	-5.157205
0.329500	-5.139028
0.329600	-5.060477
0.329700	-5.012438
0.329800	-5.052687
0.329900	-5.171811
0.330000	-5.283469
0.330100	-5.308787
0.330200	-5.272109
0.330300	-5.226017
0.330400	-5.213683
0.330500	-5.229912
0.330600	-5.248089
0.330700	-5.241598
0.330800	-5.221798
0.330900	-5.191936
0.331000	-5.155257
0.331100	-5.105920
0.331200	-5.019255
0.331300	-4.920905
0.331400	-4.842030
0.331500	-4.790745
0.331600	-4.732644
0.331700	-4.662858
0.331800	-4.554121
0.331900	-4.459666
0.332000	-4.328858
0.332100	-4.243167
0.332200	-4.167214
0.332300	-4.096129
0.332400	-4.013685
0.332500	-3.927020
0.332600	-3.827697
0.332700	-3.748823
0.332800	-3.689424
0.332900	-3.647552
0.333000	-3.615418
0.333100	-3.586205
0.333200	-3.568678
0.333300	-3.551475
0.333400	-3.525833
0.333500	-3.510577
0.333600	-3.491102
0.333700	-3.479092
0.333800	-3.483637
0.333900	-3.465784
0.334000	-3.443064
0.334100	-3.322643
0.334200	-3.169114
0.334300	-3.076283
0.334400	-3.150937
0.334500	-3.273955
0.334600	-3.296676
0.334700	-3.204494
0.334800	-3.048693
0.334900	-2.970144
0.335000	-2.978259
0.335100	-3.078880
0.335200	-3.137629
0.335300	-3.126594
0.335400	-3.049667
0.335500	-2.998707
0.335600	-2.992540
0.335700	-3.022402
0.335800	-3.070440
0.335900	-3.099328
0.336000	-3.127243
0.336100	-3.143796
0.336200	-3.172684
0.336300	-3.216179
0.336400	-3.250585
0.336500	-3.289210
0.336600	-3.343741
0.336700	-3.423264
0.336800	-3.486558
0.336900	-3.546606
0.337000	-3.561537
0.337100	-3.578415
0.337200	-3.612821
0.337300	-3.729672
0.337400	-3.844575
0.337500	-3.863077
0.337600	-3.806599
0.337700	-3.708250
0.337800	-3.704355
0.337900	-3.794265
0.338000	-3.918906
0.338100	-3.956557
0.338200	-3.903001
0.338300	-3.810819
0.338400	-3.770570
0.338500	-3.830618
0.338600	-3.913388
0.338700	-3.954935
0.338800	-3.972138
0.338900	-3.963049
0.339000	-3.965970
0.339100	-3.996482
0.339200	-4.025045
0.339300	-4.037704
0.339400	-4.041274
0.339500	-4.049064
0.339600	-4.059776
0.339700	-4.062048
0.339800	-4.056854
0.339900	-4.045169
0.340000	-4.037055
0.340100	-4.064969
0.340200	-4.102621
0.340300	-4.111060
0.340400	-4.114306
0.340500	-4.090936
0.340600	-4.085743
0.340700	-4.090936
0.340800	-4.086392
0.340900	-4.076005
0.341000	-4.063671
0.341100	-4.055881
0.341200	-4.046792
0.341300	-4.029589
0.341400	-4.017580
0.341500	-4.006544
0.341600	-4.002973
0.341700	-4.003622
0.341800	-4.002324
0.341900	-4.003622
0.342000	-4.004921
0.342100	-4.008491
0.342200	-4.029589
0.342300	-4.047117
0.342400	-4.135729
0.342500	-4.290232
0.342600	-4.421040
0.342700	-4.412601
0.342800	-4.337297
0.342900	-4.275626
0.343000	-4.346710
0.343100	-4.515170
0.343200	-4.677789
0.343300	-4.743680
0.343400	-4.712844
0.343500	-4.671946
0.343600	-4.704080
0.343700	-4.794965
0.343800	-4.902078
0.343900	-4.975760
0.344000	-4.999130
0.344100	-5.004973
0.344200	-5.008868
0.344300	-5.021527
0.344400	-5.048792
0.344500	-5.074435
0.344600	-5.088067
0.344700	-5.107867
0.344800	-5.141949
0.344900	-5.167591
0.345000	-5.183496
0.345100	-5.189339
0.345200	-5.201673
0.345300	-5.233158
0.345400	-5.268538
0.345500	-5.266591
0.345600	-5.200375
0.345700	-5.128316
0.345800	-5.135133
0.345900	-5.222447
0.346000	-5.338000
0.346100	-5.370784
0.346200	-5.311059
0.346300	-5.203621
0.346400	-5.149414
0.346500	-5.200050
0.346600	-5.298401
0.346700	-5.373705
0.346800	-5.362669
0.346900	-5.302945
0.347000	-5.245817
0.347100	-5.215955
0.347200	-5.216280
0.347300	-5.212709
0.347400	-5.198752
0.347500	-5.163696
0.347600	-5.115982
0.347700	-5.056907
0.347800	-4.984199
0.347900	-4.894288
0.348000	-4.800158
0.348100	-4.729073
0.348200	-4.669674
0.348300	-4.624881
0.348400	-4.536269
0.348500	-4.426234
0.348600	-4.318471
0.348700	-4.209735
0.348800	-4.127614
0.348900	-4.060100
0.349000	-3.987069
0.349100	-3.909493
0.349200	-3.820232
0.349300	-3.729672
0.349400	-3.651123
0.349500	-3.595943
0.349600	-3.546282
0.349700	-3.510902
0.349800	-3.471627
0.349900	-3.453450
0.350000	-3.410605
0.350100	-3.381392
0.350200	-3.342442
0.350300	-3.330757
0.350400	-3.318423
0.350500	-3.322318
0.350600	-3.324590
0.350700	-3.282394
0.350800	-3.167491
0.350900	-3.027595
0.351000	-3.043500
0.351100	-3.168465
0.351200	-3.323292
0.351300	-3.340170
0.351400	-3.249936
0.351500	-3.153209
0.351600	-3.128541
0.351700	-3.209687
0.351800	-3.308361
0.351900	-3.367760
0.352000	-3.334652
0.352100	-3.279148
0.352200	-3.234356
0.352300	-3.242470
0.352400	-3.259024
0.352500	-3.273306
0.352600	-3.280122
0.352700	-3.284666
0.352800	-3.295377
0.352900	-3.303167
0.353000	-3.306413
0.353100	-3.304141
0.353200	-3.322643
0.353300	-3.367760
0.353400	-3.403140
0.353500	-3.457994
0.353600	-3.470978
0.353700	-3.462863
0.353800	-3.464811
0.353900	-3.513174
0.354000	-3.639762
0.354100	-3.702732
0.354200	-3.696240
0.354300	-3.625480
0.354400	-3.561537
0.354500	-3.607953
0.354600	-3.732269
0.354700	-3.841654
0.354800	-3.858857
0.354900	-3.797511
0.355000	-3.732918
0.355100	-3.742980
0.355200	-3.816986
0.355300	-3.894237
0.355400	-3.932538
0.355500	-3.962725
0.355600	-3.971488
0.355700	-4.008491
0.355800	-4.071461
0.355900	-4.132808
0.356000	-4.184092
0.356100	-4.221095
0.356200	-4.260695
0.356300	-4.294127
0.356400	-4.306786
0.356500	-4.302566
0.356600	-4.293478
0.356700	-4.312304
0.356800	-4.353202
0.356900	-4.398644
0.357000	-4.407732
0.357100	-4.358071
0.357200	-4.342166
0.357300	-4.341517
0.357400	-4.329182
0.357500	-4.314251
0.357600	-4.293153
0.357700	-4.270108
0.357800	-4.246088
0.357900	-4.226288
0.358000	-4.206489
0.358100	-4.185391
0.358200	-4.161696
0.358300	-4.145142
0.358400	-4.121447
0.358500	-4.105542
0.358600	-4.098402
0.358700	-4.087041
0.358800	-4.101647
0.358900	-4.112034
0.359000	-4.149037
0.359100	-4.239272
0.359200	-4.397670
0.359300	-4.458368
0.359400	-4.405136
0.359500	-4.286986
0.359600	-4.232131
0.359700	-4.330805
0.359800	-4.484010
0.359900	-4.599563
0.360000	-4.593396
0.360100	-4.526531
0.360200	-4.472974
0.360300	-4.503485
0.360400	-4.592098
0.360500	-4.670648
0.360600	-4.698238
0.360700	-4.691421
0.360800	-4.682333
0.360900	-4.690123
0.361000	-4.705378
0.361100	-4.734916
0.361200	-4.747575
0.361300	-4.755690
0.361400	-4.779384
0.361500	-4.833266
0.361600	-4.868971
0.361700	-4.884551
0.361800	-4.895587
0.361900	-4.920580
0.362000	-4.967321
0.362100	-5.008219
0.362200	-5.001402
0.362300	-4.932265
0.362400	-4.888446
0.362500	-4.944599
0.362600	-5.064048
0.362700	-5.181873
0.362800	-5.192909
0.362900	-5.108841
0.363000	-5.021202
0.363100	-5.012114
0.363200	-5.101051
0.363300	-5.219526
0.363400	-5.273083
0.363500	-5.236729
0.363600	-5.168565
0.363700	-5.117605
0.363800	-5.104297
0.363900	-5.120202
0.364000	-5.120526
0.364100	-5.103648
0.364200	-5.073785
0.364300	-5.028992
0.364400	-4.979006
0.364500	-4.910518
0.364600	-4.833266
0.364700	-4.766401
0.364800	-4.714467
0.364900	-4.677464
0.365000	-4.637215
0.365100	-4.550550
0.365200	-4.455771
0.365300	-4.372028
0.365400	-4.277898
0.365500	-4.222718
0.365600	-4.170135
0.365700	-4.104893
0.365800	-4.030888
0.365900	-3.951040
0.366000	-3.869244
0.366100	-3.807573
0.366200	-3.754990
0.366300	-3.725453
0.366400	-3.681634
0.366500	-3.663132
0.366600	-3.631647
0.366700	-3.601136
0.366800	-3.570625
0.366900	-3.537842
0.367000	-3.534272
0.367100	-3.527780
0.367200	-3.548554
0.367300	-3.543360
0.367400	-3.491751
0.367500	-3.361268
0.367600	-3.272007
0.367700	-3.317125
0.367800	-3.479742
0.367900	-3.607628
0.368000	-3.564134
0.368100	-3.459293
0.368200	-3.353803
0.368300	-3.366462
0.368400	-3.463512
0.368500	-3.557642
0.368600	-3.592697
0.368700	-3.543360
0.368800	-3.481689
0.368900	-3.447932
0.369000	-3.461889
0.369100	-3.477794
0.369200	-3.503112
0.369300	-3.506033
0.369400	-3.502787
0.369500	-3.497594
0.369600	-3.494673
0.369700	-3.495322
0.369800	-3.491427
0.369900	-3.516744
0.370000	-3.544009
0.370100	-3.596268
0.370200	-3.631647
0.370300	-3.641385
0.370400	-3.629700
0.370500	-3.626779
0.370600	-3.692020
0.370700	-3.807248
0.370800	-3.841654
0.370900	-3.806274
0.371000	-3.700784
0.371100	-3.667352
0.371200	-3.728049
0.371300	-3.854313
0.371400	-3.932863
0.371500	-3.917932
0.371600	-3.825749
0.371700	-3.766675
0.371800	-3.787773
0.371900	-3.869569
0.372000	-3.905598
0.372100	-3.915660
0.372200	-3.885149
0.372300	-3.866323
0.372400	-3.867296
0.372500	-3.883526
0.372600	-3.907220
0.372700	-3.911115
0.372800	-3.908519
0.372900	-3.900404
0.373000	-3.869569
0.373100	-3.828022
0.373200	-3.785501
0.373300	-3.732593
0.373400	-3.729023
0.373500	-3.771868
0.373600	-3.770895
0.373700	-3.740059
0.373800	-3.669299
0.373900	-3.645605
0.374000	-3.633920
0.374100	-3.608277
0.374200	-3.587828
0.374300	-3.568353
0.374400	-3.562511
0.374500	-3.563809
0.374600	-3.566730
0.374700	-3.569002
0.374800	-3.573547
0.374900	-3.591723
0.375000	-3.605681
0.375100	-3.623208
0.375200	-3.638139
0.375300	-3.660211
0.375400	-3.673194
0.375500	-3.697863
0.375600	-3.718961
0.375700	-3.768622
0.375800	-3.899755
0.375900	-4.044196
0.376000	-4.083471
0.376100	-4.007842
0.376200	-3.925073
0.376300	-3.951689
0.376400	-4.094831
0.376500	-4.273029
0.376600	-4.374624
0.376700	-4.370080
0.376800	-4.317173
0.376900	-4.310356
0.377000	-4.388906
0.377100	-4.510626
0.377200	-4.605081
0.377300	-4.642084
0.377400	-4.653120
0.377500	-4.669025
0.377600	-4.707326
0.377700	-4.747250
0.377800	-4.778086
0.377900	-4.803404
0.378000	-4.834564
0.378100	-4.877085
0.378200	-4.925124
0.378300	-4.981927
0.378400	-5.002701
0.378500	-5.030615
0.378600	-5.078979
0.378700	-5.137405
0.378800	-5.177329
0.378900	-5.149090
0.379000	-5.084821
0.379100	-5.077356
0.379200	-5.161749
0.379300	-5.294181
0.379400	-5.384417
0.379500	-5.358774
0.379600	-5.257178
0.379700	-5.178952
0.379800	-5.203621
0.379900	-5.320148
0.380000	-5.435052
0.380100	-5.473678
0.380200	-5.425315
0.380300	-5.366564
0.380400	-5.344492
0.380500	-5.343843
0.380600	-5.347738
0.380700	-5.334430
0.380800	-5.297102
0.380900	-5.243870
0.381000	-5.178952
0.381100	-5.113710
0.381200	-5.023474
0.381300	-4.933239
0.381400	-4.863453
0.381500	-4.815738
0.381600	-4.775814
0.381700	-4.718362
0.381800	-4.618065
0.381900	-4.541787
0.382000	-4.442138
0.382100	-4.366834
0.382200	-4.317497
0.382300	-4.267835
0.382400	-4.214603
0.382500	-4.142545
0.382600	-4.063346
0.382700	-3.980252
0.382800	-3.921827
0.382900	-3.882877
0.383000	-3.857559
0.383100	-3.826723
0.383200	-3.827048
0.383300	-3.809845
0.383400	-3.803028
0.383500	-3.781606
0.383600	-3.773167
0.383700	-3.775114
0.383800	-3.789720
0.383900	-3.803678
0.384000	-3.778685
0.384100	-3.689099
0.384200	-3.532000
0.384300	-3.472601
0.384400	-3.547580
0.384500	-3.695915
0.384600	-3.753367
0.384700	-3.650149
0.384800	-3.523236
0.384900	-3.430405
0.385000	-3.476496
0.385100	-3.564134
0.385200	-3.629700
0.385300	-3.626129
0.385400	-3.551799
0.385500	-3.488181
0.385600	-3.460267
0.385700	-3.475197
0.385800	-3.489155
0.385900	-3.492400
0.386000	-3.483637
0.386100	-3.469355
0.386200	-3.459617
0.386300	-3.441765
0.386400	-3.433001
0.386500	-3.410930
0.386600	-3.442090
0.386700	-3.456047
0.386800	-3.485584
0.386900	-3.491751
0.387000	-3.474548
0.387100	-3.453126
0.387200	-3.460591
0.387300	-3.555045
0.387400	-3.650473
0.387500	-3.663132
0.387600	-3.600812
0.387700	-3.503112
0.387800	-3.498243
0.387900	-3.596268
0.388000	-3.740059
0.388100	-3.789720
0.388200	-3.736488
0.388300	-3.628726
0.388400	-3.575170
0.388500	-3.624831
0.388600	-3.711171
0.388700	-3.746226
0.388800	-3.750770
0.388900	-3.727400
0.389000	-3.723830
0.389100	-3.754665
0.389200	-3.797511
0.389300	-3.822828
0.389400	-3.841654
0.389500	-3.853664
0.389600	-3.869244
0.389700	-3.881254
0.389800	-3.878332
0.389900	-3.869893
0.390000	-3.867946
0.390100	-3.908519
0.390200	-3.963049
0.390300	-3.986419
0.390400	-3.993560
0.390500	-3.993236
0.390600	-4.004272
0.390700	-4.017580
0.390800	-4.022448
0.390900	-4.029914
0.391000	-4.041274
0.391100	-4.056530
0.391200	-4.068540
0.391300	-4.080225
0.391400	-4.087366
0.391500	-4.088989
0.391600	-4.100998
0.391700	-4.114631
0.391800	-4.133132
0.391900	-4.143519
0.392000	-4.163319
0.392100	-4.175004
0.392200	-4.207462
0.392300	-4.229859
0.392400	-4.318146
0.392500	-4.471027
0.392600	-4.611248
0.392700	-4.605081
0.392800	-4.507380
0.392900	-4.421040
0.393000	-4.470702
0.393100	-4.635917
0.393200	-4.773542
0.393300	-4.827423
0.393400	-4.783279
0.393500	-4.722582
0.393600	-4.729398
0.393700	-4.807623
0.393800	-4.923826
0.393900	-4.990042
0.394000	-5.007245
0.394100	-4.993612
0.394200	-4.987445
0.394300	-4.999779
0.394400	-5.020878
0.394500	-5.029966
0.394600	-5.031589
0.394700	-5.033212
0.394800	-5.044248
0.394900	-5.064372
0.395000	-5.067618
0.395100	-5.054310
0.395200	-5.050415
0.395300	-5.070540
0.395400	-5.101051
0.395500	-5.095533
0.395600	-5.015684
0.395700	-4.928045
0.395800	-4.936160
0.395900	-5.015360
0.396000	-5.127667
0.396100	-5.169864
0.396200	-5.112087
0.396300	-5.002701
0.396400	-4.932265
0.396500	-4.978032
0.396600	-5.084497
0.396700	-5.169864
0.396800	-5.165319
0.396900	-5.097480
0.397000	-5.037756
0.397100	-5.015684
0.397200	-5.020553
0.397300	-5.030615
0.397400	-5.034835
0.397500	-5.014061
0.397600	-4.972839
0.397700	-4.934213
0.397800	-4.885200
0.397900	-4.806001
0.398000	-4.732968
0.398100	-4.686228
0.398200	-4.648900
0.398300	-4.614494
0.398400	-4.548603
0.398500	-4.454473
0.398600	-4.356448
0.398700	-4.260695
0.398800	-4.214279
0.398900	-4.172407
0.399000	-4.130536
0.399100	-4.083795
0.399200	-4.026993
0.399300	-3.966295
0.399400	-3.914037
0.399500	-3.886447
0.399600	-3.872814
0.399700	-3.863077
0.399800	-3.865349
0.399900	-3.862752
0.400000	-3.849769
0.400100	-3.842628
0.400200	-3.829320
0.400300	-3.836785
0.400400	-3.832241
0.400500	-3.851392
0.400600	-3.836136
0.400700	-3.796861
0.400800	-3.662483
0.400900	-3.547580
0.401000	-3.492076
0.401100	-3.617690
0.401200	-3.728049
0.401300	-3.730321
0.401400	-3.600163
0.401500	-3.457994
0.401600	-3.385287
0.401700	-3.421316
0.401800	-3.494023
0.401900	-3.524534
0.402000	-3.472925
0.402100	-3.372953
0.402200	-3.293755
0.402300	-3.270060
0.402400	-3.273955
0.402500	-3.266814
0.402600	-3.265840
0.402700	-3.250260
0.402800	-3.224943
0.402900	-3.199625
0.403000	-3.175606
0.403100	-3.152236
0.403200	-3.129515
0.403300	-3.172035
0.403400	-3.177553
0.403500	-3.217153
0.403600	-3.224943
0.403700	-3.209687
0.403800	-3.191835
0.403900	-3.211310
0.404000	-3.325564
0.404100	-3.381717
0.404200	-3.374252
0.404300	-3.297000
0.404400	-3.225592
0.404500	-3.259349
0.404600	-3.385612
0.404700	-3.502787
0.404800	-3.539465
0.404900	-3.485584
0.405000	-3.419369
0.405100	-3.427159
0.405200	-3.500840
0.405300	-3.572248
0.405400	-3.612172
0.405500	-3.629051
0.405600	-3.626454
0.405700	-3.647228
0.405800	-3.678388
0.405900	-3.710522
0.406000	-3.726426
0.406100	-3.737138
0.406200	-3.756613
0.406300	-3.773816
0.406400	-3.766675
0.406500	-3.742331
0.406600	-3.708574
0.406700	-3.700459
0.406800	-3.743305
0.406900	-3.764727
0.407000	-3.757262
0.407100	-3.741682
0.407200	-3.697538
0.407300	-3.683581
0.407400	-3.660860
0.407500	-3.640411
0.407600	-3.613471
0.407700	-3.590425
0.407800	-3.570301
0.407900	-3.549852
0.408000	-3.542062
0.408100	-3.535246
0.408200	-3.537193
0.408300	-3.536869
0.408400	-3.546282
0.408500	-3.549852
0.408600	-3.561537
0.408700	-3.565432
0.408800	-3.580038
0.408900	-3.596917
0.409000	-3.623208
0.409100	-3.735839
0.409200	-3.889368
0.409300	-3.985770
0.409400	-3.936433
0.409500	-3.836785
0.409600	-3.785501
0.409700	-3.887745
0.409800	-4.056854
0.409900	-4.186040
0.410000	-4.207138
0.410100	-4.142870
0.410200	-4.108139
0.410300	-4.151309
0.410400	-4.260370
0.410500	-4.374949
0.410600	-4.437919
0.410700	-4.469079
0.410800	-4.488879
0.410900	-4.519066
0.411000	-4.560613
0.411100	-4.595668
0.411200	-4.630723
0.411300	-4.658963
0.411400	-4.708624
0.411500	-4.751145
0.411600	-4.810220
0.411700	-4.837161
0.411800	-4.860207
0.411900	-4.911816
0.412000	-4.980953
0.412100	-5.050091
0.412200	-5.069566
0.412300	-5.023150
0.412400	-5.005947
0.412500	-5.083848
0.412600	-5.216604
0.412700	-5.360722
0.412800	-5.406489
0.412900	-5.361046
0.413000	-5.294505
0.413100	-5.298401
0.413200	-5.398698
0.413300	-5.536649
0.413400	-5.629157
0.413500	-5.636947
0.413600	-5.613576
0.413700	-5.607734
0.413800	-5.625586
0.413900	-5.667458
0.414000	-5.702514
0.414100	-5.722314
0.414200	-5.733999
0.414300	-5.730753
0.414400	-5.716147
0.414500	-5.683039
0.414600	-5.630130
0.414700	-5.584688
0.414800	-5.553852
0.414900	-5.530482
0.415000	-5.495751
0.415100	-5.408436
0.415200	-5.321446
0.415300	-5.205568
0.415400	-5.109490
0.415500	-5.040028
0.415600	-4.973812
0.415700	-4.910193
0.415800	-4.837486
0.415900	-4.757962
0.416000	-4.680061
0.416100	-4.613520
0.416200	-4.554121
0.416300	-4.508354
0.416400	-4.464535
0.416500	-4.440840
0.416600	-4.414549
0.416700	-4.381765
0.416800	-4.354825
0.416900	-4.309058
0.417000	-4.296399
0.417100	-4.270757
0.417200	-4.278871
0.417300	-4.233754
0.417400	-4.158450
0.417500	-3.975708
0.417600	-3.858208
0.417700	-3.844251
0.417800	-3.963374
0.417900	-4.026343
0.418000	-3.958180
0.418100	-3.796861
0.418200	-3.660211
0.418300	-3.620612
0.418400	-3.671247
0.418500	-3.731620
0.418600	-3.731620
0.418700	-3.649824
0.418800	-3.567380
0.418900	-3.497594
0.419000	-3.484610
0.419100	-3.477794
0.419200	-3.484286
0.419300	-3.473899
0.419400	-3.454099
0.419500	-3.429756
0.419600	-3.411903
0.419700	-3.392753
0.419800	-3.378147
0.419900	-3.391455
0.420000	-3.429106
0.420100	-3.467732
0.420200	-3.496945
0.420300	-3.497269
0.420400	-3.472601
0.420500	-3.475847
0.420600	-3.534596
0.420700	-3.651772
0.420800	-3.690397
0.420900	-3.653070
0.421000	-3.557967
0.421100	-3.514148
0.421200	-3.586205
0.421300	-3.708574
0.421400	-3.780307
0.421500	-3.765377
0.421600	-3.689099
0.421700	-3.645929
0.421800	-3.684555
0.421900	-3.778360
0.422000	-3.832890
0.422100	-3.868270
0.422200	-3.879631
0.422300	-3.914686
0.422400	-3.967918
0.422500	-4.026019
0.422600	-4.061074
0.422700	-4.092884
0.422800	-4.126640
0.422900	-4.175328
0.423000	-4.218823
0.423100	-4.237324
0.423200	-4.248360
0.423300	-4.250308
0.423400	-4.292179
0.423500	-4.369756
0.423600	-4.422988
0.423700	-4.448306
0.423800	-4.456745
0.423900	-4.455447
0.424000	-4.474922
0.424100	-4.479791
0.424200	-4.487905
0.424300	-4.491800
0.424400	-4.505433
0.424500	-4.518741
0.424600	-4.539190
0.424700	-4.545682
0.424800	-4.566131
0.424900	-4.576517
0.425000	-4.597291
0.425100	-4.616442
0.425200	-4.629100
0.425300	-4.651822
0.425400	-4.676166
0.425500	-4.707651
0.425600	-4.737513
0.425700	-4.794640
0.425800	-4.930967
0.425900	-5.081576
0.426000	-5.138054
0.426100	-5.070864
0.426200	-4.973488
0.426300	-4.978032
0.426400	-5.122149
0.426500	-5.289312
0.426600	-5.379872
0.426700	-5.355528
0.426800	-5.286715
0.426900	-5.267240
0.427000	-5.330859
0.427100	-5.439921
0.427200	-5.523990
0.427300	-5.556124
0.427400	-5.549957
0.427500	-5.550606
0.427600	-5.578521
0.427700	-5.614226
0.427800	-5.641491
0.427900	-5.663239
0.428000	-5.672976
0.428100	-5.696671
0.428200	-5.733350
0.428300	-5.761265
0.428400	-5.774248
0.428500	-5.763212
0.428600	-5.790153
0.428700	-5.819691
0.428800	-5.841763
0.428900	-5.804760
0.429000	-5.725560
0.429100	-5.701865
0.429200	-5.758019
0.429300	-5.870002
0.429400	-5.949851
0.429500	-5.927130
0.429600	-5.826183
0.429700	-5.744386
0.429800	-5.760615
0.429900	-5.856694
0.430000	-5.958291
0.430100	-5.978091
0.430200	-5.925507
0.430300	-5.852799
0.430400	-5.821638
0.430500	-5.825533
0.430600	-5.845333
0.430700	-5.839815
0.430800	-5.819691
0.430900	-5.779442
0.431000	-5.726858
0.431100	-5.659993
0.431200	-5.572678
0.431300	-5.477898
0.431400	-5.388636
0.431500	-5.313981
0.431600	-5.249063
0.431700	-5.179926
0.431800	-5.067618
0.431900	-4.957908
0.432000	-4.823528
0.432100	-4.719660
0.432200	-4.630723
0.432300	-4.553147
0.432400	-4.465184
0.432500	-4.378844
0.432600	-4.281468
0.432700	-4.188961
0.432800	-4.121447
0.432900	-4.063346
0.433000	-4.021475
0.433100	-3.982849
0.433200	-3.947794
0.433300	-3.920528
0.433400	-3.893263
0.433500	-3.872165
0.433600	-3.842628
0.433700	-3.848795
0.433800	-3.833215
0.433900	-3.845874
0.434000	-3.805950
0.434100	-3.717663
0.434200	-3.546606
0.434300	-3.463837
0.434400	-3.519016
0.434500	-3.634569
0.434600	-3.687151
0.434700	-3.572573
0.434800	-3.435598
0.434900	-3.326538
0.435000	-3.315502
0.435100	-3.396323
0.435200	-3.435273
0.435300	-3.424238
0.435400	-3.326213
0.435500	-3.260647
0.435600	-3.216503
0.435700	-3.222671
0.435800	-3.238900
0.435900	-3.238251
0.436000	-3.227864
0.436100	-3.210012
0.436200	-3.199300
0.436300	-3.189238
0.436400	-3.175606
0.436500	-3.161973
0.436600	-3.185343
0.436700	-3.217477
0.436800	-3.254480
0.436900	-3.282069
0.437000	-3.281745
0.437100	-3.279473
0.437200	-3.283043
0.437300	-3.386261
0.437400	-3.493699
0.437500	-3.532324
0.437600	-3.504735
0.437700	-3.447608
0.437800	-3.463512
0.437900	-3.565757
0.438000	-3.715390
0.438100	-3.802379
0.438200	-3.804651
0.438300	-3.753691
0.438400	-3.762780
0.438500	-3.839382
0.438600	-3.946820
0.438700	-4.014334
0.438800	-4.057504
0.438900	-4.075356
0.439000	-4.103595
0.439100	-4.159424
0.439200	-4.234079
0.439300	-4.305488
0.439400	-4.343140
0.439500	-4.367808
0.439600	-4.406759
0.439700	-4.440516
0.439800	-4.463237
0.439900	-4.489528
0.440000	-4.520364
0.440100	-4.596642
0.440200	-4.673894
0.440300	-4.717064
0.440400	-4.751145
0.440500	-4.773866
0.440600	-4.784578
0.440700	-4.797886
0.440800	-4.799184
0.440900	-4.806650
0.441000	-4.800807
0.441100	-4.803728
0.441200	-4.801781
0.441300	-4.806650
0.441400	-4.796588
0.441500	-4.801781
0.441600	-4.796263
0.441700	-4.798860
0.441800	-4.799184
0.441900	-4.803404
0.442000	-4.800483
0.442100	-4.817037
0.442200	-4.829695
0.442300	-4.852092
0.442400	-4.914088
0.442500	-5.058530
0.442600	-5.176031
0.442700	-5.163047
0.442800	-5.074759
0.442900	-4.983875
0.443000	-5.013412
0.443100	-5.131562
0.443200	-5.250361
0.443300	-5.265617
0.443400	-5.199401
0.443500	-5.107218
0.443600	-5.075733
0.443700	-5.121175
0.443800	-5.176355
0.443900	-5.205893
0.444000	-5.187067
0.444100	-5.150388
0.444200	-5.136756
0.444300	-5.132860
0.444400	-5.142598
0.444500	-5.152336
0.444600	-5.157529
0.444700	-5.162398
0.444800	-5.193234
0.444900	-5.224394
0.445000	-5.238352
0.445100	-5.235106
0.445200	-5.251011
0.445300	-5.274706
0.445400	-5.309112
0.445500	-5.318200
0.445600	-5.264968
0.445700	-5.185444
0.445800	-5.195506
0.445900	-5.277951
0.446000	-5.386364
0.446100	-5.432780
0.446200	-5.373705
0.446300	-5.273083
0.446400	-5.213358
0.446500	-5.250037
0.446600	-5.346764
0.446700	-5.408436
0.446800	-5.401620
0.446900	-5.348712
0.447000	-5.297751
0.447100	-5.285742
0.447200	-5.301322
0.447300	-5.315279
0.447400	-5.308787
0.447500	-5.302620
0.447600	-5.278601
0.447700	-5.249063
0.447800	-5.208814
0.447900	-5.135457
0.448000	-5.060802
0.448100	-4.996858
0.448200	-4.944275
0.448300	-4.899157
0.448400	-4.820932
0.448500	-4.700834
0.448600	-4.589176
0.448700	-4.469079
0.448800	-4.389231
0.448900	-4.313927
0.449000	-4.227587
0.449100	-4.149362
0.449200	-4.069189
0.449300	-3.971488
0.449400	-3.896509
0.449500	-3.835162
0.449600	-3.810169
0.449700	-3.765377
0.449800	-3.742331
0.449900	-3.715715
0.450000	-3.689099
0.450100	-3.667676
0.450200	-3.628726
0.450300	-3.613795
0.450400	-3.595294
0.450500	-3.601136
0.450600	-3.581661
0.450700	-3.535895
0.450800	-3.411254
0.450900	-3.269411
0.451000	-3.232083
0.451100	-3.329459
0.451200	-3.462539
0.451300	-3.446959
0.451400	-3.344390
0.451500	-3.220398
0.451600	-3.176904
0.451700	-3.238575
0.451800	-3.321669
0.451900	-3.372304
0.452000	-3.331406
0.452100	-3.273630
0.452200	-3.231434
0.452300	-3.243769
0.452400	-3.274604
0.452500	-3.305115
0.452600	-3.324590
0.452700	-3.326862
0.452800	-3.335951
0.452900	-3.347636
0.453000	-3.363865
0.453100	-3.362566
0.453200	-3.384963
0.453300	-3.433001
0.453400	-3.469679
0.453500	-3.524210
0.453600	-3.543360
0.453700	-3.539465
0.453800	-3.526157
0.453900	-3.551475
0.454000	-3.673194
0.454100	-3.733567
0.454200	-3.726426
0.454300	-3.652096
0.454400	-3.572898
0.454500	-3.595294
0.454600	-3.696240
0.454700	-3.804976
0.454800	-3.816986
0.454900	-3.743954
0.455000	-3.661185
0.455100	-3.660860
0.455200	-3.732918
0.455300	-3.812117
0.455400	-3.846523
0.455500	-3.857234
0.455600	-3.857883
0.455700	-3.878008
0.455800	-3.911440
0.455900	-3.957207
0.456000	-3.986419
0.456100	-4.003622
0.456200	-4.024720
0.456300	-4.045819
0.456400	-4.051337
0.456500	-4.049064
0.456600	-4.047117
0.456700	-4.064645
0.456800	-4.134755
0.456900	-4.191882
0.457000	-4.224666
0.457100	-4.251282
0.457200	-4.258098
0.457300	-4.278871
0.457400	-4.299645
0.457500	-4.322041
0.457600	-4.336648
0.457700	-4.360667
0.457800	-4.376572
0.457900	-4.397670
0.458000	-4.417145
0.458100	-4.437919
0.458200	-4.457394
0.458300	-4.481413
0.458400	-4.504135
0.458500	-4.529452
0.458600	-4.553147
0.458700	-4.569052
0.458800	-4.590475
0.458900	-4.624232
0.459000	-4.654743
0.459100	-4.739136
0.459200	-4.891692
0.459300	-4.971216
0.459400	-4.920905
0.459500	-4.795938
0.459600	-4.733942
0.459700	-4.800158
0.459800	-4.946872
0.459900	-5.039704
0.460000	-5.031914
0.460100	-4.948495
0.460200	-4.883902
0.460300	-4.894938
0.460400	-4.974137
0.460500	-5.057881
0.460600	-5.086769
0.460700	-5.078979
0.460800	-5.061451
0.460900	-5.055933
0.461000	-5.057231
0.461100	-5.058530
0.461200	-5.056907
0.461300	-5.044897
0.461400	-5.044248
0.461500	-5.066320
0.461600	-5.074110
0.461700	-5.067943
0.461800	-5.055284
0.461900	-5.058854
0.462000	-5.078979
0.462100	-5.099752
0.462200	-5.080277
0.462300	-5.004648
0.462400	-4.946222
0.462500	-4.976409
0.462600	-5.067294
0.462700	-5.163047
0.462800	-5.168890
0.462900	-5.081900
0.463000	-4.977383
0.463100	-4.941029
0.463200	-4.997507
0.463300	-5.093261
0.463400	-5.138703
0.463500	-5.104297
0.463600	-5.028343
0.463700	-4.963101
0.463800	-4.937134
0.463900	-4.939731
0.464000	-4.945898
0.464100	-4.933239
0.464200	-4.916360
0.464300	-4.882279
0.464400	-4.835538
0.464500	-4.785227
0.464600	-4.714792
0.464700	-4.657340
0.464800	-4.626504
0.464900	-4.601835
0.465000	-4.574245
0.465100	-4.507705
0.465200	-4.426883
0.465300	-4.330156
0.465400	-4.262967
0.465500	-4.218823
0.465600	-4.175978
0.465700	-4.137676
0.465800	-4.080225
0.465900	-4.019527
0.466000	-3.956557
0.466100	-3.902027
0.466200	-3.879955
0.466300	-3.872490
0.466400	-3.877034
0.466500	-3.888070
0.466600	-3.909817
0.466700	-3.921827
0.466800	-3.924099
0.466900	-3.941951
0.467000	-3.948443
0.467100	-3.998104
0.467200	-4.002324
0.467300	-4.029265
0.467400	-3.961426
0.467500	-3.866972
0.467600	-3.736164
0.467700	-3.790370
0.467800	-3.942600
0.467900	-4.057179
0.468000	-4.044845
0.468100	-3.927669
0.468200	-3.847821
0.468300	-3.846523
0.468400	-3.952338
0.468500	-4.044196
0.468600	-4.083471
0.468700	-4.035107
0.468800	-3.974085
0.468900	-3.949092
0.469000	-3.967593
0.469100	-3.999727
0.469200	-4.028291
0.469300	-4.045494
0.469400	-4.053609
0.469500	-4.065294
0.469600	-4.073733
0.469700	-4.085418
0.469800	-4.088664
0.469900	-4.109437
0.470000	-4.156502
0.470100	-4.210384
0.470200	-4.256150
0.470300	-4.261668
0.470400	-4.256150
0.470500	-4.255826
0.470600	-4.336972
0.470700	-4.452525
0.470800	-4.495046
0.470900	-4.469079
0.471000	-4.381116
0.471100	-4.350930
0.471200	-4.408706
0.471300	-4.528803
0.471400	-4.606055
0.471500	-4.598589
0.471600	-4.524908
0.471700	-4.477194
0.471800	-4.505108
0.471900	-4.585930
0.472000	-4.639487
0.472100	-4.668376
0.472200	-4.678438
0.472300	-4.698562
0.472400	-4.741083
0.472500	-4.793666
0.472600	-4.845276
0.472700	-4.883252
0.472800	-4.912465
0.472900	-4.941029
0.473000	-4.963750
0.473100	-4.961153
0.473200	-4.942652
0.473300	-4.912790
0.473400	-4.915711
0.473500	-4.954986
0.473600	-4.985498
0.473700	-4.993937
0.473800	-5.005622
0.473900	-4.994586
0.474000	-4.994261
0.474100	-4.990042
0.474200	-4.987445
0.474300	-4.979655
0.474400	-4.977707
0.474500	-4.974786
0.474600	-4.975760
0.474700	-4.970891
0.474800	-4.973163
0.474900	-4.970242
0.475000	-4.971865
0.475100	-4.974786
0.475200	-4.984848
0.475300	-4.989068
0.475400	-4.996858
0.475500	-5.013412
0.475600	-5.024448
0.475700	-5.072487
0.475800	-5.183496
0.475900	-5.329561
0.476000	-5.374354
0.476100	-5.306191
0.476200	-5.189988
0.476300	-5.188365
0.476400	-5.322745
0.476500	-5.509383
0.476600	-5.622340
0.476700	-5.618770
0.476800	-5.566186
0.476900	-5.566836
0.477000	-5.648307
0.477100	-5.771651
0.477200	-5.881687
0.477300	-5.931025
0.477400	-5.945956
0.477500	-5.971599
0.477600	-6.010874
0.477700	-6.047878
0.477800	-6.079038
0.477900	-6.085530
0.478000	-6.092347
0.478100	-6.117665
0.478200	-6.152071
0.478300	-6.169924
0.478400	-6.158888
0.478500	-6.149799
0.478600	-6.162783
0.478700	-6.189724
0.478800	-6.206278
0.478900	-6.168625
0.479000	-6.084881
0.479100	-6.065730
0.479200	-6.130973
0.479300	-6.246203
0.479400	-6.337737
0.479500	-6.306576
0.479600	-6.209199
0.479700	-6.123183
0.479800	-6.118638
0.479900	-6.202707
0.480000	-6.292619
0.480100	-6.309822
0.480200	-6.246852
0.480300	-6.173494
0.480400	-6.126753
0.480500	-6.105655
0.480600	-6.100461
0.480700	-6.084881
0.480800	-6.051448
0.480900	-5.999838
0.481000	-5.946281
0.481100	-5.883635
0.481200	-5.784635
0.481300	-5.672002
0.481400	-5.577872
0.481500	-5.511980
0.481600	-5.453879
0.481700	-5.384741
0.481800	-5.284768
0.481900	-5.200699
0.482000	-5.080926
0.482100	-4.987120
0.482200	-4.919282
0.482300	-4.850794
0.482400	-4.773866
0.482500	-4.687526
0.482600	-4.582035
0.482700	-4.500239
0.482800	-4.426558
0.482900	-4.368782
0.483000	-4.328858
0.483100	-4.279196
0.483200	-4.247711
0.483300	-4.197076
0.483400	-4.157801
0.483500	-4.096779
0.483600	-4.057828
0.483700	-4.008816
0.483800	-3.974085
0.483900	-3.940977
0.484000	-3.877359
0.484100	-3.746551
0.484200	-3.548229
0.484300	-3.401192
0.484400	-3.436572
0.484500	-3.516744
0.484600	-3.539790
0.484700	-3.422615
0.484800	-3.247339
0.484900	-3.108092
0.485000	-3.096083
0.485100	-3.151911
0.485200	-3.210012
0.485300	-3.176904
0.485400	-3.088942
0.485500	-2.993514
0.485600	-2.952616
0.485700	-2.958459
0.485800	-2.964951
0.485900	-2.951967
0.486000	-2.935089
0.486100	-2.910745
0.486200	-2.893217
0.486300	-2.888024
0.486400	-2.882831
0.486500	-2.872769
0.486600	-2.897437
0.486700	-2.932492
0.486800	-2.973390
0.486900	-3.014612
0.487000	-3.020454
0.487100	-3.015910
0.487200	-3.041877
0.487300	-3.143147
0.487400	-3.267463
0.487500	-3.309335
0.487600	-3.287912
0.487700	-3.210661
0.487800	-3.231434
0.487900	-3.342767
0.488000	-3.504085
0.488100	-3.597566
0.488200	-3.597241
0.488300	-3.529079
0.488400	-3.514472
0.488500	-3.584258
0.488600	-3.682607
0.488700	-3.749472
0.488800	-3.785176
0.488900	-3.787448
0.489000	-3.810819
0.489100	-3.851067
0.489200	-3.908843
0.489300	-3.977331
0.489400	-4.011737
0.489500	-4.056854
0.489600	-4.099375
0.489700	-4.128263
0.489800	-4.151309
0.489900	-4.172732
0.490000	-4.203243
0.490100	-4.260045
0.490200	-4.324314
0.490300	-4.373975
0.490400	-4.422014
0.490500	-4.469079
0.490600	-4.513872
0.490700	-4.563534
0.490800	-4.603783
0.490900	-4.648251
0.491000	-4.689798
0.491100	-4.731021
0.491200	-4.771919
0.491300	-4.806974
0.491400	-4.849820
0.491500	-4.906298
0.491600	-4.965048
0.491700	-5.026071
0.491800	-5.091638
0.491900	-5.162723
0.492000	-5.239650
0.492100	-5.329236
0.492200	-5.432131
0.492300	-5.516200
0.492400	-5.651878
0.492500	-5.861887
0.492600	-6.043658
0.492700	-6.103707
0.492800	-6.060212
0.492900	-6.011848
0.493000	-6.077415
0.493100	-6.251071
0.493200	-6.380908
0.493300	-6.373118
0.493400	-6.373767
0.493500	-6.373767
0.493600	-6.374416
0.493700	-6.374741
0.493800	-6.374741
0.493900	-6.374416
0.494000	-6.374091
0.494100	-6.373767
0.494200	-6.374091
0.494300	-6.374091
0.494400	-6.373442
0.494500	-6.373442
0.494600	-6.373442
0.494700	-6.373118
0.494800	-6.372793
0.494900	-6.372793
0.495000	-6.372793
0.495100	-6.373118
0.495200	-6.372144
0.495300	-6.372144
0.495400	-6.371819
0.495500	-6.371495
0.495600	-6.371819
0.495700	-6.372144
0.495800	-6.371819
0.495900	-6.371495
0.496000	-6.370846
0.496100	-6.371170
0.496200	-6.299111
0.496300	-6.087802
0.496400	-6.010550
0.496500	-6.021586
0.496600	-6.106629
0.496700	-6.169599
0.496800	-6.161809
0.496900	-6.096891
0.497000	-6.030999
0.497100	-6.001137
0.497200	-5.991074
0.497300	-5.991724
0.497400	-5.975169
0.497500	-5.946930
0.497600	-5.913497
0.497700	-5.873897
0.497800	-5.805733
0.497900	-5.714848
0.498000	-5.612927
0.498100	-5.546711
0.498200	-5.484065
0.498300	-5.433429
0.498400	-5.350659
0.498500	-5.234457
0.498600	-5.123447
0.498700	-4.995560
0.498800	-4.908246
0.498900	-4.821905
0.499000	-4.744329
0.499100	-4.654094
0.499200	-4.554121
0.499300	-4.444411
0.499400	-4.354500
0.499500	-4.274327
0.499600	-4.216226
0.499700	-4.159099
0.499800	-4.111710
0.499900	-4.072110
0.500000	-4.021799
0.500100	-3.966295
0.500200	-3.917932
0.500300	-3.878657
0.500400	-3.853015
0.500500	-3.832566
0.500600	-3.805301
0.500700	-3.759209
0.500800	-3.613795
0.500900	-3.467732
0.501000	-3.404113
0.501100	-3.505059
0.501200	-3.626454
0.501300	-3.627752
0.501400	-3.519990
0.501500	-3.374901
0.501600	-3.315502
0.501700	-3.348285
0.501800	-3.446309
0.501900	-3.480066
0.502000	-3.443064
0.502100	-3.365163
0.502200	-3.308685
0.502300	-3.294079
0.502400	-3.308036
0.502500	-3.315502
0.502600	-3.314528
0.502700	-3.307063
0.502800	-3.312256
0.502900	-3.326538
0.503000	-3.334652
0.503100	-3.344065
0.503200	-3.361917
0.503300	-3.399245
0.503400	-3.450204
0.503500	-3.513174
0.503600	-3.551799
0.503700	-3.556344
0.503800	-3.548229
0.503900	-3.595618
0.504000	-3.712469
0.504100	-3.801730
0.504200	-3.797835
0.504300	-3.746226
0.504400	-3.671896
0.504500	-3.701758
0.504600	-3.804651
0.504700	-3.920204
0.504800	-3.954285
0.504900	-3.898457
0.505000	-3.829644
0.505100	-3.822179
0.505200	-3.888394
0.505300	-3.948767
0.505400	-3.965646
0.505500	-3.962075
0.505600	-3.937407
0.505700	-3.945846
0.505800	-3.968892
0.505900	-3.986095
0.506000	-3.993885
0.506100	-3.998754
0.506200	-4.020501
0.506300	-4.034458
0.506400	-4.039327
0.506500	-4.028291
0.506600	-4.014983
0.506700	-4.028291
0.506800	-4.088989
0.506900	-4.144493
0.507000	-4.165591
0.507100	-4.173056
0.507200	-4.185715
0.507300	-4.205840
0.507400	-4.225315
0.507500	-4.244465
0.507600	-4.275301
0.507700	-4.306137
0.507800	-4.331130
0.507900	-4.360343
0.508000	-4.391828
0.508100	-4.419093
0.508200	-4.459017
0.508300	-4.494397
0.508400	-4.539514
0.508500	-4.583334
0.508600	-4.623907
0.508700	-4.661559
0.508800	-4.718037
0.508900	-4.778086
0.509000	-4.834889
0.509100	-4.967321
0.509200	-5.156231
0.509300	-5.266915
0.509400	-5.276653
0.509500	-5.193883
0.509600	-5.174408
0.509700	-5.279899
0.509800	-5.472380
0.509900	-5.635324
0.510000	-5.694399
0.510100	-5.674924
0.510200	-5.654150
0.510300	-5.704786
0.510400	-5.826183
0.510500	-5.944009
0.510600	-6.011524
0.510700	-6.043009
0.510800	-6.061835
0.510900	-6.096566
0.511000	-6.141684
0.511100	-6.188425
0.511200	-6.231271
0.511300	-6.266976
0.511400	-6.311770
0.511500	-6.369223
0.511600	-6.372144
0.511700	-6.372469
0.511800	-6.372469
0.511900	-6.372469
0.512000	-6.372469
0.512100	-6.372144
0.512200	-6.371819
0.512300	-6.372144
0.512400	-6.371819
0.512500	-6.371495
0.512600	-6.371495
0.512700	-6.371170
0.512800	-6.371495
0.512900	-6.371819
0.513000	-6.371495
0.513100	-6.371170
0.513200	-6.371495
0.513300	-6.370846
0.513400	-6.370521
0.513500	-6.370521
0.513600	-6.370521
0.513700	-6.370521
0.513800	-6.370521
0.513900	-6.370521
0.514000	-6.370196
0.514100	-6.370196
0.514200	-6.370521
0.514300	-6.369872
0.514400	-6.369872
0.514500	-6.370196
0.514600	-6.369872
0.514700	-6.369223
0.514800	-6.369223
0.514900	-6.368898
0.515000	-6.369223
0.515100	-6.368898
0.515200	-6.041386
0.515300	-5.634999
0.515400	-5.485039
0.515500	-5.385066
0.515600	-5.288014
0.515700	-5.193883
0.515800	-5.092936
0.515900	-4.984848
0.516000	-4.880331
0.516100	-4.802430
0.516200	-4.733293
0.516300	-4.692720
0.516400	-4.658638
0.516500	-4.625855
0.516600	-4.605406
0.516700	-4.576193
0.516800	-4.550550
0.516900	-4.521013
0.517000	-4.495371
0.517100	-4.489204
0.517200	-4.472000
0.517300	-4.453174
0.517400	-4.364238
0.517500	-4.233429
0.517600	-4.090611
0.517700	-4.090287
0.517800	-4.212331
0.517900	-4.306786
0.518000	-4.273353
0.518100	-4.150984
0.518200	-4.041274
0.518300	-4.020825
0.518400	-4.085093
0.518500	-4.184417
0.518600	-4.194804
0.518700	-4.158450
0.518800	-4.086716
0.518900	-4.049064
0.519000	-4.053609
0.519100	-4.071136
0.519200	-4.086716
0.519300	-4.095805
0.519400	-4.087690
0.519500	-4.085743
0.519600	-4.070163
0.519700	-4.061399
0.519800	-4.041274
0.519900	-4.052959
0.520000	-4.077953
0.520100	-4.122096
0.520200	-4.150011
0.520300	-4.150011
0.520400	-4.134431
0.520500	-4.128913
0.520600	-4.195453
0.520700	-4.327235
0.520800	-4.381441
0.520900	-4.365211
0.521000	-4.272704
0.521100	-4.228236
0.521200	-4.287960
0.521300	-4.424286
0.521400	-4.523610
0.521500	-4.533672
0.521600	-4.463237
0.521700	-4.406109
0.521800	-4.438568
0.521900	-4.526856
0.522000	-4.596642
0.522100	-4.622933
0.522200	-4.622933
0.522300	-4.619687
0.522400	-4.643058
0.522500	-4.685903
0.522600	-4.728749
0.522700	-4.762181
0.522800	-4.789447
0.522900	-4.818659
0.523000	-4.842354
0.523100	-4.854364
0.523200	-4.850794
0.523300	-4.823853
0.523400	-4.841705
0.523500	-4.914737
0.523600	-4.970242
0.523700	-4.995235
0.523800	-5.012114
0.523900	-5.016658
0.524000	-5.034186
0.524100	-5.038730
0.524200	-5.029317
0.524300	-5.013412
0.524400	-5.007894
0.524500	-4.996534
0.524600	-4.989068
0.524700	-4.988094
0.524800	-4.984524
0.524900	-4.979006
0.525000	-4.966022
0.525100	-4.956934
0.525200	-4.943626
0.525300	-4.937459
0.525400	-4.941029
0.525500	-4.943301
0.525600	-4.952065
0.525700	-4.990691
0.525800	-5.103972
0.525900	-5.246466
0.526000	-5.292558
0.526100	-5.227965
0.526200	-5.130588
0.526300	-5.122474
0.526400	-5.242896
0.526500	-5.410384
0.526600	-5.503216
0.526700	-5.492180
0.526800	-5.427262
0.526900	-5.405839
0.527000	-5.456800
0.527100	-5.558396
0.527200	-5.636947
0.527300	-5.659343
0.527400	-5.645711
0.527500	-5.634999
0.527600	-5.645062
0.527700	-5.661940
0.527800	-5.674599
0.527900	-5.678819
0.528000	-5.681091
0.528100	-5.701865
0.528200	-5.732701
0.528300	-5.758019
0.528400	-5.761589
0.528500	-5.763212
0.528600	-5.785284
0.528700	-5.814497
0.528800	-5.843386
0.528900	-5.814822
0.529000	-5.728156
0.529100	-5.699917
0.529200	-5.755747
0.529300	-5.877792
0.529400	-5.972248
0.529500	-5.966081
0.529600	-5.873897
0.529700	-5.797943
0.529800	-5.814497
0.529900	-5.916419
0.530000	-6.020612
0.530100	-6.055668
0.530200	-6.007628
0.530300	-5.931674
0.530400	-5.890451
0.530500	-5.883310
0.530600	-5.883960
0.530700	-5.868055
0.530800	-5.824235
0.530900	-5.777170
0.531000	-5.725560
0.531100	-5.677196
0.531200	-5.605462
0.531300	-5.520419
0.531400	-5.444790
0.531500	-5.397725
0.531600	-5.359748
0.531700	-5.319499
0.531800	-5.240624
0.531900	-5.158503
0.532000	-5.056907
0.532100	-4.992638
0.532200	-4.951091
0.532300	-4.903701
0.532400	-4.848197
0.532500	-4.777761
0.532600	-4.696939
0.532700	-4.616766
0.532800	-4.551849
0.532900	-4.512898
0.533000	-4.478817
0.533100	-4.448955
0.533200	-4.426234
0.533300	-4.402863
0.533400	-4.372677
0.533500	-4.350280
0.533600	-4.330805
0.533700	-4.334376
0.533800	-4.334051
0.533900	-4.350605
0.534000	-4.320743
0.534100	-4.257449
0.534200	-4.105867
0.534300	-4.026343
0.534400	-4.076330
0.534500	-4.245764
0.534600	-4.320094
0.534700	-4.258422
0.534800	-4.128263
0.534900	-4.041924
0.535000	-4.057504
0.535100	-4.156178
0.535200	-4.241869
0.535300	-4.241544
0.535400	-4.166565
0.535500	-4.100349
0.535600	-4.053609
0.535700	-4.058477
0.535800	-4.061074
0.535900	-4.073084
0.536000	-4.052635
0.536100	-4.034133
0.536200	-4.021150
0.536300	-4.019527
0.536400	-4.007517
0.536500	-4.000377
0.536600	-4.021150
0.536700	-4.041599
0.536800	-4.072759
0.536900	-4.088339
0.537000	-4.081523
0.537100	-4.055232
0.537200	-4.058802
0.537300	-4.132158
0.537400	-4.226613
0.537500	-4.246413
0.537600	-4.191233
0.537700	-4.091910
0.537800	-4.064969
0.537900	-4.142870
0.538000	-4.262318
0.538100	-4.317497
0.538200	-4.272704
0.538300	-4.155204
0.538400	-4.083795
0.538500	-4.109762
0.538600	-4.177601
0.538700	-4.201620
0.538800	-4.208761
0.538900	-4.169810
0.539000	-4.138001
0.539100	-4.134106
0.539200	-4.155204
0.539300	-4.163319
0.539400	-4.161371
0.539500	-4.166889
0.539600	-4.161047
0.539700	-4.150660
0.539800	-4.126640
0.539900	-4.101972
0.540000	-4.090611
0.540100	-4.125667
0.540200	-4.167863
0.540300	-4.190584
0.540400	-4.183443
0.540500	-4.148712
0.540600	-4.154230
0.540700	-4.160073
0.540800	-4.160722
0.540900	-4.156827
0.541000	-4.150011
0.541100	-4.144817
0.541200	-4.140922
0.541300	-4.137676
0.541400	-4.144817
0.541500	-4.148712
0.541600	-4.163643
0.541700	-4.188312
0.541800	-4.211682
0.541900	-4.235377
0.542000	-4.267186
0.542100	-4.313278
0.542200	-4.361966
0.542300	-4.415198
0.542400	-4.514197
0.542500	-4.698562
0.542600	-4.867023
0.542700	-4.920255
0.542800	-4.874813
0.542900	-4.831643
0.543000	-4.896236
0.543100	-5.080926
0.543200	-5.263994
0.543300	-5.366240
0.543400	-5.354554
0.543500	-5.316902
0.543600	-5.327289
0.543700	-5.429210
0.543800	-5.559695
0.543900	-5.660642
0.544000	-5.705435
0.544100	-5.728806
0.544200	-5.743088
0.544300	-5.759966
0.544400	-5.789829
0.544500	-5.812874
0.544600	-5.831376
0.544700	-5.846956
0.544800	-5.861238
0.544900	-5.876819
0.545000	-5.868379
0.545100	-5.849228
0.545200	-5.838842
0.545300	-5.850202
0.545400	-5.856369
0.545500	-5.846956
0.545600	-5.779442
0.545700	-5.683363
0.545800	-5.676547
0.545900	-5.746658
0.546000	-5.864809
0.546100	-5.934920
0.546200	-5.906681
0.546300	-5.822612
0.546400	-5.772950
0.546500	-5.824884
0.546600	-5.948878
0.546700	-6.060537
0.546800	-6.089425
0.546900	-6.046255
0.547000	-5.983609
0.547100	-5.947579
0.547200	-5.946930
0.547300	-5.962835
0.547400	-5.953097
0.547500	-5.928753
0.547600	-5.876494
0.547700	-5.812225
0.547800	-5.735947
0.547900	-5.645386
0.548000	-5.552229
0.548100	-5.468485
0.548200	-5.399348
0.548300	-5.334430
0.548400	-5.236080
0.548500	-5.104621
0.548600	-4.970242
0.548700	-4.836836
0.548800	-4.747250
0.548900	-4.665130
0.549000	-4.584307
0.549100	-4.512574
0.549200	-4.435322
0.549300	-4.347359
0.549400	-4.275301
0.549500	-4.227587
0.549600	-4.200971
0.549700	-4.178574
0.549800	-4.171109
0.549900	-4.166889
0.550000	-4.145142
0.550100	-4.128588
0.550200	-4.112683
0.550300	-4.095480
0.550400	-4.095156
0.550500	-4.092884
0.550600	-4.098402
0.550700	-4.049389
0.550800	-3.937407
0.550900	-3.770570
0.551000	-3.722207
0.551100	-3.792317
0.551200	-3.911115
0.551300	-3.918256
0.551400	-3.796537
0.551500	-3.658263
0.551600	-3.571924
0.551700	-3.601136
0.551800	-3.672870
0.551900	-3.711820
0.552000	-3.669299
0.552100	-3.585881
0.552200	-3.525508
0.552300	-3.500190
0.552400	-3.503761
0.552500	-3.519666
0.552600	-3.527131
0.552700	-3.541413
0.552800	-3.547904
0.552900	-3.552773
0.553000	-3.563160
0.553100	-3.579389
0.553200	-3.593996
0.553300	-3.668326
0.553400	-3.724154
0.553500	-3.806924
0.553600	-3.844251
0.553700	-3.867296
0.553800	-3.871516
0.553900	-3.938705
0.554000	-4.061399
0.554100	-4.168512
0.554200	-4.192856
0.554300	-4.157801
0.554400	-4.109762
0.554500	-4.160722
0.554600	-4.306786
0.554700	-4.456745
0.554800	-4.535944
0.554900	-4.530101
0.555000	-4.500889
0.555100	-4.534321
0.555200	-4.647277
0.555300	-4.755690
0.555400	-4.832941
0.555500	-4.865400
0.555600	-4.886174
0.555700	-4.917009
0.555800	-4.964075
0.555900	-5.007245
0.556000	-5.040677
0.556100	-5.058205
0.556200	-5.093261
0.556300	-5.124421
0.556400	-5.131238
0.556500	-5.120851
0.556600	-5.103648
0.556700	-5.098454
0.556800	-5.140651
0.556900	-5.175382
0.557000	-5.179277
0.557100	-5.155906
0.557200	-5.108192
0.557300	-5.096507
0.557400	-5.073785
0.557500	-5.052038
0.557600	-5.022501
0.557700	-4.999130
0.557800	-4.980304
0.557900	-4.970566
0.558000	-4.957258
0.558100	-4.952065
0.558200	-4.948495
0.558300	-4.958557
0.558400	-4.964724
0.558500	-4.978357
0.558600	-4.988743
0.558700	-4.996858
0.558800	-5.028019
0.558900	-5.056907
0.559000	-5.100077
0.559100	-5.205893
0.559200	-5.380846
0.559300	-5.498996
0.559400	-5.481793
0.559500	-5.401620
0.559600	-5.350335
0.559700	-5.446088
0.559800	-5.619094
0.559900	-5.766458
0.560000	-5.803786
0.560100	-5.759642
0.560200	-5.716471
0.560300	-5.756396
0.560400	-5.854422
0.560500	-5.962510
0.560600	-6.027428
0.560700	-6.032622
0.560800	-6.038465
0.560900	-6.051773
0.561000	-6.083258
0.561100	-6.109550
0.561200	-6.134219
0.561300	-6.143307
0.561400	-6.161160
0.561500	-6.201409
0.561600	-6.221534
0.561700	-6.231271
0.561800	-6.219262
0.561900	-6.212770
0.562000	-6.229648
0.562100	-6.249773
0.562200	-6.228675
0.562300	-6.136815
0.562400	-6.061510
0.562500	-6.066055
0.562600	-6.133570
0.562700	-6.225429
0.562800	-6.231596
0.562900	-6.139088
0.563000	-6.013146
0.563100	-5.956343
0.563200	-5.995619
0.563300	-6.080337
0.563400	-6.123507
0.563500	-6.077740
0.563600	-5.985232
0.563700	-5.913822
0.563800	-5.882661
0.563900	-5.878442
0.564000	-5.857343
0.564100	-5.826507
0.564200	-5.798592
0.564300	-5.762888
0.564400	-5.722638
0.564500	-5.669730
0.564600	-5.598321
0.564700	-5.530806
0.564800	-5.493154
0.564900	-5.475301
0.565000	-5.461020
0.565100	-5.409085
0.565200	-5.331833
0.565300	-5.233483
0.565400	-5.168241
0.565500	-5.135133
0.565600	-5.112087
0.565700	-5.086120
0.565800	-5.057231
0.565900	-5.001727
0.566000	-4.951416
0.566100	-4.909219
0.566200	-4.892990
0.566300	-4.890718
0.566400	-4.888121
0.566500	-4.891367
0.566600	-4.889420
0.566700	-4.880331
0.566800	-4.867023
0.566900	-4.859882
0.567000	-4.865075
0.567100	-4.867348
0.567200	-4.899482
0.567300	-4.879357
0.567400	-4.842679
0.567500	-4.705378
0.567600	-4.595343
0.567700	-4.601835
0.567800	-4.739136
0.567900	-4.862154
0.568000	-4.845925
0.568100	-4.744004
0.568200	-4.613196
0.568300	-4.584957
0.568400	-4.645005
0.568500	-4.731021
0.568600	-4.756014
0.568700	-4.686228
0.568800	-4.597940
0.568900	-4.530101
0.569000	-4.522961
0.569100	-4.519066
0.569200	-4.520364
0.569300	-4.511275
0.569400	-4.491476
0.569500	-4.464210
0.569600	-4.448630
0.569700	-4.444411
0.569800	-4.425909
0.569900	-4.446033
0.570000	-4.461289
0.570100	-4.504135
0.570200	-4.527829
0.570300	-4.540488
0.570400	-4.533997
0.570500	-4.533347
0.570600	-4.580088
0.570700	-4.690123
0.570800	-4.740434
0.570900	-4.717388
0.571000	-4.618389
0.571100	-4.558990
0.571200	-4.598589
0.571300	-4.707975
0.571400	-4.783929
0.571500	-4.770296
0.571600	-4.687202
0.571700	-4.606055
0.571800	-4.598914
0.571900	-4.641759
0.572000	-4.680061
0.572100	-4.681034
0.572200	-4.662533
0.572300	-4.644031
0.572400	-4.645330
0.572500	-4.648900
0.572600	-4.667077
0.572700	-4.657340
0.572800	-4.647602
0.572900	-4.650848
0.573000	-4.648576
0.573100	-4.628451
0.573200	-4.603458
0.573300	-4.570350
0.573400	-4.581711
0.573500	-4.633645
0.573600	-4.658963
0.573700	-4.648576
0.573800	-4.615792
0.573900	-4.596642
0.574000	-4.594694
0.574100	-4.595993
0.574200	-4.600212
0.574300	-4.595019
0.574400	-4.583983
0.574500	-4.585606
0.574600	-4.583009
0.574700	-4.586580
0.574800	-4.581386
0.574900	-4.587878
0.575000	-4.594370
0.575100	-4.610599
0.575200	-4.632022
0.575300	-4.654743
0.575400	-4.668376
0.575500	-4.697264
0.575600	-4.725827
0.575700	-4.763155
0.575800	-4.885200
0.575900	-5.027369
0.576000	-5.090989
0.576100	-5.022825
0.576200	-4.913439
0.576300	-4.886498
0.576400	-4.983225
0.576500	-5.124746
0.576600	-5.207840
0.576700	-5.190637
0.576800	-5.106569
0.576900	-5.063399
0.577000	-5.082874
0.577100	-5.165644
0.577200	-5.222122
0.577300	-5.239325
0.577400	-5.219850
0.577500	-5.214981
0.577600	-5.220824
0.577700	-5.230237
0.577800	-5.235106
0.577900	-5.231860
0.578000	-5.233158
0.578100	-5.248738
0.578200	-5.274381
0.578300	-5.283794
0.578400	-5.267889
0.578500	-5.244843
0.578600	-5.249388
0.578700	-5.271460
0.578800	-5.282171
0.578900	-5.235755
0.579000	-5.132211
0.579100	-5.084497
0.579200	-5.122798
0.579300	-5.219201
0.579400	-5.300348
0.579500	-5.270486
0.579600	-5.179601
0.579700	-5.090015
0.579800	-5.089690
0.579900	-5.177978
0.580000	-5.276653
0.580100	-5.310410
0.580200	-5.268538
0.580300	-5.210112
0.580400	-5.180575
0.580500	-5.177329
0.580600	-5.198103
0.580700	-5.200050
0.580800	-5.192260
0.580900	-5.173759
0.581000	-5.148441
0.581100	-5.120851
0.581200	-5.070215
0.581300	-5.003674
0.581400	-4.947521
0.581500	-4.911816
0.581600	-4.873515
0.581700	-4.822879
0.581800	-4.725178
0.581900	-4.631697
0.582000	-4.521662
0.582100	-4.441814
0.582200	-4.390854
0.582300	-4.334376
0.582400	-4.276275
0.582500	-4.208761
0.582600	-4.138650
0.582700	-4.072759
0.582800	-4.023747
0.582900	-4.008816
0.583000	-3.995183
0.583100	-3.979603
0.583200	-3.978629
0.583300	-3.966620
0.583400	-3.956557
0.583500	-3.937082
0.583600	-3.928968
0.583700	-3.930266
0.583800	-3.934810
0.583900	-3.952013
0.584000	-3.944872
0.584100	-3.871516
0.584200	-3.724479
0.584300	-3.633270
0.584400	-3.691371
0.584500	-3.832241
0.584600	-3.910466
0.584700	-3.839057
0.584800	-3.705004
0.584900	-3.591723
0.585000	-3.601136
0.585100	-3.673519
0.585200	-3.744928
0.585300	-3.722531
0.585400	-3.645280
0.585500	-3.558291
0.585600	-3.524859
0.585700	-3.526806
0.585800	-3.532649
0.585900	-3.520315
0.586000	-3.504410
0.586100	-3.489479
0.586200	-3.487856
0.586300	-3.505708
0.586400	-3.504735
0.586500	-3.501813
0.586600	-3.537193
0.586700	-3.563809
0.586800	-3.618015
0.586900	-3.651123
0.587000	-3.654368
0.587100	-3.642359
0.587200	-3.643657
0.587300	-3.735515
0.587400	-3.842628
0.587500	-3.874113
0.587600	-3.839382
0.587700	-3.732593
0.587800	-3.719285
0.587900	-3.786799
0.588000	-3.909168
0.588100	-3.961102
0.588200	-3.919230
0.588300	-3.813091
0.588400	-3.753691
0.588500	-3.786799
0.588600	-3.859506
0.588700	-3.885149
0.588800	-3.867946
0.588900	-3.824451
0.589000	-3.796861
0.589100	-3.791668
0.589200	-3.816012
0.589300	-3.809520
0.589400	-3.777386
0.589500	-3.754341
0.589600	-3.735515
0.589700	-3.720259
0.589800	-3.681958
0.589900	-3.647877
0.590000	-3.614120
0.590100	-3.616717
0.590200	-3.639437
0.590300	-3.634569
0.590400	-3.617041
0.590500	-3.562511
0.590600	-3.541413
0.590700	-3.528105
0.590800	-3.518043
0.590900	-3.508630
0.591000	-3.490128
0.591100	-3.484286
0.591200	-3.487532
0.591300	-3.494023
0.591400	-3.506033
0.591500	-3.506358
0.591600	-3.524534
0.591700	-3.545308
0.591800	-3.580688
0.591900	-3.604382
0.592000	-3.631323
0.592100	-3.667676
0.592200	-3.715715
0.592300	-3.768622
0.592400	-3.861778
0.592500	-4.034133
0.592600	-4.202594
0.592700	-4.248360
0.592800	-4.196751
0.592900	-4.148388
0.593000	-4.193830
0.593100	-4.367159
0.593200	-4.542436
0.593300	-4.637215
0.593400	-4.628451
0.593500	-4.593721
0.593600	-4.606704
0.593700	-4.692395
0.593800	-4.818010
0.593900	-4.912790
0.594000	-4.973812
0.594100	-5.009517
0.594200	-5.053012
0.594300	-5.120526
0.594400	-5.208490
0.594500	-5.302620
0.594600	-5.392531
0.594700	-5.480819
0.594800	-5.574626
0.594900	-5.682714
0.595000	-5.776845
0.595100	-5.847930
0.595200	-5.919989
0.595300	-6.004058
0.595400	-6.083258
0.595500	-6.155317
0.595600	-6.154993
0.595700	-6.136166
0.595800	-6.175766
0.595900	-6.285478
0.596000	-6.377337
0.596100	-6.370846
0.596200	-6.371170
0.596300	-6.370846
0.596400	-6.370521
0.596500	-6.370196
0.596600	-6.370521
0.596700	-6.369872
0.596800	-6.370196
0.596900	-6.369872
0.597000	-6.370196
0.597100	-6.370196
0.597200	-6.370196
0.597300	-6.370196
0.597400	-6.370196
