0.000100,-1.222264
0.000200,-1.211553
0.000300,-1.089834
0.000400,-0.981749
0.000500,-0.811668
0.000600,-0.724680
0.000700,-0.683133
0.000800,-0.661061
0.000900,-0.677940
0.001000,-0.623410
0.001100,-0.652947
0.001200,-0.570828
0.001300,-0.548756
0.001400,-0.458847
0.001500,-0.502990
0.001600,-0.477348
0.001700,-0.587057
0.001800,-0.560766
0.001900,-0.558169
0.002000,-0.297205
0.002100,0.049448
0.002200,0.171491
0.002300,0.006279
0.002400,-0.549081
0.002500,-0.459496
0.002600,-0.247220
0.002700,0.090345
0.002800,0.312034
0.002900,0.218230
0.003000,0.026403
0.003100,-0.193015
0.003200,-0.022934
0.003300,0.066651
0.003400,0.273409
0.003500,0.322421
0.003600,0.287042
0.003700,0.248416
0.003800,0.218555
0.003900,0.295156
0.004000,0.279252
0.004100,0.287691
0.004200,0.260426
0.004300,0.266918
0.004400,0.263996
0.004500,0.184798
0.004600,0.120531
0.004700,0.073142
0.004800,0.039711
0.004900,0.070546
0.005000,0.109496
0.005100,0.093591
0.005200,-0.013521
0.005300,-0.403019
0.005400,-0.325119
0.005500,-0.204375
0.005600,0.111443
0.005700,0.132216
0.005800,-0.100509
0.005900,-0.454952
0.006000,-0.491954
0.006100,-0.370885
0.006200,-0.174838
0.006300,-0.137186
0.006400,-0.261501
0.006500,-0.437749
0.006600,-0.500718
0.006700,-0.508508
0.006800,-0.457873
0.006900,-0.440670
0.007000,-0.517596
0.007100,-0.625357
0.007200,-0.628928
0.007300,-0.580565
0.007400,-0.590952
0.007500,-0.660088
0.007600,-0.689625
0.007700,-0.657491
0.007800,-0.617568
0.007900,-0.589329
0.008000,-0.688976
0.008100,-0.873663
0.008200,-0.876259
0.008300,-0.868794
0.008400,-0.782780
0.008500,-0.746102
0.008600,-0.805176
0.008700,-0.805176
0.008800,-0.830493
0.008900,-0.810369
0.009000,-0.825949
0.009100,-0.828221
0.009200,-0.803228
0.009300,-0.829520
0.009400,-0.823028
0.009500,-0.834713
0.009600,-0.857758
0.009700,-0.862302
0.009800,-0.868145
0.009900,-0.871066
0.010000,-0.886321
0.010100,-0.960326
0.010200,-0.978503
0.010300,-1.118398
0.010400,-1.419285
0.010500,-1.705243
0.010600,-1.571190
0.010700,-1.305032
0.010800,-1.046665
0.010900,-1.212851
0.011000,-1.609815
0.011100,-1.885061
0.011200,-1.973673
0.011300,-1.734780
0.011400,-1.555285
0.011500,-1.504326
0.011600,-1.744192
0.011700,-1.971725
0.011800,-2.077864
0.011900,-2.044107
0.012000,-1.926283
0.012100,-1.941214
0.012200,-1.982112
0.012300,-2.025606
0.012400,-2.060661
0.012500,-2.018465
0.012600,-2.025281
0.012700,-2.094742
0.012800,-2.162580
0.012900,-2.214838
0.013000,-2.162904
0.013100,-2.151544
0.013200,-2.151869
0.013300,-2.236260
0.013400,-2.275210
0.013500,-2.111945
0.013600,-1.926608
0.013700,-1.950303
0.013800,-2.196986
0.013900,-2.481970
0.014000,-2.629655
0.014100,-2.438476
0.014200,-2.142131
0.014300,-2.068775
0.014400,-2.269043
0.014500,-2.507937
0.014600,-2.694897
0.014700,-2.641016
0.014800,-2.496576
0.014900,-2.366418
0.015000,-2.350838
0.015100,-2.479373
0.015200,-2.516376
0.015300,-2.492357
0.015400,-2.435879
0.015500,-2.377129
0.015600,-2.316432
0.015700,-2.250542
0.015800,-2.140833
0.015900,-1.993472
0.016000,-1.931801
0.016100,-1.931152
0.016200,-1.934723
0.016300,-1.868508
0.016400,-1.598130
0.016500,-1.442980
0.016600,-1.233949
0.016700,-1.252450
0.016800,-1.221615
0.016900,-1.157997
0.017000,-1.050884
0.017100,-0.962274
0.017200,-0.795763
0.017300,-0.714293
0.017400,-0.664307
0.017500,-0.643209
0.017600,-0.650675
0.017700,-0.590952
0.017800,-0.620489
0.017900,-0.491630
0.018000,-0.447811
0.018100,-0.411458
0.018200,-0.346866
0.018300,-0.385167
0.018400,-0.391983
0.018500,-0.411458
0.018600,-0.308566
0.018700,0.003357
0.018800,0.223748
0.018900,0.443815
0.019000,-0.082008
0.019100,-0.294609
0.019200,-0.313759
0.019300,0.098460
0.019400,0.374030
0.019500,0.517495
0.019600,0.346765
0.019700,0.100083
0.019800,-0.027153
0.019900,0.135138
0.020000,0.350984
0.020100,0.529504
0.020200,0.493800
0.020300,0.442841
0.020400,0.397399
0.020500,0.394154
0.020600,0.475624
0.020700,0.497046
0.020800,0.518793
0.020900,0.466211
0.021000,0.532101
0.021100,0.412006
0.021200,0.365590
0.021300,0.258803
0.021400,0.273409
0.021500,0.238679
0.021600,0.299051
0.021700,0.314307
0.021800,0.239004
0.021900,-0.005406
0.022000,-0.242026
0.022100,-0.160556
0.022200,0.003682
0.022300,0.262049
0.022400,0.152989
0.022500,-0.124528
0.022600,-0.421845
0.022700,-0.396203
0.022800,-0.265396
0.022900,-0.060585
0.023000,-0.096938
0.023100,-0.260203
0.023200,-0.408212
0.023300,-0.376079
0.023400,-0.380947
0.023500,-0.304671
0.023600,-0.384193
0.023700,-0.454627
0.023800,-0.514675
0.023900,-0.468260
0.024000,-0.441969
0.024100,-0.495849
0.024200,-0.539992
0.024300,-0.502666
0.024400,-0.442942
0.024500,-0.395554
0.024600,-0.394904
0.024700,-0.518570
0.024800,-0.619190
0.024900,-0.594198
0.025000,-0.560441
0.025100,-0.418599
0.025200,-0.471181
0.025300,-0.487735
0.025400,-0.479296
0.025500,-0.495849
0.025600,-0.502990
0.025700,-0.499420
0.025800,-0.512403
0.025900,-0.507859
0.026000,-0.507210
0.026100,-0.500718
0.026200,-0.539019
0.026300,-0.578942
0.026400,-0.606856
0.026500,-0.636393
0.026600,-0.657816
0.026700,-0.721758
0.026800,-0.747400
0.026900,-0.783104
0.027000,-0.946369
0.027100,-1.355992
0.027200,-1.525424
0.027300,-1.390398
0.027400,-1.021672
0.027500,-0.957080
0.027600,-1.151180
0.027700,-1.590340
0.027800,-1.849357
0.027900,-1.798722
0.028000,-1.553987
0.028100,-1.423180
0.028200,-1.465701
0.028300,-1.732508
0.028400,-1.935047
0.028500,-1.964909
0.028600,-1.922064
0.028700,-1.860718
0.028800,-1.899343
0.028900,-1.971076
0.029000,-2.020737
0.029100,-2.081110
0.029200,-2.068126
0.029300,-2.066179
0.029400,-2.096040
0.029500,-2.172967
0.029600,-2.109024
0.029700,-2.142456
0.029800,-2.116489
0.029900,-2.196986
0.030000,-2.243076
0.030100,-2.230418
0.030200,-1.996718
0.030300,-1.857147
0.030400,-1.965233
0.030500,-2.198609
0.030600,-2.453082
0.030700,-2.441072
0.030800,-2.206074
0.030900,-1.989253
0.031000,-1.983410
0.031100,-2.200556
0.031200,-2.452757
0.031300,-2.542667
0.031400,-2.416404
0.031500,-2.246322
0.031600,-2.193740
0.031700,-2.238208
0.031800,-2.296633
0.031900,-2.317081
0.032000,-2.292089
0.032100,-2.274886
0.032200,-2.222952
0.032300,-2.167773
0.032400,-2.083706
0.032500,-1.926283
0.032600,-1.825663
0.032700,-1.776651
0.032800,-1.744192
0.032900,-1.733157
0.033000,-1.603324
0.033100,-1.402732
0.033200,-1.172603
0.033300,-1.080421
0.033400,-1.125538
0.033500,-1.059648
0.033600,-1.005768
0.033700,-0.899305
0.033800,-0.802579
0.033900,-0.685730
0.034000,-0.630875
0.034100,-0.619515
0.034200,-0.647104
0.034300,-0.561739
0.034400,-0.599391
0.034500,-0.505911
0.034600,-0.508183
0.034700,-0.406589
0.034800,-0.430933
0.034900,-0.355955
0.035000,-0.411133
0.035100,-0.396527
0.035200,-0.382895
0.035300,-0.220929
0.035400,0.078336
0.035500,0.369485
0.035600,0.312684
0.035700,-0.156986
0.035800,-0.341998
0.035900,-0.138160
0.036000,0.161429
0.036100,0.471079
0.036200,0.386364
0.036300,0.220502
0.036400,-0.080385
0.036500,0.025754
0.036600,0.190966
0.036700,0.451605
0.036800,0.552874
0.036900,0.485361
0.037000,0.427261
0.037100,0.376302
0.037200,0.419471
0.037300,0.437972
0.037400,0.487633
0.037500,0.451280
0.037600,0.454850
0.037700,0.453227
0.037800,0.400970
0.037900,0.244522
0.038000,0.243223
0.038100,0.132216
0.038200,0.212388
0.038300,0.264646
0.038400,0.308789
0.038500,0.222450
0.038600,-0.199506
0.038700,-0.224824
0.038800,-0.166074
0.038900,0.121505
0.039000,0.278603
0.039100,0.074116
0.039200,-0.221253
0.039300,-0.412107
0.039400,-0.326742
0.039500,-0.103430
0.039600,0.025754
0.039700,-0.052795
0.039800,-0.255983
0.039900,-0.349788
0.040000,-0.292012
0.040100,-0.296881
0.040200,-0.224824
0.040300,-0.334532
0.040400,-0.399124
0.040500,-0.445864
0.040600,-0.407888
0.040700,-0.412432
0.040800,-0.476050
0.040900,-0.538045
0.041000,-0.525062
0.041100,-0.480919
0.041200,-0.477997
0.041300,-0.539343
0.041400,-0.719162
0.041500,-0.788947
0.041600,-0.798360
0.041700,-0.783753
0.041800,-0.666255
0.041900,-0.737987
0.042000,-0.762006
0.042100,-0.777586
0.042200,-0.780183
0.042300,-0.790894
0.042400,-0.792193
0.042500,-0.782455
0.042600,-0.781806
0.042700,-0.783753
0.042800,-0.789596
0.042900,-0.795763
0.043000,-0.762656
0.043100,-0.787648
0.043200,-0.795114
0.043300,-0.848021
0.043400,-0.877558
0.043500,-0.911963
0.043600,-0.957405
0.043700,-1.182989
0.043800,-1.605596
0.043900,-1.627343
0.044000,-1.399810
0.044100,-1.117099
0.044200,-1.131056
0.044300,-1.464402
0.044400,-1.838971
0.044500,-2.016842
0.044600,-1.875649
0.044700,-1.641949
0.044800,-1.547495
0.044900,-1.749061
0.045000,-2.004508
0.045100,-2.174914
0.045200,-2.143754
0.045300,-2.049625
0.045400,-2.001911
0.045500,-2.038914
0.045600,-2.116164
0.045700,-2.184002
0.045800,-2.186274
0.045900,-2.160957
0.046000,-2.202828
0.046100,-2.259955
0.046200,-2.314485
0.046300,-2.344346
0.046400,-2.288518
0.046500,-2.313511
0.046600,-2.366743
0.046700,-2.442695
0.046800,-2.327793
0.046900,-2.135639
0.047000,-2.069425
0.047100,-2.220680
0.047200,-2.500796
0.047300,-2.721837
0.047400,-2.614400
0.047500,-2.307344
0.047600,-2.118437
0.047700,-2.186599
0.047800,-2.473855
0.047900,-2.707880
0.048000,-2.732224
0.048100,-2.561168
0.048200,-2.417702
0.048300,-2.374208
0.048400,-2.431984
0.048500,-2.498199
0.048600,-2.517674
0.048700,-2.489111
0.048800,-2.428089
0.048900,-2.366094
0.049000,-2.297282
0.049100,-2.218408
0.049200,-2.067802
0.049300,-1.949004
0.049400,-1.889930
0.049500,-1.852928
0.049600,-1.839620
0.049700,-1.616632
0.049800,-1.447199
0.049900,-1.152154
0.050000,-1.091457
0.050100,-1.085615
0.050200,-1.038875
0.050300,-0.960975
0.050400,-0.844775
0.050500,-0.647104
0.050600,-0.545186
0.050700,-0.516298
0.050800,-0.486112
0.050900,-0.518245
0.051000,-0.445215
0.051100,-0.503315
0.051200,-0.416327
0.051300,-0.442942
0.051400,-0.399124
0.051500,-0.393281
0.051600,-0.417301
0.051700,-0.452355
0.051800,-0.482866
0.051900,-0.415353
0.052000,-0.172566
0.052100,0.075090
0.052200,0.313008
0.052300,0.018937
0.052400,-0.375429
0.052500,-0.386790
0.052600,-0.093043
0.052700,0.223748
0.052800,0.412006
0.052900,0.353906
0.053000,0.130269
0.053100,0.024455
0.053200,0.138059
0.053300,0.305867
0.053400,0.555146
0.053500,0.519767
0.053600,0.557418
0.053700,0.457122
0.053800,0.471079
0.053900,0.486010
0.054000,0.572349
0.054100,0.570726
0.054200,0.589552
0.054300,0.623633
0.054400,0.614220
0.054500,0.602210
0.054600,0.458096
0.054700,0.442516
0.054800,0.369485
0.054900,0.493151
0.055000,0.551900
0.055100,0.658038
0.055200,0.415576
0.055300,0.164350
0.055400,0.131243
0.055500,0.251662
0.055600,0.587280
0.055700,0.528855
0.055800,0.356178
0.055900,-0.014819
0.056000,-0.052146
0.056100,0.028026
0.056200,0.255233
0.056300,0.316579
0.056400,0.177658
0.056500,0.017639
0.056600,-0.043058
0.056700,-0.047927
0.056800,-0.053120
0.056900,-0.056690
0.057000,-0.128423
0.057100,-0.188795
0.057200,-0.176461
0.057300,-0.139459
0.057400,-0.175163
0.057500,-0.217034
0.057600,-0.225473
0.057700,-0.176461
0.057800,-0.144327
0.057900,-0.135239
0.058000,-0.235859
0.058100,-0.355305
0.058200,-0.368938
0.058300,-0.361148
0.058400,-0.236508
0.058500,-0.237482
0.058600,-0.258905
0.058700,-0.227420
0.058800,-0.213139
0.058900,-0.205673
0.059000,-0.176785
0.059100,-0.171268
0.059200,-0.201454
0.059300,-0.195936
0.059400,-0.224824
0.059500,-0.223850
0.059600,-0.289415
0.059700,-0.295907
0.059800,-0.346866
0.059900,-0.376079
0.060000,-0.423143
0.060100,-0.478971
0.060200,-0.541615
0.060300,-0.704880
0.060400,-1.032708
0.060500,-1.356966
0.060600,-1.277767
0.060700,-0.990837
0.060800,-0.816536
0.060900,-0.903524
0.061000,-1.294321
0.061100,-1.626369
0.061200,-1.633510
0.061300,-1.463104
0.061400,-1.279715
0.061500,-1.255047
0.061600,-1.488746
0.061700,-1.772107
0.061800,-1.850656
0.061900,-1.834102
0.062000,-1.796126
0.062100,-1.805863
0.062200,-1.865262
0.062300,-1.964584
0.062400,-2.019763
0.062500,-2.062284
0.062600,-2.060012
0.062700,-2.140184
0.062800,-2.260929
0.062900,-2.259306
0.063000,-2.220031
0.063100,-2.253139
0.063200,-2.299879
0.063300,-2.377454
0.063400,-2.435879
0.063500,-2.283974
0.063600,-2.093768
0.063700,-2.153167
0.063800,-2.310914
0.063900,-2.556299
0.064000,-2.647507
0.064100,-2.426791
0.064200,-2.163229
0.064300,-2.060985
0.064400,-2.180432
0.064500,-2.460223
0.064600,-2.634849
0.064700,-2.570257
0.064800,-2.382972
0.064900,-2.245673
0.065000,-2.230093
0.065100,-2.271964
0.065200,-2.297606
0.065300,-2.300203
0.065400,-2.261253
0.065500,-2.185950
0.065600,-2.119086
0.065700,-2.016517
0.065800,-1.904861
0.065900,-1.730885
0.066000,-1.646493
0.066100,-1.625720
0.066200,-1.611763
0.066300,-1.550741
0.066400,-1.296593
0.066500,-1.155725
0.066600,-0.893138
0.066700,-0.882102
0.066800,-0.832765
0.066900,-0.762331
0.067000,-0.635420
0.067100,-0.543887
0.067200,-0.397826
0.067300,-0.313759
0.067400,-0.271888
0.067500,-0.319601
0.067600,-0.269940
0.067700,-0.290714
0.067800,-0.255983
0.067900,-0.234561
0.068000,-0.193015
0.068100,-0.105702
0.068200,-0.160232
0.068300,-0.083955
0.068400,-0.230991
0.068500,-0.145626
0.068600,-0.136862
0.068700,0.203949
0.068800,0.466535
0.068900,0.556120
0.069000,0.182851
0.069100,-0.142380
0.069200,-0.054418
0.069300,0.259452
0.069400,0.521390
0.069500,0.611948
0.069600,0.443815
0.069700,0.200378
0.069800,0.139357
0.069900,0.287691
0.070000,0.471404
0.070100,0.582086
0.070200,0.533724
0.070300,0.491853
0.070400,0.485361
0.070500,0.479194
0.070600,0.535347
0.070700,0.585332
0.070800,0.558716
0.070900,0.547032
0.071000,0.571051
0.071100,0.610974
0.071200,0.360722
0.071300,0.442192
0.071400,0.238679
0.071500,0.302946
0.071600,0.355853
0.071700,0.375977
0.071800,0.322097
0.071900,0.058861
0.072000,-0.172890
0.072100,-0.121282
0.072200,0.067949
0.072300,0.313333
0.072400,0.165324
0.072500,-0.099210
0.072600,-0.359525
0.072700,-0.345568
0.072800,-0.165750
0.072900,0.036140
0.073000,-0.018065
0.073100,-0.215735
0.073200,-0.353358
0.073300,-0.335831
0.073400,-0.366017
0.073500,-0.305644
0.073600,-0.389062
0.073700,-0.464040
0.073800,-0.556222
0.073900,-0.547782
0.074000,-0.540966
0.074100,-0.585109
0.074200,-0.670150
0.074300,-0.679238
0.074400,-0.621138
0.074500,-0.591926
0.074600,-0.585109
0.074700,-0.763305
0.074800,-0.879505
0.074900,-0.892488
0.075000,-0.881128
0.075100,-0.728250
0.075200,-0.825949
0.075300,-0.875935
0.075400,-0.865873
0.075500,-0.867496
0.075600,-0.855811
0.075700,-0.875935
0.075800,-0.883725
0.075900,-0.911639
0.076000,-0.905147
0.076100,-0.910990
0.076200,-0.915534
0.076300,-0.947018
0.076400,-0.948317
0.076500,-0.963896
0.076600,-1.011610
0.076700,-1.042770
0.076800,-1.115801
0.076900,-1.159944
0.077000,-1.315744
0.077100,-1.718226
0.077200,-1.865262
0.077300,-1.701023
0.077400,-1.382608
0.077500,-1.301137
0.077600,-1.532889
0.077700,-1.928231
0.077800,-2.154465
0.077900,-2.059038
0.078000,-1.830207
0.078100,-1.686417
0.078200,-1.778274
0.078300,-2.030799
0.078400,-2.223926
0.078500,-2.227172
0.078600,-2.127200
0.078700,-2.088250
0.078800,-2.106102
0.078900,-2.165826
0.079000,-2.208346
0.079100,-2.186924
0.079200,-2.163229
0.079300,-2.189196
0.079400,-2.258656
0.079500,-2.321301
0.079600,-2.350838
0.079700,-2.286246
0.079800,-2.277158
0.079900,-2.328117
0.080000,-2.387191
0.080100,-2.331039
0.080200,-2.091821
0.080300,-2.013921
0.080400,-2.138561
0.080500,-2.355058
0.080600,-2.590705
0.080700,-2.569932
0.080800,-2.335907
0.080900,-2.098962
0.081000,-2.102207
0.081100,-2.308967
0.081200,-2.581942
0.081300,-2.674448
0.081400,-2.522543
0.081500,-2.314160
0.081600,-2.246322
0.081700,-2.253463
0.081800,-2.313186
0.081900,-2.291764
0.082000,-2.262876
0.082100,-2.216136
0.082200,-2.122332
0.082300,-2.065205
0.082400,-1.936021
0.082500,-1.775352
0.082600,-1.661424
0.082700,-1.642274
0.082800,-1.638054
0.082900,-1.637405
0.083000,-1.486474
0.083100,-1.286531
0.083200,-1.225510
0.083300,-0.971362
0.083400,-1.011610
0.083500,-0.966493
0.083600,-0.868469
0.083700,-0.741882
0.083800,-0.609128
0.083900,-0.487735
0.084000,-0.407238
0.084100,-0.394904
0.084200,-0.409511
0.084300,-0.374456
0.084400,-0.377702
0.084500,-0.333234
0.084600,-0.310838
0.084700,-0.209244
0.084800,-0.195936
0.084900,-0.209893
0.085000,-0.235210
0.085100,-0.235859
0.085200,-0.218657
0.085300,-0.109922
0.085400,0.322097
0.085500,0.466860
0.085600,0.517170
0.085700,0.028675
0.085800,-0.086876
0.085900,0.056913
0.086000,0.419796
0.086100,0.661284
0.086200,0.732043
0.086300,0.525934
0.086400,0.347414
0.086500,0.409734
0.086600,0.632721
0.086700,0.889790
0.086800,0.887842
0.086900,0.938152
0.087000,0.818057
0.087100,0.884272
0.087200,0.890114
0.087300,0.942696
0.087400,0.938477
0.087500,0.930687
0.087600,0.937179
0.087700,0.961847
0.087800,0.905694
0.087900,0.803451
0.088000,0.721007
0.088100,0.664855
0.088200,0.680759
0.088300,0.744702
0.088400,0.751518
0.088500,0.663556
0.088600,0.325667
0.088700,0.223424
0.088800,0.305867
0.088900,0.563585
0.089000,0.882973
0.089100,0.527881
0.089200,0.181877
0.089300,0.024455
0.089400,0.108197
0.089500,0.323719
0.089600,0.609027
0.089700,0.362669
0.089800,0.193238
0.089900,0.086450
0.090000,0.130593
0.090100,0.140006
0.090200,0.196159
0.090300,0.100083
0.090400,0.047825
0.090500,-0.033645
0.090600,-0.037865
0.090700,-0.049225
0.090800,-0.121931
0.090900,-0.152766
0.091000,-0.168346
0.091100,-0.136537
0.091200,-0.125826
0.091300,-0.197234
0.091400,-0.398475
0.091500,-0.460470
0.091600,-0.458198
0.091700,-0.303372
0.091800,-0.343620
0.091900,-0.420222
0.092000,-0.454627
0.092100,-0.450408
0.092200,-0.467286
0.092300,-0.474427
0.092400,-0.496498
0.092500,-0.539019
0.092600,-0.576670
0.092700,-0.627305
0.092800,-0.653921
0.092900,-0.712995
0.093000,-0.722407
0.093100,-0.785701
0.093200,-0.757787
0.093300,-0.874312
0.093400,-0.884698
0.093500,-0.981424
0.093600,-1.032708
0.093700,-1.298541
0.093800,-1.681548
0.093900,-1.748737
0.094000,-1.455963
0.094100,-1.143066
0.094200,-1.128784
0.094300,-1.434216
0.094400,-1.885061
0.094500,-2.086303
0.094600,-1.951601
0.094700,-1.718550
0.094800,-1.629615
0.094900,-1.778274
0.095000,-2.049950
0.095100,-2.244375
0.095200,-2.246971
0.095300,-2.222952
0.095400,-2.170694
0.095500,-2.225224
0.095600,-2.291764
0.095700,-2.345969
0.095800,-2.388490
0.095900,-2.365444
0.096000,-2.382323
0.096100,-2.443020
0.096200,-2.503068
0.096300,-2.530333
0.096400,-2.522867
0.096500,-2.586486
0.096600,-2.645560
0.096700,-2.686133
0.096800,-2.587459
0.096900,-2.364795
0.097000,-2.304747
0.097100,-2.479373
0.097200,-2.753971
0.097300,-2.951643
0.097400,-2.876015
0.097500,-2.595574
0.097600,-2.393683
0.097700,-2.454056
0.097800,-2.727680
0.097900,-2.952616
0.098000,-2.998058
0.098100,-2.813370
0.098200,-2.648806
0.098300,-2.656596
0.098400,-2.709503
0.098500,-2.793895
0.098600,-2.765331
0.098700,-2.732548
0.098800,-2.662763
0.098900,-2.582266
0.099000,-2.494629
0.099100,-2.320976
0.099200,-2.124928
0.099300,-2.050599
0.099400,-2.004508
0.099500,-1.982112
0.099600,-1.958742
0.099700,-1.722770
0.099800,-1.557557
0.099900,-1.368975
0.100000,-1.227457
0.100100,-1.216421
0.100200,-1.161892
0.100300,-1.075877
0.100400,-0.949939
0.100500,-0.815887
0.100600,-0.705854
0.100700,-0.659439
0.100800,-0.661711
0.100900,-0.660088
0.101000,-0.616269
0.101100,-0.671124
0.101200,-0.609128
0.101300,-0.563687
0.101400,-0.529281
0.101500,-0.496498
0.101600,-0.577319
0.101700,-0.486436
0.101800,-0.670799
0.101900,-0.424441
0.102000,-0.356279
0.102100,0.135787
0.102200,0.224073
0.102300,0.120207
0.102400,-0.357577
0.102500,-0.428336
0.102600,-0.100509
0.102700,0.219529
0.102800,0.420769
0.102900,0.348388
0.103000,0.118584
0.103100,0.033543
0.103200,0.153639
0.103300,0.480168
0.103400,0.584358
0.103500,0.681408
0.103600,0.591824
0.103700,0.600588
0.103800,0.571375
0.103900,0.634019
0.104000,0.718086
0.104100,0.726525
0.104200,0.733341
0.104300,0.713217
0.104400,0.679785
0.104500,0.595070
0.104600,0.525609
0.104700,0.475624
0.104800,0.460044
0.104900,0.500941
0.105000,0.586955
0.105100,0.579814
0.105200,0.401944
0.105300,0.023481
0.105400,0.096188
0.105500,0.261400
0.105600,0.511003
0.105700,0.547356
0.105800,0.302622
0.105900,0.017314
0.106000,-0.043707
0.106100,0.096512
0.106200,0.314956
0.106300,0.369485
0.106400,0.224397
0.106500,0.057238
0.106600,0.006279
0.106700,0.030947
0.106800,0.037114
0.106900,0.017964
0.107000,-0.116089
0.107100,-0.191392
0.107200,-0.264747
0.107300,-0.248518
0.107400,-0.293635
0.107500,-0.370561
0.107600,-0.389386
0.107700,-0.348165
0.107800,-0.334532
0.107900,-0.300127
0.108000,-0.315382
0.108100,-0.393281
0.108200,-0.381597
0.108300,-0.389062
0.108400,-0.382570
0.108500,-0.364394
0.108600,-0.368289
0.108700,-0.340050
0.108800,-0.344919
0.108900,-0.329014
0.109000,-0.334532
0.109100,-0.360823
0.109200,-0.365367
0.109300,-0.409511
0.109400,-0.416327
0.109500,-0.452031
0.109600,-0.467286
0.109700,-0.479945
0.109800,-0.508183
0.109900,-0.528308
0.110000,-0.567906
0.110100,-0.580241
0.110200,-0.651973
0.110300,-0.697090
0.110400,-1.052832
0.110500,-1.343982
0.110600,-1.337491
0.110700,-1.005443
0.110800,-0.820756
0.110900,-0.875286
0.111000,-1.314121
0.111100,-1.611438
0.111200,-1.717577
0.111300,-1.529643
0.111400,-1.323209
0.111500,-1.362159
0.111600,-1.578006
0.111700,-1.846761
0.111800,-1.973023
0.111900,-1.901940
0.112000,-1.858446
0.112100,-1.879219
0.112200,-1.920116
0.112300,-1.997692
0.112400,-2.036966
0.112500,-2.097988
0.112600,-2.086303
0.112700,-2.161606
0.112800,-2.256709
0.112900,-2.257358
0.113000,-2.245673
0.113100,-2.230093
0.113200,-2.336232
0.113300,-2.421922
0.113400,-2.448213
0.113500,-2.300203
0.113600,-2.102207
0.113700,-2.117463
0.113800,-2.305721
0.113900,-2.550132
0.114000,-2.672176
0.114100,-2.456003
0.114200,-2.186924
0.114300,-2.124604
0.114400,-2.270017
0.114500,-2.540719
0.114600,-2.698467
0.114700,-2.646209
0.114800,-2.461846
0.114900,-2.347268
0.115000,-2.348891
0.115100,-2.371611
0.115200,-2.386542
0.115300,-2.397254
0.115400,-2.358304
0.115500,-2.299554
0.115600,-2.207697
0.115700,-2.105778
0.115800,-1.934723
0.115900,-1.782169
0.116000,-1.745166
0.116100,-1.703620
0.116200,-1.685443
0.116300,-1.598779
0.116400,-1.367352
0.116500,-1.268355
0.116600,-1.001873
0.116700,-0.965519
0.116800,-0.938904
0.116900,-0.887295
0.117000,-0.773691
0.117100,-0.629252
0.117200,-0.488709
0.117300,-0.418274
0.117400,-0.361148
0.117500,-0.406265
0.117600,-0.397176
0.117700,-0.368938
0.117800,-0.400098
0.117900,-0.338103
0.118000,-0.282275
0.118100,-0.283897
0.118200,-0.261177
0.118300,-0.341998
0.118400,-0.324146
0.118500,-0.398799
0.118600,-0.262475
0.118700,-0.032671
0.118800,0.403242
0.118900,0.368187
0.119000,0.066651
0.119100,-0.382246
0.119200,-0.252413
0.119300,0.034842
0.119400,0.372082
0.119500,0.480168
0.119600,0.331834
0.119700,0.139682
0.119800,-0.024232
0.119900,0.155586
0.120000,0.363643
0.120100,0.474001
0.120200,0.549304
0.120300,0.465237
0.120400,0.472378
0.120500,0.397399
0.120600,0.486335
0.120700,0.484387
0.120800,0.506783
0.120900,0.489581
0.121000,0.539566
0.121100,0.512950
0.121200,0.426287
0.121300,0.392206
0.121400,0.288665
0.121500,0.286068
0.121600,0.379872
0.121700,0.384416
0.121800,0.390583
0.121900,0.067949
0.122000,-0.084604
0.122100,-0.085903
0.122200,0.132865
0.122300,0.359423
0.122400,0.271786
0.122500,-0.001511
0.122600,-0.241053
0.122700,-0.190742
0.122800,-0.042084
0.122900,0.139032
0.123000,0.118908
0.123100,-0.043058
0.123200,-0.142380
0.123300,-0.120957
0.123400,-0.125826
0.123500,-0.094991
0.123600,-0.163478
0.123700,-0.233587
0.123800,-0.282599
0.123900,-0.323172
0.124000,-0.315382
0.124100,-0.373807
0.124200,-0.417950
0.124300,-0.415678
0.124400,-0.380947
0.124500,-0.357253
0.124600,-0.329339
0.124700,-0.495849
0.124800,-0.605233
0.124900,-0.627954
0.125000,-0.500393
0.125100,-0.452031
0.125200,-0.503964
0.125300,-0.541615
0.125400,-0.557195
0.125500,-0.565634
0.125600,-0.568231
0.125700,-0.556871
0.125800,-0.578618
0.125900,-0.577644
0.126000,-0.603286
0.126100,-0.611400
0.126200,-0.648078
0.126300,-0.657816
0.126400,-0.674694
0.126500,-0.728575
0.126600,-0.732145
0.126700,-0.780183
0.126800,-0.854188
0.126900,-0.930140
0.127000,-1.144364
0.127100,-1.544574
0.127200,-1.696803
0.127300,-1.521853
0.127400,-1.225510
0.127500,-1.132030
0.127600,-1.373844
0.127700,-1.746140
0.127800,-2.006131
0.127900,-1.971076
0.128000,-1.744842
0.128100,-1.619228
0.128200,-1.693882
0.128300,-1.957119
0.128400,-2.134666
0.128500,-2.172317
0.128600,-2.094742
0.128700,-2.067152
0.128800,-2.120384
0.128900,-2.199907
0.129000,-2.264499
0.129100,-2.257358
0.129200,-2.263201
0.129300,-2.299554
0.129400,-2.373884
0.129500,-2.439125
0.129600,-2.460547
0.129700,-2.400499
0.129800,-2.391736
0.129900,-2.507612
0.130000,-2.560519
0.130100,-2.513130
0.130200,-2.244699
0.130300,-2.114217
0.130400,-2.239506
0.130500,-2.488462
0.130600,-2.724758
0.130700,-2.692300
0.130800,-2.441072
0.130900,-2.211267
0.131000,-2.204451
0.131100,-2.395306
0.131200,-2.661140
0.131300,-2.760463
0.131400,-2.631603
0.131500,-2.433282
0.131600,-2.348891
0.131700,-2.365444
0.131800,-2.439449
0.131900,-2.428414
0.132000,-2.386542
0.132100,-2.335583
0.132200,-2.225549
0.132300,-2.127525
0.132400,-2.023009
0.132500,-1.847085
0.132600,-1.692584
0.132700,-1.617930
0.132800,-1.590989
0.132900,-1.580278
0.133000,-1.395591
0.133100,-1.152479
0.133200,-0.872040
0.133300,-0.778885
0.133400,-0.780183
0.133500,-0.715591
0.133600,-0.607830
0.133700,-0.441644
0.133800,-0.321873
0.133900,-0.109597
0.134000,-0.094017
0.134100,-0.025855
0.134200,-0.027802
0.134300,0.072169
0.134400,0.053992
0.134500,0.126374
0.134600,0.156884
0.134700,0.259128
0.134800,0.318526
0.134900,0.288015
0.135000,0.354879
0.135100,0.287691
0.135200,0.425638
0.135300,0.490879
0.135400,0.869666
0.135500,1.164061
0.135600,0.993331
0.135700,0.712568
0.135800,0.360073
0.135900,0.703804
0.136000,0.883623
0.136100,1.252997
0.136200,1.222161
0.136300,1.025140
0.136400,0.855384
0.136500,0.821952
0.136600,1.108558
0.136700,1.271822
0.136800,1.338037
0.136900,1.277665
0.137000,1.242285
0.137100,1.253321
0.137200,1.259164
0.137300,1.881387
0.137400,2.045625
0.137500,2.175133
0.137600,2.100155
0.137700,2.503611
0.137800,2.184546
0.137900,1.724614
0.138000,2.009597
0.138100,1.476958
0.138200,2.084900
0.138300,2.443563
0.138400,2.962246
0.138500,2.262446
0.138600,0.332808
0.138700,0.655766
0.138800,0.879403
0.138900,2.798981
0.139000,3.601349
0.139100,2.827868
0.139200,0.893685
0.139300,0.451280
0.139400,0.511977
0.139500,1.753502
0.139600,2.827219
0.139700,2.443238
0.139800,1.249751
0.139900,0.496072
0.140000,0.763203
0.140100,0.777160
0.140200,1.252997
0.140300,0.604158
0.140400,0.177658
0.140500,0.105925
0.140600,0.097161
0.140700,0.048799
0.140800,-0.041759
0.140900,-0.102456
0.141000,-0.150494
0.141100,-0.167048
0.141200,-0.187821
0.141300,-0.259229
0.141400,-0.462093
0.141500,-0.539343
0.141600,-0.532527
0.141700,-0.524088
0.141800,-0.444890
0.141900,-0.545186
0.142000,-0.577644
0.142100,-0.590303
0.142200,-0.603286
0.142300,-0.630875
0.142400,-0.663009
0.142500,-0.709100
0.142600,-0.729224
0.142700,-0.779534
0.142800,-0.837959
0.142900,-0.894111
0.143000,-0.929491
0.143100,-0.962923
0.143200,-1.028164
0.143300,-1.113853
0.143400,-1.207658
0.143500,-1.315744
0.143600,-1.391696
0.143700,-1.701672
0.143800,-2.087601
0.143900,-2.129148
0.144000,-1.882465
0.144100,-1.607219
0.144200,-1.598455
0.144300,-1.951276
0.144400,-2.359602
0.144500,-2.535526
0.144600,-2.401149
0.144700,-2.134666
0.144800,-2.055467
0.144900,-2.187248
0.145000,-2.468986
0.145100,-2.615698
0.145200,-2.573178
0.145300,-2.540395
0.145400,-2.491058
0.145500,-2.514428
0.145600,-2.539746
0.145700,-2.595250
0.145800,-2.606610
0.145900,-2.574152
0.146000,-2.589732
0.146100,-2.669255
0.146200,-2.733522
0.146300,-2.686782
0.146400,-2.696195
0.146500,-2.716644
0.146600,-2.787403
0.146700,-2.787728
0.146800,-2.723460
0.146900,-2.453406
0.147000,-2.383296
0.147100,-2.540070
0.147200,-2.784157
0.147300,-2.980855
0.147400,-2.851995
0.147500,-2.579669
0.147600,-2.350189
0.147700,-2.381024
0.147800,-2.651078
0.147900,-2.911719
0.148000,-2.929246
0.148100,-2.745532
0.148200,-2.552080
0.148300,-2.520271
0.148400,-2.554027
0.148500,-2.613751
0.148600,-2.596872
0.148700,-2.556624
0.148800,-2.521894
0.148900,-2.455029
0.149000,-2.363172
0.149100,-2.221005
0.149200,-2.075592
0.149300,-1.989902
0.149400,-1.962637
0.149500,-1.942188
0.149600,-1.893825
0.149700,-1.685768
0.149800,-1.521204
0.149900,-1.391047
0.150000,-1.183639
0.150100,-1.135600
0.150200,-1.056727
0.150300,-0.936956
0.150400,-0.798360
0.150500,-0.605883
0.150600,-0.456250
0.150700,-0.391334
0.150800,-0.351735
0.150900,-0.366341
0.151000,-0.280976
0.151100,-0.338752
0.151200,-0.180680
0.151300,-0.214112
0.151400,-0.092070
0.151500,-0.182953
0.151600,-0.109922
0.151700,-0.186523
0.151800,-0.150170
0.151900,-0.070323
0.152000,0.085477
0.152100,0.485036
0.152200,0.593771
0.152300,0.375652
0.152400,-0.098237
0.152500,-0.156337
0.152600,0.179930
0.152700,0.455824
0.152800,0.704129
0.152900,0.497046
0.153000,0.326316
0.153100,0.106899
0.153200,0.196808
0.153300,0.417848
0.153400,0.571700
0.153500,0.634019
0.153600,0.527881
0.153700,0.541514
0.153800,0.467184
0.153900,0.513924
0.154000,0.526907
0.154100,0.530153
0.154200,0.547681
0.154300,0.538268
0.154400,0.558716
0.154500,0.431805
0.154600,0.334755
0.154700,0.242899
0.154800,0.289638
0.154900,0.282822
0.155000,0.399347
0.155100,0.406812
0.155200,0.208168
0.155300,-0.106351
0.155400,-0.078113
0.155500,0.076713
0.155600,0.360722
0.155700,0.358450
0.155800,0.144550
0.155900,-0.153740
0.156000,-0.229368
0.156100,-0.121931
0.156200,0.123453
0.156300,0.193887
0.156400,0.040360
0.156500,-0.157635
0.156600,-0.211516
0.156700,-0.171917
0.156800,-0.146275
0.156900,-0.148547
0.157000,-0.226771
0.157100,-0.294609
0.157200,-0.272862
0.157300,-0.270265
0.157400,-0.315382
0.157500,-0.412432
0.157600,-0.416327
0.157700,-0.375754
0.157800,-0.352709
0.157900,-0.325768
0.158000,-0.444241
0.158100,-0.599066
0.158200,-0.613023
0.158300,-0.594847
0.158400,-0.582188
0.158500,-0.502341
0.158600,-0.549405
0.158700,-0.548107
0.158800,-0.550054
0.158900,-0.526360
0.159000,-0.521491
0.159100,-0.521167
0.159200,-0.510780
0.159300,-0.532852
0.159400,-0.525386
0.159500,-0.549081
0.159600,-0.538694
0.159700,-0.555572
0.159800,-0.530580
0.159900,-0.564336
0.160000,-0.553300
0.160100,-0.596470
0.160200,-0.609453
0.160300,-0.736365
0.160400,-1.047639
0.160500,-1.374493
0.160600,-1.274522
0.160700,-0.969414
0.160800,-0.764603
0.160900,-0.847372
0.161000,-1.290751
0.161100,-1.634159
0.161200,-1.711410
0.161300,-1.469271
0.161400,-1.256345
0.161500,-1.281338
0.161600,-1.478684
0.161700,-1.739648
0.161800,-1.846436
0.161900,-1.821768
0.162000,-1.758150
0.162100,-1.746789
0.162200,-1.828259
0.162300,-1.873052
0.162400,-1.933100
0.162500,-1.959066
0.162600,-1.946083
0.162700,-1.997043
0.162800,-2.069749
0.162900,-2.126876
0.163000,-2.112919
0.163100,-2.147324
0.163200,-2.225224
0.163300,-2.312213
0.163400,-2.290466
0.163500,-2.168422
0.163600,-1.910379
0.163700,-1.956794
0.163800,-2.185950
0.163900,-2.447889
0.164000,-2.613102
0.164100,-2.413158
0.164200,-2.132069
0.164300,-1.999315
0.164400,-2.174589
0.164500,-2.490084
0.164600,-2.689703
0.164700,-2.651078
0.164800,-2.465741
0.164900,-2.349864
0.165000,-2.371287
0.165100,-2.461196
0.165200,-2.526113
0.165300,-2.505664
0.165400,-2.452108
0.165500,-2.397578
0.165600,-2.325845
0.165700,-2.264499
0.165800,-2.134666
0.165900,-2.012298
0.166000,-1.954198
0.166100,-1.941539
0.166200,-1.945758
0.166300,-1.867534
0.166400,-1.639677
0.166500,-1.538732
0.166600,-1.241739
0.166700,-1.231028
0.166800,-1.177796
0.166900,-1.102168
0.167000,-0.966818
0.167100,-0.834713
0.167200,-0.623085
0.167300,-0.582513
0.167400,-0.497148
0.167500,-0.491630
0.167600,-0.475725
0.167700,-0.400422
0.167800,-0.433854
0.167900,-0.250141
0.168000,-0.279678
0.168100,-0.140108
0.168200,-0.229043
0.168300,-0.222876
0.168400,-0.255010
0.168500,-0.259229
0.168600,-0.146924
0.168700,0.091319
0.168800,0.513924
0.168900,0.552225
0.169000,0.110469
0.169100,-0.197559
0.169200,-0.208270
0.169300,0.138383
0.169400,0.430182
0.169500,0.543137
0.169600,0.432779
0.169700,0.135138
0.169800,0.065028
0.169900,0.158507
0.170000,0.383767
0.170100,0.508082
0.170200,0.521390
0.170300,0.459395
0.170400,0.426612
0.170500,0.393829
0.170600,0.399347
0.170700,0.436674
0.170800,0.421418
0.170900,0.454201
0.171000,0.400321
0.171100,0.445113
0.171200,0.245171
0.171300,0.260101
0.171400,0.172140
0.171500,0.152016
0.171600,0.290937
0.171700,0.277953
0.171800,0.323070
0.171900,-0.035592
0.172000,-0.218657
0.172100,-0.172890
0.172200,0.053343
0.172300,0.311710
0.172400,0.200378
0.172500,-0.094342
0.172600,-0.367640
0.172700,-0.385167
0.172800,-0.219306
0.172900,-0.010924
0.173000,-0.046304
0.173100,-0.230017
0.173200,-0.411133
0.173300,-0.406265
0.173400,-0.422494
0.173500,-0.367640
0.173600,-0.441644
0.173700,-0.512078
0.173800,-0.559143
0.173900,-0.511754
0.174000,-0.556871
0.174100,-0.600689
0.174200,-0.668851
0.174300,-0.663009
0.174400,-0.632174
0.174500,-0.604584
0.174600,-0.618541
0.174700,-0.798035
0.174800,-0.901901
0.174900,-0.919104
0.175000,-0.929815
0.175100,-0.861329
0.175200,-0.869119
0.175300,-0.861978
0.175400,-0.824002
0.175500,-0.819133
0.175600,-0.788947
0.175700,-0.775639
0.175800,-0.743505
0.175900,-0.732470
0.176000,-0.729224
0.176100,-0.706828
0.176200,-0.710723
0.176300,-0.654245
0.176400,-0.666255
0.176500,-0.643209
0.176600,-0.702608
0.176700,-0.699362
0.176800,-0.748374
0.176900,-0.801281
0.177000,-0.950589
0.177100,-1.316393
0.177200,-1.427725
0.177300,-1.293023
0.177400,-0.944097
0.177500,-0.881128
0.177600,-1.075228
0.177700,-1.501729
0.177800,-1.732832
0.177900,-1.669863
0.178000,-1.442655
0.178100,-1.241414
0.178200,-1.377739
0.178300,-1.577357
0.178400,-1.819496
0.178500,-1.799047
0.178600,-1.797749
0.178700,-1.725691
0.178800,-1.742894
0.178900,-1.799696
0.179000,-1.863639
0.179100,-1.878894
0.179200,-1.878894
0.179300,-1.870131
0.179400,-1.935696
0.179500,-2.031773
0.179600,-1.967505
0.179700,-1.963610
0.179800,-1.960365
0.179900,-2.085005
0.180000,-2.130771
0.180100,-2.124604
0.180200,-1.871429
0.180300,-1.693233
0.180400,-1.832154
0.180500,-2.043458
0.180600,-2.266446
0.180700,-2.252814
0.180800,-1.961663
0.180900,-1.707515
0.181000,-1.678951
0.181100,-1.903563
0.181200,-2.175239
0.181300,-2.226523
0.181400,-2.090847
0.181500,-1.956470
0.181600,-1.913300
0.181700,-1.953548
0.181800,-2.004183
0.181900,-2.030475
0.182000,-2.013596
0.182100,-1.983735
0.182200,-1.947381
0.182300,-1.896422
0.182400,-1.794827
0.182500,-1.651362
0.182600,-1.540030
0.182700,-1.525748
0.182800,-1.518608
0.182900,-1.538732
0.183000,-1.414741
0.183100,-1.192078
0.183200,-1.059973
0.183300,-0.869119
0.183400,-0.896708
0.183500,-0.841204
0.183600,-0.770770
0.183700,-0.659763
0.183800,-0.534475
0.183900,-0.374131
0.184000,-0.351086
0.184100,-0.330637
0.184200,-0.312785
0.184300,-0.266045
0.184400,-0.311162
0.184500,-0.278055
0.184600,-0.242026
0.184700,-0.168346
0.184800,-0.181979
0.184900,-0.094991
0.185000,-0.210217
0.185100,-0.122580
0.185200,-0.186523
0.185300,0.056264
0.185400,0.322746
0.185500,0.631747
0.185600,0.553848
0.185700,0.089696
0.185800,-0.093368
0.185900,-0.039812
0.186000,0.418497
0.186100,0.692444
0.186200,0.743079
0.186300,0.605132
0.186400,0.340922
0.186500,0.352283
0.186600,0.511652
0.186700,0.725551
0.186800,0.759957
0.186900,0.805723
0.187000,0.687900
0.187100,0.720034
0.187200,0.717437
0.187300,0.742754
0.187400,0.778783
0.187500,0.741780
0.187600,0.769370
0.187700,0.785924
0.187800,0.744702
0.187900,0.645380
0.188000,0.577542
0.188100,0.542163
0.188200,0.532101
0.188300,0.652845
0.188400,0.674592
0.188500,0.613246
0.188600,0.149744
0.188700,0.140980
0.188800,0.202001
0.188900,0.507757
0.189000,0.587280
0.189100,0.452578
0.189200,0.114040
0.189300,-0.076490
0.189400,0.013744
0.189500,0.226345
0.189600,0.350011
0.189700,0.222125
0.189800,0.008551
0.189900,-0.127449
0.190000,-0.095315
0.190100,-0.096938
0.190200,-0.057989
0.190300,-0.168996
0.190400,-0.246246
0.190500,-0.269940
0.190600,-0.216384
0.190700,-0.275458
0.190800,-0.358227
0.190900,-0.411458
0.191000,-0.407888
0.191100,-0.391009
0.191200,-0.384193
0.191300,-0.415028
0.191400,-0.589004
0.191500,-0.704231
0.191600,-0.691897
0.191700,-0.664956
0.191800,-0.552002
0.191900,-0.598417
0.192000,-0.601988
0.192100,-0.572126
0.192200,-0.548107
0.192300,-0.549081
0.192400,-0.538045
0.192500,-0.550054
0.192600,-0.543563
0.192700,-0.564985
0.192800,-0.575372
0.192900,-0.591601
0.193000,-0.608804
0.193100,-0.586083
0.193200,-0.638665
0.193300,-0.645482
0.193400,-0.706828
0.193500,-0.770446
0.193600,-0.831142
0.193700,-1.099896
0.193800,-1.430321
0.193900,-1.514713
0.194000,-1.244985
0.194100,-0.986617
0.194200,-0.987591
0.194300,-1.329701
0.194400,-1.724393
0.194500,-1.847734
0.194600,-1.747114
0.194700,-1.466350
0.194800,-1.378713
0.194900,-1.518283
0.195000,-1.853252
0.195100,-1.968804
0.195200,-1.993472
0.195300,-1.881166
0.195400,-1.868508
0.195500,-1.912651
0.195600,-1.957119
0.195700,-2.033071
0.195800,-2.034694
0.195900,-2.001911
0.196000,-2.049950
0.196100,-2.149921
0.196200,-2.227172
0.196300,-2.129472
0.196400,-2.089549
0.196500,-2.145052
0.196600,-2.223926
0.196700,-2.297931
0.196800,-2.216785
0.196900,-1.980164
0.197000,-1.924011
0.197100,-2.069425
0.197200,-2.342724
0.197300,-2.552404
0.197400,-2.439125
0.197500,-2.147324
0.197600,-1.943811
0.197700,-2.016517
0.197800,-2.281377
0.197900,-2.528710
0.198000,-2.565388
0.198100,-2.361549
0.198200,-2.199907
0.198300,-2.122981
0.198400,-2.177511
0.198500,-2.253788
0.198600,-2.263850
0.198700,-2.243726
0.198800,-2.168422
0.198900,-2.067152
0.199000,-2.023658
0.199100,-1.934398
0.199200,-1.791257
0.199300,-1.673758
0.199400,-1.648441
0.199500,-1.619553
0.199600,-1.582875
0.199700,-1.404679
0.199800,-1.255371
0.199900,-0.960651
0.200000,-0.868145
0.200100,-0.840880
0.200200,-0.792517
0.200300,-0.665606
0.200400,-0.500069
0.200500,-0.357253
0.200600,-0.180680
0.200700,-0.111869
0.200800,-0.092070
0.200900,-0.037540
0.201000,-0.014819
0.201100,0.018937
0.201200,0.057887
0.201300,0.184798
0.201400,0.214660
0.201500,0.243223
0.201600,0.228942
0.201700,0.130593
0.201800,0.196483
0.201900,0.254584
0.202000,0.490879
0.202100,0.815136
0.202200,0.944319
0.202300,0.801828
0.202400,0.205896
0.202500,0.357800
0.202600,0.478545
0.202700,0.936529
0.202800,0.959899
0.202900,0.943995
0.203000,0.639213
0.203100,0.456473
0.203200,0.530478
0.203300,0.767747
0.203400,0.923546
0.203500,0.953083
0.203600,0.908940
0.203700,0.807995
0.203800,0.795986
0.203900,0.807671
0.204000,0.819031
0.204100,0.831365
0.204200,0.831690
0.204300,0.816434
0.204400,0.823575
0.204500,0.704129
0.204600,0.621361
0.204700,0.533399
0.204800,0.509056
0.204900,0.577542
0.205000,0.573647
0.205100,0.660960
0.205200,0.391882
0.205300,0.098784
0.205400,0.074765
0.205500,0.206545
0.205600,0.470106
0.205700,0.455824
0.205800,0.234784
0.205900,-0.078113
0.206000,-0.147573
0.206100,-0.046304
0.206200,0.169543
0.206300,0.214660
0.206400,0.076388
0.206500,-0.109272
0.206600,-0.172890
0.206700,-0.162179
0.206800,-0.138160
0.206900,-0.170294
0.207000,-0.289415
0.207100,-0.354007
0.207200,-0.370885
0.207300,-0.347515
0.207400,-0.432556
0.207500,-0.527983
0.207600,-0.573424
0.207700,-0.560766
0.207800,-0.565634
0.207900,-0.569529
0.208000,-0.726952
0.208100,-0.903524
0.208200,-0.956107
0.208300,-0.924947
0.208400,-0.903524
0.208500,-0.818484
0.208600,-0.854837
0.208700,-0.844126
0.208800,-0.838608
0.208900,-0.792517
0.209000,-0.818808
0.209100,-0.803553
0.209200,-0.805825
0.209300,-0.784078
0.209400,-0.795438
0.209500,-0.788622
0.209600,-0.788298
0.209700,-0.801930
0.209800,-0.846398
0.209900,-0.849968
0.210000,-0.862302
0.210100,-0.916183
0.210200,-0.977854
0.210300,-1.117748
0.210400,-1.424479
0.210500,-1.689013
0.210600,-1.594884
0.210700,-1.243362
0.210800,-1.081071
0.210900,-1.215448
0.211000,-1.556584
0.211100,-1.867209
0.211200,-1.883439
0.211300,-1.625395
0.211400,-1.386827
0.211500,-1.425128
0.211600,-1.626044
0.211700,-1.819820
0.211800,-1.867859
0.211900,-1.803916
0.212000,-1.737701
0.212100,-1.725691
0.212200,-1.781195
0.212300,-1.828909
0.212400,-1.841892
0.212500,-1.840594
0.212600,-1.827935
0.212700,-1.919792
0.212800,-1.997692
0.212900,-2.003210
0.213000,-1.927582
0.213100,-1.895123
0.213200,-1.918169
0.213300,-1.979190
0.213400,-1.947057
0.213500,-1.807811
0.213600,-1.586121
0.213700,-1.644546
0.213800,-1.821443
0.213900,-2.039563
0.214000,-2.189196
0.214100,-1.987305
0.214200,-1.735429
0.214300,-1.653959
0.214400,-1.807162
0.214500,-2.112594
0.214600,-2.259306
0.214700,-2.239831
0.214800,-2.065530
0.214900,-1.980164
0.215000,-2.008727
0.215100,-2.101883
0.215200,-2.154141
0.215300,-2.139210
0.215400,-2.106752
0.215500,-2.101883
0.215600,-2.069749
0.215700,-2.051248
0.215800,-1.929854
0.215900,-1.800021
0.216000,-1.747763
0.216100,-1.758150
0.216200,-1.785090
0.216300,-1.742570
0.216400,-1.511142
0.216500,-1.434541
0.216600,-1.185262
0.216700,-1.208307
0.216800,-1.194674
0.216900,-1.150531
0.217000,-1.054779
0.217100,-0.909042
0.217200,-0.786350
0.217300,-0.702933
0.217400,-0.656842
0.217500,-0.646455
0.217600,-0.677940
0.217700,-0.616594
0.217800,-0.644508
0.217900,-0.593224
0.218000,-0.550704
0.218100,-0.529281
0.218200,-0.546160
0.218300,-0.574074
0.218400,-0.574723
0.218500,-0.585109
0.218600,-0.567906
0.218700,-0.189444
0.218800,0.010498
0.218900,0.144550
0.219000,-0.310189
0.219100,-0.634446
0.219200,-0.579916
0.219300,-0.235859
0.219400,0.177658
0.219500,0.201028
0.219600,0.054641
0.219700,-0.244298
0.219800,-0.289091
0.219900,-0.138485
0.220000,0.085152
0.220100,0.231538
0.220200,0.153639
0.220300,0.171166
0.220400,0.040684
0.220500,0.005954
0.220600,0.082880
0.220700,0.080608
0.220800,0.126698
0.220900,0.102679
0.221000,0.150717
0.221100,0.079634
0.221200,0.020560
0.221300,-0.101483
0.221400,-0.107000
0.221500,-0.175163
0.221600,-0.099535
0.221700,-0.118685
0.221800,-0.035917
0.221900,-0.380623
0.222000,-0.539668
0.222100,-0.504938
0.222200,-0.295907
0.222300,-0.072919
0.222400,-0.168346
0.222500,-0.429635
0.222600,-0.699362
0.222700,-0.708126
0.222800,-0.568880
0.222900,-0.380298
0.223000,-0.404642
0.223100,-0.614322
0.223200,-0.788622
0.223300,-0.785052
0.223400,-0.805500
0.223500,-0.740584
0.223600,-0.824326
0.223700,-0.894761
0.223800,-0.961624
0.223900,-0.958379
0.224000,-0.932737
0.224100,-0.967467
0.224200,-1.040822
0.224300,-1.025892
0.224400,-0.987916
0.224500,-0.976880
0.224600,-0.971362
0.224700,-1.134951
0.224800,-1.223887
0.224900,-1.208631
0.225000,-1.173901
0.225100,-1.057701
0.225200,-1.073930
0.225300,-1.060297
0.225400,-0.994083
0.225500,-0.968116
0.225600,-0.928842
0.225700,-0.880803
0.225800,-0.833090
0.225900,-0.738312
0.226000,-0.685730
0.226100,-0.649377
0.226200,-0.595171
0.226300,-0.533501
0.226400,-0.458198
0.226500,-0.395554
0.226600,-0.354656
0.226700,-0.309539
0.226800,-0.251439
0.226900,-0.244298
0.227000,-0.366341
0.227100,-0.665606
0.227200,-0.761682
0.227300,-0.492279
0.227400,-0.128098
0.227500,0.072818
0.227600,-0.182303
0.227700,-0.517921
0.227800,-0.761682
0.227900,-0.654894
0.228000,-0.366017
0.228100,-0.153416
0.228200,-0.261177
0.228300,-0.465988
0.228400,-0.628603
0.228500,-0.647104
0.228600,-0.600040
0.228700,-0.540642
0.228800,-0.584460
0.228900,-0.597768
0.229000,-0.641587
0.229100,-0.651973
0.229200,-0.641262
0.229300,-0.616594
0.229400,-0.676641
0.229500,-0.755515
0.229600,-0.723381
0.229700,-0.683782
0.229800,-0.724030
0.229900,-0.786675
0.230000,-0.834713
0.230100,-0.789596
0.230200,-0.601663
0.230300,-0.472804
0.230400,-0.622436
0.230500,-0.850942
0.230600,-1.113204
0.230700,-1.117424
0.230800,-0.904823
0.230900,-0.706178
0.231000,-0.731171
0.231100,-0.965519
0.231200,-1.275495
0.231300,-1.391696
0.231400,-1.307629
0.231500,-1.189806
0.231600,-1.181367
0.231700,-1.251152
0.231800,-1.320288
0.231900,-1.345281
0.232000,-1.352421
0.232100,-1.350474
0.232200,-1.347877
0.232300,-1.331324
0.232400,-1.264460
0.232500,-1.123915
0.232600,-1.061920
0.232700,-1.072307
0.232800,-1.099247
0.232900,-1.123915
0.233000,-1.016803
0.233100,-0.841529
0.233200,-0.683133
0.233300,-0.594847
0.233400,-0.674694
0.233500,-0.658789
0.233600,-0.646455
0.233700,-0.590303
0.233800,-0.528308
0.233900,-0.478322
0.234000,-0.463067
0.234100,-0.528957
0.234200,-0.571152
0.234300,-0.585434
0.234400,-0.644183
0.234500,-0.672097
0.234600,-0.658140
0.234700,-0.639315
0.234800,-0.628928
0.234900,-0.695792
0.235000,-0.702283
0.235100,-0.873987
0.235200,-0.753567
0.235300,-0.763305
0.235400,-0.381921
0.235500,-0.214762
0.235600,-0.136537
0.235700,-0.759085
0.235800,-0.871715
0.235900,-0.611076
0.236000,-0.277406
0.236100,0.017314
0.236200,0.054966
0.236300,-0.153416
0.236400,-0.302074
0.236500,-0.283248
0.236600,0.024131
0.236700,0.248092
0.236800,0.398698
0.236900,0.309438
0.237000,0.317877
0.237100,0.332483
0.237200,0.375652
0.237300,0.445113
0.237400,0.480817
0.237500,0.488607
0.237600,0.511328
0.237700,0.536320
0.237800,0.525285
0.237900,0.363318
0.238000,0.333132
0.238100,0.239004
0.238200,0.287366
0.238300,0.373705
0.238400,0.331509
0.238500,0.299376
0.238600,-0.138160
0.238700,-0.157635
0.238800,-0.058313
0.238900,0.249390
0.239000,0.373705
0.239100,0.189018
0.239200,-0.156337
0.239300,-0.304671
0.239400,-0.218657
0.239500,0.054966
0.239600,0.241925
0.239700,0.115338
0.239800,-0.065129
0.239900,-0.164776
0.240000,-0.070972
0.240100,0.019586
0.240200,0.093266
0.240300,0.054966
0.240400,-0.006705
0.240500,-0.007678
0.240600,0.088398
0.240700,0.132541
0.240800,0.158507
0.240900,0.285094
0.241000,0.687251
0.241100,1.365302
0.241200,1.897291
0.241300,2.056661
0.241400,1.293245
0.241500,1.073827
0.241600,1.311097
0.241700,1.582122
0.241800,2.478618
0.241900,2.120928
0.242000,2.274131
0.242100,2.403964
0.242200,2.456546
0.242300,2.422790
0.242400,2.594818
0.242500,2.589300
0.242600,2.530875
0.242700,2.393902
0.242800,2.188117
0.242900,2.185845
0.243000,1.940136
0.243100,1.867430
0.243200,1.504223
0.243300,1.364653
0.243400,0.512950
0.243500,0.147147
0.243600,-0.115115
0.243700,-0.428012
0.243800,-0.838608
0.243900,-0.938579
0.244000,-0.642885
0.244100,-0.460470
0.244200,-0.418923
0.244300,-0.846722
0.244400,-1.278741
0.244500,-1.493939
0.244600,-1.359238
0.244700,-1.147935
0.244800,-1.068737
0.244900,-1.247906
0.245000,-1.560479
0.245100,-1.769185
0.245200,-1.777625
0.245300,-1.699725
0.245400,-1.674732
0.245500,-1.728937
0.245600,-1.805863
0.245700,-1.913625
0.245800,-1.925310
0.245900,-1.899668
0.246000,-1.927582
0.246100,-1.998016
0.246200,-2.127200
0.246300,-2.097339
0.246400,-2.106102
0.246500,-2.144079
0.246600,-2.205100
0.246700,-2.239506
0.246800,-2.215487
0.246900,-2.004183
0.247000,-1.934398
0.247100,-2.118437
0.247200,-2.406666
0.247300,-2.654648
0.247400,-2.575774
0.247500,-2.301501
0.247600,-2.155764
0.247700,-2.266771
0.247800,-2.550457
0.247900,-2.827327
0.248000,-2.870497
0.248100,-2.722811
0.248200,-2.572204
0.248300,-2.553378
0.248400,-2.629006
0.248500,-2.741312
0.248600,-2.771823
0.248700,-2.756892
0.248800,-2.695221
0.248900,-2.615698
0.249000,-2.556624
0.249100,-2.490734
0.249200,-2.344346
0.249300,-2.244375
0.249400,-2.236260
0.249500,-2.194064
0.249600,-2.153816
0.249700,-1.950627
0.249800,-1.783792
0.249900,-1.511142
0.250000,-1.446550
0.250100,-1.418961
0.250200,-1.399161
0.250300,-1.299514
0.250400,-1.182340
0.250500,-1.015830
0.250600,-0.887620
0.250700,-0.868794
0.250800,-0.830169
0.250900,-0.871715
0.251000,-0.795763
0.251100,-0.839906
0.251200,-0.732145
0.251300,-0.694493
0.251400,-0.595171
0.251500,-0.625682
0.251600,-0.597119
0.251700,-0.649377
0.251800,-0.677940
0.251900,-0.606532
0.252000,-0.348489
0.252100,-0.113492
0.252200,0.059510
0.252300,-0.238131
0.252400,-0.668527
0.252500,-0.769472
0.252600,-0.484164
0.252700,-0.301749
0.252800,-0.065779
0.252900,-0.201454
0.253000,-0.466962
0.253100,-0.631200
0.253200,-0.568880
0.253300,-0.438398
0.253400,-0.222227
0.253500,-0.271563
0.253600,-0.359850
0.253700,-0.501043
0.253800,-0.528957
0.253900,-0.540317
0.254000,-0.506885
0.254100,-0.475076
0.254200,-0.475725
0.254300,-0.438074
0.254400,-0.450083
0.254500,-0.605883
0.254600,-0.636393
0.254700,-0.624708
0.254800,-0.677940
0.254900,-0.538694
0.255000,-0.501367
0.255100,-0.371535
0.255200,-0.617892
0.255300,-0.864899
0.255400,-0.825949
0.255500,-0.657167
0.255600,-0.355630
0.255700,-0.374131
0.255800,-0.526360
0.255900,-0.791219
0.256000,-0.773691
0.256100,-0.632498
0.256200,-0.386790
0.256300,-0.275458
0.256400,-0.334208
0.256500,-0.416002
0.256600,-0.368938
0.256700,-0.363420
0.256800,-0.252413
0.256900,-0.225797
0.257000,-0.197883
0.257100,-0.180031
0.257200,-0.129397
0.257300,-0.059936
0.257400,-0.058313
0.257500,-0.038838
0.257600,0.032894
0.257700,0.273734
0.257800,0.947565
0.257900,1.548041
0.258000,1.218915
0.258100,0.628177
0.258200,0.721332
0.258300,1.082591
0.258400,1.668786
0.258500,1.980060
0.258600,1.804136
0.258700,1.930723
0.258800,2.019009
0.258900,2.048871
0.259000,2.035888
0.259100,2.064126
0.259200,1.934618
0.259300,1.966103
0.259400,1.783363
0.259500,1.686313
0.259600,1.711630
0.259700,1.570113
0.259800,1.313693
0.259900,1.143612
0.260000,0.544435
0.260100,0.405839
0.260200,-0.092394
0.260300,-0.164127
0.260400,-0.557195
0.260500,-0.875610
0.260600,-0.833090
0.260700,-0.643534
0.260800,-0.434179
0.260900,-0.635095
0.261000,-1.011935
0.261100,-1.428698
0.261200,-1.527696
0.261300,-1.409223
0.261400,-1.261214
0.261500,-1.348202
0.261600,-1.631238
0.261700,-1.908431
0.261800,-2.028852
0.261900,-2.057415
0.262000,-2.065530
0.262100,-2.122656
0.262200,-2.260929
0.262300,-2.353759
0.262400,-2.403421
0.262500,-2.457301
0.262600,-2.479698
0.262700,-2.629331
0.262800,-2.721188
0.262900,-2.767928
0.263000,-2.725732
0.263100,-2.707231
0.263200,-2.789026
0.263300,-2.840959
0.263400,-2.836740
0.263500,-2.686782
0.263600,-2.383296
0.263700,-2.422571
0.263800,-2.575450
0.263900,-2.786754
0.264000,-2.852644
0.264100,-2.592653
0.264200,-2.326170
0.264300,-2.215162
0.264400,-2.375831
0.264500,-2.629655
0.264600,-2.740338
0.264700,-2.681589
0.264800,-2.524166
0.264900,-2.461521
0.265000,-2.463144
0.265100,-2.485216
0.265200,-2.512156
0.265300,-2.463793
0.265400,-2.469960
0.265500,-2.445292
0.265600,-2.411535
0.265700,-2.360900
0.265800,-2.209644
0.265900,-2.082408
0.266000,-2.056117
0.266100,-2.071047
0.266200,-2.145702
0.266300,-2.128499
0.266400,-1.921739
0.266500,-1.772756
0.266600,-1.554312
0.266700,-1.548145
0.266800,-1.491343
0.266900,-1.424479
0.267000,-1.256994
0.267100,-1.108336
0.267200,-0.946369
0.267300,-0.825949
0.267400,-0.743505
0.267500,-0.696116
0.267600,-0.615620
0.267700,-0.578293
0.267800,-0.574398
0.267900,-0.433854
0.268000,-0.386790
0.268100,-0.290389
0.268200,-0.258255
0.268300,-0.249167
0.268400,-0.247544
0.268500,-0.280976
0.268600,-0.114141
0.268700,0.096837
0.268800,0.557743
0.268900,0.565857
0.269000,0.292560
0.269100,-0.108948
0.269200,-0.032996
0.269300,0.307166
0.269400,0.587929
0.269500,0.650573
0.269600,0.597991
0.269700,0.316579
0.269800,0.305218
0.269900,0.468158
0.270000,0.747623
0.270100,0.867718
0.270200,0.901799
0.270300,0.870964
0.270400,0.871613
0.270500,0.950486
0.270600,0.971584
0.270700,0.987164
0.270800,0.967689
0.270900,0.979050
0.271000,1.013455
0.271100,1.104663
0.271200,0.857007
0.271300,0.832014
0.271400,0.727499
0.271500,0.700883
0.271600,0.853761
0.271700,0.873885
0.271800,1.457158
0.271900,0.511652
0.272000,0.371757
0.272100,0.390908
0.272200,0.622984
0.272300,1.927802
0.272400,1.640547
0.272500,0.515223
0.272600,0.280875
0.272700,0.301323
0.272800,0.707699
0.272900,2.476670
0.273000,3.038522
0.273100,2.143324
0.273200,1.503574
0.273300,1.766809
0.273400,1.923907
0.273500,2.662980
0.273600,2.527954
0.273700,2.243945
0.273800,1.715201
0.273900,1.582447
0.274000,1.400032
0.274100,0.943021
0.274200,0.272111
0.274300,0.075090
0.274400,0.035491
0.274500,-0.011573
0.274600,-0.062533
0.274700,-0.266370
0.274800,-0.447811
0.274900,-0.527334
0.275000,-0.574723
0.275100,-0.494876
0.275200,-0.670799
0.275300,-0.760384
0.275400,-0.827897
0.275500,-0.899629
0.275600,-0.944097
0.275700,-0.996355
0.275800,-1.071333
0.275900,-1.131056
0.276000,-1.187858
0.276100,-1.204412
0.276200,-1.281338
0.276300,-1.298216
0.276400,-1.356316
0.276500,-1.368975
0.276600,-1.407600
0.276700,-1.471543
0.276800,-1.503352
0.276900,-1.567944
0.277000,-1.718875
0.277100,-2.081759
0.277200,-2.221654
0.277300,-2.012947
0.277400,-1.716278
0.277500,-1.568269
0.277600,-1.807162
0.277700,-2.191143
0.277800,-2.412834
0.277900,-2.349864
0.278000,-2.064880
0.278100,-1.873701
0.278200,-1.911353
0.278300,-2.105129
0.278400,-2.306046
0.278500,-2.307993
0.278600,-2.200232
0.278700,-2.128174
0.278800,-2.067477
0.278900,-2.085978
0.279000,-2.125902
0.279100,-2.110647
0.279200,-2.133367
0.279300,-2.113568
0.279400,-2.114866
0.279500,-2.170694
0.279600,-2.121033
0.279700,-2.080460
0.279800,-2.091172
0.279900,-2.174914
0.280000,-2.237234
0.280100,-2.171668
0.280200,-2.027553
0.280300,-1.829882
0.280400,-1.956794
0.280500,-2.201854
0.280600,-2.446915
0.280700,-2.446590
0.280800,-2.209320
0.280900,-1.957119
0.281000,-1.935372
0.281100,-2.148298
0.281200,-2.440423
0.281300,-2.544939
0.281400,-2.449187
0.281500,-2.263525
0.281600,-2.152842
0.281700,-2.152842
0.281800,-2.183353
0.281900,-2.256384
0.282000,-2.216136
0.282100,-2.196661
0.282200,-2.123305
0.282300,-2.028527
0.282400,-1.949004
0.282500,-1.741271
0.282600,-1.564049
0.282700,-1.516985
0.282800,-1.466350
0.282900,-1.400784
0.283000,-1.204087
0.283100,-0.945071
0.283200,-0.688651
0.283300,-0.510131
0.283400,-0.493902
0.283500,-0.418599
0.283600,-0.305644
0.283700,-0.176785
0.283800,-0.038189
0.283900,0.085152
0.284000,0.173763
0.284100,0.243548
0.284200,0.235758
0.284300,0.325991
0.284400,0.348063
0.284500,0.413953
0.284600,0.490230
0.284700,0.558392
0.284800,0.591175
0.284900,0.552225
0.285000,0.548654
0.285100,0.495098
0.285200,0.569752
0.285300,0.577218
0.285400,0.983269
0.285500,1.112128
0.285600,1.071555
0.285700,0.524960
0.285800,0.361046
0.285900,0.498669
0.286000,0.818706
0.286100,1.002419
0.286200,0.925818
0.286300,0.757360
0.286400,0.465886
0.286500,0.540215
0.286600,0.636291
0.286700,0.821628
0.286800,0.815461
0.286900,0.768396
0.287000,0.742105
0.287100,0.740158
0.287200,0.730096
0.287300,0.726201
0.287400,0.708349
0.287500,0.704778
0.287600,0.754764
0.287700,0.794363
0.287800,0.789494
0.287900,0.568454
0.288000,0.507433
0.288100,0.386364
0.288200,0.418822
0.288300,0.505810
0.288400,0.498669
0.288500,0.397399
0.288600,0.022832
0.288700,-0.057015
0.288800,0.001410
0.288900,0.252961
0.289000,0.313982
0.289100,0.111768
0.289200,-0.248193
0.289300,-0.455926
0.289400,-0.410484
0.289500,-0.231640
0.289600,-0.121282
0.289700,-0.275458
0.289800,-0.509806
0.289900,-0.631200
0.290000,-0.640937
0.290100,-0.639639
0.290200,-0.678914
0.290300,-0.790894
0.290400,-0.890866
0.290500,-0.928192
0.290600,-0.884698
0.290700,-0.877558
0.290800,-0.933061
0.290900,-0.996355
0.291000,-0.976231
0.291100,-0.908393
0.291200,-0.862951
0.291300,-0.856784
0.291400,-1.037252
0.291500,-1.074904
0.291600,-1.037577
0.291700,-0.979801
0.291800,-0.831467
0.291900,-0.867171
0.292000,-0.868794
0.292100,-0.825300
0.292200,-0.786675
0.292300,-0.791219
0.292400,-0.802579
0.292500,-0.809720
0.292600,-0.774990
0.292700,-0.795763
0.292800,-0.810369
0.292900,-0.794140
0.293000,-0.810369
0.293100,-0.771419
0.293200,-0.801930
0.293300,-0.786026
0.293400,-0.833090
0.293500,-0.887620
0.293600,-0.903849
0.293700,-1.175199
0.293800,-1.469271
0.293900,-1.500756
0.294000,-1.160918
0.294100,-0.880479
0.294200,-0.882751
0.294300,-1.232001
0.294400,-1.620851
0.294500,-1.798722
0.294600,-1.571839
0.294700,-1.349825
0.294800,-1.277767
0.294900,-1.486799
0.295000,-1.703944
0.295100,-1.874675
0.295200,-1.869806
0.295300,-1.795152
0.295400,-1.774054
0.295500,-1.852928
0.295600,-1.909405
0.295700,-1.960689
0.295800,-1.936021
0.295900,-1.933100
0.296000,-1.983410
0.296100,-2.095716
0.296200,-2.206723
0.296300,-2.156737
0.296400,-2.113568
0.296500,-2.144403
0.296600,-2.254437
0.296700,-2.318380
0.296800,-2.270666
0.296900,-2.093119
0.297000,-2.000613
0.297100,-2.207697
0.297200,-2.511832
0.297300,-2.756568
0.297400,-2.668930
0.297500,-2.372910
0.297600,-2.135639
0.297700,-2.242427
0.297800,-2.557598
0.297900,-2.842258
0.298000,-2.857189
0.298100,-2.652701
0.298200,-2.460223
0.298300,-2.414456
0.298400,-2.482619
0.298500,-2.556624
0.298600,-2.538123
0.298700,-2.431335
0.298800,-2.356031
0.298900,-2.277158
0.299000,-2.221979
0.299100,-2.123305
0.299200,-1.965883
0.299300,-1.853252
0.299400,-1.806512
0.299500,-1.786713
0.299600,-1.749710
0.299700,-1.554961
0.299800,-1.422207
0.299900,-1.136899
0.300000,-1.079772
0.300100,-1.061271
0.300200,-1.040173
0.300300,-0.947018
0.300400,-0.826923
0.300500,-0.645482
0.300600,-0.574074
0.300700,-0.544861
0.300800,-0.539019
0.300900,-0.537720
0.301000,-0.512078
0.301100,-0.527658
0.301200,-0.437749
0.301300,-0.383219
0.301400,-0.372184
0.301500,-0.277406
0.301600,-0.364069
0.301700,-0.300451
0.301800,-0.443267
0.301900,-0.242026
0.302000,-0.174189
0.302100,0.408760
0.302200,0.416874
0.302300,0.348063
0.302400,-0.206972
0.302500,-0.178408
0.302600,0.049123
0.302700,0.396750
0.302800,0.584034
0.302900,0.498669
0.303000,0.226670
0.303100,0.073792
0.303200,0.135787
0.303300,0.438621
0.303400,0.548005
0.303500,0.585981
0.303600,0.455500
0.303700,0.382144
0.303800,0.328588
0.303900,0.371433
0.304000,0.429208
0.304100,0.423366
0.304200,0.382469
0.304300,0.357800
0.304400,0.344817
0.304500,0.138383
0.304600,0.128321
0.304700,0.003357
0.304800,0.026403
0.304900,0.068274
0.305000,0.098460
0.305100,0.188369
0.305200,-0.070972
0.305300,-0.373482
0.305400,-0.396852
0.305500,-0.262150
0.305600,0.042632
0.305700,0.034517
0.305800,-0.165750
0.305900,-0.504938
0.306000,-0.626656
0.306100,-0.523763
0.306200,-0.246246
0.306300,-0.122580
0.306400,-0.258580
0.306500,-0.460145
0.306600,-0.528632
0.306700,-0.548756
0.306800,-0.441320
0.306900,-0.421196
0.307000,-0.426713
0.307100,-0.499095
0.307200,-0.579916
0.307300,-0.564661
0.307400,-0.549081
0.307500,-0.535773
0.307600,-0.509157
0.307700,-0.495849
0.307800,-0.449434
0.307900,-0.416976
0.308000,-0.481892
0.308100,-0.635420
0.308200,-0.637692
0.308300,-0.568880
0.308400,-0.383219
0.308500,-0.430933
0.308600,-0.453978
0.308700,-0.411783
0.308800,-0.416976
0.308900,-0.423792
0.309000,-0.441969
0.309100,-0.455277
0.309200,-0.491305
0.309300,-0.507859
0.309400,-0.545510
0.309500,-0.625033
0.309600,-0.634770
0.309700,-0.686379
0.309800,-0.702933
0.309900,-0.773042
0.310000,-0.816212
0.310100,-0.856460
0.310200,-0.950264
0.310300,-1.043095
0.310400,-1.400135
0.310500,-1.652336
0.310600,-1.627667
0.310700,-1.290751
0.310800,-1.123915
0.310900,-1.261863
0.311000,-1.676030
0.311100,-1.995095
0.311200,-2.046055
0.311300,-1.854226
0.311400,-1.692908
0.311500,-1.701348
0.311600,-1.901940
0.311700,-2.149272
0.311800,-2.258332
0.311900,-2.249244
0.312000,-2.193415
0.312100,-2.191792
0.312200,-2.211267
0.312300,-2.272614
0.312400,-2.309291
0.312500,-2.327793
0.312600,-2.342724
0.312700,-2.416404
0.312800,-2.477426
0.312900,-2.507287
0.313000,-2.468662
0.313100,-2.463469
0.313200,-2.499497
0.313300,-2.525139
0.313400,-2.516051
0.313500,-2.357979
0.313600,-2.153167
0.313700,-2.175888
0.313800,-2.403096
0.313900,-2.666333
0.314000,-2.814019
0.314100,-2.605961
0.314200,-2.335258
0.314300,-2.209969
0.314400,-2.343697
0.314500,-2.613751
0.314600,-2.799413
0.314700,-2.752673
0.314800,-2.603689
0.314900,-2.496576
0.315000,-2.517025
0.315100,-2.563440
0.315200,-2.629980
0.315300,-2.636147
0.315400,-2.644586
0.315500,-2.619918
0.315600,-2.573502
0.315700,-2.480022
0.315800,-2.281053
0.315900,-2.164527
0.316000,-2.130446
0.316100,-2.119410
0.316200,-2.103506
0.316300,-2.019114
0.316400,-1.776651
0.316500,-1.659152
0.316600,-1.400135
0.316700,-1.361185
0.316800,-1.287180
0.316900,-1.227782
0.317000,-1.068087
0.317100,-0.952212
0.317200,-0.791543
0.317300,-0.651973
0.317400,-0.629902
0.317500,-0.635744
0.317600,-0.553300
0.317700,-0.521816
0.317800,-0.505911
0.317900,-0.453329
0.318000,-0.395229
0.318100,-0.304995
0.318200,-0.395554
0.318300,-0.337129
0.318400,-0.471506
0.318500,-0.418274
0.318600,-0.397826
0.318700,-0.041110
0.318800,0.283796
0.318900,0.372082
0.319000,-0.055716
0.319100,-0.428985
0.319200,-0.364069
0.319300,-0.043707
0.319400,0.224397
0.319500,0.328913
0.319600,0.129295
0.319700,-0.049874
0.319800,-0.206322
0.319900,0.046527
0.320000,0.162727
0.320100,0.364617
0.320200,0.280225
0.320300,0.283796
0.320400,0.193238
0.320500,0.223099
0.320600,0.283796
0.320700,0.274383
0.320800,0.266268
0.320900,0.251013
0.321000,0.306517
0.321100,0.252311
0.321200,0.103978
0.321300,0.011147
0.321400,-0.078113
0.321500,-0.095315
0.321600,0.013744
0.321700,0.005954
0.321800,0.059835
0.321900,-0.274809
0.322000,-0.518895
0.322100,-0.426389
0.322200,-0.209893
0.322300,0.078336
0.322400,-0.072595
0.322500,-0.321873
0.322600,-0.612050
0.322700,-0.551028
0.322800,-0.386465
0.322900,-0.159258
0.323000,-0.165425
0.323100,-0.346542
0.323200,-0.472155
0.323300,-0.418274
0.323400,-0.386465
0.323500,-0.291038
0.323600,-0.366341
0.323700,-0.430284
0.323800,-0.481892
0.323900,-0.456900
0.324000,-0.446513
0.324100,-0.502990
0.324200,-0.603935
0.324300,-0.608479
0.324400,-0.603935
0.324500,-0.556222
0.324600,-0.555897
0.324700,-0.723057
0.324800,-0.873663
0.324900,-0.904498
0.325000,-0.910340
0.325100,-0.857758
0.325200,-0.879181
0.325300,-0.925920
0.325400,-0.939553
0.325500,-0.957080
0.325600,-0.993109
0.325700,-1.034655
0.325800,-1.056727
0.325900,-1.092431
0.326000,-1.104116
0.326100,-1.140794
0.326200,-1.158646
0.326300,-1.188183
0.326400,-1.195973
0.326500,-1.223887
0.326600,-1.243362
0.326700,-1.269977
0.326800,-1.280689
0.326900,-1.351772
0.327000,-1.518932
0.327100,-1.861367
0.327200,-2.066828
0.327300,-1.837997
0.327400,-1.581577
0.327500,-1.410522
0.327600,-1.710760
0.327700,-2.149272
0.327800,-2.404719
0.327900,-2.380375
0.328000,-2.107725
0.328100,-2.033720
0.328200,-2.106427
0.328300,-2.398876
0.328400,-2.658868
0.328500,-2.760463
0.328600,-2.720214
0.328700,-2.625436
0.328800,-2.691326
0.328900,-2.810124
0.329000,-2.894191
0.329100,-2.918535
0.329200,-2.885752
0.329300,-2.889972
0.329400,-2.913017
0.329500,-2.985075
0.329600,-2.936712
0.329700,-2.949695
0.329800,-2.911719
0.329900,-2.975662
0.330000,-2.977609
0.330100,-2.977934
0.330200,-2.740338
0.330300,-2.583240
0.330400,-2.641016
0.330500,-2.893217
0.330600,-3.123023
0.330700,-3.175281
0.330800,-2.873742
0.330900,-2.592653
0.331000,-2.580319
0.331100,-2.854592
0.331200,-3.093810
0.331300,-3.186642
0.331400,-3.080503
0.331500,-2.891919
0.331600,-2.799413
0.331700,-2.806554
0.331800,-2.871795
0.331900,-2.910096
0.332000,-2.891270
0.332100,-2.831222
0.332200,-2.741637
0.332300,-2.684510
0.332400,-2.594925
0.332500,-2.431659
0.332600,-2.298256
0.332700,-2.240155
0.332800,-2.224575
0.332900,-2.208995
0.333000,-2.064880
0.333100,-1.857796
0.333200,-1.774703
0.333300,-1.490369
0.333400,-1.504651
0.333500,-1.440708
0.333600,-1.349500
0.333700,-1.223562
0.333800,-1.063543
0.333900,-0.956107
0.334000,-0.825300
0.334100,-0.801605
0.334200,-0.812317
0.334300,-0.755515
0.334400,-0.776613
0.334500,-0.726302
0.334600,-0.694169
0.334700,-0.589978
0.334800,-0.594198
0.334900,-0.526035
0.335000,-0.627305
0.335100,-0.547782
0.335200,-0.671773
0.335300,-0.403019
0.335400,-0.201778
0.335500,0.169868
0.335600,0.053343
0.335700,-0.329339
0.335800,-0.504938
0.335900,-0.359525
0.336000,-0.104079
0.336100,0.108846
0.336200,0.186746
0.336300,-0.015144
0.336400,-0.234561
0.336500,-0.174189
0.336600,-0.049225
0.336700,0.190966
0.336800,0.265295
0.336900,0.213037
0.337000,0.083204
0.337100,0.124426
0.337200,0.095539
0.337300,0.080608
0.337400,0.054641
0.337500,0.060484
0.337600,0.061133
0.337700,0.033543
0.337800,-0.080709
0.337900,-0.234561
0.338000,-0.250141
0.338100,-0.374780
0.338200,-0.354981
0.338300,-0.288442
0.338400,-0.261177
0.338500,-0.360174
0.338600,-0.768498
0.338700,-0.859056
0.338800,-0.752594
0.338900,-0.506885
0.339000,-0.361797
0.339100,-0.523763
0.339200,-0.878531
0.339300,-1.080421
0.339400,-0.991811
0.339500,-0.755515
0.339600,-0.649701
0.339700,-0.749672
0.339800,-0.916508
0.339900,-0.995706
0.340000,-0.988565
0.340100,-1.009663
0.340200,-0.997978
0.340300,-1.069710
0.340400,-1.097300
0.340500,-1.089510
0.340600,-1.100546
0.340700,-1.118073
0.340800,-1.184937
0.340900,-1.244011
0.341000,-1.221615
0.341100,-1.203114
0.341200,-1.172278
0.341300,-1.184288
0.341400,-1.365080
0.341500,-1.410846
0.341600,-1.398512
0.341700,-1.386827
0.341800,-1.266407
0.341900,-1.329376
0.342000,-1.296269
0.342100,-1.274197
0.342200,-1.225834
0.342300,-1.185262
0.342400,-1.175849
0.342500,-1.162541
0.342600,-1.161242
0.342700,-1.150856
0.342800,-1.115801
0.342900,-1.144689
0.343000,-1.099896
0.343100,-1.112880
0.343200,-1.071658
0.343300,-1.104441
0.343400,-1.156374
0.343500,-1.177796
0.343600,-1.249529
0.343700,-1.450770
0.343800,-1.831181
0.343900,-1.794827
0.344000,-1.593586
0.344100,-1.298216
0.344200,-1.304383
0.344300,-1.638054
0.344400,-2.015219
0.344500,-2.093119
0.344600,-1.953548
0.344700,-1.739324
0.344800,-1.657854
0.344900,-1.831505
0.345000,-2.071047
0.345100,-2.167449
0.345200,-2.188222
0.345300,-2.061635
0.345400,-2.054169
0.345500,-2.051248
0.345600,-2.134017
0.345700,-2.141157
0.345800,-2.106102
0.345900,-2.091172
0.346000,-2.158036
0.346100,-2.224251
0.346200,-2.235611
0.346300,-2.204451
0.346400,-2.185950
0.346500,-2.178809
0.346600,-2.250866
0.346700,-2.307993
0.346800,-2.224251
0.346900,-2.012622
0.347000,-1.908107
0.347100,-2.058713
0.347200,-2.317731
0.347300,-2.506963
0.347400,-2.427764
0.347500,-2.105129
0.347600,-1.937644
0.347700,-2.065205
0.347800,-2.358628
0.347900,-2.600443
0.348000,-2.562791
0.348100,-2.433607
0.348200,-2.334284
0.348300,-2.322599
0.348400,-2.419325
0.348500,-2.518648
0.348600,-2.558572
0.348700,-2.530333
0.348800,-2.539421
0.348900,-2.570906
0.349000,-2.561493
0.349100,-2.501120
0.349200,-2.352786
0.349300,-2.271964
0.349400,-2.304747
0.349500,-2.298580
0.349600,-2.338504
0.349700,-2.156413
0.349800,-1.983085
0.349900,-1.764966
0.350000,-1.720823
0.350100,-1.765940
0.350200,-1.733481
0.350300,-1.660126
0.350400,-1.555935
0.350500,-1.383906
0.350600,-1.325806
0.350700,-1.275495
0.350800,-1.244335
0.350900,-1.270302
0.351000,-1.203114
0.351100,-1.256670
0.351200,-1.173252
0.351300,-1.141443
0.351400,-1.169032
0.351500,-1.093405
0.351600,-1.173901
0.351700,-1.169357
0.351800,-1.196946
0.351900,-1.190779
0.352000,-0.928192
0.352100,-0.712021
0.352200,-0.396527
0.352300,-0.790894
0.352400,-1.145338
0.352500,-1.269004
0.352600,-0.917806
0.352700,-0.657167
0.352800,-0.473453
0.352900,-0.555248
0.353000,-0.834713
0.353100,-1.017777
0.353200,-0.934360
0.353300,-0.723057
0.353400,-0.530580
0.353500,-0.504288
0.353600,-0.553300
0.353700,-0.693195
0.353800,-0.657491
0.353900,-0.647429
0.354000,-0.570179
0.354100,-0.566284
0.354200,-0.592250
0.354300,-0.563687
0.354400,-0.630226
0.354500,-0.680536
0.354600,-0.776937
0.354700,-0.842178
0.354800,-0.926570
0.354900,-0.909367
0.355000,-0.856784
0.355100,-0.898655
0.355200,-1.012908
0.355300,-1.389748
0.355400,-1.353720
0.355500,-1.221939
0.355600,-0.946044
0.355700,-0.912613
0.355800,-1.109958
0.355900,-1.452068
0.356000,-1.531266
0.356100,-1.394617
0.356200,-1.080097
0.356300,-0.965519
0.356400,-1.110932
0.356500,-1.244985
0.356600,-1.249853
0.356700,-1.182340
0.356800,-1.045367
0.356900,-1.021023
0.357000,-1.048937
0.357100,-1.111257
0.357200,-1.070035
0.357300,-0.999601
0.357400,-1.006092
0.357500,-1.034980
0.357600,-1.051209
0.357700,-1.028488
0.357800,-1.001548
0.357900,-0.963896
0.358000,-1.047314
0.358100,-1.230378
0.358200,-1.269004
0.358300,-1.260565
0.358400,-1.270951
0.358500,-1.200192
0.358600,-1.265758
0.358700,-1.247581
0.358800,-1.255371
0.358900,-1.257319
0.359000,-1.273872
0.359100,-1.276469
0.359200,-1.280040
0.359300,-1.265109
0.359400,-1.283610
0.359500,-1.273548
0.359600,-1.288803
0.359700,-1.293347
0.359800,-1.283610
0.359900,-1.294970
0.360000,-1.305682
0.360100,-1.345930
0.360200,-1.404355
0.360300,-1.490369
0.360400,-1.887333
0.360500,-2.110971
0.360600,-2.121033
0.360700,-1.723419
0.360800,-1.520555
0.360900,-1.638054
0.361000,-2.009377
0.361100,-2.342724
0.361200,-2.436204
0.361300,-2.163878
0.361400,-1.972699
0.361500,-1.916546
0.361600,-2.131420
0.361700,-2.350514
0.361800,-2.510209
0.361900,-2.474504
0.362000,-2.381998
0.362100,-2.345969
0.362200,-2.389464
0.362300,-2.445616
0.362400,-2.479698
0.362500,-2.475154
0.362600,-2.472232
0.362700,-2.519297
0.362800,-2.609856
0.362900,-2.615049
0.363000,-2.566686
0.363100,-2.520595
0.363200,-2.553703
0.363300,-2.567660
0.363400,-2.611803
0.363500,-2.490409
0.363600,-2.314160
0.363700,-2.287220
0.363800,-2.454380
0.363900,-2.728329
0.364000,-2.866926
0.364100,-2.697493
0.364200,-2.450485
0.364300,-2.329091
0.364400,-2.472557
0.364500,-2.728978
0.364600,-2.932817
0.364700,-2.929246
0.364800,-2.782210
0.364900,-2.678668
0.365000,-2.646209
0.365100,-2.704959
0.365200,-2.754620
0.365300,-2.754620
0.365400,-2.740338
0.365500,-2.682887
0.365600,-2.591354
0.365700,-2.504042
0.365800,-2.328442
0.365900,-2.161282
0.366000,-2.102857
0.366100,-2.076565
0.366200,-2.023009
0.366300,-1.940241
0.366400,-1.696479
0.366500,-1.563075
0.366600,-1.262837
0.366700,-1.242063
0.366800,-1.172278
0.366900,-1.121643
0.367000,-0.974608
0.367100,-0.861978
0.367200,-0.723057
0.367300,-0.602637
0.367400,-0.571801
0.367500,-0.609128
0.367600,-0.556871
0.367700,-0.592575
0.367800,-0.546809
0.367900,-0.551353
0.368000,-0.401721
0.368100,-0.471506
0.368200,-0.403344
0.368300,-0.487410
0.368400,-0.539992
0.368500,-0.591276
0.368600,-0.549405
0.368700,-0.264098
0.368800,-0.000862
0.368900,-0.016442
0.369000,-0.387439
0.369100,-0.827897
0.369200,-0.660412
0.369300,-0.459172
0.369400,-0.098561
0.369500,-0.142704
0.369600,-0.317654
0.369700,-0.631849
0.369800,-0.647754
0.369900,-0.586408
0.370000,-0.347840
0.370100,-0.233912
0.370200,-0.286170
0.370300,-0.345893
0.370400,-0.358551
0.370500,-0.353683
0.370600,-0.386465
0.370700,-0.413081
0.370800,-0.418599
0.370900,-0.401396
0.371000,-0.448460
0.371100,-0.407563
0.371200,-0.570503
0.371300,-0.586083
0.371400,-0.706828
0.371500,-0.781806
0.371600,-0.642236
0.371700,-0.684431
0.371800,-0.589004
0.371900,-0.991811
0.372000,-1.165137
0.372100,-1.153777
0.372200,-0.888918
0.372300,-0.712995
0.372400,-0.761033
0.372500,-1.069061
0.372600,-1.316068
0.372700,-1.295944
0.372800,-1.131056
0.372900,-0.929815
0.373000,-0.975906
0.373100,-1.172603
0.373200,-1.309252
0.373300,-1.281987
0.373400,-1.268679
0.373500,-1.213176
0.373600,-1.332297
0.373700,-1.380335
0.373800,-1.398512
0.373900,-1.380660
0.374000,-1.364106
0.374100,-1.401109
0.374200,-1.449472
0.374300,-1.423180
0.374400,-1.352746
0.374500,-1.290102
0.374600,-1.250503
0.374700,-1.400460
0.374800,-1.514063
0.374900,-1.479658
0.375000,-1.436813
0.375100,-1.377090
0.375200,-1.370598
0.375300,-1.363457
0.375400,-1.342684
0.375500,-1.345930
0.375600,-1.358264
0.375700,-1.366054
0.375800,-1.346579
0.375900,-1.365729
0.376000,-1.348526
0.376100,-1.380660
0.376200,-1.380985
0.376300,-1.404030
0.376400,-1.399810
0.376500,-1.448498
0.376600,-1.466025
0.376700,-1.536460
0.376800,-1.572813
0.376900,-1.630589
0.377000,-1.845787
0.377100,-2.243401
0.377200,-2.435230
0.377300,-2.233339
0.377400,-1.951276
0.377500,-1.770484
0.377600,-2.079487
0.377700,-2.527736
0.377800,-2.787079
0.377900,-2.769876
0.378000,-2.486189
0.378100,-2.373884
0.378200,-2.468662
0.378300,-2.733847
0.378400,-2.935413
0.378500,-2.982154
0.378600,-2.874716
0.378700,-2.845504
0.378800,-2.852644
0.378900,-2.938659
0.379000,-3.016235
0.379100,-3.003901
0.379200,-2.944177
0.379300,-2.914965
0.379400,-3.006822
0.379500,-3.039605
0.379600,-3.074011
0.379700,-3.034087
0.379800,-3.009743
0.379900,-3.068493
0.380000,-3.058106
0.380100,-3.040254
0.380200,-2.831222
0.380300,-2.680290
0.380400,-2.785780
0.380500,-3.004225
0.380600,-3.254480
0.380700,-3.236303
0.380800,-2.963003
0.380900,-2.713723
0.381000,-2.708529
0.381100,-2.950669
0.381200,-3.220398
0.381300,-3.300571
0.381400,-3.183396
0.381500,-2.999356
0.381600,-2.938010
0.381700,-2.986049
0.381800,-3.077906
0.381900,-3.103548
0.382000,-3.055834
0.382100,-3.017533
0.382200,-2.959108
0.382300,-2.924702
0.382400,-2.888349
0.382500,-2.733522
0.382600,-2.627383
0.382700,-2.602715
0.382800,-2.599794
0.382900,-2.613426
0.383000,-2.495278
0.383100,-2.312862
0.383200,-2.162904
0.383300,-1.983085
0.383400,-2.027229
0.383500,-1.996069
0.383600,-1.940890
0.383700,-1.804889
0.383800,-1.680574
0.383900,-1.571515
0.384000,-1.530942
0.384100,-1.541653
0.384200,-1.555610
0.384300,-1.550417
0.384400,-1.554312
0.384500,-1.513414
0.384600,-1.469271
0.384700,-1.443304
0.384800,-1.483553
0.384900,-1.446550
0.385000,-1.487448
0.385100,-1.561128
0.385200,-1.447849
0.385300,-1.383581
0.385400,-0.938255
0.385500,-0.770446
0.385600,-0.660412
0.385700,-1.364431
0.385800,-1.438111
0.385900,-1.220316
0.386000,-0.908718
0.386100,-0.658789
0.386200,-0.596470
0.386300,-0.851267
0.386400,-1.111257
0.386500,-1.113853
0.386600,-0.855162
0.386700,-0.696441
0.386800,-0.536097
0.386900,-0.635420
0.387000,-0.688651
0.387100,-0.788622
0.387200,-0.737663
0.387300,-0.720135
0.387400,-0.667878
0.387500,-0.668851
0.387600,-0.718837
0.387700,-0.704880
0.387800,-0.789921
0.387900,-0.872040
0.388000,-0.929166
0.388100,-0.958379
0.388200,-0.978178
0.388300,-0.809071
0.388400,-0.778236
0.388500,-0.853863
0.388600,-1.221939
0.388700,-1.237195
0.388800,-1.186884
0.388900,-0.870741
0.389000,-0.806474
0.389100,-0.879181
0.389200,-1.212851
0.389300,-1.351123
0.389400,-1.303409
0.389500,-1.078799
0.389600,-0.925920
0.389700,-0.986942
0.389800,-1.152154
0.389900,-1.249529
0.390000,-1.239467
0.390100,-1.234598
0.390200,-1.155725
0.390300,-1.188507
0.390400,-1.233949
0.390500,-1.270627
0.390600,-1.262188
0.390700,-1.276469
0.390800,-1.310875
0.390900,-1.323858
0.391000,-1.310875
0.391100,-1.279066
0.391200,-1.258942
0.391300,-1.272250
0.391400,-1.464078
0.391500,-1.517309
0.391600,-1.507247
0.391700,-1.495887
0.391800,-1.371896
0.391900,-1.444278
0.392000,-1.429347
0.392100,-1.417013
0.392200,-1.402083
0.392300,-1.379037
0.392400,-1.359562
0.392500,-1.348526
0.392600,-1.359887
0.392700,-1.333596
0.392800,-1.342684
0.392900,-1.320937
0.393000,-1.329051
0.393100,-1.336192
0.393200,-1.365729
0.393300,-1.395591
0.393400,-1.417013
0.393500,-1.464078
0.393600,-1.491018
0.393700,-1.825338
0.393800,-2.156737
0.393900,-2.220356
0.394000,-1.978217
0.394100,-1.676355
0.394200,-1.667916
0.394300,-1.931801
0.394400,-2.438800
0.394500,-2.546887
0.394600,-2.456003
0.394700,-2.223926
0.394800,-2.164203
0.394900,-2.307344
0.395000,-2.550132
0.395100,-2.726057
0.395200,-2.699116
0.395300,-2.686133
0.395400,-2.688405
0.395500,-2.732873
0.395600,-2.811098
0.395700,-2.843232
0.395800,-2.878611
0.395900,-2.862057
0.396000,-2.927623
0.396100,-3.034736
0.396200,-3.076608
0.396300,-3.004225
0.396400,-2.990593
0.396500,-3.041228
0.396600,-3.135357
0.396700,-3.148016
0.396800,-3.065572
0.396900,-2.891595
0.397000,-2.807203
0.397100,-2.988970
0.397200,-3.227864
0.397300,-3.416123
0.397400,-3.265191
0.397500,-3.004550
0.397600,-2.841284
0.397700,-2.953915
0.397800,-3.169763
0.397900,-3.364189
0.398000,-3.327836
0.398100,-3.160026
0.398200,-3.004225
0.398300,-2.945151
0.398400,-2.968846
0.398500,-3.002927
0.398600,-2.985075
0.398700,-2.932817
0.398800,-2.888349
0.398900,-2.801360
0.399000,-2.702038
0.399100,-2.559545
0.399200,-2.344346
0.399300,-2.263525
0.399400,-2.230742
0.399500,-2.171019
0.399600,-2.130122
0.399700,-1.908431
0.399800,-1.725367
0.399900,-1.439409
0.400000,-1.387801
0.400100,-1.390073
0.400200,-1.334894
0.400300,-1.211553
0.400400,-1.073930
0.400500,-0.976231
0.400600,-0.856135
0.400700,-0.822054
0.400800,-0.804202
0.400900,-0.787648
0.401000,-0.720460
0.401100,-0.750971
0.401200,-0.670799
0.401300,-0.681835
0.401400,-0.547458
0.401500,-0.630226
0.401600,-0.561739
0.401700,-0.675992
0.401800,-0.655868
0.401900,-0.656193
0.402000,-0.467935
0.402100,-0.119659
0.402200,0.027052
0.402300,-0.160881
0.402400,-0.626007
0.402500,-0.637692
0.402600,-0.403344
0.402700,-0.141081
0.402800,0.095214
0.402900,-0.061234
0.403000,-0.244623
0.403100,-0.472479
0.403200,-0.382570
0.403300,-0.166074
0.403400,0.010174
0.403500,-0.042409
0.403600,-0.118036
0.403700,-0.221578
0.403800,-0.281625
0.403900,-0.225473
0.404000,-0.244298
0.404100,-0.287143
0.404200,-0.344919
0.404300,-0.334857
0.404400,-0.341673
0.404500,-0.419897
0.404600,-0.613348
0.404700,-0.695143
0.404800,-0.809395
0.404900,-0.730847
0.405000,-0.675019
0.405100,-0.641262
0.405200,-0.879505
0.405300,-1.195648
0.405400,-1.198894
0.405500,-1.033682
0.405600,-0.712021
0.405700,-0.704555
0.405800,-0.884698
0.405900,-1.203114
0.406000,-1.274197
0.406100,-1.144689
0.406200,-0.864250
0.406300,-0.793816
0.406400,-0.966169
0.406500,-1.159944
0.406600,-1.211553
0.406700,-1.178121
0.406800,-1.109958
0.406900,-1.122293
0.407000,-1.179744
0.407100,-1.268030
0.407200,-1.283285
0.407300,-1.239791
0.407400,-1.252775
0.407500,-1.311524
0.407600,-1.337166
0.407700,-1.299514
0.407800,-1.245958
0.407900,-1.196622
0.408000,-1.283610
0.408100,-1.438111
0.408200,-1.449472
0.408300,-1.429672
0.408400,-1.374168
0.408500,-1.312498
0.408600,-1.358588
0.408700,-1.351772
0.408800,-1.349825
0.408900,-1.348202
0.409000,-1.379686
0.409100,-1.364431
0.409200,-1.388450
0.409300,-1.425777
0.409400,-1.433242
0.409500,-1.466674
0.409600,-1.454340
0.409700,-1.510168
0.409800,-1.517309
0.409900,-1.590340
0.410000,-1.556908
0.410100,-1.685443
0.410200,-1.710111
0.410300,-1.876947
0.410400,-2.188547
0.410500,-2.491383
0.410600,-2.463144
0.410700,-2.162580
0.410800,-1.972374
0.410900,-2.129472
0.411000,-2.525464
0.411100,-2.865303
0.411200,-2.920483
0.411300,-2.766954
0.411400,-2.557273
0.411500,-2.592328
0.411600,-2.822134
0.411700,-3.099328
0.411800,-3.202222
0.411900,-3.192160
0.412000,-3.103223
0.412100,-3.076283
0.412200,-3.144446
0.412300,-3.228513
0.412400,-3.243444
0.412500,-3.255129
0.412600,-3.264867
0.412700,-3.276552
0.412800,-3.323941
0.412900,-3.336924
0.413000,-3.290184
0.413100,-3.310308
0.413200,-3.356075
0.413300,-3.421966
0.413400,-3.462863
0.413500,-3.343741
0.413600,-3.128866
0.413700,-3.130164
0.413800,-3.276876
0.413900,-3.486233
0.414000,-3.587828
0.414100,-3.410605
0.414200,-3.126269
0.414300,-3.009743
0.414400,-3.105171
0.414500,-3.331406
0.414600,-3.496620
0.414700,-3.475847
0.414800,-3.305115
0.414900,-3.148665
0.415000,-3.096407
0.415100,-3.109391
0.415200,-3.143796
0.415300,-3.122049
0.415400,-3.083424
0.415500,-2.986698
0.415600,-2.892244
0.415700,-2.770200
0.415800,-2.612452
0.415900,-2.445616
0.416000,-2.362848
0.416100,-2.328442
0.416200,-2.262876
0.416300,-2.128499
0.416400,-1.845787
0.416500,-1.683820
0.416600,-1.368001
0.416700,-1.314121
0.416800,-1.245958
0.416900,-1.171304
0.417000,-1.029462
0.417100,-0.924297
0.417200,-0.744804
0.417300,-0.620489
0.417400,-0.567257
0.417500,-0.534799
0.417600,-0.560441
0.417700,-0.534475
0.417800,-0.590627
0.417900,-0.522790
0.418000,-0.490981
0.418100,-0.473778
0.418200,-0.457873
0.418300,-0.488709
0.418400,-0.579267
0.418500,-0.559143
0.418600,-0.574398
0.418700,-0.242676
0.418800,-0.118685
0.418900,0.069897
0.419000,-0.561090
0.419100,-0.704880
0.419200,-0.719811
0.419300,-0.351410
0.419400,-0.172890
0.419500,-0.096614
0.419600,-0.272862
0.419700,-0.572775
0.419800,-0.637692
0.419900,-0.535448
0.420000,-0.323821
0.420100,-0.237807
0.420200,-0.274160
0.420300,-0.323172
0.420400,-0.334208
0.420500,-0.386465
0.420600,-0.476374
0.420700,-0.449434
0.420800,-0.478322
0.420900,-0.478322
0.421000,-0.479620
0.421100,-0.530255
0.421200,-0.681510
0.421300,-0.827247
0.421400,-0.874312
0.421500,-1.022970
0.421600,-0.865873
0.421700,-0.981099
0.421800,-0.965844
0.421900,-1.271925
0.422000,-1.454665
0.422100,-1.364756
0.422200,-1.231352
0.422300,-0.992460
0.422400,-1.158321
0.422500,-1.358913
0.422600,-1.627018
0.422700,-1.579954
0.422800,-1.432269
0.422900,-1.279715
0.423000,-1.321261
0.423100,-1.501080
0.423200,-1.550417
0.423300,-1.531591
0.423400,-1.565023
0.423500,-1.553663
0.423600,-1.694207
0.423700,-1.705892
0.423800,-1.720173
0.423900,-1.707190
0.424000,-1.704918
0.424100,-1.804889
0.424200,-1.851954
0.424300,-1.848059
0.424400,-1.784765
0.424500,-1.756851
0.424600,-1.777625
0.424700,-1.948355
0.424800,-2.068775
0.424900,-2.043782
0.425000,-2.018790
0.425100,-1.925310
0.425200,-1.987305
0.425300,-1.985358
0.425400,-1.949004
0.425500,-1.928231
0.425600,-1.921415
0.425700,-1.917520
0.425800,-1.905510
0.425900,-1.915572
0.426000,-1.910379
0.426100,-1.932126
0.426200,-1.920766
0.426300,-1.936670
0.426400,-1.939916
0.426500,-1.948030
0.426600,-2.003210
0.426700,-2.009701
0.426800,-2.092470
0.426900,-2.151544
0.427000,-2.368041
0.427100,-2.740014
0.427200,-2.903280
0.427300,-2.689703
0.427400,-2.422896
0.427500,-2.359602
0.427600,-2.540070
0.427700,-3.034087
0.427800,-3.222671
0.427900,-3.148341
0.428000,-2.895490
0.428100,-2.802334
0.428200,-2.900683
0.428300,-3.142498
0.428400,-3.297000
0.428500,-3.273306
0.428600,-3.237601
0.428700,-3.170737
0.428800,-3.240198
0.428900,-3.262270
0.429000,-3.267463
0.429100,-3.240523
0.429200,-3.190537
0.429300,-3.198976
0.429400,-3.277850
0.429500,-3.359645
0.429600,-3.344065
0.429700,-3.254480
0.429800,-3.217477
0.429900,-3.290509
0.430000,-3.303167
0.430100,-3.314528
0.430200,-3.090889
0.430300,-2.941256
0.430400,-3.029543
0.430500,-3.257401
0.430600,-3.538816
0.430700,-3.487207
0.430800,-3.225592
0.430900,-2.956511
0.431000,-2.947098
0.431100,-3.182422
0.431200,-3.466109
0.431300,-3.539790
0.431400,-3.389182
0.431500,-3.202871
0.431600,-3.161973
0.431700,-3.176580
0.431800,-3.269735
0.431900,-3.252532
0.432000,-3.189563
0.432100,-3.146393
0.432200,-3.110689
0.432300,-3.085371
0.432400,-2.995137
0.432500,-2.825055
0.432600,-2.710801
0.432700,-2.656596
0.432800,-2.634849
0.432900,-2.637121
0.433000,-2.483268
0.433100,-2.290790
0.433200,-2.022685
0.433300,-1.881166
0.433400,-1.903563
0.433500,-1.859419
0.433600,-1.788011
0.433700,-1.613386
0.433800,-1.462455
0.433900,-1.332622
0.434000,-1.250178
0.434100,-1.268355
0.434200,-1.231677
0.434300,-1.222588
0.434400,-1.182016
0.434500,-1.163515
0.434600,-1.073281
0.434700,-1.056078
0.434800,-1.074904
0.434900,-1.035305
0.435000,-1.087238
0.435100,-1.055104
0.435200,-1.079772
0.435300,-0.894761
0.435400,-0.569854
0.435500,-0.282924
0.435600,-0.374456
0.435700,-0.891839
0.435800,-0.954484
0.435900,-0.942474
0.436000,-0.433854
0.436100,-0.274485
0.436200,-0.218657
0.436300,-0.520842
0.436400,-0.700011
0.436500,-0.639639
0.436600,-0.448136
0.436700,-0.161855
0.436800,-0.104728
0.436900,-0.114790
0.437000,-0.201454
0.437100,-0.280652
0.437200,-0.228069
0.437300,-0.178733
0.437400,-0.123879
0.437500,-0.129072
0.437600,-0.150170
0.437700,-0.094342
0.437800,-0.156012
0.437900,-0.249167
0.438000,-0.240728
0.438100,-0.341024
0.438200,-0.389386
0.438300,-0.295582
0.438400,-0.242676
0.438500,-0.308566
0.438600,-0.614322
0.438700,-0.698388
0.438800,-0.667878
0.438900,-0.391009
0.439000,-0.270914
0.439100,-0.409835
0.439200,-0.752594
0.439300,-0.990837
0.439400,-0.943123
0.439500,-0.747400
0.439600,-0.587381
0.439700,-0.690923
0.439800,-0.930140
0.439900,-1.031085
0.440000,-1.041147
0.440100,-1.037901
0.440200,-0.995381
0.440300,-1.072631
0.440400,-1.175524
0.440500,-1.248555
0.440600,-1.261538
0.440700,-1.234273
0.440800,-1.286856
0.440900,-1.323209
0.441000,-1.317367
0.441100,-1.289128
0.441200,-1.271276
0.441300,-1.326455
0.441400,-1.484202
0.441500,-1.543600
0.441600,-1.547495
0.441700,-1.522178
0.441800,-1.421882
0.441900,-1.490369
0.442000,-1.488746
0.442100,-1.473491
0.442200,-1.456612
0.442300,-1.484526
0.442400,-1.452393
0.442500,-1.480956
0.442600,-1.471219
0.442700,-1.479982
0.442800,-1.511142
0.442900,-1.519906
0.443000,-1.537758
0.443100,-1.559505
0.443200,-1.588393
0.443300,-1.607868
0.443400,-1.682522
0.443500,-1.668240
0.443600,-1.773405
0.443700,-2.039887
0.443800,-2.390762
0.443900,-2.482619
0.444000,-2.171019
0.444100,-1.950303
0.444200,-1.892527
0.444300,-2.279430
0.444400,-2.595250
0.444500,-2.740663
0.444600,-2.582266
0.444700,-2.349215
0.444800,-2.269368
0.444900,-2.446266
0.445000,-2.661465
0.445100,-2.876664
0.445200,-2.877637
0.445300,-2.827002
0.445400,-2.766305
0.445500,-2.828301
0.445600,-2.883155
0.445700,-2.919509
0.445800,-2.969495
0.445900,-2.945151
0.446000,-2.963328
0.446100,-3.045772
0.446200,-3.049018
0.446300,-3.061352
0.446400,-3.076283
0.446500,-3.073362
0.446600,-3.140226
0.446700,-3.188589
0.446800,-3.072713
0.446900,-2.893867
0.447000,-2.770525
0.447100,-2.958459
0.447200,-3.235329
0.447300,-3.435923
0.447400,-3.304790
0.447500,-3.022077
0.447600,-2.874067
0.447700,-2.931843
0.447800,-3.197678
0.447900,-3.407035
0.448000,-3.427808
0.448100,-3.299272
0.448200,-3.150937
0.448300,-3.140875
0.448400,-3.174632
0.448500,-3.215530
0.448600,-3.207740
0.448700,-3.131138
0.448800,-3.092188
0.448900,-3.030517
0.449000,-2.950993
0.449100,-2.853943
0.449200,-2.682238
0.449300,-2.584214
0.449400,-2.537474
0.449500,-2.506314
0.449600,-2.470285
0.449700,-2.260604
0.449800,-2.099286
0.449900,-1.806837
0.450000,-1.749710
0.450100,-1.749386
0.450200,-1.686417
0.450300,-1.564049
0.450400,-1.449472
0.450500,-1.287830
0.450600,-1.200517
0.450700,-1.128784
0.450800,-1.134951
0.450900,-1.099896
0.451000,-1.098598
0.451100,-1.111906
0.451200,-1.108336
0.451300,-1.020374
0.451400,-1.050235
0.451500,-1.032059
0.451600,-1.075877
0.451700,-1.106388
0.451800,-1.159944
0.451900,-1.101519
0.452000,-0.943123
0.452100,-0.444890
0.452200,-0.460794
0.452300,-0.593548
0.452400,-1.248880
0.452500,-1.084966
0.452600,-1.018102
0.452700,-0.502016
0.452800,-0.402694
0.452900,-0.450732
0.453000,-0.720135
0.453100,-0.919104
0.453200,-0.755190
0.453300,-0.609778
0.453400,-0.367964
0.453500,-0.368938
0.453600,-0.418274
0.453700,-0.483191
0.453800,-0.474427
0.453900,-0.431582
0.454000,-0.395229
0.454100,-0.419248
0.454200,-0.448785
0.454300,-0.406914
0.454400,-0.405291
0.454500,-0.422494
0.454600,-0.567257
0.454700,-0.620489
0.454800,-0.698713
0.454900,-0.631849
0.455000,-0.572775
0.455100,-0.530255
0.455200,-0.753243
0.455300,-1.071982
0.455400,-1.046990
0.455500,-0.919104
0.455600,-0.632823
0.455700,-0.688976
0.455800,-0.899305
0.455900,-1.294970
0.456000,-1.333596
0.456100,-1.229729
0.456200,-0.967467
0.456300,-0.929815
0.456400,-1.101844
0.456500,-1.288803
0.456600,-1.325156
0.456700,-1.280364
0.456800,-1.198569
0.456900,-1.208307
0.457000,-1.269977
0.457100,-1.359887
0.457200,-1.372221
0.457300,-1.311524
0.457400,-1.299514
0.457500,-1.328402
0.457600,-1.338464
0.457700,-1.293347
0.457800,-1.242713
0.457900,-1.199543
0.458000,-1.277767
0.458100,-1.435190
0.458200,-1.411171
0.458300,-1.382608
0.458400,-1.235896
0.458500,-1.244660
0.458600,-1.266083
0.458700,-1.248555
0.458800,-1.251152
0.458900,-1.216421
0.459000,-1.201815
0.459100,-1.168059
0.459200,-1.142092
0.459300,-1.142417
0.459400,-1.137223
0.459500,-1.108336
0.459600,-1.111257
0.459700,-1.104765
0.459800,-1.097624
0.459900,-1.094703
0.460000,-1.060622
0.460100,-1.129758
0.460200,-1.208307
0.460300,-1.293672
0.460400,-1.612737
0.460500,-1.897071
0.460600,-1.812030
0.460700,-1.451419
0.460800,-1.247581
0.460900,-1.343658
0.461000,-1.730235
0.461100,-2.087277
0.461200,-2.129148
0.461300,-1.932775
0.461400,-1.716603
0.461500,-1.715954
0.461600,-1.898369
0.461700,-2.144728
0.461800,-2.249244
0.461900,-2.167773
0.462000,-2.095716
0.462100,-2.039238
0.462200,-2.116489
0.462300,-2.200881
0.462400,-2.227496
0.462500,-2.196661
0.462600,-2.185625
0.462700,-2.246322
0.462800,-2.327793
0.462900,-2.367716
0.463000,-2.314809
0.463100,-2.337530
0.463200,-2.406342
0.463300,-2.483268
0.463400,-2.484891
0.463500,-2.348566
0.463600,-2.136938
0.463700,-2.141482
0.463800,-2.366094
0.463900,-2.659192
0.464000,-2.773771
0.464100,-2.571555
0.464200,-2.278456
0.464300,-2.160957
0.464400,-2.311239
0.464500,-2.593951
0.464600,-2.810773
0.464700,-2.778964
0.464800,-2.618944
0.464900,-2.483917
0.465000,-2.467039
0.465100,-2.576424
0.465200,-2.681913
0.465300,-2.703985
0.465400,-2.681264
0.465500,-2.611803
0.465600,-2.573827
0.465700,-2.507612
0.465800,-2.440099
0.465900,-2.334284
0.466000,-2.296633
0.466100,-2.267420
0.466200,-2.280404
0.466300,-2.228470
0.466400,-2.027553
0.466500,-1.868183
0.466600,-1.674732
0.466700,-1.692584
0.466800,-1.694856
0.466900,-1.680899
0.467000,-1.576383
0.467100,-1.483228
0.467200,-1.344631
0.467300,-1.298865
0.467400,-1.269977
0.467500,-1.324832
0.467600,-1.290102
0.467700,-1.327429
0.467800,-1.325806
0.467900,-1.279715
0.468000,-1.164813
0.468100,-1.214799
0.468200,-1.165137
0.468300,-1.272250
0.468400,-1.293997
0.468500,-1.342359
0.468600,-1.212851
0.468700,-0.987916
0.468800,-0.617243
0.468900,-0.584136
0.469000,-0.938579
0.469100,-1.384880
0.469200,-1.190130
0.469300,-1.024269
0.469400,-0.628603
0.469500,-0.559143
0.469600,-0.662684
0.469700,-0.949290
0.469800,-0.993758
0.469900,-0.913586
0.470000,-0.687353
0.470100,-0.584460
0.470200,-0.606532
0.470300,-0.658140
0.470400,-0.666904
0.470500,-0.754541
0.470600,-0.735391
0.470700,-0.716890
0.470800,-0.701310
0.470900,-0.719162
0.471000,-0.726627
0.471100,-0.782131
0.471200,-0.906770
0.471300,-1.006092
0.471400,-1.069710
0.471500,-1.123266
0.471600,-0.976555
0.471700,-1.045691
0.471800,-1.097949
0.471900,-1.423505
0.472000,-1.672460
0.472100,-1.585472
0.472200,-1.373195
0.472300,-1.184288
0.472400,-1.257968
0.472500,-1.553987
0.472600,-1.835725
0.472700,-1.846761
0.472800,-1.698751
0.472900,-1.476087
0.473000,-1.487123
0.473100,-1.655581
0.473200,-1.794827
0.473300,-1.787687
0.473400,-1.847410
0.473500,-1.790608
0.473600,-1.832804
0.473700,-1.842216
0.473800,-1.905510
0.473900,-1.885386
0.474000,-1.876947
0.474100,-1.929205
0.474200,-1.959391
0.474300,-1.937319
0.474400,-1.881166
0.474500,-1.823391
0.474600,-1.827610
0.474700,-1.976918
0.474800,-2.107401
0.474900,-2.094093
0.475000,-2.039887
0.475100,-1.900317
0.475200,-2.002560
0.475300,-1.995744
0.475400,-1.989253
0.475500,-1.980489
0.475600,-2.002885
0.475700,-1.985033
0.475800,-2.001262
0.475900,-2.007105
0.476000,-2.017491
0.476100,-1.999964
0.476200,-2.018140
0.476300,-2.015868
0.476400,-2.029825
0.476500,-2.040861
0.476600,-2.039887
0.476700,-2.090522
0.476800,-2.099935
0.476900,-2.151219
0.477000,-2.326170
0.477100,-2.703660
0.477200,-2.843881
0.477300,-2.682887
0.477400,-2.279105
0.477500,-2.144079
0.477600,-2.384270
0.477700,-2.811098
0.477800,-3.059405
0.477900,-3.007471
0.478000,-2.728978
0.478100,-2.594925
0.478200,-2.627059
0.478300,-2.877313
0.478400,-3.069142
0.478500,-3.068818
0.478600,-2.956511
0.478700,-2.937685
0.478800,-2.966249
0.478900,-3.024999
0.479000,-3.009419
0.479100,-3.009094
0.479200,-2.984426
0.479300,-3.031490
0.479400,-3.092188
0.479500,-3.176255
0.479600,-3.131462
0.479700,-3.092512
0.479800,-3.124971
0.479900,-3.234680
0.480000,-3.300246
0.480100,-3.286289
0.480200,-3.072388
0.480300,-2.903929
0.480400,-3.047395
0.480500,-3.275253
0.480600,-3.517393
0.480700,-3.495322
0.480800,-3.242146
0.480900,-3.024999
0.481000,-3.047720
0.481100,-3.287587
0.481200,-3.545632
0.481300,-3.639762
0.481400,-3.498892
0.481500,-3.342118
0.481600,-3.279148
0.481700,-3.298948
0.481800,-3.346337
0.481900,-3.322967
0.482000,-3.279148
0.482100,-3.244418
0.482200,-3.197353
0.482300,-3.154183
0.482400,-2.980531
0.482500,-2.812396
0.482600,-2.710152
0.482700,-2.682238
0.482800,-2.672176
0.482900,-2.686133
0.483000,-2.554027
0.483100,-2.344671
0.483200,-2.261253
0.483300,-2.003534
0.483400,-1.967181
0.483500,-1.909081
0.483600,-1.779897
0.483700,-1.616307
0.483800,-1.469596
0.483900,-1.339114
0.484000,-1.213500
0.484100,-1.186560
0.484200,-1.188183
0.484300,-1.108660
0.484400,-1.155725
0.484500,-1.071658
0.484600,-1.052183
0.484700,-0.978827
0.484800,-1.003496
0.484900,-0.979476
0.485000,-0.982398
0.485100,-1.104441
0.485200,-1.000250
0.485300,-0.954484
0.485400,-0.498446
0.485500,-0.313110
0.485600,-0.254360
0.485700,-0.777911
0.485800,-0.979152
0.485900,-0.804851
0.486000,-0.555897
0.486100,-0.218332
0.486200,-0.337129
0.486300,-0.487086
0.486400,-0.790245
0.486500,-0.691572
0.486600,-0.528632
0.486700,-0.273835
0.486800,-0.257606
0.486900,-0.341348
0.487000,-0.413406
0.487100,-0.460794
0.487200,-0.462093
0.487300,-0.441969
0.487400,-0.415353
0.487500,-0.443592
0.487600,-0.494876
0.487700,-0.455926
0.487800,-0.557195
0.487900,-0.609778
0.488000,-0.684107
0.488100,-0.736040
0.488200,-0.784078
0.488300,-0.652622
0.488400,-0.618217
0.488500,-0.708450
0.488600,-1.042121
0.488700,-1.137548
0.488800,-1.029462
0.488900,-0.720460
0.489000,-0.608155
0.489100,-0.689949
0.489200,-1.046016
0.489300,-1.230703
0.489400,-1.153452
0.489500,-0.895085
0.489600,-0.725653
0.489700,-0.835362
0.489800,-1.044393
0.489900,-1.159295
0.490000,-1.149233
0.490100,-1.126837
0.490200,-1.083992
0.490300,-1.191104
0.490400,-1.286531
0.490500,-1.388450
0.490600,-1.344307
0.490700,-1.337491
0.490800,-1.410522
0.490900,-1.486799
0.491000,-1.508546
0.491100,-1.487448
0.491200,-1.477061
0.491300,-1.543600
0.491400,-1.752632
0.491500,-1.837348
0.491600,-1.814302
0.491700,-1.745166
0.491800,-1.704918
0.491900,-1.782493
0.492000,-1.791257
0.492100,-1.826961
0.492200,-1.843515
0.492300,-1.874026
0.492400,-1.873052
0.492500,-1.907133
0.492600,-1.923687
0.492700,-1.931477
0.492800,-1.964260
0.492900,-1.963286
0.493000,-1.977892
0.493100,-1.984059
0.493200,-2.010675
0.493300,-2.036966
0.493400,-2.061635
0.493500,-2.153492
0.493600,-2.171019
0.493700,-2.446266
0.493800,-2.809799
0.493900,-2.832845
0.494000,-2.570257
0.494100,-2.268719
0.494200,-2.279105
0.494300,-2.589732
0.494400,-2.961380
0.494500,-3.102250
0.494600,-2.984426
0.494700,-2.719240
0.494800,-2.657894
0.494900,-2.787403
0.495000,-3.024349
0.495100,-3.191510
0.495200,-3.192809
0.495300,-3.164245
0.495400,-3.060378
0.495500,-3.067844
0.495600,-3.126918
0.495700,-3.135033
0.495800,-3.185992
0.495900,-3.155157
0.496000,-3.202546
0.496100,-3.208389
0.496200,-3.253181
0.496300,-3.217477
0.496400,-3.215205
0.496500,-3.203845
0.496600,-3.245067
0.496700,-3.296351
0.496800,-3.242795
0.496900,-3.011042
0.497000,-2.913991
0.497100,-3.071739
0.497200,-3.333354
0.497300,-3.560563
0.497400,-3.464486
0.497500,-3.195081
0.497600,-3.028894
0.497700,-3.099978
0.497800,-3.364514
0.497900,-3.599838
0.498000,-3.667676
0.498100,-3.536869
0.498200,-3.351855
0.498300,-3.304790
0.498400,-3.344390
0.498500,-3.437870
0.498600,-3.451178
0.498700,-3.417421
0.498800,-3.396972
0.498900,-3.326862
0.499000,-3.264867
0.499100,-3.166517
0.499200,-2.999681
0.499300,-2.931518
0.499400,-2.888349
0.499500,-2.883805
0.499600,-2.836091
0.499700,-2.622515
0.499800,-2.468013
0.499900,-2.178809
0.500000,-2.084031
0.500100,-2.060012
0.500200,-2.032422
0.500300,-1.913949
0.500400,-1.776975
0.500500,-1.626694
0.500600,-1.478684
0.500700,-1.396889
0.500800,-1.370598
0.500900,-1.337491
0.501000,-1.308603
0.501100,-1.324832
0.501200,-1.244985
0.501300,-1.218693
0.501400,-1.125214
0.501500,-1.227782
0.501600,-1.097300
0.501700,-1.227133
0.501800,-1.174875
0.501900,-1.127486
0.502000,-0.821730
0.502100,-0.491630
0.502200,-0.341348
0.502300,-0.563687
0.502400,-1.079772
0.502500,-0.946369
0.502600,-0.736365
0.502700,-0.329339
0.502800,-0.248518
0.502900,-0.247869
0.503000,-0.450732
0.503100,-0.562713
0.503200,-0.402370
0.503300,-0.229043
0.503400,-0.038838
0.503500,-0.073568
0.503600,-0.010924
0.503700,-0.119335
0.503800,-0.094991
0.503900,-0.100509
0.504000,-0.074218
0.504100,-0.041435
0.504200,-0.038838
0.504300,0.016990
0.504400,0.041333
0.504500,-0.093368
0.504600,-0.154714
0.504700,-0.174189
0.504800,-0.243974
0.504900,-0.169969
0.505000,-0.143354
0.505100,-0.100833
0.505200,-0.332909
0.505300,-0.658789
0.505400,-0.663983
0.505500,-0.516298
0.505600,-0.298504
0.505700,-0.269940
0.505800,-0.507534
0.505900,-0.880803
0.506000,-0.970064
0.506100,-0.782780
0.506200,-0.574074
0.506300,-0.653921
0.506400,-0.834713
0.506500,-0.980450
0.506600,-0.972011
0.506700,-0.987916
0.506800,-1.006417
0.506900,-1.030111
0.507000,-1.113529
0.507100,-1.175199
0.507200,-1.174550
0.507300,-1.171304
0.507400,-1.222588
0.507500,-1.315744
0.507600,-1.353071
0.507700,-1.315094
0.507800,-1.312498
0.507900,-1.267056
0.508000,-1.399810
0.508100,-1.564049
0.508200,-1.578331
0.508300,-1.580927
0.508400,-1.532889
0.508500,-1.489720
0.508600,-1.532565
0.508700,-1.513739
0.508800,-1.554961
0.508900,-1.543925
0.509000,-1.567620
0.509100,-1.554961
0.509200,-1.594235
0.509300,-1.614684
0.509400,-1.614684
0.509500,-1.634159
0.509600,-1.660450
0.509700,-1.658178
0.509800,-1.691610
0.509900,-1.688689
0.510000,-1.751009
0.510100,-1.744517
0.510200,-1.849357
0.510300,-1.951601
0.510400,-2.302800
0.510500,-2.554677
0.510600,-2.472232
0.510700,-2.206723
0.510800,-2.002236
0.510900,-2.170694
0.511000,-2.533903
0.511100,-2.860434
0.511200,-2.851346
0.511300,-2.733847
0.511400,-2.551106
0.511500,-2.622190
0.511600,-2.798439
0.511700,-3.016559
0.511800,-3.147367
0.511900,-3.095109
0.512000,-3.091538
0.512100,-3.071414
0.512200,-3.103873
0.512300,-3.212284
0.512400,-3.189887
0.512500,-3.205468
0.512600,-3.185019
0.512700,-3.187615
0.512800,-3.262919
0.512900,-3.309335
0.513000,-3.321669
0.513100,-3.239224
0.513200,-3.247339
0.513300,-3.248962
0.513400,-3.330108
0.513500,-3.184045
0.513600,-2.980206
0.513700,-2.991891
0.513800,-3.246690
0.513900,-3.549852
0.514000,-3.604058
0.514100,-3.400867
0.514200,-3.096732
0.514300,-3.021104
0.514400,-3.201248
0.514500,-3.522911
0.514600,-3.679361
0.514700,-3.625156
0.514800,-3.455073
0.514900,-3.359321
0.515000,-3.389832
0.515100,-3.469355
0.515200,-3.510902
0.515300,-3.510577
0.515400,-3.428457
0.515500,-3.367760
0.515600,-3.310308
0.515700,-3.243119
0.515800,-3.113610
0.515900,-2.938659
0.516000,-2.872444
0.516100,-2.818563
0.516200,-2.801685
0.516300,-2.751699
0.516400,-2.514104
0.516500,-2.364471
0.516600,-2.085005
0.516700,-2.073644
0.516800,-2.050599
0.516900,-1.991200
0.517000,-1.851305
0.517100,-1.717577
0.517200,-1.534837
0.517300,-1.454016
0.517400,-1.392670
0.517500,-1.421233
0.517600,-1.405653
0.517700,-1.390073
0.517800,-1.355343
0.517900,-1.317367
0.518000,-1.207658
0.518100,-1.240765
0.518200,-1.133328
0.518300,-1.204412
0.518400,-1.134302
0.518500,-1.205710
0.518600,-1.046016
0.518700,-0.738312
0.518800,-0.467286
0.518900,-0.407888
0.519000,-0.881128
0.519100,-1.040498
0.519200,-0.960002
0.519300,-0.627954
0.519400,-0.382895
0.519500,-0.272537
0.519600,-0.418923
0.519700,-0.718512
0.519800,-0.735391
0.519900,-0.644183
0.520000,-0.376728
0.520100,-0.240728
0.520200,-0.196910
0.520300,-0.313110
0.520400,-0.354007
0.520500,-0.402370
0.520600,-0.361472
0.520700,-0.339725
0.520800,-0.322847
0.520900,-0.347191
0.521000,-0.360823
0.521100,-0.387114
0.521200,-0.432556
0.521300,-0.546484
0.521400,-0.581864
0.521500,-0.613348
0.521600,-0.454627
0.521700,-0.472479
0.521800,-0.481243
0.521900,-0.788622
0.522000,-0.965519
0.522100,-0.849644
0.522200,-0.612374
0.522300,-0.428985
0.522400,-0.513377
0.522500,-0.797386
0.522600,-1.091457
0.522700,-1.088861
0.522800,-0.937605
0.522900,-0.714293
0.523000,-0.764928
0.523100,-0.930789
0.523200,-1.082694
0.523300,-1.096326
0.523400,-1.161242
0.523500,-1.090484
0.523600,-1.109958
0.523700,-1.146636
0.523800,-1.209605
0.523900,-1.239467
0.524000,-1.253099
0.524100,-1.301462
0.524200,-1.309577
0.524300,-1.309901
0.524400,-1.255371
0.524500,-1.256994
0.524600,-1.255047
0.524700,-1.383906
0.524800,-1.459858
0.524900,-1.443304
0.525000,-1.429672
0.525100,-1.308278
0.525200,-1.296593
0.525300,-1.298541
0.525400,-1.267705
0.525500,-1.281338
0.525600,-1.256345
0.525700,-1.251152
0.525800,-1.225834
0.525900,-1.241739
0.526000,-1.238818
0.526100,-1.227457
0.526200,-1.227133
0.526300,-1.239142
0.526400,-1.218044
0.526500,-1.223238
0.526600,-1.213825
0.526700,-1.222913
0.526800,-1.245309
0.526900,-1.271600
0.527000,-1.467973
0.527100,-1.766913
0.527200,-1.868508
0.527300,-1.657854
0.527400,-1.352421
0.527500,-1.232001
0.527600,-1.466999
0.527700,-1.815276
0.527800,-2.056766
0.527900,-2.056441
0.528000,-1.846111
0.528100,-1.688364
0.528200,-1.724068
0.528300,-1.917520
0.528400,-2.108050
0.528500,-2.194389
0.528600,-2.140508
0.528700,-2.076241
0.528800,-2.146675
0.528900,-2.207697
0.529000,-2.225549
0.529100,-2.259306
0.529200,-2.293387
0.529300,-2.305396
0.529400,-2.312862
0.529500,-2.476127
0.529600,-2.477426
0.529700,-2.465741
0.529800,-2.535202
0.529900,-2.649455
0.530000,-2.735145
0.530100,-2.710152
0.530200,-2.509559
0.530300,-2.443994
0.530400,-2.597197
0.530500,-2.945151
0.530600,-3.172035
0.530700,-3.157429
0.530800,-3.002602
0.530900,-2.816291
0.531000,-2.889322
0.531100,-3.171062
0.531200,-3.430405
0.531300,-3.597241
0.531400,-3.510577
0.531500,-3.423913
0.531600,-3.419044
0.531700,-3.470329
0.531800,-3.588478
0.531900,-3.648526
0.532000,-3.693319
0.532100,-3.722856
0.532200,-3.672221
0.532300,-3.625805
0.532400,-3.554721
0.532500,-3.440467
0.532600,-3.359970
0.532700,-3.326862
0.532800,-3.314203
0.532900,-3.295377
0.533000,-3.202546
0.533100,-3.020130
0.533200,-2.813370
0.533300,-2.658543
0.533400,-2.687107
0.533500,-2.659192
0.533600,-2.561493
0.533700,-2.409263
0.533800,-2.295334
0.533900,-2.187248
0.534000,-2.126551
0.534100,-2.080785
0.534200,-2.072670
0.534300,-2.027553
0.534400,-2.064231
0.534500,-1.957443
0.534600,-1.937644
0.534700,-1.810083
0.534800,-1.792880
0.534900,-1.703944
0.535000,-1.751009
0.535100,-1.800994
0.535200,-1.664021
0.535300,-1.583524
0.535400,-1.115476
0.535500,-0.957080
0.535600,-0.933386
0.535700,-1.449796
0.535800,-1.513090
0.535900,-1.311524
0.536000,-1.035305
0.536100,-0.846398
0.536200,-0.770446
0.536300,-1.016154
0.536400,-1.145013
0.536500,-1.133004
0.536600,-0.935333
0.536700,-0.743830
0.536800,-0.614322
0.536900,-0.633797
0.537000,-0.749348
0.537100,-0.727276
0.537200,-0.710073
0.537300,-0.702608
0.537400,-0.658465
0.537500,-0.644183
0.537600,-0.677615
0.537700,-0.668527
0.537800,-0.710723
0.537900,-0.811992
0.538000,-0.856135
0.538100,-0.935658
0.538200,-0.788622
0.538300,-0.703906
0.538400,-0.709424
0.538500,-0.851916
0.538600,-1.227133
0.538700,-1.238818
0.538800,-1.124889
0.538900,-0.791543
0.539000,-0.776288
0.539100,-0.880479
0.539200,-1.206035
0.539300,-1.379037
0.539400,-1.288803
0.539500,-1.074254
0.539600,-0.885023
0.539700,-0.982398
0.539800,-1.160918
0.539900,-1.262188
0.540000,-1.234273
0.540100,-1.228106
0.540200,-1.155725
0.540300,-1.235896
0.540400,-1.287505
0.540500,-1.349825
0.540600,-1.351448
0.540700,-1.333920
0.540800,-1.377739
0.540900,-1.423180
0.541000,-1.393643
0.541100,-1.334569
0.541200,-1.288803
0.541300,-1.348526
0.541400,-1.530293
0.541500,-1.630264
0.541600,-1.615658
0.541700,-1.430646
0.541800,-1.450121
0.541900,-1.524775
0.542000,-1.557233
0.542100,-1.547820
0.542200,-1.552689
0.542300,-1.543600
0.542400,-1.561128
0.542500,-1.565997
0.542600,-1.570541
0.542700,-1.568918
0.542800,-1.576059
0.542900,-1.571190
0.543000,-1.586770
0.543100,-1.575410
0.543200,-1.598455
0.543300,-1.605271
0.543400,-1.682522
0.543500,-1.739973
0.543600,-1.791906
0.543700,-2.082408
0.543800,-2.396280
0.543900,-2.385244
0.544000,-2.169396
0.544100,-1.922713
0.544200,-1.919792
0.544300,-2.247945
0.544400,-2.563116
0.544500,-2.717942
0.544600,-2.602066
0.544700,-2.417053
0.544800,-2.319678
0.544900,-2.445616
0.545000,-2.671202
0.545100,-2.848749
0.545200,-2.897437
0.545300,-2.878936
0.545400,-2.888673
0.545500,-2.888024
0.545600,-2.953915
0.545700,-3.082125
0.545800,-3.117181
0.545900,-3.130489
0.546000,-3.185019
0.546100,-3.251883
0.546200,-3.320370
0.546300,-3.274929
0.546400,-3.310308
0.546500,-3.390481
0.546600,-3.427808
0.546700,-3.446634
0.546800,-3.278824
0.546900,-3.066545
0.547000,-3.013638
0.547100,-3.183720
0.547200,-3.488505
0.547300,-3.592697
0.547400,-3.423913
0.547500,-3.226890
0.547600,-3.067844
0.547700,-3.091214
0.547800,-3.319397
0.547900,-3.524859
0.548000,-3.584258
0.548100,-3.478119
0.548200,-3.261945
0.548300,-3.163596
0.548400,-3.200599
0.548500,-3.302518
0.548600,-3.328485
0.548700,-3.278824
0.548800,-3.193782
0.548900,-3.080178
0.549000,-2.983452
0.549100,-2.843881
0.549200,-2.668930
0.549300,-2.571555
0.549400,-2.526113
0.549500,-2.493006
0.549600,-2.466390
0.549700,-2.244375
0.549800,-2.079162
0.549900,-1.968479
0.550000,-1.734130
0.550100,-1.710760
0.550200,-1.657204
0.550300,-1.552040
0.550400,-1.385204
0.550500,-1.230054
0.550600,-1.133653
0.550700,-1.042445
0.550800,-1.058350
0.550900,-1.060947
0.551000,-1.035629
0.551100,-1.042121
0.551200,-0.935658
0.551300,-0.903849
0.551400,-0.834064
0.551500,-0.844126
0.551600,-0.872040
0.551700,-0.861653
0.551800,-0.960326
0.551900,-0.801930
0.552000,-0.688002
0.552100,-0.208919
0.552200,-0.165425
0.552300,-0.226122
0.552400,-0.766551
0.552500,-0.751944
0.552600,-0.642885
0.552700,-0.243974
0.552800,-0.140757
0.552900,-0.058962
0.553000,-0.311162
0.553100,-0.419248
0.553200,-0.378351
0.553300,-0.189120
0.553400,0.013744
0.553500,0.063730
0.553600,0.051071
0.553700,-0.043382
0.553800,-0.081358
0.553900,-0.160556
0.554000,-0.068375
0.554100,-0.087850
0.554200,-0.113492
0.554300,-0.174189
0.554400,-0.058962
0.554500,-0.292012
0.554600,-0.448785
0.554700,-0.497797
0.554800,-0.498446
0.554900,-0.391009
0.555000,-0.466637
0.555100,-0.443916
0.555200,-0.803878
0.555300,-1.038875
0.555400,-1.023944
0.555500,-0.855162
0.555600,-0.671124
0.555700,-0.737338
0.555800,-0.957405
0.555900,-1.170006
0.556000,-1.250503
0.556100,-1.215123
0.556200,-1.101195
0.556300,-1.030760
0.556400,-1.063543
0.556500,-1.156698
0.556600,-1.208307
0.556700,-1.303409
0.556800,-1.337491
0.556900,-1.334245
0.557000,-1.354693
0.557100,-1.419610
0.557200,-1.520231
0.557300,-1.525424
0.557400,-1.498808
0.557500,-1.540679
0.557600,-1.570216
0.557700,-1.560154
0.557800,-1.570216
0.557900,-1.571839
0.558000,-1.703295
0.558100,-1.838321
0.558200,-1.854875
0.558300,-1.874675
0.558400,-1.862665
0.558500,-1.788660
0.558600,-1.800994
0.558700,-1.764641
0.558800,-1.776326
0.558900,-1.765290
0.559000,-1.763667
0.559100,-1.739324
0.559200,-1.739324
0.559300,-1.736403
0.559400,-1.727314
0.559500,-1.731534
0.559600,-1.739324
0.559700,-1.748412
0.559800,-1.738999
0.559900,-1.736727
0.560000,-1.760422
0.560100,-1.778274
0.560200,-1.812679
0.560300,-1.939591
0.560400,-2.242752
0.560500,-2.510533
0.560600,-2.428414
0.560700,-2.174589
0.560800,-2.004508
0.560900,-2.072670
0.561000,-2.407640
0.561100,-2.689379
0.561200,-2.742611
0.561300,-2.615049
0.561400,-2.449511
0.561500,-2.446266
0.561600,-2.600118
0.561700,-2.863680
0.561800,-2.982478
0.561900,-3.009094
0.562000,-2.954564
0.562100,-2.941580
0.562200,-3.002278
0.562300,-3.112636
0.562400,-3.106145
0.562500,-3.092837
0.562600,-3.092512
0.562700,-3.221048
0.562800,-3.325239
0.562900,-3.276876
0.563000,-3.236952
0.563100,-3.263568
0.563200,-3.353154
0.563300,-3.418395
0.563400,-3.390156
0.563500,-3.259673
0.563600,-3.062650
0.563700,-3.123997
0.563800,-3.337249
0.563900,-3.641385
0.564000,-3.652096
0.564100,-3.427483
0.564200,-3.247988
0.564300,-3.292781
0.564400,-3.410605
0.564500,-3.589451
0.564600,-3.680984
0.564700,-3.699486
0.564800,-3.638139
0.564900,-3.541088
0.565000,-3.493699
0.565100,-3.499217
0.565200,-3.536544
0.565300,-3.553098
0.565400,-3.567704
0.565500,-3.515771
0.565600,-3.433326
0.565700,-3.328485
0.565800,-3.184694
0.565900,-3.041552
0.566000,-2.989619
0.566100,-2.958783
0.566200,-2.948397
0.566300,-2.881208
0.566400,-2.711126
0.566500,-2.609856
0.566600,-2.308318
0.566700,-2.316108
0.566800,-2.286246
0.566900,-2.234962
0.567000,-2.090522
0.567100,-1.973673
0.567200,-1.825663
0.567300,-1.712059
0.567400,-1.691286
0.567500,-1.636431
0.567600,-1.638379
0.567700,-1.564049
0.567800,-1.554961
0.567900,-1.476736
0.568000,-1.406951
0.568100,-1.413443
0.568200,-1.320612
0.568300,-1.417662
0.568400,-1.363133
0.568500,-1.379362
0.568600,-1.291075
0.568700,-0.941825
0.568800,-0.773042
0.568900,-0.596145
0.569000,-1.106713
0.569100,-1.246932
0.569200,-1.269004
0.569300,-0.984345
0.569400,-0.793816
0.569500,-0.700336
0.569600,-0.800632
0.569700,-0.998302
0.569800,-1.100870
0.569900,-0.939553
0.570000,-0.794140
0.570100,-0.637042
0.570200,-0.635095
0.570300,-0.609778
0.570400,-0.687353
0.570500,-0.693844
0.570600,-0.606856
0.570700,-0.571477
0.570800,-0.612050
0.570900,-0.611076
0.571000,-0.612050
0.571100,-0.483191
0.571200,-0.739286
0.571300,-0.761033
0.571400,-0.821405
0.571500,-0.790245
0.571600,-0.658140
0.571700,-0.698713
0.571800,-0.728575
0.571900,-1.056727
0.572000,-1.233949
0.572100,-1.167734
0.572200,-0.876259
0.572300,-0.748699
0.572400,-0.854512
0.572500,-1.131056
0.572600,-1.244660
0.572700,-1.224536
0.572800,-1.112555
0.572900,-0.992135
0.573000,-0.998627
0.573100,-1.031734
0.573200,-1.111581
0.573300,-1.135600
0.573400,-1.195973
0.573500,-1.141118
0.573600,-1.149233
0.573700,-1.145013
0.573800,-1.166760
0.573900,-1.155725
0.574000,-1.139495
0.574100,-1.147610
0.574200,-1.177147
0.574300,-1.167734
0.574400,-1.121968
0.574500,-1.121968
0.574600,-1.102818
0.574700,-1.238493
0.574800,-1.325481
0.574900,-1.363457
0.575000,-1.413767
0.575100,-1.405004
0.575200,-1.373519
0.575300,-1.396889
0.575400,-1.403381
0.575500,-1.442331
0.575600,-1.436164
0.575700,-1.452068
0.575800,-1.475114
0.575900,-1.491992
0.576000,-1.533863
0.576100,-1.540030
0.576200,-1.571190
0.576300,-1.588393
0.576400,-1.620851
0.576500,-1.688364
0.576600,-1.683171
0.576700,-1.802942
0.576800,-1.817548
0.576900,-1.937644
0.577000,-2.109997
0.577100,-2.519622
0.577200,-2.702038
0.577300,-2.509884
0.577400,-2.298580
0.577500,-2.142131
0.577600,-2.357979
0.577700,-2.677694
0.577800,-2.995461
0.577900,-2.961705
0.578000,-2.818239
0.578100,-2.668930
0.578200,-2.730276
0.578300,-2.955862
0.578400,-3.151911
0.578500,-3.270709
0.578600,-3.178852
0.578700,-3.105820
0.578800,-3.109066
0.578900,-3.154183
0.579000,-3.221372
0.579100,-3.203195
0.579200,-3.162622
0.579300,-3.191835
0.579400,-3.305440
0.579500,-3.358022
0.579600,-3.310958
0.579700,-3.228188
0.579800,-3.281745
0.579900,-3.346662
0.580000,-3.365812
0.580100,-3.325888
0.580200,-3.072388
0.580300,-2.991566
0.580400,-3.073037
0.580500,-3.316475
0.580600,-3.512200
0.580700,-3.443713
0.580800,-3.183396
0.580900,-3.076932
0.581000,-3.131138
0.581100,-3.258050
0.581200,-3.400543
0.581300,-3.484286
0.581400,-3.481689
0.581500,-3.396648
0.581600,-3.270709
0.581700,-3.224618
0.581800,-3.220398
0.581900,-3.275253
0.582000,-3.306089
0.582100,-3.280122
0.582200,-3.197353
0.582300,-3.088617
0.582400,-2.996111
0.582500,-2.872769
0.582600,-2.776367
0.582700,-2.731899
0.582800,-2.682238
0.582900,-2.649455
0.583000,-2.546237
0.583100,-2.357654
0.583200,-2.211916
0.583300,-1.972699
0.583400,-1.971400
0.583500,-1.928231
0.583600,-1.857796
0.583700,-1.694856
0.583800,-1.562751
0.583900,-1.419285
0.584000,-1.398188
0.584100,-1.365405
0.584200,-1.363133
0.584300,-1.358588
0.584400,-1.343333
0.584500,-1.324507
0.584600,-1.273548
0.584700,-1.229729
0.584800,-1.254722
0.584900,-1.245958
0.585000,-1.292049
0.585100,-1.309252
0.585200,-1.225834
0.585300,-1.096001
0.585400,-0.778560
0.585500,-0.569205
0.585600,-0.658140
0.585700,-1.154426
0.585800,-1.245634
0.585900,-1.082694
0.586000,-0.778560
0.586100,-0.559143
0.586200,-0.548432
0.586300,-0.778885
0.586400,-0.979801
0.586500,-0.905147
0.586600,-0.768174
0.586700,-0.500069
0.586800,-0.445539
0.586900,-0.443267
0.587000,-0.541291
0.587100,-0.527983
0.587200,-0.528632
0.587300,-0.452680
0.587400,-0.415028
0.587500,-0.473778
0.587600,-0.476699
0.587700,-0.381921
0.587800,-0.376079
0.587900,-0.549081
0.588000,-0.676966
0.588100,-0.612050
0.588200,-0.626656
0.588300,-0.451382
0.588400,-0.563687
0.588500,-0.604584
0.588600,-1.026541
0.588700,-1.033032
0.588800,-0.918130
0.588900,-0.547458
0.589000,-0.646131
0.589100,-0.711696
0.589200,-1.029137
0.589300,-1.065491
0.589400,-1.016479
0.589500,-0.872040
0.589600,-0.813615
0.589700,-0.879181
0.589800,-0.958703
0.589900,-1.050884
0.590000,-1.069386
0.590100,-1.071658
0.590200,-1.010961
0.590300,-1.050235
0.590400,-1.103142
0.590500,-1.161567
0.590600,-1.118722
0.590700,-1.146961
0.590800,-1.184612
0.590900,-1.198894
0.591000,-1.220966
0.591100,-1.174226
0.591200,-1.155400
0.591300,-1.189481
0.591400,-1.377414
0.591500,-1.420584
0.591600,-1.408899
0.591700,-1.404355
0.591800,-1.285557
0.591900,-1.312173
0.592000,-1.290102
0.592100,-1.276469
0.592200,-1.265433
0.592300,-1.276794
0.592400,-1.275495
0.592500,-1.284259
0.592600,-1.281338
0.592700,-1.280364
0.592800,-1.273548
0.592900,-1.268030
0.593000,-1.317042
0.593100,-1.303734
0.593200,-1.333596
0.593300,-1.354693
0.593400,-1.387152
0.593500,-1.479009
0.593600,-1.519257
0.593700,-1.823715
0.593800,-2.155764
0.593900,-2.163554
0.594000,-1.975945
0.594100,-1.644870
0.594200,-1.689013
0.594300,-2.003210
0.594400,-2.352136
0.594500,-2.578371
0.594600,-2.468013
0.594700,-2.289167
0.594800,-2.170370
0.594900,-2.342074
0.595000,-2.536824
0.595100,-2.777990
0.595200,-2.760463
0.595300,-2.694897
0.595400,-2.608557
0.595500,-2.700739
0.595600,-2.789675
0.595700,-2.874716
0.595800,-2.812721
0.595900,-2.764358
0.596000,-2.763384
0.596100,-2.884778
0.596200,-2.929895
0.596300,-2.859461
0.596400,-2.828950
0.596500,-2.931194
0.596600,-2.925351
0.596700,-2.970144
0.596800,-2.788377
0.596900,-2.591030
0.597000,-2.534552
0.597100,-2.729627
0.597200,-3.070765
0.597300,-3.160350
0.597400,-2.977285
0.597500,-2.760138
0.597600,-2.671527
0.597700,-2.734496
0.597800,-2.925351
0.597900,-3.090565
0.598000,-3.149964
0.598100,-3.083099
0.598200,-2.948072
0.598300,-2.852644
0.598400,-2.866602
0.598500,-2.980531
0.598600,-2.996111
0.598700,-3.000979
0.598800,-2.936712
0.598900,-2.827651
0.599000,-2.769226
0.599100,-2.656920
0.599200,-2.547536
0.599300,-2.445616
0.599400,-2.407316
0.599500,-2.362848
0.599600,-2.346943
0.599700,-2.130122
0.599800,-2.018790
0.599900,-1.721472
0.600000,-1.663371
0.600100,-1.657854
0.600200,-1.615658
0.600300,-1.490694
0.600400,-1.359887
0.600500,-1.211228
0.600600,-1.071333
0.600700,-1.069710
0.600800,-1.029787
0.600900,-1.041472
0.601000,-1.015830
0.601100,-1.048937
0.601200,-0.929166
0.601300,-0.918455
0.601400,-0.829844
0.601500,-0.892164
0.601600,-0.844126
0.601700,-0.940851
0.601800,-0.909042
0.601900,-0.829844
0.602000,-0.652947
0.602100,-0.229692
0.602200,-0.172890
0.602300,-0.300127
0.602400,-0.646780
0.602500,-0.724680
0.602600,-0.510780
0.602700,-0.168022
0.602800,0.055290
0.602900,0.006603
0.603000,-0.173540
0.603100,-0.307592
0.603200,-0.244948
0.603300,-0.070647
0.603400,0.147796
0.603500,0.174087
0.603600,0.217257
0.603700,0.181228
0.603800,0.154937
0.603900,0.189343
0.604000,0.288989
0.604100,0.337676
0.604200,0.275357
0.604300,0.307815
0.604400,0.376302
0.604500,0.233161
0.604600,0.109496
0.604700,0.125725
0.604800,0.157858
0.604900,0.300999
0.605000,0.293209
0.605100,0.277953
0.605200,0.110794
0.605300,-0.150494
0.605400,-0.016767
0.605500,0.113066
0.605600,0.398373
0.605700,0.306841
0.605800,0.117286
0.605900,-0.089148
0.606000,-0.148547
0.606100,-0.084929
0.606200,0.050097
0.606300,0.130269
0.606400,0.123453
0.606500,-0.040461
0.606600,-0.146599
0.606700,-0.247544
0.606800,-0.240403
0.606900,-0.226771
0.607000,-0.249816
0.607100,-0.325119
0.607200,-0.406589
0.607300,-0.425740
0.607400,-0.504613
0.607500,-0.593873
0.607600,-0.636069
0.607700,-0.641587
0.607800,-0.661061
0.607900,-0.692221
0.608000,-0.878531
0.608100,-1.063543
0.608200,-1.140794
0.608300,-1.199868
0.608400,-1.259591
0.608500,-1.238493
0.608600,-1.323209
0.608700,-1.355343
0.608800,-1.390073
0.608900,-1.416364
0.609000,-1.452717
0.609100,-1.491992
0.609200,-1.516660
0.609300,-1.555935
0.609400,-1.551715
0.609500,-1.568269
0.609600,-1.595858
0.609700,-1.625071
0.609800,-1.637080
0.609900,-1.601376
0.610000,-1.673109
0.610100,-1.693233
0.610200,-1.768536
0.610300,-1.903563
0.610400,-2.233339
0.610500,-2.497225
0.610600,-2.377779
0.610700,-2.089873
0.610800,-1.856174
0.610900,-1.959391
0.611000,-2.304423
0.611100,-2.650104
0.611200,-2.698792
0.611300,-2.570257
0.611400,-2.382647
0.611500,-2.397254
0.611600,-2.618944
0.611700,-2.866926
0.611800,-2.980531
0.611900,-3.007796
0.612000,-2.967223
0.612100,-2.929895
0.612200,-2.988970
0.612300,-3.058755
0.612400,-3.105171
0.612500,-3.079529
0.612600,-3.075958
0.612700,-3.136006
0.612800,-3.271358
0.612900,-3.212608
0.613000,-3.145744
0.613100,-3.094784
0.613200,-3.242146
0.613300,-3.271358
0.613400,-3.260647
0.613500,-2.990917
0.613600,-2.807852
0.613700,-2.865303
0.613800,-3.063300
0.613900,-3.367760
0.614000,-3.379445
0.614100,-3.154183
0.614200,-2.973390
0.614300,-2.878936
0.614400,-3.007146
0.614500,-3.216503
0.614600,-3.347636
0.614700,-3.391455
0.614800,-3.263244
0.614900,-3.089266
0.615000,-3.079204
0.615100,-3.134384
0.615200,-3.189887
0.615300,-3.209363
0.615400,-3.154832
0.615500,-3.085371
0.615600,-3.023051
0.615700,-2.950993
0.615800,-2.783833
0.615900,-2.660491
0.616000,-2.607259
0.616100,-2.596548
0.616200,-2.597197
0.616300,-2.521894
0.616400,-2.280404
0.616500,-2.196012
0.616600,-1.900317
0.616700,-1.930503
0.616800,-1.905835
0.616900,-1.827610
0.617000,-1.688040
0.617100,-1.578655
0.617200,-1.412469
0.617300,-1.360211
0.617400,-1.247581
0.617500,-1.292374
0.617600,-1.235572
0.617700,-1.226483
0.617800,-1.204736
0.617900,-1.090484
0.618000,-1.055429
0.618100,-0.984670
0.618200,-0.970388
0.618300,-0.957405
0.618400,-0.985319
0.618500,-1.008364
0.618600,-0.872689
0.618700,-0.572775
0.618800,-0.171268
0.618900,-0.135564
0.619000,-0.403344
0.619100,-0.848994
0.619200,-0.744804
0.619300,-0.435477
0.619400,-0.094666
0.619500,0.014069
0.619600,-0.133292
0.619700,-0.312461
0.619800,-0.404966
0.619900,-0.288442
0.620000,-0.102132
0.620100,0.038088
0.620200,0.036465
0.620300,0.031271
0.620400,0.017964
0.620500,-0.019688
0.620600,-0.001511
0.620700,0.022832
0.620800,0.050422
0.620900,0.032894
0.621000,0.020560
0.621100,0.038412
0.621200,-0.152442
0.621300,-0.243649
0.621400,-0.340699
0.621500,-0.312136
0.621600,-0.204375
0.621700,-0.204375
0.621800,-0.267993
0.621900,-0.615295
0.622000,-0.815563
0.622100,-0.747725
0.622200,-0.522140
0.622300,-0.350437
0.622400,-0.481568
0.622500,-0.683458
0.622600,-1.010312
0.622700,-1.012908
0.622800,-0.851916
0.622900,-0.674694
0.623000,-0.664307
0.623100,-0.825300
0.623200,-1.016479
0.623300,-1.037901
0.623400,-1.058025
0.623500,-1.009663
0.623600,-1.109958
0.623700,-1.187209
0.623800,-1.261214
0.623900,-1.271276
0.624000,-1.265109
0.624100,-1.296269
0.624200,-1.369300
0.624300,-1.373519
0.624400,-1.323858
0.624500,-1.290102
0.624600,-1.269328
0.624700,-1.411820
0.624800,-1.518932
0.624900,-1.524125
0.625000,-1.449147
0.625100,-1.344956
0.625200,-1.397863
0.625300,-1.419935
0.625400,-1.423180
0.625500,-1.409223
0.625600,-1.429672
0.625700,-1.430970
0.625800,-1.430970
0.625900,-1.416364
0.626000,-1.440383
0.626100,-1.448822
0.626200,-1.513414
0.626300,-1.519906
0.626400,-1.531266
0.626500,-1.536460
0.626600,-1.570865
0.626700,-1.595209
0.626800,-1.648116
0.626900,-1.706541
0.627000,-1.903238
0.627100,-2.256060
0.627200,-2.455029
0.627300,-2.211267
0.627400,-1.938293
0.627500,-1.807811
0.627600,-2.052222
0.627700,-2.440423
0.627800,-2.700739
0.627900,-2.664710
0.628000,-2.496901
0.628100,-2.309941
0.628200,-2.336881
0.628300,-2.558896
0.628400,-2.764033
0.628500,-2.815317
0.628600,-2.737093
0.628700,-2.642963
0.628800,-2.651402
0.628900,-2.666982
0.629000,-2.700739
0.629100,-2.758515
0.629200,-2.742286
0.629300,-2.744558
0.629400,-2.745856
0.629500,-2.841933
0.629600,-2.769551
0.629700,-2.751374
0.629800,-2.740988
0.629900,-2.813694
0.630000,-2.864005
0.630100,-2.829599
0.630200,-2.554027
0.630300,-2.399850
0.630400,-2.524490
0.630500,-2.814344
0.630600,-2.987347
0.630700,-2.923728
0.630800,-2.724109
0.630900,-2.498199
0.631000,-2.471908
0.631100,-2.685159
0.631200,-2.934115
0.631300,-3.056483
0.631400,-2.917561
0.631500,-2.761112
0.631600,-2.683536
0.631700,-2.684835
0.631800,-2.736119
0.631900,-2.739365
0.632000,-2.721188
0.632100,-2.709503
0.632200,-2.642963
0.632300,-2.552080
0.632400,-2.385569
0.632500,-2.249244
0.632600,-2.166150
0.632700,-2.150895
0.632800,-2.130122
0.632900,-2.135639
0.633000,-2.033720
0.633100,-1.865262
0.633200,-1.843515
0.633300,-1.579629
0.633400,-1.640975
0.633500,-1.615009
0.633600,-1.560479
0.633700,-1.461157
0.633800,-1.321911
0.633900,-1.218693
0.634000,-1.190779
0.634100,-1.175849
0.634200,-1.189157
0.634300,-1.236870
0.634400,-1.232651
0.634500,-1.239142
0.634600,-1.190455
0.634700,-1.181691
0.634800,-1.200517
0.634900,-1.194025
0.635000,-1.325156
0.635100,-1.317367
0.635200,-1.409548
0.635300,-1.221615
0.635400,-0.916183
0.635500,-0.726952
0.635600,-0.711047
0.635700,-1.270627
0.635800,-1.331648
0.635900,-1.344631
0.636000,-0.868469
