0.000100,-2.023009
0.000200,-2.021062
0.000300,-1.913949
0.000400,-1.767238
0.000500,-1.767562
0.000600,-1.862990
0.000700,-1.969778
0.000800,-2.014245
0.000900,-1.889606
0.001000,-1.706865
0.001100,-1.635133
0.001200,-1.737376
0.001300,-1.882465
0.001400,-1.967181
0.001500,-1.927582
0.001600,-1.828259
0.001700,-1.757825
0.001800,-1.743219
0.001900,-1.779897
0.002000,-1.787362
0.002100,-1.770808
0.002200,-1.740298
0.002300,-1.706541
0.002400,-1.630913
0.002500,-1.560803
0.002600,-1.494264
0.002700,-1.448498
0.002800,-1.408899
0.002900,-1.398512
0.003000,-1.413443
0.003100,-1.386178
0.003200,-1.260889
0.003300,-1.220641
0.003400,-1.218369
0.003500,-1.224536
0.003600,-1.146961
0.003700,-1.109634
0.003800,-1.074904
0.003900,-1.024918
0.004000,-0.927219
0.004100,-0.939877
0.004200,-0.922025
0.004300,-0.994083
0.004400,-0.972011
0.004500,-1.021672
0.004600,-1.001548
0.004700,-1.023620
0.004800,-1.012584
0.004900,-1.022970
0.005000,-1.017453
0.005100,-1.019075
0.005200,-1.070035
0.005300,-1.051209
0.005400,-1.023620
0.005500,-0.917157
0.005600,-0.718188
0.005700,-0.666579
0.005800,-0.814589
0.005900,-1.084316
0.006000,-0.992784
0.006100,-0.942799
0.006200,-0.761033
0.006300,-0.668527
0.006400,-0.722407
0.006500,-0.858732
0.006600,-0.932087
0.006700,-0.858732
0.006800,-0.751620
0.006900,-0.680212
0.007000,-0.701959
0.007100,-0.743505
0.007200,-0.789921
0.007300,-0.796737
0.007400,-0.800956
0.007500,-0.782455
0.007600,-0.807123
0.007700,-0.832116
0.007800,-0.819782
0.007900,-0.869443
0.008000,-0.955133
0.008100,-1.000574
0.008200,-0.977529
0.008300,-1.016154
0.008400,-0.998951
0.008500,-1.005443
0.008600,-1.003496
0.008700,-1.185586
0.008800,-1.310875
0.008900,-1.321911
0.009000,-1.184288
0.009100,-1.041796
0.009200,-1.087562
0.009300,-1.248230
0.009400,-1.422207
0.009500,-1.386503
0.009600,-1.208631
0.009700,-1.079772
0.009800,-1.106713
0.009900,-1.214149
0.010000,-1.265433
0.010100,-1.230378
0.010200,-1.212202
0.010300,-1.146636
0.010400,-1.167409
0.010500,-1.135925
0.010600,-1.125863
0.010700,-1.102493
0.010800,-1.090484
0.010900,-1.115476
0.011000,-1.131381
0.011100,-1.132355
0.011200,-1.105090
0.011300,-1.072631
0.011400,-1.065491
0.011500,-1.142417
0.011600,-1.207333
0.011700,-1.211553
0.011800,-1.180717
0.011900,-1.192078
0.012000,-1.234923
0.012100,-1.222588
0.012200,-1.139495
0.012300,-1.141443
0.012400,-1.129433
0.012500,-1.045691
0.012600,-1.088536
0.012700,-1.052832
0.012800,-0.862951
0.012900,-0.856460
0.013000,-0.786999
0.013100,-0.692871
0.013200,-0.581214
0.013300,-0.662035
0.013400,-0.506561
0.013500,-0.646131
0.013600,-0.546160
0.013700,-0.511105
0.013800,-1.056402
0.013900,-1.223562
0.014000,-1.380985
0.014100,-1.289452
0.014200,-1.159944
0.014300,-1.061596
0.014400,-1.133004
0.014500,-1.353720
0.014600,-1.540030
0.014700,-1.519906
0.014800,-1.404679
0.014900,-1.310550
0.015000,-1.314121
0.015100,-1.463429
0.015200,-1.565023
0.015300,-1.616956
0.015400,-1.546522
0.015500,-1.542302
0.015600,-1.484526
0.015700,-1.497185
0.015800,-1.505624
0.015900,-1.513090
0.016000,-1.516011
0.016100,-1.497834
0.016200,-1.505949
0.016300,-1.554636
0.016400,-1.568593
0.016500,-1.573462
0.016600,-1.584822
0.016700,-1.602350
0.016800,-1.631562
0.016900,-1.628966
0.017000,-1.546197
0.017100,-1.464727
0.017200,-1.491667
0.017300,-1.684145
0.017400,-1.821443
0.017500,-1.835400
0.017600,-1.677328
0.017700,-1.529319
0.017800,-1.533538
0.017900,-1.680250
0.018000,-1.851305
0.018100,-1.898369
0.018200,-1.793529
0.018300,-1.668565
0.018400,-1.652336
0.018500,-1.689013
0.018600,-1.708164
0.018700,-1.707190
0.018800,-1.669214
0.018900,-1.633510
0.019000,-1.547495
0.019100,-1.477061
0.019200,-1.425452
0.019300,-1.377414
0.019400,-1.350474
0.019500,-1.334245
0.019600,-1.335543
0.019700,-1.347228
0.019800,-1.298216
0.019900,-1.231352
0.020000,-1.218693
0.020100,-1.259591
0.020200,-1.243686
0.020300,-1.182016
0.020400,-1.184612
0.020500,-1.164164
0.020600,-1.113529
0.020700,-1.052832
0.020800,-1.048288
0.020900,-1.100546
0.021000,-1.126188
0.021100,-1.120020
0.021200,-1.126512
0.021300,-1.150207
0.021400,-1.143390
0.021500,-1.144689
0.021600,-1.149233
0.021700,-1.138197
0.021800,-1.145987
0.021900,-1.184288
0.022000,-1.145987
0.022100,-1.060297
0.022200,-0.940202
0.022300,-0.755515
0.022400,-0.793816
0.022500,-1.049262
0.022600,-1.121968
0.022700,-1.080421
0.022800,-0.893138
0.022900,-0.753567
0.023000,-0.690274
0.023100,-0.815238
0.023200,-0.909042
0.023300,-0.943772
0.023400,-0.879505
0.023500,-0.765901
0.023600,-0.729873
0.023700,-0.760708
0.023800,-0.819133
0.023900,-0.864899
0.024000,-0.861653
0.024100,-0.859706
0.024200,-0.843152
0.024300,-0.850293
0.024400,-0.834064
0.024500,-0.842178
0.024600,-0.930140
0.024700,-0.922999
0.024800,-0.943448
0.024900,-0.951238
0.025000,-0.904498
0.025100,-0.872040
0.025200,-0.803228
0.025300,-0.847372
0.025400,-1.052507
0.025500,-1.099896
0.025600,-1.003820
0.025700,-0.825300
0.025800,-0.670474
0.025900,-0.806474
0.026000,-0.970713
0.026100,-1.070035
0.026200,-0.969414
0.026300,-0.805825
0.026400,-0.700660
0.026500,-0.749348
0.026600,-0.829195
0.026700,-0.871715
0.026800,-0.860355
0.026900,-0.840555
0.027000,-0.779858
0.027100,-0.684756
0.027200,-0.420546
0.027300,-0.328365
0.027400,-0.302723
0.027500,-0.172241
0.027600,-0.336480
0.027700,-0.448460
0.027800,-0.396527
0.027900,-0.270590
0.028000,-0.170618
0.028100,-0.381272
0.028200,-0.974283
0.028300,-1.061271
0.028400,-1.102493
0.028500,-1.049262
0.028600,-1.100221
0.028700,-1.141118
0.028800,-1.074579
0.028900,-1.096001
0.029000,-0.952536
0.029100,-1.016154
0.029200,-1.018426
0.029300,-0.955457
0.029400,-1.104441
0.029500,-1.046990
0.029600,-1.218369
0.029700,-1.200841
0.029800,-1.058674
0.029900,-1.146636
0.030000,-1.142417
0.030100,-1.164164
0.030200,-1.172927
0.030300,-1.184288
0.030400,-1.232001
0.030500,-1.321261
0.030600,-1.558531
0.030700,-1.564698
0.030800,-1.475763
0.030900,-1.288154
0.031000,-1.255696
0.031100,-1.462130
0.031200,-1.658827
0.031300,-1.754904
0.031400,-1.721796
0.031500,-1.542951
0.031600,-1.488746
0.031700,-1.507572
0.031800,-1.650064
0.031900,-1.728288
0.032000,-1.727963
0.032100,-1.662722
0.032200,-1.598779
0.032300,-1.581901
0.032400,-1.604622
0.032500,-1.584822
0.032600,-1.600727
0.032700,-1.584498
0.032800,-1.621825
0.032900,-1.630264
0.033000,-1.645519
0.033100,-1.697453
0.033200,-1.674732
0.033300,-1.674732
0.033400,-1.728288
0.033500,-1.762045
0.033600,-1.705892
0.033700,-1.555610
0.033800,-1.535486
0.033900,-1.601701
0.034000,-1.737376
0.034100,-1.843515
0.034200,-1.783792
0.034300,-1.602674
0.034400,-1.487448
0.034500,-1.560479
0.034600,-1.730560
0.034700,-1.861367
0.034800,-1.846436
0.034900,-1.776002
0.035000,-1.658827
0.035100,-1.631562
0.035200,-1.661749
0.035300,-1.692584
0.035400,-1.687391
0.035500,-1.653309
0.035600,-1.606569
0.035700,-1.514713
0.035800,-1.425128
0.035900,-1.366054
0.036000,-1.288479
0.036100,-1.237519
0.036200,-1.219343
0.036300,-1.207009
0.036400,-1.213825
0.036500,-1.096975
0.036600,-1.019725
0.036700,-0.974608
0.036800,-0.968116
0.036900,-0.892488
0.037000,-0.842503
0.037100,-0.824326
0.037200,-0.762656
0.037300,-0.675019
0.037400,-0.639964
0.037500,-0.609778
0.037600,-0.637042
0.037700,-0.622761
0.037800,-0.623410
0.037900,-0.638990
0.038000,-0.632498
0.038100,-0.621463
0.038200,-0.598742
0.038300,-0.602961
0.038400,-0.622112
0.038500,-0.703906
0.038600,-0.669501
0.038700,-0.722083
0.038800,-0.571801
0.038900,-0.502990
0.039000,-0.269940
0.039100,-0.464040
0.039200,-0.694818
0.039300,-0.746427
0.039400,-0.687028
0.039500,-0.555248
0.039600,-0.442618
0.039700,-0.459172
0.039800,-0.596470
0.039900,-0.731496
0.040000,-0.702283
0.040100,-0.626007
0.040200,-0.531229
0.040300,-0.517596
0.040400,-0.562064
0.040500,-0.630875
0.040600,-0.685081
0.040700,-0.666579
0.040800,-0.682808
0.040900,-0.729873
0.041000,-0.758111
0.041100,-0.785052
0.041200,-0.803553
0.041300,-0.854837
0.041400,-0.927543
0.041500,-0.978503
0.041600,-1.026216
0.041700,-1.032708
0.041800,-0.982722
0.041900,-0.994083
0.042000,-1.066789
0.042100,-1.281987
0.042200,-1.275495
0.042300,-1.178770
0.042400,-1.029462
0.042500,-0.952212
0.042600,-1.096651
0.042700,-1.258617
0.042800,-1.268030
0.042900,-1.170655
0.043000,-1.024918
0.043100,-0.974283
0.043200,-1.046340
0.043300,-1.120020
0.043400,-1.169357
0.043500,-1.196622
0.043600,-1.147285
0.043700,-1.133978
0.043800,-1.155075
0.043900,-1.167409
0.044000,-1.160593
0.044100,-1.159620
0.044200,-1.147610
0.044300,-1.181042
0.044400,-1.206035
0.044500,-1.192402
0.044600,-1.190455
0.044700,-1.165137
0.044800,-1.227782
0.044900,-1.337491
0.045000,-1.337815
0.045100,-1.343658
0.045200,-1.324832
0.045300,-1.387801
0.045400,-1.378713
0.045500,-1.306006
0.045600,-1.323209
0.045700,-1.303085
0.045800,-1.291400
0.045900,-1.306331
0.046000,-1.316393
0.046100,-1.322235
0.046200,-1.312822
0.046300,-1.330350
0.046400,-1.358264
0.046500,-1.350798
0.046600,-1.346254
0.046700,-1.330674
0.046800,-1.320288
0.046900,-1.333596
0.047000,-1.336192
0.047100,-1.363782
0.047200,-1.504326
0.047300,-1.665968
0.047400,-1.623772
0.047500,-1.473815
0.047600,-1.330025
0.047700,-1.333920
0.047800,-1.587419
0.047900,-1.780870
0.048000,-1.833128
0.048100,-1.739648
0.048200,-1.605596
0.048300,-1.584173
0.048400,-1.690312
0.048500,-1.860393
0.048600,-1.892527
0.048700,-1.896422
0.048800,-1.799696
0.048900,-1.790932
0.049000,-1.760097
0.049100,-1.803916
0.049200,-1.806512
0.049300,-1.809109
0.049400,-1.796450
0.049500,-1.822742
0.049600,-1.842216
0.049700,-1.881816
0.049800,-1.843839
0.049900,-1.831830
0.050000,-1.835076
0.050100,-1.849357
0.050200,-1.831505
0.050300,-1.703944
0.050400,-1.569567
0.050500,-1.575410
0.050600,-1.672135
0.050700,-1.816899
0.050800,-1.850006
0.050900,-1.718875
0.051000,-1.542627
0.051100,-1.487772
0.051200,-1.564698
0.051300,-1.687391
0.051400,-1.777300
0.051500,-1.719524
0.051600,-1.603973
0.051700,-1.517634
0.051800,-1.489395
0.051900,-1.492641
0.052000,-1.484526
0.052100,-1.454989
0.052200,-1.428374
0.052300,-1.390073
0.052400,-1.322884
0.052500,-1.239142
0.052600,-1.184937
0.052700,-1.122942
0.052800,-1.109958
0.052900,-1.120994
0.053000,-1.133978
0.053100,-1.114827
0.053200,-0.986617
0.053300,-0.939228
0.053400,-0.946694
0.053500,-0.949615
0.053600,-0.860030
0.053700,-0.797061
0.053800,-0.770770
0.053900,-0.743181
0.054000,-0.666579
0.054100,-0.649052
0.054200,-0.672422
0.054300,-0.666579
0.054400,-0.707801
0.054500,-0.731496
0.054600,-0.796088
0.054700,-0.781806
0.054800,-0.780832
0.054900,-0.760708
0.055000,-0.785376
0.055100,-0.815887
0.055200,-0.842178
0.055300,-0.894436
0.055400,-0.852565
0.055500,-0.778885
0.055600,-0.615620
0.055700,-0.597443
0.055800,-0.711047
0.055900,-1.014207
0.056000,-0.980126
0.056100,-0.878531
0.056200,-0.657816
0.056300,-0.577644
0.056400,-0.646780
0.056500,-0.766551
0.056600,-0.788947
0.056700,-0.713968
0.056800,-0.575372
0.056900,-0.500069
0.057000,-0.489033
0.057100,-0.521491
0.057200,-0.554923
0.057300,-0.569205
0.057400,-0.567582
0.057500,-0.561090
0.057600,-0.561090
0.057700,-0.578293
0.057800,-0.572775
0.057900,-0.594198
0.058000,-0.657167
0.058100,-0.756813
0.058200,-0.772069
0.058300,-0.808422
0.058400,-0.754217
0.058500,-0.787324
0.058600,-0.812641
0.058700,-0.980775
0.058800,-1.116450
0.058900,-1.065491
0.059000,-0.905796
0.059100,-0.778560
0.059200,-0.831792
0.059300,-0.995056
0.059400,-1.165787
0.059500,-1.122942
0.059600,-0.985968
0.059700,-0.872689
0.059800,-0.858407
0.059900,-0.988565
0.060000,-1.035629
0.060100,-1.015505
0.060200,-1.021672
0.060300,-0.986293
0.060400,-1.030111
0.060500,-1.015830
0.060600,-1.003171
0.060700,-0.988565
0.060800,-0.962274
0.060900,-0.986617
0.061000,-1.033682
0.061100,-1.044717
0.061200,-1.036278
0.061300,-0.939228
0.061400,-0.871715
0.061500,-1.097624
0.061600,-1.173577
0.061700,-1.166111
0.061800,-1.143390
0.061900,-1.139495
0.062000,-1.191429
0.062100,-1.163515
0.062200,-1.108336
0.062300,-1.077500
0.062400,-1.038875
0.062500,-0.974932
0.062600,-0.911314
0.062700,-0.875610
0.062800,-0.702608
0.062900,-0.602961
0.063000,-0.364718
0.063100,-0.548107
0.063200,-0.387114
0.063300,-0.356604
0.063400,-0.213463
0.063500,-0.369587
0.063600,-0.457549
0.063700,-0.386790
0.063800,-1.025243
0.063900,-1.241414
0.064000,-1.367677
0.064100,-1.269977
0.064200,-1.099247
0.064300,-0.695143
0.064400,-1.110932
0.064500,-1.362483
0.064600,-1.560479
0.064700,-1.540355
0.064800,-1.406951
0.064900,-1.320288
0.065000,-1.356966
0.065100,-1.541328
0.065200,-1.641300
0.065300,-1.672135
0.065400,-1.605920
0.065500,-1.560803
0.065600,-1.574760
0.065700,-1.596183
0.065800,-1.614035
0.065900,-1.623123
0.066000,-1.631887
0.066100,-1.600727
0.066200,-1.615333
0.066300,-1.656880
0.066400,-1.703944
0.066500,-1.648116
0.066600,-1.679276
0.066700,-1.713682
0.066800,-1.757500
0.066900,-1.740622
0.067000,-1.604622
0.067100,-1.519257
0.067200,-1.578006
0.067300,-1.728937
0.067400,-1.886684
0.067500,-1.883114
0.067600,-1.751009
0.067700,-1.629615
0.067800,-1.633185
0.067900,-1.780870
0.068000,-1.959391
0.068100,-2.014570
0.068200,-1.914598
0.068300,-1.792880
0.068400,-1.759772
0.068500,-1.782493
0.068600,-1.832804
0.068700,-1.810407
0.068800,-1.757825
0.068900,-1.721796
0.069000,-1.647791
0.069100,-1.579629
0.069200,-1.521853
0.069300,-1.431944
0.069400,-1.356641
0.069500,-1.323209
0.069600,-1.309252
0.069700,-1.291075
0.069800,-1.222264
0.069900,-1.110283
0.070000,-1.083667
0.070100,-1.062894
0.070200,-1.041472
0.070300,-0.958054
0.070400,-0.909691
0.070500,-0.848994
0.070600,-0.787973
0.070700,-0.731171
0.070800,-0.708126
0.070900,-0.734092
0.071000,-0.730847
0.071100,-0.767200
0.071200,-0.774341
0.071300,-0.836660
0.071400,-0.813940
0.071500,-0.863276
0.071600,-0.845749
0.071700,-0.889892
0.071800,-0.911963
0.071900,-0.925920
0.072000,-0.993109
0.072100,-0.956756
0.072200,-0.816861
0.072300,-0.638016
0.072400,-0.738312
0.072500,-0.983047
0.072600,-1.170980
0.072700,-1.143066
0.072800,-1.067114
0.072900,-0.915534
0.073000,-0.894436
0.073100,-1.026216
0.073200,-1.168708
0.073300,-1.166760
0.073400,-1.083343
0.073500,-0.973634
0.073600,-0.936956
0.073700,-0.962598
0.073800,-1.026216
0.073900,-1.079123
0.074000,-1.063543
0.074100,-1.033682
0.074200,-0.997328
0.074300,-1.014531
0.074400,-1.021997
0.074500,-0.996679
0.074600,-1.027515
0.074700,-1.050884
0.074800,-1.031085
0.074900,-0.992784
0.075000,-0.950589
0.075100,-0.888593
0.075200,-0.812641
0.075300,-0.857758
0.075400,-1.029137
0.075500,-1.024918
0.075600,-0.949939
0.075700,-0.749023
0.075800,-0.639964
0.075900,-0.672097
0.076000,-0.862627
0.076100,-0.921052
0.076200,-0.844450
0.076300,-0.668527
0.076400,-0.163802
0.076500,-0.138809
0.076600,-0.831792
0.076700,-0.791219
0.076800,-0.799333
0.076900,-0.475725
0.077000,-0.350761
0.077100,-0.562389
0.077200,-0.400422
0.077300,-0.369587
0.077400,-0.262150
0.077500,-0.298828
0.077600,-0.479945
0.077700,-0.550054
0.077800,-0.602961
0.077900,-0.533825
0.078000,-0.531878
0.078100,-0.763629
0.078200,-1.128460
0.078300,-1.204087
0.078400,-1.235247
0.078500,-1.277767
0.078600,-1.363782
0.078700,-1.414092
0.078800,-1.382608
0.078900,-1.412145
0.079000,-1.402407
0.079100,-1.436813
0.079200,-1.444927
0.079300,-1.465701
0.079400,-1.483877
0.079500,-1.494264
0.079600,-1.512765
0.079700,-1.484851
0.079800,-1.503028
0.079900,-1.495887
0.080000,-1.534188
0.080100,-1.534512
0.080200,-1.529319
0.080300,-1.548794
0.080400,-1.538732
0.080500,-1.671161
0.080600,-1.849682
0.080700,-1.920116
0.080800,-1.769835
0.080900,-1.575410
0.081000,-1.582550
0.081100,-1.780870
0.081200,-1.945434
0.081300,-2.062933
0.081400,-1.956145
0.081500,-1.822417
0.081600,-1.755877
0.081700,-1.802942
0.081800,-1.924011
0.081900,-1.947706
0.082000,-1.952250
0.082100,-1.853252
0.082200,-1.813653
0.082300,-1.793204
0.082400,-1.798073
0.082500,-1.796775
0.082600,-1.773730
0.082700,-1.752632
0.082800,-1.748737
0.082900,-1.753605
0.083000,-1.773730
0.083100,-1.753930
0.083200,-1.743219
0.083300,-1.752956
0.083400,-1.769510
0.083500,-1.809109
0.083600,-1.746789
0.083700,-1.595209
0.083800,-1.597481
0.083900,-1.669214
0.084000,-1.811057
0.084100,-1.942188
0.084200,-1.871104
0.084300,-1.710111
0.084400,-1.620851
0.084500,-1.669538
0.084600,-1.816250
0.084700,-1.912326
0.084800,-1.862665
0.084900,-1.732183
0.085000,-1.622799
0.085100,-1.555285
0.085200,-1.551390
0.085300,-1.548145
0.085400,-1.512441
0.085500,-1.443954
0.085600,-1.391696
0.085700,-1.318989
0.085800,-1.241739
0.085900,-1.168059
0.086000,-1.092756
0.086100,-1.071982
0.086200,-1.068737
0.086300,-1.076526
0.086400,-1.088211
0.086500,-0.989538
0.086600,-0.941825
0.086700,-0.958379
0.086800,-0.971362
0.086900,-0.886971
0.087000,-0.859056
0.087100,-0.818484
0.087200,-0.776937
0.087300,-0.729873
0.087400,-0.723057
0.087500,-0.720785
0.087600,-0.769147
0.087700,-0.804851
0.087800,-0.802255
0.087900,-0.876909
0.088000,-0.852240
0.088100,-0.889567
0.088200,-0.840231
0.088300,-0.869119
0.088400,-0.849968
0.088500,-0.882102
0.088600,-0.944746
0.088700,-0.863925
0.088800,-0.852565
0.088900,-0.652622
0.089000,-0.502990
0.089100,-0.672422
0.089200,-0.885023
0.089300,-0.935658
0.089400,-0.846398
0.089500,-0.741558
0.089600,-0.621138
0.089700,-0.659439
0.089800,-0.747725
0.089900,-0.841854
0.090000,-0.776613
0.090100,-0.684756
0.090200,-0.587057
0.090300,-0.562064
0.090400,-0.600689
0.090500,-0.647754
0.090600,-0.665281
0.090700,-0.654245
0.090800,-0.638341
0.090900,-0.652947
0.091000,-0.670474
0.091100,-0.653596
0.091200,-0.602961
0.091300,-0.664956
0.091400,-0.748374
0.091500,-0.736689
0.091600,-0.750646
0.091700,-0.747400
0.091800,-0.691897
0.091900,-0.707152
0.092000,-0.813290
0.092100,-1.051534
0.092200,-1.011285
0.092300,-0.943123
0.092400,-0.759085
0.092500,-0.793816
0.092600,-0.920402
0.092700,-1.119047
0.092800,-1.087238
0.092900,-0.991811
0.093000,-0.834713
0.093100,-0.830818
0.093200,-0.918455
0.093300,-1.027190
0.093400,-1.024918
0.093500,-1.048612
0.093600,-1.012584
0.093700,-1.014856
0.093800,-1.038875
0.093900,-1.020374
0.094000,-0.982722
0.094100,-0.954159
0.094200,-0.937605
0.094300,-1.006417
0.094400,-0.915858
0.094500,-0.620489
0.094600,-0.284871
0.094700,0.003682
0.094800,-0.297530
0.094900,-0.824002
0.095000,-0.947343
0.095100,-0.924622
0.095200,-0.785052
0.095300,-1.297567
0.095400,-1.100546
0.095500,-0.868145
0.095600,-0.964870
0.095700,-0.843801
0.095800,-0.804202
0.095900,-0.740259
0.096000,-0.713968
0.096100,-0.627305
0.096200,-0.555248
0.096300,-0.585759
0.096400,-0.423792
0.096500,-0.413406
0.096600,-0.460794
0.096700,-0.558169
0.096800,-0.586732
0.096900,-0.678914
0.097000,-0.711696
0.097100,-1.145338
0.097200,-1.277443
0.097300,-1.467973
0.097400,-1.420908
0.097500,-1.313147
0.097600,-1.149233
0.097700,-1.238818
0.097800,-1.511467
0.097900,-1.690961
0.098000,-1.719849
0.098100,-1.602674
0.098200,-1.516985
0.098300,-1.500431
0.098400,-1.637080
0.098500,-1.768536
0.098600,-1.822742
0.098700,-1.813978
0.098800,-1.770808
0.098900,-1.733157
0.099000,-1.742245
0.099100,-1.781844
0.099200,-1.793204
0.099300,-1.829882
0.099400,-1.787687
0.099500,-1.830532
0.099600,-1.856823
0.099700,-1.893501
0.099800,-1.890579
0.099900,-1.884737
0.100000,-1.911677
0.100100,-1.945109
0.100200,-1.932775
0.100300,-1.848708
0.100400,-1.735753
0.100500,-1.745491
0.100600,-1.871429
0.100700,-2.011000
0.100800,-2.050274
0.100900,-1.906159
0.101000,-1.710111
0.101100,-1.661749
0.101200,-1.741596
0.101300,-1.896097
0.101400,-1.974971
0.101500,-1.885386
0.101600,-1.735753
0.101700,-1.640326
0.101800,-1.613386
0.101900,-1.619553
0.102000,-1.628966
0.102100,-1.613386
0.102200,-1.578980
0.102300,-1.494588
0.102400,-1.425777
0.102500,-1.339114
0.102600,-1.258942
0.102700,-1.192078
0.102800,-1.187534
0.102900,-1.182340
0.103000,-1.201491
0.103100,-1.147935
0.103200,-1.023620
0.103300,-0.984345
0.103400,-0.981749
0.103500,-0.979152
0.103600,-0.903849
0.103700,-0.879830
0.103800,-0.857434
0.103900,-0.803878
0.104000,-0.726302
0.104100,-0.719811
0.104200,-0.746427
0.104300,-0.826923
0.104400,-0.808097
0.104500,-0.858407
0.104600,-0.868794
0.104700,-0.872364
0.104800,-0.883400
0.104900,-0.883076
0.105000,-0.936632
0.105100,-0.951887
0.105200,-1.026216
0.105300,-0.999925
0.105400,-1.078474
0.105500,-0.845099
0.105600,-0.766875
0.105700,-0.653921
0.105800,-0.891515
0.105900,-1.083992
0.106000,-1.069386
0.106100,-1.000899
0.106200,-0.814913
0.106300,-0.742207
0.106400,-0.823352
0.106500,-0.986293
0.106600,-1.036927
0.106700,-0.972336
0.106800,-0.883076
0.106900,-0.822703
0.107000,-0.838608
0.107100,-0.911963
0.107200,-0.955133
0.107300,-0.972011
0.107400,-0.947992
0.107500,-0.940527
0.107600,-0.948317
0.107700,-0.941500
0.107800,-0.946694
0.107900,-0.943123
0.108000,-1.028164
0.108100,-1.059324
0.108200,-1.077825
0.108300,-1.115476
0.108400,-1.052183
0.108500,-1.087238
0.108600,-1.106388
0.108700,-1.339114
0.108800,-1.434216
0.108900,-1.383581
0.109000,-1.254722
0.109100,-1.107037
0.109200,-1.194350
0.109300,-1.369300
0.109400,-1.516011
0.109500,-1.477386
0.109600,-1.348202
0.109700,-1.218693
0.109800,-1.219018
0.109900,-1.318665
0.110000,-1.373844
0.110100,-1.378388
0.110200,-1.364756
0.110300,-1.296269
0.110400,-1.299514
0.110500,-1.252775
0.110600,-1.238168
0.110700,-1.215123
0.110800,-1.187534
0.110900,-1.199219
0.111000,-1.196946
0.111100,-1.189481
0.111200,-1.139495
0.111300,-1.111581
0.111400,-1.077176
0.111500,-1.159944
0.111600,-1.196946
0.111700,-1.200841
0.111800,-1.185586
0.111900,-1.168383
0.112000,-1.191753
0.112100,-1.145662
0.112200,-1.024269
0.112300,-0.882751
0.112400,-0.727601
0.112500,-0.517921
0.112600,-0.376079
0.112700,-0.014495
0.112800,0.071844
0.112900,0.169868
0.113000,0.345791
0.113100,0.300350
0.113200,0.350011
0.113300,0.344817
0.113400,0.379547
0.113500,0.222125
0.113600,0.070870
0.113700,-0.143029
0.113800,-0.685081
0.113900,-1.207333
0.114000,-1.366703
0.114100,-1.262188
0.114200,-1.121319
0.114300,-1.059973
0.114400,-1.210254
0.114500,-1.413767
0.114600,-1.580278
0.114700,-1.560154
0.114800,-1.391047
0.114900,-1.273872
0.115000,-1.295295
0.115100,-1.437137
0.115200,-1.502054
0.115300,-1.514713
0.115400,-1.463429
0.115500,-1.409872
0.115600,-1.374818
0.115700,-1.402732
0.115800,-1.419610
0.115900,-1.451744
0.116000,-1.435514
0.116100,-1.472192
0.116200,-1.487123
0.116300,-1.530617
0.116400,-1.547820
0.116500,-1.523152
0.116600,-1.504975
0.116700,-1.544899
0.116800,-1.558207
0.116900,-1.532565
0.117000,-1.394617
0.117100,-1.341386
0.117200,-1.388450
0.117300,-1.523152
0.117400,-1.644221
0.117500,-1.604297
0.117600,-1.456288
0.117700,-1.328727
0.117800,-1.365080
0.117900,-1.502054
0.118000,-1.661749
0.118100,-1.715629
0.118200,-1.629939
0.118300,-1.549443
0.118400,-1.534837
0.118500,-1.584173
0.118600,-1.649739
0.118700,-1.639352
0.118800,-1.639352
0.118900,-1.640326
0.119000,-1.614359
0.119100,-1.601376
0.119200,-1.539056
0.119300,-1.502378
0.119400,-1.478035
0.119500,-1.493290
0.119600,-1.542627
0.119700,-1.563400
0.119800,-1.492641
0.119900,-1.388775
0.120000,-1.374493
0.120100,-1.372546
0.120200,-1.344307
0.120300,-1.280040
0.120400,-1.222588
0.120500,-1.170006
0.120600,-1.120994
0.120700,-1.071333
0.120800,-1.063543
0.120900,-1.078474
0.121000,-1.088211
0.121100,-1.117424
0.121200,-1.126188
0.121300,-1.173577
0.121400,-1.171304
0.121500,-1.165787
0.121600,-1.186884
0.121700,-1.179419
0.121800,-1.279715
0.121900,-1.271600
0.122000,-1.319963
0.122100,-1.213825
0.122200,-1.125538
0.122300,-0.937605
0.122400,-1.037252
0.122500,-1.320612
0.122600,-1.437787
0.122700,-1.407600
0.122800,-1.275820
0.122900,-1.135600
0.123000,-1.127486
0.123100,-1.266083
0.123200,-1.371896
0.123300,-1.377414
0.123400,-1.268030
0.123500,-1.154751
0.123600,-1.130083
0.123700,-1.140145
0.123800,-1.194674
0.123900,-1.204736
0.124000,-1.188832
0.124100,-1.151830
0.124200,-1.121968
0.124300,-1.125214
0.124400,-1.091457
0.124500,-1.048612
0.124600,-1.087887
0.124700,-1.170006
0.124800,-1.090159
0.124900,-1.121968
0.125000,-1.068087
0.125100,-0.973634
0.125200,-0.951562
0.125300,-0.982073
0.125400,-1.187858
0.125500,-1.211877
0.125600,-1.150531
0.125700,-0.993433
0.125800,-0.899629
0.125900,-1.035629
0.126000,-1.204087
0.126100,-1.318340
0.126200,-1.239467
0.126300,-1.106713
0.126400,-1.037577
0.126500,-1.069386
0.126600,-1.204736
0.126700,-1.265433
0.126800,-1.265109
0.126900,-1.242713
0.127000,-1.212851
0.127100,-1.289452
0.127200,-1.286531
0.127300,-1.295944
0.127400,-1.271925
0.127500,-1.259915
0.127600,-1.305032
0.127700,-1.323858
0.127800,-1.298865
0.127900,-1.280689
0.128000,-1.231028
0.128100,-1.253748
0.128200,-1.336192
0.128300,-1.340412
0.128400,-1.319639
0.128500,-1.278092
0.128600,-1.312822
0.128700,-1.305357
0.128800,-1.220966
0.128900,-1.189806
0.129000,-1.114178
0.129100,-1.088861
0.129200,-0.977204
0.129300,-0.871391
0.129400,-0.672746
0.129500,-0.429635
0.129600,-0.436451
0.129700,-0.294933
0.129800,-0.150170
0.129900,-0.158933
0.130000,0.142278
0.130100,-0.183602
0.130200,-0.107325
0.130300,-0.370561
0.130400,-0.533501
0.130500,-1.121319
0.130600,-1.330025
0.130700,-1.356966
0.130800,-1.211553
0.130900,-1.048937
0.131000,-0.888593
0.131100,-1.208307
0.131200,-1.424154
0.131300,-1.521529
0.131400,-1.443629
0.131500,-1.296269
0.131600,-1.256345
0.131700,-1.327104
0.131800,-1.484526
0.131900,-1.536135
0.132000,-1.540679
0.132100,-1.474140
0.132200,-1.418961
0.132300,-1.418636
0.132400,-1.444278
0.132500,-1.471868
0.132600,-1.490369
0.132700,-1.466025
0.132800,-1.489071
0.132900,-1.508221
0.133000,-1.548794
0.133100,-1.544250
0.133200,-1.525099
0.133300,-1.547171
0.133400,-1.581901
0.133500,-1.585147
0.133600,-1.552689
0.133700,-1.419610
0.133800,-1.454016
0.133900,-1.580278
0.134000,-1.767562
0.134100,-1.889930
0.134200,-1.855849
0.134300,-1.737376
0.134400,-1.664994
0.134500,-1.757500
0.134600,-1.932126
0.134700,-2.055467
0.134800,-2.063907
0.134900,-1.941539
0.135000,-1.840269
0.135100,-1.787362
0.135200,-1.781195
0.135300,-1.799372
0.135400,-1.767887
0.135500,-1.714006
0.135600,-1.644221
0.135700,-1.530293
0.135800,-1.451094
0.135900,-1.351448
0.136000,-1.271276
0.136100,-1.234598
0.136200,-1.214799
0.136300,-1.212526
0.136400,-1.179419
0.136500,-1.067763
0.136600,-1.008689
0.136700,-1.017128
0.136800,-1.028488
0.136900,-0.941500
0.137000,-0.915209
0.137100,-0.876259
0.137200,-0.840555
0.137300,-0.756813
0.137400,-0.749997
0.137500,-0.731820
0.137600,-0.788622
0.137700,-0.794140
0.137800,-0.815887
0.137900,-0.860679
0.138000,-0.865548
0.138100,-0.873663
0.138200,-0.842827
0.138300,-0.926570
0.138400,-0.922025
0.138500,-0.997978
0.138600,-0.987266
0.138700,-1.039200
0.138800,-0.897682
0.138900,-0.819457
0.139000,-0.658465
0.139100,-0.875286
0.139200,-1.102818
0.139300,-1.157672
0.139400,-1.063219
0.139500,-0.886971
0.139600,-0.795763
0.139700,-0.840555
0.139800,-0.964546
0.139900,-1.057701
0.140000,-1.039200
0.140100,-0.971037
0.140200,-0.898331
0.140300,-0.909691
0.140400,-0.945395
0.140500,-1.018751
0.140600,-1.043744
0.140700,-1.045367
0.140800,-1.054130
0.140900,-1.046665
0.141000,-1.032059
0.141100,-1.033682
0.141200,-1.058350
0.141300,-1.115152
0.141400,-1.168708
0.141500,-1.120670
0.141600,-1.149882
0.141700,-1.063868
0.141800,-1.090484
0.141900,-1.053157
0.142000,-1.177147
0.142100,-1.325481
0.142200,-1.323534
0.142300,-1.243686
0.142400,-1.064192
0.142500,-1.081071
0.142600,-1.193376
0.142700,-1.349176
0.142800,-1.314445
0.142900,-1.199868
0.143000,-1.063868
0.143100,-1.045691
0.143200,-1.103791
0.143300,-1.166111
0.143400,-1.145013
0.143500,-1.139495
0.143600,-1.104441
0.143700,-1.129433
0.143800,-1.126837
0.143900,-1.116126
0.144000,-1.104441
0.144100,-1.077176
0.144200,-1.121643
0.144300,-1.182665
0.144400,-1.206359
0.144500,-1.156049
0.144600,-1.161242
0.144700,-1.143390
0.144800,-1.207009
0.144900,-1.290426
0.145000,-1.300813
0.145100,-1.286856
0.145200,-1.261863
0.145300,-1.304059
0.145400,-1.302760
0.145500,-1.213825
0.145600,-1.214799
0.145700,-1.203114
0.145800,-1.194674
0.145900,-1.212526
0.146000,-1.191104
0.146100,-1.216746
0.146200,-1.202789
0.146300,-1.232001
0.146400,-1.266407
0.146500,-1.267381
0.146600,-1.292698
0.146700,-1.312822
0.146800,-1.345605
0.146900,-1.363782
0.147000,-1.350474
0.147100,-1.377414
0.147200,-1.523801
0.147300,-1.690312
0.147400,-1.665643
0.147500,-1.486799
0.147600,-1.404355
0.147700,-1.411171
0.147800,-1.669863
0.147900,-1.841243
0.148000,-1.827286
0.148100,-1.729262
0.148200,-1.592288
0.148300,-1.597481
0.148400,-1.659476
0.148500,-1.761720
0.148600,-1.807486
0.148700,-1.747114
0.148800,-1.673109
0.148900,-1.648765
0.149000,-1.636756
0.149100,-1.624097
0.149200,-1.606894
0.149300,-1.575410
0.149400,-1.574436
0.149500,-1.557882
0.149600,-1.613061
0.149700,-1.626044
0.149800,-1.617281
0.149900,-1.548794
0.150000,-1.615333
0.150100,-1.615009
0.150200,-1.628641
0.150300,-1.535486
0.150400,-1.417013
0.150500,-1.429023
0.150600,-1.535486
0.150700,-1.672460
0.150800,-1.726340
0.150900,-1.574760
0.151000,-1.421233
0.151100,-1.391696
0.151200,-1.522827
0.151300,-1.675056
0.151400,-1.714980
0.151500,-1.645195
0.151600,-1.549118
0.151700,-1.513414
0.151800,-1.546522
0.151900,-1.578655
0.152000,-1.599429
0.152100,-1.590989
0.152200,-1.564698
0.152300,-1.514388
0.152400,-1.456288
0.152500,-1.393968
0.152600,-1.325481
0.152700,-1.279715
0.152800,-1.260240
0.152900,-1.248880
0.153000,-1.239791
0.153100,-1.178445
0.153200,-1.057376
0.153300,-1.001548
0.153400,-0.992460
0.153500,-0.987916
0.153600,-0.896059
0.153700,-0.844126
0.153800,-0.787973
0.153900,-0.732794
0.154000,-0.632823
0.154100,-0.638016
0.154200,-0.645806
0.154300,-0.677615
0.154400,-0.676966
0.154500,-0.703257
0.154600,-0.708126
0.154700,-0.722083
0.154800,-0.726952
0.154900,-0.721758
0.155000,-0.741882
0.155100,-0.757462
0.155200,-0.815563
0.155300,-0.796737
0.155400,-0.827897
0.155500,-0.718837
0.155600,-0.553625
0.155700,-0.559467
0.155800,-0.772718
0.155900,-0.949290
0.156000,-0.922675
0.156100,-0.871715
0.156200,-0.740584
0.156300,-0.685730
0.156400,-0.784403
0.156500,-0.922999
0.156600,-0.984994
0.156700,-0.921376
0.156800,-0.839906
0.156900,-0.783429
0.157000,-0.814264
0.157100,-0.879505
0.157200,-0.935333
0.157300,-0.932087
0.157400,-0.927543
0.157500,-0.918455
0.157600,-0.943772
0.157700,-0.938904
0.157800,-0.958054
0.157900,-1.013233
0.158000,-1.104441
0.158100,-1.123591
0.158200,-1.154102
0.158300,-1.193701
0.158400,-1.140469
0.158500,-1.132679
0.158600,-1.157023
0.158700,-1.318989
0.158800,-1.461806
0.158900,-1.395266
0.159000,-1.289128
0.159100,-1.122293
0.159200,-1.210254
0.159300,-1.376116
0.159400,-1.521853
0.159500,-1.443954
0.159600,-1.266083
0.159700,-1.139495
0.159800,-1.147935
0.159900,-1.255371
0.160000,-1.317042
0.160100,-1.268679
0.160200,-1.248555
0.160300,-1.186235
0.160400,-1.212202
0.160500,-1.190779
0.160600,-1.160918
0.160700,-1.139171
0.160800,-1.120020
0.160900,-1.122293
0.161000,-1.127161
0.161100,-1.116775
0.161200,-1.092106
0.161300,-1.085290
0.161400,-1.095028
0.161500,-1.158646
0.161600,-1.206684
0.161700,-1.204736
0.161800,-1.174875
0.161900,-1.169357
0.162000,-1.197920
0.162100,-1.172603
0.162200,-1.104116
0.162300,-1.116450
0.162400,-1.053806
0.162500,-1.039200
0.162600,-1.177147
0.162700,-1.298865
0.162800,-1.136899
0.162900,-1.118722
0.163000,-1.158646
0.163100,-1.138522
0.163200,-1.189157
0.163300,-1.204087
0.163400,-1.239791
0.163500,-1.283935
0.163600,-1.296918
0.163700,-1.342684
0.163800,-1.405653
0.163900,-1.653309
0.164000,-1.700049
0.164100,-1.679276
0.164200,-1.523801
0.164300,-1.486799
0.164400,-1.595858
0.164500,-1.802293
0.164600,-1.929529
0.164700,-1.927257
0.164800,-1.782169
0.164900,-1.705243
0.165000,-1.726990
0.165100,-1.856498
0.165200,-1.937644
0.165300,-1.937968
0.165400,-1.907133
0.165500,-1.843839
0.165600,-1.821443
0.165700,-1.824364
0.165800,-1.889281
0.165900,-1.905186
0.166000,-1.914598
0.166100,-1.920766
0.166200,-1.929529
0.166300,-2.000938
0.166400,-2.055143
0.166500,-2.031124
0.166600,-2.028527
0.166700,-2.023334
0.166800,-2.074618
0.166900,-2.022035
0.167000,-1.902913
0.167100,-1.777625
0.167200,-1.800670
0.167300,-1.945109
0.167400,-1.984059
0.167500,-1.927582
0.167600,-1.722770
0.167700,-1.555935
0.167800,-1.550417
0.167900,-1.668240
0.168000,-1.786064
0.168100,-1.762694
0.168200,-1.635782
0.168300,-1.529968
0.168400,-1.481281
0.168500,-1.491992
0.168600,-1.512441
0.168700,-1.484851
0.168800,-1.451094
0.168900,-1.414417
0.169000,-1.345281
0.169100,-1.284908
0.169200,-1.199868
0.169300,-1.119696
0.169400,-1.076851
0.169500,-1.070684
0.169600,-1.081071
0.169700,-1.081395
0.169800,-1.010636
0.169900,-0.908393
0.170000,-0.910665
0.170100,-0.903200
0.170200,-0.875935
0.170300,-0.815238
0.170400,-0.780508
0.170500,-0.734417
0.170600,-0.673720
0.170700,-0.614971
0.170800,-0.630551
0.170900,-0.658140
0.171000,-0.685405
0.171100,-0.711047
0.171200,-0.746427
0.171300,-0.758436
0.171400,-0.753892
0.171500,-0.741882
0.171600,-0.745777
0.171700,-0.829844
0.171800,-0.845099
0.171900,-0.930140
0.172000,-0.893787
0.172100,-0.918780
0.172200,-0.755839
0.172300,-0.692221
0.172400,-0.853863
0.172500,-1.121643
0.172600,-1.266732
0.172700,-1.222913
0.172800,-1.139495
0.172900,-1.034980
0.173000,-1.061920
0.173100,-1.210904
0.173200,-1.323858
0.173300,-1.358588
0.173400,-1.269977
0.173500,-1.187534
0.173600,-1.170655
0.173700,-1.175849
0.173800,-1.229729
0.173900,-1.247906
0.174000,-1.241090
0.174100,-1.207658
0.174200,-1.188832
0.174300,-1.174875
0.174400,-1.149882
0.174500,-1.136899
0.174600,-1.146312
0.174700,-1.183963
0.174800,-1.184937
0.174900,-1.192727
0.175000,-1.211877
0.175100,-1.109958
0.175200,-1.086913
0.175300,-1.102818
0.175400,-1.336192
0.175500,-1.347553
0.175600,-1.232975
0.175700,-1.073605
0.175800,-1.036603
0.175900,-1.142092
0.176000,-1.324832
0.176100,-1.352097
0.176200,-1.251476
0.176300,-1.067763
0.176400,-1.009338
0.176500,-1.080421
0.176600,-1.161892
0.176700,-1.209281
0.176800,-1.183963
0.176900,-1.154102
0.177000,-1.152803
0.177100,-1.205061
0.177200,-1.205710
0.177300,-1.199543
0.177400,-1.171954
0.177500,-1.214149
0.177600,-1.261863
0.177700,-1.288479
0.177800,-1.278417
0.177900,-1.251476
0.178000,-1.240116
0.178100,-1.266407
0.178200,-1.368326
0.178300,-1.416689
0.178400,-1.443954
0.178500,-1.427400
0.178600,-1.463429
0.178700,-1.488097
0.178800,-1.428698
0.178900,-1.420584
0.179000,-1.410197
0.179100,-1.406951
0.179200,-1.397538
0.179300,-1.397538
0.179400,-1.409548
0.179500,-1.404030
0.179600,-1.429347
0.179700,-1.428698
0.179800,-1.440059
0.179900,-1.442655
0.180000,-1.472841
0.180100,-1.482904
0.180200,-1.511142
0.180300,-1.550417
0.180400,-1.553663
0.180500,-1.714331
0.180600,-1.886360
0.180700,-1.930178
0.180800,-1.782818
0.180900,-1.649414
0.181000,-1.638703
0.181100,-1.828909
0.181200,-2.048002
0.181300,-2.099935
0.181400,-1.980813
0.181500,-1.865262
0.181600,-1.774703
0.181700,-1.867859
0.181800,-1.946732
0.181900,-2.026904
0.182000,-1.978217
0.182100,-1.912002
0.182200,-1.867209
0.182300,-1.851629
0.182400,-1.881816
0.182500,-1.891228
0.182600,-1.889930
0.182700,-1.865911
0.182800,-1.830207
0.182900,-1.862341
0.183000,-1.898694
0.183100,-1.878245
0.183200,-1.857147
0.183300,-1.837348
0.183400,-1.870780
0.183500,-1.846111
0.183600,-1.777625
0.183700,-1.616632
0.183800,-1.559180
0.183900,-1.658827
0.184000,-1.805539
0.184100,-1.838321
0.184200,-1.726665
0.184300,-1.534512
0.184400,-1.443304
0.184500,-1.503352
0.184600,-1.659476
0.184700,-1.749710
0.184800,-1.707190
0.184900,-1.552364
0.185000,-1.444603
0.185100,-1.417987
0.185200,-1.449796
0.185300,-1.490694
0.185400,-1.471219
0.185500,-1.446875
0.185600,-1.397538
0.185700,-1.318340
0.185800,-1.261214
0.185900,-1.190130
0.186000,-1.121968
0.186100,-1.110932
0.186200,-1.103142
0.186300,-1.120994
0.186400,-1.101844
0.186500,-1.004145
0.186600,-0.937605
0.186700,-0.922350
0.186800,-0.938904
0.186900,-0.851267
0.187000,-0.841529
0.187100,-0.814589
0.187200,-0.765252
0.187300,-0.726627
0.187400,-0.689300
0.187500,-0.718837
0.187600,-0.759410
0.187700,-0.786999
0.187800,-0.799658
0.187900,-0.848021
0.188000,-0.850293
0.188100,-0.857758
0.188200,-0.840880
0.188300,-0.871391
0.188400,-0.895085
0.188500,-0.914560
0.188600,-0.925596
0.188700,-0.929166
0.188800,-0.835037
0.188900,-0.641587
0.189000,-0.560117
0.189100,-0.686703
0.189200,-0.973959
0.189300,-0.919753
0.189400,-0.894761
0.189500,-0.705854
0.189600,-0.604909
0.189700,-0.601988
0.189800,-0.741558
0.189900,-0.809071
0.190000,-0.787648
0.190100,-0.680212
0.190200,-0.571477
0.190300,-0.553949
0.190400,-0.574074
0.190500,-0.649052
0.190600,-0.688326
0.190700,-0.690598
0.190800,-0.668851
0.190900,-0.670799
0.191000,-0.658789
0.191100,-0.671773
0.191200,-0.723381
0.191300,-0.798684
0.191400,-0.817185
0.191500,-0.848994
0.191600,-0.858083
0.191700,-0.846398
0.191800,-0.824002
0.191900,-0.851916
0.192000,-0.976231
0.192100,-1.189481
0.192200,-1.170980
0.192300,-1.066789
0.192400,-0.904823
0.192500,-0.945720
0.192600,-1.082369
0.192700,-1.255047
0.192800,-1.251476
0.192900,-1.129109
0.193000,-0.972011
0.193100,-0.911639
0.193200,-0.989214
0.193300,-1.061920
0.193400,-1.035954
0.193500,-1.034006
0.193600,-0.963572
0.193700,-0.961300
0.193800,-0.949939
0.193900,-0.896708
0.194000,-0.789596
0.194100,-0.678914
0.194200,-0.784727
0.194300,-0.997653
0.194400,-0.992135
0.194500,-0.961624
0.194600,-0.870417
0.194700,-0.900278
0.194800,-1.142741
0.194900,-1.240441
0.195000,-1.284584
0.195100,-1.312173
0.195200,-1.300488
0.195300,-1.362808
0.195400,-1.374818
0.195500,-1.334569
0.195600,-1.311199
0.195700,-1.318340
0.195800,-1.328727
0.195900,-1.334245
0.196000,-1.330025
0.196100,-1.321586
0.196200,-1.319963
0.196300,-1.348851
0.196400,-1.336841
0.196500,-1.356316
0.196600,-1.355018
0.196700,-1.377739
0.196800,-1.404355
0.196900,-1.449472
0.197000,-1.478035
0.197100,-1.537433
0.197200,-1.701997
0.197300,-1.846111
0.197400,-1.790932
0.197500,-1.671486
0.197600,-1.546522
0.197700,-1.631887
0.197800,-1.859744
0.197900,-2.040537
0.198000,-2.061959
0.198100,-1.927257
0.198200,-1.829233
0.198300,-1.807486
0.198400,-1.887983
0.198500,-1.970751
0.198600,-2.004183
0.198700,-1.974971
0.198800,-1.936995
0.198900,-1.880193
0.199000,-1.859419
0.199100,-1.844813
0.199200,-1.839944
0.199300,-1.820145
0.199400,-1.828259
0.199500,-1.795477
0.199600,-1.772756
0.199700,-1.792231
0.199800,-1.725691
0.199900,-1.692259
0.200000,-1.728937
0.200100,-1.711410
0.200200,-1.673758
0.200300,-1.532565
0.200400,-1.401433
0.200500,-1.385204
0.200600,-1.491992
0.200700,-1.586770
0.200800,-1.607219
0.200900,-1.448498
0.201000,-1.281013
0.201100,-1.255371
0.201200,-1.351123
0.201300,-1.522178
0.201400,-1.564374
0.201500,-1.495238
0.201600,-1.376116
0.201700,-1.326455
0.201800,-1.350149
0.201900,-1.353395
0.202000,-1.336517
0.202100,-1.306006
0.202200,-1.281987
0.202300,-1.257643
0.202400,-1.196622
0.202500,-1.144040
0.202600,-1.058999
0.202700,-1.015505
0.202800,-1.018426
0.202900,-1.025567
0.203000,-1.067438
0.203100,-1.007066
0.203200,-0.909367
0.203300,-0.898006
0.203400,-0.900603
0.203500,-0.920402
0.203600,-0.861329
0.203700,-0.832116
0.203800,-0.811343
0.203900,-0.767200
0.204000,-0.710073
0.204100,-0.695143
0.204200,-0.726627
0.204300,-0.757138
0.204400,-0.777262
0.204500,-0.818159
0.204600,-0.853863
0.204700,-0.833415
0.204800,-0.850617
0.204900,-0.823677
0.205000,-0.826598
0.205100,-0.879505
0.205200,-0.896059
0.205300,-0.952861
0.205400,-0.923648
0.205500,-0.781481
0.205600,-0.653596
0.205700,-0.558818
0.205800,-0.868469
0.205900,-1.006092
0.206000,-0.987916
0.206100,-0.878531
0.206200,-0.710723
0.206300,-0.681510
0.206400,-0.721109
0.206500,-0.863925
0.206600,-0.870417
0.206700,-0.805176
0.206800,-0.712021
0.206900,-0.653272
0.207000,-0.667878
0.207100,-0.704231
0.207200,-0.723057
0.207300,-0.736689
0.207400,-0.735066
0.207500,-0.734092
0.207600,-0.733768
0.207700,-0.719486
0.207800,-0.726627
0.207900,-0.727276
0.208000,-0.833739
0.208100,-0.817185
0.208200,-0.883400
0.208300,-0.913586
0.208400,-0.914885
0.208500,-0.890541
0.208600,-0.955457
0.208700,-1.171954
0.208800,-1.301137
0.208900,-1.194674
0.209000,-1.051534
0.209100,-0.906121
0.209200,-1.018426
0.209300,-1.186884
0.209400,-1.328402
0.209500,-1.256670
0.209600,-1.083018
0.209700,-0.986942
0.209800,-1.024918
0.209900,-1.145013
0.210000,-1.208307
0.210100,-1.159944
0.210200,-1.140145
0.210300,-1.090808
0.210400,-1.167085
0.210500,-1.179419
0.210600,-1.146312
0.210700,-1.108336
0.210800,-1.110608
0.210900,-1.143715
0.211000,-1.200841
0.211100,-1.182989
0.211200,-1.170980
0.211300,-1.167409
0.211400,-1.148259
0.211500,-1.241090
0.211600,-1.306331
0.211700,-1.325156
0.211800,-1.333920
0.211900,-1.328402
0.212000,-1.383257
0.212100,-1.354044
0.212200,-1.310875
0.212300,-1.309252
0.212400,-1.285233
0.212500,-1.262837
0.212600,-1.258942
0.212700,-1.242713
0.212800,-1.245958
0.212900,-1.220641
0.213000,-1.239467
0.213100,-1.220641
0.213200,-1.227782
0.213300,-1.240116
0.213400,-1.265109
0.213500,-1.294321
0.213600,-1.291725
0.213700,-1.314770
0.213800,-1.410846
0.213900,-1.623772
0.214000,-1.706541
0.214100,-1.649739
0.214200,-1.448173
0.214300,-1.420584
0.214400,-1.545873
0.214500,-1.767562
0.214600,-1.923687
0.214700,-1.871754
0.214800,-1.751658
0.214900,-1.648116
0.215000,-1.698102
0.215100,-1.806188
0.215200,-1.883439
0.215300,-1.884412
0.215400,-1.856823
0.215500,-1.816250
0.215600,-1.783792
0.215700,-1.779572
0.215800,-1.815601
0.215900,-1.821119
0.216000,-1.803591
0.216100,-1.767887
0.216200,-1.753930
0.216300,-1.794503
0.216400,-1.789634
0.216500,-1.769185
0.216600,-1.764317
0.216700,-1.779897
0.216800,-1.816899
0.216900,-1.779247
0.217000,-1.652011
0.217100,-1.555610
0.217200,-1.653959
0.217300,-1.825663
0.217400,-1.924661
0.217500,-1.924336
0.217600,-1.755228
0.217700,-1.629615
0.217800,-1.650713
0.217900,-1.803267
0.218000,-1.955496
0.218100,-1.951601
0.218200,-1.831505
0.218300,-1.729911
0.218400,-1.678627
0.218500,-1.701348
0.218600,-1.722445
0.218700,-1.707515
0.218800,-1.665643
0.218900,-1.596832
0.219000,-1.528345
0.219100,-1.451744
0.219200,-1.374493
0.219300,-1.304708
0.219400,-1.238493
0.219500,-1.233624
0.219600,-1.222913
0.219700,-1.228106
0.219800,-1.148259
0.219900,-1.069061
0.220000,-1.058025
0.220100,-1.047639
0.220200,-0.988889
0.220300,-0.955133
0.220400,-0.921376
0.220500,-0.891190
0.220600,-0.799658
0.220700,-0.748699
0.220800,-0.767849
0.220900,-0.781806
0.221000,-0.826923
0.221100,-0.801930
0.221200,-0.873014
0.221300,-0.852565
0.221400,-0.892813
0.221500,-0.880154
0.221600,-0.924297
0.221700,-0.936956
0.221800,-0.946369
0.221900,-0.986293
0.222000,-0.960975
0.222100,-0.949939
0.222200,-0.745777
0.222300,-0.640937
0.222400,-0.725329
0.222500,-0.952212
0.222600,-1.026541
0.222700,-0.964546
0.222800,-0.876259
0.222900,-0.724680
0.223000,-0.712021
0.223100,-0.795763
0.223200,-0.876909
0.223300,-0.875610
0.223400,-0.765252
0.223500,-0.667229
0.223600,-0.590303
0.223700,-0.586083
0.223800,-0.634121
0.223900,-0.664632
0.224000,-0.656517
0.224100,-0.611400
0.224200,-0.565634
0.224300,-0.560766
0.224400,-0.558169
0.224500,-0.568880
0.224600,-0.649701
0.224700,-0.627305
0.224800,-0.653596
0.224900,-0.662035
0.225000,-0.659763
0.225100,-0.615945
0.225200,-0.552002
0.225300,-0.652298
0.225400,-0.852240
0.225500,-0.900278
0.225600,-0.807773
0.225700,-0.673720
0.225800,-0.636393
0.225900,-0.768823
0.226000,-0.949615
0.226100,-1.011935
0.226200,-0.930140
0.226300,-0.782455
0.226400,-0.722407
0.226500,-0.813940
0.226600,-0.922350
0.226700,-0.932412
0.226800,-0.910016
0.226900,-0.897357
0.227000,-0.911639
0.227100,-0.961624
0.227200,-0.946369
0.227300,-0.938255
0.227400,-0.753567
0.227500,-0.945720
0.227600,-1.022646
0.227700,-1.080097
0.227800,-1.073930
0.227900,-1.094703
0.228000,-1.101844
0.228100,-1.172278
0.228200,-1.275820
0.228300,-1.344307
0.228400,-1.362483
0.228500,-1.364431
0.228600,-1.408899
0.228700,-1.451094
0.228800,-1.385204
0.228900,-1.379362
0.229000,-1.384555
0.229100,-1.388125
0.229200,-1.386503
0.229300,-1.396565
0.229400,-1.396240
0.229500,-1.391371
0.229600,-1.417013
0.229700,-1.408250
0.229800,-1.379686
0.229900,-1.412145
0.230000,-1.405328
0.230100,-1.413767
0.230200,-1.427400
0.230300,-1.434541
0.230400,-1.461481
0.230500,-1.598779
0.230600,-1.792555
0.230700,-1.780546
0.230800,-1.698751
0.230900,-1.528994
0.231000,-1.546197
0.231100,-1.774054
0.231200,-1.917195
0.231300,-2.019439
0.231400,-1.915248
0.231500,-1.808135
0.231600,-1.761395
0.231700,-1.837672
0.231800,-1.941214
0.231900,-1.994121
0.232000,-1.998990
0.232100,-1.956794
0.232200,-1.919467
0.232300,-1.909730
0.232400,-1.921415
0.232500,-1.941863
0.232600,-1.909081
0.232700,-1.929205
0.232800,-1.889930
0.232900,-1.902913
0.233000,-1.961988
0.233100,-1.947706
0.233200,-1.903563
0.233300,-1.925634
0.233400,-1.961338
0.233500,-1.963286
0.233600,-1.865262
0.233700,-1.744842
0.233800,-1.709138
0.233900,-1.812679
0.234000,-1.979190
0.234100,-2.025281
0.234200,-1.908756
0.234300,-1.716928
0.234400,-1.628966
0.234500,-1.726016
0.234600,-1.890255
0.234700,-1.987305
0.234800,-1.946083
0.234900,-1.801319
0.235000,-1.733481
0.235100,-1.746140
0.235200,-1.787687
0.235300,-1.793854
0.235400,-1.743219
0.235500,-1.708813
0.235600,-1.663371
0.235700,-1.590989
0.235800,-1.544250
0.235900,-1.477386
0.236000,-1.391696
0.236100,-1.340087
0.236200,-1.324832
0.236300,-1.318340
0.236400,-1.280040
0.236500,-1.154102
0.236600,-1.096001
0.236700,-1.081720
0.236800,-1.077176
0.236900,-1.007390
0.237000,-0.969414
0.237100,-0.924947
0.237200,-0.885672
0.237300,-0.824651
0.237400,-0.790894
0.237500,-0.826274
0.237600,-0.870417
0.237700,-0.883076
0.237800,-0.920727
0.237900,-0.947992
0.238000,-0.990188
0.238100,-0.946694
0.238200,-0.974932
0.238300,-0.935982
0.238400,-1.020374
0.238500,-0.974932
0.238600,-1.039200
0.238700,-1.008689
0.238800,-0.915209
0.238900,-0.727601
0.239000,-0.648727
0.239100,-0.875935
0.239200,-1.009013
0.239300,-1.090808
0.239400,-0.936632
0.239500,-0.807773
0.239600,-0.707801
0.239700,-0.735715
0.239800,-0.881453
0.239900,-0.963247
0.240000,-0.921701
0.240100,-0.806474
0.240200,-0.747076
0.240300,-0.742207
0.240400,-0.766226
0.240500,-0.850617
0.240600,-0.861978
0.240700,-0.832765
0.240800,-0.824651
0.240900,-0.848670
0.241000,-0.842178
0.241100,-0.870741
0.241200,-0.906121
0.241300,-0.947018
0.241400,-0.989214
0.241500,-0.996679
0.241600,-1.074904
0.241700,-1.018751
0.241800,-1.021348
0.241900,-1.029462
0.242000,-1.175849
0.242100,-1.368326
0.242200,-1.314770
0.242300,-1.179419
0.242400,-0.997004
0.242500,-1.039200
0.242600,-1.194674
0.242700,-1.367352
0.242800,-1.360536
0.242900,-1.224536
0.243000,-1.057701
0.243100,-1.022970
0.243200,-1.100546
0.243300,-1.194674
0.243400,-1.170331
0.243500,-1.146312
0.243600,-1.061271
0.243700,-1.052183
0.243800,-1.073605
0.243900,-1.067763
0.244000,-1.044393
0.244100,-1.028488
0.244200,-1.040822
0.244300,-1.088861
0.244400,-1.098598
0.244500,-1.087238
0.244600,-1.094379
0.244700,-1.050884
0.244800,-1.158321
0.244900,-1.228106
0.245000,-1.260889
0.245100,-1.241090
0.245200,-1.245634
0.245300,-1.273872
0.245400,-1.288154
0.245500,-1.222913
0.245600,-1.212202
0.245700,-1.180068
0.245800,-1.196946
0.245900,-1.166760
0.246000,-1.167085
0.246100,-1.141768
0.246200,-1.153452
0.246300,-1.162865
0.246400,-1.151830
0.246500,-1.130407
0.246600,-1.143066
0.246700,-1.168708
0.246800,-1.167409
0.246900,-1.144364
0.247000,-1.202464
0.247100,-1.219992
0.247200,-1.406951
0.247300,-1.520555
0.247400,-1.495562
0.247500,-1.319314
0.247600,-1.216421
0.247700,-1.296918
0.247800,-1.527696
0.247900,-1.684794
0.248000,-1.678302
0.248100,-1.580278
0.248200,-1.469596
0.248300,-1.480631
0.248400,-1.564374
0.248500,-1.686417
0.248600,-1.716278
0.248700,-1.703295
0.248800,-1.654283
0.248900,-1.611438
0.249000,-1.617605
0.249100,-1.661424
0.249200,-1.702321
0.249300,-1.726016
0.249400,-1.763992
0.249500,-1.749386
0.249600,-1.746465
0.249700,-1.810083
0.249800,-1.796775
0.249900,-1.798722
0.250000,-1.820145
0.250100,-1.842866
0.250200,-1.806512
0.250300,-1.688040
0.250400,-1.579954
0.250500,-1.600078
0.250600,-1.754579
0.250700,-1.868508
0.250800,-1.879219
0.250900,-1.719524
0.251000,-1.539381
0.251100,-1.502378
0.251200,-1.645519
0.251300,-1.823066
0.251400,-1.887333
0.251500,-1.827286
0.251600,-1.712708
0.251700,-1.657529
0.251800,-1.649414
0.251900,-1.705892
0.252000,-1.714980
0.252100,-1.707839
0.252200,-1.672784
0.252300,-1.615658
0.252400,-1.557233
0.252500,-1.473166
0.252600,-1.380335
0.252700,-1.327104
0.252800,-1.311849
0.252900,-1.321911
0.253000,-1.312822
0.253100,-1.229405
0.253200,-1.083992
0.253300,-1.024918
0.253400,-1.004469
0.253500,-0.984021
0.253600,-0.880803
0.253700,-0.831792
0.253800,-0.757787
0.253900,-0.692221
0.254000,-0.629252
0.254100,-0.591276
0.254200,-0.611725
0.254300,-0.611076
0.254400,-0.642885
0.254500,-0.646780
0.254600,-0.684431
0.254700,-0.670150
0.254800,-0.669176
0.254900,-0.700336
0.255000,-0.700011
0.255100,-0.737663
0.255200,-0.749348
0.255300,-0.824326
0.255400,-0.737014
0.255500,-0.666579
0.255600,-0.462417
0.255700,-0.455926
0.255800,-0.708450
0.255900,-0.880154
0.256000,-0.827572
0.256100,-0.732145
0.256200,-0.585759
0.256300,-0.564985
0.256400,-0.633147
0.256500,-0.757787
0.256600,-0.773367
0.256700,-0.718512
0.256800,-0.609778
0.256900,-0.553300
0.257000,-0.563362
0.257100,-0.617568
0.257200,-0.658465
0.257300,-0.678264
0.257400,-0.676641
0.257500,-0.680536
0.257600,-0.700660
0.257700,-0.708775
0.257800,-0.718512
0.257900,-0.747400
0.258000,-0.773691
0.258100,-0.815238
0.258200,-0.871715
0.258300,-0.830169
0.258400,-0.802579
0.258500,-0.751620
0.258600,-0.791868
0.258700,-1.002846
0.258800,-1.116775
0.258900,-1.018102
0.259000,-0.856460
0.259100,-0.743830
0.259200,-0.882751
0.259300,-1.055429
0.259400,-1.200192
0.259500,-1.134951
0.259600,-1.007390
0.259700,-0.916508
0.259800,-0.953185
0.259900,-1.059648
0.260000,-1.135276
0.260100,-1.137873
0.260200,-1.159295
0.260300,-1.108011
0.260400,-1.165137
0.260500,-1.178445
0.260600,-1.185911
0.260700,-1.184612
0.260800,-1.191753
0.260900,-1.234923
0.261000,-1.288803
0.261100,-1.306980
0.261200,-1.305032
0.261300,-1.291725
0.261400,-1.294321
0.261500,-1.388125
0.261600,-1.457911
0.261700,-1.472517
0.261800,-1.438760
0.261900,-1.452393
0.262000,-1.523476
0.262100,-1.472517
0.262200,-1.428049
0.262300,-1.413767
0.262400,-1.411495
0.262500,-1.408899
0.262600,-1.385204
0.262700,-1.387801
0.262800,-1.382283
0.262900,-1.388775
0.263000,-1.409548
0.263100,-1.409548
0.263200,-1.397863
0.263300,-1.421233
0.263400,-1.429997
0.263500,-1.459534
0.263600,-1.471868
0.263700,-1.512441
0.263800,-1.580927
0.263900,-1.797424
0.264000,-1.836374
0.264100,-1.750035
0.264200,-1.604947
0.264300,-1.496536
0.264400,-1.641624
0.264500,-1.839620
0.264600,-1.957443
0.264700,-1.885386
0.264800,-1.744517
0.264900,-1.640326
0.265000,-1.692584
0.265100,-1.791257
0.265200,-1.899018
0.265300,-1.864613
0.265400,-1.777949
0.265500,-1.761395
0.265600,-1.734780
0.265700,-1.758150
0.265800,-1.755877
0.265900,-1.777625
0.266000,-1.791906
0.266100,-1.784441
0.266200,-1.809109
0.266300,-1.854551
0.266400,-1.855524
0.266500,-1.842216
0.266600,-1.890579
0.266700,-1.928556
0.266800,-1.942837
0.266900,-1.861367
0.267000,-1.765290
0.267100,-1.688040
0.267200,-1.766589
0.267300,-1.964584
0.267400,-2.024307
0.267500,-1.992498
0.267600,-1.827610
0.267700,-1.692908
0.267800,-1.716928
0.267900,-1.869481
0.268000,-2.022360
0.268100,-2.040537
0.268200,-1.936670
0.268300,-1.845138
0.268400,-1.791582
0.268500,-1.806837
0.268600,-1.827935
0.268700,-1.836374
0.268800,-1.815601
0.268900,-1.776975
0.269000,-1.709138
0.269100,-1.635782
0.269200,-1.576383
0.269300,-1.471543
0.269400,-1.427075
0.269500,-1.436164
0.269600,-1.407276
0.269700,-1.412145
0.269800,-1.320937
0.269900,-1.231677
0.270000,-1.195324
0.270100,-1.173901
0.270200,-1.114827
0.270300,-1.076202
0.270400,-1.026216
0.270500,-0.972011
0.270600,-0.856460
0.270700,-0.834713
0.270800,-0.813940
0.270900,-0.839906
0.271000,-0.861978
0.271100,-0.852565
0.271200,-0.884374
0.271300,-0.910340
0.271400,-0.882426
0.271500,-0.948966
0.271600,-0.918455
0.271700,-1.009013
0.271800,-0.945071
0.271900,-1.027839
0.272000,-1.015830
0.272100,-0.930140
0.272200,-0.823677
0.272300,-0.608155
0.272400,-0.805500
0.272500,-0.976231
0.272600,-1.131705
0.272700,-0.998627
0.272800,-0.922999
0.272900,-0.772718
0.273000,-0.769472
0.273100,-0.869119
0.273200,-0.981099
0.273300,-0.983696
0.273400,-0.913262
0.273500,-0.830493
0.273600,-0.773367
0.273700,-0.811992
0.273800,-0.864250
0.273900,-0.902550
0.274000,-0.920402
0.274100,-0.931438
0.274200,-0.920727
0.274300,-0.932087
0.274400,-0.963247
0.274500,-1.006092
0.274600,-1.036603
0.274700,-1.127810
0.274800,-1.152803
0.274900,-1.174550
0.275000,-1.142741
0.275100,-1.140145
0.275200,-1.142417
0.275300,-1.317691
0.275400,-1.431619
0.275500,-1.479333
0.275600,-1.340087
0.275700,-1.181042
0.275800,-1.145662
0.275900,-1.188183
0.276000,-1.369300
0.276100,-1.404355
0.276200,-1.334569
0.276300,-1.157347
0.276400,-1.044393
0.276500,-1.086264
0.276600,-1.167734
0.276700,-1.211553
0.276800,-1.201815
0.276900,-1.174875
0.277000,-1.124240
0.277100,-1.113853
0.277200,-1.083343
0.277300,-1.073605
0.277400,-1.083343
0.277500,-1.082694
0.277600,-1.078149
0.277700,-1.111257
0.277800,-1.090484
0.277900,-1.076526
0.278000,-0.932412
0.278100,-1.132355
0.278200,-1.182016
0.278300,-1.190455
0.278400,-1.207658
0.278500,-1.199543
0.278600,-1.219667
0.278700,-1.253424
0.278800,-1.172278
0.278900,-1.162541
0.279000,-1.158321
0.279100,-1.144040
0.279200,-1.157672
0.279300,-1.135925
0.279400,-1.162216
0.279500,-1.182340
0.279600,-1.187209
0.279700,-1.176173
0.279800,-1.176498
0.279900,-1.200517
0.280000,-1.221290
0.280100,-1.254398
0.280200,-1.301137
0.280300,-1.340736
0.280400,-1.350149
0.280500,-1.531591
0.280600,-1.701672
0.280700,-1.761395
0.280800,-1.610140
0.280900,-1.489071
0.281000,-1.517958
0.281100,-1.693882
0.281200,-1.953873
0.281300,-1.998016
0.281400,-1.947057
0.281500,-1.834426
0.281600,-1.796450
0.281700,-1.895773
0.281800,-1.992174
0.281900,-2.062608
0.282000,-2.065205
0.282100,-2.004833
0.282200,-1.961338
0.282300,-1.961663
0.282400,-1.969453
0.282500,-1.977568
0.282600,-1.964584
0.282700,-1.963286
0.282800,-1.932775
0.282900,-1.926608
0.283000,-1.969453
0.283100,-1.899992
0.283200,-1.909405
0.283300,-1.897720
0.283400,-1.954847
0.283500,-1.925310
0.283600,-1.813978
0.283700,-1.647142
0.283800,-1.633185
0.283900,-1.748087
0.284000,-1.934398
0.284100,-1.955820
0.284200,-1.895448
0.284300,-1.716603
0.284400,-1.658178
0.284500,-1.777625
0.284600,-1.918818
0.284700,-2.031773
0.284800,-2.008727
0.284900,-1.907458
0.285000,-1.849682
0.285100,-1.825987
0.285200,-1.862341
0.285300,-1.884088
0.285400,-1.875973
0.285500,-1.867534
0.285600,-1.808784
0.285700,-1.748737
0.285800,-1.677328
0.285900,-1.603973
0.286000,-1.546522
0.286100,-1.507896
0.286200,-1.517958
0.286300,-1.508870
0.286400,-1.484851
0.286500,-1.365405
0.286600,-1.304383
0.286700,-1.305357
0.286800,-1.288803
0.286900,-1.182016
0.287000,-1.155075
0.287100,-1.095677
0.287200,-1.040173
0.287300,-0.941176
0.287400,-0.894761
0.287500,-0.884698
0.287600,-0.873014
0.287700,-0.878207
0.287800,-0.809720
0.287900,-0.861004
0.288000,-0.804851
0.288100,-0.796737
0.288200,-0.781806
0.288300,-0.770770
0.288400,-0.753892
0.288500,-0.780183
0.288600,-0.773367
0.288700,-0.808422
0.288800,-0.631849
0.288900,-0.510780
0.289000,-0.354981
0.289100,-0.591926
0.289200,-0.741558
0.289300,-0.797386
0.289400,-0.677615
0.289500,-0.564985
0.289600,-0.490981
0.289700,-0.530580
0.289800,-0.661386
0.289900,-0.705529
0.290000,-0.700660
0.290100,-0.585434
0.290200,-0.530255
0.290300,-0.510131
0.290400,-0.540966
0.290500,-0.594847
0.290600,-0.610427
0.290700,-0.630551
0.290800,-0.621787
0.290900,-0.636718
0.291000,-0.647429
0.291100,-0.639315
0.291200,-0.654894
0.291300,-0.712021
0.291400,-0.766551
0.291500,-0.762006
0.291600,-0.826923
0.291700,-0.767200
0.291800,-0.777586
0.291900,-0.694169
0.292000,-0.944097
0.292100,-1.055104
0.292200,-1.068737
0.292300,-0.897357
0.292400,-0.781157
0.292500,-0.817510
0.292600,-0.995056
0.292700,-1.153452
0.292800,-1.116775
0.292900,-0.970713
0.293000,-0.844126
0.293100,-0.848345
0.293200,-0.975581
0.293300,-1.049911
0.293400,-1.014531
0.293500,-0.985968
0.293600,-0.930140
0.293700,-0.977529
0.293800,-0.976231
0.293900,-0.965195
0.294000,-0.789596
0.294100,-0.721758
0.294200,-0.863925
0.294300,-1.051209
0.294400,-0.850617
0.294500,-0.820107
0.294600,-0.581539
0.294700,-0.382246
0.294800,-0.818484
0.294900,-1.111257
0.295000,-1.145987
0.295100,-1.133004
0.295200,-1.140794
0.295300,-1.186884
0.295400,-1.168059
0.295500,-1.121643
0.295600,-1.087887
0.295700,-1.088211
0.295800,-1.030436
0.295900,-0.972011
0.296000,-1.021023
0.296100,-0.975257
0.296200,-1.036278
0.296300,-0.968116
0.296400,-0.927543
0.296500,-0.878531
0.296600,-0.978503
0.296700,-1.162541
0.296800,-1.172603
0.296900,-1.184288
0.297000,-1.211877
0.297100,-1.274522
0.297200,-1.456288
0.297300,-1.580278
0.297400,-1.574111
0.297500,-1.408574
0.297600,-1.309901
0.297700,-1.363133
0.297800,-1.635133
0.297900,-1.775677
0.298000,-1.816899
0.298100,-1.686741
0.298200,-1.572813
0.298300,-1.560803
0.298400,-1.672460
0.298500,-1.798073
0.298600,-1.837348
0.298700,-1.817224
0.298800,-1.739324
0.298900,-1.716603
0.299000,-1.701023
0.299100,-1.736403
0.299200,-1.760422
0.299300,-1.741596
0.299400,-1.719524
0.299500,-1.730885
0.299600,-1.735429
0.299700,-1.783792
0.299800,-1.778274
0.299900,-1.774054
0.300000,-1.774054
0.300100,-1.779247
0.300200,-1.791906
0.300300,-1.677328
0.300400,-1.592937
0.300500,-1.645195
0.300600,-1.804889
0.300700,-1.932775
0.300800,-1.963935
0.300900,-1.800670
0.301000,-1.645519
0.301100,-1.629939
0.301200,-1.767887
0.301300,-1.943162
0.301400,-1.982761
0.301500,-1.894474
0.301600,-1.770484
0.301700,-1.729262
0.301800,-1.737701
0.301900,-1.744842
0.302000,-1.772431
0.302100,-1.746465
0.302200,-1.711410
0.302300,-1.630264
0.302400,-1.553663
0.302500,-1.497834
0.302600,-1.405328
0.302700,-1.373195
0.302800,-1.353720
0.302900,-1.344631
0.303000,-1.347553
0.303100,-1.280364
0.303200,-1.164164
0.303300,-1.138522
0.303400,-1.114827
0.303500,-1.104765
0.303600,-1.007066
0.303700,-0.971362
0.303800,-0.915209
0.303900,-0.824651
0.304000,-0.757462
0.304100,-0.729224
0.304200,-0.730522
0.304300,-0.722407
0.304400,-0.683782
0.304500,-0.728899
0.304600,-0.718188
0.304700,-0.728899
0.304800,-0.699362
0.304900,-0.697090
0.305000,-0.746102
0.305100,-0.721758
0.305200,-0.869119
0.305300,-0.789271
0.305400,-0.869768
0.305500,-0.655219
0.305600,-0.608479
0.305700,-0.566284
0.305800,-0.865548
0.305900,-1.075228
0.306000,-1.028488
0.306100,-0.963572
0.306200,-0.810694
0.306300,-0.767524
0.306400,-0.856460
0.306500,-1.000899
0.306600,-1.075553
0.306700,-1.004469
0.306800,-0.925596
0.306900,-0.847372
0.307000,-0.876584
0.307100,-0.922999
0.307200,-0.986293
0.307300,-1.006417
0.307400,-0.998627
0.307500,-0.991161
0.307600,-1.001873
0.307700,-1.001223
0.307800,-1.019075
0.307900,-1.084641
0.308000,-1.099896
0.308100,-1.178445
0.308200,-1.157347
0.308300,-1.210579
0.308400,-1.139495
0.308500,-1.190130
0.308600,-1.153452
0.308700,-1.396565
0.308800,-1.436813
0.308900,-1.381634
0.309000,-1.193051
0.309100,-1.139171
0.309200,-1.222264
0.309300,-1.425452
0.309400,-1.511467
0.309500,-1.456937
0.309600,-1.288803
0.309700,-1.235572
0.309800,-1.274197
0.309900,-1.374493
0.310000,-1.442655
0.310100,-1.416689
0.310200,-1.440708
0.310300,-1.429672
0.310400,-1.456288
0.310500,-1.428049
0.310600,-1.400784
0.310700,-1.410197
0.310800,-1.408574
0.310900,-1.418312
0.311000,-1.415715
0.311100,-1.406302
0.311200,-1.370598
0.311300,-1.331324
0.311400,-1.349176
0.311500,-1.448498
0.311600,-1.487448
0.311700,-1.488746
0.311800,-1.456288
0.311900,-1.462130
0.312000,-1.503352
0.312100,-1.450445
0.312200,-1.413118
0.312300,-1.394293
0.312400,-1.376116
0.312500,-1.405328
0.312600,-1.385853
0.312700,-1.428374
0.312800,-1.428374
0.312900,-1.439085
0.313000,-1.451419
0.313100,-1.484202
0.313200,-1.505624
0.313300,-1.530942
0.313400,-1.555610
0.313500,-1.556908
0.313600,-1.606245
0.313700,-1.612737
0.313800,-1.745491
0.313900,-1.887658
0.314000,-1.983085
0.314100,-1.869481
0.314200,-1.734130
0.314300,-1.668565
0.314400,-1.786064
0.314500,-2.000288
0.314600,-2.080460
0.314700,-2.000613
0.314800,-1.818197
0.314900,-1.745491
0.315000,-1.802293
0.315100,-1.880517
0.315200,-1.944785
0.315300,-1.911028
0.315400,-1.827610
0.315500,-1.754904
0.315600,-1.729911
0.315700,-1.726016
0.315800,-1.728613
0.315900,-1.681548
0.316000,-1.666293
0.316100,-1.691610
0.316200,-1.701348
0.316300,-1.739324
0.316400,-1.715629
0.316500,-1.677653
0.316600,-1.679601
0.316700,-1.688040
0.316800,-1.682522
0.316900,-1.608842
0.317000,-1.481281
0.317100,-1.421557
0.317200,-1.467648
0.317300,-1.627018
0.317400,-1.685443
0.317500,-1.631238
0.317600,-1.425452
0.317700,-1.309901
0.317800,-1.390398
0.317900,-1.561777
0.318000,-1.671486
0.318100,-1.648441
0.318200,-1.542302
0.318300,-1.448822
0.318400,-1.448822
0.318500,-1.483877
0.318600,-1.487448
0.318700,-1.455314
0.318800,-1.422531
0.318900,-1.422531
0.319000,-1.382283
0.319100,-1.335868
0.319200,-1.256020
0.319300,-1.194999
0.319400,-1.137873
0.319500,-1.175199
0.319600,-1.193051
0.319700,-1.205061
0.319800,-1.111581
0.319900,-1.037577
0.320000,-1.024269
0.320100,-1.026865
0.320200,-0.989863
0.320300,-0.951238
0.320400,-0.915209
0.320500,-0.855162
0.320600,-0.792517
0.320700,-0.777262
0.320800,-0.770446
0.320900,-0.799333
0.321000,-0.807448
0.321100,-0.810045
0.321200,-0.845424
0.321300,-0.827897
0.321400,-0.875286
0.321500,-0.811668
0.321600,-0.877882
0.321700,-0.858407
0.321800,-0.923324
0.321900,-0.911314
0.322000,-0.934360
0.322100,-0.930140
0.322200,-0.704555
0.322300,-0.613023
0.322400,-0.698388
0.322500,-0.984021
0.322600,-1.025567
0.322700,-0.989214
0.322800,-0.850293
0.322900,-0.716890
0.323000,-0.716565
0.323100,-0.834388
0.323200,-0.949615
0.323300,-0.911314
0.323400,-0.795114
0.323500,-0.689625
0.323600,-0.684107
0.323700,-0.736365
0.323800,-0.780508
0.323900,-0.794789
0.324000,-0.778885
0.324100,-0.738637
0.324200,-0.737338
0.324300,-0.758761
0.324400,-0.735715
0.324500,-0.742856
0.324600,-0.808422
0.324700,-0.914235
0.324800,-0.868145
0.324900,-0.945720
0.325000,-0.903200
0.325100,-0.896383
0.325200,-0.863925
0.325300,-0.976231
0.325400,-1.184612
0.325500,-1.221939
0.325600,-1.124565
0.325700,-0.976231
0.325800,-0.969739
0.325900,-1.115801
0.326000,-1.321911
0.326100,-1.367677
0.326200,-1.259915
0.326300,-1.077825
0.326400,-1.059324
0.326500,-1.160593
0.326600,-1.297892
0.326700,-1.324183
0.326800,-1.313796
0.326900,-1.263810
0.327000,-1.277767
0.327100,-1.309901
0.327200,-1.306006
0.327300,-1.286531
0.327400,-1.278092
0.327500,-1.296593
0.327600,-1.313796
0.327700,-1.336841
0.327800,-1.342359
0.327900,-1.316068
0.328000,-1.271600
0.328100,-1.299514
0.328200,-1.389099
0.328300,-1.401433
0.328400,-1.380335
0.328500,-1.371896
0.328600,-1.429997
0.328700,-1.453367
0.328800,-1.371572
0.328900,-1.360536
0.329000,-1.348851
0.329100,-1.364106
0.329200,-1.394293
0.329300,-1.399486
0.329400,-1.392020
0.329500,-1.412469
0.329600,-1.437137
0.329700,-1.470569
0.329800,-1.473815
0.329900,-1.504326
0.330000,-1.525099
0.330100,-1.550092
0.330200,-1.561128
0.330300,-1.615982
0.330400,-1.655581
0.330500,-1.763018
0.330600,-1.965233
0.330700,-1.963286
0.330800,-1.850006
0.330900,-1.664994
0.331000,-1.692584
0.331100,-1.890904
0.331200,-2.071372
0.331300,-2.115840
0.331400,-2.023009
0.331500,-1.861042
0.331600,-1.809434
0.331700,-1.889606
0.331800,-2.020412
0.331900,-2.061310
0.332000,-2.038589
0.332100,-1.981787
0.332200,-1.926933
0.332300,-1.906159
0.332400,-1.940890
0.332500,-1.986007
0.332600,-1.973348
0.332700,-2.007429
0.332800,-1.971076
0.332900,-1.980813
0.333000,-2.013272
0.333100,-2.017167
0.333200,-1.975295
0.333300,-1.992823
0.333400,-1.974971
0.333500,-1.960689
0.333600,-1.852603
0.333700,-1.738350
0.333800,-1.690961
0.333900,-1.793204
0.334000,-1.920441
0.334100,-1.961014
0.334200,-1.848384
0.334300,-1.666942
0.334400,-1.596832
0.334500,-1.667266
0.334600,-1.838321
0.334700,-1.912651
0.334800,-1.858121
0.334900,-1.730885
0.335000,-1.634159
0.335100,-1.574111
0.335200,-1.578331
0.335300,-1.569892
0.335400,-1.554636
0.335500,-1.529319
0.335600,-1.459209
0.335700,-1.347877
0.335800,-1.246283
0.335900,-1.145987
0.336000,-1.076202
0.336100,-1.040173
0.336200,-1.036603
0.336300,-1.001548
0.336400,-0.952861
0.336500,-0.816536
0.336600,-0.766226
0.336700,-0.731496
0.336800,-0.716565
0.336900,-0.613348
0.337000,-0.575696
0.337100,-0.524413
0.337200,-0.481568
0.337300,-0.385167
0.337400,-0.393931
0.337500,-0.395878
0.337600,-0.459496
0.337700,-0.475401
0.337800,-0.525386
0.337900,-0.575696
0.338000,-0.559792
0.338100,-0.591926
0.338200,-0.605233
0.338300,-0.641587
0.338400,-0.689625
0.338500,-0.704555
0.338600,-0.774341
0.338700,-0.740259
0.338800,-0.710073
0.338900,-0.465663
0.339000,-0.490981
0.339100,-0.612374
0.339200,-0.838932
0.339300,-0.825300
0.339400,-0.742207
0.339500,-0.625033
0.339600,-0.533825
0.339700,-0.603611
0.339800,-0.729224
0.339900,-0.822054
0.340000,-0.788298
0.340100,-0.699038
0.340200,-0.631525
0.340300,-0.660412
0.340400,-0.709424
0.340500,-0.767849
0.340600,-0.822703
0.340700,-0.847047
0.340800,-0.842503
0.340900,-0.857434
0.341000,-0.868145
0.341100,-0.882102
0.341200,-0.914235
0.341300,-0.986293
0.341400,-1.023620
0.341500,-1.094379
0.341600,-1.094379
0.341700,-1.084316
0.341800,-1.067438
0.341900,-1.075553
0.342000,-1.265433
0.342100,-1.357615
0.342200,-1.348526
0.342300,-1.182665
0.342400,-1.062894
0.342500,-1.095677
0.342600,-1.243037
0.342700,-1.402732
0.342800,-1.369624
0.342900,-1.202789
0.343000,-1.092756
0.343100,-1.072631
0.343200,-1.195973
0.343300,-1.243037
0.343400,-1.198894
0.343500,-1.226808
0.343600,-1.160593
0.343700,-1.217071
0.343800,-1.180393
0.343900,-1.155400
0.344000,-1.150207
0.344100,-1.180717
0.344200,-1.260889
0.344300,-1.332946
0.344400,-1.363457
0.344500,-1.369624
0.344600,-1.401758
0.344700,-1.438111
0.344800,-1.567944
0.344900,-1.668240
0.345000,-1.711734
0.345100,-1.732183
0.345200,-1.749061
0.345300,-1.838971
0.345400,-1.867534
0.345500,-1.818522
0.345600,-1.824040
0.345700,-1.837997
0.345800,-1.848384
0.345900,-1.850656
0.346000,-1.839944
0.346100,-1.839944
0.346200,-1.839944
0.346300,-1.839944
0.346400,-1.847734
0.346500,-1.834751
0.346600,-1.837672
0.346700,-1.837348
0.346800,-1.858770
0.346900,-1.855200
0.347000,-1.852928
0.347100,-1.903887
0.347200,-2.046379
0.347300,-2.181730
0.347400,-2.104479
0.347500,-1.936995
0.347600,-1.788336
0.347700,-1.875973
0.347800,-2.128823
0.347900,-2.240804
0.348000,-2.245998
0.348100,-2.065854
0.348200,-2.007105
0.348300,-2.033720
0.348400,-2.137587
0.348500,-2.252814
0.348600,-2.239831
0.348700,-2.201854
0.348800,-2.132718
0.348900,-2.133367
0.349000,-2.098312
0.349100,-2.118761
0.349200,-2.119410
0.349300,-2.079811
0.349400,-2.062284
0.349500,-2.038589
0.349600,-2.044107
0.349700,-2.040861
0.349800,-2.023658
0.349900,-1.963286
0.350000,-1.994446
0.350100,-1.973023
0.350200,-1.931152
0.350300,-1.786064
0.350400,-1.695830
0.350500,-1.679276
0.350600,-1.793204
0.350700,-1.889930
0.350800,-1.872078
0.350900,-1.674732
0.351000,-1.514063
0.351100,-1.491992
0.351200,-1.625720
0.351300,-1.742245
0.351400,-1.745166
0.351500,-1.605596
0.351600,-1.463429
0.351700,-1.403056
0.351800,-1.376116
0.351900,-1.365080
0.352000,-1.343333
0.352100,-1.298216
0.352200,-1.254722
0.352300,-1.163515
0.352400,-1.107037
0.352500,-1.013233
0.352600,-0.925920
0.352700,-0.872040
0.352800,-0.863601
0.352900,-0.865224
0.353000,-0.867820
0.353100,-0.790894
0.353200,-0.667878
0.353300,-0.626331
0.353400,-0.616918
0.353500,-0.588680
0.353600,-0.512403
0.353700,-0.485463
0.353800,-0.410160
0.353900,-0.318628
0.354000,-0.275134
0.354100,-0.235535
0.354200,-0.264098
0.354300,-0.274485
0.354400,-0.285520
0.354500,-0.345568
0.354600,-0.347191
0.354700,-0.398150
0.354800,-0.376079
0.354900,-0.441969
0.355000,-0.430933
0.355100,-0.539992
0.355200,-0.525711
0.355300,-0.609453
0.355400,-0.588031
0.355500,-0.504938
0.355600,-0.281950
0.355700,-0.417950
0.355800,-0.671448
0.355900,-0.811668
0.356000,-0.857758
0.356100,-0.692221
0.356200,-0.562389
0.356300,-0.510131
0.356400,-0.629252
0.356500,-0.770770
0.356600,-0.794140
0.356700,-0.751944
0.356800,-0.629902
0.356900,-0.604909
0.357000,-0.646780
0.357100,-0.700011
0.357200,-0.760059
0.357300,-0.777586
0.357400,-0.776937
0.357500,-0.774341
0.357600,-0.796088
0.357700,-0.819782
0.357800,-0.861978
0.357900,-0.895085
0.358000,-1.000899
0.358100,-0.990837
0.358200,-1.047963
0.358300,-1.065491
0.358400,-1.058025
0.358500,-1.051858
0.358600,-1.077176
0.358700,-1.294321
0.358800,-1.374493
0.358900,-1.285233
0.359000,-1.123591
0.359100,-1.004469
0.359200,-1.102493
0.359300,-1.255371
0.359400,-1.333271
0.359500,-1.237844
0.359600,-1.035629
0.359700,-0.924622
0.359800,-0.924622
0.359900,-1.011610
0.360000,-1.015830
0.360100,-0.984994
0.360200,-0.957729
0.360300,-0.900928
0.360400,-0.933386
0.360500,-0.739286
0.360600,-0.555248
0.360700,-0.526035
0.360800,-0.369912
0.360900,-0.422818
0.361000,-0.441969
0.361100,-0.297530
0.361200,0.020236
0.361300,0.295481
0.361400,0.273734
0.361500,-0.250141
0.361600,-0.384518
0.361700,-0.405291
0.361800,-0.170943
0.361900,-0.203077
0.362000,-0.567582
0.362100,-0.123229
0.362200,-0.133616
0.362300,-0.094017
0.362400,-0.157960
0.362500,-0.225797
0.362600,-0.314084
0.362700,-0.270265
0.362800,-0.242026
0.362900,-0.430284
0.363000,-0.496174
0.363100,-0.597443
0.363200,-0.704880
0.363300,-0.904498
0.363400,-1.060622
0.363500,-1.180068
0.363600,-1.221939
0.363700,-1.283935
0.363800,-1.418312
0.363900,-1.645844
0.364000,-1.712383
0.364100,-1.667591
0.364200,-1.568593
0.364300,-1.510493
0.364400,-1.687391
0.364500,-1.921739
0.364600,-1.997367
0.364700,-2.011324
0.364800,-1.856823
0.364900,-1.786713
0.365000,-1.840918
0.365100,-1.924336
0.365200,-2.016842
0.365300,-2.006455
0.365400,-1.954198
0.365500,-1.893501
0.365600,-1.844489
0.365700,-1.837348
0.365800,-1.849357
0.365900,-1.861691
0.366000,-1.830856
0.366100,-1.848708
0.366200,-1.831830
0.366300,-1.839944
0.366400,-1.891553
0.366500,-1.879544
0.366600,-1.863314
0.366700,-1.908756
0.366800,-1.876622
0.366900,-1.827935
0.367000,-1.657204
0.367100,-1.611763
0.367200,-1.684469
0.367300,-1.806837
0.367400,-1.865911
0.367500,-1.793204
0.367600,-1.592288
0.367700,-1.489720
0.367800,-1.501405
0.367900,-1.652660
0.368000,-1.695181
0.368100,-1.643896
0.368200,-1.523152
0.368300,-1.421882
0.368400,-1.377739
0.368500,-1.337815
0.368600,-1.299514
0.368700,-1.267381
0.368800,-1.219992
0.368900,-1.211877
0.369000,-1.144040
0.369100,-1.070359
0.369200,-1.015180
0.369300,-0.946694
0.369400,-0.925920
0.369500,-0.943448
0.369600,-0.974608
0.369700,-1.009013
0.369800,-0.925271
0.369900,-0.876584
0.370000,-0.882102
0.370100,-0.890541
0.370200,-0.848670
0.370300,-0.818159
0.370400,-0.786675
0.370500,-0.747725
0.370600,-0.688976
0.370700,-0.701310
0.370800,-0.690598
0.370900,-0.736689
0.371000,-0.716890
0.371100,-0.752594
0.371200,-0.781157
0.371300,-0.787648
0.371400,-0.794789
0.371500,-0.787324
0.371600,-0.793491
0.371700,-0.817185
0.371800,-0.898006
0.371900,-0.876584
0.372000,-0.959352
0.372100,-0.831467
0.372200,-0.751620
0.372300,-0.566933
0.372400,-0.768174
0.372500,-0.914560
0.372600,-1.121643
0.372700,-0.965844
0.372800,-0.884698
0.372900,-0.762656
0.373000,-0.758111
0.373100,-0.873014
0.373200,-0.972336
0.373300,-0.951238
0.373400,-0.820756
0.373500,-0.719162
0.373600,-0.701959
0.373700,-0.737987
0.373800,-0.759734
0.373900,-0.763954
0.374000,-0.762331
0.374100,-0.750322
0.374200,-0.762980
0.374300,-0.767200
0.374400,-0.759085
0.374500,-0.742856
0.374600,-0.776288
0.374700,-0.881453
0.374800,-0.826923
0.374900,-0.920402
0.375000,-0.842178
0.375100,-0.829520
0.375200,-0.792517
0.375300,-0.972336
0.375400,-1.188507
0.375500,-1.193701
0.375600,-1.067438
0.375700,-0.940527
0.375800,-0.948966
0.375900,-1.108660
0.376000,-1.316068
0.376100,-1.353720
0.376200,-1.267381
0.376300,-1.108985
0.376400,-1.104765
0.376500,-1.222588
0.376600,-1.324832
0.376700,-1.331324
0.376800,-1.302436
0.376900,-1.254073
0.377000,-1.248230
0.377100,-1.287180
0.377200,-1.279715
0.377300,-1.241414
0.377400,-1.220966
0.377500,-1.241090
0.377600,-1.274197
0.377700,-1.304708
0.377800,-1.307629
0.377900,-1.308278
0.378000,-1.282312
0.378100,-1.315094
0.378200,-1.427725
0.378300,-1.452068
0.378400,-1.453042
0.378500,-1.455639
0.378600,-1.516985
0.378700,-1.546522
0.378800,-1.474789
0.378900,-1.472517
0.379000,-1.454340
0.379100,-1.450770
0.379200,-1.448822
0.379300,-1.451094
0.379400,-1.446875
0.379500,-1.433892
0.379600,-1.432918
0.379700,-1.433567
0.379800,-1.433892
0.379900,-1.450770
0.380000,-1.438760
0.380100,-1.469920
0.380200,-1.460183
0.380300,-1.499133
0.380400,-1.530942
0.380500,-1.696154
0.380600,-1.837997
0.380700,-1.849357
0.380800,-1.659476
0.380900,-1.484202
0.381000,-1.496536
0.381100,-1.714006
0.381200,-1.922713
0.381300,-1.920116
0.381400,-1.842541
0.381500,-1.676679
0.381600,-1.648116
0.381700,-1.724393
0.381800,-1.834751
0.381900,-1.873052
0.382000,-1.853252
0.382100,-1.793204
0.382200,-1.757500
0.382300,-1.783792
0.382400,-1.830856
0.382500,-1.878570
0.382600,-1.887658
0.382700,-1.894150
0.382800,-1.924011
0.382900,-1.952250
0.383000,-2.000288
0.383100,-2.028852
0.383200,-2.031448
0.383300,-2.035343
0.383400,-2.053845
0.383500,-2.034694
0.383600,-1.963286
0.383700,-1.818847
0.383800,-1.787687
0.383900,-1.879868
0.384000,-2.023983
0.384100,-2.066828
0.384200,-1.919143
0.384300,-1.716278
0.384400,-1.652985
0.384500,-1.738025
0.384600,-1.910703
0.384700,-1.984384
0.384800,-1.911677
0.384900,-1.775677
0.385000,-1.665319
0.385100,-1.639352
0.385200,-1.635457
0.385300,-1.637080
0.385400,-1.596507
0.385500,-1.520231
0.385600,-1.417013
0.385700,-1.310875
0.385800,-1.215123
0.385900,-1.102168
0.386000,-0.990512
0.386100,-0.905472
0.386200,-0.873014
0.386300,-0.829195
0.386400,-0.751944
0.386500,-0.614971
0.386600,-0.542589
0.386700,-0.489682
0.386800,-0.465988
0.386900,-0.368938
0.387000,-0.328365
0.387100,-0.266045
0.387200,-0.213139
0.387300,-0.122905
0.387400,-0.123879
0.387500,-0.126151
0.387600,-0.179058
0.387700,-0.188146
0.387800,-0.200805
0.387900,-0.276432
0.388000,-0.258255
0.388100,-0.309215
0.388200,-0.295582
0.388300,-0.429310
0.388400,-0.410160
0.388500,-0.537396
0.388600,-0.613348
0.388700,-0.650026
0.388800,-0.600040
0.388900,-0.517596
0.389000,-0.493902
0.389100,-0.736040
0.389200,-0.985643
0.389300,-1.056727
0.389400,-1.030111
0.389500,-0.923324
0.389600,-0.869768
0.389700,-0.943772
0.389800,-1.114178
0.389900,-1.219018
0.390000,-1.187209
0.390100,-1.080097
0.390200,-1.014207
0.390300,-1.062245
0.390400,-1.108336
0.390500,-1.161567
0.390600,-1.159944
0.390700,-1.182340
0.390800,-1.170006
0.390900,-1.145013
0.391000,-1.149233
0.391100,-1.163190
0.391200,-1.209605
0.391300,-1.210904
0.391400,-1.269653
0.391500,-1.243362
0.391600,-1.328078
0.391700,-1.232651
0.391800,-1.257968
0.391900,-1.219018
0.392000,-1.367028
0.392100,-1.476736
0.392200,-1.412145
0.392300,-1.284259
0.392400,-1.144364
0.392500,-1.213176
0.392600,-1.352421
0.392700,-1.492641
0.392800,-1.462130
0.392900,-1.323209
0.393000,-1.228756
0.393100,-1.223562
0.393200,-1.339114
0.393300,-1.414092
0.393400,-1.417662
0.393500,-1.460507
0.393600,-1.440708
0.393700,-1.488421
0.393800,-1.465701
0.393900,-1.469596
0.394000,-1.469920
0.394100,-1.466025
0.394200,-1.501405
0.394300,-1.511791
0.394400,-1.520555
0.394500,-1.485825
0.394600,-1.475763
0.394700,-1.466674
0.394800,-1.538407
0.394900,-1.586770
0.395000,-1.584498
0.395100,-1.565023
0.395200,-1.553338
0.395300,-1.585472
0.395400,-1.566321
0.395500,-1.500431
0.395600,-1.458884
0.395700,-1.449147
0.395800,-1.439085
0.395900,-1.432593
0.396000,-1.416040
0.396100,-1.381634
0.396200,-1.397214
0.396300,-1.363133
0.396400,-1.361510
0.396500,-1.356966
0.396600,-1.340087
0.396700,-1.338140
0.396800,-1.343333
0.396900,-1.361510
0.397000,-1.364106
0.397100,-1.410197
0.397200,-1.566970
0.397300,-1.724718
0.397400,-1.658827
0.397500,-1.473815
0.397600,-1.414741
0.397700,-1.470894
0.397800,-1.727314
0.397900,-1.892527
0.398000,-1.873701
0.398100,-1.745815
0.398200,-1.657204
0.398300,-1.697777
0.398400,-1.757176
0.398500,-1.857472
0.398600,-1.879868
0.398700,-1.863964
0.398800,-1.779897
0.398900,-1.787362
0.399000,-1.755877
0.399100,-1.777625
0.399200,-1.768536
0.399300,-1.788660
0.399400,-1.797099
0.399500,-1.788985
0.399600,-1.821768
0.399700,-1.862665
0.399800,-1.815276
0.399900,-1.827935
0.400000,-1.825338
0.400100,-1.847734
0.400200,-1.816574
0.400300,-1.692259
0.400400,-1.619553
0.400500,-1.640326
0.400600,-1.779247
0.400700,-1.882789
0.400800,-1.866885
0.400900,-1.708164
0.401000,-1.555935
0.401100,-1.573462
0.401200,-1.700698
0.401300,-1.844164
0.401400,-1.846436
0.401500,-1.726990
0.401600,-1.621176
0.401700,-1.580927
0.401800,-1.574436
0.401900,-1.585796
0.402000,-1.558531
0.402100,-1.526398
0.402200,-1.506598
0.402300,-1.457586
0.402400,-1.411171
0.402500,-1.332946
0.402600,-1.271600
0.402700,-1.246608
0.402800,-1.261538
0.402900,-1.302111
0.403000,-1.325806
0.403100,-1.259591
0.403200,-1.160269
0.403300,-1.139820
0.403400,-1.158646
0.403500,-1.132030
0.403600,-1.058999
0.403700,-1.020698
0.403800,-0.957080
0.403900,-0.878856
0.404000,-0.845749
0.404100,-0.809395
0.404200,-0.827897
0.404300,-0.826598
0.404400,-0.853214
0.404500,-0.877882
0.404600,-0.907419
0.404700,-0.881453
0.404800,-0.900278
0.404900,-0.865548
0.405000,-0.898980
0.405100,-0.864899
0.405200,-0.949290
0.405300,-0.842827
0.405400,-0.903524
0.405500,-0.647104
0.405600,-0.564661
0.405700,-0.558818
0.405800,-0.865224
0.405900,-1.063219
0.406000,-0.985968
0.406100,-0.924947
0.406200,-0.801605
0.406300,-0.813290
0.406400,-0.962598
0.406500,-1.149233
0.406600,-1.200841
0.406700,-1.164164
0.406800,-1.105739
0.406900,-1.111257
0.407000,-1.199219
0.407100,-1.261538
0.407200,-1.318989
0.407300,-1.343982
0.407400,-1.350474
0.407500,-1.363457
0.407600,-1.386503
0.407700,-1.377739
0.407800,-1.404355
0.407900,-1.476736
0.408000,-1.517634
0.408100,-1.550741
0.408200,-1.572164
0.408300,-1.635457
0.408400,-1.568918
0.408500,-1.603648
0.408600,-1.597157
0.408700,-1.910703
0.408800,-1.953873
0.408900,-1.878570
0.409000,-1.736078
0.409100,-1.644870
0.409200,-1.783142
0.409300,-1.995420
0.409400,-2.116489
0.409500,-2.035992
0.409600,-1.840594
0.409700,-1.740298
0.409800,-1.820469
0.409900,-1.926283
0.410000,-1.946083
0.410100,-1.912651
0.410200,-1.879868
0.410300,-1.831505
0.410400,-1.873701
0.410500,-1.852279
0.410600,-1.817224
0.410700,-1.784441
0.410800,-1.768536
0.410900,-1.795152
0.411000,-1.782818
0.411100,-1.776002
0.411200,-1.741271
0.411300,-1.698102
0.411400,-1.694856
0.411500,-1.753930
0.411600,-1.759448
0.411700,-1.704593
0.411800,-1.660450
0.411900,-1.658503
0.412000,-1.642598
0.412100,-1.533214
0.412200,-1.491667
0.412300,-1.454665
0.412400,-1.410522
0.412500,-1.374818
0.412600,-1.342035
0.412700,-1.316068
0.412800,-1.300164
0.412900,-1.286207
0.413000,-1.298216
0.413100,-1.279066
0.413200,-1.283935
0.413300,-1.284584
0.413400,-1.290102
0.413500,-1.302436
0.413600,-1.308278
0.413700,-1.321261
0.413800,-1.424803
0.413900,-1.592288
0.414000,-1.660450
0.414100,-1.495238
0.414200,-1.315744
0.414300,-1.222913
0.414400,-1.424479
0.414500,-1.611438
0.414600,-1.685118
0.414700,-1.580927
0.414800,-1.400135
0.414900,-1.265109
0.415000,-1.299839
0.415100,-1.360211
0.415200,-1.385853
0.415300,-1.316068
0.415400,-1.204412
0.415500,-1.083992
0.415600,-1.007715
0.415700,-0.958703
0.415800,-0.943123
0.415900,-0.879505
0.416000,-0.824651
0.416100,-0.780832
0.416200,-0.736689
0.416300,-0.708126
0.416400,-0.691897
0.416500,-0.656517
0.416600,-0.639639
0.416700,-0.588680
0.416800,-0.572126
0.416900,-0.477348
0.417000,-0.346217
0.417100,-0.239754
0.417200,-0.321873
0.417300,-0.488059
0.417400,-0.581864
0.417500,-0.508833
0.417600,-0.332585
0.417700,-0.214437
0.417800,-0.280327
0.417900,-0.458847
0.418000,-0.581214
0.418100,-0.571477
0.418200,-0.469883
0.418300,-0.372508
0.418400,-0.383869
0.418500,-0.400422
0.418600,-0.431907
0.418700,-0.447162
0.418800,-0.439048
0.418900,-0.405616
0.419000,-0.346217
0.419100,-0.301100
0.419200,-0.221253
0.419300,-0.163153
0.419400,-0.148222
0.419500,-0.170943
0.419600,-0.195611
0.419700,-0.223525
0.419800,-0.149196
0.419900,-0.107650
0.420000,-0.129397
0.420100,-0.152117
0.420200,-0.100833
0.420300,-0.128747
0.420400,-0.136862
0.420500,-0.158933
0.420600,-0.129072
0.420700,-0.150819
0.420800,-0.193664
0.420900,-0.295582
0.421000,-0.331286
0.421100,-0.435477
0.421200,-0.481892
0.421300,-0.551028
0.421400,-0.580565
0.421500,-0.655219
0.421600,-0.715916
0.421700,-0.738637
0.421800,-0.837309
0.421900,-0.824002
0.422000,-0.948966
0.422100,-0.825625
0.422200,-0.786999
0.422300,-0.673720
0.422400,-0.869443
0.422500,-1.130732
0.422600,-1.145338
0.422700,-1.136250
0.422800,-0.983696
0.422900,-0.908718
0.423000,-0.906770
0.423100,-1.053481
0.423200,-1.154751
0.423300,-1.154426
0.423400,-1.075553
0.423500,-0.947667
0.423600,-0.938579
0.423700,-0.957080
0.423800,-0.992135
0.423900,-1.003820
0.424000,-1.001873
0.424100,-0.959352
0.424200,-0.917481
0.424300,-0.887620
0.424400,-0.883400
0.424500,-0.877882
0.424600,-0.921701
0.424700,-0.955457
0.424800,-0.923324
0.424900,-0.949939
0.425000,-0.975906
0.425100,-0.921052
0.425200,-0.935333
0.425300,-1.038226
0.425400,-1.265433
0.425500,-1.231028
0.425600,-1.132679
0.425700,-0.947018
0.425800,-0.968765
0.425900,-1.103467
0.426000,-1.287505
0.426100,-1.290751
0.426200,-1.176173
0.426300,-1.012259
0.426400,-0.976231
0.426500,-1.069710
0.426600,-1.153128
0.426700,-1.115152
0.426800,-1.112880
0.426900,-1.079123
0.427000,-1.098273
0.427100,-1.075228
0.427200,-1.020374
0.427300,-0.947667
0.427400,-0.764279
0.427500,-0.635420
0.427600,-0.667553
0.427700,-0.510131
0.427800,-0.170943
0.427900,0.081906
0.428000,0.319824
0.428100,-0.075841
0.428200,-0.576670
0.428300,-0.659439
0.428400,-0.638665
0.428500,-0.431582
0.428600,-0.811018
0.428700,-0.811018
0.428800,-0.393281
0.428900,-0.400422
0.429000,-0.382895
0.429100,-0.411133
0.429200,-0.369912
0.429300,-0.460794
0.429400,-0.534799
0.429500,-0.717863
0.429600,-0.763954
0.429700,-0.801930
0.429800,-0.938255
0.429900,-0.982073
0.430000,-1.164813
0.430100,-1.084641
0.430200,-1.240116
0.430300,-1.263810
0.430400,-1.374168
0.430500,-1.557557
0.430600,-1.759772
0.430700,-1.794503
0.430800,-1.641300
0.430900,-1.552040
0.431000,-1.550741
0.431100,-1.852928
0.431200,-2.028852
0.431300,-2.095716
0.431400,-1.991200
0.431500,-1.856174
0.431600,-1.870455
0.431700,-1.976918
0.431800,-2.107725
0.431900,-2.173291
0.432000,-2.168747
0.432100,-2.119735
0.432200,-2.088575
0.432300,-2.115515
0.432400,-2.142780
0.432500,-2.153816
0.432600,-2.175563
0.432700,-2.189845
0.432800,-2.214513
0.432900,-2.259630
0.433000,-2.311239
0.433100,-2.315783
0.433200,-2.307344
0.433300,-2.313186
0.433400,-2.352461
0.433500,-2.317081
0.433600,-2.243401
0.433700,-2.107076
0.433800,-2.108050
0.433900,-2.243401
0.434000,-2.377454
0.434100,-2.424843
0.434200,-2.290790
0.434300,-2.117138
0.434400,-2.089224
0.434500,-2.218733
0.434600,-2.404719
0.434700,-2.469960
0.434800,-2.386867
0.434900,-2.265797
0.435000,-2.211592
0.435100,-2.224575
0.435200,-2.224900
0.435300,-2.221654
0.435400,-2.183353
0.435500,-2.144403
0.435600,-2.096689
0.435700,-1.994770
0.435800,-1.891878
0.435900,-1.788660
0.436000,-1.677004
0.436100,-1.651037
0.436200,-1.639352
0.436300,-1.616632
0.436400,-1.561777
0.436500,-1.432918
0.436600,-1.400784
0.436700,-1.375467
0.436800,-1.366703
0.436900,-1.287180
0.437000,-1.239142
0.437100,-1.168708
0.437200,-1.099247
0.437300,-1.003820
0.437400,-0.978178
0.437500,-0.962274
0.437600,-0.959677
0.437700,-0.960651
0.437800,-0.915534
0.437900,-0.972336
0.438000,-0.904173
0.438100,-0.904173
0.438200,-0.868145
0.438300,-0.879505
0.438400,-0.856784
0.438500,-0.892488
0.438600,-0.886646
0.438700,-0.859706
0.438800,-0.730847
0.438900,-0.502341
0.439000,-0.442293
0.439100,-0.547458
0.439200,-0.725004
0.439300,-0.662035
0.439400,-0.556546
0.439500,-0.368289
0.439600,-0.226122
0.439700,-0.271239
0.439800,-0.366990
0.439900,-0.437749
0.440000,-0.347515
0.440100,-0.241053
0.440200,-0.148871
0.440300,-0.159258
0.440400,-0.226446
0.440500,-0.258255
0.440600,-0.288117
0.440700,-0.268642
0.440800,-0.249816
0.440900,-0.267019
0.441000,-0.267019
0.441100,-0.300127
0.441200,-0.382570
0.441300,-0.412756
0.441400,-0.475076
0.441500,-0.453654
0.441600,-0.564012
0.441700,-0.544212
0.441800,-0.558169
0.441900,-0.616594
0.442000,-0.808422
0.442100,-0.973634
0.442200,-0.965519
0.442300,-0.847047
0.442400,-0.729548
0.442500,-0.806799
0.442600,-1.001873
0.442700,-1.189481
0.442800,-1.171304
0.442900,-1.044393
0.443000,-0.941500
0.443100,-0.972985
0.443200,-1.124565
0.443300,-1.213176
0.443400,-1.220966
0.443500,-1.258293
0.443600,-1.245309
0.443700,-1.311199
0.443800,-1.326455
0.443900,-1.337491
0.444000,-1.359562
0.444100,-1.357615
0.444200,-1.401109
0.444300,-1.443954
0.444400,-1.503028
0.444500,-1.522503
0.444600,-1.522827
0.444700,-1.556259
0.444800,-1.683496
0.444900,-1.793204
0.445000,-1.813978
0.445100,-1.825338
0.445200,-1.851954
0.445300,-1.909081
0.445400,-1.918493
0.445500,-1.872727
0.445600,-1.864613
0.445700,-1.847410
0.445800,-1.834751
0.445900,-1.817224
0.446000,-1.772107
0.446100,-1.758799
0.446200,-1.735429
0.446300,-1.727314
0.446400,-1.701672
0.446500,-1.719200
0.446600,-1.721796
0.446700,-1.707190
0.446800,-1.709462
0.446900,-1.768536
0.447000,-1.791257
0.447100,-1.858446
0.447200,-2.103830
0.447300,-2.231716
0.447400,-2.208995
0.447500,-2.044756
0.447600,-1.998990
0.447700,-2.103181
0.447800,-2.401798
0.447900,-2.579345
0.448000,-2.587784
0.448100,-2.473531
0.448200,-2.335907
0.448300,-2.352786
0.448400,-2.429387
0.448500,-2.517999
0.448600,-2.510209
0.448700,-2.451134
0.448800,-2.339153
0.448900,-2.285272
0.449000,-2.222952
0.449100,-2.205100
0.449200,-2.136613
0.449300,-2.084680
0.449400,-2.026255
0.449500,-1.981787
0.449600,-1.968804
0.449700,-1.945434
0.449800,-1.895448
0.449900,-1.849682
0.450000,-1.786388
0.450100,-1.752632
0.450200,-1.670837
0.450300,-1.528345
0.450400,-1.407925
0.450500,-1.457586
0.450600,-1.609491
0.450700,-1.689663
0.450800,-1.683820
0.450900,-1.536135
0.451000,-1.407276
0.451100,-1.443954
0.451200,-1.588068
0.451300,-1.727639
0.451400,-1.754904
0.451500,-1.656880
0.451600,-1.572164
0.451700,-1.520880
0.451800,-1.513414
0.451900,-1.542302
0.452000,-1.528020
0.452100,-1.505624
0.452200,-1.487448
0.452300,-1.403705
0.452400,-1.338464
0.452500,-1.268030
0.452600,-1.192078
0.452700,-1.169032
0.452800,-1.181042
0.452900,-1.216746
0.453000,-1.226483
0.453100,-1.162865
0.453200,-1.067438
0.453300,-1.070684
0.453400,-1.089510
0.453500,-1.071333
0.453600,-1.009013
0.453700,-0.977204
0.453800,-0.937281
0.453900,-0.890216
0.454000,-0.864574
0.454100,-0.828870
0.454200,-0.857109
0.454300,-0.857434
0.454400,-0.879181
0.454500,-0.924947
0.454600,-0.913586
0.454700,-0.922025
0.454800,-0.858083
0.454900,-0.926245
0.455000,-0.897682
0.455100,-0.988565
0.455200,-1.027515
0.455300,-1.042445
0.455400,-1.009663
0.455500,-0.895085
0.455600,-0.681835
0.455700,-0.790245
0.455800,-1.013233
0.455900,-1.126188
0.456000,-1.153452
0.456100,-1.082369
0.456200,-0.947667
0.456300,-0.917157
0.456400,-1.046665
0.456500,-1.187858
0.456600,-1.221290
0.456700,-1.154751
0.456800,-1.044068
0.456900,-1.040498
0.457000,-1.075228
0.457100,-1.118398
0.457200,-1.145987
0.457300,-1.171304
0.457400,-1.163190
0.457500,-1.156374
0.457600,-1.172278
0.457700,-1.138522
0.457800,-1.152154
0.457900,-1.213176
0.458000,-1.261863
0.458100,-1.282636
0.458200,-1.273548
0.458300,-1.269328
0.458400,-1.217395
0.458500,-1.167734
0.458600,-1.229405
0.458700,-1.432918
0.458800,-1.448173
0.458900,-1.333920
0.459000,-1.185586
0.459100,-1.066140
0.459200,-1.210579
0.459300,-1.382608
0.459400,-1.454016
0.459500,-1.353395
0.459600,-1.151180
0.459700,-1.069386
0.459800,-1.131381
0.459900,-1.238168
0.460000,-1.220316
0.460100,-1.165462
0.460200,-1.116775
0.460300,-1.081395
0.460400,-1.117099
0.460500,-1.077825
0.460600,-1.070035
0.460700,-1.030760
0.460800,-1.030436
0.460900,-1.069386
0.461000,-1.046016
0.461100,-0.968765
0.461200,-0.679887
0.461300,-0.381921
0.461400,-0.483515
0.461500,-1.076851
0.461600,-1.142741
0.461700,-1.146312
0.461800,-1.024269
0.461900,-1.148908
0.462000,-1.178121
0.462100,-0.938255
0.462200,-0.889243
0.462300,-0.750971
0.462400,-0.792193
0.462500,-0.799983
0.462600,-0.793491
0.462700,-0.885672
0.462800,-0.787973
0.462900,-0.890216
0.463000,-0.900928
0.463100,-1.051858
0.463200,-1.215772
0.463300,-1.113204
0.463400,-1.152803
0.463500,-1.192402
0.463600,-1.242388
0.463700,-1.274522
0.463800,-1.376116
0.463900,-1.581901
0.464000,-1.597157
0.464100,-1.518608
0.464200,-1.359562
0.464300,-1.344956
0.464400,-1.548794
0.464500,-1.778274
0.464600,-1.908756
0.464700,-1.832154
0.464800,-1.699076
0.464900,-1.656231
0.465000,-1.724718
0.465100,-1.875973
0.465200,-1.944460
0.465300,-1.942188
0.465400,-1.874999
0.465500,-1.857472
0.465600,-1.842866
0.465700,-1.882789
0.465800,-1.874675
0.465900,-1.893176
0.466000,-1.872403
0.466100,-1.928556
0.466200,-1.938942
0.466300,-1.970102
0.466400,-1.948030
0.466500,-1.956794
0.466600,-1.921090
0.466700,-1.957443
0.466800,-1.953548
0.466900,-1.936670
0.467000,-1.806512
0.467100,-1.774054
0.467200,-1.853577
0.467300,-2.025606
0.467400,-2.098637
0.467500,-2.011000
0.467600,-1.850006
0.467700,-1.760097
0.467800,-1.858446
0.467900,-2.050599
0.468000,-2.158036
0.468100,-2.129148
0.468200,-1.997692
0.468300,-1.916871
0.468400,-1.928556
0.468500,-1.951601
0.468600,-1.992174
0.468700,-1.973348
0.468800,-1.924661
0.468900,-1.895448
0.469000,-1.816574
0.469100,-1.748412
0.469200,-1.666293
0.469300,-1.573137
0.469400,-1.523152
0.469500,-1.486799
0.469600,-1.442331
0.469700,-1.402407
0.469800,-1.262837
0.469900,-1.171954
0.470000,-1.120345
0.470100,-1.082694
0.470200,-0.992784
0.470300,-0.949939
0.470400,-0.882426
0.470500,-0.798035
0.470600,-0.715267
0.470700,-0.699687
0.470800,-0.689625
0.470900,-0.724030
0.471000,-0.757462
0.471100,-0.763305
0.471200,-0.828870
0.471300,-0.756813
0.471400,-0.823028
0.471500,-0.799658
0.471600,-0.872364
0.471700,-0.872040
0.471800,-0.916183
0.471900,-0.918455
0.472000,-0.917481
0.472100,-0.859706
0.472200,-0.681835
0.472300,-0.612050
0.472400,-0.758111
0.472500,-1.008689
0.472600,-1.048612
0.472700,-0.990512
0.472800,-0.835037
0.472900,-0.719811
0.473000,-0.744154
0.473100,-0.890541
0.473200,-0.994083
0.473300,-0.954159
0.473400,-0.845424
0.473500,-0.735066
0.473600,-0.727601
0.473700,-0.766226
0.473800,-0.844126
0.473900,-0.874636
0.474000,-0.895410
0.474100,-0.904823
0.474200,-0.917481
0.474300,-0.922350
0.474400,-0.957405
0.474500,-1.022321
0.474600,-1.066789
0.474700,-1.187209
0.474800,-1.144040
0.474900,-1.289452
0.475000,-1.237844
0.475100,-1.249204
0.475200,-1.238493
0.475300,-1.363457
0.475400,-1.563725
0.475500,-1.555610
0.475600,-1.443954
0.475700,-1.297892
0.475800,-1.296918
0.475900,-1.428374
0.476000,-1.655906
0.476100,-1.644870
0.476200,-1.557233
0.476300,-1.374493
0.476400,-1.350474
0.476500,-1.442006
0.476600,-1.555610
0.476700,-1.556259
0.476800,-1.528994
0.476900,-1.477710
0.477000,-1.483877
0.477100,-1.487772
0.477200,-1.450445
0.477300,-1.411171
0.477400,-1.377414
0.477500,-1.368651
0.477600,-1.389099
0.477700,-1.379362
0.477800,-1.354693
0.477900,-1.311524
0.478000,-1.283935
0.478100,-1.353071
0.478200,-1.423180
0.478300,-1.403381
0.478400,-1.387152
0.478500,-1.373844
0.478600,-1.438436
0.478700,-1.434541
0.478800,-1.355018
0.478900,-1.351772
0.479000,-1.364106
0.479100,-1.384555
0.479200,-1.401433
0.479300,-1.392345
0.479400,-1.432918
0.479500,-1.439409
0.479600,-1.465051
0.479700,-1.456612
0.479800,-1.449796
0.479900,-1.498808
0.480000,-1.510818
0.480100,-1.554312
0.480200,-1.585147
0.480300,-1.647142
0.480400,-1.705892
0.480500,-1.879219
0.480600,-2.083706
0.480700,-2.062608
0.480800,-1.974646
0.480900,-1.813004
0.481000,-1.896746
0.481100,-2.126551
0.481200,-2.287869
0.481300,-2.358628
0.481400,-2.211592
0.481500,-2.117138
0.481600,-2.094742
0.481700,-2.176537
0.481800,-2.263201
0.481900,-2.302800
0.482000,-2.263201
0.482100,-2.205100
0.482200,-2.140508
0.482300,-2.133043
0.482400,-2.128823
0.482500,-2.156413
0.482600,-2.149272
0.482700,-2.174914
0.482800,-2.152842
0.482900,-2.176212
0.483000,-2.186924
0.483100,-2.196661
0.483200,-2.184976
0.483300,-2.184002
0.483400,-2.172317
0.483500,-2.153167
0.483600,-2.022360
0.483700,-1.896422
0.483800,-1.887983
0.483900,-1.963286
0.484000,-2.077539
0.484100,-2.127525
0.484200,-1.979515
0.484300,-1.799696
0.484400,-1.750684
0.484500,-1.852603
0.484600,-2.024632
0.484700,-2.085005
0.484800,-2.000288
0.484900,-1.894150
0.485000,-1.820145
0.485100,-1.798722
0.485200,-1.831505
0.485300,-1.837672
0.485400,-1.806837
0.485500,-1.760422
0.485600,-1.702646
0.485700,-1.621176
0.485800,-1.538732
0.485900,-1.449472
0.486000,-1.381634
0.486100,-1.341386
0.486200,-1.339763
0.486300,-1.317042
0.486400,-1.263810
0.486500,-1.132355
0.486600,-1.089185
0.486700,-1.059973
0.486800,-1.032383
0.486900,-0.936632
0.487000,-0.889243
0.487100,-0.828546
0.487200,-0.775964
0.487300,-0.697415
0.487400,-0.693195
0.487500,-0.698064
0.487600,-0.774016
0.487700,-0.778885
0.487800,-0.823028
0.487900,-0.852240
0.488000,-0.867496
0.488100,-0.910990
0.488200,-0.929815
0.488300,-0.997328
0.488400,-1.015830
0.488500,-1.096326
0.488600,-1.149882
0.488700,-1.120994
0.488800,-1.052832
0.488900,-0.795114
0.489000,-0.876909
0.489100,-1.050560
0.489200,-1.323534
0.489300,-1.255371
0.489400,-1.210904
0.489500,-1.054779
0.489600,-1.003496
0.489700,-1.096975
0.489800,-1.242063
0.489900,-1.315094
0.490000,-1.259915
0.490100,-1.178121
0.490200,-1.129109
0.490300,-1.133978
0.490400,-1.195324
0.490500,-1.241090
0.490600,-1.240116
0.490700,-1.216746
0.490800,-1.207009
0.490900,-1.197920
0.491000,-1.204412
0.491100,-1.180068
0.491200,-1.180068
0.491300,-1.251152
0.491400,-1.282961
0.491500,-1.299190
0.491600,-1.331324
0.491700,-1.269328
0.491800,-1.273548
0.491900,-1.287180
0.492000,-1.511142
0.492100,-1.602674
0.492200,-1.553663
0.492300,-1.442655
0.492400,-1.301462
0.492500,-1.390073
0.492600,-1.564374
0.492700,-1.734130
0.492800,-1.681223
0.492900,-1.551715
0.493000,-1.442006
0.493100,-1.444278
0.493200,-1.571190
0.493300,-1.613386
0.493400,-1.594884
0.493500,-1.604622
0.493600,-1.555610
0.493700,-1.597157
0.493800,-1.581252
0.493900,-1.558207
0.494000,-1.543600
0.494100,-1.516660
0.494200,-1.538083
0.494300,-1.553338
0.494400,-1.556908
0.494500,-1.514388
0.494600,-1.488097
0.494700,-1.458235
0.494800,-1.538407
0.494900,-1.585472
0.495000,-1.552364
0.495100,-1.532889
0.495200,-1.516336
0.495300,-1.584173
0.495400,-1.546522
0.495500,-1.481281
0.495600,-1.477386
0.495700,-1.452717
0.495800,-1.440059
0.495900,-1.436164
0.496000,-1.428374
0.496100,-1.424803
0.496200,-1.425777
0.496300,-1.408899
0.496400,-1.405977
0.496500,-1.394617
0.496600,-1.384230
0.496700,-1.392670
0.496800,-1.402732
0.496900,-1.416689
0.497000,-1.435190
0.497100,-1.515362
0.497200,-1.702970
0.497300,-1.812679
0.497400,-1.767887
0.497500,-1.583524
0.497600,-1.511142
0.497700,-1.619877
0.497800,-1.923687
0.497900,-2.057740
0.498000,-2.035343
0.498100,-1.915572
0.498200,-1.822742
0.498300,-1.922064
0.498400,-2.034694
0.498500,-2.199907
0.498600,-2.225224
0.498700,-2.202504
0.498800,-2.196986
0.498900,-2.200232
0.499000,-2.268719
0.499100,-2.290790
0.499200,-2.330714
0.499300,-2.325845
0.499400,-2.334609
0.499500,-2.355707
0.499600,-2.416404
0.499700,-2.443020
0.499800,-2.460547
0.499900,-2.471259
0.500000,-2.516051
0.500100,-2.516700
0.500200,-2.503717
0.500300,-2.369015
0.500400,-2.278131
0.500500,-2.343048
0.500600,-2.493006
0.500700,-2.629006
0.500800,-2.590056
0.500900,-2.431335
0.501000,-2.304098
0.501100,-2.308642
0.501200,-2.423869
0.501300,-2.550132
0.501400,-2.593627
0.501500,-2.521244
0.501600,-2.423220
0.501700,-2.363172
0.501800,-2.353759
0.501900,-2.392385
0.502000,-2.412834
0.502100,-2.393683
0.502200,-2.353110
0.502300,-2.270017
0.502400,-2.195363
0.502500,-2.119410
0.502600,-2.035343
0.502700,-1.967830
0.502800,-1.936670
0.502900,-1.907133
0.503000,-1.866236
0.503100,-1.762369
0.503200,-1.634484
0.503300,-1.582875
0.503400,-1.521529
0.503500,-1.450445
0.503600,-1.352421
0.503700,-1.291075
0.503800,-1.217395
0.503900,-1.109958
0.504000,-1.062894
0.504100,-1.035305
0.504200,-1.048288
0.504300,-1.071333
0.504400,-1.058674
0.504500,-1.124240
0.504600,-1.085615
0.504700,-1.120345
0.504800,-1.116126
0.504900,-1.143066
0.505000,-1.168383
0.505100,-1.198569
0.505200,-1.232326
0.505300,-1.224861
0.505400,-1.187534
0.505500,-1.029787
0.505600,-0.857758
0.505700,-0.946694
0.505800,-1.130407
0.505900,-1.320937
0.506000,-1.268030
0.506100,-1.160593
0.506200,-1.056727
0.506300,-1.033032
0.506400,-1.189806
0.506500,-1.338789
0.506600,-1.393643
0.506700,-1.320612
0.506800,-1.252450
0.506900,-1.255047
0.507000,-1.300164
0.507100,-1.360536
0.507200,-1.405977
0.507300,-1.460183
0.507400,-1.465701
0.507500,-1.469920
0.507600,-1.491343
0.507700,-1.518283
0.507800,-1.543600
0.507900,-1.599104
0.508000,-1.642274
0.508100,-1.729586
0.508200,-1.716278
0.508300,-1.707839
0.508400,-1.626369
0.508500,-1.627667
0.508600,-1.689338
0.508700,-1.898369
0.508800,-1.926283
0.508900,-1.872403
0.509000,-1.686092
0.509100,-1.680574
0.509200,-1.735104
0.509300,-1.929529
0.509400,-1.955496
0.509500,-1.903887
0.509600,-1.735753
0.509700,-1.661749
0.509800,-1.687391
0.509900,-1.773405
0.510000,-1.783142
0.510100,-1.781195
0.510200,-1.776002
0.510300,-1.755228
0.510400,-1.762045
0.510500,-1.689987
0.510600,-1.651037
0.510700,-1.614684
0.510800,-1.615333
0.510900,-1.627992
0.511000,-1.629290
0.511100,-1.621825
0.511200,-1.589691
0.511300,-1.579305
0.511400,-1.616956
0.511500,-1.724393
0.511600,-1.776326
0.511700,-1.798398
0.511800,-1.786713
0.511900,-1.838971
0.512000,-1.867859
0.512100,-1.802942
0.512200,-1.803591
0.512300,-1.806512
0.512400,-1.804889
0.512500,-1.832154
0.512600,-1.836049
0.512700,-1.869481
0.512800,-1.858121
0.512900,-1.863314
0.513000,-1.881816
0.513100,-1.930503
0.513200,-1.954522
0.513300,-1.980489
0.513400,-1.977243
0.513500,-2.016517
0.513600,-2.047677
0.513700,-2.099935
0.513800,-2.232690
0.513900,-2.433931
0.514000,-2.501120
0.514100,-2.357979
0.514200,-2.212890
0.514300,-2.174914
0.514400,-2.413158
0.514500,-2.616997
0.514600,-2.698467
0.514700,-2.614400
0.514800,-2.469311
0.514900,-2.424843
0.515000,-2.508261
0.515100,-2.633226
0.515200,-2.668605
0.515300,-2.645885
0.515400,-2.576424
0.515500,-2.534228
0.515600,-2.539421
0.515700,-2.561493
0.515800,-2.561817
0.515900,-2.542667
0.516000,-2.519946
0.516100,-2.553054
0.516200,-2.569607
0.516300,-2.603689
0.516400,-2.542018
0.516500,-2.506314
0.516600,-2.538447
0.516700,-2.569283
0.516800,-2.566686
0.516900,-2.503068
0.517000,-2.326170
0.517100,-2.294685
0.517200,-2.358304
0.517300,-2.506638
0.517400,-2.566362
0.517500,-2.440748
0.517600,-2.266771
0.517700,-2.163554
0.517800,-2.234637
0.517900,-2.354084
0.518000,-2.455679
0.518100,-2.437177
0.518200,-2.326170
0.518300,-2.244375
0.518400,-2.233014
0.518500,-2.252489
0.518600,-2.272289
0.518700,-2.227172
0.518800,-2.173291
0.518900,-2.129148
0.519000,-2.062933
0.519100,-2.013921
0.519200,-1.930503
0.519300,-1.859744
0.519400,-1.811381
0.519500,-1.817224
0.519600,-1.844164
0.519700,-1.841243
0.519800,-1.777625
0.519900,-1.741920
0.520000,-1.759123
0.520100,-1.792555
0.520200,-1.729586
0.520300,-1.729911
0.520400,-1.688364
0.520500,-1.653634
0.520600,-1.610789
0.520700,-1.587419
0.520800,-1.600078
0.520900,-1.626369
0.521000,-1.652011
0.521100,-1.631238
0.521200,-1.677004
0.521300,-1.658503
0.521400,-1.626044
0.521500,-1.576708
0.521600,-1.543600
0.521700,-1.509195
0.521800,-1.478359
0.521900,-1.472841
0.522000,-1.410197
0.522100,-1.292698
0.522200,-1.141768
0.522300,-0.909367
0.522400,-1.101519
0.522500,-1.275495
0.522600,-1.311524
0.522700,-1.223238
0.522800,-1.081395
0.522900,-0.986293
0.523000,-0.987916
0.523100,-1.155075
0.523200,-1.215448
0.523300,-1.162541
0.523400,-1.028813
0.523500,-0.926245
0.523600,-0.940527
0.523700,-0.969090
0.523800,-1.005443
0.523900,-0.983696
0.524000,-0.939553
0.524100,-0.927868
0.524200,-0.922025
0.524300,-0.960975
0.524400,-0.969739
0.524500,-0.956431
0.524600,-1.079123
0.524700,-1.104116
0.524800,-1.174550
0.524900,-1.192078
0.525000,-1.188183
0.525100,-1.150856
0.525200,-1.156374
0.525300,-1.345930
0.525400,-1.514713
0.525500,-1.447199
0.525600,-1.343982
0.525700,-1.131705
0.525800,-1.130083
0.525900,-1.226483
0.526000,-1.358913
0.526100,-1.339114
0.526200,-1.168059
0.526300,-0.999925
0.526400,-0.940527
0.526500,-0.999601
0.526600,-1.079123
0.526700,-1.070684
0.526800,-1.041472
0.526900,-0.963896
0.527000,-0.957405
0.527100,-0.990837
0.527200,-0.981749
0.527300,-0.996030
0.527400,-0.930789
0.527500,-1.000574
0.527600,-1.058025
0.527700,-1.087562
0.527800,-1.099247
0.527900,-1.048288
0.528000,-0.915858
0.528100,-1.156374
0.528200,-1.232651
0.528300,-1.248230
0.528400,-1.231677
0.528500,-1.210579
0.528600,-1.281013
0.528700,-1.259915
0.528800,-1.189157
0.528900,-1.188183
0.529000,-1.166111
0.529100,-1.159620
0.529200,-1.003820
0.529300,-0.931114
0.529400,-0.834713
0.529500,-0.794465
0.529600,-0.814589
0.529700,-0.648403
0.529800,-0.860030
0.529900,-0.944746
0.530000,-1.019075
0.530100,-1.201491
0.530200,-1.229080
0.530300,-1.278092
0.530400,-1.267056
0.530500,-1.459858
0.530600,-1.623772
0.530700,-1.648441
0.530800,-1.467324
0.530900,-1.317367
0.531000,-1.383257
0.531100,-1.601052
0.531200,-1.780870
0.531300,-1.782169
0.531400,-1.662722
0.531500,-1.543600
0.531600,-1.537433
0.531700,-1.642923
0.531800,-1.788660
0.531900,-1.863639
0.532000,-1.815276
0.532100,-1.786713
0.532200,-1.758799
0.532300,-1.787037
0.532400,-1.809109
0.532500,-1.821443
0.532600,-1.810083
0.532700,-1.796126
0.532800,-1.825014
0.532900,-1.824689
0.533000,-1.866560
0.533100,-1.846761
0.533200,-1.862665
0.533300,-1.868508
0.533400,-1.904861
0.533500,-1.882789
0.533600,-1.824689
0.533700,-1.710111
0.533800,-1.731209
0.533900,-1.830532
0.534000,-1.973997
0.534100,-1.990226
0.534200,-1.848059
0.534300,-1.699400
0.534400,-1.651037
0.534500,-1.751982
0.534600,-1.918169
0.534700,-1.959391
0.534800,-1.906484
0.534900,-1.772107
0.535000,-1.697453
0.535100,-1.688364
0.535200,-1.738999
0.535300,-1.764641
0.535400,-1.741271
0.535500,-1.703620
0.535600,-1.667591
0.535700,-1.593586
0.535800,-1.538732
0.535900,-1.469271
0.536000,-1.446226
0.536100,-1.457262
0.536200,-1.479009
0.536300,-1.514713
0.536400,-1.488421
0.536500,-1.408250
0.536600,-1.426102
0.536700,-1.446550
0.536800,-1.477061
0.536900,-1.403381
0.537000,-1.385853
0.537100,-1.376440
0.537200,-1.345930
0.537300,-1.318016
0.537400,-1.327753
0.537500,-1.365405
0.537600,-1.410846
0.537700,-1.455639
0.537800,-1.513090
0.537900,-1.543600
0.538000,-1.564374
0.538100,-1.584822
0.538200,-1.605271
0.538300,-1.565347
0.538400,-1.629615
0.538500,-1.594560
0.538600,-1.661749
0.538700,-1.549768
0.538800,-1.502054
0.538900,-1.209281
0.539000,-1.216097
0.539100,-1.422207
0.539200,-1.627667
0.539300,-1.539056
0.539400,-1.412469
0.539500,-1.213825
0.539600,-1.149233
0.539700,-1.200192
0.539800,-1.334894
0.539900,-1.349825
0.540000,-1.284908
0.540100,-1.156049
0.540200,-1.097300
0.540300,-1.136574
0.540400,-1.157347
0.540500,-1.156049
0.540600,-1.190779
0.540700,-1.182989
0.540800,-1.169357
0.540900,-1.163515
0.541000,-1.165137
0.541100,-1.161567
0.541200,-1.187858
0.541300,-1.203114
0.541400,-1.274197
0.541500,-1.204736
0.541600,-1.286531
0.541700,-1.207333
0.541800,-1.194999
0.541900,-1.215772
0.542000,-1.406951
0.542100,-1.509195
0.542200,-1.442331
0.542300,-1.343658
0.542400,-1.180393
0.542500,-1.313147
0.542600,-1.459209
0.542700,-1.599104
0.542800,-1.575734
0.542900,-1.434865
0.543000,-1.329051
0.543100,-1.369300
0.543200,-1.511467
0.543300,-1.604622
0.543400,-1.596832
0.543500,-1.594560
0.543600,-1.553013
0.543700,-1.582550
0.543800,-1.590665
0.543900,-1.601376
0.544000,-1.589042
0.544100,-1.580603
0.544200,-1.602999
0.544300,-1.628316
0.544400,-1.638379
0.544500,-1.591963
0.544600,-1.563075
0.544700,-1.572164
0.544800,-1.685118
0.544900,-1.736727
0.545000,-1.749061
0.545100,-1.742570
0.545200,-1.758799
0.545300,-1.825663
0.545400,-1.799696
0.545500,-1.747763
0.545600,-1.757500
0.545700,-1.781844
0.545800,-1.800345
0.545900,-1.799372
0.546000,-1.826637
0.546100,-1.847085
0.546200,-1.849682
0.546300,-1.898045
0.546400,-1.889281
0.546500,-1.911677
0.546600,-1.896097
0.546700,-1.915572
0.546800,-1.911028
0.546900,-1.924661
0.547000,-1.956794
0.547100,-2.021386
0.547200,-2.228795
0.547300,-2.315783
0.547400,-2.202828
0.547500,-1.981463
0.547600,-1.894150
0.547700,-2.021386
0.547800,-2.311239
0.547900,-2.380700
0.548000,-2.359926
0.548100,-2.183353
0.548200,-2.139210
0.548300,-2.141807
0.548400,-2.288194
0.548500,-2.377454
0.548600,-2.366418
0.548700,-2.318055
0.548800,-2.268719
0.548900,-2.308318
0.549000,-2.341750
0.549100,-2.339478
0.549200,-2.325845
0.549300,-2.328117
0.549400,-2.325521
0.549500,-2.341101
0.549600,-2.365769
0.549700,-2.384595
0.549800,-2.365444
0.549900,-2.368366
0.550000,-2.387516
0.550100,-2.402447
0.550200,-2.344671
0.550300,-2.221005
0.550400,-2.144079
0.550500,-2.202504
0.550600,-2.344671
0.550700,-2.459898
0.550800,-2.400824
0.550900,-2.225549
0.551000,-2.101234
0.551100,-2.132394
0.551200,-2.265797
0.551300,-2.443344
0.551400,-2.469311
0.551500,-2.349864
0.551600,-2.221979
0.551700,-2.166475
0.551800,-2.201530
0.551900,-2.263201
0.552000,-2.271640
0.552100,-2.244375
0.552200,-2.181406
0.552300,-2.111945
0.552400,-2.061959
0.552500,-2.008403
0.552600,-1.954847
0.552700,-1.918493
0.552800,-1.917520
0.552900,-1.930178
0.553000,-1.922713
0.553100,-1.859419
0.553200,-1.778274
0.553300,-1.766913
0.553400,-1.750035
0.553500,-1.690636
0.553600,-1.644221
0.553700,-1.590665
0.553800,-1.538083
0.553900,-1.451094
0.554000,-1.414741
0.554100,-1.401109
0.554200,-1.444927
0.554300,-1.457911
0.554400,-1.476087
0.554500,-1.498159
0.554600,-1.490044
0.554700,-1.480956
0.554800,-1.495562
0.554900,-1.475114
0.555000,-1.533214
0.555100,-1.507572
0.555200,-1.608842
0.555300,-1.564049
0.555400,-1.563725
0.555500,-1.316393
0.555600,-1.257643
0.555700,-1.267381
0.555800,-1.535161
0.555900,-1.685443
0.556000,-1.574760
0.556100,-1.497510
0.556200,-1.326779
0.556300,-1.347228
0.556400,-1.477061
0.556500,-1.605596
0.556600,-1.613061
0.556700,-1.495562
0.556800,-1.410846
0.556900,-1.370273
0.557000,-1.439734
0.557100,-1.484526
0.557200,-1.522827
0.557300,-1.501729
0.557400,-1.495562
0.557500,-1.463104
0.557600,-1.463753
0.557700,-1.485500
0.557800,-1.491992
0.557900,-1.532240
0.558000,-1.630589
0.558100,-1.584173
0.558200,-1.708488
0.558300,-1.677653
0.558400,-1.672460
0.558500,-1.655257
0.558600,-1.767238
0.558700,-2.006455
0.558800,-2.032097
0.558900,-2.009377
0.559000,-1.850331
0.559100,-1.812030
0.559200,-1.912651
0.559300,-2.109673
0.559400,-2.193091
0.559500,-2.117463
0.559600,-1.939916
0.559700,-1.837348
0.559800,-1.901940
0.559900,-2.022360
0.560000,-2.066503
0.560100,-2.054494
0.560200,-2.035019
0.560300,-1.977568
0.560400,-1.977568
0.560500,-1.930828
0.560600,-1.926283
0.560700,-1.924661
0.560800,-1.916546
0.560900,-1.936021
0.561000,-1.920766
0.561100,-1.921415
0.561200,-1.874026
0.561300,-1.865586
0.561400,-1.910703
0.561500,-2.014570
0.561600,-2.040537
0.561700,-2.027229
0.561800,-2.024632
0.561900,-2.082732
0.562000,-2.085978
0.562100,-2.006780
0.562200,-1.995095
0.562300,-1.987305
0.562400,-1.976918
0.562500,-1.990551
0.562600,-1.977568
0.562700,-1.987305
0.562800,-1.996069
0.562900,-1.976269
0.563000,-1.979190
0.563100,-1.968155
0.563200,-2.012298
0.563300,-1.991200
0.563400,-2.029176
0.563500,-2.059687
0.563600,-2.105453
0.563700,-2.111945
0.563800,-2.255411
0.563900,-2.458275
0.564000,-2.446590
0.564100,-2.311564
0.564200,-2.122981
0.564300,-2.112919
0.564400,-2.272289
0.564500,-2.482294
0.564600,-2.493979
0.564700,-2.381998
0.564800,-2.220680
0.564900,-2.137587
0.565000,-2.198284
0.565100,-2.253139
0.565200,-2.317731
0.565300,-2.243076
0.565400,-2.175239
0.565500,-2.043133
0.565600,-2.012947
0.565700,-1.989253
0.565800,-1.967830
0.565900,-1.954198
0.566000,-1.905510
0.566100,-1.920441
0.566200,-1.894150
0.566300,-1.884737
0.566400,-1.876622
0.566500,-1.864288
0.566600,-1.873376
0.566700,-1.901615
0.566800,-1.898045
0.566900,-1.823066
0.567000,-1.676355
0.567100,-1.687066
0.567200,-1.770808
0.567300,-1.922713
0.567400,-2.016842
0.567500,-1.911677
0.567600,-1.751009
0.567700,-1.686417
0.567800,-1.785739
0.567900,-1.942513
0.568000,-2.044107
0.568100,-2.035992
0.568200,-1.934073
0.568300,-1.849033
0.568400,-1.817548
0.568500,-1.835400
0.568600,-1.865586
0.568700,-1.854551
0.568800,-1.834426
0.568900,-1.798722
0.569000,-1.724718
0.569100,-1.665643
0.569200,-1.596183
0.569300,-1.543925
0.569400,-1.525748
0.569500,-1.521204
0.569600,-1.514713
0.569700,-1.491018
0.569800,-1.368001
0.569900,-1.299514
0.570000,-1.275171
0.570100,-1.261538
0.570200,-1.178121
0.570300,-1.126512
0.570400,-1.081071
0.570500,-1.015830
0.570600,-0.946044
0.570700,-0.930465
0.570800,-0.947018
0.570900,-0.961300
0.571000,-0.967791
0.571100,-0.989538
0.571200,-1.041472
0.571300,-1.076526
0.571400,-1.082694
0.571500,-1.110932
0.571600,-1.120345
0.571700,-1.170331
0.571800,-1.210579
0.571900,-1.260565
0.572000,-1.265758
0.572100,-1.232975
0.572200,-1.049262
0.572300,-0.984345
0.572400,-1.187858
0.572500,-1.394617
0.572600,-1.468622
0.572700,-1.389748
0.572800,-1.262837
0.572900,-1.139495
0.573000,-1.199543
0.573100,-1.357939
0.573200,-1.458560
0.573300,-1.414092
0.573400,-1.274197
0.573500,-1.181042
0.573600,-1.201815
0.573700,-1.236546
0.573800,-1.287505
0.573900,-1.297567
0.574000,-1.294321
0.574100,-1.295619
0.574200,-1.323209
0.574300,-1.346579
0.574400,-1.353720
0.574500,-1.335219
0.574600,-1.389748
0.574700,-1.519581
0.574800,-1.566646
0.574900,-1.634159
0.575000,-1.562102
0.575100,-1.569567
0.575200,-1.542302
0.575300,-1.735429
0.575400,-1.906159
0.575500,-1.874026
0.575600,-1.777625
0.575700,-1.593262
0.575800,-1.653309
0.575900,-1.778598
0.576000,-1.994770
0.576100,-1.978866
0.576200,-1.839295
0.576300,-1.673758
0.576400,-1.621825
0.576500,-1.727314
0.576600,-1.796126
0.576700,-1.788011
0.576800,-1.751009
0.576900,-1.680899
0.577000,-1.661099
0.577100,-1.644870
0.577200,-1.623772
0.577300,-1.601701
0.577400,-1.574760
0.577500,-1.567944
0.577600,-1.586121
0.577700,-1.592612
0.577800,-1.563075
0.577900,-1.545548
0.578000,-1.490044
0.578100,-1.564698
0.578200,-1.635457
0.578300,-1.642598
0.578400,-1.610140
0.578500,-1.565347
0.578600,-1.616307
0.578700,-1.592288
0.578800,-1.497510
0.578900,-1.475763
0.579000,-1.444927
0.579100,-1.398512
0.579200,-1.367677
0.579300,-1.362159
0.579400,-1.351123
0.579500,-1.357615
0.579600,-1.336517
0.579700,-1.367028
0.579800,-1.390073
0.579900,-1.452393
0.580000,-1.472192
0.580100,-1.560479
0.580200,-1.623772
0.580300,-1.695505
0.580400,-1.778598
0.580500,-2.023658
0.580600,-2.234313
0.580700,-2.263850
0.580800,-2.125253
0.580900,-2.036317
0.581000,-2.124604
0.581100,-2.438476
0.581200,-2.592653
0.581300,-2.625436
0.581400,-2.489435
0.581500,-2.356031
0.581600,-2.361225
0.581700,-2.469311
0.581800,-2.612777
0.581900,-2.618295
0.582000,-2.562791
0.582100,-2.452433
0.582200,-2.424519
0.582300,-2.389788
0.582400,-2.414132
0.582500,-2.401149
0.582600,-2.359926
0.582700,-2.340776
0.582800,-2.320652
0.582900,-2.329740
0.583000,-2.348241
0.583100,-2.288194
0.583200,-2.276833
0.583300,-2.256060
0.583400,-2.255735
0.583500,-2.227172
0.583600,-2.086627
0.583700,-1.954198
0.583800,-1.963610
0.583900,-2.076890
0.584000,-2.218084
0.584100,-2.217759
0.584200,-2.075267
0.584300,-1.911677
0.584400,-1.854875
0.584500,-1.988603
0.584600,-2.175239
0.584700,-2.282351
0.584800,-2.231067
0.584900,-2.118112
0.585000,-2.032747
0.585100,-2.044432
0.585200,-2.101558
0.585300,-2.159983
0.585400,-2.161606
0.585500,-2.136613
0.585600,-2.072670
0.585700,-2.023009
0.585800,-1.988603
0.585900,-1.917195
0.586000,-1.905835
0.586100,-1.902913
0.586200,-1.902913
0.586300,-1.921739
0.586400,-1.899343
0.586500,-1.792880
0.586600,-1.763992
0.586700,-1.773730
0.586800,-1.790283
0.586900,-1.743868
0.587000,-1.709462
0.587100,-1.659476
0.587200,-1.612737
0.587300,-1.569242
0.587400,-1.570865
0.587500,-1.593911
0.587600,-1.636106
0.587700,-1.622474
0.587800,-1.687066
0.587900,-1.686741
0.588000,-1.716928
0.588100,-1.678627
0.588200,-1.726665
0.588300,-1.719849
0.588400,-1.772107
0.588500,-1.787687
0.588600,-1.815925
0.588700,-1.811057
0.588800,-1.751982
0.588900,-1.505624
0.589000,-1.555935
0.589100,-1.760746
0.589200,-1.928880
0.589300,-1.961988
0.589400,-1.803916
0.589500,-1.622799
0.589600,-1.528020
0.589700,-1.592288
0.589800,-1.729262
0.589900,-1.751658
0.590000,-1.668565
0.590100,-1.533538
0.590200,-1.458235
0.590300,-1.470245
0.590400,-1.508870
0.590500,-1.526398
0.590600,-1.514388
0.590700,-1.489720
0.590800,-1.454340
0.590900,-1.426751
0.591000,-1.427400
0.591100,-1.396240
0.591200,-1.431295
0.591300,-1.413118
0.591400,-1.442006
0.591500,-1.458235
0.591600,-1.454989
0.591700,-1.393643
0.591800,-1.409548
0.591900,-1.380985
0.592000,-1.566321
0.592100,-1.659476
0.592200,-1.576708
0.592300,-1.443304
0.592400,-1.277767
0.592500,-1.392020
0.592600,-1.504001
0.592700,-1.633510
0.592800,-1.606894
0.592900,-1.455314
0.593000,-1.335868
0.593100,-1.315094
0.593200,-1.406627
0.593300,-1.477710
0.593400,-1.448173
0.593500,-1.480307
0.593600,-1.417338
0.593700,-1.447199
0.593800,-1.404030
0.593900,-1.386827
0.594000,-1.376440
0.594100,-1.383581
0.594200,-1.422531
0.594300,-1.465376
0.594400,-1.463104
0.594500,-1.437787
0.594600,-1.434541
0.594700,-1.449796
0.594800,-1.562426
0.594900,-1.611114
0.595000,-1.638054
0.595100,-1.625395
0.595200,-1.615658
0.595300,-1.687391
0.595400,-1.609166
0.595500,-1.589691
0.595600,-1.588068
0.595700,-1.577682
0.595800,-1.580603
0.595900,-1.564698
0.596000,-1.578006
0.596100,-1.578655
0.596200,-1.565997
0.596300,-1.594560
0.596400,-1.593911
0.596500,-1.615333
0.596600,-1.615333
0.596700,-1.645844
0.596800,-1.677978
0.596900,-1.733481
0.597000,-1.732832
0.597100,-1.853252
0.597200,-2.064556
0.597300,-2.201530
0.597400,-2.115191
0.597500,-1.983085
0.597600,-1.904212
0.597700,-2.058389
0.597800,-2.347268
0.597900,-2.463793
0.598000,-2.407316
0.598100,-2.255086
0.598200,-2.192117
0.598300,-2.247945
0.598400,-2.373884
0.598500,-2.457301
0.598600,-2.471908
0.598700,-2.406017
0.598800,-2.378428
0.598900,-2.366094
0.599000,-2.376156
0.599100,-2.369339
0.599200,-2.373234
0.599300,-2.377454
0.599400,-2.361225
0.599500,-2.383296
0.599600,-2.432958
0.599700,-2.403096
0.599800,-2.354084
0.599900,-2.361225
0.600000,-2.375831
0.600100,-2.399526
0.600200,-2.303124
0.600300,-2.195687
0.600400,-2.089873
0.600500,-2.171019
0.600600,-2.319354
0.600700,-2.429063
0.600800,-2.379077
0.600900,-2.212566
0.601000,-2.106752
0.601100,-2.143429
0.601200,-2.259306
0.601300,-2.397578
0.601400,-2.416729
0.601500,-2.338179
0.601600,-2.221654
0.601700,-2.188222
0.601800,-2.214838
0.601900,-2.236585
0.602000,-2.214189
0.602100,-2.165177
0.602200,-2.137587
0.602300,-2.086627
0.602400,-2.017167
0.602500,-1.962637
0.602600,-1.863639
0.602700,-1.830207
0.602800,-1.832154
0.602900,-1.823066
0.603000,-1.828909
0.603100,-1.726665
0.603200,-1.635457
0.603300,-1.629615
0.603400,-1.593262
0.603500,-1.554636
0.603600,-1.478359
0.603700,-1.426751
0.603800,-1.366703
0.603900,-1.297567
0.604000,-1.277443
0.604100,-1.238818
0.604200,-1.257643
0.604300,-1.246283
0.604400,-1.268030
0.604500,-1.274197
0.604600,-1.264784
0.604700,-1.228431
0.604800,-1.238818
0.604900,-1.193051
0.605000,-1.205710
0.605100,-1.180068
0.605200,-1.224211
0.605300,-1.211228
0.605400,-1.131381
0.605500,-0.943123
0.605600,-0.839257
0.605700,-0.910016
0.605800,-1.230703
0.605900,-1.291400
0.606000,-1.268679
0.606100,-1.079772
0.606200,-0.958703
0.606300,-0.939877
0.606400,-1.075877
0.606500,-1.196622
0.606600,-1.187534
0.606700,-1.117099
0.606800,-1.036603
0.606900,-1.046990
0.607000,-1.123266
0.607100,-1.158321
0.607200,-1.188183
0.607300,-1.217395
0.607400,-1.223887
0.607500,-1.256020
0.607600,-1.292374
0.607700,-1.325156
0.607800,-1.344307
0.607900,-1.412469
0.608000,-1.518608
0.608100,-1.539381
0.608200,-1.577032
0.608300,-1.581901
0.608400,-1.520231
0.608500,-1.568918
0.608600,-1.664670
0.608700,-1.902589
0.608800,-1.900641
0.608900,-1.841892
0.609000,-1.695505
0.609100,-1.655581
0.609200,-1.772756
0.609300,-1.952899
0.609400,-1.993797
0.609500,-1.913625
0.609600,-1.729586
0.609700,-1.665319
0.609800,-1.714331
0.609900,-1.818522
0.610000,-1.828584
0.610100,-1.759772
0.610200,-1.716603
0.610300,-1.698426
0.610400,-1.714980
0.610500,-1.689663
0.610600,-1.635133
0.610700,-1.594884
0.610800,-1.608517
0.610900,-1.623772
0.611000,-1.645519
0.611100,-1.619553
0.611200,-1.573137
0.611300,-1.534837
0.611400,-1.554636
0.611500,-1.654283
0.611600,-1.646818
0.611700,-1.642923
0.611800,-1.603973
0.611900,-1.641300
0.612000,-1.664994
0.612100,-1.584822
0.612200,-1.571190
0.612300,-1.562102
0.612400,-1.538407
0.612500,-1.537109
0.612600,-1.535810
0.612700,-1.549443
0.612800,-1.570541
0.612900,-1.568269
0.613000,-1.576059
0.613100,-1.567620
0.613200,-1.580927
0.613300,-1.598130
0.613400,-1.633834
0.613500,-1.676030
0.613600,-1.702970
0.613700,-1.746140
0.613800,-1.908107
0.613900,-2.126551
0.614000,-2.156088
0.614100,-2.033071
0.614200,-1.859744
0.614300,-1.877596
0.614400,-2.103181
0.614500,-2.290466
0.614600,-2.367716
0.614700,-2.282351
0.614800,-2.141807
0.614900,-2.134341
0.615000,-2.223277
0.615100,-2.396280
0.615200,-2.435879
0.615300,-2.467688
0.615400,-2.373884
0.615500,-2.385893
0.615600,-2.378752
0.615700,-2.417053
0.615800,-2.435554
0.615900,-2.445941
0.616000,-2.439125
0.616100,-2.467688
0.616200,-2.488462
0.616300,-2.519297
0.616400,-2.491383
0.616500,-2.516376
0.616600,-2.499173
0.616700,-2.526113
0.616800,-2.540395
0.616900,-2.455029
0.617000,-2.326494
0.617100,-2.299879
0.617200,-2.381024
0.617300,-2.524815
0.617400,-2.589082
0.617500,-2.464118
0.617600,-2.276833
0.617700,-2.184652
0.617800,-2.287544
0.617900,-2.417053
0.618000,-2.516376
0.618100,-2.454380
0.618200,-2.309941
0.618300,-2.205749
0.618400,-2.179134
0.618500,-2.196337
0.618600,-2.212241
0.618700,-2.178809
0.618800,-2.116814
0.618900,-2.047677
0.619000,-1.988603
0.619100,-1.916546
0.619200,-1.828909
0.619300,-1.790932
0.619400,-1.762694
0.619500,-1.747438
0.619600,-1.739648
0.619700,-1.711085
0.619800,-1.621176
0.619900,-1.577682
0.620000,-1.575734
0.620100,-1.563725
0.620200,-1.489720
0.620300,-1.447199
0.620400,-1.395915
0.620500,-1.351772
0.620600,-1.295619
0.620700,-1.255047
0.620800,-1.292049
0.620900,-1.308927
0.621000,-1.320288
0.621100,-1.318340
0.621200,-1.343009
0.621300,-1.301462
0.621400,-1.322235
0.621500,-1.304383
0.621600,-1.353071
0.621700,-1.317691
0.621800,-1.384555
0.621900,-1.408574
0.622000,-1.360861
0.622100,-1.298541
0.622200,-1.122942
0.622300,-1.048937
0.622400,-1.222913
0.622500,-1.464402
0.622600,-1.425452
0.622700,-1.335219
0.622800,-1.176822
0.622900,-1.076851
0.623000,-1.142092
0.623100,-1.267381
0.623200,-1.338789
0.623300,-1.272574
0.623400,-1.155725
0.623500,-1.099896
0.623600,-1.148908
0.623700,-1.199868
0.623800,-1.250178
0.623900,-1.278417
0.624000,-1.295619
0.624100,-1.303409
0.624200,-1.312173
0.624300,-1.365080
0.624400,-1.373195
0.624500,-1.399486
0.624600,-1.444603
0.624700,-1.538083
0.624800,-1.536460
0.624900,-1.579954
0.625000,-1.561777
0.625100,-1.501729
0.625200,-1.532565
0.625300,-1.688689
0.625400,-1.833777
0.625500,-1.783467
0.625600,-1.692908
0.625700,-1.503677
0.625800,-1.585796
0.625900,-1.699725
0.626000,-1.864288
0.626100,-1.828909
0.626200,-1.694531
0.626300,-1.542302
0.626400,-1.518283
0.626500,-1.628316
0.626600,-1.704918
0.626700,-1.669863
0.626800,-1.689013
0.626900,-1.630589
0.627000,-1.666617
0.627100,-1.653309
0.627200,-1.639677
0.627300,-1.649414
0.627400,-1.642923
0.627500,-1.686741
0.627600,-1.719200
0.627700,-1.745166
0.627800,-1.744842
0.627900,-1.741596
0.628000,-1.761071
0.628100,-1.841243
0.628200,-1.914598
0.628300,-1.943486
0.628400,-1.962637
0.628500,-1.976594
0.628600,-2.050274
0.628700,-2.052871
0.628800,-2.000938
0.628900,-1.995095
0.629000,-2.001587
0.629100,-2.005806
0.629200,-2.000613
0.629300,-2.015868
0.629400,-2.043133
0.629500,-2.047677
0.629600,-2.049300
0.629700,-2.039887
0.629800,-2.064231
0.629900,-2.059038
0.630000,-2.082408
0.630100,-2.114217
0.630200,-2.141807
0.630300,-2.192766
0.630400,-2.231067
0.630500,-2.444318
0.630600,-2.587784
0.630700,-2.554677
0.630800,-2.396604
0.630900,-2.251516
0.631000,-2.405044
0.631100,-2.657570
0.631200,-2.834143
0.631300,-2.825379
0.631400,-2.671851
0.631500,-2.599469
0.631600,-2.579669
