0.000100,-1.587419
0.000200,-1.557557
0.000300,-1.573462
0.000400,-1.599753
0.000500,-1.632536
0.000600,-1.646493
0.000700,-1.643572
0.000800,-1.616307
0.000900,-1.615982
0.001000,-1.630264
0.001100,-1.644221
0.001200,-1.650064
0.001300,-1.658827
0.001400,-1.684794
0.001500,-1.680899
0.001600,-1.699400
0.001700,-1.652011
0.001800,-1.640326
0.001900,-1.619228
0.002000,-1.738675
0.002100,-1.761395
0.002200,-1.716278
0.002300,-1.598130
0.002400,-1.542302
0.002500,-1.591963
0.002600,-1.684469
0.002700,-1.712383
0.002800,-1.664670
0.002900,-1.562102
0.003000,-1.499457
0.003100,-1.526073
0.003200,-1.587095
0.003300,-1.605271
0.003400,-1.586445
0.003500,-1.576383
0.003600,-1.547171
0.003700,-1.579305
0.003800,-1.581901
0.003900,-1.578006
0.004000,-1.568918
0.004100,-1.600402
0.004200,-1.637729
0.004300,-1.689338
0.004400,-1.708488
0.004500,-1.705892
0.004600,-1.723744
0.004700,-1.753930
0.004800,-1.818522
0.004900,-1.854875
0.005000,-1.854875
0.005100,-1.850006
0.005200,-1.869806
0.005300,-1.883763
0.005400,-1.847734
0.005500,-1.837997
0.005600,-1.829233
0.005700,-1.820794
0.005800,-1.818522
0.005900,-1.829558
0.006000,-1.817548
0.006100,-1.818522
0.006200,-1.820145
0.006300,-1.818522
0.006400,-1.827610
0.006500,-1.837023
0.006600,-1.835076
0.006700,-1.851629
0.006800,-1.841892
0.006900,-1.826312
0.007000,-1.813978
0.007100,-1.877921
0.007200,-1.937319
0.007300,-1.973023
0.007400,-1.895123
0.007500,-1.846111
0.007600,-1.824040
0.007700,-1.886684
0.007800,-1.988603
0.007900,-2.047028
0.008000,-2.011649
0.008100,-1.942837
0.008200,-1.910703
0.008300,-1.942837
0.008400,-2.011649
0.008500,-2.035343
0.008600,-2.060661
0.008700,-2.034694
0.008800,-2.021386
0.008900,-2.002236
0.009000,-2.016193
0.009100,-2.034045
0.009200,-2.032097
0.009300,-2.063907
0.009400,-2.043133
0.009500,-2.048976
0.009600,-2.103830
0.009700,-2.107725
0.009800,-2.090522
0.009900,-2.104804
0.010000,-2.116814
0.010100,-2.148623
0.010200,-2.117463
0.010300,-2.077215
0.010400,-2.049300
0.010500,-2.092794
0.010600,-2.209969
0.010700,-2.251516
0.010800,-2.254761
0.010900,-2.168422
0.011000,-2.159009
0.011100,-2.218733
0.011200,-2.295010
0.011300,-2.376480
0.011400,-2.375506
0.011500,-2.317731
0.011600,-2.280079
0.011700,-2.276509
0.011800,-2.279754
0.011900,-2.261578
0.012000,-2.210618
0.012100,-2.168422
0.012200,-2.125577
0.012300,-2.048651
0.012400,-1.957768
0.012500,-1.870455
0.012600,-1.804889
0.012700,-1.728288
0.012800,-1.694531
0.012900,-1.654608
0.013000,-1.612737
0.013100,-1.521529
0.013200,-1.443304
0.013300,-1.420908
0.013400,-1.385529
0.013500,-1.313472
0.013600,-1.296269
0.013700,-1.257643
0.013800,-1.226483
0.013900,-1.179744
0.014000,-1.167734
0.014100,-1.165787
0.014200,-1.180393
0.014300,-1.207658
0.014400,-1.197271
0.014500,-1.236221
0.014600,-1.221290
0.014700,-1.228756
0.014800,-1.222264
0.014900,-1.218693
0.015000,-1.229729
0.015100,-1.251152
0.015200,-1.303734
0.015300,-1.269653
0.015400,-1.241414
0.015500,-1.140145
0.015600,-1.097949
0.015700,-1.180068
0.015800,-1.291400
0.015900,-1.359887
0.016000,-1.271925
0.016100,-1.259591
0.016200,-1.155725
0.016300,-1.187534
0.016400,-1.279715
0.016500,-1.349176
0.016600,-1.362483
0.016700,-1.301787
0.016800,-1.277443
0.016900,-1.283935
0.017000,-1.308927
0.017100,-1.365405
0.017200,-1.391371
0.017300,-1.412794
0.017400,-1.392020
0.017500,-1.411495
0.017600,-1.435514
0.017700,-1.437137
0.017800,-1.443304
0.017900,-1.442980
0.018000,-1.491667
0.018100,-1.478684
0.018200,-1.525748
0.018300,-1.496536
0.018400,-1.494264
0.018500,-1.471868
0.018600,-1.529643
0.018700,-1.623123
0.018800,-1.617605
0.018900,-1.539056
0.019000,-1.438436
0.019100,-1.441357
0.019200,-1.523152
0.019300,-1.621500
0.019400,-1.620527
0.019500,-1.554312
0.019600,-1.461481
0.019700,-1.445577
0.019800,-1.497834
0.019900,-1.534837
0.020000,-1.506923
0.020100,-1.502703
0.020200,-1.459534
0.020300,-1.485176
0.020400,-1.484526
0.020500,-1.475438
0.020600,-1.474789
0.020700,-1.462130
0.020800,-1.469596
0.020900,-1.488097
0.021000,-1.507572
0.021100,-1.498159
0.021200,-1.466025
0.021300,-1.476087
0.021400,-1.495562
0.021500,-1.516660
0.021600,-1.531591
0.021700,-1.523152
0.021800,-1.527696
0.021900,-1.548794
0.022000,-1.536784
0.022100,-1.518283
0.022200,-1.516011
0.022300,-1.521204
0.022400,-1.524450
0.022500,-1.540679
0.022600,-1.564374
0.022700,-1.556584
0.022800,-1.580927
0.022900,-1.579629
0.023000,-1.602999
0.023100,-1.620527
0.023200,-1.625720
0.023300,-1.634808
0.023400,-1.657204
0.023500,-1.681223
0.023600,-1.692259
0.023700,-1.694207
0.023800,-1.785415
0.023900,-1.859095
0.024000,-1.831181
0.024100,-1.783792
0.024200,-1.693882
0.024300,-1.701348
0.024400,-1.791906
0.024500,-1.879868
0.024600,-1.913300
0.024700,-1.842541
0.024800,-1.761720
0.024900,-1.713033
0.025000,-1.742894
0.025100,-1.818197
0.025200,-1.818197
0.025300,-1.810407
0.025400,-1.739324
0.025500,-1.729262
0.025600,-1.710111
0.025700,-1.745166
0.025800,-1.738350
0.025900,-1.729586
0.026000,-1.729262
0.026100,-1.722770
0.026200,-1.726990
0.026300,-1.755877
0.026400,-1.751658
0.026500,-1.724068
0.026600,-1.718226
0.026700,-1.710436
0.026800,-1.710760
0.026900,-1.645844
0.027000,-1.565997
0.027100,-1.551390
0.027200,-1.612737
0.027300,-1.673433
0.027400,-1.674083
0.027500,-1.578331
0.027600,-1.465701
0.027700,-1.426102
0.027800,-1.461806
0.027900,-1.546197
0.028000,-1.536135
0.028100,-1.496861
0.028200,-1.423505
0.028300,-1.397863
0.028400,-1.415715
0.028500,-1.449472
0.028600,-1.455639
0.028700,-1.417662
0.028800,-1.407600
0.028900,-1.378713
0.029000,-1.339114
0.029100,-1.314121
0.029200,-1.272899
0.029300,-1.242388
0.029400,-1.211877
0.029500,-1.211877
0.029600,-1.235247
0.029700,-1.221939
0.029800,-1.169357
0.029900,-1.151180
0.030000,-1.140469
0.030100,-1.148259
0.030200,-1.108011
0.030300,-1.109634
0.030400,-1.085939
0.030500,-1.064192
0.030600,-1.062569
0.030700,-1.043419
0.030800,-1.069386
0.030900,-1.083667
0.031000,-1.087887
0.031100,-1.133328
0.031200,-1.118398
0.031300,-1.147610
0.031400,-1.150856
0.031500,-1.178770
0.031600,-1.186235
0.031700,-1.241414
0.031800,-1.238168
0.031900,-1.261538
0.032000,-1.218693
0.032100,-1.201815
0.032200,-1.100546
0.032300,-1.095677
0.032400,-1.195973
0.032500,-1.303409
0.032600,-1.317367
0.032700,-1.278741
0.032800,-1.189806
0.032900,-1.137548
0.033000,-1.164164
0.033100,-1.247906
0.033200,-1.276469
0.033300,-1.269328
0.033400,-1.206684
0.033500,-1.163515
0.033600,-1.170980
0.033700,-1.189481
0.033800,-1.235247
0.033900,-1.239791
0.034000,-1.220966
0.034100,-1.197271
0.034200,-1.195973
0.034300,-1.204412
0.034400,-1.197596
0.034500,-1.208631
0.034600,-1.263810
0.034700,-1.269328
0.034800,-1.276145
0.034900,-1.277767
0.035000,-1.244985
0.035100,-1.252125
0.035200,-1.242063
0.035300,-1.371247
0.035400,-1.400784
0.035500,-1.392670
0.035600,-1.328078
0.035700,-1.229405
0.035800,-1.263161
0.035900,-1.322884
0.036000,-1.398512
0.036100,-1.377414
0.036200,-1.266407
0.036300,-1.207009
0.036400,-1.203114
0.036500,-1.243686
0.036600,-1.288154
0.036700,-1.274197
0.036800,-1.281338
0.036900,-1.230703
0.037000,-1.253099
0.037100,-1.266732
0.037200,-1.268030
0.037300,-1.257968
0.037400,-1.263161
0.037500,-1.293023
0.037600,-1.322560
0.037700,-1.342359
0.037800,-1.348202
0.037900,-1.351448
0.038000,-1.349176
0.038100,-1.414741
0.038200,-1.425128
0.038300,-1.456937
0.038400,-1.465376
0.038500,-1.465051
0.038600,-1.489071
0.038700,-1.462455
0.038800,-1.455314
0.038900,-1.444927
0.039000,-1.444278
0.039100,-1.458560
0.039200,-1.462130
0.039300,-1.477386
0.039400,-1.474464
0.039500,-1.454665
0.039600,-1.472517
0.039700,-1.473166
0.039800,-1.483553
0.039900,-1.513414
0.040000,-1.520231
0.040100,-1.544899
0.040200,-1.554636
0.040300,-1.578655
0.040400,-1.607543
0.040500,-1.715305
0.040600,-1.776975
0.040700,-1.721472
0.040800,-1.635782
0.040900,-1.585796
0.041000,-1.637405
0.041100,-1.769835
0.041200,-1.828259
0.041300,-1.828584
0.041400,-1.736727
0.041500,-1.680574
0.041600,-1.674732
0.041700,-1.716603
0.041800,-1.763343
0.041900,-1.753605
0.042000,-1.731534
0.042100,-1.700698
0.042200,-1.693233
0.042300,-1.689663
0.042400,-1.711734
0.042500,-1.705567
0.042600,-1.719200
0.042700,-1.710111
0.042800,-1.710760
0.042900,-1.748737
0.043000,-1.727963
0.043100,-1.727963
0.043200,-1.732832
0.043300,-1.757825
0.043400,-1.776975
0.043500,-1.752307
0.043600,-1.677653
0.043700,-1.667591
0.043800,-1.695830
0.043900,-1.790932
0.044000,-1.830207
0.044100,-1.829558
0.044200,-1.750360
0.044300,-1.688689
0.044400,-1.690961
0.044500,-1.748737
0.044600,-1.817224
0.044700,-1.819171
0.044800,-1.765615
0.044900,-1.678627
0.045000,-1.650388
0.045100,-1.647791
0.045200,-1.653309
0.045300,-1.647142
0.045400,-1.621825
0.045500,-1.585147
0.045600,-1.540679
0.045700,-1.527371
0.045800,-1.474140
0.045900,-1.433892
0.046000,-1.425452
0.046100,-1.439085
0.046200,-1.442006
0.046300,-1.462779
0.046400,-1.426102
0.046500,-1.387801
0.046600,-1.387476
0.046700,-1.397214
0.046800,-1.399486
0.046900,-1.387476
0.047000,-1.386827
0.047100,-1.381634
0.047200,-1.340412
0.047300,-1.348202
0.047400,-1.334894
0.047500,-1.353395
0.047600,-1.380335
0.047700,-1.402407
0.047800,-1.425452
0.047900,-1.423180
0.048000,-1.410522
0.048100,-1.420908
0.048200,-1.428374
0.048300,-1.458235
0.048400,-1.447199
0.048500,-1.500106
0.048600,-1.461806
0.048700,-1.467324
0.048800,-1.357939
0.048900,-1.251801
0.049000,-1.259266
0.049100,-1.389748
0.049200,-1.412469
0.049300,-1.400135
0.049400,-1.314121
0.049500,-1.194674
0.049600,-1.184288
0.049700,-1.223887
0.049800,-1.270302
0.049900,-1.274197
0.050000,-1.204087
0.050100,-1.155075
0.050200,-1.119371
0.050300,-1.124889
0.050400,-1.165462
0.050500,-1.192727
0.050600,-1.193376
0.050700,-1.182989
0.050800,-1.205386
0.050900,-1.212851
0.051000,-1.231352
0.051100,-1.247906
0.051200,-1.250503
0.051300,-1.304708
0.051400,-1.292049
0.051500,-1.337166
0.051600,-1.296269
0.051700,-1.310550
0.051800,-1.278092
0.051900,-1.351123
0.052000,-1.422856
0.052100,-1.440708
0.052200,-1.392670
0.052300,-1.293672
0.052400,-1.289452
0.052500,-1.334245
0.052600,-1.432918
0.052700,-1.439734
0.052800,-1.385529
0.052900,-1.292698
0.053000,-1.266407
0.053100,-1.271600
0.053200,-1.317367
0.053300,-1.324507
0.053400,-1.303734
0.053500,-1.287505
0.053600,-1.237519
0.053700,-1.233624
0.053800,-1.231352
0.053900,-1.216421
0.054000,-1.171304
0.054100,-1.164813
0.054200,-1.182665
0.054300,-1.191104
0.054400,-1.181367
0.054500,-1.143390
0.054600,-1.131705
0.054700,-1.145987
0.054800,-1.188832
0.054900,-1.191104
0.055000,-1.182016
0.055100,-1.184937
0.055200,-1.189806
0.055300,-1.219992
0.055400,-1.187858
0.055500,-1.202140
0.055600,-1.223887
0.055700,-1.246283
0.055800,-1.275820
0.055900,-1.279715
0.056000,-1.303409
0.056100,-1.339114
0.056200,-1.372870
0.056300,-1.396889
0.056400,-1.428698
0.056500,-1.443304
0.056600,-1.436813
0.056700,-1.467648
0.056800,-1.485176
0.056900,-1.535810
0.057000,-1.506273
0.057100,-1.625071
0.057200,-1.702646
0.057300,-1.750360
0.057400,-1.653309
0.057500,-1.587095
0.057600,-1.551715
0.057700,-1.616307
0.057800,-1.722445
0.057900,-1.740298
0.058000,-1.688040
0.058100,-1.599753
0.058200,-1.556259
0.058300,-1.555610
0.058400,-1.604297
0.058500,-1.584498
0.058600,-1.569242
0.058700,-1.486474
0.058800,-1.466999
0.058900,-1.440383
0.059000,-1.434216
0.059100,-1.405004
0.059200,-1.376440
0.059300,-1.363457
0.059400,-1.345930
0.059500,-1.319639
0.059600,-1.338140
0.059700,-1.326779
0.059800,-1.286531
0.059900,-1.286531
0.060000,-1.263486
0.060100,-1.285233
0.060200,-1.224211
0.060300,-1.161892
0.060400,-1.139495
0.060500,-1.173577
0.060600,-1.245958
0.060700,-1.249853
0.060800,-1.207658
0.060900,-1.117099
0.061000,-1.087238
0.061100,-1.133328
0.061200,-1.204736
0.061300,-1.264784
0.061400,-1.235896
0.061500,-1.182016
0.061600,-1.136899
0.061700,-1.109958
0.061800,-1.130083
0.061900,-1.154426
0.062000,-1.133653
0.062100,-1.108336
0.062200,-1.094703
0.062300,-1.066464
0.062400,-1.045367
0.062500,-1.016803
0.062600,-0.999276
0.062700,-0.999925
0.062800,-1.015505
0.062900,-1.031734
0.063000,-1.042770
0.063100,-1.009663
0.063200,-1.003496
0.063300,-1.023295
0.063400,-1.035629
0.063500,-0.990837
0.063600,-0.995056
0.063700,-0.974932
0.063800,-0.971362
0.063900,-0.952212
0.064000,-0.969090
0.064100,-0.992460
0.064200,-1.027839
0.064300,-1.058350
0.064400,-1.070359
0.064500,-1.101519
0.064600,-1.088861
0.064700,-1.129758
0.064800,-1.126512
0.064900,-1.167085
0.065000,-1.184937
0.065100,-1.212851
0.065200,-1.241739
0.065300,-1.248880
0.065400,-1.178445
0.065500,-1.116450
0.065600,-1.031734
0.065700,-1.192402
0.065800,-1.261863
0.065900,-1.321911
0.066000,-1.229405
0.066100,-1.176173
0.066200,-1.111257
0.066300,-1.107362
0.066400,-1.157023
0.066500,-1.191104
0.066600,-1.166111
0.066700,-1.097300
0.066800,-1.055104
0.066900,-1.049911
0.067000,-1.069061
0.067100,-1.099896
0.067200,-1.100221
0.067300,-1.082369
0.067400,-1.074904
0.067500,-1.091133
0.067600,-1.099896
0.067700,-1.105090
0.067800,-1.118722
0.067900,-1.125214
0.068000,-1.122293
0.068100,-1.121643
0.068200,-1.121643
0.068300,-1.079123
0.068400,-1.061271
0.068500,-1.029462
0.068600,-1.113853
0.068700,-1.152479
0.068800,-1.123915
0.068900,-1.020049
0.069000,-0.919753
0.069100,-0.925920
0.069200,-0.981099
0.069300,-1.082369
0.069400,-1.055104
0.069500,-0.974932
0.069600,-0.885997
0.069700,-0.868794
0.069800,-0.905147
0.069900,-0.940202
0.070000,-0.923648
0.070100,-0.924947
0.070200,-0.898655
0.070300,-0.902550
0.070400,-0.894761
0.070500,-0.900928
0.070600,-0.883725
0.070700,-0.886646
0.070800,-0.901577
0.070900,-0.936956
0.071000,-0.935009
0.071100,-0.954484
0.071200,-0.959028
0.071300,-0.965844
0.071400,-1.022970
0.071500,-1.062245
0.071600,-1.079772
0.071700,-1.106388
0.071800,-1.106713
0.071900,-1.145662
0.072000,-1.144364
0.072100,-1.112880
0.072200,-1.120020
0.072300,-1.142741
0.072400,-1.115152
0.072500,-1.133328
0.072600,-1.122617
0.072700,-1.140145
0.072800,-1.134951
0.072900,-1.142092
0.073000,-1.138197
0.073100,-1.127161
0.073200,-1.146312
0.073300,-1.156698
0.073400,-1.195973
0.073500,-1.201166
0.073600,-1.210254
0.073700,-1.249204
0.073800,-1.328402
0.073900,-1.444603
0.074000,-1.413443
0.074100,-1.359562
0.074200,-1.318340
0.074300,-1.340412
0.074400,-1.476087
0.074500,-1.556259
0.074600,-1.571515
0.074700,-1.522178
0.074800,-1.457911
0.074900,-1.443954
0.075000,-1.510818
0.075100,-1.567944
0.075200,-1.586121
0.075300,-1.534188
0.075400,-1.512116
0.075500,-1.484526
0.075600,-1.499457
0.075700,-1.505300
0.075800,-1.495562
0.075900,-1.503677
0.076000,-1.483553
0.076100,-1.472192
0.076200,-1.501405
0.076300,-1.520231
0.076400,-1.481930
0.076500,-1.467973
0.076600,-1.467324
0.076700,-1.499133
0.076800,-1.496536
0.076900,-1.436813
0.077000,-1.395915
0.077100,-1.386503
0.077200,-1.462130
0.077300,-1.531266
0.077400,-1.500106
0.077500,-1.431619
0.077600,-1.350149
0.077700,-1.329701
0.077800,-1.391047
0.077900,-1.460183
0.078000,-1.500106
0.078100,-1.456288
0.078200,-1.399810
0.078300,-1.377739
0.078400,-1.390398
0.078500,-1.416689
0.078600,-1.428374
0.078700,-1.423505
0.078800,-1.424154
0.078900,-1.387801
0.079000,-1.378713
0.079100,-1.359562
0.079200,-1.343333
0.079300,-1.337491
0.079400,-1.347228
0.079500,-1.360211
0.079600,-1.361834
0.079700,-1.357290
0.079800,-1.326455
0.079900,-1.317691
0.080000,-1.335219
0.080100,-1.333271
0.080200,-1.303734
0.080300,-1.281013
0.080400,-1.269004
0.080500,-1.229080
0.080600,-1.220316
0.080700,-1.224536
0.080800,-1.266732
0.080900,-1.275171
0.081000,-1.293347
0.081100,-1.321911
0.081200,-1.335868
0.081300,-1.362159
0.081400,-1.379686
0.081500,-1.421882
0.081600,-1.412794
0.081700,-1.468622
0.081800,-1.444927
0.081900,-1.478684
0.082000,-1.441357
0.082100,-1.426102
0.082200,-1.312498
0.082300,-1.328078
0.082400,-1.442331
0.082500,-1.466674
0.082600,-1.462130
0.082700,-1.388775
0.082800,-1.306655
0.082900,-1.252775
0.083000,-1.294970
0.083100,-1.345605
0.083200,-1.336841
0.083300,-1.298865
0.083400,-1.226483
0.083500,-1.186560
0.083600,-1.191429
0.083700,-1.257968
0.083800,-1.276469
0.083900,-1.259266
0.084000,-1.231352
0.084100,-1.224861
0.084200,-1.204736
0.084300,-1.219667
0.084400,-1.220641
0.084500,-1.198245
0.084600,-1.250178
0.084700,-1.252125
0.084800,-1.261863
0.084900,-1.250503
0.085000,-1.224211
0.085100,-1.181691
0.085200,-1.189157
0.085300,-1.306006
0.085400,-1.333920
0.085500,-1.292698
0.085600,-1.192078
0.085700,-1.148584
0.085800,-1.178770
0.085900,-1.277118
0.086000,-1.311524
0.086100,-1.278417
0.086200,-1.183963
0.086300,-1.109634
0.086400,-1.099572
0.086500,-1.138522
0.086600,-1.144040
0.086700,-1.109958
0.086800,-1.119371
0.086900,-1.056402
0.087000,-1.071982
0.087100,-1.041147
0.087200,-1.046990
0.087300,-1.038550
0.087400,-1.037577
0.087500,-1.039200
0.087600,-1.067114
0.087700,-1.061271
0.087800,-1.062569
0.087900,-1.044717
0.088000,-1.074904
0.088100,-1.098598
0.088200,-1.110932
0.088300,-1.126188
0.088400,-1.111257
0.088500,-1.129758
0.088600,-1.144689
0.088700,-1.120345
0.088800,-1.129758
0.088900,-1.128784
0.089000,-1.149233
0.089100,-1.158970
0.089200,-1.208956
0.089300,-1.219343
0.089400,-1.245958
0.089500,-1.281987
0.089600,-1.334894
0.089700,-1.367028
0.089800,-1.400784
0.089900,-1.405653
0.090000,-1.434541
0.090100,-1.473815
0.090200,-1.494264
0.090300,-1.535486
0.090400,-1.582875
0.090500,-1.700374
0.090600,-1.753605
0.090700,-1.696479
0.090800,-1.636106
0.090900,-1.593586
0.091000,-1.643572
0.091100,-1.741920
0.091200,-1.783792
0.091300,-1.761071
0.091400,-1.659152
0.091500,-1.596183
0.091600,-1.602350
0.091700,-1.642923
0.091800,-1.682522
0.091900,-1.672460
0.092000,-1.633510
0.092100,-1.571190
0.092200,-1.549768
0.092300,-1.553338
0.092400,-1.541653
0.092500,-1.539705
0.092600,-1.508546
0.092700,-1.492641
0.092800,-1.482579
0.092900,-1.503677
0.093000,-1.490369
0.093100,-1.465051
0.093200,-1.429672
0.093300,-1.429347
0.093400,-1.421882
0.093500,-1.402407
0.093600,-1.305682
0.093700,-1.268355
0.093800,-1.292374
0.093900,-1.380011
0.094000,-1.396240
0.094100,-1.371247
0.094200,-1.273223
0.094300,-1.214474
0.094400,-1.234273
0.094500,-1.329376
0.094600,-1.415390
0.094700,-1.425777
0.094800,-1.399161
0.094900,-1.351772
0.095000,-1.359887
0.095100,-1.387476
0.095200,-1.406951
0.095300,-1.416689
0.095400,-1.396565
0.095500,-1.405653
0.095600,-1.346254
0.095700,-1.333920
0.095800,-1.309252
0.095900,-1.266083
0.096000,-1.241090
0.096100,-1.226159
0.096200,-1.231677
0.096300,-1.245309
0.096400,-1.173252
0.096500,-1.148259
0.096600,-1.137873
0.096700,-1.120994
0.096800,-1.079448
0.096900,-1.065166
0.097000,-1.039200
0.097100,-0.996355
0.097200,-0.956431
0.097300,-0.964221
0.097400,-0.946044
0.097500,-0.961300
0.097600,-0.980126
0.097700,-0.981424
0.097800,-1.033682
0.097900,-1.013558
0.098000,-1.078149
0.098100,-1.040498
0.098200,-1.104441
0.098300,-1.093405
0.098400,-1.153777
0.098500,-1.142741
0.098600,-1.145662
0.098700,-1.155400
0.098800,-1.083667
0.098900,-1.041796
0.099000,-1.086913
0.099100,-1.268030
0.099200,-1.284584
0.099300,-1.284908
0.099400,-1.265109
0.099500,-1.186560
0.099600,-1.189157
0.099700,-1.250827
0.099800,-1.350798
0.099900,-1.347228
0.100000,-1.306980
0.100100,-1.251476
0.100200,-1.244985
0.100300,-1.284908
0.100400,-1.317367
0.100500,-1.343009
0.100600,-1.318989
0.100700,-1.301137
0.100800,-1.297892
0.100900,-1.297892
0.101000,-1.280364
0.101100,-1.255047
0.101200,-1.245309
0.101300,-1.217071
0.101400,-1.224861
0.101500,-1.206035
0.101600,-1.186884
0.101700,-1.153777
0.101800,-1.159295
0.101900,-1.195324
0.102000,-1.300164
0.102100,-1.268355
0.102200,-1.196622
0.102300,-1.083667
0.102400,-1.076851
0.102500,-1.113529
0.102600,-1.201166
0.102700,-1.206359
0.102800,-1.150531
0.102900,-1.055429
0.103000,-1.038550
0.103100,-1.044393
0.103200,-1.074254
0.103300,-1.081395
0.103400,-1.103467
0.103500,-1.083018
0.103600,-1.076851
0.103700,-1.072307
0.103800,-1.087562
0.103900,-1.083667
0.104000,-1.081071
0.104100,-1.086589
0.104200,-1.103467
0.104300,-1.112555
0.104400,-1.084641
0.104500,-1.076851
0.104600,-1.037252
0.104700,-1.062894
0.104800,-1.109309
0.104900,-1.114503
0.105000,-1.099247
0.105100,-1.094054
0.105200,-1.105414
0.105300,-1.114178
0.105400,-1.063219
0.105500,-1.068087
0.105600,-1.061596
0.105700,-1.066464
0.105800,-1.065491
0.105900,-1.080746
0.106000,-1.100870
0.106100,-1.111581
0.106200,-1.133328
0.106300,-1.129433
0.106400,-1.133328
0.106500,-1.140794
0.106600,-1.147610
0.106700,-1.167734
0.106800,-1.176173
0.106900,-1.198245
0.107000,-1.214149
0.107100,-1.282961
0.107200,-1.368651
0.107300,-1.371896
0.107400,-1.309577
0.107500,-1.207982
0.107600,-1.216746
0.107700,-1.321261
0.107800,-1.426426
0.107900,-1.472517
0.108000,-1.437137
0.108100,-1.364756
0.108200,-1.380335
0.108300,-1.436164
0.108400,-1.523152
0.108500,-1.526073
0.108600,-1.538083
0.108700,-1.467648
0.108800,-1.476736
0.108900,-1.478684
0.109000,-1.517958
0.109100,-1.518932
0.109200,-1.513414
0.109300,-1.517958
0.109400,-1.498483
0.109500,-1.536784
0.109600,-1.553013
0.109700,-1.535810
0.109800,-1.504326
0.109900,-1.502703
0.110000,-1.514713
0.110100,-1.523152
0.110200,-1.447524
0.110300,-1.396240
0.110400,-1.377414
0.110500,-1.424154
0.110600,-1.491343
0.110700,-1.517958
0.110800,-1.472192
0.110900,-1.369624
0.111000,-1.338789
0.111100,-1.400135
0.111200,-1.486799
0.111300,-1.538083
0.111400,-1.530942
0.111500,-1.479982
0.111600,-1.448822
0.111700,-1.455314
0.111800,-1.474140
0.111900,-1.475438
0.112000,-1.478684
0.112100,-1.456288
0.112200,-1.414092
0.112300,-1.374168
0.112400,-1.348526
0.112500,-1.312498
0.112600,-1.277118
0.112700,-1.241739
0.112800,-1.254722
0.112900,-1.250827
0.113000,-1.258617
0.113100,-1.170331
0.113200,-1.155400
0.113300,-1.145662
0.113400,-1.142092
0.113500,-1.106713
0.113600,-1.087238
0.113700,-1.047314
0.113800,-1.038550
0.113900,-1.002197
0.114000,-0.999276
0.114100,-1.016479
0.114200,-1.035305
0.114300,-1.040822
0.114400,-1.051858
0.114500,-1.077825
0.114600,-1.080746
0.114700,-1.083018
0.114800,-1.093405
0.114900,-1.096001
0.115000,-1.144689
0.115100,-1.134302
0.115200,-1.165462
0.115300,-1.133328
0.115400,-1.105090
0.115500,-0.993433
0.115600,-0.984345
0.115700,-1.062569
0.115800,-1.165462
0.115900,-1.195648
0.116000,-1.144364
0.116100,-1.038226
0.116200,-0.967467
0.116300,-0.996030
0.116400,-1.040498
0.116500,-1.090484
0.116600,-1.036927
0.116700,-0.975906
0.116800,-0.936632
0.116900,-0.918130
0.117000,-0.940202
0.117100,-0.972336
0.117200,-0.968765
0.117300,-0.948641
0.117400,-0.917157
0.117500,-0.917806
0.117600,-0.908718
0.117700,-0.912937
0.117800,-0.937281
0.117900,-0.928842
0.118000,-1.008364
0.118100,-0.986617
0.118200,-1.047963
0.118300,-1.020698
0.118400,-1.032059
0.118500,-1.035629
0.118600,-1.140469
0.118700,-1.202789
0.118800,-1.191429
0.118900,-1.117099
0.119000,-1.053157
0.119100,-1.088861
0.119200,-1.170331
0.119300,-1.267705
0.119400,-1.253748
0.119500,-1.187209
0.119600,-1.116450
0.119700,-1.118398
0.119800,-1.180068
0.119900,-1.225185
0.120000,-1.232001
0.120100,-1.246608
0.120200,-1.206035
0.120300,-1.238818
0.120400,-1.235896
0.120500,-1.246608
0.120600,-1.224861
0.120700,-1.211228
0.120800,-1.238168
0.120900,-1.271925
0.121000,-1.279390
0.121100,-1.283285
0.121200,-1.304708
0.121300,-1.350798
0.121400,-1.412794
0.121500,-1.487123
0.121600,-1.522503
0.121700,-1.532240
0.121800,-1.563400
0.121900,-1.603973
0.122000,-1.614359
0.122100,-1.589367
0.122200,-1.597157
0.122300,-1.584173
0.122400,-1.565023
0.122500,-1.561777
0.122600,-1.536135
0.122700,-1.503352
0.122800,-1.495887
0.122900,-1.475114
0.123000,-1.475114
0.123100,-1.448822
0.123200,-1.435839
0.123300,-1.423830
0.123400,-1.434216
0.123500,-1.412469
0.123600,-1.418312
0.123700,-1.422856
0.123800,-1.532240
0.123900,-1.556259
0.124000,-1.565672
0.124100,-1.494264
0.124200,-1.436813
0.124300,-1.477710
0.124400,-1.587419
0.124500,-1.683820
0.124600,-1.688689
0.124700,-1.603648
0.124800,-1.556259
0.124900,-1.548469
0.125000,-1.627343
0.125100,-1.666942
0.125200,-1.672135
0.125300,-1.637080
0.125400,-1.585147
0.125500,-1.562102
0.125600,-1.544899
0.125700,-1.569242
0.125800,-1.545223
0.125900,-1.523476
0.126000,-1.494588
0.126100,-1.490694
0.126200,-1.468297
0.126300,-1.475438
0.126400,-1.427075
0.126500,-1.405977
0.126600,-1.368975
0.126700,-1.351448
0.126800,-1.306655
0.126900,-1.239142
0.127000,-1.155075
0.127100,-1.153452
0.127200,-1.223238
0.127300,-1.254073
0.127400,-1.233949
0.127500,-1.141768
0.127600,-1.041472
0.127700,-1.025243
0.127800,-1.097300
0.127900,-1.174875
0.128000,-1.179419
0.128100,-1.129433
0.128200,-1.075553
0.128300,-1.062569
0.128400,-1.062569
0.128500,-1.069061
0.128600,-1.073930
0.128700,-1.046340
0.128800,-1.028488
0.128900,-0.992135
0.129000,-0.984021
0.129100,-0.930140
0.129200,-0.879505
0.129300,-0.853863
0.129400,-0.850617
0.129500,-0.846398
0.129600,-0.848345
0.129700,-0.786675
0.129800,-0.738961
0.129900,-0.702283
0.130000,-0.694169
0.130100,-0.673720
0.130200,-0.632174
0.130300,-0.604909
0.130400,-0.588680
0.130500,-0.548107
0.130600,-0.549405
0.130700,-0.561090
0.130800,-0.599391
0.130900,-0.633147
0.131000,-0.628603
0.131100,-0.693844
0.131200,-0.702283
0.131300,-0.750971
0.131400,-0.741558
0.131500,-0.797386
0.131600,-0.816212
0.131700,-0.895085
0.131800,-0.891190
0.131900,-0.980450
0.132000,-0.961949
0.132100,-0.983371
0.132200,-0.845749
0.132300,-0.936632
0.132400,-1.061920
0.132500,-1.159620
0.132600,-1.189481
0.132700,-1.146961
0.132800,-1.093729
0.132900,-1.058674
0.133000,-1.138197
0.133100,-1.208956
0.133200,-1.230703
0.133300,-1.207982
0.133400,-1.132679
0.133500,-1.094379
0.133600,-1.105090
0.133700,-1.129433
0.133800,-1.145987
0.133900,-1.134302
0.134000,-1.135276
0.134100,-1.111257
0.134200,-1.108985
0.134300,-1.091133
0.134400,-1.079448
0.134500,-1.085290
0.134600,-1.076526
0.134700,-1.056727
0.134800,-1.036927
0.134900,-1.026216
0.135000,-0.987266
0.135100,-0.971362
0.135200,-0.984345
0.135300,-1.087562
0.135400,-1.111906
0.135500,-1.058025
0.135600,-0.945071
0.135700,-0.894761
0.135800,-0.928842
0.135900,-1.022321
0.136000,-1.043744
0.136100,-0.972011
0.136200,-0.843801
0.136300,-0.796737
0.136400,-0.807448
0.136500,-0.861978
0.136600,-0.855486
0.136700,-0.835362
0.136800,-0.814913
0.136900,-0.809071
0.137000,-0.828546
0.137100,-0.810694
0.137200,-0.814913
0.137300,-0.806150
0.137400,-0.826598
0.137500,-0.865873
0.137600,-0.897033
0.137700,-0.910990
0.137800,-0.911963
0.137900,-0.906770
0.138000,-0.939877
0.138100,-1.004469
0.138200,-1.027515
0.138300,-1.040173
0.138400,-1.047963
0.138500,-1.105414
0.138600,-1.136250
0.138700,-1.099896
0.138800,-1.113204
0.138900,-1.121968
0.139000,-1.159620
0.139100,-1.199219
0.139200,-1.213825
0.139300,-1.229729
0.139400,-1.236221
0.139500,-1.259591
0.139600,-1.284584
0.139700,-1.287180
0.139800,-1.282312
0.139900,-1.288154
0.140000,-1.327104
0.140100,-1.323209
0.140200,-1.347553
0.140300,-1.336517
0.140400,-1.419935
0.140500,-1.510818
0.140600,-1.540355
0.140700,-1.461481
0.140800,-1.361834
0.140900,-1.356316
0.141000,-1.431295
0.141100,-1.534188
0.141200,-1.580603
0.141300,-1.526722
0.141400,-1.430646
0.141500,-1.397538
0.141600,-1.415390
0.141700,-1.479009
0.141800,-1.477710
0.141900,-1.474140
0.142000,-1.426426
0.142100,-1.409872
0.142200,-1.385529
0.142300,-1.382932
0.142400,-1.421557
0.142500,-1.426102
0.142600,-1.425452
0.142700,-1.397863
0.142800,-1.417338
0.142900,-1.441357
0.143000,-1.450121
0.143100,-1.426102
0.143200,-1.421233
0.143300,-1.424803
0.143400,-1.439085
0.143500,-1.412794
0.143600,-1.342359
0.143700,-1.288803
0.143800,-1.313472
0.143900,-1.373195
0.144000,-1.398837
0.144100,-1.334245
0.144200,-1.223238
0.144300,-1.165787
0.144400,-1.203763
0.144500,-1.271925
0.144600,-1.323209
0.144700,-1.299190
0.144800,-1.231028
0.144900,-1.173901
0.145000,-1.178445
0.145100,-1.199219
0.145200,-1.205386
0.145300,-1.207009
0.145400,-1.202140
0.145500,-1.190455
0.145600,-1.160269
0.145700,-1.114503
0.145800,-1.082369
0.145900,-1.063543
0.146000,-1.051209
0.146100,-1.061596
0.146200,-1.078149
0.146300,-1.063543
0.146400,-0.993758
0.146500,-0.972985
0.146600,-0.976231
0.146700,-0.980126
0.146800,-0.919104
0.146900,-0.925920
0.147000,-0.918130
0.147100,-0.922675
0.147200,-0.899954
0.147300,-0.907419
0.147400,-0.922350
0.147500,-0.970064
0.147600,-0.982073
0.147700,-1.003496
0.147800,-1.035629
0.147900,-1.042770
0.148000,-1.067114
0.148100,-1.080746
0.148200,-1.107037
0.148300,-1.116775
0.148400,-1.162216
0.148500,-1.162216
0.148600,-1.171954
0.148700,-1.173252
0.148800,-1.063219
0.148900,-1.037577
0.149000,-1.120670
0.149100,-1.219667
0.149200,-1.227782
0.149300,-1.210904
0.149400,-1.179744
0.149500,-1.112555
0.149600,-1.131056
0.149700,-1.198894
0.149800,-1.247906
0.149900,-1.248230
0.150000,-1.197920
0.150100,-1.142092
0.150200,-1.139820
0.150300,-1.164813
0.150400,-1.207333
0.150500,-1.246608
0.150600,-1.258942
0.150700,-1.262188
0.150800,-1.249853
0.150900,-1.255371
0.151000,-1.276794
0.151100,-1.299514
0.151200,-1.358264
0.151300,-1.359887
0.151400,-1.417013
0.151500,-1.413118
0.151600,-1.411171
0.151700,-1.387152
0.151800,-1.383906
0.151900,-1.455314
0.152000,-1.558856
0.152100,-1.553987
0.152200,-1.469596
0.152300,-1.371247
0.152400,-1.374168
0.152500,-1.428374
0.152600,-1.518283
0.152700,-1.511467
0.152800,-1.428374
0.152900,-1.324507
0.153000,-1.307954
0.153100,-1.325481
0.153200,-1.330999
0.153300,-1.306006
0.153400,-1.276145
0.153500,-1.211228
0.153600,-1.192078
0.153700,-1.161242
0.153800,-1.107362
0.153900,-1.056402
0.154000,-1.020698
0.154100,-1.017453
0.154200,-1.024593
0.154300,-0.994083
0.154400,-0.945071
0.154500,-0.907095
0.154600,-0.890541
0.154700,-0.896059
0.154800,-0.918455
0.154900,-0.900928
0.155000,-0.888269
0.155100,-0.879830
0.155200,-0.906445
0.155300,-0.902226
0.155400,-0.850617
0.155500,-0.861978
0.155600,-0.877882
0.155700,-0.891839
0.155800,-0.897357
0.155900,-0.938904
0.156000,-0.962274
0.156100,-0.966493
0.156200,-1.001873
0.156300,-1.026541
0.156400,-1.038226
0.156500,-1.059648
0.156600,-1.092431
0.156700,-1.132030
0.156800,-1.170980
0.156900,-1.200192
0.157000,-1.267381
0.157100,-1.341061
0.157200,-1.440059
0.157300,-1.410846
0.157400,-1.364431
0.157500,-1.316393
0.157600,-1.317367
0.157700,-1.411171
0.157800,-1.468622
0.157900,-1.497185
0.158000,-1.403056
0.158100,-1.317367
0.158200,-1.290102
0.158300,-1.302760
0.158400,-1.353071
0.158500,-1.371896
0.158600,-1.334894
0.158700,-1.291075
0.158800,-1.263810
0.158900,-1.226159
0.159000,-1.229405
0.159100,-1.200841
0.159200,-1.197271
0.159300,-1.166111
0.159400,-1.148259
0.159500,-1.140145
0.159600,-1.144364
0.159700,-1.140794
0.159800,-1.107686
0.159900,-1.105739
0.160000,-1.085939
0.160100,-1.062245
0.160200,-1.006741
0.160300,-0.935333
0.160400,-0.919753
0.160500,-0.977204
0.160600,-1.056078
0.160700,-1.071658
0.160800,-0.996030
0.160900,-0.933061
0.161000,-0.921701
0.161100,-0.995706
0.161200,-1.095677
0.161300,-1.138522
0.161400,-1.114827
0.161500,-1.061271
0.161600,-1.063219
0.161700,-1.089834
0.161800,-1.097949
0.161900,-1.106388
0.162000,-1.096001
0.162100,-1.107037
0.162200,-1.076851
0.162300,-1.048937
0.162400,-1.035954
0.162500,-0.991486
0.162600,-0.968765
0.162700,-0.979152
0.162800,-0.994407
0.162900,-0.999601
0.163000,-0.983371
0.163100,-0.925920
0.163200,-0.941825
0.163300,-0.935009
0.163400,-0.929815
0.163500,-0.880803
0.163600,-0.893462
0.163700,-0.880479
0.163800,-0.880154
0.163900,-0.854188
0.164000,-0.888593
0.164100,-0.928192
0.164200,-0.962274
0.164300,-0.991161
0.164400,-1.053157
0.164500,-1.084316
0.164600,-1.140145
0.164700,-1.168059
0.164800,-1.215448
0.164900,-1.215123
0.165000,-1.307954
0.165100,-1.310226
0.165200,-1.393968
0.165300,-1.381634
0.165400,-1.338789
0.165500,-1.278741
0.165600,-1.245309
0.165700,-1.417662
0.165800,-1.461481
0.165900,-1.505624
0.166000,-1.465376
0.166100,-1.381958
0.166200,-1.334569
0.166300,-1.381309
0.166400,-1.462779
0.166500,-1.495887
0.166600,-1.480956
0.166700,-1.433567
0.166800,-1.383906
0.166900,-1.382608
0.167000,-1.410846
0.167100,-1.410846
0.167200,-1.407600
0.167300,-1.410846
0.167400,-1.403381
0.167500,-1.404030
0.167600,-1.398837
0.167700,-1.403705
0.167800,-1.412145
0.167900,-1.413443
0.168000,-1.408899
0.168100,-1.382283
0.168200,-1.323858
0.168300,-1.288154
0.168400,-1.241739
0.168500,-1.248555
0.168600,-1.327753
0.168700,-1.368975
0.168800,-1.317042
0.168900,-1.238818
0.169000,-1.170655
0.169100,-1.191429
0.169200,-1.300164
0.169300,-1.333920
0.169400,-1.279390
0.169500,-1.191104
0.169600,-1.136250
0.169700,-1.148584
0.169800,-1.175849
0.169900,-1.178445
0.170000,-1.151505
0.170100,-1.126837
0.170200,-1.098598
0.170300,-1.104116
0.170400,-1.070359
0.170500,-1.062569
0.170600,-1.024593
0.170700,-1.010312
0.170800,-1.004794
0.170900,-1.006092
0.171000,-0.996355
0.171100,-0.970388
0.171200,-0.948966
0.171300,-0.949290
0.171400,-0.994732
0.171500,-1.004469
0.171600,-0.989538
0.171700,-0.959028
0.171800,-0.955782
0.171900,-0.972985
0.172000,-0.934360
0.172100,-0.923324
0.172200,-0.913262
0.172300,-0.906770
0.172400,-0.889567
0.172500,-0.907744
0.172600,-0.899629
0.172700,-0.911639
0.172800,-0.913911
0.172900,-0.931438
0.173000,-0.931438
0.173100,-0.913262
0.173200,-0.904173
0.173300,-0.901577
0.173400,-0.895085
0.173500,-0.902550
0.173600,-0.915534
0.173700,-0.953185
0.173800,-1.050884
0.173900,-1.116126
0.174000,-1.072631
0.174100,-0.979476
0.174200,-0.947343
0.174300,-1.007715
0.174400,-1.149882
0.174500,-1.212202
0.174600,-1.204412
0.174700,-1.120670
0.174800,-1.084316
0.174900,-1.110283
0.175000,-1.180717
0.175100,-1.256670
0.175200,-1.246608
0.175300,-1.185586
0.175400,-1.157997
0.175500,-1.159295
0.175600,-1.165462
0.175700,-1.185586
0.175800,-1.164813
0.175900,-1.132679
0.176000,-1.141118
0.176100,-1.123266
0.176200,-1.151505
0.176300,-1.180393
0.176400,-1.158321
0.176500,-1.171304
0.176600,-1.161892
0.176700,-1.170006
0.176800,-1.151830
0.176900,-1.074904
0.177000,-1.060297
0.177100,-1.073930
0.177200,-1.141768
0.177300,-1.200841
0.177400,-1.191753
0.177500,-1.118722
0.177600,-1.059973
0.177700,-1.103791
0.177800,-1.178445
0.177900,-1.242388
0.178000,-1.277443
0.178100,-1.256020
0.178200,-1.251801
0.178300,-1.256670
0.178400,-1.301462
0.178500,-1.357290
0.178600,-1.362808
0.178700,-1.370273
0.178800,-1.371896
0.178900,-1.340736
0.179000,-1.335219
0.179100,-1.310550
0.179200,-1.286856
0.179300,-1.270951
0.179400,-1.279066
0.179500,-1.292374
0.179600,-1.285882
0.179700,-1.226483
0.179800,-1.174226
0.179900,-1.160593
0.180000,-1.167409
0.180100,-1.127810
0.180200,-1.118722
0.180300,-1.094379
0.180400,-1.064192
0.180500,-1.046340
0.180600,-1.034331
0.180700,-1.070684
0.180800,-1.084641
0.180900,-1.112231
0.181000,-1.117748
0.181100,-1.148584
0.181200,-1.142741
0.181300,-1.138197
0.181400,-1.145338
0.181500,-1.149557
0.181600,-1.182665
0.181700,-1.216746
0.181800,-1.234273
0.181900,-1.245309
0.182000,-1.255696
0.182100,-1.173577
0.182200,-1.057052
0.182300,-1.101844
0.182400,-1.213176
0.182500,-1.282961
0.182600,-1.264460
0.182700,-1.183314
0.182800,-1.110283
0.182900,-1.094703
0.183000,-1.168708
0.183100,-1.225185
0.183200,-1.236546
0.183300,-1.190130
0.183400,-1.121968
0.183500,-1.096326
0.183600,-1.107686
0.183700,-1.126188
0.183800,-1.114827
0.183900,-1.087238
0.184000,-1.058350
0.184100,-1.033357
0.184200,-1.040822
0.184300,-1.013233
0.184400,-0.996355
0.184500,-1.043744
0.184600,-1.029787
0.184700,-1.019075
0.184800,-0.982722
0.184900,-0.964221
0.185000,-0.963247
0.185100,-0.934035
0.185200,-1.031410
0.185300,-1.112555
0.185400,-1.101519
0.185500,-1.059973
0.185600,-0.956107
0.185700,-0.943772
0.185800,-0.972336
0.185900,-1.058025
0.186000,-1.056727
0.186100,-0.971686
0.186200,-0.862302
0.186300,-0.816861
0.186400,-0.822379
0.186500,-0.885672
0.186600,-0.872689
0.186700,-0.870741
0.186800,-0.848670
0.186900,-0.833415
0.187000,-0.846398
0.187100,-0.841529
0.187200,-0.845099
0.187300,-0.861004
0.187400,-0.883076
0.187500,-0.912288
0.187600,-0.917157
0.187700,-0.936956
0.187800,-0.923648
0.187900,-0.924947
0.188000,-0.956107
0.188100,-0.997978
0.188200,-1.039524
0.188300,-1.045042
0.188400,-1.069710
0.188500,-1.126837
0.188600,-1.148908
0.188700,-1.150531
0.188800,-1.176498
0.188900,-1.199543
0.189000,-1.247906
0.189100,-1.286856
0.189200,-1.326455
0.189300,-1.340412
0.189400,-1.374168
0.189500,-1.383257
0.189600,-1.395915
0.189700,-1.396565
0.189800,-1.412469
0.189900,-1.420908
0.190000,-1.428374
0.190100,-1.417987
0.190200,-1.426751
0.190300,-1.411820
0.190400,-1.442331
0.190500,-1.570216
0.190600,-1.552040
0.190700,-1.477061
0.190800,-1.376440
0.190900,-1.352097
0.191000,-1.421557
0.191100,-1.520231
0.191200,-1.526722
0.191300,-1.461806
0.191400,-1.346903
0.191500,-1.315094
0.191600,-1.319314
0.191700,-1.366378
0.191800,-1.355018
0.191900,-1.304059
0.192000,-1.266732
0.192100,-1.244335
0.192200,-1.210579
0.192300,-1.208956
0.192400,-1.215772
0.192500,-1.207009
0.192600,-1.174226
0.192700,-1.177147
0.192800,-1.174226
0.192900,-1.186560
0.193000,-1.156374
0.193100,-1.146636
0.193200,-1.144040
0.193300,-1.114503
0.193400,-1.108660
0.193500,-1.029137
0.193600,-0.944097
0.193700,-0.938255
0.193800,-0.958379
0.193900,-1.003496
0.194000,-1.013558
0.194100,-0.954159
0.194200,-0.885997
0.194300,-0.839257
0.194400,-0.889892
0.194500,-0.994083
0.194600,-1.037577
0.194700,-1.037577
0.194800,-1.003820
0.194900,-0.988889
0.195000,-1.008689
0.195100,-1.043419
0.195200,-1.098273
0.195300,-1.108011
0.195400,-1.130083
0.195500,-1.143390
0.195600,-1.124565
0.195700,-1.104441
0.195800,-1.072631
0.195900,-1.059324
0.196000,-1.058025
0.196100,-1.071333
0.196200,-1.086264
0.196300,-1.053481
0.196400,-1.007715
0.196500,-0.984021
0.196600,-0.971686
0.196700,-0.982398
0.196800,-0.927868
0.196900,-0.915534
0.197000,-0.905796
0.197100,-0.875610
0.197200,-0.850942
0.197300,-0.834388
0.197400,-0.850293
0.197500,-0.882751
0.197600,-0.907419
0.197700,-0.955457
0.197800,-0.995706
0.197900,-1.023295
0.198000,-1.052832
0.198100,-1.073930
0.198200,-1.086913
0.198300,-1.104441
0.198400,-1.195973
0.198500,-1.206035
0.198600,-1.260565
0.198700,-1.215123
0.198800,-1.201491
0.198900,-1.114827
0.199000,-1.291725
0.199100,-1.385204
0.199200,-1.480631
0.199300,-1.450770
0.199400,-1.393643
0.199500,-1.380985
0.199600,-1.456288
0.199700,-1.560479
0.199800,-1.641300
0.199900,-1.650064
0.200000,-1.621500
0.200100,-1.596832
0.200200,-1.617605
0.200300,-1.662722
0.200400,-1.696479
0.200500,-1.726016
0.200600,-1.707515
0.200700,-1.708488
0.200800,-1.702970
0.200900,-1.690312
0.201000,-1.663696
0.201100,-1.625720
0.201200,-1.666942
0.201300,-1.647142
0.201400,-1.651362
0.201500,-1.628966
0.201600,-1.583200
0.201700,-1.564049
0.201800,-1.537109
0.201900,-1.585472
0.202000,-1.611763
0.202100,-1.565347
0.202200,-1.455963
0.202300,-1.331973
0.202400,-1.328727
0.202500,-1.377739
0.202600,-1.404030
0.202700,-1.380985
0.202800,-1.280689
0.202900,-1.182989
0.203000,-1.174550
0.203100,-1.201491
0.203200,-1.232651
0.203300,-1.196946
0.203400,-1.194025
0.203500,-1.141768
0.203600,-1.139820
0.203700,-1.098598
0.203800,-1.083343
0.203900,-1.046665
0.204000,-1.026216
0.204100,-1.026865
0.204200,-1.048288
0.204300,-1.029462
0.204400,-1.000574
0.204500,-0.987916
0.204600,-0.972011
0.204700,-1.005768
0.204800,-1.047314
0.204900,-1.055104
0.205000,-1.043419
0.205100,-1.048612
0.205200,-1.073605
0.205300,-1.074254
0.205400,-1.063868
0.205500,-1.071333
0.205600,-1.077176
0.205700,-1.087238
0.205800,-1.087238
0.205900,-1.083667
0.206000,-1.071333
0.206100,-1.059648
0.206200,-1.049911
0.206300,-1.045042
0.206400,-1.011610
0.206500,-0.983371
0.206600,-0.943123
0.206700,-0.937281
0.206800,-0.912937
0.206900,-0.915209
0.207000,-0.941825
0.207100,-1.003171
0.207200,-1.071982
0.207300,-1.025892
0.207400,-0.934684
0.207500,-0.835362
0.207600,-0.881777
0.207700,-0.979801
0.207800,-1.071658
0.207900,-1.060947
0.208000,-0.987591
0.208100,-0.923324
0.208200,-0.930789
0.208300,-0.968116
0.208400,-1.013233
0.208500,-1.028488
0.208600,-0.966169
0.208700,-0.920727
0.208800,-0.897682
0.208900,-0.872364
0.209000,-0.882426
0.209100,-0.858407
0.209200,-0.852889
0.209300,-0.823352
0.209400,-0.824651
0.209500,-0.847047
0.209600,-0.858732
0.209700,-0.828546
0.209800,-0.822054
0.209900,-0.817835
0.210000,-0.840231
0.210100,-0.812966
0.210200,-0.751944
0.210300,-0.696766
0.210400,-0.717539
0.210500,-0.759734
0.210600,-0.838932
0.210700,-0.835362
0.210800,-0.764279
0.210900,-0.676641
0.211000,-0.688651
0.211100,-0.759734
0.211200,-0.842178
0.211300,-0.873014
0.211400,-0.834713
0.211500,-0.795763
0.211600,-0.802579
0.211700,-0.824975
0.211800,-0.846722
0.211900,-0.872040
0.212000,-0.902550
0.212100,-0.930140
0.212200,-0.909042
0.212300,-0.917157
0.212400,-0.911963
0.212500,-0.905796
0.212600,-0.898980
0.212700,-0.931438
0.212800,-0.954159
0.212900,-0.983047
0.213000,-0.946694
0.213100,-0.914885
0.213200,-0.942149
0.213300,-0.957405
0.213400,-0.941176
0.213500,-0.921052
0.213600,-0.909042
0.213700,-0.895734
0.213800,-0.876584
0.213900,-0.863276
0.214000,-0.872364
0.214100,-0.885023
0.214200,-0.914560
0.214300,-0.926245
0.214400,-0.979152
0.214500,-0.974608
0.214600,-1.002522
0.214700,-0.980775
0.214800,-1.024593
0.214900,-1.013558
0.215000,-1.076202
0.215100,-1.097624
0.215200,-1.134951
0.215300,-1.124240
0.215400,-1.087562
0.215500,-0.991161
0.215600,-1.025243
0.215700,-1.172278
0.215800,-1.264460
0.215900,-1.296918
0.216000,-1.252125
0.216100,-1.196946
0.216200,-1.185911
0.216300,-1.271925
0.216400,-1.359887
0.216500,-1.391371
0.216600,-1.352421
0.216700,-1.317691
0.216800,-1.318340
0.216900,-1.361834
0.217000,-1.415715
0.217100,-1.462779
0.217200,-1.519257
0.217300,-1.540030
0.217400,-1.549118
0.217500,-1.599753
0.217600,-1.616956
0.217700,-1.654283
0.217800,-1.695505
0.217900,-1.721472
0.218000,-1.753930
0.218100,-1.742245
0.218200,-1.781520
0.218300,-1.727314
0.218400,-1.724068
0.218500,-1.686741
0.218600,-1.811381
0.218700,-1.798722
0.218800,-1.744192
0.218900,-1.624422
0.219000,-1.536135
0.219100,-1.561777
0.219200,-1.605596
0.219300,-1.606245
0.219400,-1.520555
0.219500,-1.411495
0.219600,-1.338140
0.219700,-1.295295
0.219800,-1.319639
0.219900,-1.306331
0.220000,-1.257968
0.220100,-1.216097
0.220200,-1.177147
0.220300,-1.193051
0.220400,-1.149557
0.220500,-1.127161
0.220600,-1.103467
0.220700,-1.106388
0.220800,-1.111906
0.220900,-1.101844
0.221000,-1.073930
0.221100,-1.067114
0.221200,-1.035305
0.221300,-1.052832
0.221400,-1.085290
0.221500,-1.101519
0.221600,-1.078149
0.221700,-1.063219
0.221800,-1.060947
0.221900,-1.057701
0.222000,-1.013882
0.222100,-1.013882
0.222200,-0.999601
0.222300,-0.976231
0.222400,-0.965195
0.222500,-0.959677
0.222600,-0.946369
0.222700,-0.955457
0.222800,-0.973959
0.222900,-0.973959
0.223000,-0.983047
0.223100,-0.992460
0.223200,-1.013558
0.223300,-1.026216
0.223400,-1.028164
0.223500,-1.036927
0.223600,-1.047314
0.223700,-1.088536
0.223800,-1.170331
0.223900,-1.213176
0.224000,-1.127486
0.224100,-1.064192
0.224200,-1.029787
0.224300,-1.137873
0.224400,-1.281338
0.224500,-1.353720
0.224600,-1.345930
0.224700,-1.298865
0.224800,-1.294970
0.224900,-1.373519
0.225000,-1.473166
0.225100,-1.560154
0.225200,-1.573462
0.225300,-1.589367
0.225400,-1.588393
0.225500,-1.602350
0.225600,-1.616956
0.225700,-1.635782
0.225800,-1.645195
0.225900,-1.639677
0.226000,-1.645844
0.226100,-1.671161
0.226200,-1.667266
0.226300,-1.685768
0.226400,-1.673433
0.226500,-1.680250
0.226600,-1.699725
0.226700,-1.710760
0.226800,-1.707839
0.226900,-1.620527
0.227000,-1.589042
0.227100,-1.628641
0.227200,-1.705892
0.227300,-1.759772
0.227400,-1.700698
0.227500,-1.607543
0.227600,-1.533214
0.227700,-1.542302
0.227800,-1.602350
0.227900,-1.639352
0.228000,-1.598455
0.228100,-1.533214
0.228200,-1.462130
0.228300,-1.410197
0.228400,-1.383257
0.228500,-1.358588
0.228600,-1.341061
0.228700,-1.285882
0.228800,-1.261863
0.228900,-1.199868
0.229000,-1.145662
0.229100,-1.097300
0.229200,-1.059973
0.229300,-1.020049
0.229400,-0.993433
0.229500,-0.990188
0.229600,-0.977204
0.229700,-0.892488
0.229800,-0.861653
0.229900,-0.845749
0.230000,-0.827897
0.230100,-0.771095
0.230200,-0.747400
0.230300,-0.716890
0.230400,-0.676317
0.230500,-0.634446
0.230600,-0.644508
0.230700,-0.646780
0.230800,-0.683782
0.230900,-0.684431
0.231000,-0.701959
0.231100,-0.714293
0.231200,-0.749348
0.231300,-0.719811
0.231400,-0.745777
0.231500,-0.717214
0.231600,-0.756164
0.231700,-0.764603
0.231800,-0.787648
0.231900,-0.774665
0.232000,-0.728250
0.232100,-0.675668
0.232200,-0.575696
0.232300,-0.679563
0.232400,-0.810045
0.232500,-0.812317
0.232600,-0.777911
0.232700,-0.678589
0.232800,-0.607181
0.232900,-0.619840
0.233000,-0.665930
0.233100,-0.724355
0.233200,-0.719486
0.233300,-0.652947
0.233400,-0.586408
0.233500,-0.593873
0.233600,-0.620813
0.233700,-0.659763
0.233800,-0.664956
0.233900,-0.674369
0.234000,-0.678914
0.234100,-0.712995
0.234200,-0.748699
0.234300,-0.768174
0.234400,-0.783753
0.234500,-0.822054
0.234600,-0.845424
0.234700,-0.905147
0.234800,-0.914885
0.234900,-0.960326
0.235000,-0.949290
0.235100,-0.959028
0.235200,-1.033357
0.235300,-1.169032
0.235400,-1.158970
0.235500,-1.115152
0.235600,-1.005443
0.235700,-1.029137
0.235800,-1.100870
0.235900,-1.186235
0.236000,-1.185586
0.236100,-1.107037
0.236200,-1.032708
0.236300,-0.993433
0.236400,-1.023620
0.236500,-1.035305
0.236600,-1.025567
0.236700,-1.010636
0.236800,-0.971362
0.236900,-0.950913
0.237000,-0.950264
0.237100,-0.929491
0.237200,-0.899629
0.237300,-0.859381
0.237400,-0.843477
0.237500,-0.857109
0.237600,-0.845749
0.237700,-0.833739
0.237800,-0.789271
0.237900,-0.793491
0.238000,-0.792193
0.238100,-0.824002
0.238200,-0.838932
0.238300,-0.845749
0.238400,-0.847372
0.238500,-0.869768
0.238600,-0.873987
0.238700,-0.836336
0.238800,-0.850942
0.238900,-0.865548
0.239000,-0.887620
0.239100,-0.904173
0.239200,-0.922350
0.239300,-0.965844
0.239400,-1.011935
0.239500,-1.056078
0.239600,-1.098923
0.239700,-1.137223
0.239800,-1.163839
0.239900,-1.207658
0.240000,-1.259591
0.240100,-1.274197
0.240200,-1.334245
0.240300,-1.351448
0.240400,-1.461157
0.240500,-1.534837
0.240600,-1.535486
0.240700,-1.488421
0.240800,-1.428374
0.240900,-1.440383
0.241000,-1.534512
0.241100,-1.651037
0.241200,-1.679276
0.241300,-1.586445
0.241400,-1.525424
0.241500,-1.474140
0.241600,-1.529968
0.241700,-1.571190
0.241800,-1.604947
0.241900,-1.545223
0.242000,-1.494264
0.242100,-1.464402
0.242200,-1.434541
0.242300,-1.450445
0.242400,-1.408574
0.242500,-1.387476
0.242600,-1.322560
0.242700,-1.328078
0.242800,-1.326455
0.242900,-1.341710
0.243000,-1.304708
0.243100,-1.309901
0.243200,-1.312498
0.243300,-1.325806
0.243400,-1.322884
0.243500,-1.278741
0.243600,-1.210579
0.243700,-1.232326
0.243800,-1.272899
0.243900,-1.347877
0.244000,-1.369624
0.244100,-1.293672
0.244200,-1.211877
0.244300,-1.179419
0.244400,-1.234923
0.244500,-1.310226
0.244600,-1.345930
0.244700,-1.325481
0.244800,-1.248880
0.244900,-1.215123
0.245000,-1.207658
0.245100,-1.216746
0.245200,-1.237844
0.245300,-1.227133
0.245400,-1.215448
0.245500,-1.171954
0.245600,-1.138846
0.245700,-1.126512
0.245800,-1.099247
0.245900,-1.092431
0.246000,-1.100870
0.246100,-1.091133
0.246200,-1.120020
0.246300,-1.116126
0.246400,-1.074904
0.246500,-1.068087
0.246600,-1.068412
0.246700,-1.083018
0.246800,-1.037901
0.246900,-1.031734
0.247000,-1.018102
0.247100,-0.998627
0.247200,-0.997978
0.247300,-0.989214
0.247400,-1.024918
0.247500,-1.075553
0.247600,-1.087562
0.247700,-1.144689
0.247800,-1.165787
0.247900,-1.188183
0.248000,-1.175524
0.248100,-1.203438
0.248200,-1.200517
0.248300,-1.252125
0.248400,-1.234923
0.248500,-1.242063
0.248600,-1.192727
0.248700,-1.133653
0.248800,-0.997328
0.248900,-0.978827
0.249000,-1.065491
0.249100,-1.166760
0.249200,-1.145987
0.249300,-1.076851
0.249400,-0.982073
0.249500,-0.929815
0.249600,-0.964546
0.249700,-1.059973
0.249800,-1.093080
0.249900,-1.081071
0.250000,-1.014207
0.250100,-0.990837
0.250200,-1.015505
0.250300,-1.050884
0.250400,-1.094703
0.250500,-1.093729
0.250600,-1.081720
0.250700,-1.090484
0.250800,-1.096001
0.250900,-1.086913
0.251000,-1.097624
0.251100,-1.123915
0.251200,-1.118073
0.251300,-1.207658
0.251400,-1.184937
0.251500,-1.265109
0.251600,-1.272899
0.251700,-1.322235
0.251800,-1.372870
0.251900,-1.564374
0.252000,-1.684794
0.252100,-1.727963
0.252200,-1.762369
0.252300,-1.745815
0.252400,-1.903238
0.252500,-2.060012
0.252600,-2.223277
0.252700,-2.270341
0.252800,-2.264499
0.252900,-2.276833
0.253000,-2.329416
0.253100,-2.438800
0.253200,-2.529034
0.253300,-2.533903
0.253400,-2.541693
0.253500,-2.509884
0.253600,-2.514104
0.253700,-2.478399
0.253800,-2.443344
0.253900,-2.402122
0.254000,-2.338829
0.254100,-2.290466
0.254200,-2.257358
0.254300,-2.194714
0.254400,-2.123305
0.254500,-2.058713
0.254600,-2.003534
0.254700,-2.024632
0.254800,-2.002885
0.254900,-1.972699
0.255000,-1.925634
0.255100,-1.912002
0.255200,-1.932451
0.255300,-1.891553
0.255400,-1.871754
0.255500,-1.850331
0.255600,-1.850980
0.255700,-1.867534
0.255800,-1.852603
0.255900,-1.839944
0.256000,-1.821119
0.256100,-1.790608
0.256200,-1.756527
0.256300,-1.692259
0.256400,-1.640975
0.256500,-1.554961
0.256600,-1.518608
0.256700,-1.486149
0.256800,-1.425452
0.256900,-1.379686
0.257000,-1.333271
0.257100,-1.395266
0.257200,-1.353720
0.257300,-1.289452
0.257400,-1.129758
0.257500,-1.038226
0.257600,-1.010312
0.257700,-1.073281
0.257800,-1.088536
0.257900,-1.028164
0.258000,-0.892164
0.258100,-0.800632
0.258200,-0.774016
0.258300,-0.786999
0.258400,-0.795438
0.258500,-0.772718
0.258600,-0.682808
0.258700,-0.647754
0.258800,-0.587381
0.258900,-0.552651
0.259000,-0.523114
0.259100,-0.464365
0.259200,-0.453329
0.259300,-0.401071
0.259400,-0.385167
0.259500,-0.352709
0.259600,-0.329988
0.259700,-0.319926
0.259800,-0.311487
0.259900,-0.332260
0.260000,-0.333234
0.260100,-0.287143
0.260200,-0.212814
0.260300,-0.160232
0.260400,-0.168346
0.260500,-0.191716
0.260600,-0.245597
0.260700,-0.200480
0.260800,-0.093368
0.260900,-0.005731
0.261000,0.008226
0.261100,-0.061884
0.261200,-0.146275
0.261300,-0.149521
0.261400,-0.108299
0.261500,-0.080709
0.261600,-0.075841
0.261700,-0.103755
0.261800,-0.148871
0.261900,-0.191067
0.262000,-0.218657
0.262100,-0.247869
0.262200,-0.268967
0.262300,-0.286170
0.262400,-0.313110
0.262500,-0.357577
0.262600,-0.405940
0.262700,-0.505911
0.262800,-0.588355
0.262900,-0.692221
0.263000,-0.725978
0.263100,-0.763629
0.263200,-0.870092
0.263300,-0.951562
0.263400,-0.989538
0.263500,-1.048612
0.263600,-1.073605
0.263700,-1.109309
0.263800,-1.091457
0.263900,-1.105739
0.264000,-1.133004
0.264100,-1.183639
0.264200,-1.218369
0.264300,-1.260240
0.264400,-1.321261
0.264500,-1.336192
0.264600,-1.355992
0.264700,-1.384555
0.264800,-1.399161
0.264900,-1.407276
0.265000,-1.423505
0.265100,-1.478359
0.265200,-1.440383
0.265300,-1.474140
0.265400,-1.363457
0.265500,-1.294646
0.265600,-1.304708
0.265700,-1.488097
0.265800,-1.554312
0.265900,-1.515686
0.266000,-1.412145
0.266100,-1.299839
0.266200,-1.269977
0.266300,-1.290426
0.266400,-1.337491
0.266500,-1.318665
0.266600,-1.234598
0.266700,-1.174226
0.266800,-1.127161
0.266900,-1.145987
0.267000,-1.145662
0.267100,-1.130732
0.267200,-1.097300
0.267300,-1.038226
0.267400,-1.019075
0.267500,-0.999276
0.267600,-0.971362
0.267700,-0.970713
0.267800,-0.957080
0.267900,-0.997328
0.268000,-0.949939
0.268100,-0.949939
0.268200,-0.908718
0.268300,-0.875935
0.268400,-0.844450
0.268500,-0.898331
0.268600,-0.995706
0.268700,-1.008689
0.268800,-0.956756
0.268900,-0.873014
0.269000,-0.828870
0.269100,-0.881453
0.269200,-0.989863
0.269300,-1.027190
0.269400,-0.986942
0.269500,-0.915534
0.269600,-0.898006
0.269700,-0.944422
0.269800,-1.013233
0.269900,-1.031410
0.270000,-1.035954
0.270100,-1.023620
0.270200,-1.031734
0.270300,-1.025892
0.270400,-1.021672
0.270500,-1.011285
0.270600,-0.997004
0.270700,-0.986293
0.270800,-1.000574
0.270900,-0.994407
0.271000,-0.983696
0.271100,-0.951238
0.271200,-0.953510
0.271300,-0.961624
0.271400,-1.024593
0.271500,-1.041147
0.271600,-1.025567
0.271700,-1.020049
0.271800,-1.039200
0.271900,-1.044717
0.272000,-0.995056
0.272100,-0.969739
0.272200,-0.985643
0.272300,-0.970713
0.272400,-0.984021
0.272500,-0.972011
0.272600,-0.971037
0.272700,-0.963247
0.272800,-0.981424
0.272900,-0.993758
0.273000,-1.005118
0.273100,-1.021672
0.273200,-1.042445
0.273300,-1.075228
0.273400,-1.086913
0.273500,-1.116126
0.273600,-1.138846
0.273700,-1.235572
0.273800,-1.359887
0.273900,-1.397863
0.274000,-1.358264
0.274100,-1.315419
0.274200,-1.322235
0.274300,-1.441357
0.274400,-1.564049
0.274500,-1.611763
0.274600,-1.588068
0.274700,-1.528345
0.274800,-1.497510
0.274900,-1.569892
0.275000,-1.639028
0.275100,-1.670837
0.275200,-1.664670
0.275300,-1.648765
0.275400,-1.631238
0.275500,-1.657204
0.275600,-1.694207
0.275700,-1.706865
0.275800,-1.710111
0.275900,-1.731534
0.276000,-1.714655
0.276100,-1.751658
0.276200,-1.772756
0.276300,-1.788660
0.276400,-1.779247
0.276500,-1.798398
0.276600,-1.801644
0.276700,-1.814302
0.276800,-1.746140
0.276900,-1.680574
0.277000,-1.648765
0.277100,-1.674407
0.277200,-1.744192
0.277300,-1.766589
0.277400,-1.697453
0.277500,-1.562751
0.277600,-1.493939
0.277700,-1.478684
0.277800,-1.499457
0.277900,-1.510168
0.278000,-1.432269
0.278100,-1.324507
0.278200,-1.244985
0.278300,-1.173252
0.278400,-1.126837
0.278500,-1.109634
0.278600,-1.077176
0.278700,-1.055753
0.278800,-1.003820
0.278900,-0.952536
0.279000,-0.908068
0.279100,-0.855486
0.279200,-0.818159
0.279300,-0.808422
0.279400,-0.829844
0.279500,-0.831467
0.279600,-0.800956
0.279700,-0.746427
0.279800,-0.731496
0.279900,-0.732145
0.280000,-0.745128
0.280100,-0.697090
0.280200,-0.684431
0.280300,-0.679238
0.280400,-0.675019
0.280500,-0.651324
0.280600,-0.632498
0.280700,-0.665281
0.280800,-0.706178
0.280900,-0.732145
0.281000,-0.768498
0.281100,-0.797710
0.281200,-0.832116
0.281300,-0.855486
0.281400,-0.873663
0.281500,-0.891190
0.281600,-0.910340
0.281700,-0.972011
0.281800,-0.969739
0.281900,-1.030436
0.282000,-0.949290
0.282100,-0.967142
0.282200,-0.889567
0.282300,-1.058674
0.282400,-1.156374
0.282500,-1.215772
0.282600,-1.237844
0.282700,-1.193051
0.282800,-1.161892
0.282900,-1.218044
0.283000,-1.321261
0.283100,-1.396565
0.283200,-1.413118
0.283300,-1.388125
0.283400,-1.363133
0.283500,-1.395266
0.283600,-1.430321
0.283700,-1.494264
0.283800,-1.504326
0.283900,-1.517309
0.284000,-1.528994
0.284100,-1.529319
0.284200,-1.541004
0.284300,-1.578331
0.284400,-1.603648
0.284500,-1.646493
0.284600,-1.735753
0.284700,-1.757176
0.284800,-1.827610
0.284900,-1.836374
0.285000,-1.833128
0.285100,-1.842541
0.285200,-1.958417
0.285300,-2.075916
0.285400,-2.075916
0.285500,-2.018465
0.285600,-1.901615
0.285700,-1.923362
0.285800,-1.992498
0.285900,-2.056441
0.286000,-2.017167
0.286100,-1.902589
0.286200,-1.780870
0.286300,-1.704269
0.286400,-1.707839
0.286500,-1.685118
0.286600,-1.614035
0.286700,-1.551390
0.286800,-1.469271
0.286900,-1.431944
0.287000,-1.365405
0.287100,-1.282961
0.287200,-1.223238
0.287300,-1.172603
0.287400,-1.142741
0.287500,-1.135276
0.287600,-1.077500
0.287700,-1.040498
0.287800,-0.986617
0.287900,-0.958703
0.288000,-0.960002
0.288100,-0.965195
0.288200,-0.922675
0.288300,-0.867171
0.288400,-0.847696
0.288500,-0.866846
0.288600,-0.825300
0.288700,-0.765577
0.288800,-0.752269
0.288900,-0.759410
0.289000,-0.740259
0.289100,-0.748699
0.289200,-0.756489
0.289300,-0.765252
0.289400,-0.779534
0.289500,-0.799983
0.289600,-0.803878
0.289700,-0.818808
0.289800,-0.827247
0.289900,-0.837634
0.290000,-0.871066
0.290100,-0.873014
0.290200,-0.903524
0.290300,-0.896383
0.290400,-1.010636
0.290500,-1.047963
0.290600,-1.032383
0.290700,-0.934684
0.290800,-0.873014
0.290900,-0.874312
0.291000,-0.968441
0.291100,-1.056078
0.291200,-1.044068
0.291300,-0.948317
0.291400,-0.883400
0.291500,-0.867820
0.291600,-0.908718
0.291700,-0.934360
0.291800,-0.965195
0.291900,-0.912288
0.292000,-0.891839
0.292100,-0.871066
0.292200,-0.881777
0.292300,-0.906445
0.292400,-0.915209
0.292500,-0.927868
0.292600,-0.940527
0.292700,-0.965519
0.292800,-1.001873
0.292900,-1.030436
0.293000,-1.014207
0.293100,-1.032383
0.293200,-1.049586
0.293300,-1.090159
0.293400,-1.080097
0.293500,-1.037252
0.293600,-0.972985
0.293700,-1.010961
0.293800,-1.073281
0.293900,-1.143390
0.294000,-1.161242
0.294100,-1.081720
0.294200,-1.017453
0.294300,-1.025243
0.294400,-1.096001
0.294500,-1.196946
0.294600,-1.214149
0.294700,-1.184612
0.294800,-1.135600
0.294900,-1.098273
0.295000,-1.099572
0.295100,-1.102493
0.295200,-1.085939
0.295300,-1.052507
0.295400,-1.065491
0.295500,-1.017128
0.295600,-0.988240
0.295700,-0.937281
0.295800,-0.891190
0.295900,-0.846722
0.296000,-0.864250
0.296100,-0.873987
0.296200,-0.887620
0.296300,-0.838608
0.296400,-0.795114
0.296500,-0.789596
0.296600,-0.804851
0.296700,-0.798684
0.296800,-0.787648
0.296900,-0.772069
0.297000,-0.756489
0.297100,-0.730522
0.297200,-0.696766
0.297300,-0.704555
0.297400,-0.718837
0.297500,-0.733768
0.297600,-0.728250
0.297700,-0.748049
0.297800,-0.739286
0.297900,-0.715267
0.298000,-0.725329
0.298100,-0.694818
0.298200,-0.707801
0.298300,-0.729873
0.298400,-0.715591
0.298500,-0.760059
0.298600,-0.703906
0.298700,-0.643859
0.298800,-0.468260
0.298900,-0.506561
0.299000,-0.645157
0.299100,-0.682159
0.299200,-0.702283
0.299300,-0.601663
0.299400,-0.557520
0.299500,-0.502341
0.299600,-0.572451
0.299700,-0.638990
0.299800,-0.660737
0.299900,-0.636069
0.300000,-0.579591
0.300100,-0.562713
0.300200,-0.574074
0.300300,-0.605883
0.300400,-0.631849
0.300500,-0.632498
0.300600,-0.620813
0.300700,-0.624708
0.300800,-0.637692
0.300900,-0.651973
0.301000,-0.660088
0.301100,-0.684756
0.301200,-0.712995
0.301300,-0.686703
0.301400,-0.705205
0.301500,-0.725978
0.301600,-0.684431
0.301700,-0.673396
0.301800,-0.655868
0.301900,-0.743830
0.302000,-0.786026
0.302100,-0.731820
0.302200,-0.660412
0.302300,-0.571477
0.302400,-0.613673
0.302500,-0.701310
0.302600,-0.751944
0.302700,-0.706178
0.302800,-0.619840
0.302900,-0.570503
0.303000,-0.584785
0.303100,-0.627954
0.303200,-0.634446
0.303300,-0.627954
0.303400,-0.629252
0.303500,-0.619515
0.303600,-0.645806
0.303700,-0.648078
0.303800,-0.661386
0.303900,-0.674045
0.304000,-0.690274
0.304100,-0.732794
0.304200,-0.748699
0.304300,-0.760384
0.304400,-0.772718
0.304500,-0.769796
0.304600,-0.785052
0.304700,-0.829520
0.304800,-0.836336
0.304900,-0.847696
0.305000,-0.846722
0.305100,-0.860355
0.305200,-0.868469
0.305300,-0.833739
0.305400,-0.826923
0.305500,-0.806150
0.305600,-0.815563
0.305700,-0.812966
0.305800,-0.832441
0.305900,-0.821080
0.306000,-0.823352
0.306100,-0.800956
0.306200,-0.779209
0.306300,-0.749348
0.306400,-0.736365
0.306500,-0.726952
0.306600,-0.702933
0.306700,-0.694818
0.306800,-0.704555
0.306900,-0.706503
0.307000,-0.756489
0.307100,-0.836011
0.307200,-0.851267
0.307300,-0.787648
0.307400,-0.695467
0.307500,-0.651324
0.307600,-0.725653
0.307700,-0.848345
0.307800,-0.885672
0.307900,-0.895085
0.308000,-0.821080
0.308100,-0.829520
0.308200,-0.869443
0.308300,-0.953834
0.308400,-1.034980
0.308500,-1.052183
0.308600,-1.027515
0.308700,-1.039200
0.308800,-1.070035
0.308900,-1.083018
0.309000,-1.110932
0.309100,-1.132030
0.309200,-1.107686
0.309300,-1.122293
0.309400,-1.116126
0.309500,-1.097624
0.309600,-1.120020
0.309700,-1.072307
0.309800,-1.045042
0.309900,-1.011285
0.310000,-0.997328
0.310100,-0.933061
0.310200,-0.838608
0.310300,-0.774990
0.310400,-0.753243
0.310500,-0.778236
0.310600,-0.790570
0.310700,-0.721758
0.310800,-0.613673
0.310900,-0.521816
0.311000,-0.511429
0.311100,-0.570179
0.311200,-0.621463
0.311300,-0.600365
0.311400,-0.577969
0.311500,-0.573749
0.311600,-0.560766
0.311700,-0.585434
0.311800,-0.640613
0.311900,-0.697415
0.312000,-0.768498
0.312100,-0.831142
0.312200,-0.864250
0.312300,-0.917806
0.312400,-0.976880
0.312500,-1.028488
0.312600,-1.083343
0.312700,-1.145987
0.312800,-1.208307
0.312900,-1.249529
0.313000,-1.238818
0.313100,-1.233624
0.313200,-1.245634
0.313300,-1.245309
0.313400,-1.202464
0.313500,-1.171304
0.313600,-1.125538
0.313700,-1.097949
0.313800,-1.040498
0.313900,-1.028813
0.314000,-0.995056
0.314100,-0.992784
0.314200,-0.957405
0.314300,-0.937930
0.314400,-0.931763
0.314500,-0.863276
0.314600,-0.806474
0.314700,-0.742207
0.314800,-0.696441
0.314900,-0.684756
0.315000,-0.652947
0.315100,-0.622112
0.315200,-0.576670
0.315300,-0.520842
0.315400,-0.471181
0.315500,-0.303372
0.315600,-0.426389
0.315700,-0.455277
0.315800,-0.532527
0.315900,-0.426713
0.316000,-0.403344
0.316100,-0.334208
0.316200,-0.328365
0.316300,-0.383869
0.316400,-0.466637
0.316500,-0.466962
0.316600,-0.416651
0.316700,-0.387439
0.316800,-0.399124
0.316900,-0.434828
0.317000,-0.487735
0.317100,-0.522790
0.317200,-0.524737
0.317300,-0.539343
0.317400,-0.553949
0.317500,-0.557195
0.317600,-0.567582
0.317700,-0.552976
0.317800,-0.561415
0.317900,-0.575696
0.318000,-0.583486
0.318100,-0.568880
0.318200,-0.561415
0.318300,-0.510456
0.318400,-0.519544
0.318500,-0.524737
0.318600,-0.657491
0.318700,-0.612050
0.318800,-0.568231
0.318900,-0.463391
0.319000,-0.475725
0.319100,-0.506885
0.319200,-0.626980
0.319300,-0.587706
0.319400,-0.545510
0.319500,-0.449434
0.319600,-0.433854
0.319700,-0.468909
0.319800,-0.504613
0.319900,-0.490007
0.320000,-0.462417
0.320100,-0.447487
0.320200,-0.448136
0.320300,-0.458198
0.320400,-0.469234
0.320500,-0.453654
0.320600,-0.449110
0.320700,-0.487410
0.320800,-0.524088
0.320900,-0.544212
0.321000,-0.526685
0.321100,-0.519868
0.321200,-0.526685
0.321300,-0.572775
0.321400,-0.629577
0.321500,-0.643534
0.321600,-0.647754
0.321700,-0.613997
0.321800,-0.649701
0.321900,-0.661711
0.322000,-0.617892
0.322100,-0.605233
0.322200,-0.593548
0.322300,-0.586732
0.322400,-0.589329
0.322500,-0.602961
0.322600,-0.601014
0.322700,-0.611400
0.322800,-0.621138
0.322900,-0.617892
0.323000,-0.636069
0.323100,-0.646780
0.323200,-0.639964
0.323300,-0.671448
0.323400,-0.664632
0.323500,-0.693520
0.323600,-0.685405
0.323700,-0.798360
0.323800,-0.874636
0.323900,-0.915858
0.324000,-0.830493
0.324100,-0.785052
0.324200,-0.745128
0.324300,-0.862627
0.324400,-0.958703
0.324500,-0.987591
0.324600,-0.935658
0.324700,-0.865548
0.324800,-0.844775
0.324900,-0.902875
0.325000,-0.959677
0.325100,-0.957080
0.325200,-0.926570
0.325300,-0.892813
0.325400,-0.876259
0.325500,-0.855811
0.325600,-0.871391
0.325700,-0.864899
0.325800,-0.865224
0.325900,-0.852889
0.326000,-0.846073
0.326100,-0.854512
0.326200,-0.863925
0.326300,-0.833090
0.326400,-0.826598
0.326500,-0.826274
0.326600,-0.846722
0.326700,-0.838932
0.326800,-0.767200
0.326900,-0.708775
0.327000,-0.710398
0.327100,-0.746427
0.327200,-0.826923
0.327300,-0.851591
0.327400,-0.784403
0.327500,-0.712670
0.327600,-0.717214
0.327700,-0.787648
0.327800,-0.869443
0.327900,-0.943123
0.328000,-0.898331
0.328100,-0.858407
0.328200,-0.841529
0.328300,-0.865548
0.328400,-0.910990
0.328500,-0.931114
0.328600,-0.950913
0.328700,-0.947018
0.328800,-0.930789
0.328900,-0.915858
0.329000,-0.888918
0.329100,-0.871391
0.329200,-0.856460
0.329300,-0.883076
0.329400,-0.893787
0.329500,-0.929815
0.329600,-0.948966
0.329700,-0.926245
0.329800,-0.956756
0.329900,-1.016479
0.330000,-1.031085
0.330100,-1.052183
0.330200,-1.069061
0.330300,-1.064842
0.330400,-1.071658
0.330500,-1.062894
0.330600,-1.090159
0.330700,-1.118398
0.330800,-1.150856
0.330900,-1.159295
0.331000,-1.190130
0.331100,-1.190455
0.331200,-1.216421
0.331300,-1.199219
0.331400,-1.244660
0.331500,-1.252775
0.331600,-1.282636
0.331700,-1.263486
0.331800,-1.301137
0.331900,-1.267705
0.332000,-1.199543
0.332100,-1.097624
0.332200,-1.043419
0.332300,-1.150531
0.332400,-1.251801
0.332500,-1.204736
0.332600,-1.178770
0.332700,-1.042121
0.332800,-0.976880
0.332900,-0.997653
0.333000,-1.038550
0.333100,-1.045042
0.333200,-0.973959
0.333300,-0.873014
0.333400,-0.790245
0.333500,-0.766551
0.333600,-0.748049
0.333700,-0.743830
0.333800,-0.708450
0.333900,-0.679887
0.334000,-0.629577
0.334100,-0.605233
0.334200,-0.558494
0.334300,-0.546809
0.334400,-0.554599
0.334500,-0.536422
0.334600,-0.551677
0.334700,-0.545510
0.334800,-0.558169
0.334900,-0.508508
0.335000,-0.514350
0.335100,-0.516623
0.335200,-0.624708
0.335300,-0.648727
0.335400,-0.629902
0.335500,-0.564985
0.335600,-0.475076
0.335700,-0.481892
0.335800,-0.540317
0.335900,-0.604260
0.336000,-0.567582
0.336100,-0.496498
0.336200,-0.416327
0.336300,-0.398150
0.336400,-0.462417
0.336500,-0.486436
0.336600,-0.490656
0.336700,-0.488384
0.336800,-0.442293
0.336900,-0.456900
0.337000,-0.446837
0.337100,-0.433205
0.337200,-0.421845
0.337300,-0.423468
0.337400,-0.453654
0.337500,-0.487086
0.337600,-0.492604
0.337700,-0.490981
0.337800,-0.500718
0.337900,-0.539992
0.338000,-0.597443
0.338100,-0.638341
0.338200,-0.648403
0.338300,-0.632823
0.338400,-0.668202
0.338500,-0.706178
0.338600,-0.707152
0.338700,-0.694818
0.338800,-0.694169
0.338900,-0.737663
0.339000,-0.752918
0.339100,-0.790245
0.339200,-0.806150
0.339300,-0.829844
0.339400,-0.879181
0.339500,-0.899954
0.339600,-0.921701
0.339700,-0.947018
0.339800,-0.982722
0.339900,-1.021672
0.340000,-1.040822
0.340100,-1.085615
0.340200,-1.128460
0.340300,-1.166436
0.340400,-1.313147
0.340500,-1.395266
0.340600,-1.411495
0.340700,-1.318340
0.340800,-1.315094
0.340900,-1.381634
0.341000,-1.524450
0.341100,-1.636106
0.341200,-1.624422
0.341300,-1.558531
0.341400,-1.513739
0.341500,-1.511467
0.341600,-1.561777
0.341700,-1.606894
0.341800,-1.610789
0.341900,-1.570216
0.342000,-1.531266
0.342100,-1.496536
0.342200,-1.474140
0.342300,-1.474140
0.342400,-1.464078
0.342500,-1.434541
0.342600,-1.402083
0.342700,-1.363782
0.342800,-1.338140
0.342900,-1.299190
0.343000,-1.280040
0.343100,-1.258617
0.343200,-1.252125
0.343300,-1.245958
0.343400,-1.195324
0.343500,-1.098273
0.343600,-1.060297
0.343700,-1.051858
0.343800,-1.076526
0.343900,-1.126188
0.344000,-1.056402
0.344100,-0.967791
0.344200,-0.867171
0.344300,-0.843477
0.344400,-0.901901
0.344500,-0.970388
0.344600,-0.992135
0.344700,-0.926245
0.344800,-0.885672
0.344900,-0.846398
0.345000,-0.834713
0.345100,-0.857758
0.345200,-0.864574
0.345300,-0.844126
0.345400,-0.837634
0.345500,-0.816536
0.345600,-0.787324
0.345700,-0.750322
0.345800,-0.723381
0.345900,-0.715916
0.346000,-0.710723
0.346100,-0.724030
0.346200,-0.741558
0.346300,-0.700985
0.346400,-0.683782
0.346500,-0.689625
0.346600,-0.729873
0.346700,-0.714618
0.346800,-0.710723
0.346900,-0.724680
0.347000,-0.729224
0.347100,-0.716240
0.347200,-0.732145
0.347300,-0.754866
0.347400,-0.824651
0.347500,-0.849968
0.347600,-0.890541
0.347700,-0.926570
0.347800,-0.938579
0.347900,-0.944746
0.348000,-0.936307
0.348100,-0.944097
0.348200,-0.954484
0.348300,-0.941176
0.348400,-1.007066
0.348500,-0.984021
0.348600,-0.994083
0.348700,-0.851267
0.348800,-0.796737
0.348900,-0.749348
0.349000,-0.898655
0.349100,-0.899629
0.349200,-0.899305
0.349300,-0.820756
0.349400,-0.719486
0.349500,-0.688976
0.349600,-0.706828
0.349700,-0.757462
0.349800,-0.751295
0.349900,-0.674045
0.350000,-0.582837
0.350100,-0.557844
0.350200,-0.565310
0.350300,-0.578293
0.350400,-0.579267
0.350500,-0.589329
0.350600,-0.590952
0.350700,-0.598093
0.350800,-0.615620
0.350900,-0.627305
0.351000,-0.646131
0.351100,-0.665281
0.351200,-0.766551
0.351300,-0.746102
0.351400,-0.842827
0.351500,-0.835037
0.351600,-0.830493
0.351700,-0.814589
0.351800,-0.858732
0.351900,-1.024918
0.352000,-1.063219
0.352100,-1.043419
0.352200,-0.945395
0.352300,-0.917481
0.352400,-0.953834
0.352500,-1.040822
0.352600,-1.105090
0.352700,-1.041472
0.352800,-0.953510
0.352900,-0.894111
0.353000,-0.926894
0.353100,-0.972011
0.353200,-0.965844
0.353300,-0.928517
0.353400,-0.917481
0.353500,-0.868469
0.353600,-0.878856
0.353700,-0.835037
0.353800,-0.811343
0.353900,-0.774990
0.354000,-0.762006
0.354100,-0.771744
0.354200,-0.752918
0.354300,-0.734417
0.354400,-0.718512
0.354500,-0.698064
0.354600,-0.705205
0.354700,-0.732794
0.354800,-0.740259
0.354900,-0.737014
0.355000,-0.713644
0.355100,-0.714293
0.355200,-0.704880
0.355300,-0.653921
0.355400,-0.653921
0.355500,-0.636718
0.355600,-0.639639
0.355700,-0.662684
0.355800,-0.650026
0.355900,-0.661061
0.356000,-0.670799
0.356100,-0.673071
0.356200,-0.703906
0.356300,-0.702283
0.356400,-0.734742
0.356500,-0.749023
0.356600,-0.786675
0.356700,-0.809720
0.356800,-0.848670
0.356900,-0.877233
0.357000,-0.971362
0.357100,-1.063543
0.357200,-1.110608
0.357300,-1.067114
0.357400,-0.994407
0.357500,-0.985643
0.357600,-1.108660
0.357700,-1.233300
0.357800,-1.302760
0.357900,-1.267381
0.358000,-1.234273
0.358100,-1.219343
0.358200,-1.294321
0.358300,-1.391371
0.358400,-1.454665
0.358500,-1.457911
0.358600,-1.440059
0.358700,-1.419610
0.358800,-1.430646
0.358900,-1.459209
0.359000,-1.473166
0.359100,-1.473491
0.359200,-1.445252
0.359300,-1.452717
0.359400,-1.484526
0.359500,-1.513739
0.359600,-1.501405
0.359700,-1.491667
0.359800,-1.498159
0.359900,-1.513414
0.360000,-1.504651
0.360100,-1.474789
0.360200,-1.396240
0.360300,-1.354369
0.360400,-1.390073
0.360500,-1.449147
0.360600,-1.486474
0.360700,-1.422531
0.360800,-1.338464
0.360900,-1.283935
0.361000,-1.297567
0.361100,-1.367352
0.361200,-1.415066
0.361300,-1.374818
0.361400,-1.314121
0.361500,-1.241090
0.361600,-1.223562
0.361700,-1.210254
0.361800,-1.204412
0.361900,-1.184288
0.362000,-1.172603
0.362100,-1.129109
0.362200,-1.071982
0.362300,-1.012908
0.362400,-0.964870
0.362500,-0.893787
0.362600,-0.871066
0.362700,-0.848345
0.362800,-0.834388
0.362900,-0.811343
0.363000,-0.704880
0.363100,-0.656842
0.363200,-0.631200
0.363300,-0.595821
0.363400,-0.551028
0.363500,-0.539019
0.363600,-0.508508
0.363700,-0.469883
0.363800,-0.422818
0.363900,-0.423792
0.364000,-0.400098
0.364100,-0.411133
0.364200,-0.424117
0.364300,-0.421845
0.364400,-0.453654
0.364500,-0.426389
0.364600,-0.418599
0.364700,-0.411458
0.364800,-0.396852
0.364900,-0.407238
0.365000,-0.388737
0.365100,-0.397826
0.365200,-0.388088
0.365300,-0.366017
0.365400,-0.243325
0.365500,-0.168996
0.365600,-0.262800
0.365700,-0.378351
0.365800,-0.365043
0.365900,-0.359525
0.366000,-0.293310
0.366100,-0.251439
0.366200,-0.263449
0.366300,-0.328365
0.366400,-0.379000
0.366500,-0.378351
0.366600,-0.339725
0.366700,-0.305969
0.366800,-0.331286
0.366900,-0.390685
0.367000,-0.439372
0.367100,-0.478646
0.367200,-0.512078
0.367300,-0.515000
0.367400,-0.567906
0.367500,-0.608479
0.367600,-0.655544
0.367700,-0.685730
0.367800,-0.771419
0.367900,-0.798684
0.368000,-0.860679
0.368100,-0.858083
0.368200,-0.885348
0.368300,-0.841854
0.368400,-0.894436
0.368500,-0.983047
0.368600,-1.073605
0.368700,-1.073930
0.368800,-1.032708
0.368900,-0.932737
0.369000,-0.961300
0.369100,-1.023944
0.369200,-1.101195
0.369300,-1.132679
0.369400,-1.078149
0.369500,-1.020374
0.369600,-0.999601
0.369700,-1.047963
0.369800,-1.078799
0.369900,-1.095677
0.370000,-1.100221
0.370100,-1.096651
0.370200,-1.113529
0.370300,-1.102818
0.370400,-1.104441
0.370500,-1.111906
0.370600,-1.118398
0.370700,-1.138522
0.370800,-1.169357
0.370900,-1.181042
0.371000,-1.169682
0.371100,-1.172927
0.371200,-1.185262
0.371300,-1.217395
0.371400,-1.251476
0.371500,-1.247581
0.371600,-1.243362
0.371700,-1.223238
0.371800,-1.243362
0.371900,-1.240765
0.372000,-1.173252
0.372100,-1.172927
0.372200,-1.162541
0.372300,-1.143390
0.372400,-1.132679
0.372500,-1.104441
0.372600,-1.108011
0.372700,-1.099572
0.372800,-1.067763
0.372900,-1.058350
0.373000,-1.037252
0.373100,-1.033682
0.373200,-1.013882
0.373300,-0.999925
0.373400,-0.997653
0.373500,-0.991161
0.373600,-1.011610
0.373700,-1.092106
0.373800,-1.196946
0.373900,-1.170006
0.374000,-1.127810
0.374100,-1.067114
0.374200,-1.100546
0.374300,-1.239467
0.374400,-1.337166
0.374500,-1.402732
0.374600,-1.332622
0.374700,-1.332622
0.374800,-1.318340
0.374900,-1.416364
0.375000,-1.453691
0.375100,-1.499133
0.375200,-1.505300
0.375300,-1.485825
0.375400,-1.496536
0.375500,-1.487448
0.375600,-1.505624
0.375700,-1.479009
0.375800,-1.486799
0.375900,-1.477710
0.376000,-1.475114
0.376100,-1.500431
0.376200,-1.513739
0.376300,-1.490369
0.376400,-1.464078
0.376500,-1.470569
0.376600,-1.473166
0.376700,-1.429023
0.376800,-1.352421
0.376900,-1.265758
0.377000,-1.268030
0.377100,-1.300488
0.377200,-1.367028
0.377300,-1.348526
0.377400,-1.281013
0.377500,-1.184288
0.377600,-1.158970
0.377700,-1.208956
0.377800,-1.270951
0.377900,-1.291725
0.378000,-1.253424
0.378100,-1.214799
0.378200,-1.189806
0.378300,-1.179094
0.378400,-1.173577
0.378500,-1.172278
0.378600,-1.147610
0.378700,-1.133004
0.378800,-1.073930
0.378900,-1.029462
0.379000,-0.992135
0.379100,-0.937930
0.379200,-0.903524
0.379300,-0.895734
0.379400,-0.913262
0.379500,-0.922350
0.379600,-0.894111
0.379700,-0.848670
0.379800,-0.850617
0.379900,-0.873014
0.380000,-0.863925
0.380100,-0.838283
0.380200,-0.834713
0.380300,-0.813290
0.380400,-0.800632
0.380500,-0.779209
0.380600,-0.797386
0.380700,-0.813615
0.380800,-0.815238
0.380900,-0.839257
0.381000,-0.855811
0.381100,-0.913262
0.381200,-0.888593
0.381300,-0.912937
0.381400,-0.918455
0.381500,-0.912937
0.381600,-0.932087
0.381700,-0.957729
0.381800,-0.985643
0.381900,-0.932737
0.382000,-0.880154
0.382100,-0.748699
0.382200,-0.747400
0.382300,-0.869119
0.382400,-0.904498
0.382500,-0.909691
0.382600,-0.864899
0.382700,-0.774990
0.382800,-0.718837
0.382900,-0.754866
0.383000,-0.813615
0.383100,-0.824326
0.383200,-0.770121
0.383300,-0.701959
0.383400,-0.687028
0.383500,-0.708126
0.383600,-0.739610
0.383700,-0.750971
0.383800,-0.745777
0.383900,-0.734417
0.384000,-0.737338
0.384100,-0.746427
0.384200,-0.740259
0.384300,-0.735715
0.384400,-0.728250
0.384500,-0.729873
0.384600,-0.744804
0.384700,-0.779858
0.384800,-0.744479
0.384900,-0.737338
0.385000,-0.678589
0.385100,-0.728575
0.385200,-0.822054
0.385300,-0.867496
0.385400,-0.824002
0.385500,-0.723381
0.385600,-0.646131
0.385700,-0.665281
0.385800,-0.739286
0.385900,-0.807448
0.386000,-0.791868
0.386100,-0.702933
0.386200,-0.642236
0.386300,-0.665606
0.386400,-0.715591
0.386500,-0.737338
0.386600,-0.732794
0.386700,-0.688976
0.386800,-0.651649
0.386900,-0.658465
0.387000,-0.650026
0.387100,-0.625682
0.387200,-0.605558
0.387300,-0.584136
0.387400,-0.601988
0.387500,-0.601663
0.387600,-0.609453
0.387700,-0.585759
0.387800,-0.582188
0.387900,-0.583811
0.388000,-0.652298
0.388100,-0.665281
0.388200,-0.660412
0.388300,-0.651973
0.388400,-0.673071
0.388500,-0.690923
0.388600,-0.667878
0.388700,-0.647104
0.388800,-0.650675
0.388900,-0.658465
0.389000,-0.654570
0.389100,-0.664956
0.389200,-0.678264
0.389300,-0.667878
0.389400,-0.686379
0.389500,-0.699362
0.389600,-0.702608
0.389700,-0.703906
0.389800,-0.697739
0.389900,-0.697739
0.390000,-0.688651
0.390100,-0.714942
0.390200,-0.718837
0.390300,-0.760708
0.390400,-0.844126
0.390500,-0.887295
0.390600,-0.865224
0.390700,-0.772069
0.390800,-0.745453
0.390900,-0.794789
0.391000,-0.933061
0.391100,-1.048612
0.391200,-1.039524
0.391300,-0.987591
0.391400,-0.936307
0.391500,-0.987591
0.391600,-1.086589
0.391700,-1.151830
0.391800,-1.198569
0.391900,-1.177147
0.392000,-1.192078
0.392100,-1.231028
0.392200,-1.259266
0.392300,-1.303734
0.392400,-1.328402
0.392500,-1.336841
0.392600,-1.354693
0.392700,-1.394942
0.392800,-1.443304
0.392900,-1.423505
0.393000,-1.448173
0.393100,-1.458560
0.393200,-1.493615
0.393300,-1.505949
0.393400,-1.500106
0.393500,-1.426102
0.393600,-1.394293
0.393700,-1.417987
0.393800,-1.500106
0.393900,-1.558207
0.394000,-1.534188
0.394100,-1.454016
0.394200,-1.392020
0.394300,-1.390398
0.394400,-1.475438
0.394500,-1.547820
0.394600,-1.557557
0.394700,-1.503677
0.394800,-1.441682
0.394900,-1.428374
0.395000,-1.438111
0.395100,-1.466674
0.395200,-1.455963
0.395300,-1.436813
0.395400,-1.392345
0.395500,-1.367352
0.395600,-1.342684
0.395700,-1.295295
0.395800,-1.268355
0.395900,-1.257968
0.396000,-1.268355
0.396100,-1.254073
0.396200,-1.264784
0.396300,-1.205061
0.396400,-1.169032
0.396500,-1.171954
0.396600,-1.179094
0.396700,-1.134951
0.396800,-1.130083
0.396900,-1.110932
0.397000,-1.090159
0.397100,-1.046990
0.397200,-1.035305
0.397300,-1.039524
0.397400,-1.054455
0.397500,-1.051209
0.397600,-1.045042
0.397700,-1.063868
0.397800,-1.066789
0.397900,-1.030111
0.398000,-1.043419
0.398100,-1.012259
0.398200,-1.033032
0.398300,-1.036603
0.398400,-1.024593
0.398500,-1.016154
0.398600,-0.967142
0.398700,-0.890866
0.398800,-0.758111
0.398900,-0.849319
0.399000,-0.932087
0.399100,-0.994407
0.399200,-0.946044
0.399300,-0.878531
0.399400,-0.781481
0.399500,-0.772393
0.399600,-0.827897
0.399700,-0.883725
0.399800,-0.879505
0.399900,-0.815887
0.400000,-0.742856
0.400100,-0.727925
0.400200,-0.759085
0.400300,-0.788622
0.400400,-0.772069
0.400500,-0.769147
0.400600,-0.750322
0.400700,-0.754866
0.400800,-0.736689
0.400900,-0.740909
0.401000,-0.729873
0.401100,-0.748049
0.401200,-0.752594
0.401300,-0.747725
0.401400,-0.747400
0.401500,-0.725978
0.401600,-0.690274
0.401700,-0.634770
0.401800,-0.676317
0.401900,-0.737338
0.402000,-0.731171
0.402100,-0.693195
0.402200,-0.574723
0.402300,-0.533176
0.402400,-0.585109
0.402500,-0.638341
0.402600,-0.653921
0.402700,-0.577319
0.402800,-0.497472
0.402900,-0.409186
0.403000,-0.423143
0.403100,-0.439697
0.403200,-0.451706
0.403300,-0.425415
0.403400,-0.388413
0.403500,-0.363095
0.403600,-0.357577
0.403700,-0.352060
0.403800,-0.371535
0.403900,-0.369262
0.404000,-0.398150
0.404100,-0.428661
0.404200,-0.432880
0.404300,-0.447162
0.404400,-0.463391
0.404500,-0.490007
0.404600,-0.541615
0.404700,-0.606207
0.404800,-0.632174
0.404900,-0.646455
0.405000,-0.650999
0.405100,-0.722407
0.405200,-0.748049
0.405300,-0.742207
0.405400,-0.752918
0.405500,-0.775964
0.405600,-0.815238
0.405700,-0.839582
0.405800,-0.863601
0.405900,-0.886646
0.406000,-0.908068
0.406100,-0.954484
0.406200,-0.970064
0.406300,-1.001223
0.406400,-1.006417
0.406500,-1.010961
0.406600,-1.035629
0.406700,-1.075228
0.406800,-1.097300
0.406900,-1.136899
0.407000,-1.220966
0.407100,-1.343009
0.407200,-1.374168
0.407300,-1.319314
0.407400,-1.244660
0.407500,-1.268030
0.407600,-1.406627
0.407700,-1.505300
0.407800,-1.551066
0.407900,-1.502703
0.408000,-1.421882
0.408100,-1.410197
0.408200,-1.457262
0.408300,-1.520231
0.408400,-1.587744
0.408500,-1.562751
0.408600,-1.549768
0.408700,-1.496211
0.408800,-1.514713
0.408900,-1.507572
0.409000,-1.535161
0.409100,-1.534512
0.409200,-1.538407
0.409300,-1.530617
0.409400,-1.540030
0.409500,-1.540679
0.409600,-1.553013
0.409700,-1.531266
0.409800,-1.560803
0.409900,-1.572813
0.410000,-1.570541
0.410100,-1.533863
0.410200,-1.453367
0.410300,-1.442655
0.410400,-1.488097
0.410500,-1.569242
0.410600,-1.610464
0.410700,-1.554961
0.410800,-1.463104
0.410900,-1.432593
0.411000,-1.475438
0.411100,-1.568918
0.411200,-1.625395
0.411300,-1.591639
0.411400,-1.521204
0.411500,-1.486474
0.411600,-1.479982
0.411700,-1.475763
0.411800,-1.475114
0.411900,-1.462130
0.412000,-1.453367
0.412100,-1.420908
0.412200,-1.365080
0.412300,-1.346254
0.412400,-1.297892
0.412500,-1.262837
0.412600,-1.252125
0.412700,-1.261538
0.412800,-1.265433
0.412900,-1.201491
0.413000,-1.154102
0.413100,-1.124240
0.413200,-1.107037
0.413300,-1.086913
0.413400,-1.031410
0.413500,-1.001873
0.413600,-0.979152
0.413700,-0.923324
0.413800,-0.877558
0.413900,-0.853863
0.414000,-0.838283
0.414100,-0.824002
0.414200,-0.793491
0.414300,-0.795438
0.414400,-0.785376
0.414500,-0.768174
0.414600,-0.733443
0.414700,-0.724680
0.414800,-0.692871
0.414900,-0.703906
0.415000,-0.677940
0.415100,-0.717214
0.415200,-0.656842
0.415300,-0.626656
0.415400,-0.447487
0.415500,-0.430608
0.415600,-0.506236
0.415700,-0.583486
0.415800,-0.588031
0.415900,-0.495200
0.416000,-0.387114
0.416100,-0.324795
0.416200,-0.329014
0.416300,-0.391334
0.416400,-0.416327
0.416500,-0.385492
0.416600,-0.286494
0.416700,-0.244623
0.416800,-0.242351
0.416900,-0.262475
0.417000,-0.287143
0.417100,-0.308566
0.417200,-0.294609
0.417300,-0.306943
0.417400,-0.325119
0.417500,-0.353683
0.417600,-0.397501
0.417700,-0.418923
0.417800,-0.483840
0.417900,-0.546484
0.418000,-0.608155
0.418100,-0.685405
0.418200,-0.692546
0.418300,-0.711047
0.418400,-0.724680
0.418500,-0.897033
0.418600,-1.019400
0.418700,-1.032059
0.418800,-1.028813
0.418900,-0.936307
0.419000,-1.010636
0.419100,-1.130732
0.419200,-1.265758
0.419300,-1.293347
0.419400,-1.233949
0.419500,-1.174550
0.419600,-1.207333
0.419700,-1.256670
0.419800,-1.312498
0.419900,-1.311524
0.420000,-1.295295
0.420100,-1.264460
0.420200,-1.248230
0.420300,-1.227457
0.420400,-1.208631
0.420500,-1.190779
0.420600,-1.194025
0.420700,-1.202140
0.420800,-1.201166
0.420900,-1.232651
0.421000,-1.234598
0.421100,-1.222264
0.421200,-1.217395
0.421300,-1.260889
0.421400,-1.287180
0.421500,-1.283285
0.421600,-1.295295
0.421700,-1.277118
0.421800,-1.322235
0.421900,-1.305682
0.422000,-1.275171
0.422100,-1.268355
0.422200,-1.255371
0.422300,-1.259915
0.422400,-1.261214
0.422500,-1.242063
0.422600,-1.252450
0.422700,-1.231028
0.422800,-1.256994
0.422900,-1.230703
0.423000,-1.251476
0.423100,-1.242063
0.423200,-1.250503
0.423300,-1.244660
0.423400,-1.251476
0.423500,-1.250178
0.423600,-1.260240
0.423700,-1.347228
0.423800,-1.412145
0.423900,-1.405977
0.424000,-1.314770
0.424100,-1.285882
0.424200,-1.307304
0.424300,-1.420259
0.424400,-1.480956
0.424500,-1.475763
0.424600,-1.391047
0.424700,-1.329376
0.424800,-1.325481
0.424900,-1.377739
0.425000,-1.454665
0.425100,-1.463104
0.425200,-1.441357
0.425300,-1.403705
0.425400,-1.388125
0.425500,-1.355018
0.425600,-1.373195
0.425700,-1.377739
0.425800,-1.359562
0.425900,-1.357939
0.426000,-1.377090
0.426100,-1.403705
0.426200,-1.414417
0.426300,-1.410197
0.426400,-1.392670
0.426500,-1.395591
0.426600,-1.430970
0.426700,-1.416364
0.426800,-1.358913
0.426900,-1.318340
0.427000,-1.326455
0.427100,-1.384555
0.427200,-1.465376
0.427300,-1.473815
0.427400,-1.391047
0.427500,-1.310226
0.427600,-1.332297
0.427700,-1.406951
0.427800,-1.505624
0.427900,-1.536784
0.428000,-1.505949
0.428100,-1.455639
0.428200,-1.412794
0.428300,-1.407925
0.428400,-1.429672
0.428500,-1.428049
0.428600,-1.439409
0.428700,-1.401433
0.428800,-1.352746
0.428900,-1.301462
0.429000,-1.262188
0.429100,-1.225834
0.429200,-1.205061
0.429300,-1.212526
0.429400,-1.212851
0.429500,-1.215123
0.429600,-1.195648
0.429700,-1.133978
0.429800,-1.131056
0.429900,-1.115476
0.430000,-1.095677
0.430100,-1.074904
0.430200,-1.036603
0.430300,-1.020698
0.430400,-0.960651
0.430500,-0.923973
0.430600,-0.935982
0.430700,-0.951562
0.430800,-0.975906
0.430900,-0.992135
0.431000,-1.011285
0.431100,-1.043095
0.431200,-1.046340
0.431300,-1.069710
0.431400,-1.068737
0.431500,-1.103791
0.431600,-1.107362
0.431700,-1.142092
0.431800,-1.140145
0.431900,-1.146961
0.432000,-1.036927
0.432100,-1.019400
0.432200,-0.974608
0.432300,-1.162541
0.432400,-1.189806
0.432500,-1.196297
0.432600,-1.134302
0.432700,-1.053481
0.432800,-1.026216
0.432900,-1.086589
0.433000,-1.175199
0.433100,-1.210904
0.433200,-1.180393
0.433300,-1.128460
0.433400,-1.112231
0.433500,-1.136250
0.433600,-1.160918
0.433700,-1.171304
0.433800,-1.172603
0.433900,-1.159944
0.434000,-1.148908
0.434100,-1.151180
0.434200,-1.145013
0.434300,-1.148584
0.434400,-1.152154
0.434500,-1.179419
0.434600,-1.202789
0.434700,-1.218693
0.434800,-1.190779
0.434900,-1.183314
0.435000,-1.148908
0.435100,-1.209605
0.435200,-1.282961
0.435300,-1.319963
0.435400,-1.256345
0.435500,-1.174875
0.435600,-1.109958
0.435700,-1.169682
0.435800,-1.236546
0.435900,-1.276794
0.436000,-1.232001
0.436100,-1.142741
0.436200,-1.078474
0.436300,-1.096326
0.436400,-1.136899
0.436500,-1.150531
0.436600,-1.143715
0.436700,-1.135276
0.436800,-1.117748
0.436900,-1.119371
0.437000,-1.091457
0.437100,-1.107037
0.437200,-1.096975
0.437300,-1.087562
0.437400,-1.105414
0.437500,-1.120020
0.437600,-1.121643
0.437700,-1.111257
0.437800,-1.109958
0.437900,-1.138522
0.438000,-1.217071
0.438100,-1.245958
0.438200,-1.259591
0.438300,-1.258293
0.438400,-1.299839
0.438500,-1.327429
0.438600,-1.308603
0.438700,-1.315744
0.438800,-1.334569
0.438900,-1.336192
0.439000,-1.328727
0.439100,-1.346254
0.439200,-1.345281
0.439300,-1.370273
0.439400,-1.366378
0.439500,-1.380660
0.439600,-1.385853
0.439700,-1.386178
0.439800,-1.400135
0.439900,-1.392994
0.440000,-1.404030
0.440100,-1.393968
0.440200,-1.409223
0.440300,-1.446226
0.440400,-1.537433
0.440500,-1.582550
0.440600,-1.509195
0.440700,-1.443954
0.440800,-1.387476
0.440900,-1.501729
0.441000,-1.619553
0.441100,-1.664021
0.441200,-1.647142
0.441300,-1.573137
0.441400,-1.552040
0.441500,-1.553987
0.441600,-1.634808
0.441700,-1.653959
0.441800,-1.659152
0.441900,-1.618904
0.442000,-1.598130
0.442100,-1.591963
0.442200,-1.586445
0.442300,-1.581252
0.442400,-1.575734
0.442500,-1.551066
0.442600,-1.555935
0.442700,-1.555285
0.442800,-1.547820
0.442900,-1.521853
0.443000,-1.477710
0.443100,-1.458235
0.443200,-1.452717
0.443300,-1.430970
0.443400,-1.379686
0.443500,-1.263810
0.443600,-1.216746
0.443700,-1.204736
0.443800,-1.257319
0.443900,-1.295944
0.444000,-1.204087
0.444100,-1.090484
0.444200,-0.995706
0.444300,-0.997978
0.444400,-1.042121
0.444500,-1.074904
0.444600,-1.058025
0.444700,-0.978503
0.444800,-0.905147
0.444900,-0.866197
0.445000,-0.844775
0.445100,-0.822054
0.445200,-0.781481
0.445300,-0.751620
0.445400,-0.701959
0.445500,-0.656842
0.445600,-0.613348
0.445700,-0.558494
0.445800,-0.480919
0.445900,-0.471506
0.446000,-0.466637
0.446100,-0.469883
0.446200,-0.460145
0.446300,-0.395229
0.446400,-0.352384
0.446500,-0.332585
0.446600,-0.322523
0.446700,-0.280652
0.446800,-0.272862
0.446900,-0.244298
0.447000,-0.223201
0.447100,-0.195936
0.447200,-0.203401
0.447300,-0.229368
0.447400,-0.271563
0.447500,-0.291038
0.447600,-0.334532
0.447700,-0.391659
0.447800,-0.432556
0.447900,-0.456575
0.448000,-0.514675
0.448100,-0.511429
0.448200,-0.597119
0.448300,-0.632823
0.448400,-0.718512
0.448500,-0.734417
0.448600,-0.773042
0.448700,-0.669501
0.448800,-0.674045
0.448900,-0.739610
0.449000,-0.928842
0.449100,-0.948966
0.449200,-0.959028
0.449300,-0.903524
0.449400,-0.875610
0.449500,-0.882426
0.449600,-0.999925
0.449700,-1.075553
0.449800,-1.091133
0.449900,-1.044068
0.450000,-0.988565
0.450100,-0.995381
0.450200,-1.039524
0.450300,-1.072956
0.450400,-1.072631
0.450500,-1.065166
0.450600,-1.052832
0.450700,-1.055753
0.450800,-1.061596
0.450900,-1.091782
0.451000,-1.067438
0.451100,-1.072631
0.451200,-1.119371
0.451300,-1.125863
0.451400,-1.166111
0.451500,-1.135276
0.451600,-1.124889
0.451700,-1.103142
0.451800,-1.203114
0.451900,-1.323209
0.452000,-1.300813
0.452100,-1.267381
0.452200,-1.153777
0.452300,-1.175524
0.452400,-1.250178
0.452500,-1.348202
0.452600,-1.371247
0.452700,-1.312822
0.452800,-1.247906
0.452900,-1.225834
0.453000,-1.253424
0.453100,-1.319314
0.453200,-1.329051
0.453300,-1.334245
0.453400,-1.314445
0.453500,-1.306006
0.453600,-1.320937
0.453700,-1.316068
0.453800,-1.299839
0.453900,-1.282961
0.454000,-1.276794
0.454100,-1.320612
0.454200,-1.330025
0.454300,-1.329376
0.454400,-1.334245
0.454500,-1.300813
0.454600,-1.334569
0.454700,-1.363457
0.454800,-1.368975
0.454900,-1.349176
0.455000,-1.327104
0.455100,-1.334894
0.455200,-1.317367
0.455300,-1.249204
0.455400,-1.239791
0.455500,-1.201166
0.455600,-1.177147
0.455700,-1.153777
0.455800,-1.141443
0.455900,-1.111906
0.456000,-1.092431
0.456100,-1.086913
0.456200,-1.053806
0.456300,-1.055429
0.456400,-1.029787
0.456500,-1.016803
0.456600,-1.026541
0.456700,-1.037577
0.456800,-1.068087
0.456900,-1.101195
0.457000,-1.170655
0.457100,-1.273872
0.457200,-1.275495
0.457300,-1.213825
0.457400,-1.145013
0.457500,-1.157347
0.457600,-1.278741
0.457700,-1.378713
0.457800,-1.425452
0.457900,-1.355992
0.458000,-1.293997
0.458100,-1.265758
0.458200,-1.338464
0.458300,-1.393968
0.458400,-1.431295
0.458500,-1.416364
0.458600,-1.391047
0.458700,-1.399161
0.458800,-1.424479
0.458900,-1.445577
0.459000,-1.469596
0.459100,-1.476412
0.459200,-1.454989
0.459300,-1.461806
0.459400,-1.500431
0.459500,-1.512765
0.459600,-1.502054
0.459700,-1.488421
0.459800,-1.483877
0.459900,-1.491018
0.460000,-1.469920
0.460100,-1.413767
0.460200,-1.371247
0.460300,-1.383581
0.460400,-1.431619
0.460500,-1.522827
0.460600,-1.566321
0.460700,-1.497185
0.460800,-1.413443
0.460900,-1.375467
0.461000,-1.427725
0.461100,-1.518932
0.461200,-1.535810
0.461300,-1.516011
0.461400,-1.449147
0.461500,-1.406951
0.461600,-1.382932
0.461700,-1.409548
0.461800,-1.433242
0.461900,-1.425777
0.462000,-1.380660
0.462100,-1.333596
0.462200,-1.283935
0.462300,-1.239467
0.462400,-1.207333
0.462500,-1.174550
0.462600,-1.146636
0.462700,-1.160593
0.462800,-1.157023
0.462900,-1.127161
0.463000,-1.045691
0.463100,-1.021348
0.463200,-1.014207
0.463300,-0.981749
0.463400,-0.927219
0.463500,-0.882426
0.463600,-0.855486
0.463700,-0.808097
0.463800,-0.776288
0.463900,-0.763305
0.464000,-0.755515
0.464100,-0.777911
0.464200,-0.757138
0.464300,-0.813615
0.464400,-0.776937
0.464500,-0.796412
0.464600,-0.795114
0.464700,-0.809395
0.464800,-0.797386
0.464900,-0.817835
0.465000,-0.809071
0.465100,-0.842503
0.465200,-0.804527
0.465300,-0.777262
0.465400,-0.661711
0.465500,-0.656517
0.465600,-0.736365
0.465700,-0.843152
0.465800,-0.860030
0.465900,-0.804527
0.466000,-0.718512
0.466100,-0.661386
0.466200,-0.700660
0.466300,-0.769472
0.466400,-0.799333
0.466500,-0.786350
0.466600,-0.707801
0.466700,-0.701959
0.466800,-0.718188
0.466900,-0.759085
0.467000,-0.770446
0.467100,-0.791219
0.467200,-0.795114
0.467300,-0.811992
0.467400,-0.830169
0.467500,-0.846398
0.467600,-0.861004
0.467700,-0.853214
0.467800,-0.945071
0.467900,-0.934035
0.468000,-0.959352
0.468100,-0.970388
0.468200,-0.938579
0.468300,-0.964870
0.468400,-0.954159
0.468500,-1.123266
0.468600,-1.145987
0.468700,-1.132030
0.468800,-1.083343
0.468900,-0.992460
0.469000,-1.057052
0.469100,-1.139495
0.469200,-1.220641
0.469300,-1.219343
0.469400,-1.145662
0.469500,-1.105739
0.469600,-1.119047
0.469700,-1.166436
0.469800,-1.217720
0.469900,-1.188507
0.470000,-1.190779
0.470100,-1.182340
0.470200,-1.196622
0.470300,-1.189157
0.470400,-1.179419
0.470500,-1.173577
0.470600,-1.174226
0.470700,-1.184937
0.470800,-1.185911
0.470900,-1.169032
0.471000,-1.158970
0.471100,-1.158970
0.471200,-1.163515
0.471300,-1.208307
0.471400,-1.228756
0.471500,-1.229729
0.471600,-1.204412
0.471700,-1.203438
0.471800,-1.216097
0.471900,-1.187858
0.472000,-1.133978
0.472100,-1.114827
0.472200,-1.108336
0.472300,-1.110283
0.472400,-1.097949
0.472500,-1.111257
0.472600,-1.118722
0.472700,-1.112231
0.472800,-1.122293
0.472900,-1.116450
0.473000,-1.123266
0.473100,-1.117748
0.473200,-1.115476
0.473300,-1.112880
0.473400,-1.127486
0.473500,-1.146961
0.473600,-1.174226
0.473700,-1.286531
0.473800,-1.324183
0.473900,-1.306980
0.474000,-1.212526
0.474100,-1.168059
0.474200,-1.207333
0.474300,-1.365729
0.474400,-1.432593
0.474500,-1.413767
0.474600,-1.345281
0.474700,-1.273872
0.474800,-1.295295
0.474900,-1.333271
0.475000,-1.371896
0.475100,-1.346254
0.475200,-1.285233
0.475300,-1.255696
0.475400,-1.241739
0.475500,-1.231352
0.475600,-1.236546
0.475700,-1.220316
0.475800,-1.199543
0.475900,-1.201815
0.476000,-1.210904
0.476100,-1.217720
0.476200,-1.199219
0.476300,-1.201815
0.476400,-1.191753
0.476500,-1.205061
0.476600,-1.190779
0.476700,-1.179094
0.476800,-1.127486
0.476900,-1.103142
0.477000,-1.114178
0.477100,-1.178445
0.477200,-1.262837
0.477300,-1.226808
0.477400,-1.151505
0.477500,-1.109958
0.477600,-1.134302
0.477700,-1.213176
0.477800,-1.296593
0.477900,-1.314770
0.478000,-1.265433
0.478100,-1.243686
0.478200,-1.240765
0.478300,-1.247906
0.478400,-1.289777
0.478500,-1.306006
0.478600,-1.302760
0.478700,-1.263161
0.478800,-1.240441
0.478900,-1.219343
0.479000,-1.200841
0.479100,-1.144689
0.479200,-1.140469
0.479300,-1.143066
0.479400,-1.163190
0.479500,-1.150856
0.479600,-1.114503
0.479700,-1.076202
0.479800,-1.082044
0.479900,-1.076851
0.480000,-1.059648
0.480100,-1.024269
0.480200,-0.995056
0.480300,-0.963247
0.480400,-0.930789
0.480500,-0.895410
0.480600,-0.895734
0.480700,-0.898655
0.480800,-0.912288
0.480900,-0.918780
0.481000,-0.948641
0.481100,-0.916183
0.481200,-0.908393
0.481300,-0.914560
0.481400,-0.899305
0.481500,-0.891190
0.481600,-0.904498
0.481700,-0.897357
0.481800,-0.903200
0.481900,-0.867171
0.482000,-0.841204
0.482100,-0.669501
0.482200,-0.804527
0.482300,-0.860030
0.482400,-0.927868
0.482500,-0.886321
0.482600,-0.867171
0.482700,-0.794465
0.482800,-0.787973
0.482900,-0.855486
0.483000,-0.921376
0.483100,-0.919104
0.483200,-0.872689
0.483300,-0.810694
0.483400,-0.823352
0.483500,-0.863276
0.483600,-0.904173
0.483700,-0.909042
0.483800,-0.906121
0.483900,-0.899305
0.484000,-0.882102
0.484100,-0.887944
0.484200,-0.890216
0.484300,-0.880479
0.484400,-0.906445
0.484500,-0.930465
0.484600,-0.905147
0.484700,-0.900278
0.484800,-0.852565
0.484900,-0.829520
0.485000,-0.797386
0.485100,-0.852565
0.485200,-0.962274
0.485300,-0.957405
0.485400,-0.922350
0.485500,-0.800307
0.485600,-0.758436
0.485700,-0.806150
0.485800,-0.901901
0.485900,-0.938579
0.486000,-0.889892
0.486100,-0.799009
0.486200,-0.747725
0.486300,-0.773367
0.486400,-0.796088
0.486500,-0.817510
0.486600,-0.775639
0.486700,-0.767524
0.486800,-0.754866
0.486900,-0.764928
0.487000,-0.752594
0.487100,-0.745777
0.487200,-0.737663
0.487300,-0.760708
0.487400,-0.776613
0.487500,-0.804851
0.487600,-0.799658
0.487700,-0.802904
0.487800,-0.798360
0.487900,-0.846073
0.488000,-0.912937
0.488100,-0.935009
0.488200,-0.936632
0.488300,-0.938904
0.488400,-0.988565
0.488500,-1.016479
0.488600,-0.987916
0.488700,-0.990188
0.488800,-1.005443
0.488900,-1.017128
0.489000,-1.042770
0.489100,-1.037252
0.489200,-1.052183
0.489300,-1.067438
0.489400,-1.094379
0.489500,-1.104116
0.489600,-1.132030
0.489700,-1.140794
0.489800,-1.180068
0.489900,-1.193376
0.490000,-1.222588
0.490100,-1.226483
0.490200,-1.250178
0.490300,-1.325806
0.490400,-1.419285
0.490500,-1.461481
0.490600,-1.397863
0.490700,-1.322884
0.490800,-1.312498
0.490900,-1.391047
0.491000,-1.502703
0.491100,-1.546846
0.491200,-1.475438
0.491300,-1.416364
0.491400,-1.374168
0.491500,-1.440383
0.491600,-1.447199
0.491700,-1.478035
0.491800,-1.436488
0.491900,-1.394942
0.492000,-1.343982
0.492100,-1.346254
0.492200,-1.346579
0.492300,-1.345605
0.492400,-1.336841
0.492500,-1.329701
0.492600,-1.338464
0.492700,-1.341061
0.492800,-1.369949
0.492900,-1.375142
0.493000,-1.393319
0.493100,-1.395915
0.493200,-1.421557
0.493300,-1.419285
0.493400,-1.379037
0.493500,-1.307954
0.493600,-1.299514
0.493700,-1.343009
0.493800,-1.425128
0.493900,-1.469596
0.494000,-1.429023
0.494100,-1.351772
0.494200,-1.298865
0.494300,-1.340087
0.494400,-1.414417
0.494500,-1.447524
0.494600,-1.423505
0.494700,-1.355667
0.494800,-1.304708
0.494900,-1.280040
0.495000,-1.277767
0.495100,-1.272574
0.495200,-1.255371
0.495300,-1.260240
0.495400,-1.218369
0.495500,-1.193701
0.495600,-1.165137
0.495700,-1.119371
0.495800,-1.106713
0.495900,-1.089834
0.496000,-1.107037
0.496100,-1.107686
0.496200,-1.094379
0.496300,-1.039849
0.496400,-1.009338
0.496500,-1.016479
0.496600,-1.015180
0.496700,-0.978178
0.496800,-0.980775
0.496900,-0.968441
0.497000,-0.935333
0.497100,-0.916832
0.497200,-0.911963
0.497300,-0.926570
0.497400,-0.922350
0.497500,-0.955457
0.497600,-0.944746
0.497700,-0.983696
0.497800,-0.973634
0.497900,-0.969414
0.498000,-1.027190
0.498100,-1.004469
0.498200,-1.047314
0.498300,-1.044393
0.498400,-1.102168
0.498500,-1.062569
0.498600,-1.058674
0.498700,-0.975906
0.498800,-0.942799
0.498900,-1.060622
0.499000,-1.213176
0.499100,-1.200517
0.499200,-1.146961
0.499300,-1.078474
0.499400,-1.015505
0.499500,-1.044068
0.499600,-1.134627
0.499700,-1.190455
0.499800,-1.183639
0.499900,-1.107362
0.500000,-1.086264
0.500100,-1.101195
0.500200,-1.145013
0.500300,-1.187534
0.500400,-1.213825
0.500500,-1.233624
0.500600,-1.235247
0.500700,-1.251801
0.500800,-1.275820
0.500900,-1.302436
0.501000,-1.333920
0.501100,-1.395591
0.501200,-1.394293
0.501300,-1.445252
0.501400,-1.466350
0.501500,-1.446226
0.501600,-1.471219
0.501700,-1.461157
0.501800,-1.585796
0.501900,-1.661749
0.502000,-1.643896
0.502100,-1.573137
0.502200,-1.447849
0.502300,-1.463753
0.502400,-1.502054
0.502500,-1.597157
0.502600,-1.557882
0.502700,-1.474789
0.502800,-1.392670
0.502900,-1.364756
0.503000,-1.394942
0.503100,-1.397863
0.503200,-1.371896
0.503300,-1.367677
0.503400,-1.329701
0.503500,-1.325156
0.503600,-1.296269
0.503700,-1.265758
0.503800,-1.274197
0.503900,-1.255696
0.504000,-1.270302
0.504100,-1.285882
0.504200,-1.273872
0.504300,-1.249204
0.504400,-1.228431
0.504500,-1.209930
0.504600,-1.250827
0.504700,-1.268679
0.504800,-1.288803
0.504900,-1.257968
0.505000,-1.250827
0.505100,-1.255047
0.505200,-1.243686
0.505300,-1.216421
0.505400,-1.215123
0.505500,-1.199543
0.505600,-1.192078
0.505700,-1.199868
0.505800,-1.221939
0.505900,-1.232001
0.506000,-1.244011
0.506100,-1.241739
0.506200,-1.234273
0.506300,-1.238493
0.506400,-1.236546
0.506500,-1.236870
0.506600,-1.233300
0.506700,-1.205386
0.506800,-1.215772
0.506900,-1.197920
0.507000,-1.276469
0.507100,-1.328402
0.507200,-1.298216
0.507300,-1.181691
0.507400,-1.094054
0.507500,-1.119696
0.507600,-1.241090
0.507700,-1.301137
0.507800,-1.311524
0.507900,-1.212526
0.508000,-1.119371
0.508100,-1.095352
0.508200,-1.125538
0.508300,-1.159944
0.508400,-1.129109
0.508500,-1.091457
0.508600,-1.029787
0.508700,-1.015830
0.508800,-1.013233
0.508900,-1.028488
0.509000,-1.031085
0.509100,-1.017453
0.509200,-1.009987
0.509300,-1.029462
0.509400,-1.022321
0.509500,-1.030436
0.509600,-1.031085
0.509700,-1.021997
0.509800,-1.043095
0.509900,-1.065815
0.510000,-1.072631
0.510100,-0.998951
0.510200,-0.970713
0.510300,-0.998302
0.510400,-1.053806
0.510500,-1.130083
0.510600,-1.138197
0.510700,-1.081720
0.510800,-1.029787
0.510900,-1.051209
0.511000,-1.145338
0.511100,-1.239791
0.511200,-1.271600
0.511300,-1.274522
0.511400,-1.232651
0.511500,-1.223238
0.511600,-1.228756
0.511700,-1.228431
0.511800,-1.251801
0.511900,-1.239791
0.512000,-1.219018
0.512100,-1.176822
0.512200,-1.143066
0.512300,-1.078474
0.512400,-1.009987
0.512500,-0.970064
0.512600,-0.942799
0.512700,-0.910665
0.512800,-0.906445
0.512900,-0.841529
0.513000,-0.790894
0.513100,-0.756164
0.513200,-0.740259
0.513300,-0.732794
0.513400,-0.694493
0.513500,-0.702933
0.513600,-0.672746
0.513700,-0.633472
0.513800,-0.600689
0.513900,-0.609128
0.514000,-0.623085
0.514100,-0.635095
0.514200,-0.646455
0.514300,-0.692221
0.514400,-0.688976
0.514500,-0.730197
0.514600,-0.729548
0.514700,-0.770121
0.514800,-0.776613
0.514900,-0.816212
0.515000,-0.835037
0.515100,-0.859706
0.515200,-0.839906
0.515300,-0.799009
0.515400,-0.703257
0.515500,-0.702283
0.515600,-0.864899
0.515700,-0.910016
0.515800,-0.971686
0.515900,-0.895085
0.516000,-0.829520
0.516100,-0.780832
0.516200,-0.832116
0.516300,-0.923973
0.516400,-0.938904
0.516500,-0.922675
0.516600,-0.855486
0.516700,-0.829195
0.516800,-0.836985
0.516900,-0.879505
0.517000,-0.926570
0.517100,-0.937605
0.517200,-0.924947
0.517300,-0.946044
0.517400,-0.947018
0.517500,-0.970064
0.517600,-0.965519
0.517700,-0.957405
0.517800,-1.020049
0.517900,-1.018102
0.518000,-1.031734
0.518100,-1.017453
0.518200,-0.959352
0.518300,-0.936632
0.518400,-0.940202
0.518500,-1.038226
0.518600,-1.061596
0.518700,-1.031085
0.518800,-0.962274
0.518900,-0.868794
0.519000,-0.933386
0.519100,-0.999601
0.519200,-1.046665
0.519300,-1.010312
0.519400,-0.956756
0.519500,-0.923324
0.519600,-0.935658
0.519700,-0.989214
0.519800,-1.009013
0.519900,-1.002846
0.520000,-1.024593
0.520100,-1.009663
0.520200,-1.042445
0.520300,-1.028164
0.520400,-1.018751
0.520500,-1.037577
0.520600,-1.050560
0.520700,-1.072631
0.520800,-1.096326
0.520900,-1.092106
0.521000,-1.095677
0.521100,-1.082694
0.521200,-1.090159
0.521300,-1.136574
0.521400,-1.146636
0.521500,-1.151505
0.521600,-1.143390
0.521700,-1.142741
0.521800,-1.151505
0.521900,-1.105414
0.522000,-1.092756
0.522100,-1.078149
0.522200,-1.073605
0.522300,-1.056727
0.522400,-1.043419
0.522500,-1.028813
0.522600,-1.009663
0.522700,-0.985968
0.522800,-0.973309
0.522900,-0.948641
0.523000,-0.947018
0.523100,-0.951887
0.523200,-0.952536
0.523300,-0.974283
0.523400,-0.972336
0.523500,-0.991811
0.523600,-1.016479
0.523700,-1.120670
0.523800,-1.173252
0.523900,-1.121643
0.524000,-1.009987
0.524100,-0.969739
0.524200,-1.038875
0.524300,-1.173577
0.524400,-1.226483
0.524500,-1.204736
0.524600,-1.149882
0.524700,-1.076526
0.524800,-1.121319
0.524900,-1.170006
0.525000,-1.213176
0.525100,-1.206359
0.525200,-1.184937
0.525300,-1.169357
0.525400,-1.153777
0.525500,-1.205710
0.525600,-1.195324
0.525700,-1.213176
0.525800,-1.202464
0.525900,-1.232975
0.526000,-1.265109
0.526100,-1.279390
0.526200,-1.264135
0.526300,-1.281662
0.526400,-1.276794
0.526500,-1.302111
0.526600,-1.291400
0.526700,-1.288154
0.526800,-1.202140
0.526900,-1.193051
0.527000,-1.223887
0.527100,-1.300813
0.527200,-1.361185
0.527300,-1.351448
0.527400,-1.259915
0.527500,-1.204736
0.527600,-1.270951
0.527700,-1.353071
0.527800,-1.421557
0.527900,-1.428698
0.528000,-1.403705
0.528100,-1.396889
0.528200,-1.392994
0.528300,-1.415715
0.528400,-1.426102
0.528500,-1.437462
0.528600,-1.440383
0.528700,-1.436488
0.528800,-1.428698
0.528900,-1.421233
0.529000,-1.412794
0.529100,-1.387476
0.529200,-1.383581
0.529300,-1.404030
0.529400,-1.424479
0.529500,-1.438436
0.529600,-1.395591
0.529700,-1.384880
0.529800,-1.405977
0.529900,-1.419285
0.530000,-1.400784
0.530100,-1.409223
0.530200,-1.397863
0.530300,-1.401433
0.530400,-1.375142
0.530500,-1.400784
0.530600,-1.411820
0.530700,-1.450121
0.530800,-1.469596
0.530900,-1.505624
0.531000,-1.539705
0.531100,-1.543925
0.531200,-1.537433
0.531300,-1.519581
0.531400,-1.523801
0.531500,-1.521853
0.531600,-1.562751
0.531700,-1.563725
0.531800,-1.582550
0.531900,-1.563725
0.532000,-1.505624
0.532100,-1.412794
0.532200,-1.523801
0.532300,-1.597481
0.532400,-1.650713
0.532500,-1.550417
0.532600,-1.520231
0.532700,-1.426426
0.532800,-1.409548
0.532900,-1.462130
0.533000,-1.512765
0.533100,-1.503028
0.533200,-1.425777
0.533300,-1.366054
0.533400,-1.347553
0.533500,-1.373195
0.533600,-1.392020
0.533700,-1.388775
0.533800,-1.357939
0.533900,-1.354693
0.534000,-1.352746
0.534100,-1.354693
0.534200,-1.320937
0.534300,-1.296593
0.534400,-1.324183
0.534500,-1.333271
0.534600,-1.326779
0.534700,-1.306006
0.534800,-1.291075
0.534900,-1.238818
0.535000,-1.221615
0.535100,-1.250827
0.535200,-1.338789
0.535300,-1.285882
0.535400,-1.206035
0.535500,-1.088536
0.535600,-1.053806
0.535700,-1.095028
0.535800,-1.171304
0.535900,-1.140469
0.536000,-1.052507
0.536100,-0.951562
0.536200,-0.918780
0.536300,-0.924947
0.536400,-0.940851
0.536500,-0.892813
0.536600,-0.841204
0.536700,-0.787648
0.536800,-0.767200
0.536900,-0.744804
0.537000,-0.709100
0.537100,-0.667553
0.537200,-0.621463
0.537300,-0.604260
0.537400,-0.593873
0.537500,-0.592575
0.537600,-0.577319
0.537700,-0.562389
0.537800,-0.553625
0.537900,-0.586083
0.538000,-0.652947
0.538100,-0.655219
0.538200,-0.635744
0.538300,-0.623410
0.538400,-0.660412
0.538500,-0.668851
0.538600,-0.603286
0.538700,-0.604584
0.538800,-0.598417
0.538900,-0.613348
0.539000,-0.625357
0.539100,-0.651649
0.539200,-0.655868
0.539300,-0.677940
0.539400,-0.714618
0.539500,-0.761033
0.539600,-0.812317
0.539700,-0.852240
0.539800,-0.895734
0.539900,-0.948317
0.540000,-0.993433
0.540100,-1.058350
0.540200,-1.098923
0.540300,-1.214799
0.540400,-1.304059
0.540500,-1.350474
0.540600,-1.269977
0.540700,-1.233949
0.540800,-1.219667
0.540900,-1.344631
0.541000,-1.439734
0.541100,-1.458884
0.541200,-1.416364
0.541300,-1.325156
0.541400,-1.329701
0.541500,-1.382283
0.541600,-1.449796
0.541700,-1.488097
0.541800,-1.476412
0.541900,-1.456937
0.542000,-1.466999
0.542100,-1.476736
0.542200,-1.489720
0.542300,-1.519257
0.542400,-1.499782
0.542500,-1.511791
0.542600,-1.499133
0.542700,-1.513090
0.542800,-1.540030
0.542900,-1.545223
0.543000,-1.532240
0.543100,-1.548794
0.543200,-1.552040
0.543300,-1.536460
0.543400,-1.482254
0.543500,-1.416040
0.543600,-1.421882
0.543700,-1.489395
0.543800,-1.550417
0.543900,-1.581577
0.544000,-1.518283
0.544100,-1.404355
0.544200,-1.381309
0.544300,-1.442006
0.544400,-1.543600
0.544500,-1.574111
0.544600,-1.541328
0.544700,-1.457262
0.544800,-1.421233
0.544900,-1.431295
0.545000,-1.454989
0.545100,-1.459858
0.545200,-1.439409
0.545300,-1.393319
0.545400,-1.346903
0.545500,-1.337815
0.545600,-1.298216
0.545700,-1.263161
0.545800,-1.241414
0.545900,-1.224536
0.546000,-1.220316
0.546100,-1.217071
0.546200,-1.198245
0.546300,-1.153452
0.546400,-1.141118
0.546500,-1.141443
0.546600,-1.134302
0.546700,-1.109634
0.546800,-1.108011
0.546900,-1.109309
0.547000,-1.106713
0.547100,-1.070035
0.547200,-1.082044
0.547300,-1.120020
0.547400,-1.148908
0.547500,-1.151505
0.547600,-1.148259
0.547700,-1.170980
0.547800,-1.143066
0.547900,-1.152154
0.548000,-1.165787
0.548100,-1.170006
0.548200,-1.154751
0.548300,-1.139495
0.548400,-1.141768
0.548500,-1.100546
0.548600,-1.020374
0.548700,-0.902875
0.548800,-0.827897
0.548900,-0.920402
0.549000,-0.994407
0.549100,-1.011935
0.549200,-0.921701
0.549300,-0.842827
0.549400,-0.762980
0.549500,-0.797710
0.549600,-0.843152
0.549700,-0.875935
0.549800,-0.845424
0.549900,-0.769796
0.550000,-0.750646
0.550100,-0.752918
0.550200,-0.786675
0.550300,-0.809071
0.550400,-0.817185
0.550500,-0.811668
0.550600,-0.817510
0.550700,-0.819133
0.550800,-0.833090
0.550900,-0.852565
0.551000,-0.869768
0.551100,-0.929491
0.551200,-0.902550
0.551300,-0.984670
0.551400,-0.953510
0.551500,-0.993433
0.551600,-0.947667
0.551700,-0.967467
0.551800,-1.067438
0.551900,-1.127486
0.552000,-1.104765
0.552100,-1.010312
0.552200,-0.951238
0.552300,-0.966818
0.552400,-1.056078
0.552500,-1.145987
0.552600,-1.115476
0.552700,-1.049911
0.552800,-0.963247
0.552900,-0.942149
0.553000,-0.995056
0.553100,-1.032383
0.553200,-1.034331
0.553300,-1.025892
0.553400,-0.987591
0.553500,-1.010312
0.553600,-1.003496
0.553700,-1.008040
0.553800,-1.020049
0.553900,-1.023944
0.554000,-1.051534
0.554100,-1.070684
0.554200,-1.081071
0.554300,-1.086589
0.554400,-1.105739
0.554500,-1.140794
0.554600,-1.198894
0.554700,-1.230054
0.554800,-1.245309
0.554900,-1.249204
0.555000,-1.258293
0.555100,-1.304708
0.555200,-1.276145
0.555300,-1.238168
0.555400,-1.235572
0.555500,-1.236221
0.555600,-1.232001
0.555700,-1.218044
0.555800,-1.204087
0.555900,-1.223238
0.556000,-1.194999
0.556100,-1.198245
0.556200,-1.180393
0.556300,-1.178770
0.556400,-1.183963
0.556500,-1.193701
0.556600,-1.207009
0.556700,-1.200517
0.556800,-1.194025
0.556900,-1.212202
0.557000,-1.303734
0.557100,-1.304059
0.557200,-1.253748
0.557300,-1.175849
0.557400,-1.108660
0.557500,-1.142417
0.557600,-1.245634
0.557700,-1.290426
0.557800,-1.287180
0.557900,-1.195648
0.558000,-1.139495
0.558100,-1.132030
0.558200,-1.142417
0.558300,-1.193701
0.558400,-1.180068
0.558500,-1.156049
0.558600,-1.110932
0.558700,-1.092106
0.558800,-1.096001
0.558900,-1.077825
0.559000,-1.092431
0.559100,-1.108985
0.559200,-1.117099
0.559300,-1.116126
0.559400,-1.139495
0.559500,-1.138522
0.559600,-1.140145
0.559700,-1.144040
0.559800,-1.176173
0.559900,-1.199868
0.560000,-1.214149
0.560100,-1.141768
0.560200,-1.153128
0.560300,-1.188507
0.560400,-1.284908
0.560500,-1.361185
0.560600,-1.386827
0.560700,-1.339114
0.560800,-1.270951
0.560900,-1.300164
0.561000,-1.394942
0.561100,-1.500431
0.561200,-1.552689
0.561300,-1.514713
0.561400,-1.480631
0.561500,-1.463429
0.561600,-1.472192
0.561700,-1.516011
0.561800,-1.537109
0.561900,-1.540355
0.562000,-1.535810
0.562100,-1.496211
0.562200,-1.460183
0.562300,-1.418636
0.562400,-1.373195
0.562500,-1.336192
0.562600,-1.336517
0.562700,-1.335219
0.562800,-1.326455
0.562900,-1.257643
0.563000,-1.203114
0.563100,-1.175849
0.563200,-1.168708
0.563300,-1.125863
0.563400,-1.091457
0.563500,-1.052832
0.563600,-1.020049
0.563700,-0.991486
0.563800,-0.955133
0.563900,-0.938255
0.564000,-0.976231
0.564100,-0.972660
0.564200,-1.009013
0.564300,-0.997328
0.564400,-1.037252
0.564500,-1.010312
0.564600,-1.037252
0.564700,-1.017777
0.564800,-1.024269
0.564900,-1.080097
0.565000,-1.067114
0.565100,-1.105414
0.565200,-1.059648
0.565300,-1.027515
0.565400,-0.872364
0.565500,-1.031410
0.565600,-1.100870
0.565700,-1.181367
0.565800,-1.161242
0.565900,-1.147935
0.566000,-1.060622
0.566100,-1.024593
0.566200,-1.075877
0.566300,-1.140469
0.566400,-1.150531
0.566500,-1.123266
0.566600,-1.042121
0.566700,-1.012259
0.566800,-1.016803
0.566900,-1.028164
0.567000,-1.047963
0.567100,-1.050235
0.567200,-1.030760
0.567300,-1.028488
0.567400,-1.014856
0.567500,-1.020374
0.567600,-1.012259
0.567700,-1.021023
0.567800,-1.049586
0.567900,-1.069386
0.568000,-1.059648
0.568100,-1.071009
0.568200,-0.997004
0.568300,-1.029137
0.568400,-1.044717
0.568500,-1.194025
0.568600,-1.193376
0.568700,-1.165787
0.568800,-1.064517
0.568900,-1.065491
0.569000,-1.108011
0.569100,-1.224861
0.569200,-1.286531
0.569300,-1.267705
0.569400,-1.184937
0.569500,-1.142092
0.569600,-1.170655
0.569700,-1.213176
0.569800,-1.244335
0.569900,-1.250827
0.570000,-1.250827
0.570100,-1.215448
0.570200,-1.226483
0.570300,-1.191753
0.570400,-1.183639
0.570500,-1.165462
0.570600,-1.165137
0.570700,-1.176822
0.570800,-1.171629
0.570900,-1.165787
0.571000,-1.156049
0.571100,-1.137873
0.571200,-1.152803
0.571300,-1.187534
0.571400,-1.207333
0.571500,-1.203114
0.571600,-1.196297
0.571700,-1.201491
0.571800,-1.209930
0.571900,-1.166111
0.572000,-1.158321
0.572100,-1.137548
0.572200,-1.140145
0.572300,-1.123591
0.572400,-1.125863
0.572500,-1.131056
0.572600,-1.124889
0.572700,-1.142741
0.572800,-1.160593
0.572900,-1.160918
0.573000,-1.181691
0.573100,-1.192727
0.573200,-1.188832
0.573300,-1.180717
0.573400,-1.196297
0.573500,-1.210579
0.573600,-1.237519
0.573700,-1.357615
0.573800,-1.373844
0.573900,-1.292698
0.574000,-1.238818
0.574100,-1.209281
0.574200,-1.327429
0.574300,-1.408250
0.574400,-1.484526
0.574500,-1.466025
0.574600,-1.411495
0.574700,-1.373195
0.574800,-1.422856
0.574900,-1.481930
0.575000,-1.544899
0.575100,-1.561777
0.575200,-1.533538
0.575300,-1.491343
0.575400,-1.445901
0.575500,-1.450770
0.575600,-1.458235
0.575700,-1.453367
0.575800,-1.419610
0.575900,-1.405328
0.576000,-1.441682
0.576100,-1.435190
0.576200,-1.391696
0.576300,-1.391047
0.576400,-1.391371
0.576500,-1.421882
0.576600,-1.407925
0.576700,-1.361834
0.576800,-1.260565
0.576900,-1.237844
0.577000,-1.274197
0.577100,-1.344631
0.577200,-1.365405
0.577300,-1.306006
0.577400,-1.235572
0.577500,-1.207009
0.577600,-1.217071
0.577700,-1.285557
0.577800,-1.314770
0.577900,-1.330350
0.578000,-1.295619
0.578100,-1.232651
0.578200,-1.191104
0.578300,-1.190130
0.578400,-1.200517
0.578500,-1.200192
0.578600,-1.168059
0.578700,-1.121319
0.578800,-1.070359
0.578900,-1.031085
0.579000,-1.005443
0.579100,-0.975581
0.579200,-0.971686
0.579300,-0.959352
0.579400,-0.967142
0.579500,-0.956431
0.579600,-0.903849
0.579700,-0.902550
0.579800,-0.899305
0.579900,-0.894761
0.580000,-0.848021
0.580100,-0.848021
0.580200,-0.851267
0.580300,-0.830818
0.580400,-0.817185
0.580500,-0.823677
0.580600,-0.827247
0.580700,-0.866197
0.580800,-0.879505
0.580900,-0.912288
0.581000,-0.952861
0.581100,-0.939228
0.581200,-0.946044
0.581300,-0.960975
0.581400,-0.969414
0.581500,-1.002522
0.581600,-1.007390
0.581700,-1.042121
0.581800,-0.986617
0.581900,-0.971362
0.582000,-0.811343
0.582100,-0.782131
0.582200,-0.824002
0.582300,-0.929815
0.582400,-0.901577
0.582500,-0.865873
0.582600,-0.787973
0.582700,-0.712670
0.582800,-0.681186
0.582900,-0.713319
0.583000,-0.755515
0.583100,-0.721758
0.583200,-0.638341
0.583300,-0.562389
0.583400,-0.515000
0.583500,-0.529930
0.583600,-0.565634
0.583700,-0.566284
0.583800,-0.560441
0.583900,-0.545186
0.584000,-0.546484
0.584100,-0.541615
0.584200,-0.539992
0.584300,-0.512403
0.584400,-0.578293
0.584500,-0.626331
0.584600,-0.637042
0.584700,-0.640937
0.584800,-0.575696
0.584900,-0.574723
0.585000,-0.560117
0.585100,-0.676966
0.585200,-0.738961
0.585300,-0.730847
0.585400,-0.665281
0.585500,-0.578942
0.585600,-0.637367
0.585700,-0.722083
0.585800,-0.767849
0.585900,-0.801281
0.586000,-0.763954
0.586100,-0.704555
0.586200,-0.682808
0.586300,-0.693520
0.586400,-0.737014
0.586500,-0.760708
0.586600,-0.791219
0.586700,-0.791219
0.586800,-0.808422
0.586900,-0.816861
0.587000,-0.840231
0.587100,-0.858083
0.587200,-0.862627
0.587300,-0.900928
0.587400,-0.921376
0.587500,-0.966818
0.587600,-0.957729
0.587700,-0.971686
0.587800,-0.981749
0.587900,-1.013882
0.588000,-1.052183
0.588100,-1.071982
0.588200,-1.067763
0.588300,-1.064517
0.588400,-1.068087
0.588500,-1.070035
0.588600,-1.016154
0.588700,-1.005768
0.588800,-1.000899
0.588900,-0.995706
0.589000,-0.995381
0.589100,-0.994407
0.589200,-1.014207
0.589300,-0.998302
0.589400,-0.987591
0.589500,-1.009013
0.589600,-1.020049
0.589700,-1.022970
0.589800,-1.036927
0.589900,-1.042445
0.590000,-1.083667
0.590100,-1.113529
0.590200,-1.151505
0.590300,-1.217071
0.590400,-1.292698
0.590500,-1.277767
0.590600,-1.186884
0.590700,-1.141443
0.590800,-1.119371
0.590900,-1.219018
0.591000,-1.358588
0.591100,-1.354693
0.591200,-1.324183
0.591300,-1.229729
0.591400,-1.207982
0.591500,-1.236546
0.591600,-1.269977
0.591700,-1.316068
0.591800,-1.277118
0.591900,-1.255696
0.592000,-1.233624
0.592100,-1.256020
0.592200,-1.278417
0.592300,-1.258942
0.592400,-1.260240
0.592500,-1.254722
0.592600,-1.289128
0.592700,-1.308927
0.592800,-1.315744
0.592900,-1.290102
0.593000,-1.311199
0.593100,-1.339763
0.593200,-1.368975
0.593300,-1.337815
0.593400,-1.275820
0.593500,-1.218369
0.593600,-1.256020
0.593700,-1.316068
0.593800,-1.429347
0.593900,-1.435190
0.594000,-1.380660
0.594100,-1.325806
0.594200,-1.351448
0.594300,-1.403056
0.594400,-1.467648
0.594500,-1.499457
0.594600,-1.501080
0.594700,-1.473166
0.594800,-1.434541
0.594900,-1.408250
0.595000,-1.406627
0.595100,-1.395266
0.595200,-1.405004
0.595300,-1.378713
0.595400,-1.330674
0.595500,-1.296269
0.595600,-1.272250
0.595700,-1.237519
0.595800,-1.207333
0.595900,-1.185586
0.596000,-1.194999
0.596100,-1.182016
0.596200,-1.145013
0.596300,-1.084316
0.596400,-1.046016
0.596500,-1.056402
0.596600,-1.018751
0.596700,-0.989538
0.596800,-0.951887
0.596900,-0.916832
0.597000,-0.884698
0.597100,-0.852240
0.597200,-0.850293
0.597300,-0.838608
0.597400,-0.841204
0.597500,-0.840880
0.597600,-0.855162
0.597700,-0.873338
0.597800,-0.856784
0.597900,-0.868145
0.598000,-0.856460
0.598100,-0.863276
0.598200,-0.850293
0.598300,-0.851267
0.598400,-0.892488
0.598500,-0.836011
0.598600,-0.838932
0.598700,-0.687028
0.598800,-0.733768
0.598900,-0.810369
0.599000,-0.922025
0.599100,-0.876259
0.599200,-0.872364
0.599300,-0.752918
0.599400,-0.705529
0.599500,-0.727925
0.599600,-0.787973
0.599700,-0.826598
0.599800,-0.780508
0.599900,-0.709424
0.600000,-0.684431
0.600100,-0.672422
0.600200,-0.687677
0.600300,-0.681186
0.600400,-0.695143
0.600500,-0.686054
0.600600,-0.667553
0.600700,-0.670474
0.600800,-0.677615
0.600900,-0.695792
0.601000,-0.697415
0.601100,-0.737663
0.601200,-0.747725
0.601300,-0.793166
0.601400,-0.784078
0.601500,-0.771744
0.601600,-0.791219
0.601700,-0.815887
0.601800,-0.970713
0.601900,-1.011610
0.602000,-1.013233
0.602100,-0.954159
0.602200,-0.911314
0.602300,-1.009013
0.602400,-1.103467
0.602500,-1.185911
0.602600,-1.188832
0.602700,-1.157023
0.602800,-1.118073
0.602900,-1.099896
0.603000,-1.146961
0.603100,-1.174226
0.603200,-1.163190
0.603300,-1.152803
0.603400,-1.101844
0.603500,-1.120994
0.603600,-1.088536
0.603700,-1.072631
0.603800,-1.069710
0.603900,-1.045691
0.604000,-1.045691
0.604100,-1.051534
0.604200,-1.053481
0.604300,-1.013882
0.604400,-1.006092
0.604500,-1.016154
0.604600,-1.040822
0.604700,-1.048612
0.604800,-1.046340
0.604900,-1.027515
0.605000,-1.048288
0.605100,-1.046340
0.605200,-1.027190
0.605300,-0.998627
0.605400,-0.979476
0.605500,-0.976555
0.605600,-0.976880
0.605700,-0.970713
0.605800,-0.971037
0.605900,-0.958054
0.606000,-0.949290
0.606100,-0.940527
0.606200,-0.947018
0.606300,-0.943123
0.606400,-0.923973
0.606500,-0.915534
0.606600,-0.923324
0.606700,-0.931114
0.606800,-0.945720
0.606900,-0.991486
0.607000,-1.090159
0.607100,-1.148584
0.607200,-1.109309
0.607300,-1.030436
0.607400,-0.981424
0.607500,-1.039849
0.607600,-1.154426
0.607700,-1.236546
0.607800,-1.228106
0.607900,-1.147610
0.608000,-1.095352
0.608100,-1.120670
0.608200,-1.177472
0.608300,-1.229405
0.608400,-1.230054
0.608500,-1.208307
0.608600,-1.150856
0.608700,-1.144364
0.608800,-1.164488
0.608900,-1.191753
0.609000,-1.186560
0.609100,-1.192727
0.609200,-1.185586
0.609300,-1.219992
0.609400,-1.241090
0.609500,-1.237844
0.609600,-1.241090
0.609700,-1.260565
0.609800,-1.266407
0.609900,-1.260565
0.610000,-1.220641
0.610100,-1.120020
0.610200,-1.095352
0.610300,-1.119371
0.610400,-1.203114
0.610500,-1.230054
0.610600,-1.170655
0.610700,-1.096975
0.610800,-1.012584
0.610900,-1.030760
0.611000,-1.105414
0.611100,-1.152479
0.611200,-1.172927
0.611300,-1.129109
0.611400,-1.064842
0.611500,-1.058025
0.611600,-1.060622
0.611700,-1.102168
0.611800,-1.105414
0.611900,-1.097949
0.612000,-1.078799
0.612100,-1.045367
0.612200,-1.027515
0.612300,-0.989214
0.612400,-0.943448
0.612500,-0.934360
0.612600,-0.936956
0.612700,-0.957405
0.612800,-0.955457
0.612900,-0.912613
0.613000,-0.865548
0.613100,-0.882751
0.613200,-0.889243
0.613300,-0.847372
0.613400,-0.836011
0.613500,-0.825949
0.613600,-0.795763
0.613700,-0.784078
0.613800,-0.773367
0.613900,-0.779858
0.614000,-0.823352
0.614100,-0.815887
0.614200,-0.830169
0.614300,-0.862951
0.614400,-0.871391
0.614500,-0.860030
0.614600,-0.875610
0.614700,-0.910665
0.614800,-0.922999
0.614900,-0.939553
0.615000,-0.918130
0.615100,-0.932737
0.615200,-0.893787
0.615300,-0.826598
0.615400,-0.732145
0.615500,-0.774341
0.615600,-0.903849
0.615700,-0.924947
0.615800,-0.905796
0.615900,-0.874312
0.616000,-0.797710
0.616100,-0.776937
0.616200,-0.828221
0.616300,-0.887620
0.616400,-0.906770
0.616500,-0.851916
0.616600,-0.791219
0.616700,-0.796088
0.616800,-0.804851
0.616900,-0.837959
0.617000,-0.855811
0.617100,-0.859056
0.617200,-0.852565
0.617300,-0.836660
0.617400,-0.831467
0.617500,-0.846722
0.617600,-0.864899
0.617700,-0.885997
0.617800,-0.951238
0.617900,-0.942474
0.618000,-1.007066
0.618100,-0.944746
0.618200,-0.955782
0.618300,-0.939877
0.618400,-1.031734
0.618500,-1.130732
0.618600,-1.125538
0.618700,-1.087887
0.618800,-0.984670
0.618900,-1.002846
0.619000,-1.014856
0.619100,-1.107362
0.619200,-1.112555
0.619300,-1.069386
0.619400,-0.984670
0.619500,-0.942799
0.619600,-0.953834
0.619700,-0.994407
0.619800,-1.002522
0.619900,-0.993433
0.620000,-0.975257
0.620100,-0.947018
0.620200,-0.943448
0.620300,-0.945395
0.620400,-0.938579
0.620500,-0.922675
0.620600,-0.930789
0.620700,-0.961300
0.620800,-0.960651
0.620900,-0.962923
0.621000,-0.967791
0.621100,-0.945071
0.621200,-0.984994
0.621300,-1.019725
0.621400,-1.010312
0.621500,-0.990837
0.621600,-0.990512
0.621700,-1.014856
0.621800,-1.020374
0.621900,-0.959677
0.622000,-0.935982
0.622100,-0.926245
0.622200,-0.935658
0.622300,-0.938255
0.622400,-0.925596
0.622500,-0.932737
0.622600,-0.949290
0.622700,-0.955457
0.622800,-0.959028
0.622900,-0.958379
0.623000,-0.949939
0.623100,-0.955782
0.623200,-0.946044
0.623300,-0.970388
0.623400,-0.966818
0.623500,-0.975581
0.623600,-1.029462
0.623700,-1.118398
0.623800,-1.124889
0.623900,-1.034331
0.624000,-0.961300
0.624100,-0.954484
0.624200,-1.056078
0.624300,-1.155075
0.624400,-1.160918
0.624500,-1.124889
0.624600,-1.052507
0.624700,-1.042445
0.624800,-1.069061
0.624900,-1.119696
0.625000,-1.146961
0.625100,-1.124889
0.625200,-1.086589
0.625300,-1.060947
0.625400,-1.026541
0.625500,-1.037901
0.625600,-1.068412
0.625700,-1.068737
0.625800,-1.044717
0.625900,-1.042121
0.626000,-1.074579
0.626100,-1.086589
0.626200,-1.068412
0.626300,-1.070684
0.626400,-1.112231
0.626500,-1.135600
0.626600,-1.121643
0.626700,-1.083018
0.626800,-1.032708
0.626900,-1.020374
0.627000,-1.062245
0.627100,-1.162865
0.627200,-1.176173
0.627300,-1.121968
0.627400,-1.073605
0.627500,-1.057376
0.627600,-1.100546
0.627700,-1.177147
0.627800,-1.226808
0.627900,-1.226483
0.628000,-1.148908
0.628100,-1.111906
0.628200,-1.095677
0.628300,-1.083343
0.628400,-1.097949
0.628500,-1.082694
0.628600,-1.059973
0.628700,-1.031734
0.628800,-1.007390
0.628900,-0.966818
0.629000,-0.921052
0.629100,-0.889567
0.629200,-0.885672
0.629300,-0.912613
0.629400,-0.907095
0.629500,-0.886971
0.629600,-0.838608
0.629700,-0.830169
0.629800,-0.845424
0.629900,-0.839906
0.630000,-0.819457
0.630100,-0.799333
0.630200,-0.792193
0.630300,-0.776288
0.630400,-0.748699
0.630500,-0.766875
0.630600,-0.762656
0.630700,-0.807123
0.630800,-0.801605
0.630900,-0.838283
0.631000,-0.856784
0.631100,-0.855162
0.631200,-0.882102
0.631300,-0.882102
0.631400,-0.916183
0.631500,-0.897682
