0.000100,-1.623123
0.000200,-1.670512
0.000300,-1.766589
0.000400,-1.812355
0.000500,-1.822742
0.000600,-1.796450
0.000700,-1.793854
0.000800,-1.811381
0.000900,-1.815276
0.001000,-1.821119
0.001100,-1.795477
0.001200,-1.795152
0.001300,-1.807811
0.001400,-1.842541
0.001500,-1.839295
0.001600,-1.812679
0.001700,-1.820469
0.001800,-1.827935
0.001900,-1.916221
0.002000,-1.945109
0.002100,-1.972699
0.002200,-1.993148
0.002300,-1.998341
0.002400,-2.053520
0.002500,-2.004833
0.002600,-1.986331
0.002700,-1.985358
0.002800,-1.985033
0.002900,-1.982761
0.003000,-1.961338
0.003100,-1.953548
0.003200,-1.947706
0.003300,-1.920766
0.003400,-1.915248
0.003500,-1.856823
0.003600,-1.874675
0.003700,-1.839295
0.003800,-1.860718
0.003900,-1.854226
0.004000,-1.862665
0.004100,-1.863314
0.004200,-1.928556
0.004300,-2.113243
0.004400,-2.162255
0.004500,-2.079811
0.004600,-1.898694
0.004700,-1.845787
0.004800,-1.951601
0.004900,-2.128174
0.005000,-2.246322
0.005100,-2.173291
0.005200,-2.073320
0.005300,-1.965883
0.005400,-2.031124
0.005500,-2.118437
0.005600,-2.193091
0.005700,-2.215811
0.005800,-2.134341
0.005900,-2.107725
0.006000,-2.091821
0.006100,-2.111620
0.006200,-2.140833
0.006300,-2.146351
0.006400,-2.176212
0.006500,-2.162904
0.006600,-2.190169
0.006700,-2.263850
0.006800,-2.288518
0.006900,-2.264824
0.007000,-2.270017
0.007100,-2.285272
0.007200,-2.315783
0.007300,-2.254437
0.007400,-2.178160
0.007500,-2.074293
0.007600,-2.119735
0.007700,-2.264824
0.007800,-2.376805
0.007900,-2.323898
0.008000,-2.183678
0.008100,-2.083382
0.008200,-2.132718
0.008300,-2.239506
0.008400,-2.339478
0.008500,-2.328117
0.008600,-2.222303
0.008700,-2.137587
0.008800,-2.109673
0.008900,-2.117463
0.009000,-2.135639
0.009100,-2.119735
0.009200,-2.091496
0.009300,-2.048327
0.009400,-1.985358
0.009500,-1.924985
0.009600,-1.865911
0.009700,-1.812355
0.009800,-1.782818
0.009900,-1.796775
0.010000,-1.791906
0.010100,-1.788011
0.010200,-1.696803
0.010300,-1.643572
0.010400,-1.638703
0.010500,-1.624422
0.010600,-1.560803
0.010700,-1.528670
0.010800,-1.501729
0.010900,-1.474464
0.011000,-1.431295
0.011100,-1.404030
0.011200,-1.432593
0.011300,-1.471868
0.011400,-1.521204
0.011500,-1.542627
0.011600,-1.596183
0.011700,-1.612087
0.011800,-1.616632
0.011900,-1.625720
0.012000,-1.640001
0.012100,-1.658503
0.012200,-1.693233
0.012300,-1.733481
0.012400,-1.662722
0.012500,-1.632211
0.012600,-1.451094
0.012700,-1.387476
0.012800,-1.455314
0.012900,-1.692908
0.013000,-1.730235
0.013100,-1.644221
0.013200,-1.559830
0.013300,-1.412469
0.013400,-1.423830
0.013500,-1.497510
0.013600,-1.602999
0.013700,-1.586445
0.013800,-1.481281
0.013900,-1.424154
0.014000,-1.397214
0.014100,-1.397214
0.014200,-1.470569
0.014300,-1.481281
0.014400,-1.481605
0.014500,-1.456612
0.014600,-1.453367
0.014700,-1.480631
0.014800,-1.479658
0.014900,-1.473166
0.015000,-1.482254
0.015100,-1.600402
0.015200,-1.637729
0.015300,-1.643247
0.015400,-1.610464
0.015500,-1.579305
0.015600,-1.551066
0.015700,-1.643896
0.015800,-1.813653
0.015900,-1.835076
0.016000,-1.740298
0.016100,-1.600078
0.016200,-1.592937
0.016300,-1.682522
0.016400,-1.838971
0.016500,-1.835400
0.016600,-1.732508
0.016700,-1.608517
0.016800,-1.573462
0.016900,-1.635782
0.017000,-1.719849
0.017100,-1.707190
0.017200,-1.710111
0.017300,-1.669214
0.017400,-1.690636
0.017500,-1.683496
0.017600,-1.675056
0.017700,-1.650388
0.017800,-1.649090
0.017900,-1.648765
0.018000,-1.683171
0.018100,-1.698426
0.018200,-1.689663
0.018300,-1.640326
0.018400,-1.628966
0.018500,-1.671486
0.018600,-1.726340
0.018700,-1.717577
0.018800,-1.701997
0.018900,-1.698426
0.019000,-1.739973
0.019100,-1.743868
0.019200,-1.691935
0.019300,-1.698426
0.019400,-1.680250
0.019500,-1.673433
0.019600,-1.673109
0.019700,-1.701997
0.019800,-1.706216
0.019900,-1.716278
0.020000,-1.721147
0.020100,-1.713682
0.020200,-1.721147
0.020300,-1.708813
0.020400,-1.737052
0.020500,-1.747438
0.020600,-1.763667
0.020700,-1.790608
0.020800,-1.825338
0.020900,-1.950627
0.021000,-2.115191
0.021100,-2.153492
0.021200,-1.989902
0.021300,-1.880842
0.021400,-1.879544
0.021500,-2.048002
0.021600,-2.211267
0.021700,-2.271315
0.021800,-2.176212
0.021900,-2.063907
0.022000,-1.998016
0.022100,-2.111945
0.022200,-2.207372
0.022300,-2.261253
0.022400,-2.218084
0.022500,-2.160957
0.022600,-2.114542
0.022700,-2.136289
0.022800,-2.170045
0.022900,-2.181081
0.023000,-2.202179
0.023100,-2.170370
0.023200,-2.212566
0.023300,-2.238208
0.023400,-2.267420
0.023500,-2.237559
0.023600,-2.238857
0.023700,-2.233988
0.023800,-2.271640
0.023900,-2.295334
0.024000,-2.195363
0.024100,-2.061635
0.024200,-2.066179
0.024300,-2.117787
0.024400,-2.223277
0.024500,-2.283000
0.024600,-2.170370
0.024700,-2.035343
0.024800,-1.967181
0.024900,-2.061310
0.025000,-2.186599
0.025100,-2.248919
0.025200,-2.211267
0.025300,-2.108050
0.025400,-2.045081
0.025500,-2.041835
0.025600,-2.035992
0.025700,-2.051572
0.025800,-2.023658
0.025900,-2.002560
0.026000,-1.950952
0.026100,-1.884737
0.026200,-1.816250
0.026300,-1.765940
0.026400,-1.693233
0.026500,-1.641300
0.026600,-1.652011
0.026700,-1.658827
0.026800,-1.613710
0.026900,-1.496536
0.027000,-1.454340
0.027100,-1.414092
0.027200,-1.413767
0.027300,-1.315419
0.027400,-1.275171
0.027500,-1.230703
0.027600,-1.180068
0.027700,-1.132030
0.027800,-1.127810
0.027900,-1.139495
0.028000,-1.177796
0.028100,-1.183639
0.028200,-1.207658
0.028300,-1.234273
0.028400,-1.257643
0.028500,-1.217720
0.028600,-1.296918
0.028700,-1.263161
0.028800,-1.370923
0.028900,-1.349176
0.029000,-1.375142
0.029100,-1.358588
0.029200,-1.243362
0.029300,-1.153777
0.029400,-1.078149
0.029500,-1.269004
0.029600,-1.446875
0.029700,-1.462455
0.029800,-1.372221
0.029900,-1.228756
0.030000,-1.145013
0.030100,-1.175849
0.030200,-1.335219
0.030300,-1.401109
0.030400,-1.380660
0.030500,-1.260240
0.030600,-1.190455
0.030700,-1.213825
0.030800,-1.275820
0.030900,-1.353395
0.031000,-1.375467
0.031100,-1.357290
0.031200,-1.323209
0.031300,-1.344631
0.031400,-1.379686
0.031500,-1.387476
0.031600,-1.376116
0.031700,-1.383257
0.031800,-1.486149
0.031900,-1.478684
0.032000,-1.568593
0.032100,-1.489071
0.032200,-1.524450
0.032300,-1.472517
0.032400,-1.681548
0.032500,-1.775677
0.032600,-1.753930
0.032700,-1.673433
0.032800,-1.535161
0.032900,-1.591314
0.033000,-1.697128
0.033100,-1.826312
0.033200,-1.819820
0.033300,-1.709462
0.033400,-1.610464
0.033500,-1.601052
0.033600,-1.671811
0.033700,-1.750684
0.033800,-1.768861
0.033900,-1.794178
0.034000,-1.737701
0.034100,-1.744517
0.034200,-1.732832
0.034300,-1.729262
0.034400,-1.722121
0.034500,-1.714655
0.034600,-1.727314
0.034700,-1.766264
0.034800,-1.766264
0.034900,-1.750035
0.035000,-1.747763
0.035100,-1.751658
0.035200,-1.823715
0.035300,-1.887983
0.035400,-1.909405
0.035500,-1.920766
0.035600,-1.925959
0.035700,-1.983735
0.035800,-1.984059
0.035900,-1.938942
0.036000,-1.930178
0.036100,-1.921415
0.036200,-1.924985
0.036300,-1.922388
0.036400,-1.917844
0.036500,-1.917520
0.036600,-1.922713
0.036700,-1.926608
0.036800,-1.912002
0.036900,-1.910054
0.037000,-1.889606
0.037100,-1.890904
0.037200,-1.908431
0.037300,-1.942188
0.037400,-1.948680
0.037500,-1.993472
0.037600,-2.176537
0.037700,-2.271964
0.037800,-2.250542
0.037900,-2.075592
0.038000,-2.002885
0.038100,-2.009701
0.038200,-2.242103
0.038300,-2.381998
0.038400,-2.389788
0.038500,-2.249568
0.038600,-2.121033
0.038700,-2.112919
0.038800,-2.222628
0.038900,-2.323573
0.039000,-2.320976
0.039100,-2.265797
0.039200,-2.213864
0.039300,-2.194389
0.039400,-2.172967
0.039500,-2.186924
0.039600,-2.196986
0.039700,-2.203477
0.039800,-2.188222
0.039900,-2.213539
0.040000,-2.229444
0.040100,-2.239831
0.040200,-2.221979
0.040300,-2.216136
0.040400,-2.263201
0.040500,-2.291764
0.040600,-2.273912
0.040700,-2.177186
0.040800,-2.099611
0.040900,-2.163878
0.041000,-2.268719
0.041100,-2.384270
0.041200,-2.392709
0.041300,-2.272614
0.041400,-2.165501
0.041500,-2.134341
0.041600,-2.237883
0.041700,-2.374857
0.041800,-2.429063
0.041900,-2.343373
0.042000,-2.250542
0.042100,-2.191468
0.042200,-2.196986
0.042300,-2.230742
0.042400,-2.257683
0.042500,-2.235286
0.042600,-2.231391
0.042700,-2.165826
0.042800,-2.102207
0.042900,-2.041186
0.043000,-1.969778
0.043100,-1.884088
0.043200,-1.865262
0.043300,-1.847410
0.043400,-1.848708
0.043500,-1.772431
0.043600,-1.641624
0.043700,-1.595209
0.043800,-1.554961
0.043900,-1.518608
0.044000,-1.411820
0.044100,-1.333920
0.044200,-1.270627
0.044300,-1.207009
0.044400,-1.096326
0.044500,-1.078474
0.044600,-1.042445
0.044700,-1.055429
0.044800,-1.034980
0.044900,-1.038226
0.045000,-1.028813
0.045100,-1.033357
0.045200,-0.984345
0.045300,-1.005768
0.045400,-0.967791
0.045500,-1.007715
0.045600,-0.987916
0.045700,-1.024593
0.045800,-0.960002
0.045900,-0.855811
0.046000,-0.674045
0.046100,-0.693844
0.046200,-0.882102
0.046300,-1.051858
0.046400,-1.039200
0.046500,-0.958703
0.046600,-0.783753
0.046700,-0.742207
0.046800,-0.843152
0.046900,-0.963247
0.047000,-1.035629
0.047100,-0.964221
0.047200,-0.909691
0.047300,-0.873987
0.047400,-0.943772
0.047500,-1.020698
0.047600,-1.070684
0.047700,-1.084316
0.047800,-1.092756
0.047900,-1.124565
0.048000,-1.137548
0.048100,-1.165462
0.048200,-1.175199
0.048300,-1.216097
0.048400,-1.263810
0.048500,-1.303085
0.048600,-1.316717
0.048700,-1.312173
0.048800,-1.270951
0.048900,-1.225834
0.049000,-1.274522
0.049100,-1.429347
0.049200,-1.508870
0.049300,-1.472192
0.049400,-1.320612
0.049500,-1.244985
0.049600,-1.297242
0.049700,-1.447199
0.049800,-1.521529
0.049900,-1.470569
0.050000,-1.355343
0.050100,-1.264135
0.050200,-1.271276
0.050300,-1.353395
0.050400,-1.384880
0.050500,-1.374168
0.050600,-1.354044
0.050700,-1.336841
0.050800,-1.355667
0.050900,-1.334569
0.051000,-1.321911
0.051100,-1.297242
0.051200,-1.270302
0.051300,-1.280040
0.051400,-1.291725
0.051500,-1.261214
0.051600,-1.213500
0.051700,-1.183963
0.051800,-1.182340
0.051900,-1.271276
0.052000,-1.270951
0.052100,-1.255047
0.052200,-1.246608
0.052300,-1.257968
0.052400,-1.307629
0.052500,-1.241090
0.052600,-1.218693
0.052700,-1.198245
0.052800,-1.201166
0.052900,-1.174875
0.053000,-1.201815
0.053100,-1.176498
0.053200,-1.213825
0.053300,-1.199868
0.053400,-1.206035
0.053500,-1.228431
0.053600,-1.233300
0.053700,-1.257643
0.053800,-1.253424
0.053900,-1.294646
0.054000,-1.307304
0.054100,-1.369300
0.054200,-1.442006
0.054300,-1.671486
0.054400,-1.776651
0.054500,-1.682197
0.054600,-1.568918
0.054700,-1.486799
0.054800,-1.615658
0.054900,-1.849357
0.055000,-1.952899
0.055100,-1.937319
0.055200,-1.802617
0.055300,-1.730560
0.055400,-1.805539
0.055500,-1.942837
0.055600,-2.048002
0.055700,-2.028852
0.055800,-1.990226
0.055900,-1.960689
0.056000,-1.961014
0.056100,-1.984384
0.056200,-1.978217
0.056300,-1.989253
0.056400,-1.970427
0.056500,-2.005482
0.056600,-2.025606
0.056700,-2.048651
0.056800,-2.049950
0.056900,-2.039563
0.057000,-2.043458
0.057100,-2.080785
0.057200,-2.088250
0.057300,-2.048327
0.057400,-1.949653
0.057500,-1.907782
0.057600,-1.947381
0.057700,-2.051897
0.057800,-2.148298
0.057900,-2.115515
0.058000,-1.987305
0.058100,-1.877921
0.058200,-1.907458
0.058300,-2.019439
0.058400,-2.130446
0.058500,-2.127849
0.058600,-2.049950
0.058700,-1.967505
0.058800,-1.948680
0.058900,-1.967505
0.059000,-1.977243
0.059100,-1.957119
0.059200,-1.927906
0.059300,-1.907782
0.059400,-1.850331
0.059500,-1.783142
0.059600,-1.713033
0.059700,-1.662073
0.059800,-1.598455
0.059900,-1.584822
0.060000,-1.601052
0.060100,-1.591963
0.060200,-1.481930
0.060300,-1.429023
0.060400,-1.411495
0.060500,-1.388125
0.060600,-1.322235
0.060700,-1.284908
0.060800,-1.228106
0.060900,-1.165462
0.061000,-1.121643
0.061100,-1.086589
0.061200,-1.078149
0.061300,-1.118073
0.061400,-1.145987
0.061500,-1.187534
0.061600,-1.211553
0.061700,-1.239142
0.061800,-1.253748
0.061900,-1.283610
0.062000,-1.287505
0.062100,-1.334569
0.062200,-1.331648
0.062300,-1.384880
0.062400,-1.365405
0.062500,-1.377739
0.062600,-1.214474
0.062700,-1.123915
0.062800,-1.197271
0.062900,-1.430646
0.063000,-1.502378
0.063100,-1.436488
0.063200,-1.382608
0.063300,-1.227782
0.063400,-1.242388
0.063500,-1.347228
0.063600,-1.449472
0.063700,-1.437462
0.063800,-1.350798
0.063900,-1.256020
0.064000,-1.223887
0.064100,-1.236546
0.064200,-1.267381
0.064300,-1.263161
0.064400,-1.247906
0.064500,-1.219992
0.064600,-1.211877
0.064700,-1.207982
0.064800,-1.205061
0.064900,-1.198245
0.065000,-1.225510
0.065100,-1.244985
0.065200,-1.269977
0.065300,-1.290426
0.065400,-1.297242
0.065500,-1.238168
0.065600,-1.255047
0.065700,-1.288803
0.065800,-1.483228
0.065900,-1.476736
0.066000,-1.433892
0.066100,-1.271925
0.066200,-1.279715
0.066300,-1.381309
0.066400,-1.559830
0.066500,-1.589691
0.066600,-1.524775
0.066700,-1.394617
0.066800,-1.355992
0.066900,-1.407600
0.067000,-1.463429
0.067100,-1.449472
0.067200,-1.469596
0.067300,-1.426751
0.067400,-1.412794
0.067500,-1.393643
0.067600,-1.372546
0.067700,-1.369624
0.067800,-1.347553
0.067900,-1.368001
0.068000,-1.379362
0.068100,-1.397214
0.068200,-1.366054
0.068300,-1.343009
0.068400,-1.319963
0.068500,-1.343982
0.068600,-1.417662
0.068700,-1.419935
0.068800,-1.436164
0.068900,-1.450445
0.069000,-1.476736
0.069100,-1.502703
0.069200,-1.432269
0.069300,-1.438760
0.069400,-1.440383
0.069500,-1.421557
0.069600,-1.446875
0.069700,-1.452717
0.069800,-1.475763
0.069900,-1.484202
0.070000,-1.497185
0.070100,-1.516660
0.070200,-1.493939
0.070300,-1.523476
0.070400,-1.543600
0.070500,-1.571515
0.070600,-1.571839
0.070700,-1.602999
0.070800,-1.595858
0.070900,-1.722445
0.071000,-1.920116
0.071100,-1.927906
0.071200,-1.834426
0.071300,-1.665968
0.071400,-1.696154
0.071500,-1.868183
0.071600,-2.028527
0.071700,-2.110971
0.071800,-2.016193
0.071900,-1.903887
0.072000,-1.831505
0.072100,-1.891228
0.072200,-1.967505
0.072300,-1.986007
0.072400,-1.951601
0.072500,-1.903887
0.072600,-1.860718
0.072700,-1.887983
0.072800,-1.863964
0.072900,-1.882465
0.073000,-1.891228
0.073100,-1.906808
0.073200,-1.926283
0.073300,-1.969453
0.073400,-1.995744
0.073500,-2.009052
0.073600,-2.006780
0.073700,-2.034370
0.073800,-2.095391
0.073900,-2.133692
0.074000,-2.073320
0.074100,-2.000938
0.074200,-2.022360
0.074300,-2.102532
0.074400,-2.231716
0.074500,-2.283649
0.074600,-2.200556
0.074700,-2.062608
0.074800,-2.009052
0.074900,-2.080785
0.075000,-2.235286
0.075100,-2.316432
0.075200,-2.290141
0.075300,-2.200232
0.075400,-2.162255
0.075500,-2.134666
0.075600,-2.116164
0.075700,-2.111945
0.075800,-2.074293
0.075900,-2.063257
0.076000,-2.003210
0.076100,-1.939267
0.076200,-1.858121
0.076300,-1.759448
0.076400,-1.683171
0.076500,-1.635457
0.076600,-1.610789
0.076700,-1.635457
0.076800,-1.608192
0.076900,-1.496861
0.077000,-1.429672
0.077100,-1.416689
0.077200,-1.400784
0.077300,-1.299839
0.077400,-1.252775
0.077500,-1.197920
0.077600,-1.168059
0.077700,-1.071982
0.077800,-1.056727
0.077900,-1.044393
0.078000,-1.018102
0.078100,-1.020049
0.078200,-0.999601
0.078300,-1.036927
0.078400,-0.983696
0.078500,-0.985968
0.078600,-0.977204
0.078700,-0.987591
0.078800,-0.979152
0.078900,-1.031085
0.079000,-1.010636
0.079100,-1.003171
0.079200,-0.891839
0.079300,-0.745777
0.079400,-0.744479
0.079500,-0.858407
0.079600,-1.067763
0.079700,-1.087238
0.079800,-1.033357
0.079900,-0.878531
0.080000,-0.804527
0.080100,-0.841204
0.080200,-0.964546
0.080300,-0.999276
0.080400,-0.968116
0.080500,-0.843801
0.080600,-0.766226
0.080700,-0.783753
0.080800,-0.809071
0.080900,-0.848345
0.081000,-0.843152
0.081100,-0.866846
0.081200,-0.873338
0.081300,-0.916508
0.081400,-0.947992
0.081500,-0.972985
0.081600,-1.025567
0.081700,-1.061920
0.081800,-1.177472
0.081900,-1.197596
0.082000,-1.232975
0.082100,-1.205386
0.082200,-1.178770
0.082300,-1.189481
0.082400,-1.370598
0.082500,-1.520555
0.082600,-1.507896
0.082700,-1.428698
0.082800,-1.259591
0.082900,-1.360861
0.083000,-1.464078
0.083100,-1.597481
0.083200,-1.555610
0.083300,-1.442331
0.083400,-1.332297
0.083500,-1.329051
0.083600,-1.403056
0.083700,-1.429347
0.083800,-1.363457
0.083900,-1.349825
0.084000,-1.278092
0.084100,-1.280689
0.084200,-1.259591
0.084300,-1.237519
0.084400,-1.206359
0.084500,-1.176173
0.084600,-1.192078
0.084700,-1.216097
0.084800,-1.214149
0.084900,-1.198245
0.085000,-1.190130
0.085100,-1.196946
0.085200,-1.267056
0.085300,-1.306655
0.085400,-1.340087
0.085500,-1.337815
0.085600,-1.351772
0.085700,-1.398512
0.085800,-1.408899
0.085900,-1.347553
0.086000,-1.349825
0.086100,-1.361185
0.086200,-1.356316
0.086300,-1.350798
0.086400,-1.362483
0.086500,-1.362483
0.086600,-1.371896
0.086700,-1.378388
0.086800,-1.378388
0.086900,-1.384880
0.087000,-1.396565
0.087100,-1.427075
0.087200,-1.430321
0.087300,-1.460832
0.087400,-1.476736
0.087500,-1.524775
0.087600,-1.641624
0.087700,-1.819820
0.087800,-1.750684
0.087900,-1.664994
0.088000,-1.528020
0.088100,-1.617930
0.088200,-1.820469
0.088300,-1.963935
0.088400,-2.014570
0.088500,-1.874026
0.088600,-1.819171
0.088700,-1.813978
0.088800,-1.957768
0.088900,-2.072670
0.089000,-2.099935
0.089100,-2.045405
0.089200,-1.978866
0.089300,-1.982436
0.089400,-2.023334
0.089500,-2.045405
0.089600,-2.060012
0.089700,-2.057740
0.089800,-2.035992
0.089900,-2.087277
0.090000,-2.130122
0.090100,-2.181406
0.090200,-2.147000
0.090300,-2.104804
0.090400,-2.139859
0.090500,-2.166475
0.090600,-2.160957
0.090700,-2.061310
0.090800,-1.985358
0.090900,-2.017491
0.091000,-2.075267
0.091100,-2.187573
0.091200,-2.160308
0.091300,-2.029501
0.091400,-1.907133
0.091500,-1.896746
0.091600,-1.991849
0.091700,-2.104804
0.091800,-2.157387
0.091900,-2.077539
0.092000,-1.962312
0.092100,-1.922064
0.092200,-1.918169
0.092300,-1.930828
0.092400,-1.926933
0.092500,-1.924985
0.092600,-1.887333
0.092700,-1.804565
0.092800,-1.749061
0.092900,-1.692259
0.093000,-1.624422
0.093100,-1.563725
0.093200,-1.531591
0.093300,-1.527371
0.093400,-1.517634
0.093500,-1.436813
0.093600,-1.342035
0.093700,-1.299514
0.093800,-1.271600
0.093900,-1.250503
0.094000,-1.131056
0.094100,-1.064842
0.094200,-0.986617
0.094300,-0.926570
0.094400,-0.831792
0.094500,-0.802579
0.094600,-0.823028
0.094700,-0.831467
0.094800,-0.808422
0.094900,-0.851267
0.095000,-0.815238
0.095100,-0.823028
0.095200,-0.818808
0.095300,-0.834713
0.095400,-0.829520
0.095500,-0.863601
0.095600,-0.880803
0.095700,-0.871715
0.095800,-0.828546
0.095900,-0.718512
0.096000,-0.613673
0.096100,-0.548756
0.096200,-0.801930
0.096300,-0.890866
0.096400,-0.889892
0.096500,-0.770770
0.096600,-0.633472
0.096700,-0.573749
0.096800,-0.665606
0.096900,-0.799009
0.097000,-0.835687
0.097100,-0.789596
0.097200,-0.666904
0.097300,-0.609778
0.097400,-0.647104
0.097500,-0.726302
0.097600,-0.788622
0.097700,-0.798035
0.097800,-0.786675
0.097900,-0.778560
0.098000,-0.811343
0.098100,-0.823677
0.098200,-0.824651
0.098300,-0.838283
0.098400,-0.947992
0.098500,-0.915534
0.098600,-1.026865
0.098700,-0.981099
0.098800,-0.961624
0.098900,-1.005118
0.099000,-0.999925
0.099100,-1.209605
0.099200,-1.238818
0.099300,-1.232975
0.099400,-1.090484
0.099500,-1.031085
0.099600,-1.092756
0.099700,-1.267381
0.099800,-1.352746
0.099900,-1.327104
0.100000,-1.186884
0.100100,-1.108336
0.100200,-1.108336
0.100300,-1.202789
0.100400,-1.281662
0.100500,-1.306980
0.100600,-1.283610
0.100700,-1.237519
0.100800,-1.257319
0.100900,-1.260565
0.101000,-1.266083
0.101100,-1.256345
0.101200,-1.259915
0.101300,-1.281987
0.101400,-1.307629
0.101500,-1.318665
0.101600,-1.297242
0.101700,-1.285557
0.101800,-1.303085
0.101900,-1.385204
0.102000,-1.413443
0.102100,-1.438436
0.102200,-1.409548
0.102300,-1.448498
0.102400,-1.470245
0.102500,-1.434865
0.102600,-1.405653
0.102700,-1.377739
0.102800,-1.359238
0.102900,-1.356316
0.103000,-1.345281
0.103100,-1.353395
0.103200,-1.311849
0.103300,-1.333920
0.103400,-1.324832
0.103500,-1.346579
0.103600,-1.319963
0.103700,-1.356316
0.103800,-1.368975
0.103900,-1.408250
0.104000,-1.419935
0.104100,-1.441357
0.104200,-1.550417
0.104300,-1.699076
0.104400,-1.833777
0.104500,-1.715954
0.104600,-1.630589
0.104700,-1.573137
0.104800,-1.693558
0.104900,-1.882789
0.105000,-1.986007
0.105100,-1.976269
0.105200,-1.827286
0.105300,-1.764317
0.105400,-1.806512
0.105500,-1.926283
0.105600,-1.982436
0.105700,-1.974322
0.105800,-1.922713
0.105900,-1.882140
0.106000,-1.863639
0.106100,-1.856823
0.106200,-1.868508
0.106300,-1.887983
0.106400,-1.871429
0.106500,-1.920116
0.106600,-1.933424
0.106700,-1.956470
0.106800,-1.966207
0.106900,-1.980164
0.107000,-1.973673
0.107100,-2.020737
0.107200,-2.018790
0.107300,-1.973997
0.107400,-1.839620
0.107500,-1.822417
0.107600,-1.888307
0.107700,-2.010675
0.107800,-2.105129
0.107900,-2.069100
0.108000,-1.950627
0.108100,-1.848708
0.108200,-1.892851
0.108300,-2.013921
0.108400,-2.143754
0.108500,-2.172967
0.108600,-2.098637
0.108700,-2.021062
0.108800,-1.991525
0.108900,-2.018140
0.109000,-2.040537
0.109100,-2.050274
0.109200,-2.032747
0.109300,-1.998341
0.109400,-1.944785
0.109500,-1.861042
0.109600,-1.788011
0.109700,-1.697453
0.109800,-1.651362
0.109900,-1.612737
0.110000,-1.602025
0.110100,-1.600727
0.110200,-1.483228
0.110300,-1.371896
0.110400,-1.361185
0.110500,-1.360211
0.110600,-1.306980
0.110700,-1.229405
0.110800,-1.192727
0.110900,-1.147610
0.111000,-1.108985
0.111100,-1.086913
0.111200,-1.080097
0.111300,-1.120994
0.111400,-1.133328
0.111500,-1.152154
0.111600,-1.176822
0.111700,-1.183963
0.111800,-1.163839
0.111900,-1.193701
0.112000,-1.181367
0.112100,-1.261538
0.112200,-1.228106
0.112300,-1.262188
0.112400,-1.251801
0.112500,-1.197920
0.112600,-1.029137
0.112700,-0.932087
0.112800,-0.994407
0.112900,-1.188832
0.113000,-1.319639
0.113100,-1.267705
0.113200,-1.115801
0.113300,-0.970713
0.113400,-0.960326
0.113500,-1.062569
0.113600,-1.169032
0.113700,-1.169682
0.113800,-1.068412
0.113900,-0.958379
0.114000,-0.950589
0.114100,-1.023620
0.114200,-1.078474
0.114300,-1.093080
0.114400,-1.076851
0.114500,-1.062569
0.114600,-1.084316
0.114700,-1.112880
0.114800,-1.118722
0.114900,-1.115152
0.115000,-1.149882
0.115100,-1.221290
0.115200,-1.257643
0.115300,-1.269653
0.115400,-1.273223
0.115500,-1.244335
0.115600,-1.250178
0.115700,-1.289452
0.115800,-1.470569
0.115900,-1.481281
0.116000,-1.417338
0.116100,-1.256994
0.116200,-1.274846
0.116300,-1.342684
0.116400,-1.485500
0.116500,-1.526073
0.116600,-1.465376
0.116700,-1.308927
0.116800,-1.268679
0.116900,-1.337815
0.117000,-1.428698
0.117100,-1.463753
0.117200,-1.475438
0.117300,-1.434865
0.117400,-1.428049
0.117500,-1.462130
0.117600,-1.456288
0.117700,-1.450770
0.117800,-1.424803
0.117900,-1.445252
0.118000,-1.471543
0.118100,-1.467973
0.118200,-1.459858
0.118300,-1.424803
0.118400,-1.389424
0.118500,-1.415715
0.118600,-1.489720
0.118700,-1.491992
0.118800,-1.495562
0.118900,-1.495887
0.119000,-1.551066
0.119100,-1.593262
0.119200,-1.552040
0.119300,-1.559830
0.119400,-1.544574
0.119500,-1.568593
0.119600,-1.592612
0.119700,-1.615658
0.119800,-1.606894
0.119900,-1.595534
0.120000,-1.599104
0.120100,-1.605596
0.120200,-1.564698
0.120300,-1.571515
0.120400,-1.563400
0.120500,-1.586770
0.120600,-1.570541
0.120700,-1.618579
0.120800,-1.637729
0.120900,-1.761071
0.121000,-1.895773
0.121100,-1.918169
0.121200,-1.804565
0.121300,-1.623772
0.121400,-1.634808
0.121500,-1.826961
0.121600,-2.018790
0.121700,-2.075916
0.121800,-2.007754
0.121900,-1.834102
0.122000,-1.806188
0.122100,-1.829558
0.122200,-1.943811
0.122300,-1.956470
0.122400,-1.913300
0.122500,-1.827286
0.122600,-1.782169
0.122700,-1.753930
0.122800,-1.757825
0.122900,-1.782818
0.123000,-1.780870
0.123100,-1.765940
0.123200,-1.752956
0.123300,-1.808460
0.123400,-1.858121
0.123500,-1.842216
0.123600,-1.844813
0.123700,-1.851629
0.123800,-1.857147
0.123900,-1.861042
0.124000,-1.812355
0.124100,-1.710111
0.124200,-1.712059
0.124300,-1.764641
0.124400,-1.852928
0.124500,-1.914923
0.124600,-1.841892
0.124700,-1.714980
0.124800,-1.644546
0.124900,-1.707190
0.125000,-1.866885
0.125100,-1.951601
0.125200,-1.928231
0.125300,-1.837348
0.125400,-1.778598
0.125500,-1.776326
0.125600,-1.777949
0.125700,-1.815925
0.125800,-1.818522
0.125900,-1.799047
0.126000,-1.775352
0.126100,-1.749386
0.126200,-1.688040
0.126300,-1.639028
0.126400,-1.583200
0.126500,-1.574111
0.126600,-1.602350
0.126700,-1.640001
0.126800,-1.652336
0.126900,-1.564698
0.127000,-1.527047
0.127100,-1.543925
0.127200,-1.561452
0.127300,-1.500756
0.127400,-1.477061
0.127500,-1.434216
0.127600,-1.403705
0.127700,-1.363457
0.127800,-1.337166
0.127900,-1.312498
0.128000,-1.350798
0.128100,-1.348202
0.128200,-1.388125
0.128300,-1.379362
0.128400,-1.348526
0.128500,-1.318665
0.128600,-1.310550
0.128700,-1.318340
0.128800,-1.281013
0.128900,-1.305682
0.129000,-1.318016
0.129100,-1.216746
0.129200,-1.162865
0.129300,-0.885997
0.129400,-0.870741
0.129500,-0.921376
0.129600,-1.148908
0.129700,-1.174875
0.129800,-1.045691
0.129900,-0.903200
0.130000,-0.780832
0.130100,-0.828870
0.130200,-0.942799
0.130300,-1.003496
0.130400,-0.963896
0.130500,-0.891839
0.130600,-0.792842
0.130700,-0.772718
0.130800,-0.831467
0.130900,-0.872040
0.131000,-0.873338
0.131100,-0.884049
0.131200,-0.867171
0.131300,-0.859381
0.131400,-0.845099
0.131500,-0.850942
0.131600,-0.852889
0.131700,-0.922350
0.131800,-0.943123
0.131900,-1.004469
0.132000,-1.031085
0.132100,-0.981749
0.132200,-0.971037
0.132300,-0.979152
0.132400,-1.094379
0.132500,-1.198245
0.132600,-1.201815
0.132700,-1.118073
0.132800,-0.977854
0.132900,-1.012259
0.133000,-1.124565
0.133100,-1.256670
0.133200,-1.212851
0.133300,-1.110283
0.133400,-1.007715
0.133500,-0.993109
0.133600,-1.065491
0.133700,-1.098273
0.133800,-1.096326
0.133900,-1.111257
0.134000,-1.081071
0.134100,-1.123591
0.134200,-1.121319
0.134300,-1.108985
0.134400,-1.130407
0.134500,-1.153128
0.134600,-1.241414
0.134700,-1.310875
0.134800,-1.370598
0.134900,-1.385529
0.135000,-1.417013
0.135100,-1.437462
0.135200,-1.546846
0.135300,-1.608192
0.135400,-1.655581
0.135500,-1.654932
0.135600,-1.682197
0.135700,-1.727963
0.135800,-1.726340
0.135900,-1.655906
0.136000,-1.637080
0.136100,-1.619553
0.136200,-1.593586
0.136300,-1.577032
0.136400,-1.544250
0.136500,-1.529643
0.136600,-1.482904
0.136700,-1.486149
0.136800,-1.451744
0.136900,-1.467648
0.137000,-1.418961
0.137100,-1.414741
0.137200,-1.436813
0.137300,-1.465051
0.137400,-1.483553
0.137500,-1.511467
0.137600,-1.650713
0.137700,-1.771133
0.137800,-1.691935
0.137900,-1.570216
0.138000,-1.440708
0.138100,-1.495238
0.138200,-1.659152
0.138300,-1.757500
0.138400,-1.747438
0.138500,-1.614035
0.138600,-1.468297
0.138700,-1.459209
0.138800,-1.510493
0.138900,-1.585796
0.139000,-1.550741
0.139100,-1.498808
0.139200,-1.446226
0.139300,-1.440383
0.139400,-1.444603
0.139500,-1.457911
0.139600,-1.452717
0.139700,-1.445577
0.139800,-1.453042
0.139900,-1.478359
0.140000,-1.539381
0.140100,-1.551066
0.140200,-1.564698
0.140300,-1.556584
0.140400,-1.617605
0.140500,-1.668240
0.140600,-1.697453
0.140700,-1.590989
0.140800,-1.543600
0.140900,-1.594560
0.141000,-1.697128
0.141100,-1.825014
0.141200,-1.854226
0.141300,-1.744842
0.141400,-1.603324
0.141500,-1.585472
0.141600,-1.677004
0.141700,-1.806837
0.141800,-1.841243
0.141900,-1.761720
0.142000,-1.661749
0.142100,-1.603324
0.142200,-1.580927
0.142300,-1.576059
0.142400,-1.566321
0.142500,-1.518283
0.142600,-1.493615
0.142700,-1.453042
0.142800,-1.392994
0.142900,-1.338140
0.143000,-1.271600
0.143100,-1.233300
0.143200,-1.214149
0.143300,-1.230703
0.143400,-1.254722
0.143500,-1.198569
0.143600,-1.121319
0.143700,-1.120345
0.143800,-1.115801
0.143900,-1.110608
0.144000,-1.054779
0.144100,-1.025243
0.144200,-0.965195
0.144300,-0.906445
0.144400,-0.863601
0.144500,-0.881128
0.144600,-0.894436
0.144700,-0.923973
0.144800,-0.913911
0.144900,-0.940202
0.145000,-0.960326
0.145100,-0.967791
0.145200,-0.982073
0.145300,-1.016479
0.145400,-1.043095
0.145500,-1.078474
0.145600,-1.149557
0.145700,-1.224536
0.145800,-1.185262
0.145900,-1.172603
0.146000,-0.993758
0.146100,-1.053806
0.146200,-1.243362
0.146300,-1.488421
0.146400,-1.508546
0.146500,-1.546846
0.146600,-1.463104
0.146700,-1.471868
0.146800,-1.630264
0.146900,-1.819820
0.147000,-1.962312
0.147100,-1.955496
0.147200,-1.905510
0.147300,-1.928231
0.147400,-2.014245
0.147500,-2.125577
0.147600,-2.217759
0.147700,-2.222952
0.147800,-2.188547
0.147900,-2.180107
0.148000,-2.184652
0.148100,-2.155764
0.148200,-2.094093
0.148300,-2.040861
0.148400,-2.059038
0.148500,-1.955171
0.148600,-1.933100
0.148700,-1.873376
0.148800,-1.730560
0.148900,-1.615658
0.149000,-1.553338
0.149100,-1.696479
0.149200,-1.656880
0.149300,-1.558207
0.149400,-1.355018
0.149500,-1.158646
0.149600,-1.197596
0.149700,-1.273872
0.149800,-1.330999
0.149900,-1.249529
0.150000,-1.065166
0.150100,-0.955782
0.150200,-0.950913
0.150300,-1.029462
0.150400,-1.057701
0.150500,-1.052832
0.150600,-1.020049
0.150700,-0.978178
0.150800,-1.021997
0.150900,-0.998302
0.151000,-0.981749
0.151100,-0.998302
0.151200,-0.968441
0.151300,-1.001223
0.151400,-1.007390
0.151500,-1.020374
0.151600,-1.024918
0.151700,-1.014207
0.151800,-1.023944
0.151900,-1.112555
0.152000,-1.142417
0.152100,-1.154102
0.152200,-1.141768
0.152300,-1.173252
0.152400,-1.200192
0.152500,-1.153128
0.152600,-1.109958
0.152700,-1.098923
0.152800,-1.085939
0.152900,-1.065815
0.153000,-1.057701
0.153100,-1.036603
0.153200,-1.013558
0.153300,-1.010312
0.153400,-1.019400
0.153500,-1.006417
0.153600,-1.018426
0.153700,-1.004145
0.153800,-1.023620
0.153900,-1.031734
0.154000,-1.064192
0.154100,-1.089510
0.154200,-1.138846
0.154300,-1.319639
0.154400,-1.387801
0.154500,-1.299514
0.154600,-1.164164
0.154700,-1.121968
0.154800,-1.210579
0.154900,-1.407600
0.155000,-1.566321
0.155100,-1.508221
0.155200,-1.407925
0.155300,-1.296269
0.155400,-1.346903
0.155500,-1.444603
0.155600,-1.558856
0.155700,-1.559180
0.155800,-1.516011
0.155900,-1.465701
0.156000,-1.462130
0.156100,-1.497510
0.156200,-1.538732
0.156300,-1.547495
0.156400,-1.556584
0.156500,-1.535486
0.156600,-1.592937
0.156700,-1.662398
0.156800,-1.682522
0.156900,-1.647791
0.157000,-1.657529
0.157100,-1.687715
0.157200,-1.703620
0.157300,-1.679601
0.157400,-1.544574
0.157500,-1.486149
0.157600,-1.536460
0.157700,-1.619553
0.157800,-1.697777
0.157900,-1.652985
0.158000,-1.530617
0.158100,-1.450770
0.158200,-1.444603
0.158300,-1.554636
0.158400,-1.651686
0.158500,-1.664994
0.158600,-1.601701
0.158700,-1.535486
0.158800,-1.505949
0.158900,-1.507896
0.159000,-1.519581
0.159100,-1.519581
0.159200,-1.505300
0.159300,-1.469920
0.159400,-1.400460
0.159500,-1.345605
0.159600,-1.272899
0.159700,-1.212202
0.159800,-1.183639
0.159900,-1.169357
0.160000,-1.155075
0.160100,-1.164488
0.160200,-1.070684
0.160300,-0.997328
0.160400,-0.977854
0.160500,-0.971362
0.160600,-0.923324
0.160700,-0.851591
0.160800,-0.818159
0.160900,-0.761033
0.161000,-0.701310
0.161100,-0.650999
0.161200,-0.642560
0.161300,-0.667229
0.161400,-0.675019
0.161500,-0.663983
0.161600,-0.728575
0.161700,-0.708126
0.161800,-0.749672
0.161900,-0.705854
0.162000,-0.744804
0.162100,-0.789921
0.162200,-0.784078
0.162300,-0.903524
0.162400,-0.846722
0.162500,-0.895085
0.162600,-0.693195
0.162700,-0.644832
0.162800,-0.618217
0.162900,-0.908393
0.163000,-1.032059
0.163100,-0.981099
0.163200,-0.877233
0.163300,-0.780508
0.163400,-0.779209
0.163500,-0.875610
0.163600,-0.997328
0.163700,-1.017777
0.163800,-0.947018
0.163900,-0.864574
0.164000,-0.851591
0.164100,-0.903200
0.164200,-0.949939
0.164300,-0.978503
0.164400,-1.001873
0.164500,-1.016803
0.164600,-1.028164
0.164700,-1.042770
0.164800,-1.058999
0.164900,-1.060622
0.165000,-1.109634
0.165100,-1.127810
0.165200,-1.207982
0.165300,-1.201815
0.165400,-1.209281
0.165500,-1.156698
0.165600,-1.153128
0.165700,-1.224861
0.165800,-1.382608
0.165900,-1.405977
0.166000,-1.364756
0.166100,-1.218369
0.166200,-1.220641
0.166300,-1.328402
0.166400,-1.479982
0.166500,-1.525099
0.166600,-1.491667
0.166700,-1.374493
0.166800,-1.361834
0.166900,-1.406302
0.167000,-1.520555
0.167100,-1.549768
0.167200,-1.549443
0.167300,-1.544899
0.167400,-1.525748
0.167500,-1.529968
0.167600,-1.548469
0.167700,-1.534512
0.167800,-1.517309
0.167900,-1.520555
0.168000,-1.549768
0.168100,-1.573462
0.168200,-1.537433
0.168300,-1.522503
0.168400,-1.510168
0.168500,-1.540030
0.168600,-1.612412
0.168700,-1.624422
0.168800,-1.621500
0.168900,-1.602999
0.169000,-1.635782
0.169100,-1.656555
0.169200,-1.608517
0.169300,-1.603973
0.169400,-1.599104
0.169500,-1.631238
0.169600,-1.648765
0.169700,-1.670512
0.169800,-1.702321
0.169900,-1.731534
0.170000,-1.770808
0.170100,-1.820469
0.170200,-1.857472
0.170300,-1.896097
0.170400,-1.958093
0.170500,-1.976594
0.170600,-2.084680
0.170700,-2.083382
0.170800,-2.188222
0.170900,-2.315134
0.171000,-2.508261
0.171100,-2.540395
0.171200,-2.409588
0.171300,-2.293387
0.171400,-2.213215
0.171500,-2.444318
0.171600,-2.615698
0.171700,-2.663412
0.171800,-2.568309
0.171900,-2.402771
0.172000,-2.342399
0.172100,-2.388490
0.172200,-2.472881
0.172300,-2.510858
0.172400,-2.433931
0.172500,-2.351163
0.172600,-2.278456
0.172700,-2.251516
0.172800,-2.214189
0.172900,-2.177186
0.173000,-2.133043
0.173100,-2.102207
0.173200,-2.072021
0.173300,-2.059038
0.173400,-2.036317
0.173500,-2.013921
0.173600,-1.964584
0.173700,-2.007105
0.173800,-2.024307
0.173900,-2.010675
0.174000,-1.912651
0.174100,-1.802617
0.174200,-1.779247
0.174300,-1.816899
0.174400,-1.919143
0.174500,-1.978866
0.174600,-1.899018
0.174700,-1.732508
0.174800,-1.677004
0.174900,-1.740298
0.175000,-1.877271
0.175100,-1.958742
0.175200,-1.917844
0.175300,-1.832479
0.175400,-1.737376
0.175500,-1.717901
0.175600,-1.722445
0.175700,-1.710760
0.175800,-1.704918
0.175900,-1.654608
0.176000,-1.595858
0.176100,-1.516660
0.176200,-1.447524
0.176300,-1.366054
0.176400,-1.277443
0.176500,-1.230378
0.176600,-1.210904
0.176700,-1.206035
0.176800,-1.174226
0.176900,-1.042121
0.177000,-1.003171
0.177100,-0.983371
0.177200,-0.948966
0.177300,-0.865224
0.177400,-0.797710
0.177500,-0.732470
0.177600,-0.674045
0.177700,-0.596145
0.177800,-0.560766
0.177900,-0.552002
0.178000,-0.569854
0.178100,-0.603286
0.178200,-0.605883
0.178300,-0.652622
0.178400,-0.663334
0.178500,-0.660088
0.178600,-0.687677
0.178700,-0.688002
0.178800,-0.737987
0.178900,-0.786026
0.179000,-0.820431
0.179100,-0.805500
0.179200,-0.761033
0.179300,-0.596470
0.179400,-0.545186
0.179500,-0.667878
0.179600,-0.894436
0.179700,-0.945720
0.179800,-0.884698
0.179900,-0.763954
0.180000,-0.682159
0.180100,-0.710398
0.180200,-0.850617
0.180300,-0.933061
0.180400,-0.877558
0.180500,-0.765252
0.180600,-0.692871
0.180700,-0.699687
0.180800,-0.759410
0.180900,-0.792193
0.181000,-0.799983
0.181100,-0.774016
0.181200,-0.771744
0.181300,-0.816212
0.181400,-0.826274
0.181500,-0.835687
0.181600,-0.865224
0.181700,-0.855162
0.181800,-0.968116
0.181900,-0.921376
0.182000,-1.025243
0.182100,-0.988889
0.182200,-0.954159
0.182300,-0.970064
0.182400,-1.137548
0.182500,-1.255696
0.182600,-1.243362
0.182700,-1.163839
0.182800,-1.051209
0.182900,-1.100870
0.183000,-1.236870
0.183100,-1.401758
0.183200,-1.402083
0.183300,-1.317367
0.183400,-1.201166
0.183500,-1.192727
0.183600,-1.280689
0.183700,-1.371896
0.183800,-1.401109
0.183900,-1.405004
0.184000,-1.324507
0.184100,-1.366378
0.184200,-1.355992
0.184300,-1.384880
0.184400,-1.389099
0.184500,-1.383581
0.184600,-1.421557
0.184700,-1.471219
0.184800,-1.499782
0.184900,-1.515686
0.185000,-1.524775
0.185100,-1.540679
0.185200,-1.629939
0.185300,-1.728613
0.185400,-1.741596
0.185500,-1.745166
0.185600,-1.761071
0.185700,-1.826312
0.185800,-1.862016
0.185900,-1.801968
0.186000,-1.803267
0.186100,-1.793529
0.186200,-1.791906
0.186300,-1.800994
0.186400,-1.787687
0.186500,-1.746140
0.186600,-1.718550
0.186700,-1.694531
0.186800,-1.638054
0.186900,-1.610789
0.187000,-1.546522
0.187100,-1.551066
0.187200,-1.493939
0.187300,-1.491992
0.187400,-1.499133
0.187500,-1.476736
0.187600,-1.630264
0.187700,-1.743868
0.187800,-1.685443
0.187900,-1.517634
0.188000,-1.392994
0.188100,-1.392670
0.188200,-1.618904
0.188300,-1.787362
0.188400,-1.800670
0.188500,-1.691286
0.188600,-1.568269
0.188700,-1.573787
0.188800,-1.677004
0.188900,-1.774703
0.189000,-1.799372
0.189100,-1.776651
0.189200,-1.725691
0.189300,-1.681548
0.189400,-1.679601
0.189500,-1.691610
0.189600,-1.680574
0.189700,-1.659801
0.189800,-1.645844
0.189900,-1.650388
0.190000,-1.660775
0.190100,-1.672135
0.190200,-1.651686
0.190300,-1.654932
0.190400,-1.685118
0.190500,-1.695505
0.190600,-1.712059
0.190700,-1.630913
0.190800,-1.557233
0.190900,-1.583200
0.191000,-1.672460
0.191100,-1.786388
0.191200,-1.794178
0.191300,-1.688364
0.191400,-1.567295
0.191500,-1.530293
0.191600,-1.630913
0.191700,-1.769185
0.191800,-1.822742
0.191900,-1.766913
0.192000,-1.659476
0.192100,-1.613386
0.192200,-1.594560
0.192300,-1.612087
0.192400,-1.631562
0.192500,-1.617281
0.192600,-1.582226
0.192700,-1.530293
0.192800,-1.464727
0.192900,-1.405977
0.193000,-1.327753
0.193100,-1.280040
0.193200,-1.294646
0.193300,-1.301462
0.193400,-1.306655
0.193500,-1.253748
0.193600,-1.176498
0.193700,-1.165787
0.193800,-1.170655
0.193900,-1.155725
0.194000,-1.081071
0.194100,-1.061596
0.194200,-1.012259
0.194300,-0.965844
0.194400,-0.899954
0.194500,-0.912288
0.194600,-0.916183
0.194700,-0.914560
0.194800,-0.949615
0.194900,-0.991486
0.195000,-1.001223
0.195100,-0.984021
0.195200,-1.016154
0.195300,-1.013882
0.195400,-1.032059
0.195500,-0.990837
0.195600,-1.085290
0.195700,-1.013882
0.195800,-1.052183
0.195900,-0.926245
0.196000,-0.780832
0.196100,-0.735066
0.196200,-0.998302
0.196300,-1.122617
0.196400,-1.144689
0.196500,-1.020374
0.196600,-0.904498
0.196700,-0.824975
0.196800,-0.931438
0.196900,-1.069386
0.197000,-1.132355
0.197100,-1.068737
0.197200,-0.954808
0.197300,-0.913262
0.197400,-0.909367
0.197500,-0.984345
0.197600,-0.994732
0.197700,-1.014531
0.197800,-1.036278
0.197900,-1.046340
0.198000,-1.057376
0.198100,-1.100546
0.198200,-1.104441
0.198300,-1.152479
0.198400,-1.181691
0.198500,-1.243686
0.198600,-1.293672
0.198700,-1.328078
0.198800,-1.282312
0.198900,-1.307954
0.199000,-1.335543
0.199100,-1.548145
0.199200,-1.629615
0.199300,-1.615009
0.199400,-1.507572
0.199500,-1.411495
0.199600,-1.522827
0.199700,-1.623772
0.199800,-1.762369
0.199900,-1.695505
0.200000,-1.554636
0.200100,-1.439085
0.200200,-1.443304
0.200300,-1.528345
0.200400,-1.516985
0.200500,-1.465051
0.200600,-1.411495
0.200700,-1.310875
0.200800,-1.326130
0.200900,-1.255371
0.201000,-1.221615
0.201100,-1.180717
0.201200,-1.156049
0.201300,-1.175199
0.201400,-1.176173
0.201500,-1.145013
0.201600,-1.145662
0.201700,-1.122293
0.201800,-1.116126
0.201900,-1.214149
0.202000,-1.228106
0.202100,-1.221939
0.202200,-1.206359
0.202300,-1.214474
0.202400,-1.239467
0.202500,-1.193701
0.202600,-1.161892
0.202700,-1.147935
0.202800,-1.142417
0.202900,-1.128784
0.203000,-1.127810
0.203100,-1.136899
0.203200,-1.140794
0.203300,-1.164164
0.203400,-1.189481
0.203500,-1.203763
0.203600,-1.217720
0.203700,-1.244985
0.203800,-1.288154
0.203900,-1.310550
0.204000,-1.313472
0.204100,-1.351448
0.204200,-1.456288
0.204300,-1.633185
0.204400,-1.759123
0.204500,-1.665643
0.204600,-1.569567
0.204700,-1.479658
0.204800,-1.643572
0.204900,-1.882140
0.205000,-1.954522
0.205100,-1.959715
0.205200,-1.833777
0.205300,-1.765940
0.205400,-1.819171
0.205500,-1.887009
0.205600,-2.002236
0.205700,-1.985358
0.205800,-1.950627
0.205900,-1.899343
0.206000,-1.874350
0.206100,-1.877271
0.206200,-1.887009
0.206300,-1.872727
0.206400,-1.854551
0.206500,-1.829882
0.206600,-1.867534
0.206700,-1.934073
0.206800,-1.907458
0.206900,-1.890904
0.207000,-1.871429
0.207100,-1.920766
0.207200,-1.936995
0.207300,-1.931477
0.207400,-1.829558
0.207500,-1.748412
0.207600,-1.813004
0.207700,-1.926933
0.207800,-2.023009
0.207900,-2.000938
0.208000,-1.878245
0.208100,-1.771457
0.208200,-1.791582
0.208300,-1.909405
0.208400,-2.037940
0.208500,-2.056766
0.208600,-1.979515
0.208700,-1.910703
0.208800,-1.883763
0.208900,-1.902913
0.209000,-1.902589
0.209100,-1.897396
0.209200,-1.873701
0.209300,-1.846436
0.209400,-1.799047
0.209500,-1.751982
0.209600,-1.693882
0.209700,-1.618579
0.209800,-1.596507
0.209900,-1.608517
0.210000,-1.610140
0.210100,-1.613710
0.210200,-1.528670
0.210300,-1.488097
0.210400,-1.475763
0.210500,-1.477061
0.210600,-1.439409
0.210700,-1.406627
0.210800,-1.376765
0.210900,-1.341710
0.211000,-1.288479
0.211100,-1.247581
0.211200,-1.275820
0.211300,-1.283935
0.211400,-1.320612
0.211500,-1.324507
0.211600,-1.381958
0.211700,-1.387476
0.211800,-1.396240
0.211900,-1.425128
0.212000,-1.422207
0.212100,-1.488421
0.212200,-1.463104
0.212300,-1.543276
0.212400,-1.474464
0.212500,-1.446226
0.212600,-1.299190
0.212700,-1.168383
0.212800,-1.244660
0.212900,-1.447849
0.213000,-1.595858
0.213100,-1.527696
0.213200,-1.440059
0.213300,-1.281338
0.213400,-1.275495
0.213500,-1.394617
0.213600,-1.493290
0.213700,-1.516985
0.213800,-1.426751
0.213900,-1.328727
0.214000,-1.310875
0.214100,-1.355343
0.214200,-1.413443
0.214300,-1.449796
0.214400,-1.458560
0.214500,-1.457586
0.214600,-1.457586
0.214700,-1.462130
0.214800,-1.479009
0.214900,-1.493939
0.215000,-1.477386
0.215100,-1.608517
0.215200,-1.565997
0.215300,-1.656231
0.215400,-1.606894
0.215500,-1.587095
0.215600,-1.582550
0.215700,-1.629615
0.215800,-1.838321
0.215900,-1.838646
0.216000,-1.796450
0.216100,-1.620202
0.216200,-1.613386
0.216300,-1.670188
0.216400,-1.802942
0.216500,-1.814952
0.216600,-1.733481
0.216700,-1.565997
0.216800,-1.521204
0.216900,-1.542951
0.217000,-1.595534
0.217100,-1.593262
0.217200,-1.593586
0.217300,-1.557882
0.217400,-1.537758
0.217500,-1.545548
0.217600,-1.512116
0.217700,-1.495238
0.217800,-1.470894
0.217900,-1.474464
0.218000,-1.476087
0.218100,-1.471868
0.218200,-1.440383
0.218300,-1.419935
0.218400,-1.406627
0.218500,-1.443629
0.218600,-1.509844
0.218700,-1.528670
0.218800,-1.524450
0.218900,-1.514388
0.219000,-1.524450
0.219100,-1.530942
0.219200,-1.459534
0.219300,-1.458560
0.219400,-1.438760
0.219500,-1.445577
0.219600,-1.434216
0.219700,-1.435514
0.219800,-1.428049
0.219900,-1.430970
0.220000,-1.409872
0.220100,-1.402083
0.220200,-1.363782
0.220300,-1.392994
0.220400,-1.362483
0.220500,-1.376440
0.220600,-1.366703
0.220700,-1.367677
0.220800,-1.401758
0.220900,-1.491343
0.221000,-1.674732
0.221100,-1.684145
0.221200,-1.561128
0.221300,-1.381634
0.221400,-1.346903
0.221500,-1.497834
0.221600,-1.706541
0.221700,-1.748412
0.221800,-1.674407
0.221900,-1.554636
0.222000,-1.502054
0.222100,-1.563400
0.222200,-1.659152
0.222300,-1.730885
0.222400,-1.697453
0.222500,-1.657854
0.222600,-1.606894
0.222700,-1.644870
0.222800,-1.656555
0.222900,-1.701348
0.223000,-1.716928
0.223100,-1.734455
0.223200,-1.765615
0.223300,-1.806512
0.223400,-1.872078
0.223500,-1.882789
0.223600,-1.907133
0.223700,-1.924661
0.223800,-1.995744
0.223900,-1.981463
0.224000,-1.939267
0.224100,-1.851305
0.224200,-1.846436
0.224300,-1.904861
0.224400,-1.977568
0.224500,-2.033396
0.224600,-1.973673
0.224700,-1.834426
0.224800,-1.780870
0.224900,-1.822417
0.225000,-1.913300
0.225100,-1.972699
0.225200,-1.944135
0.225300,-1.873052
0.225400,-1.810407
0.225500,-1.780546
0.225600,-1.776651
0.225700,-1.743219
0.225800,-1.721472
0.225900,-1.672784
0.226000,-1.599429
0.226100,-1.500756
0.226200,-1.393319
0.226300,-1.301137
0.226400,-1.225834
0.226500,-1.205061
0.226600,-1.199543
0.226700,-1.182989
0.226800,-1.158970
0.226900,-1.038875
0.227000,-1.021348
0.227100,-1.019725
0.227200,-1.000899
0.227300,-0.929491
0.227400,-0.899629
0.227500,-0.874636
0.227600,-0.831142
0.227700,-0.764603
0.227800,-0.760384
0.227900,-0.748049
0.228000,-0.763954
0.228100,-0.759085
0.228200,-0.770446
0.228300,-0.795763
0.228400,-0.784727
0.228500,-0.778885
0.228600,-0.778885
0.228700,-0.793166
0.228800,-0.788298
0.228900,-0.841854
0.229000,-0.850293
0.229100,-0.867496
0.229200,-0.775964
0.229300,-0.676317
0.229400,-0.513377
0.229500,-0.704555
0.229600,-0.888269
0.229700,-0.905472
0.229800,-0.841204
0.229900,-0.735066
0.230000,-0.643859
0.230100,-0.677940
0.230200,-0.792842
0.230300,-0.883725
0.230400,-0.822054
0.230500,-0.737663
0.230600,-0.653596
0.230700,-0.667229
0.230800,-0.717539
0.230900,-0.743181
0.231000,-0.735066
0.231100,-0.727601
0.231200,-0.740584
0.231300,-0.779858
0.231400,-0.798360
0.231500,-0.795114
0.231600,-0.815238
0.231700,-0.890866
0.231800,-1.015180
0.231900,-0.997328
0.232000,-1.066464
0.232100,-1.003496
0.232200,-0.989538
0.232300,-1.007066
0.232400,-1.145662
0.232500,-1.308278
0.232600,-1.301462
0.232700,-1.238818
0.232800,-1.094703
0.232900,-1.154751
0.233000,-1.263161
0.233100,-1.407925
0.233200,-1.386827
0.233300,-1.315094
0.233400,-1.200841
0.233500,-1.211877
0.233600,-1.302111
0.233700,-1.374168
0.233800,-1.368001
0.233900,-1.378388
0.234000,-1.350149
0.234100,-1.372221
0.234200,-1.387801
0.234300,-1.379686
0.234400,-1.364756
0.234500,-1.354693
0.234600,-1.381634
0.234700,-1.401109
0.234800,-1.425777
0.234900,-1.399486
0.235000,-1.399161
0.235100,-1.345605
0.235200,-1.420584
0.235300,-1.483877
0.235400,-1.473166
0.235500,-1.456612
0.235600,-1.459209
0.235700,-1.496211
0.235800,-1.490694
0.235900,-1.409872
0.236000,-1.417013
0.236100,-1.383581
0.236200,-1.371247
0.236300,-1.380011
0.236400,-1.373195
0.236500,-1.357615
0.236600,-1.378063
0.236700,-1.360536
0.236800,-1.375791
0.236900,-1.341386
0.237000,-1.351448
0.237100,-1.360211
0.237200,-1.359887
0.237300,-1.387152
0.237400,-1.417662
0.237500,-1.468946
0.237600,-1.630589
0.237700,-1.775677
0.237800,-1.769185
0.237900,-1.605920
0.238000,-1.525748
0.238100,-1.586121
0.238200,-1.795801
0.238300,-1.985358
0.238400,-1.986980
0.238500,-1.925310
0.238600,-1.805214
0.238700,-1.801644
0.238800,-1.936670
0.238900,-2.027229
0.239000,-2.078837
0.239100,-2.022035
0.239200,-1.992498
0.239300,-1.982112
0.239400,-1.995744
0.239500,-2.027553
0.239600,-2.023658
0.239700,-2.001587
0.239800,-2.001262
0.239900,-2.028202
0.240000,-2.081434
0.240100,-2.100909
0.240200,-2.070723
0.240300,-2.055143
0.240400,-2.084680
0.240500,-2.090522
0.240600,-2.062933
0.240700,-1.977568
0.240800,-1.875973
0.240900,-1.897720
0.241000,-1.991525
0.241100,-2.098637
0.241200,-2.090847
0.241300,-1.978866
0.241400,-1.839295
0.241500,-1.810732
0.241600,-1.898045
0.241700,-2.023009
0.241800,-2.096689
0.241900,-1.997692
0.242000,-1.912326
0.242100,-1.855849
0.242200,-1.852279
0.242300,-1.882789
0.242400,-1.876947
0.242500,-1.850980
0.242600,-1.795152
0.242700,-1.754255
0.242800,-1.703295
0.242900,-1.646493
0.243000,-1.581577
0.243100,-1.523152
0.243200,-1.506598
0.243300,-1.509519
0.243400,-1.520231
0.243500,-1.486799
0.243600,-1.386503
0.243700,-1.382608
0.243800,-1.406302
0.243900,-1.410846
0.244000,-1.337491
0.244100,-1.329701
0.244200,-1.277443
0.244300,-1.246932
0.244400,-1.164488
0.244500,-1.205710
0.244600,-1.224211
0.244700,-1.273548
0.244800,-1.261214
0.244900,-1.313147
0.245000,-1.298865
0.245100,-1.323534
0.245200,-1.322560
0.245300,-1.358264
0.245400,-1.392994
0.245500,-1.367028
0.245600,-1.430970
0.245700,-1.388125
0.245800,-1.413443
0.245900,-1.299190
0.246000,-1.158970
0.246100,-1.142417
0.246200,-1.366378
0.246300,-1.527696
0.246400,-1.519581
0.246500,-1.444927
0.246600,-1.279715
0.246700,-1.223887
0.246800,-1.319314
0.246900,-1.433567
0.247000,-1.491667
0.247100,-1.418636
0.247200,-1.320937
0.247300,-1.254398
0.247400,-1.284259
0.247500,-1.337166
0.247600,-1.355018
0.247700,-1.370923
0.247800,-1.362483
0.247900,-1.331973
0.248000,-1.340412
0.248100,-1.350474
0.248200,-1.336517
0.248300,-1.360861
0.248400,-1.324832
0.248500,-1.386178
0.248600,-1.410522
0.248700,-1.430646
0.248800,-1.380335
0.248900,-1.354693
0.249000,-1.340087
0.249100,-1.516985
0.249200,-1.579954
0.249300,-1.548469
0.249400,-1.428049
0.249500,-1.296918
0.249600,-1.368001
0.249700,-1.454340
0.249800,-1.555935
0.249900,-1.484526
0.250000,-1.351123
0.250100,-1.215123
0.250200,-1.204736
0.250300,-1.298541
0.250400,-1.332946
0.250500,-1.284584
0.250600,-1.243037
0.250700,-1.192402
0.250800,-1.205710
0.250900,-1.175849
0.251000,-1.154751
0.251100,-1.131705
0.251200,-1.120020
0.251300,-1.139171
0.251400,-1.134951
0.251500,-1.133653
0.251600,-1.097624
0.251700,-1.086264
0.251800,-1.100221
0.251900,-1.187534
0.252000,-1.246932
0.252100,-1.266083
0.252200,-1.277443
0.252300,-1.311199
0.252400,-1.372870
0.252500,-1.365080
0.252600,-1.316068
0.252700,-1.312173
0.252800,-1.309901
0.252900,-1.328402
0.253000,-1.335868
0.253100,-1.335219
0.253200,-1.337815
0.253300,-1.365405
0.253400,-1.331973
0.253500,-1.362483
0.253600,-1.344631
0.253700,-1.367028
0.253800,-1.379686
0.253900,-1.371896
0.254000,-1.381958
0.254100,-1.395915
0.254200,-1.457586
0.254300,-1.615658
0.254400,-1.705567
0.254500,-1.603324
0.254600,-1.487448
0.254700,-1.391371
0.254800,-1.486474
0.254900,-1.668240
0.255000,-1.783467
0.255100,-1.724718
0.255200,-1.575734
0.255300,-1.506598
0.255400,-1.509195
0.255500,-1.630264
0.255600,-1.686092
0.255700,-1.701672
0.255800,-1.636756
0.255900,-1.590340
0.256000,-1.583849
0.256100,-1.585472
0.256200,-1.609815
0.256300,-1.622149
0.256400,-1.607543
0.256500,-1.606894
0.256600,-1.640326
0.256700,-1.661099
0.256800,-1.627018
0.256900,-1.593911
0.257000,-1.600727
0.257100,-1.592612
0.257200,-1.576059
0.257300,-1.537433
0.257400,-1.423505
0.257500,-1.348202
0.257600,-1.377414
0.257700,-1.465051
0.257800,-1.562751
0.257900,-1.524450
0.258000,-1.402732
0.258100,-1.298216
0.258200,-1.326779
0.258300,-1.455314
0.258400,-1.577682
0.258500,-1.613061
0.258600,-1.542302
0.258700,-1.464402
0.258800,-1.457262
0.258900,-1.459858
0.259000,-1.511791
0.259100,-1.537758
0.259200,-1.531591
0.259300,-1.518283
0.259400,-1.458884
0.259500,-1.436488
0.259600,-1.408574
0.259700,-1.378388
0.259800,-1.374168
0.259900,-1.416040
0.260000,-1.467324
0.260100,-1.499457
0.260200,-1.437462
0.260300,-1.416040
0.260400,-1.444278
0.260500,-1.453367
0.260600,-1.425128
0.260700,-1.380011
0.260800,-1.374168
0.260900,-1.330025
0.261000,-1.285882
0.261100,-1.233949
0.261200,-1.213825
0.261300,-1.229080
0.261400,-1.200192
0.261500,-1.213176
0.261600,-1.232651
0.261700,-1.192402
0.261800,-1.188507
0.261900,-1.168059
0.262000,-1.204412
0.262100,-1.223887
0.262200,-1.229080
0.262300,-1.248880
0.262400,-1.235896
0.262500,-1.235247
0.262600,-0.994732
0.262700,-0.943123
0.262800,-0.965195
0.262900,-1.212202
0.263000,-1.243037
0.263100,-1.223887
0.263200,-1.135925
0.263300,-1.010961
0.263400,-0.972011
0.263500,-1.079123
0.263600,-1.172927
0.263700,-1.181691
0.263800,-1.088211
0.263900,-0.993433
0.264000,-0.979152
0.264100,-1.033032
0.264200,-1.078474
0.264300,-1.110608
0.264400,-1.101844
0.264500,-1.097949
0.264600,-1.107037
0.264700,-1.126837
0.264800,-1.155725
0.264900,-1.127486
0.265000,-1.172927
0.265100,-1.205710
0.265200,-1.236870
0.265300,-1.241414
0.265400,-1.235896
0.265500,-1.175199
0.265600,-1.149882
0.265700,-1.233300
0.265800,-1.388775
0.265900,-1.422531
0.266000,-1.379037
0.266100,-1.226483
0.266200,-1.193376
0.266300,-1.316717
0.266400,-1.481281
0.266500,-1.547820
0.266600,-1.486799
0.266700,-1.374168
0.266800,-1.322884
0.266900,-1.369300
0.267000,-1.503677
0.267100,-1.529319
0.267200,-1.563400
0.267300,-1.547495
0.267400,-1.545873
0.267500,-1.574111
0.267600,-1.554961
0.267700,-1.569567
0.267800,-1.569567
0.267900,-1.588068
0.268000,-1.634808
0.268100,-1.654283
0.268200,-1.630913
0.268300,-1.641949
0.268400,-1.627018
0.268500,-1.664021
0.268600,-1.741271
0.268700,-1.765290
0.268800,-1.769510
0.268900,-1.763018
0.269000,-1.810407
0.269100,-1.827286
0.269200,-1.770159
0.269300,-1.779247
0.269400,-1.767238
0.269500,-1.795152
0.269600,-1.788660
0.269700,-1.804565
0.269800,-1.817873
0.269900,-1.830856
0.270000,-1.849357
0.270100,-1.874350
0.270200,-1.864937
0.270300,-1.911677
0.270400,-1.912976
0.270500,-1.961988
0.270600,-1.980489
0.270700,-2.005157
0.270800,-2.025930
0.270900,-2.147324
0.271000,-2.362848
0.271100,-2.387841
0.271200,-2.302151
0.271300,-2.141157
0.271400,-2.112919
0.271500,-2.276833
0.271600,-2.439449
0.271700,-2.513779
0.271800,-2.413483
0.271900,-2.257683
0.272000,-2.219057
0.272100,-2.278781
0.272200,-2.365120
0.272300,-2.378752
0.272400,-2.330714
0.272500,-2.235286
0.272600,-2.173940
0.272700,-2.155439
0.272800,-2.152193
0.272900,-2.143429
0.273000,-2.083706
0.273100,-2.071047
0.273200,-2.039238
0.273300,-2.082083
0.273400,-2.080136
0.273500,-2.061635
0.273600,-2.020412
0.273700,-1.988603
0.273800,-1.957119
0.273900,-1.952250
0.274000,-1.861367
0.274100,-1.755877
0.274200,-1.698751
0.274300,-1.751333
0.274400,-1.852603
0.274500,-1.916871
0.274600,-1.781520
0.274700,-1.605596
0.274800,-1.504975
0.274900,-1.536784
0.275000,-1.646169
0.275100,-1.711734
0.275200,-1.663696
0.275300,-1.537109
0.275400,-1.419935
0.275500,-1.374818
0.275600,-1.347877
0.275700,-1.338464
0.275800,-1.303734
0.275900,-1.256020
0.276000,-1.210904
0.276100,-1.127161
0.276200,-1.028488
0.276300,-0.943123
0.276400,-0.852565
0.276500,-0.801605
0.276600,-0.790245
0.276700,-0.779209
0.276800,-0.733768
0.276900,-0.599066
0.277000,-0.535448
0.277100,-0.501367
0.277200,-0.468909
0.277300,-0.366341
0.277400,-0.319926
0.277500,-0.270590
0.277600,-0.203077
0.277700,-0.116413
0.277800,-0.102781
0.277900,-0.111220
0.278000,-0.117387
0.278100,-0.147573
0.278200,-0.137511
0.278300,-0.197559
0.278400,-0.180031
0.278500,-0.189444
0.278600,-0.236508
0.278700,-0.234561
0.278800,-0.298179
0.278900,-0.321549
0.279000,-0.389062
0.279100,-0.369912
0.279200,-0.344919
0.279300,-0.248193
0.279400,-0.145301
0.279500,-0.382570
0.279600,-0.530255
0.279700,-0.679563
0.279800,-0.587057
0.279900,-0.526035
0.280000,-0.457224
0.280100,-0.497148
0.280200,-0.633797
0.280300,-0.745128
0.280400,-0.742532
0.280500,-0.681186
0.280600,-0.643209
0.280700,-0.655544
0.280800,-0.732794
0.280900,-0.808746
0.281000,-0.864899
0.281100,-0.893787
0.281200,-0.900603
0.281300,-0.930465
0.281400,-0.975581
0.281500,-1.014207
0.281600,-1.046016
0.281700,-1.097300
0.281800,-1.162541
0.281900,-1.214149
0.282000,-1.268030
0.282100,-1.250827
0.282200,-1.198569
0.282300,-1.229080
0.282400,-1.386503
0.282500,-1.541328
0.282600,-1.515362
0.282700,-1.417662
0.282800,-1.258293
0.282900,-1.284908
0.283000,-1.387476
0.283100,-1.519906
0.283200,-1.505624
0.283300,-1.414741
0.283400,-1.281013
0.283500,-1.265433
0.283600,-1.321911
0.283700,-1.367677
0.283800,-1.348851
0.283900,-1.360211
0.284000,-1.321261
0.284100,-1.310875
0.284200,-1.278741
0.284300,-1.266083
0.284400,-1.252125
0.284500,-1.244660
0.284600,-1.273872
0.284700,-1.293347
0.284800,-1.308927
0.284900,-1.303734
0.285000,-1.286531
0.285100,-1.288803
0.285200,-1.353720
0.285300,-1.442006
0.285400,-1.470569
0.285500,-1.466999
0.285600,-1.460832
0.285700,-1.519257
0.285800,-1.532240
0.285900,-1.470894
0.286000,-1.465376
0.286100,-1.451744
0.286200,-1.458884
0.286300,-1.473491
0.286400,-1.471543
0.286500,-1.482254
0.286600,-1.479982
0.286700,-1.494264
0.286800,-1.518932
0.286900,-1.529643
0.287000,-1.576059
0.287100,-1.587095
0.287200,-1.618904
0.287300,-1.663371
0.287400,-1.713033
0.287500,-1.773080
0.287600,-1.941863
0.287700,-2.118112
0.287800,-2.120384
0.287900,-1.999639
0.288000,-1.876947
0.288100,-1.917195
0.288200,-2.112594
0.288300,-2.300528
0.288400,-2.311239
0.288500,-2.215811
0.288600,-2.116164
0.288700,-2.088575
0.288800,-2.162255
0.288900,-2.235286
0.289000,-2.261253
0.289100,-2.225549
0.289200,-2.147974
0.289300,-2.113243
0.289400,-2.081759
0.289500,-2.111945
0.289600,-2.086627
0.289700,-2.083382
0.289800,-2.064880
0.289900,-2.088900
0.290000,-2.127849
0.290100,-2.107076
0.290200,-2.094742
0.290300,-2.122007
0.290400,-2.147974
0.290500,-2.210943
0.290600,-2.208346
0.290700,-2.125253
0.290800,-2.062284
0.290900,-2.107076
0.291000,-2.224900
0.291100,-2.373234
0.291200,-2.413483
0.291300,-2.295984
0.291400,-2.194389
0.291500,-2.162904
0.291600,-2.258332
0.291700,-2.373884
0.291800,-2.452108
0.291900,-2.404394
0.292000,-2.328766
0.292100,-2.270666
0.292200,-2.260279
0.292300,-2.279754
0.292400,-2.288843
0.292500,-2.274886
0.292600,-2.246971
0.292700,-2.159659
0.292800,-2.106427
0.292900,-2.031773
0.293000,-1.934723
0.293100,-1.857796
0.293200,-1.840594
0.293300,-1.834102
0.293400,-1.829558
0.293500,-1.765940
0.293600,-1.654608
0.293700,-1.599429
0.293800,-1.581901
0.293900,-1.555610
0.294000,-1.460832
0.294100,-1.406302
0.294200,-1.341386
0.294300,-1.260889
0.294400,-1.193376
0.294500,-1.179419
0.294600,-1.162541
0.294700,-1.168708
0.294800,-1.174550
0.294900,-1.162216
0.295000,-1.192727
0.295100,-1.140794
0.295200,-1.133653
0.295300,-1.126837
0.295400,-1.132679
0.295500,-1.153777
0.295600,-1.148259
0.295700,-1.176822
0.295800,-1.094054
0.295900,-1.052183
0.296000,-0.862302
0.296100,-0.835362
0.296200,-1.046990
0.296300,-1.204412
0.296400,-1.235247
0.296500,-1.109309
0.296600,-0.941825
0.296700,-0.856460
0.296800,-0.936956
0.296900,-1.062245
0.297000,-1.099572
0.297100,-1.022646
0.297200,-0.924622
0.297300,-0.882426
0.297400,-0.905472
0.297500,-0.962598
0.297600,-1.007066
0.297700,-0.990512
0.297800,-0.989214
0.297900,-1.000899
0.298000,-1.022646
0.298100,-1.031085
0.298200,-1.028488
0.298300,-1.021348
0.298400,-1.106063
0.298500,-1.095677
0.298600,-1.149882
0.298700,-1.156049
0.298800,-1.105739
0.298900,-1.111906
0.299000,-1.152803
0.299100,-1.358913
0.299200,-1.416364
0.299300,-1.376440
0.299400,-1.289128
0.299500,-1.155400
0.299600,-1.264460
0.299700,-1.376765
0.299800,-1.511467
0.299900,-1.492641
0.300000,-1.359562
0.300100,-1.299190
0.300200,-1.318340
0.300300,-1.434541
0.300400,-1.497510
0.300500,-1.498808
0.300600,-1.497510
0.300700,-1.469596
0.300800,-1.516660
0.300900,-1.499782
0.301000,-1.500106
0.301100,-1.465376
0.301200,-1.461806
0.301300,-1.486799
0.301400,-1.516660
0.301500,-1.523152
0.301600,-1.512441
0.301700,-1.480956
0.301800,-1.464402
0.301900,-1.554636
0.302000,-1.579954
0.302100,-1.564049
0.302200,-1.554636
0.302300,-1.552689
0.302400,-1.592937
0.302500,-1.543925
0.302600,-1.490694
0.302700,-1.455963
0.302800,-1.451094
0.302900,-1.437137
0.303000,-1.419610
0.303100,-1.372221
0.303200,-1.347553
0.303300,-1.331324
0.303400,-1.342359
0.303500,-1.341061
0.303600,-1.349500
0.303700,-1.350474
0.303800,-1.351448
0.303900,-1.362159
0.304000,-1.394293
0.304100,-1.377739
0.304200,-1.466674
0.304300,-1.605596
0.304400,-1.704593
0.304500,-1.655581
0.304600,-1.475438
0.304700,-1.419285
0.304800,-1.450445
0.304900,-1.676355
0.305000,-1.794503
0.305100,-1.711410
0.305200,-1.602999
0.305300,-1.460832
0.305400,-1.502054
0.305500,-1.563400
0.305600,-1.652011
0.305700,-1.625720
0.305800,-1.569567
0.305900,-1.481281
0.306000,-1.492966
0.306100,-1.490044
0.306200,-1.516011
0.306300,-1.516011
0.306400,-1.511142
0.306500,-1.528994
0.306600,-1.552364
0.306700,-1.616632
0.306800,-1.624746
0.306900,-1.634484
0.307000,-1.648116
0.307100,-1.690636
0.307200,-1.717252
0.307300,-1.703944
0.307400,-1.614035
0.307500,-1.568593
0.307600,-1.648765
0.307700,-1.777300
0.307800,-1.931152
0.307900,-1.936670
0.308000,-1.834426
0.308100,-1.735753
0.308200,-1.742570
0.308300,-1.869481
0.308400,-2.009701
0.308500,-2.033396
0.308600,-1.971076
0.308700,-1.889606
0.308800,-1.838971
0.308900,-1.851954
0.309000,-1.889281
0.309100,-1.884088
0.309200,-1.845787
0.309300,-1.793854
0.309400,-1.737052
0.309500,-1.672784
0.309600,-1.618904
0.309700,-1.540030
0.309800,-1.507247
0.309900,-1.507896
0.310000,-1.490044
0.310100,-1.499457
0.310200,-1.409223
0.310300,-1.361510
0.310400,-1.358913
0.310500,-1.361185
0.310600,-1.317367
0.310700,-1.276469
0.310800,-1.245309
0.310900,-1.186884
0.311000,-1.113204
0.311100,-1.079772
0.311200,-1.069710
0.311300,-1.078474
0.311400,-1.100546
0.311500,-1.113853
0.311600,-1.153128
0.311700,-1.137223
0.311800,-1.122942
0.311900,-1.137873
0.312000,-1.131056
0.312100,-1.164813
0.312200,-1.182989
0.312300,-1.237844
0.312400,-1.254398
0.312500,-1.181367
0.312600,-1.097300
0.312700,-0.872364
0.312800,-0.992460
0.312900,-1.153452
0.313000,-1.314445
0.313100,-1.310226
0.313200,-1.259915
0.313300,-1.155075
0.313400,-1.152154
0.313500,-1.311524
0.313600,-1.440059
0.313700,-1.492316
0.313800,-1.451744
0.313900,-1.385529
0.314000,-1.374818
0.314100,-1.443954
0.314200,-1.502054
0.314300,-1.498808
0.314400,-1.501729
0.314500,-1.478684
0.314600,-1.473166
0.314700,-1.475438
0.314800,-1.488097
0.314900,-1.492316
0.315000,-1.542627
0.315100,-1.600402
0.315200,-1.576383
0.315300,-1.597481
0.315400,-1.582226
0.315500,-1.574760
0.315600,-1.515362
0.315700,-1.670512
0.315800,-1.763343
0.315900,-1.765290
0.316000,-1.675706
0.316100,-1.507247
0.316200,-1.465376
0.316300,-1.493939
0.316400,-1.607219
0.316500,-1.614684
0.316600,-1.504326
0.316700,-1.319963
0.316800,-1.199543
0.316900,-1.197596
0.317000,-1.224861
0.317100,-1.177796
0.317200,-1.131056
0.317300,-1.062245
0.317400,-0.989538
0.317500,-0.974932
0.317600,-0.929491
0.317700,-0.900603
0.317800,-0.885023
0.317900,-0.861653
0.318000,-0.891515
0.318100,-0.886971
0.318200,-0.887620
0.318300,-0.890216
0.318400,-0.893787
0.318500,-0.970713
0.318600,-1.084316
0.318700,-1.134627
0.318800,-1.151180
0.318900,-1.182989
0.319000,-1.277443
0.319100,-1.356641
0.319200,-1.330999
0.319300,-1.361185
0.319400,-1.406951
0.319500,-1.456288
0.319600,-1.481930
0.319700,-1.512765
0.319800,-1.535161
0.319900,-1.570865
0.320000,-1.617930
0.320100,-1.664345
0.320200,-1.675706
0.320300,-1.722445
0.320400,-1.732183
0.320500,-1.781520
0.320600,-1.784116
0.320700,-1.837348
0.320800,-1.839295
0.320900,-1.966532
0.321000,-2.146675
0.321100,-2.208346
0.321200,-2.105453
0.321300,-1.945434
0.321400,-1.936346
0.321500,-2.114866
0.321600,-2.280079
0.321700,-2.357979
0.321800,-2.278131
0.321900,-2.154141
0.322000,-2.093444
0.322100,-2.158036
0.322200,-2.243401
0.322300,-2.290141
0.322400,-2.216136
0.322500,-2.188871
0.322600,-2.116814
0.322700,-2.111620
0.322800,-2.074942
0.322900,-2.087926
0.323000,-2.069100
0.323100,-2.046379
0.323200,-2.050923
0.323300,-2.071047
0.323400,-2.056117
0.323500,-2.066179
0.323600,-2.026904
0.323700,-2.033720
0.323800,-2.029825
0.323900,-2.024307
0.324000,-1.942837
0.324100,-1.852279
0.324200,-1.800345
0.324300,-1.821768
0.324400,-1.910703
0.324500,-1.944460
0.324600,-1.815601
0.324700,-1.674083
0.324800,-1.565997
0.324900,-1.602350
0.325000,-1.718550
0.325100,-1.756202
0.325200,-1.726665
0.325300,-1.620851
0.325400,-1.550741
0.325500,-1.527371
0.325600,-1.520880
0.325700,-1.514063
0.325800,-1.460507
0.325900,-1.397863
0.326000,-1.339114
0.326100,-1.242063
0.326200,-1.172278
0.326300,-1.078799
0.326400,-0.994083
0.326500,-0.966169
0.326600,-0.960975
0.326700,-0.950913
0.326800,-0.935982
0.326900,-0.840231
0.327000,-0.822703
0.327100,-0.834713
0.327200,-0.856784
0.327300,-0.786999
0.327400,-0.762980
0.327500,-0.739286
0.327600,-0.683133
0.327700,-0.619190
0.327800,-0.622436
0.327900,-0.639964
0.328000,-0.660088
0.328100,-0.684431
0.328200,-0.711696
0.328300,-0.768174
0.328400,-0.767200
0.328500,-0.767200
0.328600,-0.791543
0.328700,-0.824651
0.328800,-0.848994
0.328900,-0.904173
0.329000,-0.964546
0.329100,-0.999276
0.329200,-0.921052
0.329300,-0.852240
0.329400,-0.789271
0.329500,-0.974608
0.329600,-1.151505
0.329700,-1.246608
0.329800,-1.152803
0.329900,-1.060947
0.330000,-0.973309
0.330100,-1.007715
0.330200,-1.161892
0.330300,-1.218693
0.330400,-1.201815
0.330500,-1.089185
0.330600,-1.002197
0.330700,-1.038875
0.330800,-1.091133
0.330900,-1.120345
0.331000,-1.108336
0.331100,-1.086913
0.331200,-1.089510
0.331300,-1.081071
0.331400,-1.090484
0.331500,-1.096326
0.331600,-1.064192
0.331700,-1.093080
0.331800,-1.120345
0.331900,-1.114178
0.332000,-1.174550
0.332100,-1.101844
0.332200,-1.081395
0.332300,-1.039524
0.332400,-1.182989
0.332500,-1.294321
0.332600,-1.270951
0.332700,-1.181042
0.332800,-1.035629
0.332900,-1.088861
0.333000,-1.197920
0.333100,-1.321261
0.333200,-1.308603
0.333300,-1.195973
0.333400,-1.058999
0.333500,-1.043744
0.333600,-1.126837
0.333700,-1.222913
0.333800,-1.191429
0.333900,-1.187858
0.334000,-1.172603
0.334100,-1.216097
0.334200,-1.227782
0.334300,-1.235247
0.334400,-1.240441
0.334500,-1.256345
0.334600,-1.271276
0.334700,-1.313472
0.334800,-1.325156
0.334900,-1.330674
0.335000,-1.310226
0.335100,-1.287830
0.335200,-1.340412
0.335300,-1.412145
0.335400,-1.415390
0.335500,-1.416364
0.335600,-1.373519
0.335700,-1.426426
0.335800,-1.413443
0.335900,-1.355018
0.336000,-1.345930
0.336100,-1.343658
0.336200,-1.343333
0.336300,-1.322560
0.336400,-1.320288
0.336500,-1.331324
0.336600,-1.308278
0.336700,-1.295295
0.336800,-1.268355
0.336900,-1.275495
0.337000,-1.260565
0.337100,-1.276794
0.337200,-1.258617
0.337300,-1.271600
0.337400,-1.265433
0.337500,-1.296593
0.337600,-1.453691
0.337700,-1.594235
0.337800,-1.595534
0.337900,-1.397863
0.338000,-1.332622
0.338100,-1.343333
0.338200,-1.576708
0.338300,-1.703295
0.338400,-1.743543
0.338500,-1.644221
0.338600,-1.562102
0.338700,-1.546522
0.338800,-1.652985
0.338900,-1.766589
0.339000,-1.816250
0.339100,-1.800994
0.339200,-1.756202
0.339300,-1.766264
0.339400,-1.768861
0.339500,-1.816899
0.339600,-1.789959
0.339700,-1.808135
0.339800,-1.775677
0.339900,-1.796775
0.340000,-1.834102
0.340100,-1.861367
0.340200,-1.810732
0.340300,-1.807162
0.340400,-1.772756
0.340500,-1.798398
0.340600,-1.766589
0.340700,-1.680250
0.340800,-1.564698
0.340900,-1.537433
0.341000,-1.610464
0.341100,-1.694856
0.341200,-1.687715
0.341300,-1.537433
0.341400,-1.355667
0.341500,-1.297242
0.341600,-1.351448
0.341700,-1.441032
0.341800,-1.451744
0.341900,-1.338789
0.342000,-1.213176
0.342100,-1.095352
0.342200,-1.048937
0.342300,-1.038226
0.342400,-1.012908
0.342500,-0.967467
0.342600,-0.899954
0.342700,-0.824975
0.342800,-0.727601
0.342900,-0.624384
0.343000,-0.556546
0.343100,-0.486112
0.343200,-0.477348
0.343300,-0.476374
0.343400,-0.486436
0.343500,-0.428985
0.343600,-0.354332
0.343700,-0.351410
0.343800,-0.324146
0.343900,-0.309215
0.344000,-0.241053
0.344100,-0.214112
0.344200,-0.150819
0.344300,-0.083631
0.344400,-0.035268
0.344500,-0.015793
0.344600,-0.029101
0.344700,-0.062533
0.344800,-0.093043
0.344900,-0.131344
0.345000,-0.166723
0.345100,-0.204699
0.345200,-0.218657
0.345300,-0.287468
0.345400,-0.317329
0.345500,-0.403019
0.345600,-0.441969
0.345700,-0.539019
0.345800,-0.600365
0.345900,-0.522140
0.346000,-0.401071
0.346100,-0.415353
0.346200,-0.715591
0.346300,-0.859056
0.346400,-0.869768
0.346500,-0.873987
0.346600,-0.735066
0.346700,-0.721434
0.346800,-0.828870
0.346900,-0.991486
0.347000,-1.089185
0.347100,-1.043744
0.347200,-0.974283
0.347300,-0.950589
0.347400,-1.013882
0.347500,-1.096001
0.347600,-1.148584
0.347700,-1.188832
0.347800,-1.189806
0.347900,-1.192402
0.348000,-1.216421
0.348100,-1.227782
0.348200,-1.244335
0.348300,-1.248880
0.348400,-1.361834
0.348500,-1.389099
0.348600,-1.451094
0.348700,-1.468622
0.348800,-1.406627
0.348900,-1.406302
0.349000,-1.430970
0.349100,-1.639677
0.349200,-1.688040
0.349300,-1.663047
0.349400,-1.524775
0.349500,-1.433892
0.349600,-1.492316
0.349700,-1.624422
0.349800,-1.741271
0.349900,-1.699076
0.350000,-1.598779
0.350100,-1.499782
0.350200,-1.509844
0.350300,-1.590016
0.350400,-1.631562
0.350500,-1.618254
0.350600,-1.609491
0.350700,-1.589042
0.350800,-1.605271
0.350900,-1.574760
0.351000,-1.563400
0.351100,-1.542302
0.351200,-1.536460
0.351300,-1.553987
0.351400,-1.564049
0.351500,-1.561777
0.351600,-1.545873
0.351700,-1.529643
0.351800,-1.528994
0.351900,-1.603324
0.352000,-1.658178
0.352100,-1.632861
0.352200,-1.616632
0.352300,-1.615333
0.352400,-1.658827
0.352500,-1.621500
0.352600,-1.551715
0.352700,-1.556259
0.352800,-1.544250
0.352900,-1.551066
0.353000,-1.551715
0.353100,-1.548469
0.353200,-1.571515
0.353300,-1.585472
0.353400,-1.576383
0.353500,-1.584173
0.353600,-1.603973
0.353700,-1.625071
0.353800,-1.638379
0.353900,-1.656880
0.354000,-1.680899
0.354100,-1.700049
0.354200,-1.734455
0.354300,-1.936670
0.354400,-2.013596
0.354500,-1.939916
0.354600,-1.762045
0.354700,-1.716603
0.354800,-1.804240
0.354900,-2.015544
0.355000,-2.122332
0.355100,-2.072021
0.355200,-1.957768
0.355300,-1.839944
0.355400,-1.865262
0.355500,-1.966856
0.355600,-2.048327
0.355700,-2.070723
0.355800,-1.986980
0.355900,-1.927582
0.356000,-1.890255
0.356100,-1.913625
0.356200,-1.903887
0.356300,-1.890904
0.356400,-1.856498
0.356500,-1.863639
0.356600,-1.894799
0.356700,-1.947381
0.356800,-1.938618
0.356900,-1.930178
0.357000,-1.924985
0.357100,-1.974322
0.357200,-1.992498
0.357300,-1.956470
0.357400,-1.850331
0.357500,-1.761071
0.357600,-1.803916
0.357700,-1.906159
0.357800,-1.974322
0.357900,-1.929529
0.358000,-1.790283
0.358100,-1.659476
0.358200,-1.665968
0.358300,-1.755877
0.358400,-1.855200
0.358500,-1.881166
0.358600,-1.802617
0.358700,-1.717252
0.358800,-1.667266
0.358900,-1.650388
0.359000,-1.673758
0.359100,-1.695830
0.359200,-1.669214
0.359300,-1.662398
0.359400,-1.604947
0.359500,-1.573787
0.359600,-1.521853
0.359700,-1.482254
0.359800,-1.457586
0.359900,-1.476412
0.360000,-1.504975
0.360100,-1.542627
0.360200,-1.501080
0.360300,-1.462455
0.360400,-1.464078
0.360500,-1.494588
0.360600,-1.501080
0.360700,-1.479982
0.360800,-1.461481
0.360900,-1.448822
0.361000,-1.405653
0.361100,-1.389748
0.361200,-1.394617
0.361300,-1.412145
0.361400,-1.434865
0.361500,-1.411171
0.361600,-1.460832
0.361700,-1.387152
0.361800,-1.405653
0.361900,-1.367028
0.362000,-1.410197
0.362100,-1.417987
0.362200,-1.417013
0.362300,-1.445252
0.362400,-1.401109
0.362500,-1.375791
0.362600,-1.137873
0.362700,-1.072631
0.362800,-1.089834
0.362900,-1.293023
0.363000,-1.381309
0.363100,-1.334245
0.363200,-1.183639
0.363300,-1.035629
0.363400,-0.950264
0.363500,-1.011935
0.363600,-1.099247
0.363700,-1.105739
0.363800,-1.001873
0.363900,-0.859706
0.364000,-0.805825
0.364100,-0.837309
0.364200,-0.863601
0.364300,-0.868145
0.364400,-0.851916
0.364500,-0.816536
0.364600,-0.801281
0.364700,-0.812966
0.364800,-0.823352
0.364900,-0.808422
0.365000,-0.824651
0.365100,-0.880479
0.365200,-0.929815
0.365300,-0.978178
0.365400,-0.970713
0.365500,-0.979476
0.365600,-0.956107
0.365700,-1.044393
0.365800,-1.228431
0.365900,-1.248880
0.366000,-1.224861
0.366100,-1.084316
0.366200,-1.073605
0.366300,-1.141443
0.366400,-1.263486
0.366500,-1.324507
0.366600,-1.252125
0.366700,-1.098598
0.366800,-1.006417
0.366900,-1.020049
0.367000,-1.080097
0.367100,-1.068737
0.367200,-1.052832
0.367300,-1.004794
0.367400,-0.966493
0.367500,-0.940851
0.367600,-0.902226
0.367700,-0.899305
0.367800,-0.889243
0.367900,-0.899954
0.368000,-0.931763
0.368100,-0.967467
0.368200,-0.971686
0.368300,-0.982073
0.368400,-0.968441
0.368500,-1.025567
0.368600,-1.109309
0.368700,-1.155075
0.368800,-1.160593
0.368900,-1.151180
0.369000,-1.182016
0.369100,-1.207333
0.369200,-1.149557
0.369300,-1.146312
0.369400,-1.128135
0.369500,-1.113853
0.369600,-1.092106
0.369700,-1.112231
0.369800,-1.128460
0.369900,-1.105414
0.370000,-1.116450
0.370100,-1.102818
0.370200,-1.104116
0.370300,-1.109634
0.370400,-1.092431
0.370500,-1.120994
0.370600,-1.103467
0.370700,-1.154102
0.370800,-1.185911
0.370900,-1.287505
0.371000,-1.477061
0.371100,-1.547495
0.371200,-1.469596
0.371300,-1.317367
0.371400,-1.274197
0.371500,-1.471219
0.371600,-1.684145
0.371700,-1.769185
0.371800,-1.713357
0.371900,-1.583524
0.372000,-1.559505
0.372100,-1.601376
0.372200,-1.730235
0.372300,-1.770484
0.372400,-1.772107
0.372500,-1.712059
0.372600,-1.716603
0.372700,-1.736403
0.372800,-1.760746
0.372900,-1.752307
0.373000,-1.730235
0.373100,-1.710111
0.373200,-1.693882
0.373300,-1.704593
0.373400,-1.733481
0.373500,-1.676030
0.373600,-1.658827
0.373700,-1.636431
0.373800,-1.658178
0.373900,-1.634159
0.374000,-1.578980
0.374100,-1.464727
0.374200,-1.443954
0.374300,-1.504651
0.374400,-1.621500
0.374500,-1.707190
0.374600,-1.654608
0.374700,-1.558856
0.374800,-1.525099
0.374900,-1.587744
0.375000,-1.714006
0.375100,-1.826312
0.375200,-1.833128
0.375300,-1.766913
0.375400,-1.719849
0.375500,-1.688689
0.375600,-1.676355
0.375700,-1.684794
0.375800,-1.653959
0.375900,-1.609491
0.376000,-1.561452
0.376100,-1.490044
0.376200,-1.413118
0.376300,-1.316717
0.376400,-1.227457
0.376500,-1.191429
0.376600,-1.197271
0.376700,-1.210904
0.376800,-1.162865
0.376900,-1.061271
0.377000,-1.014207
0.377100,-1.000250
0.377200,-0.997978
0.377300,-0.930789
0.377400,-0.892813
0.377500,-0.857109
0.377600,-0.835037
0.377700,-0.824326
0.377800,-0.805176
0.377900,-0.809720
0.378000,-0.819457
0.378100,-0.854837
0.378200,-0.879181
0.378300,-0.891839
0.378400,-0.883400
0.378500,-0.856135
0.378600,-0.892813
0.378700,-0.902550
0.378800,-0.978503
0.378900,-0.972336
0.379000,-1.061271
0.379100,-1.018102
0.379200,-0.959352
0.379300,-0.757462
0.379400,-0.706828
0.379500,-0.794789
0.379600,-1.012908
0.379700,-1.071333
0.379800,-0.987266
0.379900,-0.835687
0.380000,-0.703582
0.380100,-0.713319
0.380200,-0.794789
0.380300,-0.867820
0.380400,-0.805176
0.380500,-0.677940
0.380600,-0.582837
0.380700,-0.582837
0.380800,-0.596145
0.380900,-0.593548
0.381000,-0.574723
0.381100,-0.529606
0.381200,-0.496823
0.381300,-0.486112
0.381400,-0.449110
0.381500,-0.405616
0.381600,-0.355955
0.381700,-0.381597
0.381800,-0.324146
0.381900,-0.355305
0.382000,-0.327716
0.382100,-0.280002
0.382200,-0.223850
0.382300,-0.213139
0.382400,-0.313434
0.382500,-0.419248
0.382600,-0.405291
0.382700,-0.338752
0.382800,-0.198857
0.382900,-0.270914
0.383000,-0.389386
0.383100,-0.540966
0.383200,-0.566284
0.383300,-0.506561
0.383400,-0.446188
0.383500,-0.459172
0.383600,-0.570828
0.383700,-0.667878
0.383800,-0.688651
0.383900,-0.719811
0.384000,-0.728575
0.384100,-0.767524
0.384200,-0.804202
0.384300,-0.806150
0.384400,-0.831142
0.384500,-0.848670
0.384600,-0.899305
0.384700,-0.977854
0.384800,-1.032708
0.384900,-1.052183
0.385000,-1.055753
0.385100,-1.063219
0.385200,-1.157997
0.385300,-1.243037
0.385400,-1.268030
0.385500,-1.276794
0.385600,-1.301137
0.385700,-1.371896
0.385800,-1.390722
0.385900,-1.339763
0.386000,-1.338789
0.386100,-1.355343
0.386200,-1.359887
0.386300,-1.355667
0.386400,-1.346254
0.386500,-1.342359
0.386600,-1.345930
0.386700,-1.366054
0.386800,-1.360211
0.386900,-1.351448
0.387000,-1.359238
0.387100,-1.348202
0.387200,-1.382608
0.387300,-1.373519
0.387400,-1.402083
0.387500,-1.405328
0.387600,-1.572813
0.387700,-1.723419
0.387800,-1.735753
0.387900,-1.588393
0.388000,-1.456288
0.388100,-1.468622
0.388200,-1.673109
0.388300,-1.825338
0.388400,-1.839295
0.388500,-1.738025
0.388600,-1.614684
0.388700,-1.596507
0.388800,-1.673109
0.388900,-1.751333
0.389000,-1.746789
0.389100,-1.673433
0.389200,-1.594560
0.389300,-1.541004
0.389400,-1.554312
0.389500,-1.547820
0.389600,-1.556584
0.389700,-1.549768
0.389800,-1.543925
0.389900,-1.548145
0.390000,-1.586121
0.390100,-1.629939
0.390200,-1.615009
0.390300,-1.630264
0.390400,-1.662722
0.390500,-1.683820
0.390600,-1.691610
0.390700,-1.618254
0.390800,-1.527696
0.390900,-1.543276
0.391000,-1.622799
0.391100,-1.764641
0.391200,-1.769835
0.391300,-1.660775
0.391400,-1.542302
0.391500,-1.528994
0.391600,-1.624746
0.391700,-1.758799
0.391800,-1.808460
0.391900,-1.761720
0.392000,-1.683496
0.392100,-1.648765
0.392200,-1.655906
0.392300,-1.686741
0.392400,-1.690636
0.392500,-1.645844
0.392600,-1.626694
0.392700,-1.592612
0.392800,-1.545223
0.392900,-1.496861
0.393000,-1.424154
0.393100,-1.364431
0.393200,-1.363457
0.393300,-1.364431
0.393400,-1.375791
0.393500,-1.348851
0.393600,-1.265758
0.393700,-1.269653
0.393800,-1.275171
0.393900,-1.280364
0.394000,-1.227457
0.394100,-1.213500
0.394200,-1.164813
0.394300,-1.119371
0.394400,-1.089185
0.394500,-1.071982
0.394600,-1.081071
0.394700,-1.119696
0.394800,-1.134951
0.394900,-1.136899
0.395000,-1.166111
0.395100,-1.130732
0.395200,-1.171954
0.395300,-1.189481
0.395400,-1.159620
0.395500,-1.234923
0.395600,-1.207333
0.395700,-1.309252
0.395800,-1.220641
0.395900,-1.204412
0.396000,-0.995381
0.396100,-1.005768
0.396200,-1.214799
0.396300,-1.342035
0.396400,-1.385529
0.396500,-1.283935
0.396600,-1.172927
0.396700,-1.096975
0.396800,-1.163839
0.396900,-1.294646
0.397000,-1.351448
0.397100,-1.287180
0.397200,-1.187209
0.397300,-1.158970
0.397400,-1.181691
0.397500,-1.238818
0.397600,-1.249853
0.397700,-1.260565
0.397800,-1.249853
0.397900,-1.233949
0.398000,-1.222913
0.398100,-1.219343
0.398200,-1.223238
0.398300,-1.169357
0.398400,-1.244985
0.398500,-1.231677
0.398600,-1.260240
0.398700,-1.270302
0.398800,-1.229405
0.398900,-1.192727
0.399000,-1.207009
0.399100,-1.359562
0.399200,-1.429997
0.399300,-1.404679
0.399400,-1.298541
0.399500,-1.180068
0.399600,-1.249529
0.399700,-1.381309
0.399800,-1.472517
0.399900,-1.416689
0.400000,-1.274846
0.400100,-1.169682
0.400200,-1.187858
0.400300,-1.273872
0.400400,-1.297242
0.400500,-1.283610
0.400600,-1.239791
0.400700,-1.204087
0.400800,-1.198894
0.400900,-1.197271
0.401000,-1.189157
0.401100,-1.167734
0.401200,-1.164164
0.401300,-1.196622
0.401400,-1.222264
0.401500,-1.238168
0.401600,-1.220316
0.401700,-1.243362
0.401800,-1.218369
0.401900,-1.333920
0.402000,-1.405328
0.402100,-1.433242
0.402200,-1.456612
0.402300,-1.513414
0.402400,-1.573137
0.402500,-1.574111
0.402600,-1.549118
0.402700,-1.589691
0.402800,-1.579305
0.402900,-1.600402
0.403000,-1.634159
0.403100,-1.616632
0.403200,-1.638054
0.403300,-1.643896
0.403400,-1.663371
0.403500,-1.645195
0.403600,-1.661749
0.403700,-1.665968
0.403800,-1.668565
0.403900,-1.679601
0.404000,-1.671486
0.404100,-1.706216
0.404200,-1.743219
0.404300,-1.919467
0.404400,-1.997692
0.404500,-1.952250
0.404600,-1.766913
0.404700,-1.719524
0.404800,-1.799372
0.404900,-2.023009
0.405000,-2.132718
0.405100,-2.098962
0.405200,-2.002236
0.405300,-1.899668
0.405400,-1.970427
0.405500,-2.042484
0.405600,-2.141157
0.405700,-2.138561
0.405800,-2.089224
0.405900,-2.034370
0.406000,-1.999639
0.406100,-2.012298
0.406200,-2.019439
0.406300,-2.028202
0.406400,-1.998341
0.406500,-1.978866
0.406600,-1.987954
0.406700,-1.998665
0.406800,-2.011000
0.406900,-2.014570
0.407000,-2.025281
0.407100,-2.023658
0.407200,-2.043133
0.407300,-2.002236
0.407400,-1.898694
0.407500,-1.820469
0.407600,-1.854875
0.407700,-1.994446
0.407800,-2.089549
0.407900,-2.034694
0.408000,-1.912651
0.408100,-1.812679
0.408200,-1.832479
0.408300,-1.958417
0.408400,-2.079162
0.408500,-2.106427
0.408600,-2.029825
0.408700,-1.983735
0.408800,-1.952575
0.408900,-1.980813
0.409000,-2.026580
0.409100,-2.039563
0.409200,-2.039887
0.409300,-2.005482
0.409400,-1.968155
0.409500,-1.913949
0.409600,-1.855849
0.409700,-1.800670
0.409800,-1.782493
0.409900,-1.784441
0.410000,-1.759772
0.410100,-1.759448
0.410200,-1.683496
0.410300,-1.597806
0.410400,-1.583200
0.410500,-1.557233
0.410600,-1.507572
0.410700,-1.429672
0.410800,-1.372221
0.410900,-1.306331
0.411000,-1.230703
0.411100,-1.197596
0.411200,-1.183639
0.411300,-1.204412
0.411400,-1.207658
0.411500,-1.250503
0.411600,-1.285233
0.411700,-1.277443
0.411800,-1.289128
0.411900,-1.257968
0.412000,-1.321261
0.412100,-1.294321
0.412200,-1.391371
0.412300,-1.400784
0.412400,-1.448822
0.412500,-1.397214
0.412600,-1.257319
0.412700,-1.149233
0.412800,-1.133653
0.412900,-1.415390
0.413000,-1.515037
0.413100,-1.480307
0.413200,-1.405977
0.413300,-1.276469
0.413400,-1.292049
0.413500,-1.396240
0.413600,-1.524450
0.413700,-1.529643
0.413800,-1.456288
0.413900,-1.359887
0.414000,-1.340412
0.414100,-1.382932
0.414200,-1.451419
0.414300,-1.446226
0.414400,-1.436488
0.414500,-1.408899
0.414600,-1.400784
0.414700,-1.403381
0.414800,-1.414092
0.414900,-1.429347
0.415000,-1.421233
0.415100,-1.499457
0.415200,-1.538083
0.415300,-1.559505
0.415400,-1.539056
0.415500,-1.512765
0.415600,-1.498483
0.415700,-1.627992
0.415800,-1.764966
0.415900,-1.791257
0.416000,-1.707190
0.416100,-1.546197
0.416200,-1.481281
0.416300,-1.560154
0.416400,-1.683820
0.416500,-1.753930
0.416600,-1.673433
0.416700,-1.532889
0.416800,-1.442655
0.416900,-1.492966
0.417000,-1.559180
0.417100,-1.580278
0.417200,-1.567620
0.417300,-1.525424
0.417400,-1.495887
0.417500,-1.508870
0.417600,-1.479333
0.417700,-1.478035
0.417800,-1.459534
0.417900,-1.465376
0.418000,-1.483228
0.418100,-1.487448
0.418200,-1.482904
0.418300,-1.448822
0.418400,-1.437787
0.418500,-1.461806
0.418600,-1.543925
0.418700,-1.565023
0.418800,-1.549443
0.418900,-1.525099
0.419000,-1.562426
0.419100,-1.565023
0.419200,-1.506598
0.419300,-1.489395
0.419400,-1.500756
0.419500,-1.481281
0.419600,-1.476412
0.419700,-1.471868
0.419800,-1.480956
0.419900,-1.494264
0.420000,-1.503028
0.420100,-1.497185
0.420200,-1.526398
0.420300,-1.541328
0.420400,-1.538732
0.420500,-1.581252
0.420600,-1.605920
0.420700,-1.686741
0.420800,-1.705243
0.420900,-1.846761
0.421000,-2.032422
0.421100,-2.081434
0.421200,-1.979190
0.421300,-1.824040
0.421400,-1.819171
0.421500,-1.989577
0.421600,-2.187248
0.421700,-2.277158
0.421800,-2.201205
0.421900,-2.039238
0.422000,-2.014245
0.422100,-2.056441
0.422200,-2.173940
0.422300,-2.205425
0.422400,-2.218733
0.422500,-2.133367
0.422600,-2.083057
0.422700,-2.091821
0.422800,-2.144728
0.422900,-2.176862
0.423000,-2.174589
0.423100,-2.167449
0.423200,-2.181081
0.423300,-2.217759
0.423400,-2.273587
0.423500,-2.290790
0.423600,-2.277807
0.423700,-2.296957
0.423800,-2.315783
0.423900,-2.341750
0.424000,-2.277482
0.424100,-2.153816
0.424200,-2.157711
0.424300,-2.197635
0.424400,-2.332661
0.424500,-2.403096
0.424600,-2.300852
0.424700,-2.161606
0.424800,-2.082083
0.424900,-2.139534
0.425000,-2.252489
0.425100,-2.314809
0.425200,-2.297282
0.425300,-2.182704
0.425400,-2.079162
0.425500,-2.034694
0.425600,-2.019114
0.425700,-2.017816
0.425800,-1.969128
0.425900,-1.919467
0.426000,-1.836049
0.426100,-1.749710
0.426200,-1.667266
0.426300,-1.562426
0.426400,-1.476736
0.426500,-1.414417
0.426600,-1.392994
0.426700,-1.398188
0.426800,-1.368326
0.426900,-1.257968
0.427000,-1.206684
0.427100,-1.187858
0.427200,-1.196622
0.427300,-1.126188
0.427400,-1.125863
0.427500,-1.089834
0.427600,-1.050560
0.427700,-1.028488
0.427800,-1.019075
0.427900,-1.037577
0.428000,-1.077176
0.428100,-1.111581
0.428200,-1.148259
0.428300,-1.187858
0.428400,-1.198894
0.428500,-1.214474
0.428600,-1.241090
0.428700,-1.256020
0.428800,-1.318340
0.428900,-1.338789
0.429000,-1.375467
0.429100,-1.380660
0.429200,-1.305357
0.429300,-1.219018
0.429400,-1.129758
0.429500,-1.286531
0.429600,-1.535161
0.429700,-1.620527
0.429800,-1.553338
0.429900,-1.434216
0.430000,-1.341061
0.430100,-1.359238
0.430200,-1.529319
0.430300,-1.622474
0.430400,-1.604297
0.430500,-1.515686
0.430600,-1.442331
0.430700,-1.457911
0.430800,-1.490369
0.430900,-1.528670
0.431000,-1.530942
0.431100,-1.508546
0.431200,-1.484526
0.431300,-1.452393
0.431400,-1.457586
0.431500,-1.436488
0.431600,-1.418961
0.431700,-1.384230
0.431800,-1.418312
0.431900,-1.460183
0.432000,-1.419285
0.432100,-1.380335
0.432200,-1.325481
0.432300,-1.348202
0.432400,-1.423830
0.432500,-1.583524
0.432600,-1.561452
0.432700,-1.517958
0.432800,-1.364756
0.432900,-1.426426
0.433000,-1.539056
0.433100,-1.701997
0.433200,-1.704918
0.433300,-1.637405
0.433400,-1.525748
0.433500,-1.516011
0.433600,-1.581901
0.433700,-1.662398
0.433800,-1.668889
0.433900,-1.715629
0.434000,-1.694207
0.434100,-1.705567
0.434200,-1.689013
0.434300,-1.679276
0.434400,-1.705892
0.434500,-1.696479
0.434600,-1.705243
0.434700,-1.744517
0.434800,-1.777625
0.434900,-1.760422
0.435000,-1.739324
0.435100,-1.708488
0.435200,-1.778274
0.435300,-1.835725
0.435400,-1.846111
0.435500,-1.827935
0.435600,-1.831505
0.435700,-1.874999
0.435800,-1.855849
0.435900,-1.797424
0.436000,-1.795801
0.436100,-1.792555
0.436200,-1.789309
0.436300,-1.809434
0.436400,-1.819496
0.436500,-1.861691
0.436600,-1.871429
0.436700,-1.918493
0.436800,-1.924011
0.436900,-1.974971
0.437000,-1.968804
0.437100,-2.017491
0.437200,-2.034370
0.437300,-2.096689
0.437400,-2.126227
0.437500,-2.200232
0.437600,-2.337206
0.437700,-2.494953
0.437800,-2.463793
0.437900,-2.345969
0.438000,-2.245349
0.438100,-2.256709
0.438200,-2.476452
0.438300,-2.575774
0.438400,-2.581617
0.438500,-2.480672
0.438600,-2.325521
0.438700,-2.315783
0.438800,-2.365769
0.438900,-2.465741
0.439000,-2.478399
0.439100,-2.421273
0.439200,-2.372585
0.439300,-2.331363
0.439400,-2.341425
0.439500,-2.353110
0.439600,-2.342724
0.439700,-2.344346
0.439800,-2.345969
0.439900,-2.381024
0.440000,-2.394981
0.440100,-2.411860
0.440200,-2.415430
0.440300,-2.447564
0.440400,-2.467039
0.440500,-2.527087
0.440600,-2.529684
0.440700,-2.418027
0.440800,-2.295984
0.440900,-2.296308
0.441000,-2.388490
0.441100,-2.477101
0.441200,-2.468013
0.441300,-2.323573
0.441400,-2.190494
0.441500,-2.100909
0.441600,-2.174265
0.441700,-2.285921
0.441800,-2.327793
0.441900,-2.249244
0.442000,-2.140508
0.442100,-2.069425
0.442200,-2.048002
0.442300,-2.070074
0.442400,-2.072346
0.442500,-2.059687
0.442600,-2.022360
0.442700,-1.994446
0.442800,-1.931477
0.442900,-1.876298
0.443000,-1.800994
0.443100,-1.734455
0.443200,-1.746140
0.443300,-1.736727
0.443400,-1.746789
0.443500,-1.696479
0.443600,-1.562102
0.443700,-1.510818
0.443800,-1.488421
0.443900,-1.473491
0.444000,-1.374493
0.444100,-1.321911
0.444200,-1.252125
0.444300,-1.188507
0.444400,-1.136574
0.444500,-1.088211
0.444600,-1.070684
0.444700,-1.066140
0.444800,-1.079772
0.444900,-1.083018
0.445000,-1.103467
0.445100,-1.061271
0.445200,-1.108660
0.445300,-1.082694
0.445400,-1.201166
0.445500,-1.187858
0.445600,-1.268355
0.445700,-1.272250
0.445800,-1.299190
0.445900,-1.219667
0.446000,-1.105739
0.446100,-1.102818
0.446200,-1.333920
0.446300,-1.527696
0.446400,-1.569242
0.446500,-1.519257
0.446600,-1.396240
0.446700,-1.361510
0.446800,-1.454016
0.446900,-1.623772
0.447000,-1.722445
0.447100,-1.672784
0.447200,-1.570865
0.447300,-1.537758
0.447400,-1.586445
0.447500,-1.642923
0.447600,-1.669214
0.447700,-1.670512
0.447800,-1.651037
0.447900,-1.633510
0.448000,-1.632536
0.448100,-1.632211
0.448200,-1.661749
0.448300,-1.694207
0.448400,-1.685443
0.448500,-1.761720
0.448600,-1.729586
0.448700,-1.747438
0.448800,-1.677328
0.448900,-1.622799
0.449000,-1.662398
0.449100,-1.828909
0.449200,-1.956470
0.449300,-1.891878
0.449400,-1.789309
0.449500,-1.635457
0.449600,-1.733157
0.449700,-1.861367
0.449800,-1.978541
0.449900,-1.974322
0.450000,-1.847734
0.450100,-1.742894
0.450200,-1.763018
0.450300,-1.869157
0.450400,-1.914598
0.450500,-1.899668
0.450600,-1.886360
0.450700,-1.823391
0.450800,-1.831830
0.450900,-1.804240
0.451000,-1.782818
0.451100,-1.755877
0.451200,-1.716603
0.451300,-1.714655
0.451400,-1.731534
0.451500,-1.723744
0.451600,-1.693882
0.451700,-1.651037
0.451800,-1.629290
0.451900,-1.698751
0.452000,-1.712059
0.452100,-1.718550
0.452200,-1.699400
0.452300,-1.722121
0.452400,-1.777625
0.452500,-1.745815
0.452600,-1.692259
0.452700,-1.670512
0.452800,-1.680899
0.452900,-1.646493
0.453000,-1.654283
0.453100,-1.622799
0.453200,-1.637405
0.453300,-1.621176
0.453400,-1.650388
0.453500,-1.639677
0.453600,-1.645844
0.453700,-1.673433
0.453800,-1.683820
0.453900,-1.723419
0.454000,-1.729262
0.454100,-1.783142
0.454200,-1.851305
0.454300,-2.064556
0.454400,-2.165177
0.454500,-2.143105
0.454600,-1.964260
0.454700,-1.882789
0.454800,-1.989902
0.454900,-2.193091
0.455000,-2.347592
0.455100,-2.333960
0.455200,-2.221654
0.455300,-2.155764
0.455400,-2.158036
0.455500,-2.294361
0.455600,-2.388490
0.455700,-2.421922
0.455800,-2.389788
0.455900,-2.352786
0.456000,-2.362523
0.456100,-2.373234
0.456200,-2.409588
0.456300,-2.405368
0.456400,-2.408614
0.456500,-2.400824
0.456600,-2.424843
0.456700,-2.442695
0.456800,-2.457626
0.456900,-2.465091
0.457000,-2.461521
0.457100,-2.485540
0.457200,-2.501120
0.457300,-2.482294
0.457400,-2.377129
0.457500,-2.294036
0.457600,-2.331688
0.457700,-2.435230
0.457800,-2.546562
0.457900,-2.527736
0.458000,-2.375182
0.458100,-2.300528
0.458200,-2.310265
0.458300,-2.422571
0.458400,-2.544614
0.458500,-2.565388
0.458600,-2.490409
0.458700,-2.401473
0.458800,-2.368690
0.458900,-2.400499
0.459000,-2.426141
0.459100,-2.408939
0.459200,-2.382323
0.459300,-2.351812
0.459400,-2.327793
0.459500,-2.284299
0.459600,-2.220356
0.459700,-2.147324
0.459800,-2.108699
0.459900,-2.111296
0.460000,-2.121682
0.460100,-2.114542
0.460200,-2.054494
0.460300,-1.982112
0.460400,-1.970427
0.460500,-1.957443
0.460600,-1.929854
0.460700,-1.875324
0.460800,-1.839620
0.460900,-1.789959
0.461000,-1.704918
0.461100,-1.669538
0.461200,-1.630264
0.461300,-1.646493
0.461400,-1.648765
0.461500,-1.634484
0.461600,-1.665643
0.461700,-1.634159
0.461800,-1.661424
0.461900,-1.619228
0.462000,-1.680899
0.462100,-1.647791
0.462200,-1.714331
0.462300,-1.686092
0.462400,-1.730235
0.462500,-1.677004
0.462600,-1.476412
0.462700,-1.420908
0.462800,-1.386827
0.462900,-1.676679
0.463000,-1.675706
0.463100,-1.732183
0.463200,-1.602025
0.463300,-1.457911
0.463400,-1.439734
0.463500,-1.518283
0.463600,-1.603324
0.463700,-1.594560
0.463800,-1.520555
0.463900,-1.407925
0.464000,-1.366054
0.464100,-1.384230
0.464200,-1.406302
0.464300,-1.423830
0.464400,-1.403381
0.464500,-1.384555
0.464600,-1.371896
0.464700,-1.372221
0.464800,-1.356966
0.464900,-1.355343
0.465000,-1.408574
0.465100,-1.494588
0.465200,-1.439734
0.465300,-1.503352
0.465400,-1.478359
0.465500,-1.488746
0.465600,-1.462779
0.465700,-1.569242
0.465800,-1.739324
0.465900,-1.777625
0.466000,-1.726340
0.466100,-1.628641
0.466200,-1.564049
0.466300,-1.665643
0.466400,-1.791582
0.466500,-1.844813
0.466600,-1.758150
0.466700,-1.624746
0.466800,-1.564374
0.466900,-1.598779
0.467000,-1.664670
0.467100,-1.668889
0.467200,-1.640651
0.467300,-1.605920
0.467400,-1.569892
0.467500,-1.548794
0.467600,-1.505624
0.467700,-1.479658
0.467800,-1.453042
0.467900,-1.459534
0.468000,-1.472517
0.468100,-1.479982
0.468200,-1.450770
0.468300,-1.448173
0.468400,-1.451094
0.468500,-1.480631
0.468600,-1.574760
0.468700,-1.589042
0.468800,-1.595534
0.468900,-1.606569
0.469000,-1.661749
0.469100,-1.702646
0.469200,-1.671486
0.469300,-1.666293
0.469400,-1.673758
0.469500,-1.687715
0.469600,-1.685118
0.469700,-1.685443
0.469800,-1.716603
0.469900,-1.746789
0.470000,-1.770159
0.470100,-1.785090
0.470200,-1.786388
0.470300,-1.821443
0.470400,-1.843515
0.470500,-1.872403
0.470600,-1.899668
0.470700,-1.940890
0.470800,-1.962312
0.470900,-2.076565
0.471000,-2.245673
0.471100,-2.276184
0.471200,-2.209320
0.471300,-2.061310
0.471400,-2.082083
0.471500,-2.186924
0.471600,-2.432309
0.471700,-2.528385
0.471800,-2.471583
0.471900,-2.397254
0.472000,-2.319029
0.472100,-2.438476
0.472200,-2.535851
0.472300,-2.665360
0.472400,-2.686782
0.472500,-2.649455
0.472600,-2.645885
0.472700,-2.641665
0.472800,-2.666009
0.472900,-2.698792
0.473000,-2.712749
0.473100,-2.732873
0.473200,-2.730926
0.473300,-2.744558
0.473400,-2.781885
0.473500,-2.778639
0.473600,-2.790974
0.473700,-2.805255
0.473800,-2.822134
0.473900,-2.823432
0.474000,-2.730926
0.474100,-2.632901
0.474200,-2.573178
0.474300,-2.653350
0.474400,-2.809150
0.474500,-2.853294
0.474600,-2.771498
0.474700,-2.596872
0.474800,-2.532929
0.474900,-2.613751
0.475000,-2.772148
0.475100,-2.850048
0.475200,-2.825379
0.475300,-2.746830
0.475400,-2.711450
0.475500,-2.703011
0.475600,-2.730926
0.475700,-2.733847
0.475800,-2.692300
0.475900,-2.664061
0.476000,-2.625111
0.476100,-2.552404
0.476200,-2.472881
0.476300,-2.389464
0.476400,-2.315783
0.476500,-2.288518
0.476600,-2.258007
0.476700,-2.234962
0.476800,-2.217434
0.476900,-2.108050
0.477000,-2.031448
0.477100,-2.013921
0.477200,-1.987954
0.477300,-1.922388
0.477400,-1.866236
0.477500,-1.818522
0.477600,-1.744517
0.477700,-1.652011
0.477800,-1.620851
0.477900,-1.625395
0.478000,-1.619553
0.478100,-1.636431
0.478200,-1.638054
0.478300,-1.662722
0.478400,-1.633510
0.478500,-1.652011
0.478600,-1.656231
0.478700,-1.666942
0.478800,-1.681548
0.478900,-1.732508
0.479000,-1.753281
0.479100,-1.739324
0.479200,-1.640001
0.479300,-1.506923
0.479400,-1.402407
0.479500,-1.525099
0.479600,-1.725691
0.479700,-1.780546
0.479800,-1.736403
0.479900,-1.594560
0.480000,-1.464727
0.480100,-1.461806
0.480200,-1.557233
0.480300,-1.608517
0.480400,-1.579629
0.480500,-1.447524
0.480600,-1.357290
0.480700,-1.350798
0.480800,-1.384880
0.480900,-1.395591
0.481000,-1.392994
0.481100,-1.385529
0.481200,-1.367028
0.481300,-1.380985
0.481400,-1.408250
0.481500,-1.425128
0.481600,-1.453042
0.481700,-1.484202
0.481800,-1.537109
0.481900,-1.536784
0.482000,-1.586445
0.482100,-1.540679
0.482200,-1.541328
0.482300,-1.495562
0.482400,-1.639028
0.482500,-1.742245
0.482600,-1.764641
0.482700,-1.651037
0.482800,-1.532889
0.482900,-1.569242
0.483000,-1.649090
0.483100,-1.838646
0.483200,-1.817224
0.483300,-1.702646
0.483400,-1.579305
0.483500,-1.559180
0.483600,-1.672784
0.483700,-1.721472
0.483800,-1.687715
0.483900,-1.687391
0.484000,-1.658503
0.484100,-1.681548
0.484200,-1.697453
0.484300,-1.693558
0.484400,-1.687066
0.484500,-1.668240
0.484600,-1.691935
0.484700,-1.748412
0.484800,-1.769185
0.484900,-1.761720
0.485000,-1.737052
0.485100,-1.737376
0.485200,-1.808784
0.485300,-1.874026
0.485400,-1.905186
0.485500,-1.898369
0.485600,-1.931152
0.485700,-1.988928
0.485800,-2.000288
0.485900,-1.953224
0.486000,-1.984708
0.486100,-1.995420
0.486200,-1.999639
0.486300,-2.000613
0.486400,-2.026904
0.486500,-2.040861
0.486600,-2.039887
0.486700,-2.052222
0.486800,-2.076241
0.486900,-2.108374
0.487000,-2.110971
0.487100,-2.157062
0.487200,-2.180757
0.487300,-2.219057
0.487400,-2.259955
0.487500,-2.301501
0.487600,-2.465416
0.487700,-2.594276
0.487800,-2.615374
0.487900,-2.463793
0.488000,-2.377129
0.488100,-2.403745
0.488200,-2.599469
0.488300,-2.775069
0.488400,-2.792596
0.488500,-2.704310
0.488600,-2.595574
0.488700,-2.544614
0.488800,-2.609856
0.488900,-2.698143
0.489000,-2.716644
0.489100,-2.633226
0.489200,-2.550132
0.489300,-2.495927
0.489400,-2.461196
0.489500,-2.425168
0.489600,-2.406017
0.489700,-2.365444
0.489800,-2.327144
0.489900,-2.287544
0.490000,-2.303449
0.490100,-2.325196
0.490200,-2.288518
0.490300,-2.277482
0.490400,-2.255086
0.490500,-2.218084
0.490600,-2.224575
0.490700,-2.109348
0.490800,-2.030150
0.490900,-1.982436
0.491000,-2.072346
0.491100,-2.172317
0.491200,-2.189845
0.491300,-2.080136
0.491400,-1.944135
0.491500,-1.907782
0.491600,-2.032747
0.491700,-2.150246
0.491800,-2.203153
0.491900,-2.143105
0.492000,-2.056441
0.492100,-2.047677
0.492200,-2.039563
0.492300,-2.064880
0.492400,-2.072670
0.492500,-2.059687
0.492600,-2.048651
0.492700,-1.998665
0.492800,-1.949978
0.492900,-1.900966
0.493000,-1.813004
0.493100,-1.768212
0.493200,-1.761395
0.493300,-1.772107
0.493400,-1.778598
0.493500,-1.729586
0.493600,-1.640326
0.493700,-1.633185
0.493800,-1.631238
0.493900,-1.639028
0.494000,-1.563075
0.494100,-1.544899
0.494200,-1.495887
0.494300,-1.431619
0.494400,-1.410522
0.494500,-1.396889
0.494600,-1.442331
0.494700,-1.489395
0.494800,-1.489071
0.494900,-1.565347
0.495000,-1.571190
0.495100,-1.602025
0.495200,-1.607868
0.495300,-1.636106
0.495400,-1.680250
0.495500,-1.701672
0.495600,-1.809758
0.495700,-1.809434
0.495800,-1.817873
0.495900,-1.664345
0.496000,-1.574436
0.496100,-1.510818
0.496200,-1.716278
0.496300,-1.869806
0.496400,-1.944135
0.496500,-1.807162
0.496600,-1.668565
0.496700,-1.575734
0.496800,-1.645195
0.496900,-1.786388
0.497000,-1.843515
0.497100,-1.787037
0.497200,-1.668240
0.497300,-1.604947
0.497400,-1.644870
0.497500,-1.688040
0.497600,-1.731858
0.497700,-1.734780
0.497800,-1.733806
0.497900,-1.724718
0.498000,-1.720823
0.498100,-1.740298
0.498200,-1.758474
0.498300,-1.819171
0.498400,-1.880517
0.498500,-1.905835
0.498600,-1.912002
0.498700,-1.922713
0.498800,-1.891878
0.498900,-1.901291
0.499000,-1.918493
0.499100,-2.096365
0.499200,-2.196337
0.499300,-2.145377
0.499400,-2.057415
0.499500,-1.942513
0.499600,-2.027553
0.499700,-2.170694
0.499800,-2.279105
0.499900,-2.221005
0.500000,-2.088575
0.500100,-1.999639
0.500200,-2.022360
0.500300,-2.100584
0.500400,-2.138236
0.500500,-2.091496
0.500600,-2.109673
0.500700,-2.077864
0.500800,-2.117463
0.500900,-2.082083
0.501000,-2.076890
0.501100,-2.071697
0.501200,-2.063257
0.501300,-2.084031
0.501400,-2.118112
0.501500,-2.113243
0.501600,-2.082408
0.501700,-2.067152
0.501800,-2.067802
0.501900,-2.176537
0.502000,-2.213215
0.502100,-2.221654
0.502200,-2.213215
0.502300,-2.210943
0.502400,-2.257358
0.502500,-2.220031
0.502600,-2.158685
0.502700,-2.122007
0.502800,-2.082408
0.502900,-2.072021
0.503000,-2.042484
0.503100,-2.007429
0.503200,-1.988603
0.503300,-1.958093
0.503400,-1.928231
0.503500,-1.907782
0.503600,-1.903238
0.503700,-1.886360
0.503800,-1.871754
0.503900,-1.854551
0.504000,-1.866236
0.504100,-1.858121
0.504200,-1.933424
0.504300,-2.096040
0.504400,-2.218733
0.504500,-2.135315
0.504600,-1.981463
0.504700,-1.945109
0.504800,-1.990226
0.504900,-2.236585
0.505000,-2.352461
0.505100,-2.348891
0.505200,-2.236260
0.505300,-2.151869
0.505400,-2.187248
0.505500,-2.284299
0.505600,-2.408614
0.505700,-2.423869
0.505800,-2.382647
0.505900,-2.383946
0.506000,-2.371936
0.506100,-2.406991
0.506200,-2.401798
0.506300,-2.409588
0.506400,-2.407640
0.506500,-2.432309
0.506600,-2.429712
0.506700,-2.435879
0.506800,-2.408614
0.506900,-2.431659
0.507000,-2.384270
0.507100,-2.380375
0.507200,-2.353435
0.507300,-2.287544
0.507400,-2.159009
0.507500,-2.041186
0.507600,-2.040861
0.507700,-2.127200
0.507800,-2.185301
0.507900,-2.167449
0.508000,-1.989902
0.508100,-1.862016
0.508200,-1.837023
0.508300,-1.957768
0.508400,-2.061959
0.508500,-2.079162
0.508600,-1.990551
0.508700,-1.902913
0.508800,-1.875324
0.508900,-1.898369
0.509000,-1.927906
0.509100,-1.947706
0.509200,-1.936021
0.509300,-1.899992
0.509400,-1.864937
0.509500,-1.805539
0.509600,-1.737376
0.509700,-1.701023
0.509800,-1.648765
0.509900,-1.655906
0.510000,-1.652985
0.510100,-1.640975
0.510200,-1.554636
0.510300,-1.467973
0.510400,-1.457586
0.510500,-1.455639
0.510600,-1.419285
0.510700,-1.366703
0.510800,-1.337491
0.510900,-1.296269
0.511000,-1.239467
0.511100,-1.236870
0.511200,-1.227457
0.511300,-1.250178
0.511400,-1.298216
0.511500,-1.306331
0.511600,-1.382608
0.511700,-1.401109
0.511800,-1.437462
0.511900,-1.450121
0.512000,-1.492316
0.512100,-1.513739
0.512200,-1.557557
0.512300,-1.586121
0.512400,-1.654283
0.512500,-1.654608
0.512600,-1.578331
0.512700,-1.442006
0.512800,-1.530617
0.512900,-1.719524
0.513000,-1.854875
0.513100,-1.797099
0.513200,-1.785739
0.513300,-1.642923
0.513400,-1.654932
0.513500,-1.741920
0.513600,-1.880193
0.513700,-1.925959
0.513800,-1.860393
0.513900,-1.774054
0.514000,-1.763343
0.514100,-1.816250
0.514200,-1.897396
0.514300,-1.942513
0.514400,-1.967181
0.514500,-1.973023
0.514600,-1.969128
0.514700,-2.003210
0.514800,-2.005157
0.514900,-2.042160
0.515000,-2.069425
0.515100,-2.209969
0.515200,-2.199582
0.515300,-2.223601
0.515400,-2.258332
0.515500,-2.266771
0.515600,-2.250542
0.515700,-2.324222
0.515800,-2.484891
0.515900,-2.577073
0.516000,-2.516051
0.516100,-2.398227
0.516200,-2.346294
0.516300,-2.431984
0.516400,-2.600443
0.516500,-2.693598
0.516600,-2.623164
0.516700,-2.474180
0.516800,-2.405044
0.516900,-2.480672
0.517000,-2.556624
0.517100,-2.571555
0.517200,-2.576099
0.517300,-2.576748
0.517400,-2.556299
0.517500,-2.584863
0.517600,-2.567984
0.517700,-2.553378
0.517800,-2.536824
0.517900,-2.565388
0.518000,-2.568634
0.518100,-2.565712
0.518200,-2.532280
0.518300,-2.512156
0.518400,-2.465741
0.518500,-2.496252
0.518600,-2.553703
0.518700,-2.542667
0.518800,-2.502419
0.518900,-2.466065
0.519000,-2.478075
0.519100,-2.471908
0.519200,-2.395955
0.519300,-2.351487
0.519400,-2.327144
0.519500,-2.288518
0.519600,-2.273587
0.519700,-2.259630
0.519800,-2.247621
0.519900,-2.227821
0.520000,-2.213215
0.520100,-2.200232
0.520200,-2.201530
0.520300,-2.186599
0.520400,-2.213864
0.520500,-2.231391
0.520600,-2.259306
0.520700,-2.249568
0.520800,-2.269043
0.520900,-2.351487
0.521000,-2.540719
0.521100,-2.559545
0.521200,-2.493979
0.521300,-2.330065
0.521400,-2.275859
0.521500,-2.416404
0.521600,-2.577397
0.521700,-2.659842
0.521800,-2.614725
0.521900,-2.478075
0.522000,-2.424843
0.522100,-2.455029
0.522200,-2.576748
0.522300,-2.600443
0.522400,-2.621541
0.522500,-2.547536
0.522600,-2.540070
0.522700,-2.513779
0.522800,-2.510858
0.522900,-2.497225
0.523000,-2.524815
0.523100,-2.519622
0.523200,-2.534552
0.523300,-2.565063
0.523400,-2.570581
0.523500,-2.578696
0.523600,-2.630954
0.523700,-2.635173
0.523800,-2.631603
0.523900,-2.637445
0.524000,-2.585837
0.524100,-2.457301
0.524200,-2.427764
0.524300,-2.477101
0.524400,-2.580968
0.524500,-2.609531
0.524600,-2.517674
0.524700,-2.350514
0.524800,-2.245673
0.524900,-2.268719
0.525000,-2.374533
0.525100,-2.420948
0.525200,-2.349215
0.525300,-2.244375
0.525400,-2.182704
0.525500,-2.140184
0.525600,-2.147324
0.525700,-2.129148
0.525800,-2.093444
0.525900,-2.063257
0.526000,-2.043133
0.526100,-1.971076
0.526200,-1.904861
0.526300,-1.782818
0.526400,-1.715305
0.526500,-1.693233
0.526600,-1.662722
0.526700,-1.653959
0.526800,-1.605596
0.526900,-1.493939
0.527000,-1.447199
0.527100,-1.435514
0.527200,-1.426426
0.527300,-1.341061
0.527400,-1.295944
0.527500,-1.269653
0.527600,-1.236870
0.527700,-1.192402
0.527800,-1.144364
0.527900,-1.146312
0.528000,-1.175849
0.528100,-1.189481
0.528200,-1.233624
0.528300,-1.251801
0.528400,-1.241739
0.528500,-1.243686
0.528600,-1.241414
0.528700,-1.286531
0.528800,-1.269328
0.528900,-1.351772
0.529000,-1.358913
0.529100,-1.368651
0.529200,-1.326779
0.529300,-1.152803
0.529400,-1.130732
0.529500,-1.153128
0.529600,-1.461806
0.529700,-1.440383
0.529800,-1.472517
0.529900,-1.316393
0.530000,-1.227133
0.530100,-1.261214
0.530200,-1.370598
0.530300,-1.477710
0.530400,-1.442006
0.530500,-1.373519
0.530600,-1.295295
0.530700,-1.326130
0.530800,-1.354044
0.530900,-1.399486
0.531000,-1.434865
0.531100,-1.445252
0.531200,-1.470245
0.531300,-1.471868
0.531400,-1.510818
0.531500,-1.511467
0.531600,-1.573462
0.531700,-1.655906
0.531800,-1.664345
0.531900,-1.693233
0.532000,-1.692259
0.532100,-1.708813
0.532200,-1.677328
0.532300,-1.704593
0.532400,-1.841567
0.532500,-2.004183
0.532600,-1.986980
0.532700,-1.894150
0.532800,-1.761071
0.532900,-1.779897
0.533000,-1.912326
0.533100,-2.049950
0.533200,-2.030799
0.533300,-1.911353
0.533400,-1.793529
0.533500,-1.792880
0.533600,-1.867859
0.533700,-1.906484
0.533800,-1.835725
0.533900,-1.840594
0.534000,-1.802942
0.534100,-1.826637
0.534200,-1.817224
0.534300,-1.767562
0.534400,-1.749710
0.534500,-1.712708
0.534600,-1.748737
0.534700,-1.758474
0.534800,-1.767887
0.534900,-1.735429
0.535000,-1.724068
0.535100,-1.714980
0.535200,-1.780546
0.535300,-1.828584
0.535400,-1.847410
0.535500,-1.837997
0.535600,-1.839295
0.535700,-1.889930
0.535800,-1.894474
0.535900,-1.813329
0.536000,-1.808460
0.536100,-1.799696
0.536200,-1.792880
0.536300,-1.774703
0.536400,-1.776002
0.536500,-1.751333
0.536600,-1.739648
0.536700,-1.737052
0.536800,-1.711085
0.536900,-1.714006
0.537000,-1.720498
0.537100,-1.733806
0.537200,-1.750684
0.537300,-1.748737
0.537400,-1.792231
0.537500,-1.792880
0.537600,-1.961988
0.537700,-2.109673
0.537800,-2.104479
0.537900,-1.944460
0.538000,-1.817224
0.538100,-1.816899
0.538200,-2.016842
0.538300,-2.144403
0.538400,-2.171019
0.538500,-2.066179
0.538600,-1.957768
0.538700,-1.933749
0.538800,-2.023658
0.538900,-2.099611
0.539000,-2.152518
0.539100,-2.122656
0.539200,-2.062933
0.539300,-2.088900
0.539400,-2.113568
0.539500,-2.133692
0.539600,-2.145702
0.539700,-2.128823
0.539800,-2.146351
0.539900,-2.170045
0.540000,-2.192442
0.540100,-2.245024
0.540200,-2.224900
0.540300,-2.238532
0.540400,-2.247296
0.540500,-2.281053
0.540600,-2.282351
0.540700,-2.190169
0.540800,-2.086303
0.540900,-2.049950
0.541000,-2.163229
0.541100,-2.264499
0.541200,-2.296957
0.541300,-2.159983
0.541400,-2.038265
0.541500,-2.021062
0.541600,-2.137262
0.541700,-2.243726
0.541800,-2.273263
0.541900,-2.217434
0.542000,-2.132069
0.542100,-2.094417
0.542200,-2.101234
0.542300,-2.131420
0.542400,-2.125902
0.542500,-2.120709
0.542600,-2.107076
0.542700,-2.068126
0.542800,-2.022685
0.542900,-1.972050
0.543000,-1.908107
0.543100,-1.882140
0.543200,-1.882789
0.543300,-1.912002
0.543400,-1.941214
0.543500,-1.931801
0.543600,-1.843839
0.543700,-1.850980
0.543800,-1.865911
0.543900,-1.890579
0.544000,-1.837023
0.544100,-1.825663
0.544200,-1.769185
0.544300,-1.750360
0.544400,-1.712708
0.544500,-1.737701
0.544600,-1.746140
0.544700,-1.813329
0.544800,-1.833453
0.544900,-1.852279
0.545000,-1.876298
0.545100,-1.873376
0.545200,-1.916221
0.545300,-1.873701
0.545400,-1.944785
0.545500,-1.930178
0.545600,-1.968804
0.545700,-1.983735
0.545800,-1.951276
0.545900,-1.892527
0.546000,-1.691286
0.546100,-1.732183
0.546200,-1.869481
0.546300,-2.026255
0.546400,-2.076890
0.546500,-1.995744
0.546600,-1.866236
0.546700,-1.788336
0.546800,-1.870455
0.546900,-2.012298
0.547000,-2.062608
0.547100,-2.011649
0.547200,-1.913949
0.547300,-1.865586
0.547400,-1.868832
0.547500,-1.941863
0.547600,-1.961014
0.547700,-1.947381
0.547800,-1.924336
0.547900,-1.881166
0.548000,-1.872078
0.548100,-1.899343
0.548200,-1.871754
0.548300,-1.867859
0.548400,-1.906808
0.548500,-1.893176
0.548600,-1.969128
0.548700,-1.954522
0.548800,-1.899018
0.548900,-1.891553
0.549000,-1.881491
0.549100,-2.042484
0.549200,-2.089873
0.549300,-2.069425
0.549400,-1.969778
0.549500,-1.829233
0.549600,-1.923038
0.549700,-2.034045
0.549800,-2.152193
0.549900,-2.088250
0.550000,-1.962637
0.550100,-1.874999
0.550200,-1.899668
0.550300,-1.998016
0.550400,-2.059038
0.550500,-2.041510
0.550600,-2.046704
0.550700,-2.005157
0.550800,-2.049625
0.550900,-2.057415
0.551000,-2.066179
0.551100,-2.069749
0.551200,-2.066503
0.551300,-2.116164
0.551400,-2.157711
0.551500,-2.183029
0.551600,-2.188871
0.551700,-2.193740
0.551800,-2.242752
0.551900,-2.338504
0.552000,-2.401149
0.552100,-2.421273
0.552200,-2.423869
0.552300,-2.460223
0.552400,-2.483917
0.552500,-2.454380
0.552600,-2.411860
0.552700,-2.400175
0.552800,-2.359277
0.552900,-2.328442
0.553000,-2.289167
0.553100,-2.271315
0.553200,-2.223277
0.553300,-2.217759
0.553400,-2.186599
0.553500,-2.174914
0.553600,-2.142780
0.553700,-2.121358
0.553800,-2.090847
0.553900,-2.093119
0.554000,-2.088575
0.554100,-2.081434
0.554200,-2.141807
0.554300,-2.275210
0.554400,-2.390437
0.554500,-2.289167
0.554600,-2.151219
0.554700,-2.063257
0.554800,-2.120384
0.554900,-2.319354
0.555000,-2.425168
0.555100,-2.414132
0.555200,-2.290790
0.555300,-2.191792
0.555400,-2.212890
0.555500,-2.287544
0.555600,-2.372910
0.555700,-2.393034
0.555800,-2.338504
0.555900,-2.283325
0.556000,-2.266122
0.556100,-2.271315
0.556200,-2.300528
0.556300,-2.312862
0.556400,-2.298580
0.556500,-2.293062
0.556600,-2.300528
0.556700,-2.347592
0.556800,-2.374857
0.556900,-2.343048
0.557000,-2.362848
0.557100,-2.351487
0.557200,-2.373234
0.557300,-2.336881
0.557400,-2.245349
0.557500,-2.167773
0.557600,-2.188871
0.557700,-2.320976
0.557800,-2.421273
0.557900,-2.394981
0.558000,-2.264499
0.558100,-2.175888
0.558200,-2.207372
0.558300,-2.322924
0.558400,-2.432633
0.558500,-2.459574
0.558600,-2.400175
0.558700,-2.316432
0.558800,-2.292413
0.558900,-2.310590
0.559000,-2.339802
0.559100,-2.344671
0.559200,-2.314809
0.559300,-2.304423
0.559400,-2.249893
0.559500,-2.184002
0.559600,-2.134990
0.559700,-2.092794
0.559800,-2.052546
0.559900,-2.022035
0.560000,-1.994121
0.560100,-1.990226
0.560200,-1.888956
0.560300,-1.790608
0.560400,-1.759448
0.560500,-1.734130
0.560600,-1.708164
0.560700,-1.631887
0.560800,-1.576059
0.560900,-1.512765
0.561000,-1.438436
0.561100,-1.394617
0.561200,-1.364431
0.561300,-1.382932
0.561400,-1.385853
0.561500,-1.408574
0.561600,-1.430321
0.561700,-1.430321
0.561800,-1.448173
0.561900,-1.412145
0.562000,-1.473815
0.562100,-1.474140
0.562200,-1.490694
0.562300,-1.535810
0.562400,-1.520880
0.562500,-1.469920
0.562600,-1.364106
0.562700,-1.220966
0.562800,-1.229405
0.562900,-1.490369
0.563000,-1.523801
0.563100,-1.545223
0.563200,-1.414417
0.563300,-1.284908
0.563400,-1.231352
0.563500,-1.334245
0.563600,-1.459534
0.563700,-1.476736
0.563800,-1.388450
0.563900,-1.300164
0.564000,-1.297242
0.564100,-1.324507
0.564200,-1.388125
0.564300,-1.438111
0.564400,-1.439734
0.564500,-1.415390
0.564600,-1.427400
0.564700,-1.437462
0.564800,-1.471219
0.564900,-1.477061
0.565000,-1.528020
0.565100,-1.610464
0.565200,-1.631562
0.565300,-1.659801
0.565400,-1.674407
0.565500,-1.625071
0.565600,-1.624746
0.565700,-1.676030
0.565800,-1.849357
0.565900,-1.894799
0.566000,-1.838971
0.566100,-1.699725
0.566200,-1.666617
0.566300,-1.759123
0.566400,-1.950627
0.566500,-2.010026
0.566600,-1.950303
0.566700,-1.829558
0.566800,-1.808460
0.566900,-1.861042
0.567000,-1.971400
0.567100,-2.007754
0.567200,-2.010026
0.567300,-1.983410
0.567400,-1.954847
0.567500,-2.015868
0.567600,-2.015219
0.567700,-2.015219
0.567800,-1.985682
0.567900,-1.975295
0.568000,-1.992823
0.568100,-2.025281
0.568200,-2.006780
0.568300,-1.972374
0.568400,-1.940241
0.568500,-1.966856
0.568600,-2.056117
0.568700,-2.060985
0.568800,-2.056766
0.568900,-2.019763
0.569000,-2.041186
0.569100,-2.088250
0.569200,-2.026255
0.569300,-2.006780
0.569400,-1.984059
0.569500,-1.965883
0.569600,-1.940241
0.569700,-1.929854
0.569800,-1.941539
0.569900,-1.910054
0.570000,-1.917195
0.570100,-1.907458
0.570200,-1.904861
0.570300,-1.896746
0.570400,-1.886360
0.570500,-1.862016
0.570600,-1.885061
0.570700,-1.860393
0.570800,-1.881816
0.570900,-1.950627
0.571000,-2.129472
0.571100,-2.143105
0.571200,-2.021062
0.571300,-1.862665
0.571400,-1.830856
0.571500,-1.950303
0.571600,-2.102207
0.571700,-2.184652
0.571800,-2.070398
0.571900,-1.964260
0.572000,-1.868508
0.572100,-1.959066
0.572200,-2.064880
0.572300,-2.142131
0.572400,-2.139859
0.572500,-2.059038
0.572600,-2.055467
0.572700,-2.026255
0.572800,-2.074293
0.572900,-2.089224
0.573000,-2.067802
0.573100,-2.068126
0.573200,-2.081759
0.573300,-2.111620
0.573400,-2.123954
0.573500,-2.144403
0.573600,-2.149272
0.573700,-2.153492
0.573800,-2.154790
0.573900,-2.164203
0.574000,-2.113892
0.574100,-2.009052
0.574200,-1.984059
0.574300,-2.075592
0.574400,-2.197635
0.574500,-2.295334
0.574600,-2.225224
0.574700,-2.097663
0.574800,-2.049625
0.574900,-2.122332
0.575000,-2.255411
0.575100,-2.387841
0.575200,-2.400499
0.575300,-2.331363
0.575400,-2.285921
0.575500,-2.278456
0.575600,-2.330389
0.575700,-2.366094
0.575800,-2.383621
0.575900,-2.374857
0.576000,-2.352461
0.576100,-2.333635
0.576200,-2.301501
0.576300,-2.253788
0.576400,-2.215162
0.576500,-2.207048
0.576600,-2.247621
0.576700,-2.232365
0.576800,-2.243726
0.576900,-2.147324
0.577000,-2.115191
0.577100,-2.116489
0.577200,-2.110647
0.577300,-2.047028
0.577400,-1.987305
0.577500,-1.957443
0.577600,-1.906484
0.577700,-1.851629
0.577800,-1.811381
0.577900,-1.784765
0.578000,-1.801644
0.578100,-1.829233
0.578200,-1.829558
0.578300,-1.863314
0.578400,-1.808460
0.578500,-1.809434
0.578600,-1.819171
0.578700,-1.812030
0.578800,-1.837672
0.578900,-1.828584
0.579000,-1.871754
0.579100,-1.861691
0.579200,-1.758150
0.579300,-1.658503
0.579400,-1.496211
0.579500,-1.684145
0.579600,-1.882465
0.579700,-1.977892
0.579800,-1.873376
0.579900,-1.780221
0.580000,-1.663696
0.580100,-1.704918
0.580200,-1.818847
0.580300,-1.887333
0.580400,-1.868183
0.580500,-1.768536
0.580600,-1.687391
0.580700,-1.659152
0.580800,-1.708488
0.580900,-1.757500
0.581000,-1.780870
0.581100,-1.755877
0.581200,-1.738999
0.581300,-1.721796
0.581400,-1.730560
0.581500,-1.735753
0.581600,-1.744517
0.581700,-1.839944
0.581800,-1.834102
0.581900,-1.884088
0.582000,-1.892851
0.582100,-1.891228
0.582200,-1.866560
0.582300,-1.909081
0.582400,-1.990875
0.582500,-2.120709
0.582600,-2.162255
0.582700,-2.091821
0.582800,-1.971725
0.582900,-1.957443
0.583000,-2.080785
0.583100,-2.264174
0.583200,-2.256060
0.583300,-2.178809
0.583400,-2.055792
0.583500,-2.043458
0.583600,-2.087277
0.583700,-2.178809
0.583800,-2.140184
0.583900,-2.147000
0.584000,-2.102857
0.584100,-2.113892
0.584200,-2.072021
0.584300,-2.053520
0.584400,-2.026904
0.584500,-2.005806
0.584600,-2.014570
0.584700,-2.039887
0.584800,-2.035668
0.584900,-2.008727
0.585000,-1.973023
0.585100,-1.963610
0.585200,-2.025930
0.585300,-2.072670
0.585400,-2.068126
0.585500,-2.059362
0.585600,-2.067477
0.585700,-2.111296
0.585800,-2.114217
0.585900,-2.036642
0.586000,-2.027553
0.586100,-2.012298
0.586200,-1.989253
0.586300,-1.978866
0.586400,-1.963286
0.586500,-1.947706
0.586600,-1.936670
0.586700,-1.943162
0.586800,-1.936021
0.586900,-1.932451
0.587000,-1.905186
0.587100,-1.919792
0.587200,-1.920441
0.587300,-1.954847
0.587400,-1.953873
0.587500,-1.946732
0.587600,-2.103506
0.587700,-2.237883
0.587800,-2.217434
0.587900,-2.092145
0.588000,-1.942188
0.588100,-1.949004
0.588200,-2.099286
0.588300,-2.243076
0.588400,-2.253788
0.588500,-2.142456
0.588600,-2.022685
0.588700,-1.970102
0.588800,-2.058389
0.588900,-2.128174
0.589000,-2.145702
0.589100,-2.083382
0.589200,-1.992174
0.589300,-1.975945
0.589400,-1.942188
0.589500,-1.927257
0.589600,-1.890255
0.589700,-1.890579
0.589800,-1.890579
0.589900,-1.907458
0.590000,-1.891553
0.590100,-1.943811
0.590200,-1.935372
0.590300,-1.953548
0.590400,-1.964909
0.590500,-2.004508
0.590600,-2.035668
0.590700,-1.969778
0.590800,-1.899343
0.590900,-1.867859
0.591000,-1.998016
0.591100,-2.119410
0.591200,-2.151869
0.591300,-2.057415
0.591400,-1.924985
0.591500,-1.922064
0.591600,-2.052222
0.591700,-2.210943
0.591800,-2.271315
0.591900,-2.211916
0.592000,-2.148298
0.592100,-2.119410
0.592200,-2.130771
0.592300,-2.158360
0.592400,-2.148947
0.592500,-2.132718
0.592600,-2.131744
0.592700,-2.110322
0.592800,-2.052546
0.592900,-1.986980
0.593000,-1.912976
0.593100,-1.887983
0.593200,-1.897071
0.593300,-1.938618
0.593400,-1.954847
0.593500,-1.926608
0.593600,-1.846111
0.593700,-1.839295
0.593800,-1.837348
0.593900,-1.866236
0.594000,-1.797424
0.594100,-1.771133
0.594200,-1.726016
0.594300,-1.704593
0.594400,-1.652011
0.594500,-1.668889
0.594600,-1.694856
0.594700,-1.738675
0.594800,-1.757500
0.594900,-1.810732
0.595000,-1.803916
0.595100,-1.831505
0.595200,-1.825987
0.595300,-1.874675
0.595400,-1.884412
0.595500,-1.886360
0.595600,-1.941214
0.595700,-1.915248
0.595800,-1.943811
0.595900,-1.752307
0.596000,-1.671811
0.596100,-1.557233
0.596200,-1.757825
0.596300,-1.929854
0.596400,-1.929529
0.596500,-1.867209
0.596600,-1.732183
0.596700,-1.648116
0.596800,-1.716278
0.596900,-1.847410
0.597000,-1.879544
0.597100,-1.791257
0.597200,-1.695181
0.597300,-1.625395
0.597400,-1.653959
0.597500,-1.667266
0.597600,-1.717252
0.597700,-1.703944
0.597800,-1.692259
0.597900,-1.685443
0.598000,-1.698751
0.598100,-1.703295
0.598200,-1.683820
0.598300,-1.687066
0.598400,-1.710111
0.598500,-1.725042
0.598600,-1.738350
0.598700,-1.698102
0.598800,-1.630589
0.598900,-1.578980
0.599000,-1.556908
0.599100,-1.743868
0.599200,-1.813004
0.599300,-1.783142
0.599400,-1.660126
0.599500,-1.514063
0.599600,-1.573462
0.599700,-1.701672
0.599800,-1.807162
0.599900,-1.741920
0.600000,-1.585796
0.600100,-1.503677
0.600200,-1.532240
0.600300,-1.644870
0.600400,-1.694531
0.600500,-1.677653
0.600600,-1.680899
0.600700,-1.653959
0.600800,-1.722445
0.600900,-1.729911
0.601000,-1.745815
0.601100,-1.745815
0.601200,-1.766589
0.601300,-1.820145
0.601400,-1.884737
0.601500,-1.898045
0.601600,-1.906484
0.601700,-1.886035
0.601800,-1.915572
0.601900,-2.003534
0.602000,-2.054494
0.602100,-2.059038
0.602200,-2.074293
0.602300,-2.095716
0.602400,-2.144403
0.602500,-2.125902
0.602600,-2.096040
0.602700,-2.086952
0.602800,-2.088575
0.602900,-2.083382
0.603000,-2.081110
0.603100,-2.061959
0.603200,-2.057740
0.603300,-2.048976
0.603400,-2.082083
0.603500,-2.053845
0.603600,-2.070074
0.603700,-2.036317
0.603800,-2.055143
0.603900,-2.051572
0.604000,-2.069425
0.604100,-2.113568
0.604200,-2.134666
0.604300,-2.345969
0.604400,-2.451134
0.604500,-2.412184
0.604600,-2.245024
0.604700,-2.138885
0.604800,-2.217759
0.604900,-2.410561
0.605000,-2.524490
0.605100,-2.514753
0.605200,-2.368690
0.605300,-2.288843
0.605400,-2.265797
0.605500,-2.389464
0.605600,-2.478075
0.605700,-2.491058
0.605800,-2.429063
0.605900,-2.351163
0.606000,-2.322275
0.606100,-2.333311
0.606200,-2.361874
0.606300,-2.380051
0.606400,-2.367067
0.606500,-2.349540
0.606600,-2.357330
0.606700,-2.424519
0.606800,-2.440423
0.606900,-2.399201
0.607000,-2.396929
0.607100,-2.432309
0.607200,-2.458924
0.607300,-2.476776
0.607400,-2.352461
0.607500,-2.309291
0.607600,-2.314485
0.607700,-2.414132
0.607800,-2.516700
0.607900,-2.516700
0.608000,-2.363821
0.608100,-2.261578
0.608200,-2.263525
0.608300,-2.382972
0.608400,-2.505340
0.608500,-2.528385
0.608600,-2.439774
0.608700,-2.361549
0.608800,-2.337855
0.608900,-2.355382
0.609000,-2.380375
0.609100,-2.375506
0.609200,-2.350514
0.609300,-2.342724
0.609400,-2.287544
0.609500,-2.227496
0.609600,-2.169396
0.609700,-2.114542
0.609800,-2.092145
0.609900,-2.075592
0.610000,-2.075267
0.610100,-2.075916
0.610200,-2.008078
0.610300,-1.943486
0.610400,-1.935047
0.610500,-1.904536
0.610600,-1.887983
0.610700,-1.819171
0.610800,-1.788011
0.610900,-1.748412
0.611000,-1.691935
0.611100,-1.652660
0.611200,-1.641624
0.611300,-1.655906
0.611400,-1.661424
0.611500,-1.684469
0.611600,-1.697128
0.611700,-1.719849
0.611800,-1.703944
0.611900,-1.732183
0.612000,-1.744517
0.612100,-1.753605
0.612200,-1.799047
0.612300,-1.829233
0.612400,-1.841243
0.612500,-1.785415
0.612600,-1.623123
0.612700,-1.515362
0.612800,-1.481605
0.612900,-1.753281
0.613000,-1.810407
0.613100,-1.857472
0.613200,-1.681548
0.613300,-1.555285
0.613400,-1.498483
0.613500,-1.587419
0.613600,-1.697453
0.613700,-1.722445
0.613800,-1.643896
0.613900,-1.514388
0.614000,-1.493615
0.614100,-1.521204
0.614200,-1.567944
0.614300,-1.610464
0.614400,-1.629290
0.614500,-1.597806
0.614600,-1.585796
0.614700,-1.581252
0.614800,-1.614035
0.614900,-1.615982
0.615000,-1.676030
0.615100,-1.686092
0.615200,-1.751333
0.615300,-1.736078
0.615400,-1.723095
0.615500,-1.673109
0.615600,-1.664021
0.615700,-1.696154
0.615800,-1.855200
0.615900,-1.868508
0.616000,-1.769510
0.616100,-1.641300
0.616200,-1.564698
0.616300,-1.639352
0.616400,-1.742894
0.616500,-1.780221
0.616600,-1.703944
0.616700,-1.562751
0.616800,-1.503352
0.616900,-1.535810
0.617000,-1.607868
0.617100,-1.631238
0.617200,-1.629615
0.617300,-1.630913
0.617400,-1.602674
0.617500,-1.601376
0.617600,-1.567620
0.617700,-1.577032
0.617800,-1.565997
0.617900,-1.573137
0.618000,-1.633185
0.618100,-1.644870
0.618200,-1.649739
0.618300,-1.654283
0.618400,-1.635133
0.618500,-1.671811
0.618600,-1.743868
0.618700,-1.765615
0.618800,-1.757500
0.618900,-1.757825
0.619000,-1.782169
0.619100,-1.776002
0.619200,-1.712059
0.619300,-1.690961
0.619400,-1.643896
0.619500,-1.632211
0.619600,-1.598779
0.619700,-1.592288
0.619800,-1.576708
0.619900,-1.577357
0.620000,-1.564374
0.620100,-1.543276
0.620200,-1.560803
0.620300,-1.546522
0.620400,-1.539056
0.620500,-1.572813
0.620600,-1.579629
0.620700,-1.607219
0.620800,-1.618904
0.620900,-1.725042
0.621000,-1.899343
0.621100,-1.917520
0.621200,-1.846761
0.621300,-1.668889
0.621400,-1.624746
0.621500,-1.763992
0.621600,-1.925310
0.621700,-2.024632
0.621800,-1.935047
0.621900,-1.840594
0.622000,-1.802942
0.622100,-1.865262
0.622200,-1.954847
0.622300,-2.017491
0.622400,-2.015868
0.622500,-1.961988
0.622600,-1.977568
0.622700,-1.994446
0.622800,-2.004508
0.622900,-2.011000
0.623000,-2.044756
0.623100,-2.055467
0.623200,-2.065530
0.623300,-2.117463
0.623400,-2.146026
0.623500,-2.176537
0.623600,-2.164203
0.623700,-2.204776
0.623800,-2.272938
0.623900,-2.334609
0.624000,-2.290141
0.624100,-2.194389
0.624200,-2.187573
0.624300,-2.264174
0.624400,-2.394008
0.624500,-2.487488
0.624600,-2.422571
0.624700,-2.317406
0.624800,-2.285921
0.624900,-2.369989
0.625000,-2.503068
0.625100,-2.610830
0.625200,-2.616023
0.625300,-2.523841
0.625400,-2.453406
0.625500,-2.448213
0.625600,-2.472232
0.625700,-2.461846
0.625800,-2.446915
0.625900,-2.418027
0.626000,-2.394008
0.626100,-2.326170
0.626200,-2.260929
0.626300,-2.193740
0.626400,-2.114217
0.626500,-2.072670
0.626600,-2.064880
0.626700,-2.029825
0.626800,-1.994121
0.626900,-1.861367
0.627000,-1.779247
0.627100,-1.744517
0.627200,-1.732508
0.627300,-1.648765
0.627400,-1.579305
0.627500,-1.508870
0.627600,-1.475114
0.627700,-1.385204
0.627800,-1.371247
0.627900,-1.336841
0.628000,-1.369949
0.628100,-1.334569
0.628200,-1.372546
0.628300,-1.373519
0.628400,-1.377414
0.628500,-1.370598
0.628600,-1.379037
0.628700,-1.418312
0.628800,-1.459534
0.628900,-1.473815
0.629000,-1.535486
0.629100,-1.491343
0.629200,-1.440059
0.629300,-1.311849
0.629400,-1.262188
0.629500,-1.349825
0.629600,-1.619877
0.629700,-1.627018
0.629800,-1.603648
0.629900,-1.461481
0.630000,-1.359887
0.630100,-1.380985
0.630200,-1.496211
0.630300,-1.593586
0.630400,-1.526722
0.630500,-1.441032
0.630600,-1.340736
0.630700,-1.330350
0.630800,-1.371896
0.630900,-1.413767
0.631000,-1.427725
0.631100,-1.382283
0.631200,-1.358264
0.631300,-1.366378
0.631400,-1.383581
0.631500,-1.373195
