0.000100,-1.202464
0.000200,-1.253424
0.000300,-1.415715
0.000400,-1.535161
0.000500,-1.494913
0.000600,-1.372221
0.000700,-1.284584
0.000800,-1.266407
0.000900,-1.354693
0.001000,-1.417013
0.001100,-1.407600
0.001200,-1.419935
0.001300,-1.373844
0.001400,-1.405004
0.001500,-1.387476
0.001600,-1.392020
0.001700,-1.370598
0.001800,-1.375791
0.001900,-1.414741
0.002000,-1.453042
0.002100,-1.473491
0.002200,-1.437462
0.002300,-1.435190
0.002400,-1.450445
0.002500,-1.524775
0.002600,-1.566321
0.002700,-1.588068
0.002800,-1.595858
0.002900,-1.595209
0.003000,-1.638703
0.003100,-1.608192
0.003200,-1.575410
0.003300,-1.558856
0.003400,-1.555285
0.003500,-1.555935
0.003600,-1.543925
0.003700,-1.539381
0.003800,-1.538732
0.003900,-1.543600
0.004000,-1.552040
0.004100,-1.570865
0.004200,-1.566646
0.004300,-1.587095
0.004400,-1.604947
0.004500,-1.611114
0.004600,-1.671161
0.004700,-1.665643
0.004800,-1.774703
0.004900,-1.950627
0.005000,-2.056766
0.005100,-1.984384
0.005200,-1.820794
0.005300,-1.779897
0.005400,-1.832479
0.005500,-2.045081
0.005600,-2.193415
0.005700,-2.139210
0.005800,-2.019439
0.005900,-1.883114
0.006000,-1.922388
0.006100,-2.025606
0.006200,-2.080785
0.006300,-2.107725
0.006400,-2.022685
0.006500,-2.018140
0.006600,-1.963610
0.006700,-1.984708
0.006800,-1.957443
0.006900,-1.957768
0.007000,-1.938618
0.007100,-1.941214
0.007200,-1.959066
0.007300,-1.960365
0.007400,-1.927582
0.007500,-1.897396
0.007600,-1.899992
0.007700,-1.932451
0.007800,-2.016193
0.007900,-1.943811
0.008000,-1.836049
0.008100,-1.736727
0.008200,-1.780546
0.008300,-1.914598
0.008400,-2.025606
0.008500,-2.004183
0.008600,-1.834751
0.008700,-1.711410
0.008800,-1.738350
0.008900,-1.850656
0.009000,-1.967181
0.009100,-1.998016
0.009200,-1.897396
0.009300,-1.796126
0.009400,-1.751009
0.009500,-1.772431
0.009600,-1.805214
0.009700,-1.778598
0.009800,-1.743543
0.009900,-1.688364
0.010000,-1.619228
0.010100,-1.575734
0.010200,-1.504326
0.010300,-1.428698
0.010400,-1.359887
0.010500,-1.333271
0.010600,-1.348526
0.010700,-1.328402
0.010800,-1.233624
0.010900,-1.117099
0.011000,-1.072956
0.011100,-1.074254
0.011200,-1.021997
0.011300,-0.947667
0.011400,-0.908718
0.011500,-0.857434
0.011600,-0.798684
0.011700,-0.738312
0.011800,-0.744479
0.011900,-0.760384
0.012000,-0.780508
0.012100,-0.784078
0.012200,-0.828221
0.012300,-0.795763
0.012400,-0.861653
0.012500,-0.806150
0.012600,-0.874961
0.012700,-0.836985
0.012800,-0.943448
0.012900,-0.886321
0.013000,-0.974608
0.013100,-0.874961
0.013200,-0.812317
0.013300,-0.597443
0.013400,-0.691572
0.013500,-0.897357
0.013600,-0.990512
0.013700,-0.982722
0.013800,-0.871391
0.013900,-0.748049
0.014000,-0.725004
0.014100,-0.825949
0.014200,-0.946694
0.014300,-0.958054
0.014400,-0.877558
0.014500,-0.778885
0.014600,-0.758761
0.014700,-0.781481
0.014800,-0.852565
0.014900,-0.901252
0.015000,-0.881128
0.015100,-0.878531
0.015200,-0.879830
0.015300,-0.887295
0.015400,-0.943448
0.015500,-0.933061
0.015600,-1.028488
0.015700,-1.048612
0.015800,-1.074579
0.015900,-1.082369
0.016000,-1.102168
0.016100,-1.079772
0.016200,-1.066140
0.016300,-1.136574
0.016400,-1.349825
0.016500,-1.371247
0.016600,-1.345605
0.016700,-1.194999
0.016800,-1.109634
0.016900,-1.211553
0.017000,-1.354369
0.017100,-1.459534
0.017200,-1.373195
0.017300,-1.228756
0.017400,-1.127810
0.017500,-1.155400
0.017600,-1.269004
0.017700,-1.296593
0.017800,-1.289452
0.017900,-1.229405
0.018000,-1.191429
0.018100,-1.212202
0.018200,-1.207982
0.018300,-1.204412
0.018400,-1.190130
0.018500,-1.186235
0.018600,-1.214799
0.018700,-1.245634
0.018800,-1.243037
0.018900,-1.202140
0.019000,-1.196946
0.019100,-1.241414
0.019200,-1.327753
0.019300,-1.360536
0.019400,-1.341061
0.019500,-1.322235
0.019600,-1.357939
0.019700,-1.348851
0.019800,-1.282636
0.019900,-1.243037
0.020000,-1.208307
0.020100,-1.122617
0.020200,-1.061271
0.020300,-0.943123
0.020400,-0.800307
0.020500,-0.650026
0.020600,-0.725004
0.020700,-0.732470
0.020800,-0.764928
0.020900,-0.844126
0.021000,-1.007066
0.021100,-1.126837
0.021200,-1.222264
0.021300,-1.253099
0.021400,-1.296593
0.021500,-1.418961
0.021600,-1.597806
0.021700,-1.675056
0.021800,-1.538407
0.021900,-1.432593
0.022000,-1.418961
0.022100,-1.598455
0.022200,-1.797424
0.022300,-1.863314
0.022400,-1.844489
0.022500,-1.674732
0.022600,-1.652985
0.022700,-1.702970
0.022800,-1.838646
0.022900,-1.889930
0.023000,-1.889930
0.023100,-1.885061
0.023200,-1.823066
0.023300,-1.838321
0.023400,-1.819496
0.023500,-1.855200
0.023600,-1.869806
0.023700,-1.864937
0.023800,-1.884412
0.023900,-1.875973
0.024000,-1.888632
0.024100,-1.912326
0.024200,-1.878894
0.024300,-1.906808
0.024400,-1.908756
0.024500,-1.923362
0.024600,-1.880517
0.024700,-1.745491
0.024800,-1.714655
0.024900,-1.752956
0.025000,-1.888307
0.025100,-1.979840
0.025200,-1.903563
0.025300,-1.749061
0.025400,-1.649739
0.025500,-1.676030
0.025600,-1.815925
0.025700,-1.890904
0.025800,-1.844813
0.025900,-1.742570
0.026000,-1.634808
0.026100,-1.606245
0.026200,-1.598455
0.026300,-1.626369
0.026400,-1.617281
0.026500,-1.601052
0.026600,-1.586121
0.026700,-1.516985
0.026800,-1.458560
0.026900,-1.396240
0.027000,-1.361510
0.027100,-1.343333
0.027200,-1.367677
0.027300,-1.389424
0.027400,-1.373195
0.027500,-1.268030
0.027600,-1.256345
0.027700,-1.267381
0.027800,-1.293997
0.027900,-1.208631
0.028000,-1.193051
0.028100,-1.172603
0.028200,-1.133653
0.028300,-1.057052
0.028400,-1.038550
0.028500,-1.025243
0.028600,-1.070359
0.028700,-1.075228
0.028800,-1.104116
0.028900,-1.103467
0.029000,-1.100870
0.029100,-1.085939
0.029200,-1.100221
0.029300,-1.085615
0.029400,-1.114503
0.029500,-1.129433
0.029600,-1.154751
0.029700,-1.096651
0.029800,-1.027515
0.029900,-0.877558
0.030000,-0.787973
0.030100,-0.937605
0.030200,-1.156049
0.030300,-1.145662
0.030400,-1.053806
0.030500,-0.908718
0.030600,-0.838608
0.030700,-0.844775
0.030800,-0.962598
0.030900,-1.024269
0.031000,-1.006741
0.031100,-0.898655
0.031200,-0.820431
0.031300,-0.836011
0.031400,-0.874636
0.031500,-0.891839
0.031600,-0.916832
0.031700,-0.919753
0.031800,-0.925596
0.031900,-0.934360
0.032000,-0.929166
0.032100,-0.938579
0.032200,-0.927219
0.032300,-0.958379
0.032400,-1.022970
0.032500,-1.038550
0.032600,-1.086913
0.032700,-1.035305
0.032800,-1.020049
0.032900,-1.021672
0.033000,-1.133978
0.033100,-1.301462
0.033200,-1.269977
0.033300,-1.178770
0.033400,-1.012259
0.033500,-1.023944
0.033600,-1.185262
0.033700,-1.344956
0.033800,-1.348202
0.033900,-1.247906
0.034000,-1.106388
0.034100,-1.107362
0.034200,-1.179094
0.034300,-1.276145
0.034400,-1.269977
0.034500,-1.268030
0.034600,-1.244011
0.034700,-1.260565
0.034800,-1.277118
0.034900,-1.265109
0.035000,-1.244660
0.035100,-1.231028
0.035200,-1.273872
0.035300,-1.324832
0.035400,-1.331324
0.035500,-1.304708
0.035600,-1.300813
0.035700,-1.284908
0.035800,-1.369300
0.035900,-1.428049
0.036000,-1.450445
0.036100,-1.434541
0.036200,-1.425777
0.036300,-1.487772
0.036400,-1.454665
0.036500,-1.400135
0.036600,-1.397863
0.036700,-1.366054
0.036800,-1.356641
0.036900,-1.347877
0.037000,-1.334894
0.037100,-1.348526
0.037200,-1.331324
0.037300,-1.335543
0.037400,-1.328727
0.037500,-1.314770
0.037600,-1.308927
0.037700,-1.332622
0.037800,-1.334245
0.037900,-1.358588
0.038000,-1.338140
0.038100,-1.423505
0.038200,-1.574111
0.038300,-1.735429
0.038400,-1.655257
0.038500,-1.511142
0.038600,-1.440059
0.038700,-1.439085
0.038800,-1.688364
0.038900,-1.833777
0.039000,-1.828909
0.039100,-1.738999
0.039200,-1.603324
0.039300,-1.637080
0.039400,-1.738025
0.039500,-1.866885
0.039600,-1.889930
0.039700,-1.837348
0.039800,-1.787037
0.039900,-1.748087
0.040000,-1.748737
0.040100,-1.765940
0.040200,-1.777300
0.040300,-1.771782
0.040400,-1.763018
0.040500,-1.760746
0.040600,-1.809758
0.040700,-1.840594
0.040800,-1.810407
0.040900,-1.758474
0.041000,-1.793854
0.041100,-1.840918
0.041200,-1.831181
0.041300,-1.754579
0.041400,-1.638054
0.041500,-1.654283
0.041600,-1.751982
0.041700,-1.899018
0.041800,-1.930178
0.041900,-1.788336
0.042000,-1.631562
0.042100,-1.601052
0.042200,-1.715629
0.042300,-1.908431
0.042400,-1.990551
0.042500,-1.919792
0.042600,-1.814627
0.042700,-1.760422
0.042800,-1.792880
0.042900,-1.841243
0.043000,-1.853901
0.043100,-1.839620
0.043200,-1.797099
0.043300,-1.729586
0.043400,-1.683820
0.043500,-1.620527
0.043600,-1.568918
0.043700,-1.497834
0.043800,-1.488421
0.043900,-1.478035
0.044000,-1.481930
0.044100,-1.426102
0.044200,-1.331324
0.044300,-1.315094
0.044400,-1.301137
0.044500,-1.281013
0.044600,-1.227782
0.044700,-1.183963
0.044800,-1.151505
0.044900,-1.100546
0.045000,-1.044717
0.045100,-1.018751
0.045200,-1.052183
0.045300,-1.051209
0.045400,-1.068087
0.045500,-1.080746
0.045600,-1.110932
0.045700,-1.114503
0.045800,-1.112231
0.045900,-1.129758
0.046000,-1.132355
0.046100,-1.181691
0.046200,-1.165787
0.046300,-1.219343
0.046400,-1.198245
0.046500,-1.073930
0.046600,-0.983696
0.046700,-0.858083
0.046800,-1.214474
0.046900,-1.235247
0.047000,-1.308927
0.047100,-1.158646
0.047200,-1.027839
0.047300,-0.939553
0.047400,-1.015505
0.047500,-1.144689
0.047600,-1.185586
0.047700,-1.129758
0.047800,-1.015830
0.047900,-0.957405
0.048000,-0.984994
0.048100,-1.044717
0.048200,-1.095352
0.048300,-1.115476
0.048400,-1.099896
0.048500,-1.090159
0.048600,-1.088536
0.048700,-1.105090
0.048800,-1.130732
0.048900,-1.154102
0.049000,-1.242713
0.049100,-1.253424
0.049200,-1.280689
0.049300,-1.313147
0.049400,-1.288803
0.049500,-1.279390
0.049600,-1.290751
0.049700,-1.518283
0.049800,-1.582550
0.049900,-1.533214
0.050000,-1.425128
0.050100,-1.253748
0.050200,-1.348851
0.050300,-1.469271
0.050400,-1.611763
0.050500,-1.552689
0.050600,-1.411820
0.050700,-1.293672
0.050800,-1.270951
0.050900,-1.359887
0.051000,-1.420259
0.051100,-1.416689
0.051200,-1.401433
0.051300,-1.318665
0.051400,-1.320288
0.051500,-1.274846
0.051600,-1.263486
0.051700,-1.255371
0.051800,-1.264460
0.051900,-1.289452
0.052000,-1.279066
0.052100,-1.265109
0.052200,-1.240441
0.052300,-1.212526
0.052400,-1.242388
0.052500,-1.329051
0.052600,-1.364756
0.052700,-1.371896
0.052800,-1.356316
0.052900,-1.391047
0.053000,-1.405653
0.053100,-1.381958
0.053200,-1.376116
0.053300,-1.380335
0.053400,-1.384230
0.053500,-1.367028
0.053600,-1.400460
0.053700,-1.399161
0.053800,-1.406951
0.053900,-1.410197
0.054000,-1.406951
0.054100,-1.421882
0.054200,-1.444278
0.054300,-1.457911
0.054400,-1.477386
0.054500,-1.495562
0.054600,-1.516660
0.054700,-1.553013
0.054800,-1.635457
0.054900,-1.833453
0.055000,-1.928880
0.055100,-1.796775
0.055200,-1.688689
0.055300,-1.603973
0.055400,-1.769185
0.055500,-1.979840
0.055600,-2.084680
0.055700,-2.069425
0.055800,-1.907782
0.055900,-1.826961
0.056000,-1.871429
0.056100,-1.991525
0.056200,-2.058389
0.056300,-2.078188
0.056400,-2.003210
0.056500,-1.950627
0.056600,-1.897720
0.056700,-1.902589
0.056800,-1.903238
0.056900,-1.892851
0.057000,-1.879868
0.057100,-1.880517
0.057200,-1.862990
0.057300,-1.889930
0.057400,-1.830532
0.057500,-1.813653
0.057600,-1.815601
0.057700,-1.825338
0.057800,-1.820145
0.057900,-1.775677
0.058000,-1.625071
0.058100,-1.577682
0.058200,-1.626044
0.058300,-1.746140
0.058400,-1.841892
0.058500,-1.785090
0.058600,-1.636106
0.058700,-1.537433
0.058800,-1.552040
0.058900,-1.682846
0.059000,-1.809434
0.059100,-1.842866
0.059200,-1.776975
0.059300,-1.712059
0.059400,-1.690636
0.059500,-1.699076
0.059600,-1.732183
0.059700,-1.745491
0.059800,-1.735104
0.059900,-1.720498
0.060000,-1.648765
0.060100,-1.594235
0.060200,-1.524450
0.060300,-1.451094
0.060400,-1.426751
0.060500,-1.437137
0.060600,-1.440708
0.060700,-1.420259
0.060800,-1.339763
0.060900,-1.240441
0.061000,-1.241739
0.061100,-1.236221
0.061200,-1.179744
0.061300,-1.113853
0.061400,-1.067438
0.061500,-1.018102
0.061600,-0.935982
0.061700,-0.900278
0.061800,-0.877882
0.061900,-0.896059
0.062000,-0.896059
0.062100,-0.889567
0.062200,-0.929815
0.062300,-0.917806
0.062400,-0.927868
0.062500,-0.898980
0.062600,-0.888918
0.062700,-0.928517
0.062800,-0.959352
0.062900,-1.010636
0.063000,-0.986942
0.063100,-0.942474
0.063200,-0.720460
0.063300,-0.639315
0.063400,-0.704555
0.063500,-0.942474
0.063600,-1.070359
0.063700,-0.989863
0.063800,-0.856135
0.063900,-0.720135
0.064000,-0.725329
0.064100,-0.835687
0.064200,-0.948641
0.064300,-0.928842
0.064400,-0.840231
0.064500,-0.747725
0.064600,-0.735066
0.064700,-0.767200
0.064800,-0.813290
0.064900,-0.824651
0.065000,-0.832116
0.065100,-0.823352
0.065200,-0.839906
0.065300,-0.849644
0.065400,-0.857434
0.065500,-0.836660
0.065600,-0.838283
0.065700,-0.962274
0.065800,-0.983371
0.065900,-1.033682
0.066000,-1.012584
0.066100,-0.967467
0.066200,-0.926570
0.066300,-1.045042
0.066400,-1.230378
0.066500,-1.244011
0.066600,-1.165787
0.066700,-0.994083
0.066800,-0.986617
0.066900,-1.077825
0.067000,-1.253424
0.067100,-1.298865
0.067200,-1.237195
0.067300,-1.074254
0.067400,-1.003171
0.067500,-1.039849
0.067600,-1.147285
0.067700,-1.170006
0.067800,-1.169682
0.067900,-1.123915
0.068000,-1.096651
0.068100,-1.120670
0.068200,-1.109309
0.068300,-1.096975
0.068400,-1.080097
0.068500,-1.101519
0.068600,-1.132679
0.068700,-1.155725
0.068800,-1.145338
0.068900,-1.085615
0.069000,-0.991486
0.069100,-1.362808
0.069200,-1.274197
0.069300,-1.302436
0.069400,-1.303085
0.069500,-1.300488
0.069600,-1.345930
0.069700,-1.353395
0.069800,-1.281013
0.069900,-1.253424
0.070000,-1.232651
0.070100,-1.235896
0.070200,-1.212851
0.070300,-1.233624
0.070400,-1.229405
0.070500,-1.237195
0.070600,-1.237519
0.070700,-1.195648
0.070800,-1.226159
0.070900,-1.155725
0.071000,-1.260565
0.071100,-1.274522
0.071200,-1.298541
0.071300,-1.329051
0.071400,-1.346903
0.071500,-1.500756
0.071600,-1.620851
0.071700,-1.697777
0.071800,-1.546197
0.071900,-1.433567
0.072000,-1.446226
0.072100,-1.637405
0.072200,-1.833128
0.072300,-1.937644
0.072400,-1.858121
0.072500,-1.774379
0.072600,-1.709462
0.072700,-1.804240
0.072800,-1.934398
0.072900,-2.017816
0.073000,-1.975620
0.073100,-1.963935
0.073200,-1.966207
0.073300,-1.970102
0.073400,-1.986007
0.073500,-2.028527
0.073600,-2.037291
0.073700,-2.047028
0.073800,-2.064880
0.073900,-2.122332
0.074000,-2.151869
0.074100,-2.150246
0.074200,-2.182704
0.074300,-2.194714
0.074400,-2.225549
0.074500,-2.248270
0.074600,-2.189196
0.074700,-2.062608
0.074800,-2.046055
0.074900,-2.101883
0.075000,-2.239831
0.075100,-2.293387
0.075200,-2.216136
0.075300,-2.057415
0.075400,-1.939591
0.075500,-1.984059
0.075600,-2.124279
0.075700,-2.227496
0.075800,-2.209644
0.075900,-2.072670
0.076000,-1.969128
0.076100,-1.922388
0.076200,-1.931152
0.076300,-1.961663
0.076400,-1.937644
0.076500,-1.887009
0.076600,-1.809434
0.076700,-1.715305
0.076800,-1.656555
0.076900,-1.581901
0.077000,-1.507247
0.077100,-1.465701
0.077200,-1.459209
0.077300,-1.451419
0.077400,-1.416040
0.077500,-1.310875
0.077600,-1.254073
0.077700,-1.234923
0.077800,-1.216421
0.077900,-1.134951
0.078000,-1.098923
0.078100,-1.051858
0.078200,-0.999276
0.078300,-0.920727
0.078400,-0.894111
0.078500,-0.897033
0.078600,-0.930465
0.078700,-0.919753
0.078800,-0.945720
0.078900,-0.942149
0.079000,-0.951238
0.079100,-0.931438
0.079200,-0.951887
0.079300,-0.933710
0.079400,-0.979801
0.079500,-0.988889
0.079600,-1.026541
0.079700,-0.990837
0.079800,-0.939228
0.079900,-0.713968
0.080000,-0.719486
0.080100,-0.819133
0.080200,-1.036603
0.080300,-1.061596
0.080400,-1.003820
0.080500,-0.860030
0.080600,-0.770770
0.080700,-0.813940
0.080800,-0.927868
0.080900,-0.983371
0.081000,-0.939228
0.081100,-0.848670
0.081200,-0.762006
0.081300,-0.733443
0.081400,-0.763629
0.081500,-0.806150
0.081600,-0.804202
0.081700,-0.802579
0.081800,-0.779209
0.081900,-0.776288
0.082000,-0.788622
0.082100,-0.789596
0.082200,-0.782131
0.082300,-0.869443
0.082400,-0.909367
0.082500,-0.954159
0.082600,-0.990512
0.082700,-0.907744
0.082800,-0.923973
0.082900,-0.909042
0.083000,-1.030436
0.083100,-1.170980
0.083200,-1.169357
0.083300,-1.095677
0.083400,-0.947667
0.083500,-1.013558
0.083600,-1.118722
0.083700,-1.253424
0.083800,-1.236221
0.083900,-1.160269
0.084000,-1.070035
0.084100,-1.053481
0.084200,-1.120345
0.084300,-1.191104
0.084400,-1.172603
0.084500,-1.213500
0.084600,-1.178121
0.084700,-1.194999
0.084800,-1.186884
0.084900,-1.187534
0.085000,-1.165137
0.085100,-1.164813
0.085200,-1.192078
0.085300,-1.246932
0.085400,-1.261863
0.085500,-1.247906
0.085600,-1.237195
0.085700,-1.232975
0.085800,-1.306006
0.085900,-1.347553
0.086000,-1.351448
0.086100,-1.337491
0.086200,-1.304708
0.086300,-1.354369
0.086400,-1.350474
0.086500,-1.284259
0.086600,-1.278741
0.086700,-1.277118
0.086800,-1.277118
0.086900,-1.277118
0.087000,-1.288154
0.087100,-1.278417
0.087200,-1.272574
0.087300,-1.276469
0.087400,-1.290102
0.087500,-1.308927
0.087600,-1.318016
0.087700,-1.310226
0.087800,-1.334569
0.087900,-1.352746
0.088000,-1.358913
0.088100,-1.437787
0.088200,-1.626694
0.088300,-1.762369
0.088400,-1.708813
0.088500,-1.599753
0.088600,-1.521204
0.088700,-1.568918
0.088800,-1.780221
0.088900,-1.919143
0.089000,-1.914923
0.089100,-1.824364
0.089200,-1.749710
0.089300,-1.794827
0.089400,-1.886684
0.089500,-1.970751
0.089600,-1.994446
0.089700,-1.945434
0.089800,-1.929205
0.089900,-1.901615
0.090000,-1.925634
0.090100,-1.892851
0.090200,-1.911353
0.090300,-1.888956
0.090400,-1.924661
0.090500,-1.945758
0.090600,-1.971725
0.090700,-1.970427
0.090800,-1.973997
0.090900,-1.937968
0.091000,-1.968155
0.091100,-1.991525
0.091200,-1.980489
0.091300,-1.848059
0.091400,-1.776326
0.091500,-1.825663
0.091600,-1.933424
0.091700,-2.020088
0.091800,-2.061959
0.091900,-1.911028
0.092000,-1.779897
0.092100,-1.780546
0.092200,-1.915897
0.092300,-2.035343
0.092400,-2.050274
0.092500,-1.963286
0.092600,-1.861042
0.092700,-1.850006
0.092800,-1.879219
0.092900,-1.899018
0.093000,-1.885711
0.093100,-1.870455
0.093200,-1.838971
0.093300,-1.799372
0.093400,-1.754904
0.093500,-1.706541
0.093600,-1.632536
0.093700,-1.586445
0.093800,-1.588068
0.093900,-1.581577
0.094000,-1.601052
0.094100,-1.534188
0.094200,-1.457586
0.094300,-1.435190
0.094400,-1.431619
0.094500,-1.403705
0.094600,-1.338789
0.094700,-1.295944
0.094800,-1.268679
0.094900,-1.183314
0.095000,-1.133328
0.095100,-1.127486
0.095200,-1.120345
0.095300,-1.161242
0.095400,-1.146961
0.095500,-1.206684
0.095600,-1.189481
0.095700,-1.233300
0.095800,-1.244660
0.095900,-1.223887
0.096000,-1.270951
0.096100,-1.267705
0.096200,-1.323534
0.096300,-1.306980
0.096400,-1.308603
0.096500,-1.134627
0.096600,-0.998951
0.096700,-1.013233
0.096800,-1.192402
0.096900,-1.411820
0.097000,-1.319314
0.097100,-1.244335
0.097200,-1.071333
0.097300,-1.032383
0.097400,-1.102168
0.097500,-1.229405
0.097600,-1.252775
0.097700,-1.173252
0.097800,-1.088536
0.097900,-1.038226
0.098000,-1.057052
0.098100,-1.118722
0.098200,-1.132030
0.098300,-1.099247
0.098400,-1.057052
0.098500,-1.050884
0.098600,-1.069061
0.098700,-1.064842
0.098800,-1.040173
0.098900,-1.058999
0.099000,-1.074904
0.099100,-1.114178
0.099200,-1.133328
0.099300,-1.127810
0.099400,-1.065815
0.099500,-1.026865
0.099600,-1.020049
0.099700,-1.222913
0.099800,-1.301462
0.099900,-1.233300
0.100000,-1.115801
0.100100,-0.980775
0.100200,-1.105090
0.100300,-1.282636
0.100400,-1.390722
0.100500,-1.299514
0.100600,-1.161892
0.100700,-1.056078
0.100800,-1.104441
0.100900,-1.194350
0.101000,-1.255047
0.101100,-1.222264
0.101200,-1.181042
0.101300,-1.120994
0.101400,-1.152479
0.101500,-1.164488
0.101600,-1.153452
0.101700,-1.107686
0.101800,-1.130407
0.101900,-1.148259
0.102000,-1.182989
0.102100,-1.174226
0.102200,-1.160918
0.102300,-1.156374
0.102400,-1.327753
0.102500,-1.274846
0.102600,-1.312173
0.102700,-1.306006
0.102800,-1.305682
0.102900,-1.336192
0.103000,-1.376440
0.103100,-1.306006
0.103200,-1.304383
0.103300,-1.314121
0.103400,-1.295944
0.103500,-1.300164
0.103600,-1.306980
0.103700,-1.323858
0.103800,-1.339438
0.103900,-1.339763
0.104000,-1.355343
0.104100,-1.358913
0.104200,-1.355667
0.104300,-1.370273
0.104400,-1.400135
0.104500,-1.438436
0.104600,-1.462779
0.104700,-1.467324
0.104800,-1.607868
0.104900,-1.768212
0.105000,-1.832479
0.105100,-1.717577
0.105200,-1.560479
0.105300,-1.506923
0.105400,-1.642274
0.105500,-1.885711
0.105600,-1.943811
0.105700,-1.869481
0.105800,-1.743543
0.105900,-1.664021
0.106000,-1.729911
0.106100,-1.822417
0.106200,-1.910703
0.106300,-1.893825
0.106400,-1.845462
0.106500,-1.812679
0.106600,-1.777300
0.106700,-1.776651
0.106800,-1.797099
0.106900,-1.789634
0.107000,-1.752632
0.107100,-1.767238
0.107200,-1.755877
0.107300,-1.802942
0.107400,-1.790932
0.107500,-1.790932
0.107600,-1.780870
0.107700,-1.790608
0.107800,-1.822092
0.107900,-1.758150
0.108000,-1.656555
0.108100,-1.591963
0.108200,-1.639352
0.108300,-1.774054
0.108400,-1.842541
0.108500,-1.795477
0.108600,-1.618254
0.108700,-1.521853
0.108800,-1.575410
0.108900,-1.713357
0.109000,-1.830532
0.109100,-1.821443
0.109200,-1.722445
0.109300,-1.635457
0.109400,-1.611114
0.109500,-1.621825
0.109600,-1.666942
0.109700,-1.669863
0.109800,-1.656231
0.109900,-1.627343
0.110000,-1.553663
0.110100,-1.491667
0.110200,-1.408250
0.110300,-1.343333
0.110400,-1.323534
0.110500,-1.320612
0.110600,-1.324507
0.110700,-1.284584
0.110800,-1.177147
0.110900,-1.112880
0.111000,-1.107686
0.111100,-1.113529
0.111200,-1.055104
0.111300,-1.022321
0.111400,-1.006741
0.111500,-0.981749
0.111600,-0.912937
0.111700,-0.871391
0.111800,-0.907744
0.111900,-0.968765
0.112000,-0.994083
0.112100,-1.011285
0.112200,-1.061271
0.112300,-1.039524
0.112400,-1.086589
0.112500,-1.037252
0.112600,-1.107037
0.112700,-1.077176
0.112800,-1.171304
0.112900,-1.155725
0.113000,-1.161567
0.113100,-1.076851
0.113200,-0.941825
0.113300,-0.827897
0.113400,-0.960326
0.113500,-1.181367
0.113600,-1.230054
0.113700,-1.180717
0.113800,-1.052832
0.113900,-0.926245
0.114000,-0.967142
0.114100,-1.092756
0.114200,-1.196297
0.114300,-1.183639
0.114400,-1.084316
0.114500,-0.998951
0.114600,-0.991486
0.114700,-1.016479
0.114800,-1.064517
0.114900,-1.051858
0.115000,-1.058350
0.115100,-1.036927
0.115200,-1.046665
0.115300,-1.043095
0.115400,-1.036927
0.115500,-1.018426
0.115600,-1.084316
0.115700,-1.151505
0.115800,-1.133653
0.115900,-1.211228
0.116000,-1.111581
0.116100,-1.157997
0.116200,-1.115152
0.116300,-1.287180
0.116400,-1.446875
0.116500,-1.449796
0.116600,-1.328078
0.116700,-1.157347
0.116800,-1.170331
0.116900,-1.293347
0.117000,-1.445252
0.117100,-1.483877
0.117200,-1.364756
0.117300,-1.211228
0.117400,-1.148259
0.117500,-1.235896
0.117600,-1.308927
0.117700,-1.324507
0.117800,-1.340736
0.117900,-1.283935
0.118000,-1.306331
0.118100,-1.295619
0.118200,-1.285557
0.118300,-1.288803
0.118400,-1.268355
0.118500,-1.306980
0.118600,-1.346903
0.118700,-1.334245
0.118800,-1.322560
0.118900,-1.294646
0.119000,-1.293023
0.119100,-1.340736
0.119200,-1.408899
0.119300,-1.424803
0.119400,-1.411495
0.119500,-1.398837
0.119600,-1.434216
0.119700,-1.429672
0.119800,-1.372546
0.119900,-1.374168
0.120000,-1.358588
0.120100,-1.362159
0.120200,-1.363457
0.120300,-1.369624
0.120400,-1.354693
0.120500,-1.358588
0.120600,-1.353720
0.120700,-1.347877
0.120800,-1.353720
0.120900,-1.361185
0.121000,-1.378713
0.121100,-1.420908
0.121200,-1.436488
0.121300,-1.517634
0.121400,-1.539705
0.121500,-1.714006
0.121600,-1.867534
0.121700,-1.856498
0.121800,-1.715954
0.121900,-1.614684
0.122000,-1.633510
0.122100,-1.854551
0.122200,-2.060336
0.122300,-2.072995
0.122400,-1.969778
0.122500,-1.848059
0.122600,-1.841892
0.122700,-1.927257
0.122800,-2.048327
0.122900,-2.090522
0.123000,-2.051248
0.123100,-1.979190
0.123200,-1.962312
0.123300,-1.964909
0.123400,-1.980489
0.123500,-1.974322
0.123600,-1.974322
0.123700,-1.961338
0.123800,-1.992498
0.123900,-2.024307
0.124000,-2.030475
0.124100,-2.007105
0.124200,-2.001587
0.124300,-2.018790
0.124400,-2.063582
0.124500,-2.066503
0.124600,-1.982761
0.124700,-1.829558
0.124800,-1.880842
0.124900,-1.932126
0.125000,-2.059362
0.125100,-2.108374
0.125200,-1.981463
0.125300,-1.831505
0.125400,-1.752307
0.125500,-1.842541
0.125600,-2.014570
0.125700,-2.093119
0.125800,-2.042484
0.125900,-1.912976
0.126000,-1.835400
0.126100,-1.822417
0.126200,-1.854551
0.126300,-1.879544
0.126400,-1.871104
0.126500,-1.837997
0.126600,-1.774054
0.126700,-1.704593
0.126800,-1.643572
0.126900,-1.582875
0.127000,-1.504001
0.127100,-1.482254
0.127200,-1.468946
0.127300,-1.487772
0.127400,-1.426751
0.127500,-1.322884
0.127600,-1.289452
0.127700,-1.269977
0.127800,-1.256345
0.127900,-1.179419
0.128000,-1.148584
0.128100,-1.110283
0.128200,-1.044393
0.128300,-0.965844
0.128400,-0.921701
0.128500,-0.956756
0.128600,-0.997653
0.128700,-1.008364
0.128800,-1.040822
0.128900,-1.030436
0.129000,-1.063543
0.129100,-1.070035
0.129200,-1.070035
0.129300,-1.103467
0.129400,-1.124889
0.129500,-1.141768
0.129600,-1.180068
0.129700,-1.177472
0.129800,-1.066789
0.129900,-0.918130
0.130000,-0.934360
0.130100,-1.125214
0.130200,-1.269653
0.130300,-1.330674
0.130400,-1.215448
0.130500,-1.073281
0.130600,-0.996355
0.130700,-1.049262
0.130800,-1.201166
0.130900,-1.236546
0.131000,-1.196622
0.131100,-1.093405
0.131200,-1.021348
0.131300,-1.031734
0.131400,-1.114827
0.131500,-1.145987
0.131600,-1.177796
0.131700,-1.166760
0.131800,-1.153452
0.131900,-1.177796
0.132000,-1.195648
0.132100,-1.218369
0.132200,-1.222264
0.132300,-1.245309
0.132400,-1.313147
0.132500,-1.352097
0.132600,-1.390398
0.132700,-1.338464
0.132800,-1.376440
0.132900,-1.355992
0.133000,-1.596183
0.133100,-1.674083
0.133200,-1.645519
0.133300,-1.546197
0.133400,-1.369300
0.133500,-1.463753
0.133600,-1.588717
0.133700,-1.730560
0.133800,-1.696154
0.133900,-1.568593
0.134000,-1.452717
0.134100,-1.420259
0.134200,-1.496861
0.134300,-1.564049
0.134400,-1.567295
0.134500,-1.567944
0.134600,-1.483877
0.134700,-1.494588
0.134800,-1.451744
0.134900,-1.437462
0.135000,-1.422207
0.135100,-1.414417
0.135200,-1.421882
0.135300,-1.421882
0.135400,-1.378713
0.135500,-1.349500
0.135600,-1.314121
0.135700,-1.296269
0.135800,-1.356316
0.135900,-1.392345
0.136000,-1.364431
0.136100,-1.335219
0.136200,-1.316717
0.136300,-1.346254
0.136400,-1.300813
0.136500,-1.268679
0.136600,-1.266083
0.136700,-1.222913
0.136800,-1.225834
0.136900,-1.171629
0.137000,-1.086589
0.137100,-1.104765
0.137200,-1.021997
0.137300,-1.134951
0.137400,-1.035629
0.137500,-1.207333
0.137600,-1.173577
0.137700,-1.288803
0.137800,-1.218044
0.137900,-1.285557
0.138000,-1.309577
0.138100,-1.385529
0.138200,-1.547495
0.138300,-1.658178
0.138400,-1.613386
0.138500,-1.490369
0.138600,-1.379362
0.138700,-1.502378
0.138800,-1.701997
0.138900,-1.856823
0.139000,-1.842541
0.139100,-1.701997
0.139200,-1.614684
0.139300,-1.647142
0.139400,-1.767887
0.139500,-1.859419
0.139600,-1.865911
0.139700,-1.806837
0.139800,-1.778598
0.139900,-1.737701
0.140000,-1.737376
0.140100,-1.728937
0.140200,-1.749710
0.140300,-1.731858
0.140400,-1.754579
0.140500,-1.749710
0.140600,-1.756527
0.140700,-1.743868
0.140800,-1.750360
0.140900,-1.726665
0.141000,-1.779572
0.141100,-1.782818
0.141200,-1.758799
0.141300,-1.625720
0.141400,-1.547820
0.141500,-1.608842
0.141600,-1.740947
0.141700,-1.853901
0.141800,-1.820794
0.141900,-1.688040
0.142000,-1.567944
0.142100,-1.551715
0.142200,-1.678951
0.142300,-1.825987
0.142400,-1.872727
0.142500,-1.799696
0.142600,-1.715629
0.142700,-1.666293
0.142800,-1.667591
0.142900,-1.677978
0.143000,-1.700374
0.143100,-1.707515
0.143200,-1.689987
0.143300,-1.645519
0.143400,-1.603973
0.143500,-1.532240
0.143600,-1.471868
0.143700,-1.456937
0.143800,-1.455639
0.143900,-1.472192
0.144000,-1.504001
0.144100,-1.447199
0.144200,-1.340736
0.144300,-1.325156
0.144400,-1.331324
0.144500,-1.295295
0.144600,-1.226159
0.144700,-1.194674
0.144800,-1.164164
0.144900,-1.100546
0.145000,-1.076202
0.145100,-1.067114
0.145200,-1.085939
0.145300,-1.091457
0.145400,-1.099896
0.145500,-1.157347
0.145600,-1.150531
0.145700,-1.182989
0.145800,-1.113204
0.145900,-1.175524
0.146000,-1.104765
0.146100,-1.202140
0.146200,-1.139495
0.146300,-1.201815
0.146400,-1.116775
0.146500,-1.039200
0.146600,-0.846073
0.146700,-0.940851
0.146800,-1.165787
0.146900,-1.233624
0.147000,-1.202140
0.147100,-1.102493
0.147200,-0.970388
0.147300,-0.955782
0.147400,-1.061271
0.147500,-1.197920
0.147600,-1.200192
0.147700,-1.112880
0.147800,-1.016803
0.147900,-1.014207
0.148000,-1.056078
0.148100,-1.091133
0.148200,-1.093405
0.148300,-1.071333
0.148400,-1.055104
0.148500,-1.085615
0.148600,-1.079123
0.148700,-1.079772
0.148800,-1.038550
0.148900,-1.069710
0.149000,-1.110608
0.149100,-1.221290
0.149200,-1.216421
0.149300,-1.214474
0.149400,-1.153452
0.149500,-1.150531
0.149600,-1.232975
0.149700,-1.479333
0.149800,-1.529643
0.149900,-1.446226
0.150000,-1.319963
0.150100,-1.260889
0.150200,-1.372546
0.150300,-1.528345
0.150400,-1.629290
0.150500,-1.529319
0.150600,-1.379686
0.150700,-1.305357
0.150800,-1.340087
0.150900,-1.439409
0.151000,-1.462455
0.151100,-1.448173
0.151200,-1.401433
0.151300,-1.365405
0.151400,-1.392670
0.151500,-1.375791
0.151600,-1.359238
0.151700,-1.334569
0.151800,-1.321911
0.151900,-1.371572
0.152000,-1.382608
0.152100,-1.373844
0.152200,-1.345281
0.152300,-1.319314
0.152400,-1.340412
0.152500,-1.430646
0.152600,-1.456612
0.152700,-1.448498
0.152800,-1.427400
0.152900,-1.463104
0.153000,-1.476736
0.153100,-1.393319
0.153200,-1.385204
0.153300,-1.376765
0.153400,-1.355018
0.153500,-1.364431
0.153600,-1.347228
0.153700,-1.320937
0.153800,-1.317042
0.153900,-1.320288
0.154000,-1.342035
0.154100,-1.329051
0.154200,-1.327429
0.154300,-1.314445
0.154400,-1.342684
0.154500,-1.344956
0.154600,-1.355343
0.154700,-1.413118
0.154800,-1.525424
0.154900,-1.708164
0.155000,-1.720823
0.155100,-1.607219
0.155200,-1.481930
0.155300,-1.419610
0.155400,-1.613710
0.155500,-1.811706
0.155600,-1.880193
0.155700,-1.838646
0.155800,-1.665319
0.155900,-1.639028
0.156000,-1.698102
0.156100,-1.838971
0.156200,-1.866885
0.156300,-1.859744
0.156400,-1.790932
0.156500,-1.762045
0.156600,-1.767238
0.156700,-1.761395
0.156800,-1.791582
0.156900,-1.775677
0.157000,-1.778274
0.157100,-1.764966
0.157200,-1.817873
0.157300,-1.834426
0.157400,-1.833453
0.157500,-1.805539
0.157600,-1.824040
0.157700,-1.825663
0.157800,-1.837023
0.157900,-1.747763
0.158000,-1.646169
0.158100,-1.613061
0.158200,-1.676679
0.158300,-1.813978
0.158400,-1.901615
0.158500,-1.808135
0.158600,-1.651362
0.158700,-1.549443
0.158800,-1.611763
0.158900,-1.750684
0.159000,-1.878894
0.159100,-1.862341
0.159200,-1.737701
0.159300,-1.641624
0.159400,-1.603973
0.159500,-1.625071
0.159600,-1.655581
0.159700,-1.654283
0.159800,-1.621176
0.159900,-1.574111
0.160000,-1.521204
0.160100,-1.479333
0.160200,-1.403381
0.160300,-1.347553
0.160400,-1.323209
0.160500,-1.330999
0.160600,-1.323534
0.160700,-1.325806
0.160800,-1.216746
0.160900,-1.165787
0.161000,-1.168708
0.161100,-1.174550
0.161200,-1.098598
0.161300,-1.058674
0.161400,-1.019725
0.161500,-0.983047
0.161600,-0.901577
0.161700,-0.880154
0.161800,-0.899305
0.161900,-0.915534
0.162000,-0.952536
0.162100,-0.947992
0.162200,-0.997978
0.162300,-0.983696
0.162400,-0.979476
0.162500,-0.993109
0.162600,-1.025567
0.162700,-1.018102
0.162800,-1.068412
0.162900,-1.049586
0.163000,-1.107037
0.163100,-0.972011
0.163200,-0.836336
0.163300,-0.692871
0.163400,-0.896383
0.163500,-1.061596
0.163600,-1.082694
0.163700,-1.032383
0.163800,-0.880803
0.163900,-0.767200
0.164000,-0.792517
0.164100,-0.904823
0.164200,-0.989538
0.164300,-0.946044
0.164400,-0.855162
0.164500,-0.762331
0.164600,-0.741882
0.164700,-0.787324
0.164800,-0.814913
0.164900,-0.856784
0.165000,-0.853214
0.165100,-0.836985
0.165200,-0.830169
0.165300,-0.811018
0.165400,-0.806799
0.165500,-0.810045
0.165600,-0.946044
0.165700,-0.911314
0.165800,-0.949615
0.165900,-0.927219
0.166000,-0.895734
0.166100,-0.879181
0.166200,-0.856784
0.166300,-0.997653
0.166400,-1.164164
0.166500,-1.163839
0.166600,-1.066464
0.166700,-0.903849
0.166800,-0.928192
0.166900,-1.037901
0.167000,-1.204412
0.167100,-1.206035
0.167200,-1.112231
0.167300,-0.992784
0.167400,-0.991486
0.167500,-1.069710
0.167600,-1.171304
0.167700,-1.206035
0.167800,-1.219992
0.167900,-1.152803
0.168000,-1.184937
0.168100,-1.184937
0.168200,-1.205061
0.168300,-1.204412
0.168400,-1.198894
0.168500,-1.241414
0.168600,-1.284259
0.168700,-1.308603
0.168800,-1.304383
0.168900,-1.297242
0.169000,-1.298216
0.169100,-1.392670
0.169200,-1.463753
0.169300,-1.504001
0.169400,-1.521853
0.169500,-1.541653
0.169600,-1.605920
0.169700,-1.618254
0.169800,-1.555935
0.169900,-1.556908
0.170000,-1.568593
0.170100,-1.570216
0.170200,-1.585796
0.170300,-1.569567
0.170400,-1.583849
0.170500,-1.596183
0.170600,-1.610789
0.170700,-1.625071
0.170800,-1.638703
0.170900,-1.645844
0.171000,-1.678627
0.171100,-1.681223
0.171200,-1.712059
0.171300,-1.723419
0.171400,-1.756851
0.171500,-1.934073
0.171600,-2.058064
0.171700,-2.034694
0.171800,-1.864288
0.171900,-1.756851
0.172000,-1.833453
0.172100,-1.997692
0.172200,-2.163229
0.172300,-2.175563
0.172400,-2.072995
0.172500,-1.979840
0.172600,-1.967505
0.172700,-2.069425
0.172800,-2.142456
0.172900,-2.164852
0.173000,-2.131095
0.173100,-2.072670
0.173200,-2.039238
0.173300,-2.030475
0.173400,-2.050599
0.173500,-2.051572
0.173600,-2.014895
0.173700,-2.013921
0.173800,-1.998016
0.173900,-2.031124
0.174000,-2.023658
0.174100,-1.994446
0.174200,-1.960365
0.174300,-1.963286
0.174400,-1.965233
0.174500,-1.949978
0.174600,-1.821768
0.174700,-1.739973
0.174800,-1.766264
0.174900,-1.824364
0.175000,-1.947057
0.175100,-1.948355
0.175200,-1.828259
0.175300,-1.665319
0.175400,-1.647467
0.175500,-1.755553
0.175600,-1.890579
0.175700,-1.939916
0.175800,-1.868183
0.175900,-1.755228
0.176000,-1.683171
0.176100,-1.689663
0.176200,-1.717901
0.176300,-1.709787
0.176400,-1.681223
0.176500,-1.636106
0.176600,-1.544250
0.176700,-1.478359
0.176800,-1.416364
0.176900,-1.343982
0.177000,-1.307304
0.177100,-1.293997
0.177200,-1.306331
0.177300,-1.312498
0.177400,-1.253099
0.177500,-1.157023
0.177600,-1.148259
0.177700,-1.130732
0.177800,-1.118722
0.177900,-1.048612
0.178000,-1.035629
0.178100,-0.977529
0.178200,-0.937605
0.178300,-0.880803
0.178400,-0.841854
0.178500,-0.889243
0.178600,-0.920727
0.178700,-0.921376
0.178800,-0.973634
0.178900,-0.975581
0.179000,-0.992460
0.179100,-1.015180
0.179200,-1.012259
0.179300,-1.013882
0.179400,-1.033682
0.179500,-1.066464
0.179600,-1.081395
0.179700,-1.043419
0.179800,-0.919429
0.179900,-0.756164
0.180000,-0.731171
0.180100,-0.970064
0.180200,-1.114503
0.180300,-1.096001
0.180400,-0.976555
0.180500,-0.828546
0.180600,-0.752594
0.180700,-0.852565
0.180800,-0.935658
0.180900,-0.953185
0.181000,-0.870092
0.181100,-0.737014
0.181200,-0.682159
0.181300,-0.693195
0.181400,-0.750322
0.181500,-0.755190
0.181600,-0.761033
0.181700,-0.743181
0.181800,-0.746102
0.181900,-0.749997
0.182000,-0.777586
0.182100,-0.756813
0.182200,-0.767849
0.182300,-0.790894
0.182400,-0.824326
0.182500,-0.853214
0.182600,-0.873663
0.182700,-0.844450
0.182800,-0.833090
0.182900,-0.829520
0.183000,-1.086913
0.183100,-1.120020
0.183200,-1.098923
0.183300,-0.968116
0.183400,-0.887620
0.183500,-0.963896
0.183600,-1.125538
0.183700,-1.253424
0.183800,-1.225834
0.183900,-1.067438
0.184000,-0.990188
0.184100,-1.000899
0.184200,-1.109309
0.184300,-1.186235
0.184400,-1.179094
0.184500,-1.195973
0.184600,-1.116126
0.184700,-1.146636
0.184800,-1.115801
0.184900,-1.111906
0.185000,-1.101844
0.185100,-1.128135
0.185200,-1.150856
0.185300,-1.174550
0.185400,-1.170655
0.185500,-1.145338
0.185600,-1.128784
0.185700,-1.204736
0.185800,-1.284584
0.185900,-1.324832
0.186000,-1.357290
0.186100,-1.333920
0.186200,-1.366378
0.186300,-1.403056
0.186400,-1.377414
0.186500,-1.381309
0.186600,-1.381958
0.186700,-1.383257
0.186800,-1.375467
0.186900,-1.393643
0.187000,-1.397214
0.187100,-1.395266
0.187200,-1.396889
0.187300,-1.404679
0.187400,-1.409872
0.187500,-1.417013
0.187600,-1.434541
0.187700,-1.448822
0.187800,-1.492641
0.187900,-1.471219
0.188000,-1.540679
0.188100,-1.626369
0.188200,-1.799047
0.188300,-1.908756
0.188400,-1.796450
0.188500,-1.691935
0.188600,-1.609815
0.188700,-1.761395
0.188800,-1.962961
0.188900,-2.074618
0.189000,-2.055792
0.189100,-1.934398
0.189200,-1.872727
0.189300,-1.901615
0.189400,-2.049625
0.189500,-2.142456
0.189600,-2.144728
0.189700,-2.110971
0.189800,-2.106752
0.189900,-2.063257
0.190000,-2.085005
0.190100,-2.107076
0.190200,-2.142131
0.190300,-2.128174
0.190400,-2.125577
0.190500,-2.156737
0.190600,-2.159009
0.190700,-2.180757
0.190800,-2.151544
0.190900,-2.183353
0.191000,-2.254761
0.191100,-2.257034
0.191200,-2.215811
0.191300,-2.104155
0.191400,-2.033071
0.191500,-2.111620
0.191600,-2.233664
0.191700,-2.347917
0.191800,-2.297606
0.191900,-2.134666
0.192000,-2.022685
0.192100,-2.025281
0.192200,-2.174265
0.192300,-2.302475
0.192400,-2.312862
0.192500,-2.217434
0.192600,-2.130446
0.192700,-2.096689
0.192800,-2.112269
0.192900,-2.146675
0.193000,-2.164527
0.193100,-2.162904
0.193200,-2.130446
0.193300,-2.051897
0.193400,-2.008727
0.193500,-1.957119
0.193600,-1.871429
0.193700,-1.853252
0.193800,-1.854226
0.193900,-1.868832
0.194000,-1.852603
0.194100,-1.777949
0.194200,-1.705892
0.194300,-1.679601
0.194400,-1.667591
0.194500,-1.586770
0.194600,-1.529319
0.194700,-1.499133
0.194800,-1.424479
0.194900,-1.334245
0.195000,-1.289777
0.195100,-1.254073
0.195200,-1.269977
0.195300,-1.219992
0.195400,-1.228756
0.195500,-1.219343
0.195600,-1.227133
0.195700,-1.190779
0.195800,-1.164488
0.195900,-1.155725
0.196000,-1.177796
0.196100,-1.180068
0.196200,-1.216097
0.196300,-1.219992
0.196400,-1.087238
0.196500,-1.009338
0.196600,-0.849644
0.196700,-0.933386
0.196800,-1.166111
0.196900,-1.194025
0.197000,-1.158970
0.197100,-1.028813
0.197200,-0.922350
0.197300,-0.894436
0.197400,-0.998302
0.197500,-1.090484
0.197600,-1.074579
0.197700,-0.971037
0.197800,-0.854837
0.197900,-0.827247
0.198000,-0.861004
0.198100,-0.879830
0.198200,-0.881777
0.198300,-0.880479
0.198400,-0.856784
0.198500,-0.839582
0.198600,-0.814913
0.198700,-0.798684
0.198800,-0.779534
0.198900,-0.799658
0.199000,-0.855486
0.199100,-0.858407
0.199200,-0.875286
0.199300,-0.820756
0.199400,-0.793491
0.199500,-0.775964
0.199600,-0.877558
0.199700,-1.019400
0.199800,-0.999276
0.199900,-0.940851
0.200000,-0.750971
0.200100,-0.765901
0.200200,-0.855486
0.200300,-1.039524
0.200400,-1.053157
0.200500,-0.993758
0.200600,-0.848670
0.200700,-0.670474
0.200800,-0.833739
0.200900,-0.944097
0.201000,-0.963572
0.201100,-0.955133
0.201200,-0.892813
0.201300,-0.817510
0.201400,-0.680212
0.201500,-0.451706
0.201600,-0.366666
0.201700,-0.160881
0.201800,-0.319277
0.201900,-0.490007
0.202000,-0.652622
0.202100,-0.526035
0.202200,-0.393606
0.202300,-0.231315
0.202400,-0.651649
0.202500,-1.149233
0.202600,-1.224861
0.202700,-1.251476
0.202800,-1.246608
0.202900,-1.283935
0.203000,-1.322884
0.203100,-1.263486
0.203200,-1.270951
0.203300,-1.260565
0.203400,-1.269653
0.203500,-1.280040
0.203600,-1.281662
0.203700,-1.289777
0.203800,-1.305682
0.203900,-1.319314
0.204000,-1.318340
0.204100,-1.328078
0.204200,-1.323209
0.204300,-1.334245
0.204400,-1.332622
0.204500,-1.350798
0.204600,-1.377414
0.204700,-1.396889
0.204800,-1.538732
0.204900,-1.657854
0.205000,-1.683820
0.205100,-1.539705
0.205200,-1.423830
0.205300,-1.429997
0.205400,-1.604622
0.205500,-1.776651
0.205600,-1.837348
0.205700,-1.706216
0.205800,-1.562426
0.205900,-1.527047
0.206000,-1.628966
0.206100,-1.738350
0.206200,-1.809109
0.206300,-1.764641
0.206400,-1.722121
0.206500,-1.673758
0.206600,-1.700049
0.206700,-1.712708
0.206800,-1.742894
0.206900,-1.726990
0.207000,-1.722445
0.207100,-1.701997
0.207200,-1.743219
0.207300,-1.774703
0.207400,-1.762045
0.207500,-1.705567
0.207600,-1.719524
0.207700,-1.746789
0.207800,-1.749061
0.207900,-1.674407
0.208000,-1.562102
0.208100,-1.528670
0.208200,-1.602999
0.208300,-1.747763
0.208400,-1.800994
0.208500,-1.702321
0.208600,-1.529968
0.208700,-1.458560
0.208800,-1.530942
0.208900,-1.677328
0.209000,-1.782169
0.209100,-1.750684
0.209200,-1.623772
0.209300,-1.536784
0.209400,-1.497185
0.209500,-1.543276
0.209600,-1.552689
0.209700,-1.543925
0.209800,-1.503352
0.209900,-1.459534
0.210000,-1.376440
0.210100,-1.327753
0.210200,-1.263486
0.210300,-1.175524
0.210400,-1.137548
0.210500,-1.133328
0.210600,-1.151180
0.210700,-1.130083
0.210800,-1.011285
0.210900,-0.984994
0.211000,-0.986293
0.211100,-0.966169
0.211200,-0.918455
0.211300,-0.901252
0.211400,-0.851591
0.211500,-0.806799
0.211600,-0.747076
0.211700,-0.724680
0.211800,-0.729548
0.211900,-0.758761
0.212000,-0.765252
0.212100,-0.788622
0.212200,-0.796737
0.212300,-0.798035
0.212400,-0.792193
0.212500,-0.765577
0.212600,-0.810694
0.212700,-0.818159
0.212800,-0.839257
0.212900,-0.862951
0.213000,-0.839582
0.213100,-0.765577
0.213200,-0.564336
0.213300,-0.506885
0.213400,-0.660412
0.213500,-0.898655
0.213600,-0.911639
0.213700,-0.827572
0.213800,-0.662684
0.213900,-0.575047
0.214000,-0.612374
0.214100,-0.768498
0.214200,-0.849319
0.214300,-0.807448
0.214400,-0.676966
0.214500,-0.607181
0.214600,-0.597443
0.214700,-0.656517
0.214800,-0.716240
0.214900,-0.724680
0.215000,-0.723381
0.215100,-0.706503
0.215200,-0.712995
0.215300,-0.731820
0.215400,-0.735715
0.215500,-0.809071
0.215600,-0.840555
0.215700,-0.930140
0.215800,-0.897682
0.215900,-0.961300
0.216000,-0.894111
0.216100,-0.923648
0.216200,-0.901901
0.216300,-1.131705
0.216400,-1.240765
0.216500,-1.249529
0.216600,-1.153777
0.216700,-1.006741
0.216800,-1.046665
0.216900,-1.180068
0.217000,-1.357615
0.217100,-1.353720
0.217200,-1.263486
0.217300,-1.130732
0.217400,-1.110932
0.217500,-1.211553
0.217600,-1.302760
0.217700,-1.335543
0.217800,-1.349825
0.217900,-1.293997
0.218000,-1.336517
0.218100,-1.339114
0.218200,-1.358588
0.218300,-1.392670
0.218400,-1.408250
0.218500,-1.465376
0.218600,-1.517958
0.218700,-1.548469
0.218800,-1.556259
0.218900,-1.551390
0.219000,-1.573462
0.219100,-1.704593
0.219200,-1.756851
0.219300,-1.781520
0.219400,-1.773405
0.219500,-1.794503
0.219600,-1.833453
0.219700,-1.831505
0.219800,-1.774054
0.219900,-1.747763
0.220000,-1.721796
0.220100,-1.710760
0.220200,-1.711085
0.220300,-1.705243
0.220400,-1.673433
0.220500,-1.679601
0.220600,-1.680250
0.220700,-1.663371
0.220800,-1.643247
0.220900,-1.631238
0.221000,-1.651037
0.221100,-1.678302
0.221200,-1.664994
0.221300,-1.700698
0.221400,-1.691935
0.221500,-1.881816
0.221600,-1.965233
0.221700,-1.963610
0.221800,-1.788660
0.221900,-1.687715
0.222000,-1.752307
0.222100,-1.955496
0.222200,-2.071047
0.222300,-2.077215
0.222400,-1.923362
0.222500,-1.805863
0.222600,-1.813978
0.222700,-1.913625
0.222800,-1.985033
0.222900,-1.976918
0.223000,-1.927257
0.223100,-1.893501
0.223200,-1.825014
0.223300,-1.811381
0.223400,-1.795152
0.223500,-1.808784
0.223600,-1.793204
0.223700,-1.788660
0.223800,-1.787362
0.223900,-1.793204
0.224000,-1.752632
0.224100,-1.774054
0.224200,-1.735753
0.224300,-1.747763
0.224400,-1.746789
0.224500,-1.707515
0.224600,-1.569892
0.224700,-1.483877
0.224800,-1.477386
0.224900,-1.550417
0.225000,-1.647142
0.225100,-1.612737
0.225200,-1.470245
0.225300,-1.314121
0.225400,-1.283285
0.225500,-1.364756
0.225600,-1.492316
0.225700,-1.526398
0.225800,-1.445901
0.225900,-1.349825
0.226000,-1.303734
0.226100,-1.288479
0.226200,-1.313147
0.226300,-1.306655
0.226400,-1.278092
0.226500,-1.242388
0.226600,-1.185911
0.226700,-1.142417
0.226800,-1.052507
0.226900,-0.981749
0.227000,-0.945395
0.227100,-0.939228
0.227200,-0.935333
0.227300,-0.927543
0.227400,-0.854188
0.227500,-0.750322
0.227600,-0.730522
0.227700,-0.730522
0.227800,-0.707477
0.227900,-0.639639
0.228000,-0.598417
0.228100,-0.572775
0.228200,-0.501692
0.228300,-0.443592
0.228400,-0.438074
0.228500,-0.427363
0.228600,-0.453329
0.228700,-0.456575
0.228800,-0.495849
0.228900,-0.501692
0.229000,-0.513701
0.229100,-0.512403
0.229200,-0.558169
0.229300,-0.541940
0.229400,-0.631200
0.229500,-0.660088
0.229600,-0.743830
0.229700,-0.647754
0.229800,-0.629252
0.229900,-0.386790
0.230000,-0.536422
0.230100,-0.789271
0.230200,-0.900278
0.230300,-0.946369
0.230400,-0.848021
0.230500,-0.751295
0.230600,-0.726302
0.230700,-0.832765
0.230800,-0.970388
0.230900,-1.016154
0.231000,-0.957080
0.231100,-0.864250
0.231200,-0.886321
0.231300,-0.923973
0.231400,-0.995381
0.231500,-1.011285
0.231600,-1.012259
0.231700,-1.016803
0.231800,-1.061596
0.231900,-1.075877
0.232000,-1.100221
0.232100,-1.087562
0.232200,-1.101195
0.232300,-1.158970
0.232400,-1.241414
0.232500,-1.217071
0.232600,-1.244660
0.232700,-1.157023
0.232800,-1.172278
0.232900,-1.192727
0.233000,-1.409548
0.233100,-1.458884
0.233200,-1.416040
0.233300,-1.214799
0.233400,-1.160918
0.233500,-1.239467
0.233600,-1.382932
0.233700,-1.463104
0.233800,-1.401109
0.233900,-1.258617
0.234000,-1.151830
0.234100,-1.174875
0.234200,-1.270951
0.234300,-1.292698
0.234400,-1.262188
0.234500,-1.253748
0.234600,-1.211228
0.234700,-1.249853
0.234800,-1.211228
0.234900,-1.198894
0.235000,-1.174875
0.235100,-1.181691
0.235200,-1.240765
0.235300,-1.269977
0.235400,-1.251801
0.235500,-1.245634
0.235600,-1.227782
0.235700,-1.239467
0.235800,-1.317691
0.235900,-1.343333
0.236000,-1.356316
0.236100,-1.319963
0.236200,-1.345605
0.236300,-1.370598
0.236400,-1.301137
0.236500,-1.277443
0.236600,-1.275171
0.236700,-1.262188
0.236800,-1.247581
0.236900,-1.235572
0.237000,-1.259266
0.237100,-1.190779
0.237200,-1.245309
0.237300,-1.229405
0.237400,-1.269328
0.237500,-1.241739
0.237600,-1.173252
0.237700,-1.220316
0.237800,-1.270627
0.237900,-1.266083
0.238000,-1.306980
0.238100,-1.427725
0.238200,-1.601701
0.238300,-1.686092
0.238400,-1.530942
0.238500,-1.384555
0.238600,-1.359238
0.238700,-1.547820
0.238800,-1.742245
0.238900,-1.821119
0.239000,-1.767562
0.239100,-1.620202
0.239200,-1.571839
0.239300,-1.604947
0.239400,-1.743219
0.239500,-1.797749
0.239600,-1.767562
0.239700,-1.718226
0.239800,-1.693233
0.239900,-1.666617
0.240000,-1.655581
0.240100,-1.687066
0.240200,-1.668240
0.240300,-1.667916
0.240400,-1.654283
0.240500,-1.688040
0.240600,-1.746789
0.240700,-1.757825
0.240800,-1.717901
0.240900,-1.719849
0.241000,-1.743543
0.241100,-1.773730
0.241200,-1.741271
0.241300,-1.621176
0.241400,-1.600727
0.241500,-1.634159
0.241600,-1.765290
0.241700,-1.879544
0.241800,-1.828909
0.241900,-1.684469
0.242000,-1.609815
0.242100,-1.670837
0.242200,-1.812030
0.242300,-1.940890
0.242400,-1.943811
0.242500,-1.853577
0.242600,-1.784765
0.242700,-1.771457
0.242800,-1.808460
0.242900,-1.841892
0.243000,-1.870780
0.243100,-1.871429
0.243200,-1.834102
0.243300,-1.764966
0.243400,-1.723095
0.243500,-1.667591
0.243600,-1.639352
0.243700,-1.648116
0.243800,-1.668565
0.243900,-1.697777
0.244000,-1.667266
0.244100,-1.597481
0.244200,-1.584498
0.244300,-1.580278
0.244400,-1.568918
0.244500,-1.495238
0.244600,-1.469920
0.244700,-1.434216
0.244800,-1.372870
0.244900,-1.299839
0.245000,-1.253424
0.245100,-1.224861
0.245200,-1.260240
0.245300,-1.256345
0.245400,-1.281338
0.245500,-1.272899
0.245600,-1.281013
0.245700,-1.286207
0.245800,-1.280364
0.245900,-1.276145
0.246000,-1.268679
0.246100,-1.324832
0.246200,-1.302436
0.246300,-1.317042
0.246400,-1.171954
0.246500,-1.089834
0.246600,-0.867171
0.246700,-1.101195
0.246800,-1.204412
0.246900,-1.295944
0.247000,-1.177796
0.247100,-1.058674
0.247200,-0.911963
0.247300,-0.919753
0.247400,-1.048612
0.247500,-1.121968
0.247600,-1.094379
0.247700,-0.993758
0.247800,-0.896059
0.247900,-0.874636
0.248000,-0.891839
0.248100,-0.927219
0.248200,-0.929166
0.248300,-0.894761
0.248400,-0.882102
0.248500,-0.862627
0.248600,-0.848021
0.248700,-0.840880
0.248800,-0.804851
0.248900,-0.862627
0.249000,-0.894761
0.249100,-0.908393
0.249200,-0.964870
0.249300,-0.935333
0.249400,-0.895085
0.249500,-0.864899
0.249600,-0.978827
0.249700,-1.190455
0.249800,-1.159295
0.249900,-1.102493
0.250000,-0.904498
0.250100,-0.941825
0.250200,-1.028488
0.250300,-1.189481
0.250400,-1.176822
0.250500,-1.089185
0.250600,-0.936632
0.250700,-0.891190
0.250800,-0.943123
0.250900,-1.034006
0.251000,-1.026216
0.251100,-0.995056
0.251200,-0.968765
0.251300,-0.869443
0.251400,-0.835687
0.251500,-0.532527
0.251600,-0.355305
0.251700,-0.200805
0.251800,-0.250790
0.251900,-0.322847
0.252000,-0.324470
0.252100,-0.140432
0.252200,0.049773
0.252300,0.268865
0.252400,0.020885
0.252500,-0.491630
0.252600,-0.530580
0.252700,-0.565634
0.252800,-0.342322
0.252900,-0.597119
0.253000,-0.473453
0.253100,-0.056690
0.253200,0.068598
0.253300,0.267567
0.253400,0.266918
0.253500,0.319500
0.253600,0.495423
0.253700,0.426612
0.253800,0.465237
0.253900,0.337352
0.254000,0.512950
0.254100,0.533724
0.254200,0.561638
0.254300,0.416225
0.254400,0.299700
0.254500,0.211739
0.254600,-0.094017
0.254700,-0.365692
0.254800,-1.239467
0.254900,-1.388775
0.255000,-1.394617
0.255100,-1.221290
0.255200,-1.012908
0.255300,-1.168383
0.255400,-1.400784
0.255500,-1.540030
0.255600,-1.599429
0.255700,-1.465376
0.255800,-1.357939
0.255900,-1.348202
0.256000,-1.460183
0.256100,-1.565023
0.256200,-1.619228
0.256300,-1.584498
0.256400,-1.530617
0.256500,-1.505624
0.256600,-1.509519
0.256700,-1.531266
0.256800,-1.539705
0.256900,-1.516660
0.257000,-1.532240
0.257100,-1.533863
0.257200,-1.566321
0.257300,-1.609815
0.257400,-1.590340
0.257500,-1.565347
0.257600,-1.566970
0.257700,-1.599429
0.257800,-1.610140
0.257900,-1.513090
0.258000,-1.426426
0.258100,-1.446226
0.258200,-1.553663
0.258300,-1.684469
0.258400,-1.759772
0.258500,-1.632536
0.258600,-1.488746
0.258700,-1.453042
0.258800,-1.556584
0.258900,-1.715954
0.259000,-1.778274
0.259100,-1.716928
0.259200,-1.603324
0.259300,-1.527696
0.259400,-1.535161
0.259500,-1.545548
0.259600,-1.569567
0.259700,-1.547495
0.259800,-1.510493
0.259900,-1.470569
0.260000,-1.436164
0.260100,-1.364431
0.260200,-1.309901
0.260300,-1.233624
0.260400,-1.220316
0.260500,-1.227782
0.260600,-1.246932
0.260700,-1.215448
0.260800,-1.098273
0.260900,-1.072307
0.261000,-1.065815
0.261100,-1.050884
0.261200,-0.997978
0.261300,-0.952536
0.261400,-0.917481
0.261500,-0.837959
0.261600,-0.786999
0.261700,-0.792517
0.261800,-0.827897
0.261900,-0.833090
0.262000,-0.866197
0.262100,-0.890866
0.262200,-0.962274
0.262300,-0.913586
0.262400,-0.951238
0.262500,-0.929166
0.262600,-0.924622
0.262700,-0.944746
0.262800,-0.969090
0.262900,-1.047639
0.263000,-1.012259
0.263100,-0.898655
0.263200,-0.747400
0.263300,-0.634446
0.263400,-0.899629
0.263500,-0.936632
0.263600,-1.069710
0.263700,-0.921376
0.263800,-0.788947
0.263900,-0.711047
0.264000,-0.786026
0.264100,-0.927543
0.264200,-1.002197
0.264300,-0.947992
0.264400,-0.830818
0.264500,-0.770770
0.264600,-0.806799
0.264700,-0.875935
0.264800,-0.903200
0.264900,-0.916508
0.265000,-0.882426
0.265100,-0.872040
0.265200,-0.880803
0.265300,-0.908393
0.265400,-0.915209
0.265500,-0.907419
0.265600,-0.979152
0.265700,-1.003171
0.265800,-1.052832
0.265900,-1.085615
0.266000,-1.033357
0.266100,-1.002197
0.266200,-0.987591
0.266300,-1.160269
0.266400,-1.242063
0.266500,-1.188507
0.266600,-1.060947
0.266700,-0.910990
0.266800,-1.012584
0.266900,-1.148908
0.267000,-1.317042
0.267100,-1.290102
0.267200,-1.161242
0.267300,-1.034331
0.267400,-1.033032
0.267500,-1.151180
0.267600,-1.239142
0.267700,-1.219992
0.267800,-1.212851
0.267900,-1.144689
0.268000,-1.178770
0.268100,-1.152803
0.268200,-1.147610
0.268300,-1.122942
0.268400,-1.102168
0.268500,-1.101195
0.268600,-1.120670
0.268700,-1.105414
0.268800,-0.977854
0.268900,-0.692871
0.269000,-0.529281
0.269100,-0.946044
0.269200,-1.281013
0.269300,-1.158321
0.269400,-0.902875
0.269500,-0.775964
0.269600,-0.906770
0.269700,-0.637367
0.269800,-0.204699
0.269900,-0.044356
0.270000,0.086775
0.270100,0.324044
0.270200,0.380521
0.270300,0.668750
0.270400,0.917055
0.270500,1.118944
0.270600,1.304930
0.270700,1.407173
0.270800,1.676900
0.270900,1.664242
0.271000,1.936241
0.271100,1.836270
0.271200,1.900213
0.271300,1.673005
0.271400,1.049808
0.271500,0.014393
0.271600,-0.863925
0.271700,-0.467286
0.271800,0.271462
0.271900,0.968988
0.272000,0.202001
0.272100,-1.110283
0.272200,-1.267056
0.272300,-1.238493
0.272400,-1.134627
0.272500,-1.013558
0.272600,-1.046665
0.272700,-1.147935
0.272800,-1.232001
0.272900,-1.250827
0.273000,-1.187209
0.273100,-1.133978
0.273200,-1.106063
0.273300,-1.106063
0.273400,-1.145013
0.273500,-1.146312
0.273600,-1.145987
0.273700,-1.121968
0.273800,-1.160918
0.273900,-1.211553
0.274000,-1.181367
0.274100,-1.183963
0.274200,-1.237844
0.274300,-1.267056
0.274400,-1.297567
0.274500,-1.257968
0.274600,-1.172603
0.274700,-1.109309
0.274800,-1.189806
0.274900,-1.336841
0.275000,-1.479009
0.275100,-1.466674
0.275200,-1.366054
0.275300,-1.258293
0.275400,-1.275820
0.275500,-1.410846
0.275600,-1.587744
0.275700,-1.647791
0.275800,-1.581577
0.275900,-1.491667
0.276000,-1.435190
0.276100,-1.438760
0.276200,-1.476412
0.276300,-1.494264
0.276400,-1.514388
0.276500,-1.489395
0.276600,-1.400784
0.276700,-1.374818
0.276800,-1.300164
0.276900,-1.241414
0.277000,-1.212202
0.277100,-1.203438
0.277200,-1.195648
0.277300,-1.212526
0.277400,-1.123266
0.277500,-1.043744
0.277600,-1.051534
0.277700,-1.048937
0.277800,-0.987916
0.277900,-0.963247
0.278000,-0.924947
0.278100,-0.874961
0.278200,-0.817835
0.278300,-0.735391
0.278400,-0.729224
0.278500,-0.745453
0.278600,-0.739935
0.278700,-0.759410
0.278800,-0.784727
0.278900,-0.754217
0.279000,-0.743505
0.279100,-0.735391
0.279200,-0.734417
0.279300,-0.762331
0.279400,-0.766875
0.279500,-0.816861
0.279600,-0.797061
0.279700,-0.768174
0.279800,-0.580565
0.279900,-0.440995
0.280000,-0.467611
0.280100,-0.687353
0.280200,-0.791219
0.280300,-0.734092
0.280400,-0.610102
0.280500,-0.469234
0.280600,-0.428012
0.280700,-0.540966
0.280800,-0.659114
0.280900,-0.678589
0.281000,-0.581539
0.281100,-0.506236
0.281200,-0.483515
0.281300,-0.507859
0.281400,-0.571152
0.281500,-0.599066
0.281600,-0.596470
0.281700,-0.613023
0.281800,-0.599391
0.281900,-0.594522
0.282000,-0.593548
0.282100,-0.589329
0.282200,-0.614971
0.282300,-0.701310
0.282400,-0.742207
0.282500,-0.777911
0.282600,-0.807123
0.282700,-0.754541
0.282800,-0.785701
0.282900,-0.816861
0.283000,-1.058674
0.283100,-1.085615
0.283200,-1.049262
0.283300,-0.935009
0.283400,-0.846398
0.283500,-0.984021
0.283600,-1.133328
0.283700,-1.217071
0.283800,-1.145987
0.283900,-1.025243
0.284000,-0.952212
0.284100,-0.984670
0.284200,-1.097949
0.284300,-1.116126
0.284400,-1.151505
0.284500,-1.118398
0.284600,-1.115152
0.284700,-1.126512
0.284800,-1.126837
0.284900,-1.130407
0.285000,-1.133004
0.285100,-1.148259
0.285200,-1.199543
0.285300,-1.238818
0.285400,-1.235572
0.285500,-1.228106
0.285600,-1.208307
0.285700,-1.248230
0.285800,-1.324183
0.285900,-1.371896
0.286000,-1.372546
0.286100,-1.346579
0.286200,-1.373195
0.286300,-1.411171
0.286400,-1.343982
0.286500,-1.335543
0.286600,-1.294646
0.286700,-1.302436
0.286800,-1.291725
0.286900,-1.287180
0.287000,-1.283935
0.287100,-1.242388
0.287200,-1.273223
0.287300,-1.035954
0.287400,-1.242713
0.287500,-1.194674
0.287600,-1.170655
0.287700,-1.116775
0.287800,-1.375791
0.287900,-1.286856
0.288000,-1.274522
0.288100,-1.358264
0.288200,-1.521529
0.288300,-1.522827
0.288400,-1.406302
0.288500,-1.252125
0.288600,-1.237519
0.288700,-1.357939
0.288800,-1.519257
0.288900,-1.596183
0.289000,-1.484202
0.289100,-1.382283
0.289200,-1.308278
0.289300,-1.408250
0.289400,-1.498483
0.289500,-1.571190
0.289600,-1.564049
0.289700,-1.515362
0.289800,-1.516011
0.289900,-1.502378
0.290000,-1.531915
0.290100,-1.535161
0.290200,-1.564698
0.290300,-1.574111
0.290400,-1.618254
0.290500,-1.635457
0.290600,-1.640651
0.290700,-1.658503
0.290800,-1.644221
0.290900,-1.672460
0.291000,-1.709787
0.291100,-1.702970
0.291200,-1.619877
0.291300,-1.510818
0.291400,-1.452068
0.291500,-1.540355
0.291600,-1.664670
0.291700,-1.744842
0.291800,-1.661099
0.291900,-1.490694
0.292000,-1.393319
0.292100,-1.452393
0.292200,-1.632211
0.292300,-1.718226
0.292400,-1.678302
0.292500,-1.566321
0.292600,-1.483877
0.292700,-1.457911
0.292800,-1.458884
0.292900,-1.442655
0.293000,-1.422856
0.293100,-1.407276
0.293200,-1.392670
0.293300,-1.309901
0.293400,-1.239467
0.293500,-1.131381
0.293600,-1.041472
0.293700,-0.966818
0.293800,-0.944097
0.293900,-0.943772
0.294000,-0.902875
0.294100,-0.779209
0.294200,-0.712345
0.294300,-0.699687
0.294400,-0.688002
0.294500,-0.582837
0.294600,-0.546484
0.294700,-0.505262
0.294800,-0.457549
0.294900,-0.376403
0.295000,-0.347515
0.295100,-0.349788
0.295200,-0.355955
0.295300,-0.379000
0.295400,-0.419573
0.295500,-0.482866
0.295600,-0.490331
0.295700,-0.494876
0.295800,-0.497797
0.295900,-0.529606
0.296000,-0.541940
0.296100,-0.660412
0.296200,-0.642885
0.296300,-0.706503
0.296400,-0.551028
0.296500,-0.471181
0.296600,-0.334208
0.296700,-0.583162
0.296800,-0.780508
0.296900,-0.773691
0.297000,-0.740909
0.297100,-0.606207
0.297200,-0.526035
0.297300,-0.557520
0.297400,-0.688651
0.297500,-0.766551
0.297600,-0.723381
0.297700,-0.664307
0.297800,-0.580565
0.297900,-0.589004
0.298000,-0.611076
0.298100,-0.666904
0.298200,-0.716565
0.298300,-0.712995
0.298400,-0.713319
0.298500,-0.734742
0.298600,-0.738961
0.298700,-0.738637
0.298800,-0.750646
0.298900,-0.813290
0.299000,-0.829844
0.299100,-0.865224
0.299200,-0.852240
0.299300,-0.825300
0.299400,-0.750971
0.299500,-0.749672
0.299600,-0.873014
0.299700,-1.038226
0.299800,-1.031734
0.299900,-0.924622
0.300000,-0.787648
0.300100,-0.824002
0.300200,-0.960326
0.300300,-1.148908
0.300400,-1.170980
0.300500,-1.083343
0.300600,-0.941825
0.300700,-0.924947
0.300800,-1.030436
0.300900,-1.167734
0.301000,-1.195648
0.301100,-1.231677
0.301200,-1.185911
0.301300,-1.211553
0.301400,-1.216421
0.301500,-1.234923
0.301600,-1.238493
0.301700,-1.253748
0.301800,-1.291725
0.301900,-1.335868
0.302000,-1.346579
0.302100,-1.357939
0.302200,-1.349825
0.302300,-1.342359
0.302400,-1.412145
0.302500,-1.464727
0.302600,-1.463429
0.302700,-1.455639
0.302800,-1.466674
0.302900,-1.524125
0.303000,-1.529643
0.303100,-1.467648
0.303200,-1.469920
0.303300,-1.474140
0.303400,-1.475763
0.303500,-1.487772
0.303600,-1.479333
0.303700,-1.508546
0.303800,-1.508870
0.303900,-1.537433
0.304000,-1.534512
0.304100,-1.537109
0.304200,-1.539056
0.304300,-1.567620
0.304400,-1.596832
0.304500,-1.586770
0.304600,-1.627343
0.304700,-1.652336
0.304800,-1.839295
0.304900,-1.980813
0.305000,-1.935696
0.305100,-1.790608
0.305200,-1.667591
0.305300,-1.718875
0.305400,-1.927582
0.305500,-2.073969
0.305600,-2.077539
0.305700,-1.969453
0.305800,-1.849033
0.305900,-1.844813
0.306000,-1.891228
0.306100,-1.987954
0.306200,-1.998990
0.306300,-1.967181
0.306400,-1.887983
0.306500,-1.861691
0.306600,-1.823715
0.306700,-1.830207
0.306800,-1.844489
0.306900,-1.853577
0.307000,-1.847085
0.307100,-1.844813
0.307200,-1.914923
0.307300,-1.919792
0.307400,-1.881491
0.307500,-1.876947
0.307600,-1.889930
0.307700,-1.911028
0.307800,-1.893501
0.307900,-1.733157
0.308000,-1.676030
0.308100,-1.681223
0.308200,-1.820794
0.308300,-1.951601
0.308400,-1.960365
0.308500,-1.858446
0.308600,-1.702970
0.308700,-1.674732
0.308800,-1.774703
0.308900,-1.916871
0.309000,-1.971725
0.309100,-1.866560
0.309200,-1.770808
0.309300,-1.686417
0.309400,-1.656555
0.309500,-1.664345
0.309600,-1.644870
0.309700,-1.624097
0.309800,-1.577357
0.309900,-1.494588
0.310000,-1.438436
0.310100,-1.355667
0.310200,-1.262512
0.310300,-1.181367
0.310400,-1.160269
0.310500,-1.130083
0.310600,-1.128135
0.310700,-1.047314
0.310800,-0.919429
0.310900,-0.866846
0.311000,-0.816212
0.311100,-0.775314
0.311200,-0.686703
0.311300,-0.614971
0.311400,-0.551677
0.311500,-0.445215
0.311600,-0.341998
0.311700,-0.314733
0.311800,-0.329988
0.311900,-0.338427
0.312000,-0.332909
0.312100,-0.371210
0.312200,-0.399449
0.312300,-0.400422
0.312400,-0.442618
0.312500,-0.447811
0.312600,-0.494226
0.312700,-0.504938
0.312800,-0.565634
0.312900,-0.597119
0.313000,-0.606532
0.313100,-0.447811
0.313200,-0.381597
0.313300,-0.360499
0.313400,-0.592575
0.313500,-0.759085
0.313600,-0.802904
0.313700,-0.663983
0.313800,-0.567582
0.313900,-0.497472
0.314000,-0.588031
0.314100,-0.713644
0.314200,-0.768498
0.314300,-0.723381
0.314400,-0.634121
0.314500,-0.572126
0.314600,-0.594198
0.314700,-0.635744
0.314800,-0.667553
0.314900,-0.697739
0.315000,-0.716890
0.315100,-0.724680
0.315200,-0.725329
0.315300,-0.744804
0.315400,-0.771419
0.315500,-0.749672
0.315600,-0.892164
0.315700,-0.882751
0.315800,-0.946369
0.315900,-0.944097
0.316000,-0.857758
0.316100,-0.860679
0.316200,-0.908393
0.316300,-1.094379
0.316400,-1.136250
0.316500,-1.103142
0.316600,-0.922675
0.316700,-0.871066
0.316800,-0.876584
0.316900,-1.022321
0.317000,-1.140145
0.317100,-1.098923
0.317200,-0.977854
0.317300,-0.870092
0.317400,-0.795438
0.317500,-0.950913
0.317600,-0.994732
0.317700,-0.974283
0.317800,-0.969414
0.317900,-0.797061
0.318000,-0.796412
0.318100,-0.391009
0.318200,-0.207296
0.318300,0.096512
0.318400,0.096837
0.318500,0.017314
0.318600,0.118584
0.318700,0.439920
0.318800,0.690172
0.318900,0.938152
0.319000,1.154648
0.319100,0.804100
0.319200,0.681733
0.319300,0.751843
0.319400,0.983269
0.319500,1.159842
0.319600,0.967689
0.319700,1.345178
0.319800,1.676576
0.319900,1.941110
0.320000,2.087821
0.320100,2.096909
0.320200,2.276403
0.320300,2.451028
0.320400,2.542560
0.320500,2.593195
0.320600,2.716212
0.320700,2.709396
0.320800,2.739582
0.320900,2.607477
0.321000,2.448756
0.321100,2.316976
0.321200,2.149816
0.321300,1.965778
0.321400,1.008262
0.321500,-0.297530
0.321600,-0.965195
0.321700,-0.704231
0.321800,0.090670
0.321900,0.341571
0.322000,-0.436126
0.322100,-1.203438
0.322200,-1.301787
0.322300,-1.261214
0.322400,-1.169032
0.322500,-1.090159
0.322600,-1.159295
0.322700,-1.208307
0.322800,-1.284259
0.322900,-1.298216
0.323000,-1.268030
0.323100,-1.252450
0.323200,-1.219992
0.323300,-1.219018
0.323400,-1.240765
0.323500,-1.272250
0.323600,-1.260889
0.323700,-1.236546
0.323800,-1.305032
0.323900,-1.353395
0.324000,-1.313147
0.324100,-1.314121
0.324200,-1.339438
0.324300,-1.359887
0.324400,-1.383581
0.324500,-1.307629
0.324600,-1.194674
0.324700,-1.113853
0.324800,-1.155075
0.324900,-1.279390
0.325000,-1.341710
0.325100,-1.259266
0.325200,-1.128460
0.325300,-0.991486
0.325400,-0.986942
0.325500,-1.085290
0.325600,-1.160918
0.325700,-1.169357
0.325800,-1.080421
0.325900,-0.966169
0.326000,-0.922025
0.326100,-0.933386
0.326200,-0.954159
0.326300,-0.964870
0.326400,-0.952536
0.326500,-0.934360
0.326600,-0.894761
0.326700,-0.873338
0.326800,-0.844450
0.326900,-0.850617
0.327000,-0.864574
0.327100,-0.942799
0.327200,-1.001873
0.327300,-1.036278
0.327400,-1.025243
0.327500,-1.007066
0.327600,-1.047963
0.327700,-1.079448
0.327800,-1.053481
0.327900,-1.075228
0.328000,-1.066464
0.328100,-1.020698
0.328200,-0.956431
0.328300,-0.950913
0.328400,-0.960002
0.328500,-1.001548
0.328600,-1.022970
0.328700,-1.031734
0.328800,-1.083667
0.328900,-1.096651
0.329000,-1.107686
0.329100,-1.146961
0.329200,-1.122293
0.329300,-1.180068
0.329400,-1.164164
0.329500,-1.221290
0.329600,-1.160593
0.329700,-1.141443
0.329800,-0.919104
0.329900,-0.849644
0.330000,-0.880479
0.330100,-1.146312
0.330200,-1.164488
0.330300,-1.092431
0.330400,-1.027190
0.330500,-0.921052
0.330600,-0.940851
0.330700,-1.043744
0.330800,-1.161892
0.330900,-1.197271
0.331000,-1.122293
0.331100,-1.065815
0.331200,-1.057376
0.331300,-1.091133
0.331400,-1.146312
0.331500,-1.211228
0.331600,-1.269653
0.331700,-1.291725
0.331800,-1.290426
0.331900,-1.339114
0.332000,-1.354369
0.332100,-1.381634
0.332200,-1.448173
0.332300,-1.503028
0.332400,-1.529319
0.332500,-1.539705
0.332600,-1.504001
0.332700,-1.453042
0.332800,-1.388450
0.332900,-1.525748
0.333000,-1.620851
0.333100,-1.617605
0.333200,-1.485825
0.333300,-1.301137
0.333400,-1.285882
0.333500,-1.338140
0.333600,-1.476412
0.333700,-1.484202
0.333800,-1.383906
0.333900,-1.225510
0.334000,-1.127810
0.334100,-1.140794
0.334200,-1.196297
0.334300,-1.211228
0.334400,-1.190455
0.334500,-1.115476
0.334600,-1.098273
0.334700,-1.091133
0.334800,-1.024593
0.334900,-0.982398
0.335000,-0.732794
0.335100,-0.871715
0.335200,-0.946044
0.335300,-0.831142
0.335400,-0.684431
0.335500,-0.528957
0.335600,-0.317329
0.335700,-0.553300
0.335800,-0.848670
0.335900,-0.856784
0.336000,-0.713968
0.336100,-0.687028
0.336200,-0.692221
0.336300,-0.777911
0.336400,-0.225797
0.336500,-0.179382
0.336600,-0.017091
0.336700,0.021534
0.336800,0.050746
0.336900,0.097161
0.337000,0.243548
0.337100,0.147472
0.337200,0.247767
0.337300,0.247767
0.337400,0.285094
0.337500,0.244197
0.337600,0.048474
0.337700,-0.012872
0.337800,-0.341024
0.337900,-0.652622
0.338000,-1.058350
0.338100,-1.336192
0.338200,-1.530617
0.338300,-1.558531
0.338400,-1.434216
0.338500,-1.343658
0.338600,-1.340736
0.338700,-1.545873
0.338800,-1.733157
0.338900,-1.760746
0.339000,-1.694856
0.339100,-1.578655
0.339200,-1.539056
0.339300,-1.591639
0.339400,-1.686092
0.339500,-1.711410
0.339600,-1.672460
0.339700,-1.633834
0.339800,-1.536460
0.339900,-1.503677
0.340000,-1.467648
0.340100,-1.494913
0.340200,-1.441357
0.340300,-1.375467
0.340400,-1.367677
0.340500,-1.389424
0.340600,-1.357939
0.340700,-1.299839
0.340800,-1.289777
0.340900,-1.301787
0.341000,-1.304708
0.341100,-1.266407
0.341200,-1.136250
0.341300,-0.990837
0.341400,-1.001223
0.341500,-1.073930
0.341600,-1.234923
0.341700,-1.238168
0.341800,-1.153128
0.341900,-1.051534
0.342000,-0.978503
0.342100,-1.040173
0.342200,-1.167409
0.342300,-1.259591
0.342400,-1.265109
0.342500,-1.170331
0.342600,-1.097300
0.342700,-1.052832
0.342800,-1.075877
0.342900,-1.119047
0.343000,-1.131705
0.343100,-1.142741
0.343200,-1.105090
0.343300,-1.075228
0.343400,-1.035629
0.343500,-0.980775
0.343600,-0.954159
0.343700,-0.934035
0.343800,-0.942149
0.343900,-0.967791
0.344000,-0.942149
0.344100,-0.859056
0.344200,-0.809720
0.344300,-0.801605
0.344400,-0.826598
0.344500,-0.736365
0.344600,-0.714293
0.344700,-0.665930
0.344800,-0.623410
0.344900,-0.541615
0.345000,-0.537071
0.345100,-0.562713
0.345200,-0.559792
0.345300,-0.581214
0.345400,-0.596470
0.345500,-0.622436
0.345600,-0.629252
0.345700,-0.630551
0.345800,-0.608479
0.345900,-0.628603
0.346000,-0.626980
0.346100,-0.700011
0.346200,-0.704231
0.346300,-0.705854
0.346400,-0.576995
0.346500,-0.442942
0.346600,-0.328365
0.346700,-0.586408
0.346800,-0.737987
0.346900,-0.747400
0.347000,-0.657167
0.347100,-0.542914
0.347200,-0.436126
0.347300,-0.470857
0.347400,-0.573100
0.347500,-0.639964
0.347600,-0.627305
0.347700,-0.540966
0.347800,-0.480269
0.347900,-0.507534
0.348000,-0.548432
0.348100,-0.592575
0.348200,-0.635744
0.348300,-0.642885
0.348400,-0.652298
0.348500,-0.636718
0.348600,-0.656842
0.348700,-0.667229
0.348800,-0.653272
0.348900,-0.691572
0.349000,-0.721434
0.349100,-0.733768
0.349200,-0.725653
0.349300,-0.641262
0.349400,-0.636718
0.349500,-0.582513
0.349600,-0.767200
0.349700,-0.855811
0.349800,-0.806150
0.349900,-0.689949
0.350000,-0.320251
0.350100,-0.605233
0.350200,-0.760708
0.350300,-0.906770
0.350400,-0.911963
0.350500,-0.817510
0.350600,-0.357253
0.350700,0.185448
0.350800,-0.280652
0.350900,-0.568231
0.351000,-0.576995
0.351100,-0.599391
0.351200,-0.202427
0.351300,-0.131993
0.351400,0.009524
0.351500,0.187395
0.351600,0.335404
0.351700,0.361046
0.351800,0.164999
0.351900,-0.092394
0.352000,-0.058962
0.352100,-0.072595
0.352200,0.061782
0.352300,0.097486
0.352400,-0.465014
0.352500,-0.932412
0.352600,-1.097949
0.352700,-0.901252
0.352800,-0.885672
0.352900,-1.181042
0.353000,-1.079448
0.353100,-0.624708
0.353200,-0.403993
0.353300,-0.241053
0.353400,0.000112
0.353500,0.353906
0.353600,0.615843
0.353700,0.833312
0.353800,1.078372
0.353900,1.413989
0.354000,1.740518
0.354100,2.134236
0.354200,2.359821
0.354300,2.562685
0.354400,2.445835
0.354500,2.565281
0.354600,2.343592
0.354700,2.086847
0.354800,0.998849
0.354900,0.047825
0.355000,0.000761
0.355100,0.746325
0.355200,1.371793
0.355300,0.606755
0.355400,-1.496211
0.355500,-1.217395
0.355600,-1.277118
0.355700,-1.176498
0.355800,-1.093080
0.355900,-1.155075
0.356000,-1.263486
0.356100,-1.393319
0.356200,-1.416364
0.356300,-1.411820
0.356400,-1.344307
0.356500,-1.382932
0.356600,-1.427725
0.356700,-1.430970
0.356800,-1.469271
0.356900,-1.486474
0.357000,-1.499782
0.357100,-1.506273
0.357200,-1.568269
0.357300,-1.613710
0.357400,-1.611438
0.357500,-1.624097
0.357600,-1.671811
0.357700,-1.696154
0.357800,-1.686092
0.357900,-1.561777
0.358000,-1.516660
0.358100,-1.569892
0.358200,-1.720173
0.358300,-1.820469
0.358400,-1.848059
0.358500,-1.701023
0.358600,-1.570216
0.358700,-1.554636
0.358800,-1.695505
0.358900,-1.845462
0.359000,-1.889281
0.359100,-1.822417
0.359200,-1.705892
0.359300,-1.628641
0.359400,-1.631238
0.359500,-1.661424
0.359600,-1.684794
0.359700,-1.675056
0.359800,-1.653634
0.359900,-1.600402
0.360000,-1.585472
0.360100,-1.555610
0.360200,-1.504975
0.360300,-1.492316
0.360400,-1.528020
0.360500,-1.564698
0.360600,-1.591639
0.360700,-1.541328
0.360800,-1.483228
0.360900,-1.479009
0.361000,-1.465376
0.361100,-1.461481
0.361200,-1.416364
0.361300,-1.364106
0.361400,-1.319963
0.361500,-1.240441
0.361600,-1.181691
0.361700,-1.157997
0.361800,-1.166111
0.361900,-1.150207
0.362000,-1.151180
0.362100,-1.166436
0.362200,-1.177796
0.362300,-1.095677
0.362400,-1.101195
0.362500,-1.053806
0.362600,-1.030111
0.362700,-1.013882
0.362800,-1.004145
0.362900,-1.014207
0.363000,-0.931438
0.363100,-0.799333
0.363200,-0.616594
0.363300,-0.595496
0.363400,-0.820431
0.363500,-0.871715
0.363600,-0.878856
0.363700,-0.772069
0.363800,-0.627954
0.363900,-0.550379
0.364000,-0.609778
0.364100,-0.709100
0.364200,-0.700336
0.364300,-0.590627
0.364400,-0.480594
0.364500,-0.410484
0.364600,-0.417625
0.364700,-0.443916
0.364800,-0.463391
0.364900,-0.433205
0.365000,-0.429959
0.365100,-0.429310
0.365200,-0.439048
0.365300,-0.446513
0.365400,-0.479296
0.365500,-0.524088
0.365600,-0.575047
0.365700,-0.628603
0.365800,-0.667229
0.365900,-0.683133
0.366000,-0.608804
0.366100,-0.576995
0.366200,-0.625682
0.366300,-0.770446
0.366400,-0.809071
0.366500,-0.674369
0.366600,-0.129397
0.366700,0.590201
0.366800,0.745026
0.366900,-0.090122
0.367000,-0.326418
0.367100,0.325667
0.367200,1.555182
0.367300,2.664603
0.367400,2.812613
0.367500,2.471152
0.367600,2.259200
0.367700,2.416298
0.367800,2.680508
0.367900,2.974904
0.368000,2.998923
0.368100,3.175496
0.368200,3.304356
0.368300,3.390046
0.368400,3.461779
0.368500,3.471516
0.368600,3.357912
0.368700,3.453989
0.368800,3.598104
0.368900,3.676653
0.369000,3.520853
0.369100,2.854809
0.369200,2.597739
0.369300,2.528603
0.369400,2.437071
0.369500,2.125148
0.369600,1.790179
0.369700,1.902809
0.369800,1.744089
0.369900,1.463001
0.370000,1.183861
0.370100,0.820654
0.370200,0.611623
0.370300,0.313333
0.370400,0.079634
0.370500,-0.011249
0.370600,-0.237807
0.370700,-0.374456
0.370800,-0.502666
0.370900,-0.587057
0.371000,-0.842827
0.371100,-0.889243
0.371200,-1.232651
0.371300,-1.229729
0.371400,-1.372870
0.371500,-1.554636
0.371600,-1.620202
0.371700,-1.498808
0.371800,-1.307954
0.371900,-1.247581
0.372000,-1.351772
0.372100,-1.537433
0.372200,-1.603324
0.372300,-1.499133
0.372400,-1.329051
0.372500,-1.249853
0.372600,-1.256994
0.372700,-1.349825
0.372800,-1.355667
0.372900,-1.355667
0.373000,-1.246283
0.373100,-1.169682
0.373200,-1.137548
0.373300,-1.095677
0.373400,-1.093080
0.373500,-1.078799
0.373600,-1.072307
0.373700,-1.061920
0.373800,-1.090808
0.373900,-1.168059
0.374000,-1.160593
0.374100,-1.164488
0.374200,-1.217720
0.374300,-1.277767
0.374400,-1.334245
0.374500,-1.310226
0.374600,-1.212526
0.374700,-1.199868
0.374800,-1.271276
0.374900,-1.440059
0.375000,-1.525748
0.375100,-1.517958
0.375200,-1.400460
0.375300,-1.328402
0.375400,-1.413118
0.375500,-1.563075
0.375600,-1.728288
0.375700,-1.751658
0.375800,-1.692259
0.375900,-1.632536
0.376000,-1.596183
0.376100,-1.606569
0.376200,-1.625720
0.376300,-1.635782
0.376400,-1.633510
0.376500,-1.578980
0.376600,-1.497834
0.376700,-1.441682
0.376800,-1.376116
0.376900,-1.320288
0.377000,-1.302436
0.377100,-1.296918
0.377200,-1.303734
0.377300,-1.282312
0.377400,-1.196946
0.377500,-1.156374
0.377600,-1.130732
0.377700,-1.103142
0.377800,-1.012584
0.377900,-0.975257
0.378000,-0.924622
0.378100,-0.869443
0.378200,-0.774341
0.378300,-0.727276
0.378400,-0.696441
0.378500,-0.706178
0.378600,-0.652622
0.378700,-0.629252
0.378800,-0.590627
0.378900,-0.517921
0.379000,-0.479296
0.379100,-0.438398
0.379200,-0.450083
0.379300,-0.349138
0.379400,-0.373157
0.379500,-0.284547
0.379600,-0.283573
0.379700,-0.162179
0.379800,-0.012547
0.379900,0.132865
0.380000,0.007902
0.380100,-0.220929
0.380200,-0.202427
0.380300,-0.163802
0.380400,-0.035268
0.380500,0.105601
0.380600,0.113066
0.380700,0.006603
0.380800,-0.081683
0.380900,-0.077139
0.381000,-0.016442
0.381100,0.028675
0.381200,0.017314
0.381300,-0.043707
0.381400,-0.116738
0.381500,-0.200480
0.381600,-0.257282
0.381700,-0.337129
0.381800,-0.382570
0.381900,-0.449434
0.382000,-0.510456
0.382100,-0.555248
0.382200,-0.613997
0.382300,-0.740909
0.382400,-0.781481
0.382500,-0.806474
0.382600,-0.796088
0.382700,-0.766875
0.382800,-0.770770
0.382900,-0.910016
0.383000,-1.087562
0.383100,-1.071009
0.383200,-0.983371
0.383300,-0.842178
0.383400,-0.886971
0.383500,-0.968116
0.383600,-1.120670
0.383700,-1.161567
0.383800,-1.071658
0.383900,-0.955133
0.384000,-0.914560
0.384100,-0.979801
0.384200,-1.045691
0.384300,-1.045367
0.384400,-1.064842
0.384500,-1.048612
0.384600,-1.052832
0.384700,-1.066140
0.384800,-1.075553
0.384900,-1.064192
0.385000,-1.107362
0.385100,-1.145338
0.385200,-1.187209
0.385300,-1.200841
0.385400,-1.223887
0.385500,-1.240765
0.385600,-1.261214
0.385700,-1.315744
0.385800,-1.413118
0.385900,-1.434216
0.386000,-1.470894
0.386100,-1.484202
0.386200,-1.537109
0.386300,-1.556259
0.386400,-1.502378
0.386500,-1.501729
0.386600,-1.510493
0.386700,-1.516985
0.386800,-1.522503
0.386900,-1.529968
0.387000,-1.542951
0.387100,-1.534188
0.387200,-1.590989
0.387300,-1.593911
0.387400,-1.628316
0.387500,-1.629615
0.387600,-1.653959
0.387700,-1.721147
0.387800,-1.741596
0.387900,-1.821768
0.388000,-1.888632
0.388100,-2.104479
0.388200,-2.247621
0.388300,-2.278131
0.388400,-2.184002
0.388500,-2.083706
0.388600,-2.112269
0.388700,-2.246971
0.388800,-2.430361
0.388900,-2.415430
0.389000,-2.310590
0.389100,-2.196986
0.389200,-2.127849
0.389300,-2.200881
0.389400,-2.230093
0.389500,-2.257358
0.389600,-2.170370
0.389700,-2.077864
0.389800,-2.013596
0.389900,-1.979840
0.390000,-1.927257
0.390100,-1.890579
0.390200,-1.850656
0.390300,-1.797099
0.390400,-1.779247
0.390500,-1.754255
0.390600,-1.759772
0.390700,-1.723095
0.390800,-1.692908
0.390900,-1.708488
0.391000,-1.748412
0.391100,-1.726340
0.391200,-1.627018
0.391300,-1.505624
0.391400,-1.497185
0.391500,-1.580278
0.391600,-1.690312
0.391700,-1.690312
0.391800,-1.589367
0.391900,-1.441357
0.392000,-1.409548
0.392100,-1.479982
0.392200,-1.584498
0.392300,-1.639677
0.392400,-1.565672
0.392500,-1.468946
0.392600,-1.408574
0.392700,-1.360861
0.392800,-1.352421
0.392900,-1.362159
0.393000,-1.331648
0.393100,-1.306980
0.393200,-1.246608
0.393300,-1.178770
0.393400,-1.102493
0.393500,-1.047963
0.393600,-1.000574
0.393700,-0.995381
0.393800,-1.015180
0.393900,-1.007066
0.394000,-0.981099
0.394100,-0.908718
0.394200,-0.887944
0.394300,-0.897033
0.394400,-0.890866
0.394500,-0.848345
0.394600,-0.813615
0.394700,-0.771419
0.394800,-0.722407
0.394900,-0.694493
0.395000,-0.691248
0.395100,-0.730847
0.395200,-0.763629
0.395300,-0.772069
0.395400,-0.842827
0.395500,-0.858083
0.395600,-0.922999
0.395700,-0.922675
0.395800,-0.964546
0.395900,-0.973959
0.396000,-1.015180
0.396100,-1.030436
0.396200,-1.081395
0.396300,-1.025243
0.396400,-0.944422
0.396500,-0.771095
0.396600,-0.746427
0.396700,-0.885672
0.396800,-1.063543
0.396900,-1.005768
0.397000,-0.931763
0.397100,-0.758761
0.397200,-0.644832
0.397300,-0.653596
0.397400,-0.718837
0.397500,-0.754866
0.397600,-0.669501
0.397700,-0.535124
0.397800,-0.435802
0.397900,-0.445215
0.398000,-0.478322
0.398100,-0.479620
0.398200,-0.444890
0.398300,-0.432556
0.398400,-0.416002
0.398500,-0.395229
0.398600,-0.386465
0.398700,-0.388088
0.398800,-0.408537
0.398900,-0.450083
0.399000,-0.516298
0.399100,-0.562389
0.399200,-0.570503
0.399300,-0.538694
0.399400,-0.522140
0.399500,-0.587381
0.399600,-0.808097
0.399700,-0.919753
0.399800,-0.912937
0.399900,-0.804527
0.400000,-0.765577
0.400100,-0.846722
0.400200,-1.023620
0.400300,-1.159944
0.400400,-1.168708
0.400500,-1.070684
0.400600,-0.996679
0.400700,-1.016803
0.400800,-1.146312
0.400900,-1.247257
0.401000,-1.228756
0.401100,-1.283935
0.401200,-1.265109
0.401300,-1.307304
0.401400,-1.294646
0.401500,-1.282312
0.401600,-1.284908
0.401700,-1.311524
0.401800,-1.351772
0.401900,-1.390398
0.402000,-1.390073
0.402100,-1.369300
0.402200,-1.335543
0.402300,-1.331973
0.402400,-1.386503
0.402500,-1.437787
0.402600,-1.425128
0.402700,-1.389748
0.402800,-1.379362
0.402900,-1.400460
0.403000,-1.330350
0.403100,-1.297567
0.403200,-1.243037
0.403300,-1.247581
0.403400,-1.108660
0.403500,-1.072631
0.403600,-1.049262
0.403700,-0.997328
0.403800,-0.966493
0.403900,-0.882426
0.404000,-0.912288
0.404100,-0.961300
0.404200,-1.106713
0.404300,-1.144040
0.404400,-1.340736
0.404500,-1.270302
0.404600,-1.320937
0.404700,-1.372870
0.404800,-1.587095
0.404900,-1.683496
0.405000,-1.675706
0.405100,-1.541004
0.405200,-1.519906
0.405300,-1.604297
0.405400,-1.798722
0.405500,-1.958093
0.405600,-1.972050
0.405700,-1.877596
0.405800,-1.800994
0.405900,-1.863639
0.406000,-1.961014
0.406100,-2.092470
0.406200,-2.114542
0.406300,-2.115515
0.406400,-2.066179
0.406500,-2.110647
0.406600,-2.124279
0.406700,-2.131744
0.406800,-2.162904
0.406900,-2.181730
0.407000,-2.175563
0.407100,-2.198284
0.407200,-2.270341
0.407300,-2.275535
0.407400,-2.257683
0.407500,-2.272289
0.407600,-2.302151
0.407700,-2.315783
0.407800,-2.284623
0.407900,-2.126876
0.408000,-2.061310
0.408100,-2.113568
0.408200,-2.264499
0.408300,-2.335583
0.408400,-2.283000
0.408500,-2.174914
0.408600,-2.060661
0.408700,-2.072995
0.408800,-2.199907
0.408900,-2.332337
0.409000,-2.387516
0.409100,-2.320652
0.409200,-2.246647
0.409300,-2.206399
0.409400,-2.214189
0.409500,-2.253788
0.409600,-2.270341
0.409700,-2.267420
0.409800,-2.227821
0.409900,-2.133367
0.410000,-2.053195
0.410100,-1.967505
0.410200,-1.868832
0.410300,-1.791257
0.410400,-1.751009
0.410500,-1.723744
0.410600,-1.682846
0.410700,-1.562426
0.410800,-1.454016
0.410900,-1.395915
0.411000,-1.330999
0.411100,-1.237519
0.411200,-1.171629
0.411300,-1.077500
0.411400,-0.972660
0.411500,-0.864899
0.411600,-0.793491
0.411700,-0.763305
0.411800,-0.753243
0.411900,-0.721434
0.412000,-0.733768
0.412100,-0.712670
0.412200,-0.711372
0.412300,-0.688326
0.412400,-0.659763
0.412500,-0.671773
0.412600,-0.655868
0.412700,-0.692221
0.412800,-0.659763
0.412900,-0.691897
0.413000,-0.573100
0.413100,-0.434503
0.413200,-0.246571
0.413300,-0.276757
0.413400,-0.505587
0.413500,-0.519868
0.413600,-0.511105
0.413700,-0.356928
0.413800,-0.217034
0.413900,-0.146275
0.414000,-0.205998
0.414100,-0.310189
0.414200,-0.275783
0.414300,-0.198532
0.414400,-0.051497
0.414500,0.002059
0.414600,-0.022285
0.414700,-0.049874
0.414800,-0.059936
0.414900,-0.043382
0.415000,-0.033645
0.415100,0.015691
0.415200,0.302622
0.415300,0.445113
0.415400,0.598315
0.415500,0.485361
0.415600,0.240951
0.415700,0.326965
0.415800,0.230889
0.415900,0.412330
0.416000,0.840129
0.416100,1.032606
0.416200,0.607404
0.416300,-0.527334
0.416400,-0.539343
0.416500,-0.258580
0.416600,0.782353
0.416700,0.933933
0.416800,0.490230
0.416900,-0.929166
0.417000,-0.745128
0.417100,-0.700011
0.417200,0.219529
0.417300,0.790792
0.417400,0.655766
0.417500,-0.050523
0.417600,-0.494226
0.417700,-0.376728
0.417800,-0.307916
0.417900,0.029973
0.418000,-0.108623
0.418100,-0.083955
0.418200,0.010174
0.418300,-0.045654
0.418400,-0.174513
0.418500,-0.300776
0.418600,-0.527334
0.418700,-0.539668
0.418800,-0.612050
0.418900,-0.498771
0.419000,-0.929491
0.419100,-1.275495
0.419200,-1.330999
0.419300,-1.353395
0.419400,-1.378713
0.419500,-1.442006
0.419600,-1.510818
0.419700,-1.477710
0.419800,-1.513414
0.419900,-1.541328
0.420000,-1.566321
0.420100,-1.605920
0.420200,-1.621825
0.420300,-1.642274
0.420400,-1.652985
0.420500,-1.650713
0.420600,-1.680899
0.420700,-1.675381
0.420800,-1.699725
0.420900,-1.720173
0.421000,-1.751333
0.421100,-1.762045
0.421200,-1.772107
0.421300,-1.813653
0.421400,-1.938942
0.421500,-2.083382
0.421600,-2.149921
0.421700,-2.019763
0.421800,-1.910379
0.421900,-1.852603
0.422000,-2.025606
0.422100,-2.205100
0.422200,-2.234313
0.422300,-2.140184
0.422400,-2.018465
0.422500,-1.943162
0.422600,-2.025606
0.422700,-2.110322
0.422800,-2.184327
0.422900,-2.149272
0.423000,-2.103181
0.423100,-2.033396
0.423200,-2.032422
0.423300,-2.085329
0.423400,-2.084355
0.423500,-2.105129
0.423600,-2.098962
0.423700,-2.115191
0.423800,-2.161282
0.423900,-2.201530
0.424000,-2.173291
0.424100,-2.178809
0.424200,-2.182704
0.424300,-2.220356
0.424400,-2.204776
0.424500,-2.151544
0.424600,-2.000938
0.424700,-1.964584
0.424800,-2.005157
0.424900,-2.134017
0.425000,-2.167449
0.425100,-2.078837
0.425200,-1.864288
0.425300,-1.752956
0.425400,-1.810083
0.425500,-1.944460
0.425600,-2.071697
0.425700,-2.061635
0.425800,-1.979190
0.425900,-1.916871
0.426000,-1.922064
0.426100,-1.996393
0.426200,-2.091172
0.426300,-2.141157
0.426400,-2.133692
0.426500,-2.126227
0.426600,-2.105453
0.426700,-2.102207
0.426800,-2.071697
0.426900,-2.047028
0.427000,-2.071372
0.427100,-2.119735
0.427200,-2.132069
0.427300,-2.167449
0.427400,-2.071372
0.427500,-2.047353
0.427600,-2.028852
0.427700,-2.026255
0.427800,-1.948680
0.427900,-1.893176
0.428000,-1.827610
0.428100,-1.775352
0.428200,-1.642923
0.428300,-1.594884
0.428400,-1.556259
0.428500,-1.534512
0.428600,-1.513414
0.428700,-1.497834
0.428800,-1.472192
0.428900,-1.390073
0.429000,-1.354693
0.429100,-1.315419
0.429200,-1.293997
0.429300,-1.235572
0.429400,-1.265758
0.429500,-1.205386
0.429600,-1.210579
0.429700,-1.027190
0.429800,-0.942474
0.429900,-0.732470
0.430000,-0.970064
0.430100,-1.079123
0.430200,-1.114503
0.430300,-1.027839
0.430400,-0.905472
0.430500,-0.803553
0.430600,-0.842827
0.430700,-0.947018
0.430800,-1.026541
0.430900,-0.996355
0.431000,-0.900928
0.431100,-0.801281
0.431200,-0.778236
0.431300,-0.818159
0.431400,-0.857109
0.431500,-0.877233
0.431600,-0.883076
0.431700,-0.873663
0.431800,-0.884049
0.431900,-0.883725
0.432000,-0.900603
0.432100,-0.935333
0.432200,-0.972660
0.432300,-1.027515
0.432400,-1.090808
0.432500,-1.126188
0.432600,-1.145987
0.432700,-1.144689
0.432800,-1.199868
0.432900,-1.358913
0.433000,-1.561128
0.433100,-1.578980
0.433200,-1.459534
0.433300,-1.366054
0.433400,-1.411495
0.433500,-1.565347
0.433600,-1.763018
0.433700,-1.769510
0.433800,-1.718875
0.433900,-1.552689
0.434000,-1.533214
0.434100,-1.613710
0.434200,-1.704269
0.434300,-1.712059
0.434400,-1.720173
0.434500,-1.674083
0.434600,-1.671161
0.434700,-1.647467
0.434800,-1.649090
0.434900,-1.628316
0.435000,-1.592288
0.435100,-1.616956
0.435200,-1.649739
0.435300,-1.654283
0.435400,-1.611763
0.435500,-1.593586
0.435600,-1.573787
0.435700,-1.632536
0.435800,-1.714331
0.435900,-1.737052
0.436000,-1.737052
0.436100,-1.737052
0.436200,-1.784441
0.436300,-1.778274
0.436400,-1.709138
0.436500,-1.690961
0.436600,-1.703295
0.436700,-1.705243
0.436800,-1.691286
0.436900,-1.690312
0.437000,-1.687391
0.437100,-1.707190
0.437200,-1.686741
0.437300,-1.683496
0.437400,-1.698102
0.437500,-1.707190
0.437600,-1.751982
0.437700,-1.770808
0.437800,-1.834751
0.437900,-1.885061
0.438000,-1.918818
0.438100,-2.117138
0.438200,-2.238208
0.438300,-2.254761
0.438400,-2.092145
0.438500,-2.047028
0.438600,-2.066179
0.438700,-2.315459
0.438800,-2.520595
0.438900,-2.511182
0.439000,-2.437177
0.439100,-2.340451
0.439200,-2.337530
0.439300,-2.432958
0.439400,-2.506963
0.439500,-2.559870
0.439600,-2.572204
0.439700,-2.497874
0.439800,-2.480672
0.439900,-2.433282
0.440000,-2.472881
0.440100,-2.469311
0.440200,-2.495278
0.440300,-2.509559
0.440400,-2.525139
0.440500,-2.520920
0.440600,-2.576748
0.440700,-2.560194
0.440800,-2.573502
0.440900,-2.582266
0.441000,-2.602715
0.441100,-2.594600
0.441200,-2.454056
0.441300,-2.332337
0.441400,-2.345320
0.441500,-2.487488
0.441600,-2.599794
0.441700,-2.616672
0.441800,-2.473855
0.441900,-2.300203
0.442000,-2.261253
0.442100,-2.368690
0.442200,-2.481970
0.442300,-2.534228
0.442400,-2.449511
0.442500,-2.343697
0.442600,-2.285597
0.442700,-2.270991
0.442800,-2.295984
0.442900,-2.291115
0.443000,-2.272938
0.443100,-2.250217
0.443200,-2.207697
0.443300,-2.155439
0.443400,-2.069425
0.443500,-1.973673
0.443600,-1.914274
0.443700,-1.897720
0.443800,-1.897720
0.443900,-1.905510
0.444000,-1.846761
0.444100,-1.783792
0.444200,-1.786064
0.444300,-1.784441
0.444400,-1.763992
0.444500,-1.702321
0.444600,-1.672460
0.444700,-1.631887
0.444800,-1.569242
0.444900,-1.522178
0.445000,-1.480307
0.445100,-1.453042
0.445200,-1.442980
0.445300,-1.425452
0.445400,-1.430646
0.445500,-1.392670
0.445600,-1.370273
0.445700,-1.300813
0.445800,-1.287505
0.445900,-1.211553
0.446000,-1.224211
0.446100,-1.151830
0.446200,-1.169357
0.446300,-1.106388
0.446400,-0.959352
0.446500,-0.734742
0.446600,-0.753243
0.446700,-0.968441
0.446800,-1.070035
0.446900,-1.083343
0.447000,-1.026865
0.447100,-0.894761
0.447200,-0.841529
0.447300,-0.942799
0.447400,-1.077176
0.447500,-1.158321
0.447600,-1.111257
0.447700,-1.037252
0.447800,-1.017128
0.447900,-1.050884
0.448000,-1.101519
0.448100,-1.179744
0.448200,-1.223238
0.448300,-1.266732
0.448400,-1.295619
0.448500,-1.360211
0.448600,-1.393319
0.448700,-1.449147
0.448800,-1.580927
0.448900,-1.605596
0.449000,-1.675381
0.449100,-1.755228
0.449200,-1.817224
0.449300,-1.828909
0.449400,-1.811706
0.449500,-1.859095
0.449600,-2.121358
0.449700,-2.228146
0.449800,-2.206399
0.449900,-2.051572
0.450000,-1.978217
0.450100,-2.064556
0.450200,-2.270341
0.450300,-2.412834
0.450400,-2.369339
0.450500,-2.212566
0.450600,-2.128174
0.450700,-2.147324
0.450800,-2.262551
0.450900,-2.303449
0.451000,-2.286895
0.451100,-2.268394
0.451200,-2.238208
0.451300,-2.284299
0.451400,-2.274561
0.451500,-2.259306
0.451600,-2.253463
0.451700,-2.255411
0.451800,-2.294361
0.451900,-2.329416
0.452000,-2.326819
0.452100,-2.334284
0.452200,-2.304747
0.452300,-2.319354
0.452400,-2.408289
0.452500,-2.449187
0.452600,-2.443994
0.452700,-2.416079
0.452800,-2.427764
0.452900,-2.453082
0.453000,-2.383946
0.453100,-2.364146
0.453200,-2.340451
0.453300,-2.338829
0.453400,-2.306046
0.453500,-2.272938
0.453600,-2.245998
0.453700,-2.231716
0.453800,-2.225549
0.453900,-2.233664
0.454000,-2.237234
0.454100,-2.255411
0.454200,-2.253139
0.454300,-2.262551
0.454400,-2.269692
0.454500,-2.274236
0.454600,-2.299229
0.454700,-2.423220
0.454800,-2.586161
0.454900,-2.670228
0.455000,-2.541044
0.455100,-2.402771
0.455200,-2.334934
0.455300,-2.492357
0.455400,-2.663087
0.455500,-2.763384
0.455600,-2.716644
0.455700,-2.582915
0.455800,-2.500471
0.455900,-2.525464
0.456000,-2.632252
0.456100,-2.694572
0.456200,-2.696520
0.456300,-2.642963
0.456400,-2.595250
0.456500,-2.520271
0.456600,-2.542992
0.456700,-2.545588
0.456800,-2.522543
0.456900,-2.505664
0.457000,-2.484891
0.457100,-2.470609
0.457200,-2.496576
0.457300,-2.518323
0.457400,-2.480996
0.457500,-2.475803
0.457600,-2.493006
0.457700,-2.521569
0.457800,-2.503068
0.457900,-2.407965
0.458000,-2.325845
0.458100,-2.408614
0.458200,-2.570906
0.458300,-2.655622
0.458400,-2.645560
0.458500,-2.460223
0.458600,-2.367067
0.458700,-2.391411
0.458800,-2.558247
0.458900,-2.700415
0.459000,-2.715021
0.459100,-2.641665
0.459200,-2.574476
0.459300,-2.567984
0.459400,-2.593627
0.459500,-2.615374
0.459600,-2.618620
0.459700,-2.600118
0.459800,-2.611154
0.459900,-2.548509
0.460000,-2.499173
0.460100,-2.418351
0.460200,-2.332986
0.460300,-2.287220
0.460400,-2.307019
0.460500,-2.302800
0.460600,-2.296308
0.460700,-2.209969
0.460800,-2.134990
0.460900,-2.122981
0.461000,-2.119410
0.461100,-2.043782
0.461200,-2.006455
0.461300,-1.961988
0.461400,-1.919143
0.461500,-1.813329
0.461600,-1.776326
0.461700,-1.782169
0.461800,-1.779247
0.461900,-1.790608
0.462000,-1.775677
0.462100,-1.828909
0.462200,-1.808460
0.462300,-1.803267
0.462400,-1.785739
0.462500,-1.819820
0.462600,-1.839944
0.462700,-1.849033
0.462800,-1.921090
0.462900,-1.896097
0.463000,-1.797424
0.463100,-1.684469
0.463200,-1.560154
0.463300,-1.654932
0.463400,-1.891878
0.463500,-1.986007
0.463600,-1.860069
0.463700,-1.770808
0.463800,-1.603648
0.463900,-1.587419
0.464000,-1.661099
0.464100,-1.754579
0.464200,-1.737052
0.464300,-1.626044
0.464400,-1.495887
0.464500,-1.442980
0.464600,-1.434541
0.464700,-1.437462
0.464800,-1.441357
0.464900,-1.440383
0.465000,-1.407276
0.465100,-1.364431
0.465200,-1.369300
0.465300,-1.343009
0.465400,-1.319639
0.465500,-1.355667
0.465600,-1.338789
0.465700,-1.348202
0.465800,-1.385529
0.465900,-1.352097
0.466000,-1.335868
0.466100,-1.289128
0.466200,-1.372221
0.466300,-1.514388
0.466400,-1.537433
0.466500,-1.418961
0.466600,-1.258617
0.466700,-1.225510
0.466800,-1.360861
0.466900,-1.532889
0.467000,-1.573787
0.467100,-1.460832
0.467200,-1.313472
0.467300,-1.296593
0.467400,-1.401109
0.467500,-1.540679
0.467600,-1.566970
0.467700,-1.590665
0.467800,-1.580278
0.467900,-1.625720
0.468000,-1.679276
0.468100,-1.708164
0.468200,-1.722121
0.468300,-1.760422
0.468400,-1.809109
0.468500,-1.883763
0.468600,-1.930503
0.468700,-1.951276
0.468800,-1.969453
0.468900,-1.987305
0.469000,-2.042809
0.469100,-2.138885
0.469200,-2.178160
0.469300,-2.160308
0.469400,-2.153816
0.469500,-2.208671
0.469600,-2.234637
0.469700,-2.153167
0.469800,-2.146675
0.469900,-2.131420
0.470000,-2.112594
0.470100,-2.101558
0.470200,-2.103181
0.470300,-2.142456
0.470400,-2.122332
0.470500,-2.123630
0.470600,-2.115840
0.470700,-2.103506
0.470800,-2.107401
0.470900,-2.096689
0.471000,-2.098312
0.471100,-2.105453
0.471200,-2.128174
0.471300,-2.162255
0.471400,-2.279105
0.471500,-2.470285
0.471600,-2.469636
0.471700,-2.382972
0.471800,-2.253788
0.471900,-2.270991
0.472000,-2.481645
0.472100,-2.684185
0.472200,-2.764682
0.472300,-2.677045
0.472400,-2.562467
0.472500,-2.536175
0.472600,-2.638744
0.472700,-2.779938
0.472800,-2.829274
0.472900,-2.827327
0.473000,-2.772472
0.473100,-2.787728
0.473200,-2.790000
0.473300,-2.847451
0.473400,-2.890296
0.473500,-2.902955
0.473600,-2.934115
0.473700,-2.961380
0.473800,-3.029218
0.473900,-3.089591
0.474000,-3.079853
0.474100,-3.079529
0.474200,-3.084722
0.474300,-3.098679
0.474400,-3.098355
0.474500,-3.022077
0.474600,-2.892893
0.474700,-2.826029
0.474800,-2.905227
0.474900,-3.052913
0.475000,-3.098355
0.475100,-2.951318
0.475200,-2.760463
0.475300,-2.678343
0.475400,-2.736768
0.475500,-2.876664
0.475600,-2.916588
0.475700,-2.820835
0.475800,-2.653350
0.475900,-2.552729
0.476000,-2.523517
0.476100,-2.525464
0.476200,-2.493006
0.476300,-2.431010
0.476400,-2.359277
0.476500,-2.286571
0.476600,-2.212241
0.476700,-2.139859
0.476800,-2.045081
0.476900,-1.966532
0.477000,-1.931152
0.477100,-1.935047
0.477200,-1.937968
0.477300,-1.915248
0.477400,-1.798722
0.477500,-1.777949
0.477600,-1.775352
0.477700,-1.768861
0.477800,-1.714006
0.477900,-1.715954
0.478000,-1.669863
0.478100,-1.619553
0.478200,-1.582550
0.478300,-1.575734
0.478400,-1.609491
0.478500,-1.669863
0.478600,-1.716278
0.478700,-1.761395
0.478800,-1.816574
0.478900,-1.812679
0.479000,-1.873376
0.479100,-1.857796
0.479200,-1.949978
0.479300,-1.980813
0.479400,-2.066179
0.479500,-2.048651
0.479600,-2.103181
0.479700,-2.004833
0.479800,-1.817873
0.479900,-1.841243
0.480000,-2.043133
0.480100,-2.205425
0.480200,-2.212890
0.480300,-2.148623
0.480400,-2.018465
0.480500,-1.905186
0.480600,-1.940890
0.480700,-2.044756
0.480800,-2.118437
0.480900,-2.059038
0.481000,-1.952899
0.481100,-1.847085
0.481200,-1.825338
0.481300,-1.852279
0.481400,-1.886684
0.481500,-1.901940
0.481600,-1.903238
0.481700,-1.877596
0.481800,-1.867209
0.481900,-1.836699
0.482000,-1.867859
0.482100,-1.887333
0.482200,-1.934723
0.482300,-1.883439
0.482400,-1.977568
0.482500,-2.003859
0.482600,-1.992174
0.482700,-1.965883
0.482800,-1.978217
0.482900,-2.100909
0.483000,-2.227496
0.483100,-2.225874
0.483200,-2.118761
0.483300,-1.955171
0.483400,-2.007754
0.483500,-2.147000
0.483600,-2.307344
0.483700,-2.311564
0.483800,-2.170694
0.483900,-2.066503
0.484000,-2.057090
0.484100,-2.185301
0.484200,-2.266446
0.484300,-2.298256
0.484400,-2.318704
0.484500,-2.285597
0.484600,-2.311564
0.484700,-2.291439
0.484800,-2.299229
0.484900,-2.325196
0.485000,-2.345320
0.485100,-2.369015
0.485200,-2.419974
0.485300,-2.445941
0.485400,-2.447889
0.485500,-2.454056
0.485600,-2.470285
0.485700,-2.579345
0.485800,-2.656920
0.485900,-2.661140
0.486000,-2.646209
0.486100,-2.661140
0.486200,-2.698792
0.486300,-2.674448
0.486400,-2.604662
0.486500,-2.580319
0.486600,-2.560194
0.486700,-2.526438
0.486800,-2.487163
0.486900,-2.485865
0.487000,-2.440748
0.487100,-2.403745
0.487200,-2.380700
0.487300,-2.350838
0.487400,-2.313836
0.487500,-2.285272
0.487600,-2.239506
0.487700,-2.197310
0.487800,-2.198933
0.487900,-2.237234
0.488000,-2.254112
0.488100,-2.470934
0.488200,-2.506638
0.488300,-2.524166
0.488400,-2.368366
0.488500,-2.294685
0.488600,-2.330389
0.488700,-2.557598
0.488800,-2.729303
0.488900,-2.738066
0.489000,-2.624137
0.489100,-2.515727
0.489200,-2.514104
0.489300,-2.622515
0.489400,-2.699116
0.489500,-2.706906
0.489600,-2.686458
0.489700,-2.595574
0.489800,-2.578696
0.489900,-2.560519
0.490000,-2.576424
0.490100,-2.552404
0.490200,-2.543316
0.490300,-2.540070
0.490400,-2.515727
0.490500,-2.518323
0.490600,-2.547860
0.490700,-2.509559
0.490800,-2.506963
0.490900,-2.495278
0.491000,-2.471259
0.491100,-2.431984
0.491200,-2.298905
0.491300,-2.190494
0.491400,-2.198609
0.491500,-2.341750
0.491600,-2.441072
0.491700,-2.433282
0.491800,-2.301826
0.491900,-2.145702
0.492000,-2.179783
0.492100,-2.308642
0.492200,-2.465091
0.492300,-2.515727
0.492400,-2.435879
0.492500,-2.343048
0.492600,-2.301177
0.492700,-2.315783
0.492800,-2.347592
0.492900,-2.356356
0.493000,-2.346619
0.493100,-2.337855
0.493200,-2.305072
0.493300,-2.263850
0.493400,-2.205100
0.493500,-2.142780
0.493600,-2.123305
0.493700,-2.156088
0.493800,-2.183029
0.493900,-2.185950
0.494000,-2.128174
0.494100,-2.044756
0.494200,-2.028852
0.494300,-2.055792
0.494400,-2.035019
0.494500,-1.990875
0.494600,-1.955820
0.494700,-1.909081
0.494800,-1.864288
0.494900,-1.825663
0.495000,-1.810732
0.495100,-1.808784
0.495200,-1.821768
0.495300,-1.821768
0.495400,-1.841243
0.495500,-1.840918
0.495600,-1.862665
0.495700,-1.858770
0.495800,-1.871754
0.495900,-1.916221
0.496000,-1.899668
0.496100,-1.976918
0.496200,-1.887009
0.496300,-1.933100
0.496400,-1.713033
0.496500,-1.610140
0.496600,-1.540679
0.496700,-1.809434
0.496800,-1.880193
0.496900,-1.795152
0.497000,-1.724718
0.497100,-1.534837
0.497200,-1.476087
0.497300,-1.542951
0.497400,-1.647791
0.497500,-1.698426
0.497600,-1.600078
0.497700,-1.513414
0.497800,-1.491667
0.497900,-1.529968
0.498000,-1.581252
0.498100,-1.648116
0.498200,-1.680574
0.498300,-1.711410
0.498400,-1.722121
0.498500,-1.778923
0.498600,-1.810407
0.498700,-1.829233
0.498800,-1.913625
0.498900,-2.006131
0.499000,-2.081110
0.499100,-2.097339
0.499200,-2.160308
0.499300,-2.141482
0.499400,-2.136938
0.499500,-2.232690
0.499600,-2.460872
0.499700,-2.529684
0.499800,-2.455029
0.499900,-2.327793
0.500000,-2.257034
0.500100,-2.361225
0.500200,-2.537149
0.500300,-2.630954
0.500400,-2.542018
0.500500,-2.362848
0.500600,-2.252489
0.500700,-2.322924
0.500800,-2.433282
0.500900,-2.457951
0.501000,-2.422246
0.501100,-2.393359
0.501200,-2.358304
0.501300,-2.386218
0.501400,-2.342724
0.501500,-2.324222
0.501600,-2.296308
0.501700,-2.308967
0.501800,-2.378752
0.501900,-2.395306
0.502000,-2.408289
0.502100,-2.390437
0.502200,-2.348891
0.502300,-2.383621
0.502400,-2.500796
0.502500,-2.563116
0.502600,-2.572204
0.502700,-2.561817
0.502800,-2.608557
0.502900,-2.644586
0.503000,-2.593302
0.503100,-2.580319
0.503200,-2.568958
0.503300,-2.538772
0.503400,-2.532605
0.503500,-2.515727
0.503600,-2.496252
0.503700,-2.474504
0.503800,-2.474829
0.503900,-2.464767
0.504000,-2.449511
0.504100,-2.432958
0.504200,-2.447889
0.504300,-2.436204
0.504400,-2.454380
0.504500,-2.471259
0.504600,-2.448862
0.504700,-2.580643
0.504800,-2.727030
0.504900,-2.786429
0.505000,-2.687756
0.505100,-2.532605
0.505200,-2.479373
0.505300,-2.598820
0.505400,-2.792272
0.505500,-2.864654
0.505600,-2.818888
0.505700,-2.680615
0.505800,-2.617321
0.505900,-2.662438
0.506000,-2.756892
0.506100,-2.814993
0.506200,-2.798439
0.506300,-2.765331
0.506400,-2.687756
0.506500,-2.672825
0.506600,-2.680615
0.506700,-2.703336
0.506800,-2.704634
0.506900,-2.723135
0.507000,-2.717618
0.507100,-2.729303
0.507200,-2.789675
0.507300,-2.805255
0.507400,-2.792272
0.507500,-2.827651
0.507600,-2.834468
0.507700,-2.841284
0.507800,-2.824406
0.507900,-2.715995
0.508000,-2.653025
0.508100,-2.721513
0.508200,-2.882182
0.508300,-2.968521
0.508400,-2.925351
0.508500,-2.748453
0.508600,-2.635498
0.508700,-2.682887
0.508800,-2.846153
0.508900,-2.961705
0.509000,-2.933141
0.509100,-2.812721
0.509200,-2.722162
0.509300,-2.684185
0.509400,-2.694572
0.509500,-2.710477
0.509600,-2.694572
0.509700,-2.656596
0.509800,-2.635173
0.509900,-2.574801
0.510000,-2.531631
0.510100,-2.453406
0.510200,-2.394332
0.510300,-2.377779
0.510400,-2.376480
0.510500,-2.396604
0.510600,-2.387841
0.510700,-2.298905
0.510800,-2.279105
0.510900,-2.262551
0.511000,-2.271640
0.511100,-2.195687
0.511200,-2.184652
0.511300,-2.164527
0.511400,-2.113243
0.511500,-2.036966
0.511600,-1.990875
0.511700,-1.997367
0.511800,-2.041186
0.511900,-2.036642
0.512000,-2.054818
0.512100,-2.063257
0.512200,-2.074942
0.512300,-2.042809
0.512400,-2.062284
0.512500,-2.034045
0.512600,-2.081434
0.512700,-2.043458
0.512800,-2.141807
0.512900,-2.096689
0.513000,-2.069100
0.513100,-1.857796
0.513200,-1.826312
0.513300,-1.915572
0.513400,-2.137587
0.513500,-2.197635
0.513600,-2.128499
0.513700,-2.011000
0.513800,-1.898694
0.513900,-1.889930
0.514000,-2.019439
0.514100,-2.114217
0.514200,-2.107725
0.514300,-2.027229
0.514400,-1.956470
0.514500,-1.961014
0.514600,-2.008078
0.514700,-2.064231
0.514800,-2.134990
0.514900,-2.165501
0.515000,-2.171993
0.515100,-2.164527
0.515200,-2.197310
0.515300,-2.223926
0.515400,-2.249244
0.515500,-2.362848
0.515600,-2.405693
0.515700,-2.362199
0.515800,-2.450485
0.515900,-2.401473
0.516000,-2.403421
0.516100,-2.358953
0.516200,-2.494304
0.516300,-2.613751
0.516400,-2.577073
0.516500,-2.451784
0.516600,-2.288843
0.516700,-2.275535
0.516800,-2.368366
0.516900,-2.532605
0.517000,-2.532605
0.517100,-2.426791
0.517200,-2.260929
0.517300,-2.241129
0.517400,-2.292738
0.517500,-2.365444
0.517600,-2.353110
0.517700,-2.367392
0.517800,-2.325845
0.517900,-2.349864
0.518000,-2.330389
0.518100,-2.308318
0.518200,-2.308642
0.518300,-2.327144
0.518400,-2.375182
0.518500,-2.413807
0.518600,-2.421597
0.518700,-2.418676
0.518800,-2.407965
0.518900,-2.393359
0.519000,-2.457951
0.519100,-2.530657
0.519200,-2.545264
0.519300,-2.552404
0.519400,-2.515727
0.519500,-2.574152
0.519600,-2.568309
0.519700,-2.491383
0.519800,-2.502094
0.519900,-2.484891
0.520000,-2.460872
0.520100,-2.459249
0.520200,-2.453731
0.520300,-2.458600
0.520400,-2.443020
0.520500,-2.442046
0.520600,-2.395631
0.520700,-2.396929
0.520800,-2.388490
0.520900,-2.386867
0.521000,-2.408939
0.521100,-2.431010
0.521200,-2.403096
0.521300,-2.442371
0.521400,-2.574801
0.521500,-2.713398
0.521600,-2.691326
0.521700,-2.558247
0.521800,-2.436528
0.521900,-2.465416
0.522000,-2.681589
0.522100,-2.779288
0.522200,-2.846802
0.522300,-2.757217
0.522400,-2.641990
0.522500,-2.643288
0.522600,-2.711126
0.522700,-2.826678
0.522800,-2.868549
0.522900,-2.850697
0.523000,-2.822458
0.523100,-2.781561
0.523200,-2.790649
0.523300,-2.810449
0.523400,-2.835117
0.523500,-2.840310
0.523600,-2.866602
0.523700,-2.856864
0.523800,-2.900358
0.523900,-2.937361
0.524000,-2.990593
0.524100,-2.973714
0.524200,-3.020130
0.524300,-3.044149
0.524400,-3.062326
0.524500,-2.968846
0.524600,-2.897437
0.524700,-2.876015
0.524800,-2.995786
0.524900,-3.145744
0.525000,-3.210012
0.525100,-3.090889
0.525200,-2.925351
0.525300,-2.914640
0.525400,-3.032464
0.525500,-3.215530
0.525600,-3.258375
0.525700,-3.190861
0.525800,-3.107118
0.525900,-3.034412
0.526000,-3.039605
0.526100,-3.040254
0.526200,-3.018182
0.526300,-2.962029
0.526400,-2.916588
0.526500,-2.857838
0.526600,-2.783833
0.526700,-2.699441
0.526800,-2.622839
0.526900,-2.528385
0.527000,-2.506963
0.527100,-2.495927
0.527200,-2.504691
0.527300,-2.454705
0.527400,-2.375506
0.527500,-2.330714
0.527600,-2.304747
0.527700,-2.283000
0.527800,-2.214838
0.527900,-2.159659
0.528000,-2.112594
0.528100,-2.043782
0.528200,-1.966856
0.528300,-1.940565
0.528400,-1.927257
0.528500,-1.955496
0.528600,-1.942188
0.528700,-1.961338
0.528800,-1.966207
0.528900,-1.939591
0.529000,-1.954198
0.529100,-1.904212
0.529200,-1.941539
0.529300,-1.941539
0.529400,-1.933100
0.529500,-1.995744
0.529600,-1.957119
0.529700,-1.866236
0.529800,-1.654283
0.529900,-1.679276
0.530000,-1.841243
0.530100,-2.062933
0.530200,-1.998016
0.530300,-1.994770
0.530400,-1.830532
0.530500,-1.788985
0.530600,-1.849682
0.530700,-1.984708
0.530800,-2.065854
0.530900,-1.990551
0.531000,-1.902589
0.531100,-1.851954
0.531200,-1.867534
0.531300,-1.924336
0.531400,-1.963286
0.531500,-1.996069
0.531600,-1.973997
0.531700,-1.962312
0.531800,-1.985358
0.531900,-1.970427
0.532000,-1.965883
0.532100,-2.002236
0.532200,-2.007105
0.532300,-2.015544
0.532400,-2.047028
0.532500,-2.044756
0.532600,-2.039563
0.532700,-1.942188
0.532800,-2.031773
0.532900,-2.159983
0.533000,-2.281702
0.533100,-2.240155
0.533200,-2.079811
0.533300,-1.978866
0.533400,-2.019763
0.533500,-2.186599
0.533600,-2.327468
0.533700,-2.272614
0.533800,-2.112594
0.533900,-2.015868
0.534000,-2.040537
0.534100,-2.134017
0.534200,-2.194389
0.534300,-2.159334
0.534400,-2.186274
0.534500,-2.141157
0.534600,-2.167773
0.534700,-2.127525
0.534800,-2.118761
0.534900,-2.101234
0.535000,-2.097339
0.535100,-2.124928
0.535200,-2.150246
0.535300,-2.165177
0.535400,-2.156088
0.535500,-2.156737
0.535600,-2.159659
0.535700,-2.228146
0.535800,-2.293062
0.535900,-2.278456
0.536000,-2.287544
0.536100,-2.282351
0.536200,-2.336556
0.536300,-2.285921
0.536400,-2.266446
0.536500,-2.247945
0.536600,-2.238857
0.536700,-2.226523
0.536800,-2.243401
0.536900,-2.224900
0.537000,-2.235611
0.537100,-2.213864
0.537200,-2.239181
0.537300,-2.222952
0.537400,-2.242752
0.537500,-2.257034
0.537600,-2.247945
0.537700,-2.249568
0.537800,-2.275535
0.537900,-2.320327
0.538000,-2.405368
0.538100,-2.584863
0.538200,-2.683212
0.538300,-2.640691
0.538400,-2.474504
0.538500,-2.420299
0.538600,-2.581617
0.538700,-2.773121
0.538800,-2.933141
0.538900,-2.920158
0.539000,-2.849074
0.539100,-2.791623
0.539200,-2.815317
0.539300,-2.977609
0.539400,-3.077906
0.539500,-3.119777
0.539600,-3.095433
0.539700,-3.070440
0.539800,-3.030192
0.539900,-3.052913
0.540000,-3.099653
0.540100,-3.118154
0.540200,-3.125944
0.540300,-3.131787
0.540400,-3.129515
0.540500,-3.116531
0.540600,-3.134384
0.540700,-3.141524
0.540800,-3.149639
0.540900,-3.140551
0.541000,-3.168140
0.541100,-3.094460
0.541200,-2.977934
0.541300,-2.866277
0.541400,-2.907175
0.541500,-3.033113
0.541600,-3.111338
0.541700,-3.080827
0.541800,-2.936063
0.541900,-2.831547
0.542000,-2.857838
0.542100,-2.987996
0.542200,-3.086345
0.542300,-3.098030
0.542400,-3.018182
0.542500,-2.948072
0.542600,-2.911394
0.542700,-2.889972
0.542800,-2.902630
0.542900,-2.886726
0.543000,-2.876015
0.543100,-2.858162
0.543200,-2.777341
0.543300,-2.712100
0.543400,-2.634200
0.543500,-2.572204
0.543600,-2.532929
0.543700,-2.509884
0.543800,-2.505340
0.543900,-2.491383
0.544000,-2.402771
0.544100,-2.319029
0.544200,-2.303774
0.544300,-2.288843
0.544400,-2.225549
0.544500,-2.182704
0.544600,-2.139534
0.544700,-2.100584
0.544800,-2.021062
0.544900,-1.982436
0.545000,-1.989902
0.545100,-2.007429
0.545200,-2.010675
0.545300,-2.056117
0.545400,-2.103830
0.545500,-2.088900
0.545600,-2.086952
0.545700,-2.127525
0.545800,-2.154465
0.545900,-2.165826
0.546000,-2.266446
0.546100,-2.239506
0.546200,-2.332012
0.546300,-2.206723
0.546400,-2.176537
0.546500,-1.951925
0.546600,-2.083706
0.546700,-2.260929
0.546800,-2.372585
0.546900,-2.428089
0.547000,-2.294361
0.547100,-2.191143
0.547200,-2.181730
0.547300,-2.290466
0.547400,-2.412509
0.547500,-2.438151
0.547600,-2.383296
0.547700,-2.278456
0.547800,-2.301177
0.547900,-2.331363
0.548000,-2.370638
0.548100,-2.389464
0.548200,-2.402771
0.548300,-2.395306
0.548400,-2.399850
0.548500,-2.404394
0.548600,-2.387191
0.548700,-2.392385
0.548800,-2.364471
0.548900,-2.464118
0.549000,-2.477101
0.549100,-2.539097
0.549200,-2.485540
0.549300,-2.458275
0.549400,-2.436204
0.549500,-2.497874
0.549600,-2.677369
0.549700,-2.709503
0.549800,-2.615049
0.549900,-2.482944
0.550000,-2.445941
0.550100,-2.554027
0.550200,-2.708529
0.550300,-2.778315
0.550400,-2.667956
0.550500,-2.525464
0.550600,-2.461521
0.550700,-2.528385
0.550800,-2.617321
0.550900,-2.625111
0.551000,-2.609207
0.551100,-2.610830
0.551200,-2.613751
0.551300,-2.643937
0.551400,-2.625760
0.551500,-2.612452
0.551600,-2.606610
0.551700,-2.633550
0.551800,-2.683536
0.551900,-2.692949
0.552000,-2.667307
0.552100,-2.635822
0.552200,-2.599794
0.552300,-2.626734
0.552400,-2.700090
0.552500,-2.714047
0.552600,-2.694897
0.552700,-2.659517
0.552800,-2.674123
0.552900,-2.664386
0.553000,-2.579669
0.553100,-2.550457
0.553200,-2.505989
0.553300,-2.484567
0.553400,-2.463144
0.553500,-2.432633
0.553600,-2.417702
0.553700,-2.389464
0.553800,-2.358628
0.553900,-2.353110
0.554000,-2.325521
0.554100,-2.311239
0.554200,-2.292738
0.554300,-2.291764
0.554400,-2.270017
0.554500,-2.278781
0.554600,-2.300852
0.554700,-2.381998
0.554800,-2.556949
0.554900,-2.542667
0.555000,-2.449511
0.555100,-2.275210
0.555200,-2.248594
0.555300,-2.430686
0.555400,-2.578047
0.555500,-2.661465
0.555600,-2.570581
0.555700,-2.448213
0.555800,-2.431335
0.555900,-2.457301
0.556000,-2.584863
0.556100,-2.617321
0.556200,-2.624787
0.556300,-2.553054
0.556400,-2.550132
0.556500,-2.558572
0.556600,-2.576748
0.556700,-2.576424
0.556800,-2.573178
0.556900,-2.596872
0.557000,-2.611803
0.557100,-2.635498
0.557200,-2.666658
0.557300,-2.695870
0.557400,-2.682238
0.557500,-2.701064
0.557600,-2.705283
0.557700,-2.736119
0.557800,-2.667307
0.557900,-2.590705
0.558000,-2.555001
0.558100,-2.631603
0.558200,-2.786754
0.558300,-2.870821
0.558400,-2.777990
0.558500,-2.655947
0.558600,-2.616997
0.558700,-2.716644
0.558800,-2.905227
0.558900,-3.006497
0.559000,-2.980206
0.559100,-2.885427
0.559200,-2.829274
0.559300,-2.855566
0.559400,-2.902955
0.559500,-2.918860
0.559600,-2.903604
0.559700,-2.874067
0.559800,-2.851995
0.559900,-2.802659
0.560000,-2.761436
0.560100,-2.694572
0.560200,-2.624137
0.560300,-2.582266
0.560400,-2.611154
0.560500,-2.614075
0.560600,-2.584863
0.560700,-2.512481
0.560800,-2.457951
0.560900,-2.456652
0.561000,-2.474829
0.561100,-2.423545
0.561200,-2.398552
0.561300,-2.361225
0.561400,-2.342399
0.561500,-2.267420
0.561600,-2.280728
0.561700,-2.302475
0.561800,-2.347917
0.561900,-2.366094
0.562000,-2.380700
0.562100,-2.417702
0.562200,-2.409588
0.562300,-2.476776
0.562400,-2.456652
0.562500,-2.512805
0.562600,-2.515077
0.562700,-2.568634
0.562800,-2.585187
0.562900,-2.635498
0.563000,-2.526762
0.563100,-2.353110
0.563200,-2.298580
0.563300,-2.421922
0.563400,-2.608557
0.563500,-2.647832
0.563600,-2.607584
0.563700,-2.482944
0.563800,-2.381024
0.563900,-2.416729
0.564000,-2.554352
0.564100,-2.617646
0.564200,-2.549483
0.564300,-2.455354
0.564400,-2.368041
0.564500,-2.358628
0.564600,-2.375506
0.564700,-2.415430
0.564800,-2.399850
0.564900,-2.376480
0.565000,-2.318055
0.565100,-2.301826
0.565200,-2.288194
0.565300,-2.281053
0.565400,-2.308318
0.565500,-2.340451
0.565600,-2.346294
0.565700,-2.336881
0.565800,-2.349215
0.565900,-2.301177
0.566000,-2.275535
0.566100,-2.274236
0.566200,-2.440748
0.566300,-2.567335
0.566400,-2.546237
0.566500,-2.413807
0.566600,-2.247296
0.566700,-2.233664
0.566800,-2.355058
0.566900,-2.484567
0.567000,-2.483268
0.567100,-2.336232
0.567200,-2.177511
0.567300,-2.112269
0.567400,-2.201205
0.567500,-2.287869
0.567600,-2.267420
0.567700,-2.231391
0.567800,-2.177186
0.567900,-2.169721
0.568000,-2.161282
0.568100,-2.131420
0.568200,-2.119735
0.568300,-2.086627
0.568400,-2.089873
0.568500,-2.107725
0.568600,-2.110647
0.568700,-2.115840
0.568800,-2.088250
0.568900,-2.093119
0.569000,-2.183353
0.569100,-2.252489
0.569200,-2.276833
0.569300,-2.291115
0.569400,-2.310914
0.569500,-2.390762
0.569600,-2.414132
0.569700,-2.365769
0.569800,-2.367067
0.569900,-2.391086
0.570000,-2.433607
0.570100,-2.455029
0.570200,-2.477101
0.570300,-2.511182
0.570400,-2.546562
0.570500,-2.581942
0.570600,-2.591354
0.570700,-2.622839
0.570800,-2.654324
0.570900,-2.668930
0.571000,-2.682563
0.571100,-2.711450
0.571200,-2.743260
0.571300,-2.800062
0.571400,-2.961056
0.571500,-3.108417
0.571600,-3.062326
0.571700,-2.880559
0.571800,-2.741312
0.571900,-2.742286
0.572000,-2.973714
0.572100,-3.089591
0.572200,-3.057457
0.572300,-2.917237
0.572400,-2.793246
0.572500,-2.767928
0.572600,-2.858812
0.572700,-2.906201
0.572800,-2.920158
0.572900,-2.861733
0.573000,-2.763384
0.573100,-2.707231
0.573200,-2.668930
0.573300,-2.690677
0.573400,-2.642314
0.573500,-2.647507
0.573600,-2.605961
0.573700,-2.594600
0.573800,-2.568958
0.573900,-2.608557
0.574000,-2.548834
0.574100,-2.548185
0.574200,-2.553054
0.574300,-2.545588
0.574400,-2.522543
0.574500,-2.417702
0.574600,-2.317406
0.574700,-2.316757
0.574800,-2.409912
0.574900,-2.528061
0.575000,-2.541044
0.575100,-2.408939
0.575200,-2.237883
0.575300,-2.216785
0.575400,-2.325845
0.575500,-2.500471
0.575600,-2.563440
0.575700,-2.530333
0.575800,-2.431984
0.575900,-2.392060
0.576000,-2.394332
0.576100,-2.461196
0.576200,-2.515402
0.576300,-2.521894
0.576400,-2.537474
0.576500,-2.505989
0.576600,-2.495927
0.576700,-2.451784
0.576800,-2.399201
0.576900,-2.375506
0.577000,-2.397254
0.577100,-2.414456
0.577200,-2.472881
0.577300,-2.431010
0.577400,-2.363821
0.577500,-2.368690
0.577600,-2.359277
0.577700,-2.358628
0.577800,-2.288518
0.577900,-2.246971
0.578000,-2.189845
0.578100,-2.115840
0.578200,-2.056117
0.578300,-2.005806
0.578400,-2.038914
0.578500,-2.007754
0.578600,-2.027878
0.578700,-2.030799
0.578800,-2.066828
0.578900,-2.019439
0.579000,-2.064556
0.579100,-2.028202
0.579200,-2.052222
0.579300,-2.086303
0.579400,-2.074942
0.579500,-2.105129
0.579600,-2.067477
0.579700,-1.978217
0.579800,-1.816899
0.579900,-1.778598
0.580000,-2.026580
0.580100,-2.078188
0.580200,-2.100584
0.580300,-1.993472
0.580400,-1.875324
0.580500,-1.840594
0.580600,-1.907133
0.580700,-2.034694
0.580800,-2.087601
0.580900,-2.015219
0.581000,-1.923362
0.581100,-1.873376
0.581200,-1.882140
0.581300,-1.905835
0.581400,-1.931477
0.581500,-1.934723
0.581600,-1.905510
0.581700,-1.900317
0.581800,-1.899018
0.581900,-1.899018
0.582000,-1.920441
0.582100,-1.910379
0.582200,-1.976594
0.582300,-2.015219
0.582400,-2.078188
0.582500,-2.109024
0.582600,-2.042809
0.582700,-2.023983
0.582800,-2.059687
0.582900,-2.248270
0.583000,-2.332012
0.583100,-2.271964
0.583200,-2.110971
0.583300,-2.055143
0.583400,-2.098312
0.583500,-2.278781
0.583600,-2.413483
0.583700,-2.388165
0.583800,-2.250542
0.583900,-2.120059
0.584000,-2.170694
0.584100,-2.264824
0.584200,-2.346619
0.584300,-2.332337
0.584400,-2.352786
0.584500,-2.299229
0.584600,-2.326170
0.584700,-2.306695
0.584800,-2.302151
0.584900,-2.297282
0.585000,-2.312862
0.585100,-2.328117
0.585200,-2.347592
0.585300,-2.349540
0.585400,-2.326170
0.585500,-2.327793
0.585600,-2.321301
0.585700,-2.427440
0.585800,-2.471583
0.585900,-2.461196
0.586000,-2.439125
0.586100,-2.458600
0.586200,-2.506963
0.586300,-2.445616
0.586400,-2.422896
0.586500,-2.425817
0.586600,-2.400499
0.586700,-2.384919
0.586800,-2.360576
0.586900,-2.345645
0.587000,-2.356356
0.587100,-2.313186
0.587200,-2.318380
0.587300,-2.274236
0.587400,-2.277482
0.587500,-2.276509
0.587600,-2.280728
0.587700,-2.264174
0.587800,-2.269692
0.587900,-2.282026
0.588000,-2.336556
0.588100,-2.529359
0.588200,-2.541044
0.588300,-2.484891
0.588400,-2.329740
0.588500,-2.274886
0.588600,-2.372261
0.588700,-2.623164
0.588800,-2.672500
0.588900,-2.677694
0.589000,-2.552729
0.589100,-2.489435
0.589200,-2.523841
0.589300,-2.641665
0.589400,-2.756568
0.589500,-2.792921
0.589600,-2.767279
0.589700,-2.729627
0.589800,-2.758191
0.589900,-2.784806
0.590000,-2.850697
0.590100,-2.859136
0.590200,-2.899060
0.590300,-2.912693
0.590400,-2.944177
0.590500,-3.035385
0.590600,-3.043500
0.590700,-3.039930
0.590800,-3.039280
0.590900,-3.079529
0.591000,-3.116207
0.591100,-3.102250
0.591200,-2.974039
0.591300,-2.932492
0.591400,-2.976960
0.591500,-3.154832
0.591600,-3.239549
0.591700,-3.214556
0.591800,-3.048044
0.591900,-2.913017
0.592000,-2.953915
0.592100,-3.102574
0.592200,-3.267463
0.592300,-3.287587
0.592400,-3.204818
0.592500,-3.091538
0.592600,-3.039280
0.592700,-3.060703
0.592800,-3.125620
0.592900,-3.154508
0.593000,-3.146393
0.593100,-3.107768
0.593200,-3.058431
0.593300,-3.007796
0.593400,-2.943203
0.593500,-2.906850
0.593600,-2.877637
0.593700,-2.882506
0.593800,-2.865952
0.593900,-2.855241
0.594000,-2.778964
0.594100,-2.705283
0.594200,-2.676720
0.594300,-2.638744
0.594400,-2.577397
0.594500,-2.565063
0.594600,-2.512481
0.594700,-2.481645
0.594800,-2.377779
0.594900,-2.341101
0.595000,-2.312862
0.595100,-2.307669
0.595200,-2.305396
0.595300,-2.316757
0.595400,-2.323573
0.595500,-2.304098
0.595600,-2.257358
0.595700,-2.212566
0.595800,-2.222628
0.595900,-2.169721
0.596000,-2.227172
0.596100,-2.211916
0.596200,-2.239831
0.596300,-2.159334
0.596400,-2.027878
0.596500,-1.870780
0.596600,-1.984384
0.596700,-2.188222
0.596800,-2.223926
0.596900,-2.147974
0.597000,-2.060661
0.597100,-1.910379
0.597200,-1.921415
0.597300,-2.016517
0.597400,-2.120059
0.597500,-2.138236
0.597600,-2.043133
0.597700,-1.947381
0.597800,-1.910379
0.597900,-1.905835
0.598000,-1.965558
0.598100,-1.994121
0.598200,-2.000938
0.598300,-1.965558
0.598400,-1.955496
0.598500,-1.947057
0.598600,-1.931152
0.598700,-1.949653
0.598800,-1.956794
0.598900,-2.027229
0.599000,-2.006131
0.599100,-2.044107
0.599200,-1.994446
0.599300,-1.954522
0.599400,-1.956794
0.599500,-2.028202
0.599600,-2.247296
0.599700,-2.230093
0.599800,-2.121682
0.599900,-1.971076
0.600000,-1.929854
0.600100,-2.033396
0.600200,-2.201205
0.600300,-2.236585
0.600400,-2.166150
0.600500,-2.001911
0.600600,-1.947706
0.600700,-2.007429
0.600800,-2.101883
0.600900,-2.123954
0.601000,-2.155114
0.601100,-2.124279
0.601200,-2.159009
0.601300,-2.158036
0.601400,-2.152193
0.601500,-2.171993
0.601600,-2.172967
0.601700,-2.217434
0.601800,-2.257034
0.601900,-2.289492
0.602000,-2.299879
0.602100,-2.281702
0.602200,-2.290790
0.602300,-2.356681
0.602400,-2.474829
0.602500,-2.521569
0.602600,-2.539421
0.602700,-2.544939
0.602800,-2.596548
0.602900,-2.607584
0.603000,-2.552404
0.603100,-2.539746
0.603200,-2.541044
0.603300,-2.526438
0.603400,-2.513454
0.603500,-2.517349
0.603600,-2.483917
0.603700,-2.488137
0.603800,-2.444318
0.603900,-2.390437
0.604000,-2.402122
0.604100,-2.401473
0.604200,-2.393034
0.604300,-2.376805
0.604400,-2.411535
0.604500,-2.457301
0.604600,-2.459249
0.604700,-2.618944
0.604800,-2.765656
0.604900,-2.746181
0.605000,-2.677694
0.605100,-2.527412
0.605200,-2.532280
0.605300,-2.695870
0.605400,-2.889647
0.605500,-2.912043
0.605600,-2.846802
0.605700,-2.752023
0.605800,-2.718267
0.605900,-2.805255
0.606000,-2.924702
0.606100,-2.962029
0.606200,-2.968196
0.606300,-2.913991
0.606400,-2.887700
0.606500,-2.864979
0.606600,-2.868549
0.606700,-2.846153
0.606800,-2.852969
0.606900,-2.862057
0.607000,-2.885427
0.607100,-2.887700
0.607200,-2.888998
0.607300,-2.858487
0.607400,-2.845179
0.607500,-2.851346
0.607600,-2.891595
0.607700,-2.892893
0.607800,-2.789026
0.607900,-2.672500
0.608000,-2.625436
0.608100,-2.720539
0.608200,-2.876664
0.608300,-2.933141
0.608400,-2.820186
0.608500,-2.671527
0.608600,-2.615698
0.608700,-2.693274
0.608800,-2.849399
0.608900,-2.915289
0.609000,-2.881857
0.609100,-2.777666
0.609200,-2.719240
0.609300,-2.705608
0.609400,-2.712424
0.609500,-2.719565
0.609600,-2.673150
0.609700,-2.638419
0.609800,-2.603364
0.609900,-2.532929
0.610000,-2.445292
0.610100,-2.339802
0.610200,-2.272614
0.610300,-2.235611
0.610400,-2.236260
0.610500,-2.241129
0.610600,-2.188222
0.610700,-2.057740
0.610800,-1.996069
0.610900,-1.964584
0.611000,-1.953224
0.611100,-1.871754
0.611200,-1.821443
0.611300,-1.760422
0.611400,-1.709787
0.611500,-1.641624
0.611600,-1.607543
0.611700,-1.611114
0.611800,-1.577357
0.611900,-1.603648
0.612000,-1.598130
0.612100,-1.637729
0.612200,-1.635782
0.612300,-1.627992
0.612400,-1.635457
0.612500,-1.620851
0.612600,-1.666942
0.612700,-1.676030
0.612800,-1.723095
0.612900,-1.706216
0.613000,-1.553338
0.613100,-1.452717
0.613200,-1.282312
0.613300,-1.587419
0.613400,-1.688040
0.613500,-1.771457
0.613600,-1.637405
0.613700,-1.523476
0.613800,-1.421557
0.613900,-1.478035
0.614000,-1.609815
0.614100,-1.660775
0.614200,-1.624422
0.614300,-1.518283
0.614400,-1.452717
0.614500,-1.476412
0.614600,-1.515686
0.614700,-1.549118
0.614800,-1.547171
0.614900,-1.546522
0.615000,-1.535161
0.615100,-1.551066
0.615200,-1.577032
0.615300,-1.571839
0.615400,-1.575085
0.615500,-1.635782
0.615600,-1.653634
0.615700,-1.702321
0.615800,-1.706216
0.615900,-1.699400
0.616000,-1.641300
0.616100,-1.660775
0.616200,-1.841892
0.616300,-2.007429
0.616400,-1.990226
0.616500,-1.848384
0.616600,-1.714331
0.616700,-1.788336
0.616800,-1.943811
0.616900,-2.085654
0.617000,-2.075267
0.617100,-1.912976
0.617200,-1.814302
0.617300,-1.806837
0.617400,-1.930503
0.617500,-1.988928
0.617600,-1.980489
0.617700,-1.980164
0.617800,-1.935372
0.617900,-1.960689
0.618000,-1.955496
0.618100,-1.961338
0.618200,-1.963286
0.618300,-1.962961
0.618400,-1.994121
0.618500,-2.050599
0.618600,-2.064231
0.618700,-2.045081
0.618800,-2.047353
0.618900,-2.040537
0.619000,-2.112919
0.619100,-2.180107
0.619200,-2.209644
0.619300,-2.207048
0.619400,-2.233014
0.619500,-2.305072
0.619600,-2.277807
0.619700,-2.239506
0.619800,-2.237559
0.619900,-2.230093
0.620000,-2.246971
0.620100,-2.233988
0.620200,-2.238532
0.620300,-2.252489
0.620400,-2.233339
0.620500,-2.263850
0.620600,-2.254761
0.620700,-2.235286
0.620800,-2.233988
0.620900,-2.243401
0.621000,-2.250217
0.621100,-2.263850
0.621200,-2.298256
0.621300,-2.305072
0.621400,-2.485865
0.621500,-2.598171
0.621600,-2.569932
0.621700,-2.406017
0.621800,-2.344671
0.621900,-2.377779
0.622000,-2.595250
0.622100,-2.749427
0.622200,-2.731899
0.622300,-2.636796
0.622400,-2.521894
0.622500,-2.515727
0.622600,-2.607908
0.622700,-2.710477
0.622800,-2.732224
0.622900,-2.689054
0.623000,-2.635173
0.623100,-2.613751
0.623200,-2.588433
0.623300,-2.620242
0.623400,-2.594276
0.623500,-2.591354
0.623600,-2.576748
0.623700,-2.572853
0.623800,-2.574801
0.623900,-2.573178
0.624000,-2.549483
0.624100,-2.539421
0.624200,-2.525464
0.624300,-2.523517
0.624400,-2.465741
0.624500,-2.357005
0.624600,-2.241778
0.624700,-2.240804
0.624800,-2.402122
0.624900,-2.500147
0.625000,-2.522543
0.625100,-2.352786
0.625200,-2.210294
0.625300,-2.212890
0.625400,-2.325845
0.625500,-2.481645
0.625600,-2.544939
0.625700,-2.466714
0.625800,-2.369339
0.625900,-2.308967
0.626000,-2.337855
0.626100,-2.385893
0.626200,-2.397254
0.626300,-2.378428
0.626400,-2.371611
0.626500,-2.311239
0.626600,-2.263201
0.626700,-2.202828
0.626800,-2.167124
0.626900,-2.136289
0.627000,-2.169072
0.627100,-2.196012
0.627200,-2.222628
0.627300,-2.185950
0.627400,-2.130122
0.627500,-2.136613
0.627600,-2.148298
0.627700,-2.149597
0.627800,-2.124928
0.627900,-2.107076
0.628000,-2.086303
0.628100,-2.034694
0.628200,-2.040861
0.628300,-2.038914
0.628400,-2.063582
0.628500,-2.105129
0.628600,-2.138236
0.628700,-2.176537
0.628800,-2.208995
0.628900,-2.236585
0.629000,-2.239831
0.629100,-2.276833
0.629200,-2.295334
0.629300,-2.342724
0.629400,-2.390437
0.629500,-2.357330
0.629600,-2.365769
0.629700,-2.209320
0.629800,-2.086627
0.629900,-2.050274
0.630000,-2.325845
0.630100,-2.411860
0.630200,-2.426791
0.630300,-2.330389
0.630400,-2.181081
0.630500,-2.121033
0.630600,-2.202504
0.630700,-2.307993
0.630800,-2.333311
0.630900,-2.233988
0.631000,-2.132069
0.631100,-2.104804
0.631200,-2.105453
0.631300,-2.119735
0.631400,-2.126551
0.631500,-2.131744
0.631600,-2.103181
0.631700,-2.076241
0.631800,-2.048002
0.631900,-2.013596
0.632000,-1.991200
0.632100,-2.009377
0.632200,-2.025281
0.632300,-2.062284
0.632400,-2.060661
