0.000100,-3.230461
0.000200,-3.202546
0.000300,-3.074335
0.000400,-2.897112
0.000500,-2.770849
0.000600,-2.723135
0.000700,-2.701388
0.000800,-2.697818
0.000900,-2.515402
0.001000,-2.320976
0.001100,-2.111620
0.001200,-1.953548
0.001300,-1.931801
0.001400,-1.910054
0.001500,-1.791906
0.001600,-1.633834
0.001700,-1.496211
0.001800,-1.370598
0.001900,-1.351448
0.002000,-1.318989
0.002100,-1.287830
0.002200,-1.265758
0.002300,-1.281987
0.002400,-1.283610
0.002500,-1.183639
0.002600,-1.189806
0.002700,-1.179419
0.002800,-1.145987
0.002900,-1.291725
0.003000,-1.251801
0.003100,-1.297892
0.003200,-0.971037
0.003300,-0.762331
0.003400,-0.435802
0.003500,-0.759734
0.003600,-1.074904
0.003700,-1.254398
0.003800,-1.031085
0.003900,-0.663009
0.004000,-0.534799
0.004100,-0.464365
0.004200,-0.777586
0.004300,-0.865873
0.004400,-0.894111
0.004500,-0.643534
0.004600,-0.415353
0.004700,-0.343620
0.004800,-0.392308
0.004900,-0.541291
0.005000,-0.513701
0.005100,-0.518245
0.005200,-0.480269
0.005300,-0.425740
0.005400,-0.459821
0.005500,-0.426064
0.005600,-0.425415
0.005700,-0.502666
0.005800,-0.658140
0.005900,-0.591601
0.006000,-0.737987
0.006100,-0.609128
0.006200,-0.618541
0.006300,-0.530580
0.006400,-0.735066
0.006500,-1.011285
0.006600,-1.035954
0.006700,-0.923324
0.006800,-0.655868
0.006900,-0.629252
0.007000,-0.810369
0.007100,-1.165137
0.007200,-1.274846
0.007300,-1.144040
0.007400,-0.920727
0.007500,-0.857758
0.007600,-0.995706
0.007700,-1.214474
0.007800,-1.258942
0.007900,-1.259591
0.008000,-1.211228
0.008100,-1.222264
0.008200,-1.326455
0.008300,-1.408899
0.008400,-1.409548
0.008500,-1.363457
0.008600,-1.384230
0.008700,-1.481605
0.008800,-1.538732
0.008900,-1.528994
0.009000,-1.486474
0.009100,-1.454016
0.009200,-1.517309
0.009300,-1.709787
0.009400,-1.781844
0.009500,-1.771457
0.009600,-1.755553
0.009700,-1.691935
0.009800,-1.722770
0.009900,-1.728613
0.010000,-1.716928
0.010100,-1.699400
0.010200,-1.703944
0.010300,-1.696154
0.010400,-1.691935
0.010500,-1.708813
0.010600,-1.702970
0.010700,-1.708813
0.010800,-1.714655
0.010900,-1.737052
0.011000,-1.743868
0.011100,-1.801644
0.011200,-1.829558
0.011300,-1.884088
0.011400,-1.942513
0.011500,-2.039887
0.011600,-2.341750
0.011700,-2.686782
0.011800,-2.642963
0.011900,-2.364146
0.012000,-2.206723
0.012100,-2.232041
0.012200,-2.649455
0.012300,-2.995461
0.012400,-3.118803
0.012500,-2.927948
0.012600,-2.742611
0.012700,-2.696195
0.012800,-2.853943
0.012900,-3.096732
0.013000,-3.216179
0.013100,-3.214231
0.013200,-3.189887
0.013300,-3.113935
0.013400,-3.183071
0.013500,-3.247339
0.013600,-3.284991
0.013700,-3.320046
0.013800,-3.312905
0.013900,-3.358671
0.014000,-3.452476
0.014100,-3.424238
0.014200,-3.440467
0.014300,-3.417097
0.014400,-3.519666
0.014500,-3.550501
0.014600,-3.578091
0.014700,-3.476496
0.014800,-3.242146
0.014900,-3.207090
0.015000,-3.384638
0.015100,-3.668326
0.015200,-3.867296
0.015300,-3.704355
0.015400,-3.393077
0.015500,-3.225267
0.015600,-3.345688
0.015700,-3.614120
0.015800,-3.806924
0.015900,-3.786475
0.016000,-3.593022
0.016100,-3.457021
0.016200,-3.426510
0.016300,-3.489804
0.016400,-3.554072
0.016500,-3.503761
0.016600,-3.438195
0.016700,-3.389182
0.016800,-3.350881
0.016900,-3.288237
0.017000,-3.123997
0.017100,-2.929246
0.017200,-2.861408
0.017300,-2.841933
0.017400,-2.820186
0.017500,-2.792272
0.017600,-2.559870
0.017700,-2.420299
0.017800,-2.104804
0.017900,-2.072995
0.018000,-2.034045
0.018100,-1.948355
0.018200,-1.832804
0.018300,-1.697777
0.018400,-1.528994
0.018500,-1.430646
0.018600,-1.380660
0.018700,-1.381958
0.018800,-1.384230
0.018900,-1.323858
0.019000,-1.354369
0.019100,-1.271600
0.019200,-1.234923
0.019300,-1.144040
0.019400,-1.188832
0.019500,-1.211877
0.019600,-1.197271
0.019700,-1.296593
0.019800,-1.221939
0.019900,-0.949939
0.020000,-0.628279
0.020100,-0.397501
0.020200,-0.853214
0.020300,-1.056078
0.020400,-1.233949
0.020500,-0.788622
0.020600,-0.646131
0.020700,-0.362122
0.020800,-0.592250
0.020900,-0.815887
0.021000,-0.903524
0.021100,-0.783753
0.021200,-0.538694
0.021300,-0.405291
0.021400,-0.332585
0.021500,-0.466637
0.021600,-0.453005
0.021700,-0.496498
0.021800,-0.467611
0.021900,-0.478971
0.022000,-0.421520
0.022100,-0.410484
0.022200,-0.377377
0.022300,-0.387114
0.022400,-0.488384
0.022500,-0.591276
0.022600,-0.663658
0.022700,-0.760384
0.022800,-0.640288
0.022900,-0.602312
0.023000,-0.585434
0.023100,-0.792842
0.023200,-1.068737
0.023300,-1.096326
0.023400,-0.898331
0.023500,-0.678264
0.023600,-0.626980
0.023700,-0.912613
0.023800,-1.256345
0.023900,-1.298541
0.024000,-1.168059
0.024100,-0.889892
0.024200,-0.842178
0.024300,-1.023944
0.024400,-1.188183
0.024500,-1.199868
0.024600,-1.228431
0.024700,-1.205386
0.024800,-1.264460
0.024900,-1.315744
0.025000,-1.364431
0.025100,-1.330999
0.025200,-1.368326
0.025300,-1.436813
0.025400,-1.516660
0.025500,-1.532889
0.025600,-1.493939
0.025700,-1.455639
0.025800,-1.439085
0.025900,-1.559505
0.026000,-1.753605
0.026100,-1.746465
0.026200,-1.762045
0.026300,-1.748737
0.026400,-1.695505
0.026500,-1.722770
0.026600,-1.699076
0.026700,-1.680574
0.026800,-1.685118
0.026900,-1.689987
0.027000,-1.709138
0.027100,-1.674083
0.027200,-1.676355
0.027300,-1.695830
0.027400,-1.710436
0.027500,-1.717901
0.027600,-1.728288
0.027700,-1.768861
0.027800,-1.765940
0.027900,-1.823715
0.028000,-1.834751
0.028100,-1.882465
0.028200,-1.975295
0.028300,-2.343697
0.028400,-2.591354
0.028500,-2.546562
0.028600,-2.204127
0.028700,-2.017491
0.028800,-2.167773
0.028900,-2.571555
0.029000,-2.914640
0.029100,-2.895490
0.029200,-2.687107
0.029300,-2.520271
0.029400,-2.572204
0.029500,-2.790974
0.029600,-3.023376
0.029700,-3.114259
0.029800,-3.059729
0.029900,-3.030841
0.030000,-3.001304
0.030100,-3.043825
0.030200,-3.142823
0.030300,-3.165868
0.030400,-3.190861
0.030500,-3.180150
0.030600,-3.228188
0.030700,-3.307063
0.030800,-3.322643
0.030900,-3.248313
0.031000,-3.245716
0.031100,-3.284666
0.031200,-3.371655
0.031300,-3.337249
0.031400,-3.244742
0.031500,-3.010392
0.031600,-3.035061
0.031700,-3.261296
0.031800,-3.529728
0.031900,-3.655018
0.032000,-3.429431
0.032100,-3.112312
0.032200,-3.027271
0.032300,-3.191510
0.032400,-3.506682
0.032500,-3.691047
0.032600,-3.645929
0.032700,-3.459617
0.032800,-3.283043
0.032900,-3.297974
0.033000,-3.332056
0.033100,-3.365812
0.033200,-3.352504
0.033300,-3.324590
0.033400,-3.259024
0.033500,-3.208389
0.033600,-3.065572
0.033700,-2.889322
0.033800,-2.729303
0.033900,-2.693923
0.034000,-2.695221
0.034100,-2.676071
0.034200,-2.576099
0.034300,-2.318380
0.034400,-2.206074
0.034500,-1.922713
0.034600,-1.926608
0.034700,-1.912651
0.034800,-1.837348
0.034900,-1.717252
0.035000,-1.580278
0.035100,-1.402083
0.035200,-1.324183
0.035300,-1.300164
0.035400,-1.320937
0.035500,-1.299514
0.035600,-1.301462
0.035700,-1.294321
0.035800,-1.253748
0.035900,-1.180068
0.036000,-1.130083
0.036100,-1.115152
0.036200,-1.156049
0.036300,-1.218044
0.036400,-1.214799
0.036500,-1.207658
0.036600,-0.770121
0.036700,-0.539343
0.036800,-0.381921
0.036900,-0.833415
0.037000,-1.199543
0.037100,-1.065166
0.037200,-0.815887
0.037300,-0.453005
0.037400,-0.442618
0.037500,-0.516623
0.037600,-0.771095
0.037700,-0.859706
0.037800,-0.682808
0.037900,-0.446837
0.038000,-0.343296
0.038100,-0.362771
0.038200,-0.476374
0.038300,-0.453978
0.038400,-0.465988
0.038500,-0.463391
0.038600,-0.439372
0.038700,-0.392308
0.038800,-0.421196
0.038900,-0.410160
0.039000,-0.428336
0.039100,-0.527983
0.039200,-0.577319
0.039300,-0.635095
0.039400,-0.687353
0.039500,-0.558818
0.039600,-0.565310
0.039700,-0.582837
0.039800,-0.928517
0.039900,-1.106713
0.040000,-1.055104
0.040100,-0.825625
0.040200,-0.569205
0.040300,-0.675343
0.040400,-0.991486
0.040500,-1.298865
0.040600,-1.276794
0.040700,-1.098923
0.040800,-0.855486
0.040900,-0.889892
0.041000,-1.080421
0.041100,-1.245634
0.041200,-1.238168
0.041300,-1.263810
0.041400,-1.229080
0.041500,-1.285233
0.041600,-1.335868
0.041700,-1.351123
0.041800,-1.318016
0.041900,-1.351123
0.042000,-1.418312
0.042100,-1.475763
0.042200,-1.477061
0.042300,-1.427400
0.042400,-1.404030
0.042500,-1.390398
0.042600,-1.559180
0.042700,-1.715629
0.042800,-1.726665
0.042900,-1.694531
0.043000,-1.716928
0.043100,-1.683171
0.043200,-1.668889
0.043300,-1.648116
0.043400,-1.669538
0.043500,-1.663696
0.043600,-1.654932
0.043700,-1.677328
0.043800,-1.679601
0.043900,-1.711734
0.044000,-1.720498
0.044100,-1.734130
0.044200,-1.759772
0.044300,-1.765940
0.044400,-1.798073
0.044500,-1.823066
0.044600,-1.819820
0.044700,-1.931477
0.044800,-1.934073
0.044900,-2.170045
0.045000,-2.514104
0.045100,-2.725083
0.045200,-2.583564
0.045300,-2.291764
0.045400,-2.125253
0.045500,-2.324547
0.045600,-2.794544
0.045700,-3.035385
0.045800,-3.028894
0.045900,-2.782210
0.046000,-2.647832
0.046100,-2.725083
0.046200,-3.012340
0.046300,-3.240847
0.046400,-3.325239
0.046500,-3.223969
0.046600,-3.173658
0.046700,-3.214556
0.046800,-3.287263
0.046900,-3.338547
0.047000,-3.360294
0.047100,-3.359645
0.047200,-3.380419
0.047300,-3.462214
0.047400,-3.500190
0.047500,-3.457994
0.047600,-3.468057
0.047700,-3.500840
0.047800,-3.587504
0.047900,-3.656965
0.048000,-3.665404
0.048100,-3.456371
0.048200,-3.226890
0.048300,-3.344065
0.048400,-3.574520
0.048500,-3.840356
0.048600,-3.887745
0.048700,-3.605681
0.048800,-3.361268
0.048900,-3.320046
0.049000,-3.512525
0.049100,-3.779009
0.049200,-3.878008
0.049300,-3.784203
0.049400,-3.595618
0.049500,-3.478443
0.049600,-3.468381
0.049700,-3.544009
0.049800,-3.580363
0.049900,-3.540439
0.050000,-3.494023
0.050100,-3.446959
0.050200,-3.384314
0.050300,-3.255129
0.050400,-3.060378
0.050500,-2.937036
0.050600,-2.887375
0.050700,-2.850697
0.050800,-2.847776
0.050900,-2.726057
0.051000,-2.538447
0.051100,-2.416729
0.051200,-2.105453
0.051300,-2.113568
0.051400,-2.075592
0.051500,-2.000613
0.051600,-1.855524
0.051700,-1.705567
0.051800,-1.541328
0.051900,-1.502703
0.052000,-1.465701
0.052100,-1.422531
0.052200,-1.450445
0.052300,-1.400784
0.052400,-1.457586
0.052500,-1.360211
0.052600,-1.312173
0.052700,-1.294646
0.052800,-1.251152
0.052900,-1.342035
0.053000,-1.292374
0.053100,-1.397863
0.053200,-1.185586
0.053300,-0.957405
0.053400,-0.553625
0.053500,-0.683782
0.053600,-1.124889
0.053700,-1.293023
0.053800,-1.241414
0.053900,-0.798360
0.054000,-0.625033
0.054100,-0.560117
0.054200,-0.736040
0.054300,-0.940527
0.054400,-0.968765
0.054500,-0.764279
0.054600,-0.508183
0.054700,-0.438398
0.054800,-0.466962
0.054900,-0.588680
0.055000,-0.554923
0.055100,-0.567257
0.055200,-0.520193
0.055300,-0.487735
0.055400,-0.501692
0.055500,-0.478971
0.055600,-0.483515
0.055700,-0.530904
0.055800,-0.612374
0.055900,-0.653596
0.056000,-0.777911
0.056100,-0.746427
0.056200,-0.692546
0.056300,-0.575696
0.056400,-0.690274
0.056500,-0.966818
0.056600,-1.194025
0.056700,-1.107686
0.056800,-0.860030
0.056900,-0.634121
0.057000,-0.776613
0.057100,-1.113529
0.057200,-1.405653
0.057300,-1.345281
0.057400,-1.094379
0.057500,-0.921052
0.057600,-0.997653
0.057700,-1.164488
0.057800,-1.303085
0.057900,-1.266083
0.058000,-1.290102
0.058100,-1.230378
0.058200,-1.276794
0.058300,-1.310550
0.058400,-1.365405
0.058500,-1.380985
0.058600,-1.376116
0.058700,-1.427725
0.058800,-1.469596
0.058900,-1.450121
0.059000,-1.394293
0.059100,-1.389424
0.059200,-1.397863
0.059300,-1.571190
0.059400,-1.645519
0.059500,-1.635457
0.059600,-1.493939
0.059700,-1.453691
0.059800,-1.518608
0.059900,-1.539705
0.060000,-1.502054
0.060100,-1.529968
0.060200,-1.577357
0.060300,-1.544899
0.060400,-1.534837
0.060500,-1.547171
0.060600,-1.546522
0.060700,-1.539056
0.060800,-1.571190
0.060900,-1.574760
0.061000,-1.596183
0.061100,-1.589042
0.061200,-1.639677
0.061300,-1.652985
0.061400,-1.738025
0.061500,-1.730885
0.061600,-2.020737
0.061700,-2.365769
0.061800,-2.469636
0.061900,-2.291115
0.062000,-1.992498
0.062100,-1.948680
0.062200,-2.203802
0.062300,-2.622190
0.062400,-2.825704
0.062500,-2.735145
0.062600,-2.544290
0.062700,-2.411211
0.062800,-2.518972
0.062900,-2.718267
0.063000,-2.903604
0.063100,-2.991242
0.063200,-2.937361
0.063300,-2.893542
0.063400,-2.895814
0.063500,-2.936387
0.063600,-2.993839
0.063700,-2.992865
0.063800,-3.025323
0.063900,-3.050965
0.064000,-3.062001
0.064100,-3.118154
0.064200,-3.162298
0.064300,-3.133734
0.064400,-3.155157
0.064500,-3.155157
0.064600,-3.240198
0.064700,-3.211310
0.064800,-3.022077
0.064900,-2.900358
0.065000,-2.979557
0.065100,-3.312256
0.065200,-3.491751
0.065300,-3.479092
0.065400,-3.206766
0.065500,-2.970144
0.065600,-3.003251
0.065700,-3.264217
0.065800,-3.540764
0.065900,-3.599189
0.066000,-3.460916
0.066100,-3.277525
0.066200,-3.210985
0.066300,-3.247664
0.066400,-3.321344
0.066500,-3.318423
0.066600,-3.245391
0.066700,-3.181773
0.066800,-3.137954
0.066900,-3.055834
0.067000,-2.866277
0.067100,-2.703660
0.067200,-2.592328
0.067300,-2.578696
0.067400,-2.573178
0.067500,-2.551755
0.067600,-2.388490
0.067700,-2.191792
0.067800,-2.115191
0.067900,-1.865911
0.068000,-1.861367
0.068100,-1.809758
0.068200,-1.697453
0.068300,-1.550417
0.068400,-1.430321
0.068500,-1.271276
0.068600,-1.224536
0.068700,-1.187858
0.068800,-1.201815
0.068900,-1.191429
0.069000,-1.199868
0.069100,-1.193701
0.069200,-1.087562
0.069300,-1.089834
0.069400,-1.009663
0.069500,-1.117099
0.069600,-1.056078
0.069700,-1.199219
0.069800,-1.072631
0.069900,-0.956431
0.070000,-0.565310
0.070100,-0.364394
0.070200,-0.618866
0.070300,-0.877558
0.070400,-1.183314
0.070500,-0.848994
0.070600,-0.642560
0.070700,-0.359200
0.070800,-0.435802
0.070900,-0.629902
0.071000,-0.804527
0.071100,-0.716890
0.071200,-0.632498
0.071300,-0.351735
0.071400,-0.336804
0.071500,-0.336480
0.071600,-0.406589
0.071700,-0.466312
0.071800,-0.425090
0.071900,-0.418599
0.072000,-0.376403
0.072100,-0.371859
0.072200,-0.350761
0.072300,-0.454627
0.072400,-0.455926
0.072500,-0.611076
0.072600,-0.617892
0.072700,-0.685081
0.072800,-0.688976
0.072900,-0.567906
0.073000,-0.603611
0.073100,-0.693520
0.073200,-1.102168
0.073300,-1.121968
0.073400,-1.054455
0.073500,-0.729873
0.073600,-0.765577
0.073700,-0.815238
0.073800,-1.216746
0.073900,-1.362808
0.074000,-1.287180
0.074100,-1.052832
0.074200,-0.945720
0.074300,-1.030436
0.074400,-1.208631
0.074500,-1.291075
0.074600,-1.294321
0.074700,-1.322235
0.074800,-1.293347
0.074900,-1.385853
0.075000,-1.436164
0.075100,-1.490369
0.075200,-1.479982
0.075300,-1.475763
0.075400,-1.556908
0.075500,-1.603648
0.075600,-1.584173
0.075700,-1.537433
0.075800,-1.503677
0.075900,-1.565997
0.076000,-1.760746
0.076100,-1.831181
0.076200,-1.836699
0.076300,-1.751982
0.076400,-1.694856
0.076500,-1.760746
0.076600,-1.785090
0.076700,-1.767562
0.076800,-1.735104
0.076900,-1.781844
0.077000,-1.758799
0.077100,-1.757176
0.077200,-1.734130
0.077300,-1.747114
0.077400,-1.766913
0.077500,-1.783467
0.077600,-1.797749
0.077700,-1.815925
0.077800,-1.790283
0.077900,-1.867859
0.078000,-1.892851
0.078100,-1.959391
0.078200,-2.037291
0.078300,-2.309941
0.078400,-2.696844
0.078500,-2.731899
0.078600,-2.503392
0.078700,-2.222303
0.078800,-2.236909
0.078900,-2.589082
0.079000,-2.884778
0.079100,-3.060054
0.079200,-2.908798
0.079300,-2.738716
0.079400,-2.678018
0.079500,-2.851671
0.079600,-3.017209
0.079700,-3.174957
0.079800,-3.219425
0.079900,-3.138928
0.080000,-3.132436
0.080100,-3.142823
0.080200,-3.212284
0.080300,-3.242795
0.080400,-3.265840
0.080500,-3.258050
0.080600,-3.271358
0.080700,-3.288237
0.080800,-3.418070
0.080900,-3.400867
0.081000,-3.395674
0.081100,-3.383015
0.081200,-3.453450
0.081300,-3.465784
0.081400,-3.408658
0.081500,-3.164894
0.081600,-3.084398
0.081700,-3.241496
0.081800,-3.554721
0.081900,-3.674817
0.082000,-3.607304
0.082100,-3.286614
0.082200,-3.101925
0.082300,-3.177878
0.082400,-3.447283
0.082500,-3.661509
0.082600,-3.654368
0.082700,-3.498243
0.082800,-3.346013
0.082900,-3.331082
0.083000,-3.357049
0.083100,-3.418395
0.083200,-3.407035
0.083300,-3.345039
0.083400,-3.297974
0.083500,-3.227215
0.083600,-3.146718
0.083700,-2.999356
0.083800,-2.844530
0.083900,-2.758515
0.084000,-2.725083
0.084100,-2.688080
0.084200,-2.670878
0.084300,-2.475478
0.084400,-2.344346
0.084500,-2.220031
0.084600,-1.997692
0.084700,-1.989902
0.084800,-1.923687
0.084900,-1.802617
0.085000,-1.645844
0.085100,-1.488097
0.085200,-1.381309
0.085300,-1.339114
0.085400,-1.308927
0.085500,-1.309252
0.085600,-1.258617
0.085700,-1.272250
0.085800,-1.173901
0.085900,-1.124240
0.086000,-1.132355
0.086100,-1.022321
0.086200,-1.145662
0.086300,-1.038875
0.086400,-1.176498
0.086500,-0.994732
0.086600,-0.863601
0.086700,-0.486436
0.086800,-0.338103
0.086900,-0.593224
0.087000,-0.949290
0.087100,-1.055104
0.087200,-0.836985
0.087300,-0.398799
0.087400,-0.372184
0.087500,-0.352709
0.087600,-0.667878
0.087700,-0.695792
0.087800,-0.675992
0.087900,-0.489033
0.088000,-0.325119
0.088100,-0.330313
0.088200,-0.318303
0.088300,-0.410809
0.088400,-0.387764
0.088500,-0.383219
0.088600,-0.356604
0.088700,-0.358876
0.088800,-0.355630
0.088900,-0.388088
0.089000,-0.432556
0.089100,-0.402370
0.089200,-0.518245
0.089300,-0.604584
0.089400,-0.697090
0.089500,-0.637042
0.089600,-0.561090
0.089700,-0.575696
0.089800,-0.678589
0.089900,-1.076851
0.090000,-1.106388
0.090100,-0.922025
0.090200,-0.638665
0.090300,-0.650675
0.090400,-0.835362
0.090500,-1.227782
0.090600,-1.277767
0.090700,-1.159944
0.090800,-0.885023
0.090900,-0.882426
0.091000,-1.052507
0.091100,-1.240765
0.091200,-1.273548
0.091300,-1.250503
0.091400,-1.225185
0.091500,-1.217071
0.091600,-1.332297
0.091700,-1.418312
0.091800,-1.469596
0.091900,-1.426751
0.092000,-1.436488
0.092100,-1.519581
0.092200,-1.550417
0.092300,-1.541978
0.092400,-1.480631
0.092500,-1.429023
0.092600,-1.533214
0.092700,-1.717901
0.092800,-1.735753
0.092900,-1.747438
0.093000,-1.557557
0.093100,-1.608842
0.093200,-1.655906
0.093300,-1.634484
0.093400,-1.641949
0.093500,-1.592288
0.093600,-1.617281
0.093700,-1.613386
0.093800,-1.623772
0.093900,-1.625720
0.094000,-1.635782
0.094100,-1.612737
0.094200,-1.665968
0.094300,-1.637405
0.094400,-1.693882
0.094500,-1.701023
0.094600,-1.746140
0.094700,-1.800994
0.094800,-1.798722
0.094900,-1.958742
0.095000,-2.226198
0.095100,-2.587459
0.095200,-2.549808
0.095300,-2.234637
0.095400,-2.010026
0.095500,-2.060336
0.095600,-2.499497
0.095700,-2.769876
0.095800,-2.847451
0.095900,-2.691975
0.096000,-2.506314
0.096100,-2.500796
0.096200,-2.676395
0.096300,-2.896139
0.096400,-2.997409
0.096500,-2.991891
0.096600,-2.910745
0.096700,-2.879910
0.096800,-2.970793
0.096900,-3.061352
0.097000,-3.084722
0.097100,-3.095433
0.097200,-3.059080
0.097300,-3.098355
0.097400,-3.165868
0.097500,-3.316475
0.097600,-3.281420
0.097700,-3.248313
0.097800,-3.201248
0.097900,-3.281745
0.098000,-3.302843
0.098100,-3.258375
0.098200,-3.000330
0.098300,-2.976311
0.098400,-3.204169
0.098500,-3.487532
0.098600,-3.552124
0.098700,-3.395999
0.098800,-3.111663
0.098900,-3.014937
0.099000,-3.176255
0.099100,-3.499866
0.099200,-3.705977
0.099300,-3.670273
0.099400,-3.470653
0.099500,-3.355750
0.099600,-3.362242
0.099700,-3.451178
0.099800,-3.504085
0.099900,-3.498568
0.100000,-3.400543
0.100100,-3.348934
0.100200,-3.301220
0.100300,-3.244418
0.100400,-3.074011
0.100500,-2.913342
0.100600,-2.855566
0.100700,-2.803957
0.100800,-2.801685
0.100900,-2.777666
0.101000,-2.564739
0.101100,-2.429387
0.101200,-2.170370
0.101300,-2.104155
0.101400,-2.101883
0.101500,-2.010350
0.101600,-1.885061
0.101700,-1.756851
0.101800,-1.567295
0.101900,-1.489395
0.102000,-1.454989
0.102100,-1.432918
0.102200,-1.450121
0.102300,-1.366378
0.102400,-1.388775
0.102500,-1.296593
0.102600,-1.230378
0.102700,-1.203114
0.102800,-1.202464
0.102900,-1.228431
0.103000,-1.270627
0.103100,-1.271600
0.103200,-1.218044
0.103300,-0.899305
0.103400,-0.595821
0.103500,-0.449110
0.103600,-0.866846
0.103700,-1.131381
0.103800,-1.167409
0.103900,-0.798360
0.104000,-0.560766
0.104100,-0.458522
0.104200,-0.482217
0.104300,-0.768498
0.104400,-0.795114
0.104500,-0.733443
0.104600,-0.502990
0.104700,-0.365043
0.104800,-0.327391
0.104900,-0.354332
0.105000,-0.490656
0.105100,-0.513701
0.105200,-0.466312
0.105300,-0.410484
0.105400,-0.402370
0.105500,-0.410160
0.105600,-0.449434
0.105700,-0.527658
0.105800,-0.486761
0.105900,-0.665930
0.106000,-0.654894
0.106100,-0.858732
0.106200,-0.675343
0.106300,-0.714942
0.106400,-0.635420
0.106500,-0.910340
0.106600,-1.250178
0.106700,-1.163190
0.106800,-0.973959
0.106900,-0.694169
0.107000,-0.806150
0.107100,-1.031734
0.107200,-1.387801
0.107300,-1.391696
0.107400,-1.225185
0.107500,-0.963572
0.107600,-0.971686
0.107700,-1.137548
0.107800,-1.324183
0.107900,-1.366703
0.108000,-1.398837
0.108100,-1.315094
0.108200,-1.329701
0.108300,-1.384555
0.108400,-1.533863
0.108500,-1.598455
0.108600,-1.574111
0.108700,-1.585472
0.108800,-1.613386
0.108900,-1.640651
0.109000,-1.593262
0.109100,-1.577032
0.109200,-1.579305
0.109300,-1.696154
0.109400,-1.825014
0.109500,-1.860718
0.109600,-1.783142
0.109700,-1.685768
0.109800,-1.747763
0.109900,-1.784441
0.110000,-1.761720
0.110100,-1.794178
0.110200,-1.794503
0.110300,-1.789309
0.110400,-1.773080
0.110500,-1.788660
0.110600,-1.783142
0.110700,-1.784441
0.110800,-1.783792
0.110900,-1.825987
0.111000,-1.817873
0.111100,-1.844813
0.111200,-1.848059
0.111300,-1.862016
0.111400,-1.953873
0.111500,-1.950303
0.111600,-2.105778
0.111700,-2.459898
0.111800,-2.702687
0.111900,-2.552729
0.112000,-2.209320
0.112100,-2.085978
0.112200,-2.198609
0.112300,-2.628682
0.112400,-2.852644
0.112500,-2.852969
0.112600,-2.634849
0.112700,-2.483917
0.112800,-2.514104
0.112900,-2.697169
0.113000,-2.891919
0.113100,-2.983776
0.113200,-2.972741
0.113300,-2.908473
0.113400,-2.898086
0.113500,-2.965924
0.113600,-3.033762
0.113700,-3.050316
0.113800,-3.102250
0.113900,-3.147367
0.114000,-3.134384
0.114100,-3.235978
0.114200,-3.314853
0.114300,-3.251883
0.114400,-3.257401
0.114500,-3.305440
0.114600,-3.359321
0.114700,-3.364189
0.114800,-3.220398
0.114900,-3.021753
0.115000,-3.063949
0.115100,-3.345688
0.115200,-3.592373
0.115300,-3.643332
0.115400,-3.409631
0.115500,-3.129839
0.115600,-3.097706
0.115700,-3.301545
0.115800,-3.600487
0.115900,-3.757262
0.116000,-3.701109
0.116100,-3.525833
0.116200,-3.403140
0.116300,-3.412877
0.116400,-3.510577
0.116500,-3.573871
0.116600,-3.547255
0.116700,-3.495971
0.116800,-3.417421
0.116900,-3.371979
0.117000,-3.269735
0.117100,-3.118479
0.117200,-3.004225
0.117300,-2.938984
0.117400,-2.921456
0.117500,-2.918860
0.117600,-2.827327
0.117700,-2.587135
0.117800,-2.500471
0.117900,-2.198933
0.118000,-2.208346
0.118100,-2.176862
0.118200,-2.069100
0.118300,-1.887983
0.118400,-1.795477
0.118500,-1.579305
0.118600,-1.505300
0.118700,-1.475114
0.118800,-1.424479
0.118900,-1.450770
0.119000,-1.386827
0.119100,-1.428374
0.119200,-1.353395
0.119300,-1.265109
0.119400,-1.217720
0.119500,-1.204736
0.119600,-1.232326
0.119700,-1.265109
0.119800,-1.205710
0.119900,-1.206684
0.120000,-0.816861
0.120100,-0.503964
0.120200,-0.480919
0.120300,-0.948966
0.120400,-1.140469
0.120500,-1.115476
0.120600,-0.851267
0.120700,-0.505262
0.120800,-0.444241
0.120900,-0.638990
0.121000,-0.846073
0.121100,-0.904173
0.121200,-0.714942
0.121300,-0.590303
0.121400,-0.433854
0.121500,-0.436775
0.121600,-0.493902
0.121700,-0.541291
0.121800,-0.564985
0.121900,-0.518245
0.122000,-0.523114
0.122100,-0.490656
0.122200,-0.461119
0.122300,-0.436451
0.122400,-0.516947
0.122500,-0.533176
0.122600,-0.633472
0.122700,-0.690274
0.122800,-0.723381
0.122900,-0.661386
0.123000,-0.556871
0.123100,-0.620164
0.123200,-0.924622
0.123300,-1.155725
0.123400,-1.081071
0.123500,-0.797386
0.123600,-0.624384
0.123700,-0.722407
0.123800,-1.046340
0.123900,-1.371247
0.124000,-1.340412
0.124100,-1.116775
0.124200,-0.892813
0.124300,-0.922999
0.124400,-1.120345
0.124500,-1.296593
0.124600,-1.290102
0.124700,-1.284908
0.124800,-1.192078
0.124900,-1.267381
0.125000,-1.321586
0.125100,-1.424479
0.125200,-1.433567
0.125300,-1.386827
0.125400,-1.423180
0.125500,-1.490044
0.125600,-1.480956
0.125700,-1.426751
0.125800,-1.395915
0.125900,-1.390722
0.126000,-1.544250
0.126100,-1.668240
0.126200,-1.662398
0.126300,-1.585472
0.126400,-1.478684
0.126500,-1.541978
0.126600,-1.576059
0.126700,-1.576059
0.126800,-1.587744
0.126900,-1.592288
0.127000,-1.590340
0.127100,-1.599429
0.127200,-1.627343
0.127300,-1.628966
0.127400,-1.621500
0.127500,-1.619553
0.127600,-1.650388
0.127700,-1.653634
0.127800,-1.667266
0.127900,-1.695181
0.128000,-1.719524
0.128100,-1.788011
0.128200,-1.809434
0.128300,-1.981787
0.128400,-2.438800
0.128500,-2.524490
0.128600,-2.452433
0.128700,-2.097663
0.128800,-2.074942
0.128900,-2.249893
0.129000,-2.743584
0.129100,-2.980855
0.129200,-2.940931
0.129300,-2.759489
0.129400,-2.606285
0.129500,-2.692625
0.129600,-2.948397
0.129700,-3.156455
0.129800,-3.225592
0.129900,-3.162298
0.130000,-3.161649
0.130100,-3.119777
0.130200,-3.174307
0.130300,-3.267463
0.130400,-3.287587
0.130500,-3.314853
0.130600,-3.307063
0.130700,-3.316475
0.130800,-3.396323
0.130900,-3.473250
0.131000,-3.386910
0.131100,-3.404763
0.131200,-3.390481
0.131300,-3.460267
0.131400,-3.445985
0.131500,-3.248962
0.131600,-3.065247
0.131700,-3.129839
0.131800,-3.422615
0.131900,-3.628077
0.132000,-3.661834
0.132100,-3.380743
0.132200,-3.108092
0.132300,-3.090889
0.132400,-3.328161
0.132500,-3.645605
0.132600,-3.748498
0.132700,-3.621261
0.132800,-3.418070
0.132900,-3.330108
0.133000,-3.387560
0.133100,-3.448906
0.133200,-3.471952
0.133300,-3.434949
0.133400,-3.402815
0.133500,-3.342118
0.133600,-3.281745
0.133700,-3.117181
0.133800,-2.953590
0.133900,-2.838687
0.134000,-2.809150
0.134100,-2.804281
0.134200,-2.804931
0.134300,-2.651727
0.134400,-2.406666
0.134500,-2.325845
0.134600,-2.013921
0.134700,-2.032747
0.134800,-1.957443
0.134900,-1.824689
0.135000,-1.698751
0.135100,-1.591639
0.135200,-1.416040
0.135300,-1.330999
0.135400,-1.281338
0.135500,-1.269977
0.135600,-1.220316
0.135700,-1.250827
0.135800,-1.185911
0.135900,-1.135600
0.136000,-1.061596
0.136100,-1.027515
0.136200,-1.051858
0.136300,-1.007066
0.136400,-1.135925
0.136500,-0.950589
0.136600,-0.992135
0.136700,-0.464040
0.136800,-0.357902
0.136900,-0.284547
0.137000,-0.798684
0.137100,-0.954808
0.137200,-0.746751
0.137300,-0.556546
0.137400,-0.184575
0.137500,-0.269291
0.137600,-0.406589
0.137700,-0.611725
0.137800,-0.639639
0.137900,-0.409511
0.138000,-0.300451
0.138100,-0.155363
0.138200,-0.189120
0.138300,-0.215735
0.138400,-0.219630
0.138500,-0.318628
0.138600,-0.253387
0.138700,-0.241702
0.138800,-0.237807
0.138900,-0.224174
0.139000,-0.203726
0.139100,-0.311811
0.139200,-0.444565
0.139300,-0.439048
0.139400,-0.575696
0.139500,-0.511429
0.139600,-0.498771
0.139700,-0.460145
0.139800,-0.514350
0.139900,-0.859706
0.140000,-0.989863
0.140100,-0.865873
0.140200,-0.615620
0.140300,-0.456575
0.140400,-0.654245
0.140500,-0.976555
0.140600,-1.203114
0.140700,-1.100546
0.140800,-0.872689
0.140900,-0.743830
0.141000,-0.863601
0.141100,-1.046340
0.141200,-1.138846
0.141300,-1.066789
0.141400,-1.118722
0.141500,-1.098598
0.141600,-1.230703
0.141700,-1.274197
0.141800,-1.337491
0.141900,-1.314770
0.142000,-1.332946
0.142100,-1.399161
0.142200,-1.441682
0.142300,-1.395915
0.142400,-1.354369
0.142500,-1.313796
0.142600,-1.361834
0.142700,-1.525748
0.142800,-1.601376
0.142900,-1.605271
0.143000,-1.447524
0.143100,-1.443304
0.143200,-1.492641
0.143300,-1.497185
0.143400,-1.491992
0.143500,-1.478035
0.143600,-1.484202
0.143700,-1.491667
0.143800,-1.500756
0.143900,-1.491018
0.144000,-1.448822
0.144100,-1.466025
0.144200,-1.470245
0.144300,-1.487448
0.144400,-1.444927
0.144500,-1.438760
0.144600,-1.475114
0.144700,-1.485500
0.144800,-1.536784
0.144900,-1.618904
0.145000,-1.821119
0.145100,-2.245998
0.145200,-2.263525
0.145300,-2.098637
0.145400,-1.729911
0.145500,-1.791906
0.145600,-2.017816
0.145700,-2.502743
0.145800,-2.648157
0.145900,-2.565388
0.146000,-2.377454
0.146100,-2.262876
0.146200,-2.408614
0.146300,-2.697493
0.146400,-2.862057
0.146500,-2.845828
0.146600,-2.766305
0.146700,-2.778639
0.146800,-2.839012
0.146900,-2.903604
0.147000,-2.950344
0.147100,-2.970468
0.147200,-2.977934
0.147300,-3.018832
0.147400,-3.089266
0.147500,-3.180475
0.147600,-3.199300
0.147700,-3.193458
0.147800,-3.191510
0.147900,-3.266165
0.148000,-3.333029
0.148100,-3.298948
0.148200,-3.073686
0.148300,-2.946774
0.148400,-3.060703
0.148500,-3.412228
0.148600,-3.600163
0.148700,-3.552449
0.148800,-3.211635
0.148900,-2.989619
0.149000,-3.081152
0.149100,-3.401192
0.149200,-3.652096
0.149300,-3.673194
0.149400,-3.458644
0.149500,-3.294079
0.149600,-3.314853
0.149700,-3.408982
0.149800,-3.459617
0.149900,-3.413526
0.150000,-3.356724
0.150100,-3.295377
0.150200,-3.240847
0.150300,-3.197028
0.150400,-3.034087
0.150500,-2.847451
0.150600,-2.738716
0.150700,-2.691326
0.150800,-2.668281
0.150900,-2.666333
0.151000,-2.487488
0.151100,-2.332661
0.151200,-2.254761
0.151300,-1.980813
0.151400,-2.022685
0.151500,-1.973023
0.151600,-1.862016
0.151700,-1.739648
0.151800,-1.593586
0.151900,-1.503028
0.152000,-1.436813
0.152100,-1.458235
0.152200,-1.485500
0.152300,-1.411820
0.152400,-1.453042
0.152500,-1.395266
0.152600,-1.372221
0.152700,-1.342359
0.152800,-1.316393
0.152900,-1.353395
0.153000,-1.320288
0.153100,-1.397538
0.153200,-1.332622
0.153300,-1.167085
0.153400,-0.861004
0.153500,-0.571477
0.153600,-0.805176
0.153700,-1.197271
0.153800,-1.291075
0.153900,-1.162541
0.154000,-0.773367
0.154100,-0.652947
0.154200,-0.575696
0.154300,-0.835362
0.154400,-0.967467
0.154500,-0.924297
0.154600,-0.733443
0.154700,-0.551353
0.154800,-0.459821
0.154900,-0.505911
0.155000,-0.615295
0.155100,-0.588355
0.155200,-0.554923
0.155300,-0.507210
0.155400,-0.478971
0.155500,-0.521167
0.155600,-0.540966
0.155700,-0.578293
0.155800,-0.619190
0.155900,-0.745128
0.156000,-0.696116
0.156100,-0.820756
0.156200,-0.811018
0.156300,-0.738961
0.156400,-0.735715
0.156500,-0.792193
0.156600,-1.177472
0.156700,-1.293672
0.156800,-1.131056
0.156900,-0.821405
0.157000,-0.697739
0.157100,-0.922675
0.157200,-1.272899
0.157300,-1.449147
0.157400,-1.341710
0.157500,-1.052832
0.157600,-0.953510
0.157700,-1.109958
0.157800,-1.329701
0.157900,-1.423830
0.158000,-1.398188
0.158100,-1.405328
0.158200,-1.377414
0.158300,-1.491667
0.158400,-1.592288
0.158500,-1.683820
0.158600,-1.670837
0.158700,-1.655581
0.158800,-1.699725
0.158900,-1.729586
0.159000,-1.741271
0.159100,-1.744842
0.159200,-1.725042
0.159300,-1.803267
0.159400,-1.950952
0.159500,-1.990551
0.159600,-1.999964
0.159700,-1.831181
0.159800,-1.840269
0.159900,-1.927906
0.160000,-1.941863
0.160100,-1.958093
0.160200,-1.930828
0.160300,-1.920116
0.160400,-1.913949
0.160500,-1.947381
0.160600,-1.976269
0.160700,-1.972374
0.160800,-1.979515
0.160900,-1.984708
0.161000,-1.998665
0.161100,-2.024957
0.161200,-2.022685
0.161300,-2.086303
0.161400,-2.089549
0.161500,-2.160632
0.161600,-2.152518
0.161700,-2.512156
0.161800,-2.784157
0.161900,-2.852320
0.162000,-2.515727
0.162100,-2.327468
0.162200,-2.344996
0.162300,-2.616997
0.162400,-3.020130
0.162500,-3.145744
0.162600,-3.026622
0.162700,-2.806229
0.162800,-2.709178
0.162900,-2.878611
0.163000,-3.077257
0.163100,-3.243119
0.163200,-3.260647
0.163300,-3.185668
0.163400,-3.168140
0.163500,-3.169763
0.163600,-3.250260
0.163700,-3.280771
0.163800,-3.308361
0.163900,-3.337573
0.164000,-3.330433
0.164100,-3.322967
0.164200,-3.343741
0.164300,-3.403789
0.164400,-3.366462
0.164500,-3.387560
0.164600,-3.440467
0.164700,-3.461565
0.164800,-3.378796
0.164900,-3.127892
0.165000,-3.013638
0.165100,-3.163596
0.165200,-3.451503
0.165300,-3.604382
0.165400,-3.464811
0.165500,-3.130489
0.165600,-2.960406
0.165700,-3.054211
0.165800,-3.381717
0.165900,-3.553422
0.166000,-3.534596
0.166100,-3.359321
0.166200,-3.241172
0.166300,-3.250585
0.166400,-3.309010
0.166500,-3.329134
0.166600,-3.294728
0.166700,-3.251559
0.166800,-3.228838
0.166900,-3.157429
0.167000,-3.052588
0.167100,-2.895814
0.167200,-2.740663
0.167300,-2.670228
0.167400,-2.642639
0.167500,-2.615049
0.167600,-2.573178
0.167700,-2.349540
0.167800,-2.204776
0.167900,-2.113892
0.168000,-1.895123
0.168100,-1.871429
0.168200,-1.788336
0.168300,-1.659476
0.168400,-1.535161
0.168500,-1.343658
0.168600,-1.288479
0.168700,-1.216421
0.168800,-1.236870
0.168900,-1.232651
0.169000,-1.214799
0.169100,-1.239467
0.169200,-1.183639
0.169300,-1.161567
0.169400,-1.116450
0.169500,-1.115801
0.169600,-1.226483
0.169700,-1.205710
0.169800,-1.330999
0.169900,-1.170980
0.170000,-1.080097
0.170100,-0.636718
0.170200,-0.650675
0.170300,-0.777911
0.170400,-1.279066
0.170500,-1.282636
0.170600,-0.916832
0.170700,-0.744804
0.170800,-0.482217
0.170900,-0.633472
0.171000,-0.741233
0.171100,-0.920727
0.171200,-0.762331
0.171300,-0.567257
0.171400,-0.470532
0.171500,-0.447811
0.171600,-0.545510
0.171700,-0.534475
0.171800,-0.525386
0.171900,-0.564012
0.172000,-0.475076
0.172100,-0.495200
0.172200,-0.502666
0.172300,-0.465014
0.172400,-0.492279
0.172500,-0.638016
0.172600,-0.663983
0.172700,-0.730522
0.172800,-0.744479
0.172900,-0.684107
0.173000,-0.645806
0.173100,-0.650675
0.173200,-0.839582
0.173300,-1.140145
0.173400,-1.171629
0.173500,-0.948966
0.173600,-0.681186
0.173700,-0.695467
0.173800,-0.974608
0.173900,-1.323209
0.174000,-1.338140
0.174100,-1.124240
0.174200,-0.887620
0.174300,-0.873014
0.174400,-1.097949
0.174500,-1.277767
0.174600,-1.269328
0.174700,-1.233624
0.174800,-1.163515
0.174900,-1.207333
0.175000,-1.315744
0.175100,-1.409872
0.175200,-1.437462
0.175300,-1.389424
0.175400,-1.408250
0.175500,-1.488097
0.175600,-1.473815
0.175700,-1.441357
0.175800,-1.401109
0.175900,-1.372870
0.176000,-1.476412
0.176100,-1.652011
0.176200,-1.676355
0.176300,-1.685443
0.176400,-1.470894
0.176500,-1.524775
0.176600,-1.575410
0.176700,-1.559830
0.176800,-1.578006
0.176900,-1.583849
0.177000,-1.556908
0.177100,-1.586445
0.177200,-1.604622
0.177300,-1.615982
0.177400,-1.653309
0.177500,-1.673758
0.177600,-1.714980
0.177700,-1.720823
0.177800,-1.745491
0.177900,-1.759772
0.178000,-1.824040
0.178100,-1.885386
0.178200,-1.940241
0.178300,-2.028202
0.178400,-2.410237
0.178500,-2.673799
0.178600,-2.673150
0.178700,-2.384270
0.178800,-2.208346
0.178900,-2.361874
0.179000,-2.695870
0.179100,-3.038307
0.179200,-3.108092
0.179300,-2.967872
0.179400,-2.761761
0.179500,-2.794544
0.179600,-3.006497
0.179700,-3.254804
0.179800,-3.353478
0.179900,-3.322318
0.180000,-3.268437
0.180100,-3.311931
0.180200,-3.331731
0.180300,-3.441765
0.180400,-3.494997
0.180500,-3.473899
0.180600,-3.490778
0.180700,-3.487207
0.180800,-3.583284
0.180900,-3.653395
0.181000,-3.643982
0.181100,-3.598864
0.181200,-3.619638
0.181300,-3.655991
0.181400,-3.692020
0.181500,-3.551150
0.181600,-3.302194
0.181700,-3.278499
0.181800,-3.512525
0.181900,-3.831917
0.182000,-3.940004
0.182100,-3.708574
0.182200,-3.371330
0.182300,-3.220398
0.182400,-3.406061
0.182500,-3.738111
0.182600,-3.931564
0.182700,-3.828995
0.182800,-3.598215
0.182900,-3.450204
0.183000,-3.444037
0.183100,-3.531675
0.183200,-3.568353
0.183300,-3.543360
0.183400,-3.459617
0.183500,-3.389182
0.183600,-3.321344
0.183700,-3.231110
0.183800,-3.122374
0.183900,-2.970793
0.184000,-2.878936
0.184100,-2.816616
0.184200,-2.801036
0.184300,-2.739689
0.184400,-2.503717
0.184500,-2.344996
0.184600,-2.044432
0.184700,-2.057740
0.184800,-2.041835
0.184900,-1.963286
0.185000,-1.842541
0.185100,-1.730560
0.185200,-1.505624
0.185300,-1.436488
0.185400,-1.388125
0.185500,-1.397214
0.185600,-1.395591
0.185700,-1.354693
0.185800,-1.347553
0.185900,-1.309577
0.186000,-1.194025
0.186100,-1.271600
0.186200,-1.176173
0.186300,-1.310226
0.186400,-1.215123
0.186500,-1.316717
0.186600,-1.127486
0.186700,-0.927543
0.186800,-0.544537
0.186900,-0.540317
0.187000,-0.884698
0.187100,-1.194025
0.187200,-1.251476
0.187300,-0.861978
0.187400,-0.633147
0.187500,-0.481243
0.187600,-0.552651
0.187700,-0.819133
0.187800,-0.889243
0.187900,-0.848021
0.188000,-0.520193
0.188100,-0.431582
0.188200,-0.367640
0.188300,-0.407238
0.188400,-0.449434
0.188500,-0.419248
0.188600,-0.437100
0.188700,-0.368938
0.188800,-0.363745
0.188900,-0.345568
0.189000,-0.444241
0.189100,-0.431258
0.189200,-0.602312
0.189300,-0.567257
0.189400,-0.626007
0.189500,-0.626980
0.189600,-0.551353
0.189700,-0.543887
0.189800,-0.533176
0.189900,-0.827897
0.190000,-1.080421
0.190100,-1.060947
0.190200,-0.789271
0.190300,-0.582513
0.190400,-0.609778
0.190500,-0.900928
0.190600,-1.241739
0.190700,-1.278092
0.190800,-1.089185
0.190900,-0.863601
0.191000,-0.868794
0.191100,-1.063868
0.191200,-1.248555
0.191300,-1.265109
0.191400,-1.265758
0.191500,-1.171304
0.191600,-1.261538
0.191700,-1.361510
0.191800,-1.434216
0.191900,-1.384555
0.192000,-1.345930
0.192100,-1.435190
0.192200,-1.538083
0.192300,-1.539381
0.192400,-1.504326
0.192500,-1.492966
0.192600,-1.481281
0.192700,-1.630589
0.192800,-1.793204
0.192900,-1.823715
0.193000,-1.807811
0.193100,-1.756202
0.193200,-1.755877
0.193300,-1.787362
0.193400,-1.764966
0.193500,-1.761720
0.193600,-1.754255
0.193700,-1.745166
0.193800,-1.749710
0.193900,-1.737701
0.194000,-1.729262
0.194100,-1.714006
0.194200,-1.718550
0.194300,-1.735429
0.194400,-1.736078
0.194500,-1.716278
0.194600,-1.740947
0.194700,-1.769185
0.194800,-1.796775
0.194900,-1.816250
0.195000,-1.979515
0.195100,-2.356681
0.195200,-2.615698
0.195300,-2.448538
0.195400,-2.210618
0.195500,-2.037291
0.195600,-2.227172
0.195700,-2.629980
0.195800,-2.926974
0.195900,-2.926650
0.196000,-2.765331
0.196100,-2.568958
0.196200,-2.665035
0.196300,-2.862707
0.196400,-3.102574
0.196500,-3.137954
0.196600,-3.165544
0.196700,-3.162947
0.196800,-3.186317
0.196900,-3.227864
0.197000,-3.289210
0.197100,-3.331406
0.197200,-3.376524
0.197300,-3.457021
0.197400,-3.517718
0.197500,-3.593996
0.197600,-3.650149
0.197700,-3.603084
0.197800,-3.622559
0.197900,-3.711495
0.198000,-3.779334
0.198100,-3.790370
0.198200,-3.613795
0.198300,-3.448257
0.198400,-3.494023
0.198500,-3.768622
0.198600,-4.046143
0.198700,-4.106192
0.198800,-3.845549
0.198900,-3.531026
0.199000,-3.477470
0.199100,-3.694617
0.199200,-4.018229
0.199300,-4.136703
0.199400,-3.989665
0.199500,-3.754665
0.199600,-3.698837
0.199700,-3.752393
0.199800,-3.790370
0.199900,-3.737787
0.200000,-3.637815
0.200100,-3.591399
0.200200,-3.577442
0.200300,-3.530701
0.200400,-3.371006
0.200500,-3.138279
0.200600,-2.928597
0.200700,-2.872120
0.200800,-2.863031
0.200900,-2.865628
0.201000,-2.763708
0.201100,-2.512156
0.201200,-2.375831
0.201300,-2.061635
0.201400,-2.032097
0.201500,-1.974971
0.201600,-1.846111
0.201700,-1.673433
0.201800,-1.513090
0.201900,-1.287830
0.202000,-1.197920
0.202100,-1.164488
0.202200,-1.142417
0.202300,-1.117748
0.202400,-1.033357
0.202500,-1.061596
0.202600,-1.012259
0.202700,-0.910665
0.202800,-0.919753
0.202900,-0.884698
0.203000,-0.961624
0.203100,-0.965519
0.203200,-0.988565
0.203300,-0.883076
0.203400,-0.522465
0.203500,-0.212489
0.203600,-0.186847
0.203700,-0.613997
0.203800,-1.003820
0.203900,-0.778236
0.204000,-0.602637
0.204100,-0.276432
0.204200,-0.263124
0.204300,-0.414379
0.204400,-0.711047
0.204500,-0.702283
0.204600,-0.619840
0.204700,-0.334857
0.204800,-0.298504
0.204900,-0.328041
0.205000,-0.410484
0.205100,-0.480919
0.205200,-0.517596
0.205300,-0.425090
0.205400,-0.404317
0.205500,-0.385167
0.205600,-0.357253
0.205700,-0.358551
0.205800,-0.470207
0.205900,-0.588031
0.206000,-0.595496
0.206100,-0.650675
0.206200,-0.694493
0.206300,-0.586732
0.206400,-0.574074
0.206500,-0.500718
0.206600,-0.966493
0.206700,-1.122293
0.206800,-1.106713
0.206900,-0.738312
0.207000,-0.589978
0.207100,-0.645482
0.207200,-1.046665
0.207300,-1.338140
0.207400,-1.298541
0.207500,-1.000899
0.207600,-0.752594
0.207700,-0.823677
0.207800,-1.049262
0.207900,-1.203763
0.208000,-1.162865
0.208100,-1.109634
0.208200,-1.008364
0.208300,-1.111257
0.208400,-1.205061
0.208500,-1.323534
0.208600,-1.317691
0.208700,-1.295295
0.208800,-1.312498
0.208900,-1.357290
0.209000,-1.380660
0.209100,-1.339114
0.209200,-1.311849
0.209300,-1.299839
0.209400,-1.468946
0.209500,-1.572488
0.209600,-1.587095
0.209700,-1.461806
0.209800,-1.361185
0.209900,-1.424803
0.210000,-1.442655
0.210100,-1.405004
0.210200,-1.392670
0.210300,-1.374818
0.210400,-1.367028
0.210500,-1.385204
0.210600,-1.356316
0.210700,-1.345930
0.210800,-1.320937
0.210900,-1.312173
0.211000,-1.303085
0.211100,-1.273872
0.211200,-1.315744
0.211300,-1.343009
0.211400,-1.388450
0.211500,-1.398512
0.211600,-1.464402
0.211700,-1.620527
0.211800,-2.036642
0.211900,-2.174265
0.212000,-1.974971
0.212100,-1.658178
0.212200,-1.563725
0.212300,-1.751009
0.212400,-2.231716
0.212500,-2.481970
0.212600,-2.468662
0.212700,-2.227821
0.212800,-2.068775
0.212900,-2.149272
0.213000,-2.414132
0.213100,-2.639717
0.213200,-2.774420
0.213300,-2.728653
0.213400,-2.676720
0.213500,-2.709178
0.213600,-2.778315
0.213700,-2.838363
0.213800,-2.926650
0.213900,-2.922430
0.214000,-2.976311
0.214100,-3.004550
0.214200,-3.089915
0.214300,-3.111987
0.214400,-3.118154
0.214500,-3.122049
0.214600,-3.156780
0.214700,-3.182097
0.214800,-3.168789
0.214900,-2.917886
0.215000,-2.791947
0.215100,-2.873742
0.215200,-3.129839
0.215300,-3.333354
0.215400,-3.357698
0.215500,-3.071414
0.215600,-2.802009
0.215700,-2.790324
0.215800,-3.059729
0.215900,-3.308036
0.216000,-3.384638
0.216100,-3.276552
0.216200,-3.090565
0.216300,-2.995137
0.216400,-2.981504
0.216500,-3.047070
0.216600,-3.076932
0.216700,-3.086994
0.216800,-3.047395
0.216900,-2.977609
0.217000,-2.902306
0.217100,-2.799737
0.217200,-2.639068
0.217300,-2.548834
0.217400,-2.496576
0.217500,-2.488786
0.217600,-2.489111
0.217700,-2.356681
0.217800,-2.136938
0.217900,-2.073969
0.218000,-1.780221
0.218100,-1.820794
0.218200,-1.795152
0.218300,-1.697777
0.218400,-1.589367
0.218500,-1.450121
0.218600,-1.304708
0.218700,-1.238818
0.218800,-1.225834
0.218900,-1.231352
0.219000,-1.220316
0.219100,-1.255047
0.219200,-1.261863
0.219300,-1.185262
0.219400,-1.104116
0.219500,-1.108660
0.219600,-1.080097
0.219700,-1.140794
0.219800,-1.174226
0.219900,-1.114503
0.220000,-0.965195
0.220100,-0.667553
0.220200,-0.360823
0.220300,-0.346866
0.220400,-0.901577
0.220500,-1.055104
0.220600,-0.865224
0.220700,-0.647104
0.220800,-0.363095
0.220900,-0.405291
0.221000,-0.566284
0.221100,-0.846073
0.221200,-0.754217
0.221300,-0.674045
0.221400,-0.470532
0.221500,-0.435153
0.221600,-0.463391
0.221700,-0.501043
0.221800,-0.566933
0.221900,-0.544861
0.222000,-0.569854
0.222100,-0.556546
0.222200,-0.581214
0.222300,-0.580241
0.222400,-0.529606
0.222500,-0.625033
0.222600,-0.720785
0.222700,-0.786999
0.222800,-0.828870
0.222900,-0.788947
0.223000,-0.671448
0.223100,-0.705205
0.223200,-0.701634
0.223300,-1.152803
0.223400,-1.182016
0.223500,-1.122293
0.223600,-0.864899
0.223700,-0.726627
0.223800,-0.925596
0.223900,-1.268679
0.224000,-1.428698
0.224100,-1.346579
0.224200,-1.154751
0.224300,-1.047314
0.224400,-1.145987
0.224500,-1.299839
0.224600,-1.398837
0.224700,-1.314445
0.224800,-1.354693
0.224900,-1.316393
0.225000,-1.457911
0.225100,-1.525424
0.225200,-1.477710
0.225300,-1.411171
0.225400,-1.443954
0.225500,-1.560479
0.225600,-1.644870
0.225700,-1.646493
0.225800,-1.594560
0.225900,-1.575085
0.226000,-1.621825
0.226100,-1.856174
0.226200,-1.943486
0.226300,-1.967505
0.226400,-1.949004
0.226500,-1.901615
0.226600,-1.928880
0.226700,-1.916546
0.226800,-1.936995
0.226900,-1.932451
0.227000,-1.942837
0.227100,-1.952575
0.227200,-1.980813
0.227300,-1.973023
0.227400,-1.988279
0.227500,-1.984708
0.227600,-1.995420
0.227700,-1.973673
0.227800,-1.977243
0.227900,-2.008078
0.228000,-1.982761
0.228100,-2.008078
0.228200,-1.988279
0.228300,-2.087277
0.228400,-2.243076
0.228500,-2.605636
0.228600,-2.644911
0.228700,-2.383621
0.228800,-2.028202
0.228900,-1.962312
0.229000,-2.298905
0.229100,-2.712100
0.229200,-2.839337
0.229300,-2.688730
0.229400,-2.367067
0.229500,-2.281053
0.229600,-2.398876
0.229700,-2.635498
0.229800,-2.750401
0.229900,-2.688730
0.230000,-2.633875
0.230100,-2.568309
0.230200,-2.607584
0.230300,-2.659517
0.230400,-2.636147
0.230500,-2.639717
0.230600,-2.591030
0.230700,-2.624137
0.230800,-2.687431
0.230900,-2.736119
0.231000,-2.603689
0.231100,-2.549808
0.231200,-2.535202
0.231300,-2.636472
0.231400,-2.633226
0.231500,-2.552080
0.231600,-2.275535
0.231700,-2.153167
0.231800,-2.310914
0.231900,-2.560194
0.232000,-2.769876
0.232100,-2.682563
0.232200,-2.383946
0.232300,-2.231391
0.232400,-2.321950
0.232500,-2.605961
0.232600,-2.855566
0.232700,-2.888349
0.232800,-2.718916
0.232900,-2.601741
0.233000,-2.625111
0.233100,-2.722162
0.233200,-2.784806
0.233300,-2.783184
0.233400,-2.734496
0.233500,-2.715345
0.233600,-2.697818
0.233700,-2.670228
0.233800,-2.564739
0.233900,-2.399526
0.234000,-2.329416
0.234100,-2.331039
0.234200,-2.340776
0.234300,-2.381674
0.234400,-2.195038
0.234500,-2.035019
0.234600,-1.838971
0.234700,-1.707839
0.234800,-1.741920
0.234900,-1.664994
0.235000,-1.595534
0.235100,-1.476736
0.235200,-1.335868
0.235300,-1.250178
0.235400,-1.235572
0.235500,-1.245958
0.235600,-1.254722
0.235700,-1.259915
0.235800,-1.313472
0.235900,-1.297242
0.236000,-1.243037
0.236100,-1.176822
0.236200,-1.181691
0.236300,-1.175849
0.236400,-1.311199
0.236500,-1.303734
0.236600,-1.320937
0.236700,-1.085615
0.236800,-0.807123
0.236900,-0.551353
0.237000,-0.737987
0.237100,-1.296593
0.237200,-1.294970
0.237300,-1.201491
0.237400,-0.793166
0.237500,-0.609128
0.237600,-0.671448
0.237700,-0.886646
0.237800,-1.088211
0.237900,-1.001873
0.238000,-0.861653
0.238100,-0.609453
0.238200,-0.559467
0.238300,-0.634446
0.238400,-0.676966
0.238500,-0.722732
0.238600,-0.666255
0.238700,-0.654245
0.238800,-0.624059
0.238900,-0.619840
0.239000,-0.619515
0.239100,-0.583486
0.239200,-0.727601
0.239300,-0.813290
0.239400,-0.886646
0.239500,-0.948966
0.239600,-0.913262
0.239700,-0.900603
0.239800,-0.831792
0.239900,-1.068087
0.240000,-1.313796
0.240100,-1.352097
0.240200,-1.222913
0.240300,-0.953834
0.240400,-0.915858
0.240500,-1.183639
0.240600,-1.464402
0.240700,-1.574760
0.240800,-1.476087
0.240900,-1.230378
0.241000,-1.147285
0.241100,-1.284908
0.241200,-1.465701
0.241300,-1.532240
0.241400,-1.457262
0.241500,-1.467973
0.241600,-1.459534
0.241700,-1.542627
0.241800,-1.619877
0.241900,-1.645844
0.242000,-1.603973
0.242100,-1.617281
0.242200,-1.654608
0.242300,-1.675706
0.242400,-1.578980
0.242500,-1.552689
0.242600,-1.502054
0.242700,-1.559180
0.242800,-1.730235
0.242900,-1.754579
0.243000,-1.736078
0.243100,-1.529643
0.243200,-1.538732
0.243300,-1.626694
0.243400,-1.599753
0.243500,-1.598455
0.243600,-1.564374
0.243700,-1.569892
0.243800,-1.596183
0.243900,-1.585472
0.244000,-1.597157
0.244100,-1.596183
0.244200,-1.578331
0.244300,-1.624422
0.244400,-1.581901
0.244500,-1.635133
0.244600,-1.627343
0.244700,-1.680899
0.244800,-1.741271
0.244900,-1.794827
0.245000,-1.912002
0.245100,-2.172317
0.245200,-2.531307
0.245300,-2.527087
0.245400,-2.235936
0.245500,-1.953873
0.245600,-1.989902
0.245700,-2.362848
0.245800,-2.765981
0.245900,-2.884129
0.246000,-2.753646
0.246100,-2.533254
0.246200,-2.514104
0.246300,-2.706906
0.246400,-2.939633
0.246500,-3.039930
0.246600,-3.032139
0.246700,-2.965924
0.246800,-2.971118
0.246900,-3.009743
0.247000,-3.078555
0.247100,-3.100951
0.247200,-3.110364
0.247300,-3.110364
0.247400,-3.153209
0.247500,-3.245067
0.247600,-3.247014
0.247700,-3.235005
0.247800,-3.227539
0.247900,-3.268762
0.248000,-3.362566
0.248100,-3.348285
0.248200,-3.236952
0.248300,-2.987671
0.248400,-2.972741
0.248500,-3.181448
0.248600,-3.419369
0.248700,-3.540439
0.248800,-3.358671
0.248900,-3.041552
0.249000,-2.904902
0.249100,-3.008445
0.249200,-3.243769
0.249300,-3.400543
0.249400,-3.342118
0.249500,-3.137629
0.249600,-2.995137
0.249700,-2.979881
0.249800,-3.030841
0.249900,-3.035061
0.250000,-3.006822
0.250100,-2.969495
0.250200,-2.940282
0.250300,-2.893217
0.250400,-2.783184
0.250500,-2.615374
0.250600,-2.460547
0.250700,-2.398227
0.250800,-2.436204
0.250900,-2.437502
0.251000,-2.408614
0.251100,-2.198284
0.251200,-2.099286
0.251300,-1.933424
0.251400,-1.862665
0.251500,-1.877596
0.251600,-1.796126
0.251700,-1.701348
0.251800,-1.600402
0.251900,-1.419935
0.252000,-1.380335
0.252100,-1.355667
0.252200,-1.343009
0.252300,-1.352746
0.252400,-1.335543
0.252500,-1.354369
0.252600,-1.319639
0.252700,-1.222913
0.252800,-1.213176
0.252900,-1.215772
0.253000,-1.298216
0.253100,-1.342359
0.253200,-1.351448
0.253300,-1.397863
0.253400,-1.054130
0.253500,-0.822703
0.253600,-0.603611
0.253700,-0.938579
0.253800,-1.373195
0.253900,-1.409872
0.254000,-1.128784
0.254100,-0.818484
0.254200,-0.704231
0.254300,-0.837959
0.254400,-1.043095
0.254500,-1.176173
0.254600,-0.984021
0.254700,-0.808097
0.254800,-0.598417
0.254900,-0.619840
0.255000,-0.695467
0.255100,-0.695143
0.255200,-0.668202
0.255300,-0.599066
0.255400,-0.529281
0.255500,-0.552002
0.255600,-0.509482
0.255700,-0.496498
0.255800,-0.424441
0.255900,-0.560441
0.256000,-0.529606
0.256100,-0.629577
0.256200,-0.589978
0.256300,-0.554923
0.256400,-0.400422
0.256500,-0.377702
0.256600,-0.544212
0.256700,-0.825949
0.256800,-0.773367
0.256900,-0.510456
0.257000,-0.224824
0.257100,-0.188146
0.257200,-0.458847
0.257300,-0.752918
0.257400,-0.760384
0.257500,-0.555572
0.257600,-0.266045
0.257700,-0.176785
0.257800,-0.385167
0.257900,-0.543887
0.258000,-0.504938
0.258100,-0.418599
0.258200,-0.297530
0.258300,-0.339401
0.258400,-0.410160
0.258500,-0.478971
0.258600,-0.487735
0.258700,-0.399773
0.258800,-0.394580
0.258900,-0.419248
0.259000,-0.435153
0.259100,-0.379000
0.259200,-0.324795
0.259300,-0.289091
0.259400,-0.404966
0.259500,-0.564336
0.259600,-0.561090
0.259700,-0.493902
0.259800,-0.340699
0.259900,-0.408537
0.260000,-0.453005
0.260100,-0.446188
0.260200,-0.464365
0.260300,-0.463716
0.260400,-0.476699
0.260500,-0.506561
0.260600,-0.506885
0.260700,-0.518245
0.260800,-0.541940
0.260900,-0.570179
0.261000,-0.615620
0.261100,-0.627954
0.261200,-0.707801
0.261300,-0.706503
0.261400,-0.808746
0.261500,-0.840231
0.261600,-0.948641
0.261700,-1.096326
0.261800,-1.470245
0.261900,-1.775677
0.262000,-1.732508
0.262100,-1.468622
0.262200,-1.264135
0.262300,-1.443629
0.262400,-1.935372
0.262500,-2.267096
0.262600,-2.358953
0.262700,-2.157387
0.262800,-1.987305
0.262900,-2.049625
0.263000,-2.346619
0.263100,-2.680940
0.263200,-2.828301
0.263300,-2.849723
0.263400,-2.786105
0.263500,-2.799088
0.263600,-2.854592
0.263700,-2.976636
0.263800,-3.052264
0.263900,-3.057457
0.264000,-3.039280
0.264100,-3.073037
0.264200,-3.130489
0.264300,-3.210336
0.264400,-3.168465
0.264500,-3.186966
0.264600,-3.202871
0.264700,-3.272007
0.264800,-3.342767
0.264900,-3.171386
0.265000,-3.003901
0.265100,-3.050641
0.265200,-3.247988
0.265300,-3.516095
0.265400,-3.664431
0.265500,-3.486558
0.265600,-3.241821
0.265700,-3.151587
0.265800,-3.375225
0.265900,-3.728374
0.266000,-3.976033
0.266100,-3.945522
0.266200,-3.758560
0.266300,-3.671896
0.266400,-3.678063
0.266500,-3.805301
0.266600,-3.913063
0.266700,-3.966620
0.266800,-3.957856
0.266900,-3.898457
0.267000,-3.837110
0.267100,-3.733243
0.267200,-3.575170
0.267300,-3.479417
0.267400,-3.449555
0.267500,-3.472925
0.267600,-3.486558
0.267700,-3.396972
0.267800,-3.176580
0.267900,-3.132436
0.268000,-2.908148
0.268100,-2.883155
0.268200,-2.844854
0.268300,-2.785780
0.268400,-2.690353
0.268500,-2.596223
0.268600,-2.371611
0.268700,-2.336556
0.268800,-2.284948
0.268900,-2.301501
0.269000,-2.305072
0.269100,-2.263201
0.269200,-2.236909
0.269300,-2.128499
0.269400,-2.065854
0.269500,-2.026904
0.269600,-1.999315
0.269700,-2.022685
0.269800,-1.965233
0.269900,-2.034694
0.270000,-1.850980
0.270100,-1.644870
0.270200,-1.122942
0.270300,-1.158646
0.270400,-1.418961
0.270500,-1.807162
0.270600,-1.663371
0.270700,-1.334894
0.270800,-1.037901
0.270900,-0.846722
0.271000,-0.992784
0.271100,-1.231677
0.271200,-1.252450
0.271300,-1.145013
0.271400,-0.829844
0.271500,-0.717863
0.271600,-0.663009
0.271700,-0.689949
0.271800,-0.656842
0.271900,-0.648403
0.272000,-0.683458
0.272100,-0.641262
0.272200,-0.596794
0.272300,-0.581214
0.272400,-0.536747
0.272500,-0.654894
0.272600,-0.732145
0.272700,-0.870741
0.272800,-0.885672
0.272900,-0.938579
0.273000,-0.754217
0.273100,-0.788947
0.273200,-0.749997
0.273300,-1.091457
0.273400,-1.303734
0.273500,-1.221290
0.273600,-1.026865
0.273700,-0.715916
0.273800,-0.861978
0.273900,-1.125214
0.274000,-1.416364
0.274100,-1.445252
0.274200,-1.269653
0.274300,-1.050235
0.274400,-1.088211
0.274500,-1.232651
0.274600,-1.382932
0.274700,-1.388450
0.274800,-1.451419
0.274900,-1.408574
0.275000,-1.475114
0.275100,-1.517309
0.275200,-1.564698
0.275300,-1.597157
0.275400,-1.606894
0.275500,-1.666293
0.275600,-1.691286
0.275700,-1.632536
0.275800,-1.551390
0.275900,-1.516011
0.276000,-1.484526
0.276100,-1.656555
0.276200,-1.753281
0.276300,-1.756527
0.276400,-1.613061
0.276500,-1.500106
0.276600,-1.564049
0.276700,-1.554636
0.276800,-1.506598
0.276900,-1.472841
0.277000,-1.457586
0.277100,-1.424803
0.277200,-1.389099
0.277300,-1.382608
0.277400,-1.363782
0.277500,-1.357615
0.277600,-1.317367
0.277700,-1.270951
0.277800,-1.240116
0.277900,-1.198245
0.278000,-1.242388
0.278100,-1.194350
0.278200,-1.249204
0.278300,-1.234923
0.278400,-1.405328
0.278500,-1.722445
0.278600,-1.922064
0.278700,-1.669538
0.278800,-1.417013
0.278900,-1.258617
0.279000,-1.429023
0.279100,-1.862016
0.279200,-2.098637
0.279300,-2.066828
0.279400,-1.778923
0.279500,-1.645519
0.279600,-1.709462
0.279700,-1.970427
0.279800,-2.181406
0.279900,-2.234637
0.280000,-2.193740
0.280100,-2.144728
0.280200,-2.204127
0.280300,-2.254437
0.280400,-2.299229
0.280500,-2.332661
0.280600,-2.342074
0.280700,-2.371611
0.280800,-2.516376
0.280900,-2.626085
0.281000,-2.642314
0.281100,-2.601741
0.281200,-2.601741
0.281300,-2.710477
0.281400,-2.785456
0.281500,-2.830897
0.281600,-2.585837
0.281700,-2.439125
0.281800,-2.517999
0.281900,-2.743584
0.282000,-3.056483
0.282100,-3.049018
0.282200,-2.803957
0.282300,-2.553054
0.282400,-2.541693
0.282500,-2.778964
0.282600,-3.088293
0.282700,-3.234356
0.282800,-3.136006
0.282900,-2.974688
0.283000,-2.904253
0.283100,-2.930545
0.283200,-3.023376
0.283300,-3.102574
0.283400,-3.120102
0.283500,-3.114584
0.283600,-3.069467
0.283700,-3.049667
0.283800,-3.014287
0.283900,-2.879910
0.284000,-2.787079
0.284100,-2.783184
0.284200,-2.801360
0.284300,-2.820835
0.284400,-2.750076
0.284500,-2.539421
0.284600,-2.389139
0.284700,-2.200881
0.284800,-2.259630
0.284900,-2.245024
0.285000,-2.172967
0.285100,-2.088250
0.285200,-1.993797
0.285300,-1.844813
0.285400,-1.829558
0.285500,-1.816899
0.285600,-1.854875
0.285700,-1.865262
0.285800,-1.857472
0.285900,-1.961663
0.286000,-1.877271
0.286100,-1.851629
0.286200,-1.770484
0.286300,-1.857147
0.286400,-1.907133
0.286500,-1.864613
0.286600,-2.031124
0.286700,-1.743868
0.286800,-1.554636
0.286900,-1.109958
0.287000,-1.242063
0.287100,-1.630913
0.287200,-1.967181
0.287300,-1.827610
0.287400,-1.447199
0.287500,-1.154102
0.287600,-1.075553
0.287700,-1.243037
0.287800,-1.427075
0.287900,-1.481605
0.288000,-1.266732
0.288100,-0.991811
0.288200,-0.884698
0.288300,-0.902550
0.288400,-0.913586
0.288500,-0.887944
0.288600,-0.848021
0.288700,-0.752594
0.288800,-0.710398
0.288900,-0.661061
0.289000,-0.659439
0.289100,-0.626331
0.289200,-0.631849
0.289300,-0.711047
0.289400,-0.699687
0.289500,-0.751295
0.289600,-0.639639
0.289700,-0.563038
0.289800,-0.408212
0.289900,-0.542914
0.290000,-0.820431
0.290100,-0.954159
0.290200,-0.806150
0.290300,-0.553300
0.290400,-0.229692
0.290500,-0.425415
0.290600,-0.686379
0.290700,-0.999925
0.290800,-0.973634
0.290900,-0.744479
0.291000,-0.536097
0.291100,-0.568556
0.291200,-0.755190
0.291300,-0.927543
0.291400,-0.944422
0.291500,-0.971686
0.291600,-0.867171
0.291700,-0.885348
0.291800,-0.931438
0.291900,-1.012584
0.292000,-0.995381
0.292100,-0.999925
0.292200,-1.014856
0.292300,-1.040498
0.292400,-1.004469
0.292500,-0.957405
0.292600,-0.944746
0.292700,-0.927543
0.292800,-1.081720
0.292900,-1.163190
0.293000,-1.163839
0.293100,-1.133978
0.293200,-0.958379
0.293300,-1.027515
0.293400,-1.027515
0.293500,-0.994083
0.293600,-0.982073
0.293700,-0.979152
0.293800,-0.986942
0.293900,-0.963572
0.294000,-0.965844
0.294100,-0.962598
0.294200,-0.980126
0.294300,-0.962274
0.294400,-0.976880
0.294500,-0.991161
0.294600,-1.025243
0.294700,-1.039524
0.294800,-1.090484
0.294900,-1.128784
0.295000,-1.171954
0.295100,-1.368975
0.295200,-1.716928
0.295300,-1.858446
0.295400,-1.596507
0.295500,-1.345930
0.295600,-1.244660
0.295700,-1.540030
0.295800,-1.905835
0.295900,-2.116814
0.296000,-2.007105
0.296100,-1.722770
0.296200,-1.597481
0.296300,-1.714006
0.296400,-1.917520
0.296500,-2.108374
0.296600,-2.127525
0.296700,-2.063907
0.296800,-2.047353
0.296900,-2.085978
0.297000,-2.142456
0.297100,-2.169396
0.297200,-2.198609
0.297300,-2.216461
0.297400,-2.256060
0.297500,-2.334284
0.297600,-2.387516
0.297700,-2.387841
0.297800,-2.340451
0.297900,-2.389788
0.298000,-2.500471
0.298100,-2.548185
0.298200,-2.480347
0.298300,-2.309616
0.298400,-2.156413
0.298500,-2.368690
0.298600,-2.623813
0.298700,-2.918535
0.298800,-2.905227
0.298900,-2.652376
0.299000,-2.436528
0.299100,-2.470934
0.299200,-2.755594
0.299300,-3.067519
0.299400,-3.166517
0.299500,-3.064922
0.299600,-2.939958
0.299700,-2.870172
0.299800,-2.909771
0.299900,-2.995786
0.300000,-3.065247
0.300100,-3.083424
0.300200,-3.074011
0.300300,-3.010717
0.300400,-2.932492
0.300500,-2.808826
0.300600,-2.680290
0.300700,-2.590705
0.300800,-2.622839
0.300900,-2.631603
0.301000,-2.666009
0.301100,-2.541044
0.301200,-2.378428
0.301300,-2.366743
0.301400,-2.134990
0.301500,-2.196661
0.301600,-2.150246
0.301700,-2.114866
0.301800,-2.006780
0.301900,-1.912651
0.302000,-1.855524
0.302100,-1.801319
0.302200,-1.818847
0.302300,-1.826961
0.302400,-1.836374
0.302500,-1.891878
0.302600,-1.877271
0.302700,-1.845138
0.302800,-1.773730
0.302900,-1.808460
0.303000,-1.861367
0.303100,-1.915897
0.303200,-1.989902
0.303300,-1.930503
0.303400,-1.868183
0.303500,-1.409223
0.303600,-1.290102
0.303700,-1.287830
0.303800,-1.938618
0.303900,-1.890255
0.304000,-1.872727
0.304100,-1.386178
0.304200,-1.250827
0.304300,-1.258942
0.304400,-1.450445
0.304500,-1.676679
0.304600,-1.604622
0.304700,-1.430646
0.304800,-1.171954
0.304900,-1.179419
0.305000,-1.218369
0.305100,-1.316393
0.305200,-1.357939
0.305300,-1.304708
0.305400,-1.296269
0.305500,-1.332622
0.305600,-1.357290
0.305700,-1.377090
0.305800,-1.314770
0.305900,-1.316393
0.306000,-1.425777
0.306100,-1.503352
0.306200,-1.500106
0.306300,-1.461157
0.306400,-1.273223
0.306500,-1.172603
0.306600,-1.294321
0.306700,-1.575734
0.306800,-1.627018
0.306900,-1.520555
0.307000,-1.162216
0.307100,-1.071333
0.307200,-1.187858
0.307300,-1.544574
0.307400,-1.670188
0.307500,-1.533538
0.307600,-1.253099
0.307700,-1.118398
0.307800,-1.187534
0.307900,-1.349500
0.308000,-1.459209
0.308100,-1.380985
0.308200,-1.375467
0.308300,-1.317042
0.308400,-1.419285
0.308500,-1.474140
0.308600,-1.511142
0.308700,-1.482579
0.308800,-1.486799
0.308900,-1.543925
0.309000,-1.589042
0.309100,-1.563075
0.309200,-1.512116
0.309300,-1.454989
0.309400,-1.493615
0.309500,-1.710111
0.309600,-1.763018
0.309700,-1.748412
0.309800,-1.627018
0.309900,-1.591963
0.310000,-1.673109
0.310100,-1.673109
0.310200,-1.679276
0.310300,-1.658503
0.310400,-1.657529
0.310500,-1.700049
0.310600,-1.672135
0.310700,-1.684145
0.310800,-1.673109
0.310900,-1.655257
0.311000,-1.649090
0.311100,-1.665968
0.311200,-1.641949
0.311300,-1.647142
0.311400,-1.632536
0.311500,-1.680250
0.311600,-1.665968
0.311700,-1.807486
0.311800,-2.002236
0.311900,-2.381024
0.312000,-2.411535
0.312100,-2.178160
0.312200,-1.859419
0.312300,-1.927257
0.312400,-2.225549
0.312500,-2.677694
0.312600,-2.837064
0.312700,-2.705933
0.312800,-2.460223
0.312900,-2.377454
0.313000,-2.556949
0.313100,-2.822458
0.313200,-2.996760
0.313300,-3.031166
0.313400,-2.939308
0.313500,-2.900034
0.313600,-2.959433
0.313700,-3.059405
0.313800,-3.122698
0.313900,-3.138928
0.314000,-3.122049
0.314100,-3.171386
0.314200,-3.277850
0.314300,-3.367435
0.314400,-3.368734
0.314500,-3.346013
0.314600,-3.401517
0.314700,-3.447608
0.314800,-3.495646
0.314900,-3.376524
0.315000,-3.172360
0.315100,-3.065896
0.315200,-3.216828
0.315300,-3.500190
0.315400,-3.702732
0.315500,-3.604707
0.315600,-3.241821
0.315700,-3.023051
0.315800,-3.111663
0.315900,-3.399894
0.316000,-3.624831
0.316100,-3.576793
0.316200,-3.409956
0.316300,-3.232733
0.316400,-3.173658
0.316500,-3.215854
0.316600,-3.279473
0.316700,-3.290184
0.316800,-3.207090
0.316900,-3.100302
0.317000,-3.024025
0.317100,-2.909771
0.317200,-2.744233
0.317300,-2.598495
0.317400,-2.479698
0.317500,-2.468986
0.317600,-2.434581
0.317700,-2.421597
0.317800,-2.225874
0.317900,-2.064231
0.318000,-2.030799
0.318100,-1.736403
0.318200,-1.735753
0.318300,-1.677004
0.318400,-1.556908
0.318500,-1.417338
0.318600,-1.211877
0.318700,-1.161892
0.318800,-1.081395
0.318900,-1.080746
0.319000,-1.074579
0.319100,-1.073605
0.319200,-1.072631
0.319300,-1.039524
0.319400,-0.950264
0.319500,-0.959352
0.319600,-0.939228
0.319700,-0.943772
0.319800,-1.032059
0.319900,-0.969414
0.320000,-1.033032
0.320100,-0.733768
0.320200,-0.376079
0.320300,-0.186847
0.320400,-0.422169
0.320500,-0.740909
0.320600,-0.849319
0.320700,-0.600689
0.320800,-0.313110
0.320900,-0.070323
0.321000,-0.097912
0.321100,-0.278380
0.321200,-0.399773
0.321300,-0.400747
0.321400,-0.150494
0.321500,-0.068700
0.321600,0.029973
0.321700,-0.084604
0.321800,-0.138485
0.321900,-0.105702
0.322000,-0.150170
0.322100,-0.135564
0.322200,-0.118036
0.322300,-0.117062
0.322400,-0.134590
0.322500,-0.191392
0.322600,-0.381272
0.322700,-0.381272
0.322800,-0.424117
0.322900,-0.526360
0.323000,-0.542589
0.323100,-0.519219
0.323200,-0.531878
0.323300,-0.651324
0.323400,-1.044717
0.323500,-1.094703
0.323600,-0.917481
0.323700,-0.653596
0.323800,-0.637042
0.323900,-0.824651
0.324000,-1.258293
0.324100,-1.322235
0.324200,-1.235572
0.324300,-0.965519
0.324400,-0.914235
0.324500,-1.130407
0.324600,-1.316717
0.324700,-1.334245
0.324800,-1.322560
0.324900,-1.340736
0.325000,-1.383906
0.325100,-1.461157
0.325200,-1.546197
0.325300,-1.575085
0.325400,-1.568593
0.325500,-1.639677
0.325600,-1.727314
0.325700,-1.777949
0.325800,-1.748412
0.325900,-1.725367
0.326000,-1.752632
0.326100,-1.862016
0.326200,-2.082083
0.326300,-2.140833
0.326400,-2.159659
0.326500,-1.985358
0.326600,-2.048327
0.326700,-2.106752
0.326800,-2.093444
0.326900,-2.072021
0.327000,-2.076241
0.327100,-2.050923
0.327200,-2.032747
0.327300,-1.987954
0.327400,-1.961663
0.327500,-1.926608
0.327600,-1.893501
0.327700,-1.859744
0.327800,-1.813004
0.327900,-1.812355
0.328000,-1.795801
0.328100,-1.790608
0.328200,-1.811057
0.328300,-1.823066
0.328400,-1.898694
0.328500,-2.214838
0.328600,-2.461521
0.328700,-2.375831
0.328800,-2.132718
0.328900,-1.856823
0.329000,-1.964260
0.329100,-2.278131
0.329200,-2.645885
0.329300,-2.722162
0.329400,-2.596872
0.329500,-2.412509
0.329600,-2.400824
0.329700,-2.574152
0.329800,-2.786105
0.329900,-2.893867
0.330000,-2.881532
0.330100,-2.849074
0.330200,-2.859461
0.330300,-2.857513
0.330400,-2.912693
0.330500,-2.936712
0.330600,-2.937685
0.330700,-2.993839
0.330800,-3.020130
0.330900,-3.023700
0.331000,-3.112961
0.331100,-3.052264
0.331200,-3.031815
0.331300,-3.046421
0.331400,-3.069142
0.331500,-3.082775
0.331600,-2.934115
0.331700,-2.713723
0.331800,-2.641990
0.331900,-2.887700
0.332000,-3.224943
0.332100,-3.337898
0.332200,-3.170412
0.332300,-2.817265
0.332400,-2.692949
0.332500,-2.890296
0.332600,-3.220398
0.332700,-3.382691
0.332800,-3.304790
0.332900,-3.110689
0.333000,-3.010392
0.333100,-3.054211
0.333200,-3.159052
0.333300,-3.186642
0.333400,-3.144770
0.333500,-3.113610
0.333600,-3.082450
0.333700,-3.086994
0.333800,-2.996111
0.333900,-2.815317
0.334000,-2.681913
0.334100,-2.651078
0.334200,-2.687107
0.334300,-2.688730
0.334400,-2.643937
0.334500,-2.434581
0.334600,-2.346294
0.334700,-2.208995
0.334800,-2.098312
0.334900,-2.087926
0.335000,-2.033396
0.335100,-1.912651
0.335200,-1.803916
0.335300,-1.607543
0.335400,-1.551066
0.335500,-1.485176
0.335600,-1.490044
0.335700,-1.459209
0.335800,-1.415715
0.335900,-1.443629
0.336000,-1.334569
0.336100,-1.310226
0.336200,-1.221615
0.336300,-1.196946
0.336400,-1.207982
0.336500,-1.211877
0.336600,-1.281662
0.336700,-1.126512
0.336800,-0.963247
0.336900,-0.425090
0.337000,-0.530580
0.337100,-0.613348
0.337200,-1.178770
0.337300,-0.898980
0.337400,-0.725653
0.337500,-0.351410
0.337600,-0.208270
0.337700,-0.336480
0.337800,-0.529930
0.337900,-0.633797
0.338000,-0.480919
0.338100,-0.251115
0.338200,-0.076490
0.338300,-0.111869
0.338400,-0.105377
0.338500,-0.178084
0.338600,-0.192041
0.338700,-0.160556
0.338800,-0.120957
0.338900,-0.121931
0.339000,-0.131019
0.339100,-0.109597
0.339200,-0.201129
0.339300,-0.125502
0.339400,-0.258580
0.339500,-0.280652
0.339600,-0.350761
0.339700,-0.339401
0.339800,-0.245272
0.339900,-0.286494
0.340000,-0.501043
0.340100,-0.814264
0.340200,-0.780183
0.340300,-0.559792
0.340400,-0.313759
0.340500,-0.371210
0.340600,-0.685405
0.340700,-1.067763
0.340800,-1.108011
0.340900,-0.922999
0.341000,-0.646780
0.341100,-0.675343
0.341200,-0.906121
0.341300,-1.132355
0.341400,-1.128784
0.341500,-1.143066
0.341600,-1.050235
0.341700,-1.123591
0.341800,-1.239791
0.341900,-1.336192
0.342000,-1.390073
0.342100,-1.337166
0.342200,-1.344307
0.342300,-1.389748
0.342400,-1.424803
0.342500,-1.415390
0.342600,-1.358264
0.342700,-1.339438
0.342800,-1.448173
0.342900,-1.599753
0.343000,-1.606569
0.343100,-1.568593
0.343200,-1.385204
0.343300,-1.453042
0.343400,-1.467324
0.343500,-1.455963
0.343600,-1.432918
0.343700,-1.432593
0.343800,-1.439734
0.343900,-1.419285
0.344000,-1.439409
0.344100,-1.447524
0.344200,-1.459858
0.344300,-1.477386
0.344400,-1.448498
0.344500,-1.480307
0.344600,-1.492316
0.344700,-1.535161
0.344800,-1.537758
0.344900,-1.570216
0.345000,-1.627992
0.345100,-1.722121
0.345200,-2.110971
0.345300,-2.244050
0.345400,-2.164203
0.345500,-1.800994
0.345600,-1.669863
0.345700,-1.865911
0.345800,-2.220356
0.345900,-2.508261
0.346000,-2.526438
0.346100,-2.339802
0.346200,-2.145052
0.346300,-2.177835
0.346400,-2.334284
0.346500,-2.582266
0.346600,-2.707880
0.346700,-2.679317
0.346800,-2.644262
0.346900,-2.567984
0.347000,-2.619593
0.347100,-2.720539
0.347200,-2.771823
0.347300,-2.798764
0.347400,-2.810124
0.347500,-2.790974
0.347600,-2.813045
0.347700,-2.907499
0.347800,-2.870497
0.347900,-2.862707
0.348000,-2.882506
0.348100,-2.913991
0.348200,-2.934764
0.348300,-2.795193
0.348400,-2.557273
0.348500,-2.609531
0.348600,-2.886401
0.348700,-3.177229
0.348800,-3.323941
0.348900,-3.066545
0.349000,-2.745856
0.349100,-2.679966
0.349200,-2.921456
0.349300,-3.285315
0.349400,-3.442739
0.349500,-3.394376
0.349600,-3.228513
0.349700,-3.116856
0.349800,-3.154832
0.349900,-3.251234
0.350000,-3.308036
0.350100,-3.301869
0.350200,-3.284342
0.350300,-3.221697
0.350400,-3.166842
0.350500,-3.042202
0.350600,-2.869198
0.350700,-2.782859
0.350800,-2.742935
0.350900,-2.736443
0.351000,-2.760787
0.351100,-2.674773
0.351200,-2.461196
0.351300,-2.387516
0.351400,-2.143105
0.351500,-2.097988
0.351600,-2.085329
0.351700,-2.006131
0.351800,-1.897071
0.351900,-1.740298
0.352000,-1.593911
0.352100,-1.529643
0.352200,-1.464727
0.352300,-1.501729
0.352400,-1.465051
0.352500,-1.493615
0.352600,-1.445901
0.352700,-1.399810
0.352800,-1.324183
0.352900,-1.322560
0.353000,-1.324832
0.353100,-1.381634
0.353200,-1.403056
0.353300,-1.405004
0.353400,-1.267705
0.353500,-1.027515
0.353600,-0.557520
0.353700,-0.731820
0.353800,-1.004145
0.353900,-1.356316
0.354000,-1.193051
0.354100,-0.967467
0.354200,-0.678589
0.354300,-0.599716
0.354400,-0.704880
0.354500,-0.936632
0.354600,-0.994407
0.354700,-0.855162
0.354800,-0.604584
0.354900,-0.514026
0.355000,-0.428661
0.355100,-0.507210
0.355200,-0.551677
0.355300,-0.536422
0.355400,-0.484164
0.355500,-0.445539
0.355600,-0.402370
0.355700,-0.368938
0.355800,-0.415678
0.355900,-0.436126
0.356000,-0.579591
0.356100,-0.568880
0.356200,-0.658465
0.356300,-0.694818
0.356400,-0.621138
0.356500,-0.596145
0.356600,-0.661061
0.356700,-0.981099
0.356800,-1.220966
0.356900,-1.113853
0.357000,-0.889567
0.357100,-0.649377
0.357200,-0.786350
0.357300,-1.062569
0.357400,-1.362808
0.357500,-1.308278
0.357600,-1.071658
0.357700,-0.900278
0.357800,-0.920727
0.357900,-1.103142
0.358000,-1.205386
0.358100,-1.164813
0.358200,-1.174550
0.358300,-1.118073
0.358400,-1.169357
0.358500,-1.192402
0.358600,-1.254073
0.358700,-1.266732
0.358800,-1.244660
0.358900,-1.311199
0.359000,-1.370598
0.359100,-1.377090
0.359200,-1.339114
0.359300,-1.328078
0.359400,-1.320288
0.359500,-1.499457
0.359600,-1.624097
0.359700,-1.627343
0.359800,-1.539381
0.359900,-1.440708
0.360000,-1.541653
0.360100,-1.556584
0.360200,-1.553987
0.360300,-1.572488
0.360400,-1.582226
0.360500,-1.586770
0.360600,-1.600078
0.360700,-1.612737
0.360800,-1.662073
0.360900,-1.631562
0.361000,-1.696803
0.361100,-1.678302
0.361200,-1.703944
0.361300,-1.702646
0.361400,-1.730560
0.361500,-1.749386
0.361600,-1.806512
0.361700,-1.848384
0.361800,-2.069425
0.361900,-2.364146
0.362000,-2.565712
0.362100,-2.304747
0.362200,-2.002236
0.362300,-1.869806
0.362400,-2.105453
0.362500,-2.499497
0.362600,-2.714696
0.362700,-2.632577
0.362800,-2.369339
0.362900,-2.190169
0.363000,-2.250542
0.363100,-2.458275
0.363200,-2.659517
0.363300,-2.669579
0.363400,-2.614075
0.363500,-2.546887
0.363600,-2.573502
0.363700,-2.586486
0.363800,-2.639393
0.363900,-2.618944
0.364000,-2.606285
0.364100,-2.591030
0.364200,-2.602715
0.364300,-2.722162
0.364400,-2.713723
0.364500,-2.675422
0.364600,-2.650753
0.364700,-2.658543
0.364800,-2.711126
0.364900,-2.685484
0.365000,-2.517349
0.365100,-2.322599
0.365200,-2.397254
0.365300,-2.701713
0.365400,-2.945151
0.365500,-2.975986
0.365600,-2.681913
0.365700,-2.388490
0.365800,-2.385569
0.365900,-2.626410
0.366000,-2.958134
0.366100,-3.056483
0.366200,-2.927948
0.366300,-2.723785
0.366400,-2.673474
0.366500,-2.745207
0.366600,-2.843881
0.366700,-2.876988
0.366800,-2.832520
0.366900,-2.794544
0.367000,-2.772472
0.367100,-2.761112
0.367200,-2.658543
0.367300,-2.510533
0.367400,-2.421273
0.367500,-2.422246
0.367600,-2.430361
0.367700,-2.450161
0.367800,-2.333311
0.367900,-2.133043
0.368000,-2.053195
0.368100,-1.752632
0.368200,-1.787687
0.368300,-1.736727
0.368400,-1.640975
0.368500,-1.525099
0.368600,-1.370273
0.368700,-1.222588
0.368800,-1.179744
0.368900,-1.138522
0.369000,-1.174875
0.369100,-1.143390
0.369200,-1.174226
0.369300,-1.166760
0.369400,-1.080746
0.369500,-1.092106
0.369600,-1.015505
0.369700,-1.124240
0.369800,-1.106063
0.369900,-1.303085
0.370000,-1.186560
0.370100,-1.148584
0.370200,-0.773042
0.370300,-0.539019
0.370400,-0.679563
0.370500,-1.128784
0.370600,-1.353071
0.370700,-1.210254
0.370800,-0.853539
0.370900,-0.712021
0.371000,-0.635744
0.371100,-0.857434
0.371200,-1.015505
0.371300,-1.031085
0.371400,-0.792517
0.371500,-0.598093
0.371600,-0.500069
0.371700,-0.583162
0.371800,-0.575696
0.371900,-0.622761
0.372000,-0.603935
0.372100,-0.591926
0.372200,-0.536747
0.372300,-0.550054
0.372400,-0.541291
0.372500,-0.583486
0.372600,-0.686379
0.372700,-0.724030
0.372800,-0.756813
0.372900,-0.861978
0.373000,-0.862951
0.373100,-0.761682
0.373200,-0.719486
0.373300,-0.712021
0.373400,-1.039849
0.373500,-1.158646
0.373600,-1.029137
0.373700,-0.740259
0.373800,-0.600040
0.373900,-0.704555
0.374000,-1.064517
0.374100,-1.294321
0.374200,-1.263486
0.374300,-1.022321
0.374400,-0.913911
0.374500,-1.019725
0.374600,-1.249853
0.374700,-1.377090
0.374800,-1.368326
0.374900,-1.401433
0.375000,-1.396240
0.375100,-1.466350
0.375200,-1.555285
0.375300,-1.635782
0.375400,-1.668889
0.375500,-1.668889
0.375600,-1.716928
0.375700,-1.758150
0.375800,-1.746140
0.375900,-1.724393
0.376000,-1.705892
0.376100,-1.738999
0.376200,-1.909405
0.376300,-1.969128
0.376400,-1.973348
0.376500,-1.788011
0.376600,-1.763343
0.376700,-1.829233
0.376800,-1.800021
0.376900,-1.755228
0.377000,-1.737376
0.377100,-1.711734
0.377200,-1.708164
0.377300,-1.674407
0.377400,-1.647142
0.377500,-1.644870
0.377600,-1.618579
0.377700,-1.632861
0.377800,-1.622149
0.377900,-1.628641
0.378000,-1.607868
0.378100,-1.642598
0.378200,-1.659152
0.378300,-1.703295
0.378400,-1.692908
0.378500,-1.924011
0.378600,-2.208671
0.378700,-2.336881
0.378800,-2.027553
0.378900,-1.830856
0.379000,-1.710760
0.379100,-2.001587
0.379200,-2.319029
0.379300,-2.558896
0.379400,-2.415106
0.379500,-2.224251
0.379600,-2.103181
0.379700,-2.183678
0.379800,-2.370313
0.379900,-2.501120
0.380000,-2.519297
0.380100,-2.457301
0.380200,-2.393034
0.380300,-2.425817
0.380400,-2.418676
0.380500,-2.440099
0.380600,-2.433931
0.380700,-2.483917
0.380800,-2.486839
0.380900,-2.509884
0.381000,-2.525464
0.381100,-2.581617
0.381200,-2.501769
0.381300,-2.488462
0.381400,-2.529684
0.381500,-2.557273
0.381600,-2.497225
0.381700,-2.277158
0.381800,-2.120709
0.381900,-2.241129
0.382000,-2.546562
0.382100,-2.682563
0.382200,-2.677369
0.382300,-2.426466
0.382400,-2.265797
0.382500,-2.349864
0.382600,-2.634849
0.382700,-2.884129
0.382800,-2.962354
0.382900,-2.844530
0.383000,-2.755918
0.383100,-2.754296
0.383200,-2.830897
0.383300,-2.878287
0.383400,-2.847776
0.383500,-2.824730
0.383600,-2.825704
0.383700,-2.810449
0.383800,-2.729952
0.383900,-2.578047
0.384000,-2.414456
0.384100,-2.309291
0.384200,-2.284299
0.384300,-2.264499
0.384400,-2.227821
0.384500,-2.035343
0.384600,-1.824040
0.384700,-1.760097
0.384800,-1.482904
0.384900,-1.487448
0.385000,-1.406951
0.385100,-1.258617
0.385200,-1.146961
0.385300,-0.971362
0.385400,-0.882751
0.385500,-0.769796
0.385600,-0.732794
0.385700,-0.654570
0.385800,-0.676641
0.385900,-0.577319
0.386000,-0.573100
0.386100,-0.449434
0.386200,-0.398475
0.386300,-0.404317
0.386400,-0.329014
0.386500,-0.442293
0.386600,-0.301749
0.386700,-0.399773
0.386800,-0.033970
0.386900,0.226670
0.387000,0.498993
0.387100,0.313008
0.387200,-0.158284
0.387300,-0.138809
0.387400,-0.070972
0.387500,0.346116
0.387600,0.497695
0.387700,0.474325
0.387800,0.272436
0.387900,0.050097
0.388000,0.134164
0.388100,0.296455
0.388200,0.438297
0.388300,0.535022
0.388400,0.482764
0.388500,0.509056
0.388600,0.417199
0.388700,0.406488
0.388800,0.427261
0.388900,0.417848
0.389000,0.387662
0.389100,0.400970
0.389200,0.345466
0.389300,0.161753
0.389400,0.157209
0.389500,-0.006380
0.389600,-0.101483
0.389700,-0.208594
0.389800,-0.129397
0.389900,-0.241702
0.390000,-0.388413
0.390100,-0.765577
0.390200,-0.933061
0.390300,-0.806474
0.390400,-0.589329
0.390500,-0.545186
0.390600,-0.803878
0.390700,-1.247257
0.390800,-1.381634
0.390900,-1.279390
0.391000,-1.023944
0.391100,-0.982722
0.391200,-1.204736
0.391300,-1.395266
0.391400,-1.458235
0.391500,-1.387152
0.391600,-1.359238
0.391700,-1.398837
0.391800,-1.509519
0.391900,-1.627018
0.392000,-1.649414
0.392100,-1.575734
0.392200,-1.558856
0.392300,-1.587419
0.392400,-1.626369
0.392500,-1.589042
0.392600,-1.530942
0.392700,-1.490369
0.392800,-1.536135
0.392900,-1.690636
0.393000,-1.720498
0.393100,-1.705892
0.393200,-1.519906
0.393300,-1.533214
0.393400,-1.578006
0.393500,-1.540679
0.393600,-1.508870
0.393700,-1.503677
0.393800,-1.477710
0.393900,-1.459534
0.394000,-1.417013
0.394100,-1.438111
0.394200,-1.441357
0.394300,-1.447524
0.394400,-1.457911
0.394500,-1.452068
0.394600,-1.472841
0.394700,-1.498808
0.394800,-1.527371
0.394900,-1.566321
0.395000,-1.658503
0.395100,-1.691935
0.395200,-1.978217
0.395300,-2.318704
0.395400,-2.291764
0.395500,-2.012622
0.395600,-1.755553
0.395700,-1.793854
0.395800,-2.095391
0.395900,-2.419650
0.396000,-2.526762
0.396100,-2.349540
0.396200,-2.148298
0.396300,-2.109997
0.396400,-2.295010
0.396500,-2.534552
0.396600,-2.676071
0.396700,-2.705283
0.396800,-2.649780
0.396900,-2.676395
0.397000,-2.721513
0.397100,-2.801685
0.397200,-2.885752
0.397300,-2.879260
0.397400,-2.922105
0.397500,-2.910420
0.397600,-2.972416
0.397700,-3.049342
0.397800,-3.093810
0.397900,-3.091863
0.398000,-3.102574
0.398100,-3.152560
0.398200,-3.209038
0.398300,-3.161324
0.398400,-2.895165
0.398500,-2.858487
0.398600,-2.999356
0.398700,-3.369058
0.398800,-3.463837
0.398900,-3.363216
0.399000,-3.034736
0.399100,-2.845179
0.399200,-2.990268
0.399300,-3.320370
0.399400,-3.507007
0.399500,-3.454099
0.399600,-3.222671
0.399700,-3.055834
0.399800,-3.014612
0.399900,-3.079204
0.400000,-3.088293
0.400100,-3.005524
0.400200,-2.908798
0.400300,-2.797141
0.400400,-2.739040
0.400500,-2.638744
0.400600,-2.437502
0.400700,-2.282026
0.400800,-2.181730
0.400900,-2.130771
0.401000,-2.072021
0.401100,-2.004508
0.401200,-1.821768
0.401300,-1.666942
0.401400,-1.499457
0.401500,-1.336841
0.401600,-1.328727
0.401700,-1.281662
0.401800,-1.139171
0.401900,-1.007066
0.402000,-0.862627
0.402100,-0.734092
0.402200,-0.740259
0.402300,-0.650350
0.402400,-0.682484
0.402500,-0.625033
0.402600,-0.594522
0.402700,-0.608155
0.402800,-0.470532
0.402900,-0.545186
0.403000,-0.416976
0.403100,-0.494226
0.403200,-0.511754
0.403300,-0.562389
0.403400,-0.581214
0.403500,-0.278704
0.403600,0.004656
0.403700,0.144226
0.403800,-0.165750
0.403900,-0.583162
0.404000,-0.597119
0.404100,-0.416327
0.404200,-0.060910
0.404300,0.005305
0.404400,0.009524
0.404500,-0.279029
0.404600,-0.385167
0.404700,-0.296556
0.404800,-0.062208
0.404900,0.114040
0.405000,0.092617
0.405100,0.085801
0.405200,-0.032022
0.405300,-0.025855
0.405400,0.022832
0.405500,0.111768
0.405600,0.124102
0.405700,0.118908
0.405800,0.165324
0.405900,0.088073
0.406000,0.014718
0.406100,-0.045654
0.406200,-0.055067
0.406300,-0.168346
0.406400,-0.062857
0.406500,0.004331
0.406600,0.047176
0.406700,-0.051822
0.406800,-0.407888
0.406900,-0.324470
0.407000,-0.106027
0.407100,0.242249
0.407200,0.212713
0.407300,0.092293
0.407400,-0.236833
0.407500,-0.239430
0.407600,-0.064480
0.407700,0.205896
0.407800,0.257180
0.407900,0.044904
0.408000,-0.120633
0.408100,-0.130695
0.408200,-0.108948
0.408300,-0.078113
0.408400,-0.126151
0.408500,-0.260852
0.408600,-0.366666
0.408700,-0.464040
0.408800,-0.435153
0.408900,-0.513377
0.409000,-0.572775
0.409100,-0.633797
0.409200,-0.637042
0.409300,-0.618217
0.409400,-0.626331
0.409500,-0.761033
0.409600,-0.932737
0.409700,-0.980126
0.409800,-0.974608
0.409900,-0.828221
0.410000,-0.896059
0.410100,-0.956107
0.410200,-0.960002
0.410300,-0.984345
0.410400,-1.024918
0.410500,-1.034331
0.410600,-1.064192
0.410700,-1.121968
0.410800,-1.156049
0.410900,-1.202789
0.411000,-1.246283
0.411100,-1.297242
0.411200,-1.328402
0.411300,-1.365405
0.411400,-1.418636
0.411500,-1.469271
0.411600,-1.550092
0.411700,-1.601052
0.411800,-1.718875
0.411900,-2.021711
0.412000,-2.355058
0.412100,-2.242427
0.412200,-2.035992
0.412300,-1.838321
0.412400,-1.988928
0.412500,-2.373884
0.412600,-2.654973
0.412700,-2.746830
0.412800,-2.589732
0.412900,-2.431335
0.413000,-2.418351
0.413100,-2.638419
0.413200,-2.867251
0.413300,-2.963652
0.413400,-2.921132
0.413500,-2.860434
0.413600,-2.835442
0.413700,-2.881532
0.413800,-2.943203
0.413900,-2.985724
0.414000,-2.983776
0.414100,-3.022402
0.414200,-3.040254
0.414300,-3.096407
0.414400,-3.188265
0.414500,-3.219100
0.414600,-3.216828
0.414700,-3.230785
0.414800,-3.271683
0.414900,-3.290509
0.415000,-3.202222
0.415100,-2.952292
0.415200,-2.941256
0.415300,-3.170412
0.415400,-3.456696
0.415500,-3.531026
0.415600,-3.306738
0.415700,-3.017533
0.415800,-2.905227
0.415900,-3.081476
0.416000,-3.389507
0.416100,-3.522587
0.416200,-3.441441
0.416300,-3.206766
0.416400,-3.115882
0.416500,-3.147367
0.416600,-3.229811
0.416700,-3.270709
0.416800,-3.218126
0.416900,-3.170737
0.417000,-3.119777
0.417100,-3.068818
0.417200,-3.000979
0.417300,-2.800386
0.417400,-2.674448
0.417500,-2.613751
0.417600,-2.601741
0.417700,-2.618295
0.417800,-2.568309
0.417900,-2.350514
0.418000,-2.236260
0.418100,-1.948355
0.418200,-1.970102
0.418300,-1.984059
0.418400,-1.950303
0.418500,-1.825987
0.418600,-1.710111
0.418700,-1.609166
0.418800,-1.543600
0.418900,-1.578980
0.419000,-1.623772
0.419100,-1.664021
0.419200,-1.710436
0.419300,-1.744517
0.419400,-1.765940
0.419500,-1.744517
0.419600,-1.809109
0.419700,-1.841243
0.419800,-1.994770
0.419900,-1.957768
0.420000,-2.124604
0.420100,-1.946083
0.420200,-1.695181
0.420300,-1.396565
0.420400,-1.256020
0.420500,-1.657529
0.420600,-1.913949
0.420700,-1.998016
0.420800,-1.506273
0.420900,-1.292049
0.421000,-0.994407
0.421100,-1.096326
0.421200,-1.255371
0.421300,-1.320937
0.421400,-1.162541
0.421500,-0.885997
0.421600,-0.722083
0.421700,-0.616269
0.421800,-0.545510
0.421900,-0.577319
0.422000,-0.528632
0.422100,-0.469234
0.422200,-0.354007
0.422300,-0.288766
0.422400,-0.219955
0.422500,-0.260852
0.422600,-0.200805
0.422700,-0.365043
0.422800,-0.279353
0.422900,-0.314733
0.423000,-0.323496
0.423100,-0.204699
0.423200,-0.144003
0.423300,-0.124852
0.423400,-0.418599
0.423500,-0.679238
0.423600,-0.588355
0.423700,-0.343296
0.423800,-0.084929
0.423900,-0.105053
0.424000,-0.365692
0.424100,-0.657816
0.424200,-0.633472
0.424300,-0.428985
0.424400,-0.152117
0.424500,-0.154065
0.424600,-0.308241
0.424700,-0.474102
0.424800,-0.453005
0.424900,-0.441644
0.425000,-0.353358
0.425100,-0.415678
0.425200,-0.476699
0.425300,-0.555248
0.425400,-0.587057
0.425500,-0.559467
0.425600,-0.569205
0.425700,-0.675992
0.425800,-0.698064
0.425900,-0.656193
0.426000,-0.630226
0.426100,-0.614646
0.426200,-0.802904
0.426300,-0.955133
0.426400,-0.993758
0.426500,-0.907744
0.426600,-0.792842
0.426700,-0.867496
0.426800,-0.914885
0.426900,-0.930140
0.427000,-0.968765
0.427100,-0.948966
0.427200,-0.986617
0.427300,-1.005768
0.427400,-1.037901
0.427500,-1.062245
0.427600,-1.079772
0.427700,-1.107362
0.427800,-1.165137
0.427900,-1.234273
0.428000,-1.264784
0.428100,-1.304383
0.428200,-1.397863
0.428300,-1.501405
0.428400,-1.632211
0.428500,-1.787037
0.428600,-2.266122
0.428700,-2.513130
0.428800,-2.479698
0.428900,-2.218084
0.429000,-2.188547
0.429100,-2.400824
0.429200,-2.856539
0.429300,-3.243769
0.429400,-3.300895
0.429500,-3.216503
0.429600,-3.110364
0.429700,-3.264217
0.429800,-3.561862
0.429900,-3.838408
0.430000,-3.995832
0.430100,-3.971164
0.430200,-3.988691
0.430300,-3.970515
0.430400,-4.040301
0.430500,-4.098402
0.430600,-4.100674
0.430700,-4.127290
0.430800,-4.155204
0.430900,-4.124693
0.431000,-4.156178
0.431100,-4.152283
0.431200,-4.093533
0.431300,-4.001675
0.431400,-3.998104
0.431500,-3.990639
0.431600,-3.979278
0.431700,-3.708250
0.431800,-3.488830
0.431900,-3.435923
0.432000,-3.656640
0.432100,-3.825749
0.432200,-3.823802
0.432300,-3.444362
0.432400,-3.056159
0.432500,-2.910745
0.432600,-3.036359
0.432700,-3.263244
0.432800,-3.303817
0.432900,-3.106794
0.433000,-2.818888
0.433100,-2.641665
0.433200,-2.613102
0.433300,-2.593627
0.433400,-2.517349
0.433500,-2.401798
0.433600,-2.294361
0.433700,-2.187897
0.433800,-2.037291
0.433900,-1.879219
0.434000,-1.584498
0.434100,-1.372546
0.434200,-1.228106
0.434300,-1.149233
0.434400,-1.062569
0.434500,-0.880154
0.434600,-0.566284
0.434700,-0.408537
0.434800,-0.072595
0.434900,-0.059936
0.435000,-0.007029
0.435100,0.096512
0.435200,0.202001
0.435300,0.331185
0.435400,0.434726
0.435500,0.469132
0.435600,0.513600
0.435700,0.426287
0.435800,0.364941
0.435900,0.281848
0.436000,0.239977
0.436100,0.195185
0.436200,0.201028
0.436300,0.111118
0.436400,0.073142
0.436500,-0.001187
0.436600,-0.150494
0.436700,-0.109597
0.436800,-0.192365
0.436900,0.189667
0.437000,0.365915
0.437100,0.364617
0.437200,-0.048251
0.437300,-0.466962
0.437400,-0.220279
0.437500,-0.141731
0.437600,0.284120
0.437700,0.241600
0.437800,0.139032
0.437900,-0.205024
0.438000,-0.191716
0.438100,-0.127774
0.438200,0.022183
0.438300,0.103004
0.438400,0.099109
0.438500,0.066651
0.438600,-0.015144
0.438700,-0.021635
0.438800,-0.068700
0.438900,-0.086552
0.439000,-0.128747
0.439100,-0.189769
0.439200,-0.252413
0.439300,-0.344594
0.439400,-0.465014
0.439500,-0.513377
0.439600,-0.582188
0.439700,-0.666904
0.439800,-0.516623
0.439900,-0.546160
0.440000,-0.571152
0.440100,-0.939553
0.440200,-1.125863
0.440300,-1.075877
0.440400,-0.740909
0.440500,-0.615945
0.440600,-0.623735
0.440700,-1.015505
0.440800,-1.266732
0.440900,-1.200192
0.441000,-0.930465
0.441100,-0.772069
0.441200,-0.873014
0.441300,-1.082044
0.441400,-1.259591
0.441500,-1.232651
0.441600,-1.254722
0.441700,-1.249529
0.441800,-1.427075
0.441900,-1.551390
0.442000,-1.648765
0.442100,-1.693558
0.442200,-1.732832
0.442300,-1.817224
0.442400,-1.937968
0.442500,-1.956470
0.442600,-1.924985
0.442700,-1.867209
0.442800,-1.877921
0.442900,-2.052546
0.443000,-2.164203
0.443100,-2.157062
0.443200,-1.983735
0.443300,-1.942513
0.443400,-2.048651
0.443500,-2.044107
0.443600,-2.027229
0.443700,-2.047677
0.443800,-2.069100
0.443900,-2.158685
0.444000,-2.204451
0.444100,-2.305072
0.444200,-2.374533
0.444300,-2.480672
0.444400,-2.567660
0.444500,-2.670878
0.444600,-2.772797
0.444700,-2.817589
0.444800,-2.948721
0.444900,-3.006822
0.445000,-3.120102
0.445100,-3.181448
0.445200,-3.419369
0.445300,-3.806274
0.445400,-3.958180
0.445500,-3.814064
0.445600,-3.453775
0.445700,-3.374576
0.445800,-3.555695
0.445900,-3.982849
0.446000,-4.107165
0.446100,-4.066267
0.446200,-3.747200
0.446300,-3.587179
0.446400,-3.622234
0.446500,-3.849444
0.446600,-3.996482
0.446700,-4.004596
0.446800,-3.891640
0.446900,-3.806924
0.447000,-3.745577
0.447100,-3.729348
0.447200,-3.715715
0.447300,-3.672545
0.447400,-3.619962
0.447500,-3.551475
0.447600,-3.511876
0.447700,-3.494348
0.447800,-3.546931
0.447900,-3.472276
0.448000,-3.374576
0.448100,-3.352180
0.448200,-3.336275
0.448300,-3.295377
0.448400,-3.028244
0.448500,-2.828625
0.448600,-2.862707
0.448700,-3.146718
0.448800,-3.318098
0.448900,-3.290833
0.449000,-2.980206
0.449100,-2.679966
0.449200,-2.651402
0.449300,-2.893542
0.449400,-3.156455
0.449500,-3.192484
0.449600,-3.007146
0.449700,-2.806554
0.449800,-2.730276
0.449900,-2.781236
0.450000,-2.796491
0.450100,-2.734171
0.450200,-2.644911
0.450300,-2.580643
0.450400,-2.525139
0.450500,-2.437177
0.450600,-2.241129
0.450700,-2.023009
0.450800,-1.871429
0.450900,-1.809434
0.451000,-1.744517
0.451100,-1.737376
0.451200,-1.576708
0.451300,-1.338464
0.451400,-1.255047
0.451500,-0.945395
0.451600,-0.989863
0.451700,-0.913911
0.451800,-0.790570
0.451900,-0.671448
0.452000,-0.502666
0.452100,-0.389386
0.452200,-0.341348
0.452300,-0.298828
0.452400,-0.328041
0.452500,-0.277406
0.452600,-0.302074
0.452700,-0.271888
0.452800,-0.210542
0.452900,-0.189120
0.453000,-0.145626
0.453100,-0.188470
0.453200,-0.213139
0.453300,-0.340050
0.453400,-0.246895
0.453500,-0.222227
0.453600,0.128970
0.453700,0.376951
0.453800,0.266268
0.453900,-0.179382
0.454000,-0.343620
0.454100,-0.262150
0.454200,0.092617
0.454300,0.289963
0.454400,0.259777
0.454500,0.041009
0.454600,-0.107974
0.454700,-0.154714
0.454800,0.044904
0.454900,0.213037
0.455000,0.269514
0.455100,0.251338
0.455200,0.161104
0.455300,0.094889
0.455400,0.014718
0.455500,0.014069
0.455600,0.030947
0.455700,-0.032671
0.455800,-0.041759
0.455900,-0.113492
0.456000,-0.246571
0.456100,-0.340050
0.456200,-0.403668
0.456300,-0.489682
0.456400,-0.549730
0.456500,-0.496823
0.456600,-0.504938
0.456700,-0.563038
0.456800,-0.994407
0.456900,-1.115152
0.457000,-1.001873
0.457100,-0.644832
0.457200,-0.557195
0.457300,-0.713319
0.457400,-1.138846
0.457500,-1.309252
0.457600,-1.224861
0.457700,-0.961624
0.457800,-0.834064
0.457900,-1.002846
0.458000,-1.222913
0.458100,-1.337815
0.458200,-1.278417
0.458300,-1.293023
0.458400,-1.303085
0.458500,-1.444278
0.458600,-1.545223
0.458700,-1.646493
0.458800,-1.631238
0.458900,-1.654608
0.459000,-1.747763
0.459100,-1.819171
0.459200,-1.799047
0.459300,-1.742245
0.459400,-1.712708
0.459500,-1.751658
0.459600,-1.931152
0.459700,-2.000288
0.459800,-1.971725
0.459900,-1.760422
0.460000,-1.746789
0.460100,-1.814302
0.460200,-1.782169
0.460300,-1.732832
0.460400,-1.736727
0.460500,-1.710760
0.460600,-1.677328
0.460700,-1.658503
0.460800,-1.628316
0.460900,-1.614684
0.461000,-1.571190
0.461100,-1.546846
0.461200,-1.546522
0.461300,-1.491992
0.461400,-1.493615
0.461500,-1.462130
0.461600,-1.491018
0.461700,-1.460183
0.461800,-1.524450
0.461900,-1.679601
0.462000,-2.029176
0.462100,-2.076565
0.462200,-1.791906
0.462300,-1.550417
0.462400,-1.528994
0.462500,-1.784441
0.462600,-2.124279
0.462700,-2.319354
0.462800,-2.181081
0.462900,-1.956470
0.463000,-1.895773
0.463100,-2.018465
0.463200,-2.227496
0.463300,-2.403745
0.463400,-2.427764
0.463500,-2.373559
0.463600,-2.371611
0.463700,-2.416404
0.463800,-2.479373
0.463900,-2.557922
0.464000,-2.612777
0.464100,-2.673474
0.464200,-2.700415
0.464300,-2.751050
0.464400,-2.853618
0.464500,-2.900034
0.464600,-2.876339
0.464700,-2.907499
0.464800,-2.989619
0.464900,-3.062975
0.465000,-3.031490
0.465100,-2.817914
0.465200,-2.719890
0.465300,-2.840635
0.465400,-3.233057
0.465500,-3.444362
0.465600,-3.404763
0.465700,-3.092837
0.465800,-2.877637
0.465900,-2.978908
0.466000,-3.278499
0.466100,-3.547255
0.466200,-3.578091
0.466300,-3.351531
0.466400,-3.196055
0.466500,-3.177229
0.466600,-3.256103
0.466700,-3.287912
0.466800,-3.242146
0.466900,-3.184370
0.467000,-3.140875
0.467100,-3.099978
0.467200,-3.032464
0.467300,-2.878611
0.467400,-2.675422
0.467500,-2.513130
0.467600,-2.444643
0.467700,-2.397578
0.467800,-2.339478
0.467900,-2.098637
0.468000,-1.861691
0.468100,-1.499457
0.468200,-1.383257
0.468300,-1.372870
0.468400,-1.283935
0.468500,-1.094379
0.468600,-0.933710
0.468700,-0.702933
0.468800,-0.565310
0.468900,-0.440021
0.469000,-0.391009
0.469100,-0.363420
0.469200,-0.280002
0.469300,-0.230991
0.469400,-0.208919
0.469500,-0.063182
0.469600,-0.042409
0.469700,0.075414
0.469800,0.013095
0.469900,0.084503
0.470000,0.008551
0.470100,0.093916
0.470200,0.226345
0.470300,0.711270
0.470400,0.780406
0.470500,0.692120
0.470600,0.188369
0.470700,0.206221
0.470800,0.307490
0.470900,0.691470
0.471000,0.844348
0.471100,0.850191
0.471200,0.597342
0.471300,0.437972
0.471400,0.497371
0.471500,0.664855
0.471600,0.826821
0.471700,0.817408
0.471800,0.870964
0.471900,0.740482
0.472000,0.704778
0.472100,0.682382
0.472200,0.711270
0.472300,0.710296
0.472400,0.685628
0.472500,0.655766
0.472600,0.604158
0.472700,0.444139
0.472800,0.365915
0.472900,0.198431
0.473000,0.138059
0.473100,0.011472
0.473200,0.052694
0.473300,-0.060910
0.473400,-0.189444
0.473500,-0.624059
0.473600,-0.762656
0.473700,-0.628928
0.473800,-0.386790
0.473900,-0.370885
0.474000,-0.629252
0.474100,-1.059973
0.474200,-1.175849
0.474300,-1.062894
0.474400,-0.825300
0.474500,-0.761682
0.474600,-0.954159
0.474700,-1.166760
0.474800,-1.219018
0.474900,-1.220966
0.475000,-1.189157
0.475100,-1.235247
0.475200,-1.316717
0.475300,-1.373195
0.475400,-1.405653
0.475500,-1.354369
0.475600,-1.386503
0.475700,-1.458560
0.475800,-1.469920
0.475900,-1.422856
0.476000,-1.342035
0.476100,-1.300813
0.476200,-1.366703
0.476300,-1.500106
0.476400,-1.536784
0.476500,-1.518932
0.476600,-1.481281
0.476700,-1.369624
0.476800,-1.410846
0.476900,-1.420259
0.477000,-1.404355
0.477100,-1.396240
0.477200,-1.400784
0.477300,-1.387476
0.477400,-1.383581
0.477500,-1.374818
0.477600,-1.378388
0.477700,-1.372870
0.477800,-1.381634
0.477900,-1.398188
0.478000,-1.379686
0.478100,-1.397538
0.478200,-1.411171
0.478300,-1.475763
0.478400,-1.531915
0.478500,-1.615982
0.478600,-1.951925
0.478700,-2.274561
0.478800,-2.256709
0.478900,-2.009377
0.479000,-1.788660
0.479100,-1.868832
0.479200,-2.252489
0.479300,-2.587459
0.479400,-2.761112
0.479500,-2.600118
0.479600,-2.421273
0.479700,-2.353759
0.479800,-2.515402
0.479900,-2.811422
0.480000,-2.917237
0.480100,-2.910745
0.480200,-2.850697
0.480300,-2.860434
0.480400,-2.879910
0.480500,-2.906850
0.480600,-2.949046
0.480700,-2.949371
0.480800,-2.989294
0.480900,-3.016235
0.481000,-3.028244
0.481100,-3.074335
0.481200,-3.035061
0.481300,-3.041552
0.481400,-3.086670
0.481500,-3.167491
0.481600,-3.159377
0.481700,-3.047070
0.481800,-2.797790
0.481900,-2.783184
0.482000,-2.992865
0.482100,-3.340170
0.482200,-3.458968
0.482300,-3.331731
0.482400,-3.008120
0.482500,-2.848100
0.482600,-3.018507
0.482700,-3.368084
0.482800,-3.570625
0.482900,-3.544334
0.483000,-3.344390
0.483100,-3.242470
0.483200,-3.270709
0.483300,-3.355750
0.483400,-3.403464
0.483500,-3.363540
0.483600,-3.381392
0.483700,-3.355750
0.483800,-3.305115
0.483900,-3.197678
0.484000,-3.013638
0.484100,-2.866602
0.484200,-2.784806
0.484300,-2.791947
0.484400,-2.789351
0.484500,-2.734171
0.484600,-2.477101
0.484700,-2.296308
0.484800,-2.171668
0.484900,-1.972699
0.485000,-1.912976
0.485100,-1.829233
0.485200,-1.687715
0.485300,-1.513739
0.485400,-1.342359
0.485500,-1.230054
0.485600,-1.170655
0.485700,-1.153777
0.485800,-1.142092
0.485900,-1.084966
0.486000,-1.119371
0.486100,-1.041472
0.486200,-0.983047
0.486300,-0.885672
0.486400,-0.942149
0.486500,-0.867820
0.486600,-1.012259
0.486700,-0.889567
0.486800,-0.889892
0.486900,-0.610751
0.487000,-0.212489
0.487100,-0.236833
0.487200,-0.318303
0.487300,-0.885023
0.487400,-0.797386
0.487500,-0.637042
0.487600,-0.197559
0.487700,-0.118036
0.487800,-0.178084
0.487900,-0.380623
0.488000,-0.494226
0.488100,-0.360174
0.488200,-0.148871
0.488300,0.015367
0.488400,0.016016
0.488500,-0.005731
0.488600,-0.038189
0.488700,-0.035917
0.488800,0.014393
0.488900,0.074116
0.489000,0.100407
0.489100,0.097811
0.489200,0.144550
0.489300,0.092293
0.489400,0.025754
0.489500,-0.041759
0.489600,-0.085253
0.489700,-0.200155
0.489800,-0.065779
0.489900,-0.107325
0.490000,0.014718
0.490100,-0.304995
0.490200,-0.609128
0.490300,-0.607505
0.490400,-0.440346
0.490500,-0.155363
0.490600,-0.224824
0.490700,-0.523763
0.490800,-0.913262
0.490900,-0.989538
0.491000,-0.792517
0.491100,-0.525062
0.491200,-0.498771
0.491300,-0.709749
0.491400,-0.916183
0.491500,-0.918780
0.491600,-0.894436
0.491700,-0.873338
0.491800,-0.922025
0.491900,-1.075553
0.492000,-1.153452
0.492100,-1.177472
0.492200,-1.148908
0.492300,-1.211228
0.492400,-1.344307
0.492500,-1.407925
0.492600,-1.392020
0.492700,-1.382608
0.492800,-1.401758
0.492900,-1.578655
0.493000,-1.774379
0.493100,-1.845787
0.493200,-1.831505
0.493300,-1.648441
0.493400,-1.753281
0.493500,-1.808460
0.493600,-1.827935
0.493700,-1.856498
0.493800,-1.840594
0.493900,-1.870131
0.494000,-1.875649
0.494100,-1.918818
0.494200,-1.916871
0.494300,-1.932775
0.494400,-1.960365
0.494500,-1.983735
0.494600,-1.976269
0.494700,-1.988279
0.494800,-1.958417
0.494900,-2.059687
0.495000,-2.068451
0.495100,-2.135639
0.495200,-2.240155
0.495300,-2.618295
0.495400,-2.846802
0.495500,-2.795193
0.495600,-2.537798
0.495700,-2.343373
0.495800,-2.457951
0.495900,-2.881208
0.496000,-3.191510
0.496100,-3.229487
0.496200,-3.042851
0.496300,-2.809799
0.496400,-2.809150
0.496500,-3.015261
0.496600,-3.277525
0.496700,-3.328810
0.496800,-3.272657
0.496900,-3.203845
0.497000,-3.180475
0.497100,-3.215205
0.497200,-3.258050
0.497300,-3.279148
0.497400,-3.279148
0.497500,-3.285965
0.497600,-3.323292
0.497700,-3.323941
0.497800,-3.421641
0.497900,-3.375550
0.498000,-3.357049
0.498100,-3.313554
0.498200,-3.359970
0.498300,-3.343091
0.498400,-3.209038
0.498500,-2.974688
0.498600,-2.965600
0.498700,-3.234031
0.498800,-3.535895
0.498900,-3.661834
0.499000,-3.435273
0.499100,-3.090240
0.499200,-2.983452
0.499300,-3.166193
0.499400,-3.547580
0.499500,-3.737787
0.499600,-3.662808
0.499700,-3.464486
0.499800,-3.355750
0.499900,-3.395025
0.500000,-3.445660
0.500100,-3.464486
0.500200,-3.443064
0.500300,-3.395350
0.500400,-3.358671
0.500500,-3.297325
0.500600,-3.159377
0.500700,-2.949371
0.500800,-2.792596
0.500900,-2.754620
0.501000,-2.753971
0.501100,-2.753971
0.501200,-2.669904
0.501300,-2.406666
0.501400,-2.281053
0.501500,-2.088900
0.501600,-2.004183
0.501700,-1.927257
0.501800,-1.839295
0.501900,-1.721147
0.502000,-1.569567
0.502100,-1.407276
0.502200,-1.316068
0.502300,-1.279390
0.502400,-1.258942
0.502500,-1.270951
0.502600,-1.251801
0.502700,-1.253424
0.502800,-1.193051
0.502900,-1.096326
0.503000,-1.040173
0.503100,-1.028164
0.503200,-1.063219
0.503300,-1.105739
0.503400,-1.120345
0.503500,-1.083667
0.503600,-0.740584
0.503700,-0.367315
0.503800,-0.322523
0.503900,-0.619190
0.504000,-1.002846
0.504100,-0.906770
0.504200,-0.653596
0.504300,-0.304995
0.504400,-0.190418
0.504500,-0.356279
0.504600,-0.526685
0.504700,-0.659114
0.504800,-0.452355
0.504900,-0.354007
0.505000,-0.113817
0.505100,-0.167373
0.505200,-0.144976
0.505300,-0.261501
0.505400,-0.276757
0.505500,-0.248518
0.505600,-0.210217
0.505700,-0.205998
0.505800,-0.185225
0.505900,-0.212814
0.506000,-0.301749
0.506100,-0.431907
0.506200,-0.464689
0.506300,-0.534475
0.506400,-0.558818
0.506500,-0.528308
0.506600,-0.540642
0.506700,-0.505587
0.506800,-0.858407
0.506900,-1.078474
0.507000,-1.050884
0.507100,-0.751620
0.507200,-0.544537
0.507300,-0.586732
0.507400,-0.937930
0.507500,-1.270951
0.507600,-1.244660
0.507700,-0.995706
0.507800,-0.777911
0.507900,-0.778885
0.508000,-1.009338
0.508100,-1.195973
0.508200,-1.151505
0.508300,-1.174875
0.508400,-1.155725
0.508500,-1.256670
0.508600,-1.354044
0.508700,-1.409872
0.508800,-1.402732
0.508900,-1.395915
0.509000,-1.473166
0.509100,-1.546522
0.509200,-1.553987
0.509300,-1.482904
0.509400,-1.463429
0.509500,-1.469271
0.509600,-1.642598
0.509700,-1.770159
0.509800,-1.815925
0.509900,-1.803916
0.510000,-1.664345
0.510100,-1.732832
0.510200,-1.779897
0.510300,-1.759448
0.510400,-1.759448
0.510500,-1.748087
0.510600,-1.784116
0.510700,-1.790608
0.510800,-1.780221
0.510900,-1.809434
0.511000,-1.791257
0.511100,-1.822417
0.511200,-1.835400
0.511300,-1.848059
0.511400,-1.843515
0.511500,-1.886035
0.511600,-1.927582
0.511700,-1.949978
0.511800,-1.958742
0.511900,-2.139859
0.512000,-2.549808
0.512100,-2.697169
0.512200,-2.596872
0.512300,-2.266446
0.512400,-2.166150
0.512500,-2.310590
0.512600,-2.751374
0.512700,-3.065896
0.512800,-3.034412
0.512900,-2.842582
0.513000,-2.652052
0.513100,-2.741637
0.513200,-2.954239
0.513300,-3.217802
0.513400,-3.337573
0.513500,-3.309659
0.513600,-3.315502
0.513700,-3.307063
0.513800,-3.370032
0.513900,-3.456696
0.514000,-3.536544
0.514100,-3.567380
0.514200,-3.582960
0.514300,-3.556993
0.514400,-3.679037
0.514500,-3.692994
0.514600,-3.702407
0.514700,-3.682932
0.514800,-3.721558
0.514900,-3.792642
0.515000,-3.736813
0.515100,-3.600487
0.515200,-3.345688
0.515300,-3.435273
0.515400,-3.718636
0.515500,-3.949417
0.515600,-3.996157
0.515700,-3.684555
0.515800,-3.361593
0.515900,-3.272332
0.516000,-3.464162
0.516100,-3.775114
0.516200,-3.857883
0.516300,-3.686502
0.516400,-3.426834
0.516500,-3.312256
0.516600,-3.301545
0.516700,-3.354127
0.516800,-3.306413
0.516900,-3.237926
0.517000,-3.132111
0.517100,-3.029218
0.517200,-2.924053
0.517300,-2.756568
0.517400,-2.533254
0.517500,-2.364471
0.517600,-2.269043
0.517700,-2.211916
0.517800,-2.174589
0.517900,-1.976918
0.518000,-1.672784
0.518100,-1.521853
0.518200,-1.148908
0.518300,-1.110283
0.518400,-1.024593
0.518500,-0.858083
0.518600,-0.685730
0.518700,-0.499420
0.518800,-0.306618
0.518900,-0.207621
0.519000,-0.120633
0.519100,-0.189120
0.519200,-0.140432
0.519300,-0.162504
0.519400,-0.125502
0.519500,-0.133941
0.519600,-0.067077
0.519700,-0.071621
0.519800,-0.114141
0.519900,-0.159258
0.520000,-0.148222
0.520100,-0.185225
0.520200,-0.067726
0.520300,0.160455
0.520400,0.498344
0.520500,0.315929
0.520600,-0.002810
0.520700,-0.430284
0.520800,-0.123879
0.520900,-0.020337
0.521000,0.302946
0.521100,0.237056
0.521200,0.009524
0.521300,-0.219630
0.521400,-0.315706
0.521500,-0.193015
0.521600,-0.033970
0.521700,-0.013196
0.521800,-0.006705
0.521900,-0.167048
0.522000,-0.307592
0.522100,-0.386790
0.522200,-0.379974
0.522300,-0.423792
0.522400,-0.477348
0.522500,-0.508833
0.522600,-0.593224
0.522700,-0.737338
0.522800,-0.880154
0.522900,-0.994083
0.523000,-1.087887
0.523100,-1.193701
0.523200,-1.069061
0.523300,-1.131381
0.523400,-1.099572
0.523500,-1.519581
0.523600,-1.679276
0.523700,-1.606569
0.523800,-1.315419
0.523900,-1.220966
0.524000,-1.276145
0.524100,-1.641300
0.524200,-1.857147
0.524300,-1.791582
0.524400,-1.578006
0.524500,-1.423505
0.524600,-1.474140
0.524700,-1.621825
0.524800,-1.769835
0.524900,-1.769835
0.525000,-1.819171
0.525100,-1.770484
0.525200,-1.880193
0.525300,-1.936021
0.525400,-2.003859
0.525500,-1.996718
0.525600,-2.037291
0.525700,-2.106752
0.525800,-2.143754
0.525900,-2.143754
0.526000,-2.060985
0.526100,-2.047353
0.526200,-2.047353
0.526300,-2.221654
0.526400,-2.272614
0.526500,-2.211267
0.526600,-2.128823
0.526700,-2.092794
0.526800,-2.099611
0.526900,-2.099286
0.527000,-2.060336
0.527100,-2.058389
0.527200,-2.059687
0.527300,-2.069425
0.527400,-2.060012
0.527500,-2.070398
0.527600,-2.049300
0.527700,-2.063582
0.527800,-2.044756
0.527900,-2.051248
0.528000,-2.023334
0.528100,-2.048327
0.528200,-2.053520
0.528300,-2.049950
0.528400,-2.111945
0.528500,-2.111620
0.528600,-2.307344
0.528700,-2.653675
0.528800,-2.708529
0.528900,-2.470609
0.529000,-2.133692
0.529100,-2.075267
0.529200,-2.253463
0.529300,-2.631927
0.529400,-2.770525
0.529500,-2.707555
0.529600,-2.501120
0.529700,-2.381674
0.529800,-2.443994
0.529900,-2.654648
0.530000,-2.804606
0.530100,-2.810773
0.530200,-2.812721
0.530300,-2.791947
0.530400,-2.776043
0.530500,-2.818239
0.530600,-2.870172
0.530700,-2.872769
0.530800,-2.922755
0.530900,-2.896788
0.531000,-2.913666
0.531100,-2.950993
0.531200,-3.001629
0.531300,-2.941905
0.531400,-3.004550
0.531500,-3.060703
0.531600,-3.136331
0.531700,-3.080503
0.531800,-2.844530
0.531900,-2.733522
0.532000,-2.871146
0.532100,-3.215530
0.532200,-3.410280
0.532300,-3.405412
0.532400,-3.144121
0.532500,-2.899385
0.532600,-2.967872
0.532700,-3.252208
0.532800,-3.558940
0.532900,-3.615743
0.533000,-3.476820
0.533100,-3.333029
0.533200,-3.282394
0.533300,-3.328810
0.533400,-3.415149
0.533500,-3.423264
0.533600,-3.401517
0.533700,-3.356399
0.533800,-3.317774
0.533900,-3.274929
0.534000,-3.149964
0.534100,-2.991566
0.534200,-2.898086
0.534300,-2.867251
0.534400,-2.868874
0.534500,-2.880559
0.534600,-2.734496
0.534700,-2.540719
0.534800,-2.441721
0.534900,-2.212890
0.535000,-2.225224
0.535100,-2.186924
0.535200,-2.103506
0.535300,-1.992498
0.535400,-1.829558
0.535500,-1.730235
0.535600,-1.694531
0.535700,-1.713682
0.535800,-1.662073
0.535900,-1.719524
0.536000,-1.672135
0.536100,-1.721147
0.536200,-1.598130
0.536300,-1.574760
0.536400,-1.505949
0.536500,-1.506273
0.536600,-1.536784
0.536700,-1.546522
0.536800,-1.590340
0.536900,-1.409223
0.537000,-1.080746
0.537100,-0.787324
0.537200,-0.878856
0.537300,-1.371247
0.537400,-1.395591
0.537500,-1.304708
0.537600,-0.914885
0.537700,-0.825949
0.537800,-0.773691
0.537900,-1.025892
0.538000,-1.166111
0.538100,-1.130732
0.538200,-0.956431
0.538300,-0.797061
0.538400,-0.716240
0.538500,-0.720135
0.538600,-0.795114
0.538700,-0.795114
0.538800,-0.784403
0.538900,-0.718512
0.539000,-0.723057
0.539100,-0.741882
0.539200,-0.742856
0.539300,-0.781806
0.539400,-0.839582
0.539500,-0.935658
0.539600,-0.919104
0.539700,-1.075553
0.539800,-0.991161
0.539900,-0.994407
0.540000,-0.842178
0.540100,-1.014856
0.540200,-1.376440
0.540300,-1.489720
0.540400,-1.325806
0.540500,-0.995056
0.540600,-0.960975
0.540700,-1.119696
0.540800,-1.518932
0.540900,-1.653634
0.541000,-1.548794
0.541100,-1.293672
0.541200,-1.206684
0.541300,-1.324183
0.541400,-1.526722
0.541500,-1.615333
0.541600,-1.629939
0.541700,-1.592937
0.541800,-1.543925
0.541900,-1.639028
0.542000,-1.707515
0.542100,-1.790608
0.542200,-1.752632
0.542300,-1.763992
0.542400,-1.742894
0.542500,-1.672135
0.542600,-1.625395
0.542700,-1.590989
0.542800,-1.565347
0.542900,-1.583200
0.543000,-1.748737
0.543100,-1.816250
0.543200,-1.813329
0.543300,-1.780870
0.543400,-1.727639
0.543500,-1.727639
0.543600,-1.719200
0.543700,-1.680250
0.543800,-1.640001
0.543900,-1.633510
0.544000,-1.626044
0.544100,-1.608517
0.544200,-1.622474
0.544300,-1.570541
0.544400,-1.589042
0.544500,-1.583849
0.544600,-1.599429
0.544700,-1.562102
0.544800,-1.575410
0.544900,-1.543276
0.545000,-1.551715
0.545100,-1.585472
0.545200,-1.590340
0.545300,-1.915248
0.545400,-2.183678
0.545500,-2.274561
0.545600,-1.946732
0.545700,-1.727314
0.545800,-1.725691
0.545900,-2.016193
0.546000,-2.383946
0.546100,-2.505664
0.546200,-2.392060
0.546300,-2.142456
0.546400,-2.131420
0.546500,-2.269368
0.546600,-2.524166
0.546700,-2.651078
0.546800,-2.700415
0.546900,-2.614725
0.547000,-2.578696
0.547100,-2.629980
0.547200,-2.703336
0.547300,-2.809150
0.547400,-2.830248
0.547500,-2.840310
0.547600,-2.869198
0.547700,-2.938335
0.547800,-3.076932
0.547900,-3.112636
0.548000,-3.115558
0.548100,-3.156780
0.548200,-3.237926
0.548300,-3.298948
0.548400,-3.268437
0.548500,-3.062326
0.548600,-3.011042
0.548700,-3.157754
0.548800,-3.502138
0.548900,-3.643982
0.549000,-3.602110
0.549100,-3.331406
0.549200,-3.170412
0.549300,-3.293755
0.549400,-3.603733
0.549500,-3.917932
0.549600,-3.974410
0.549700,-3.822504
0.549800,-3.694942
0.549900,-3.690397
0.550000,-3.779658
0.550100,-3.907220
0.550200,-3.949741
0.550300,-3.975059
0.550400,-3.973761
0.550500,-3.982849
0.550600,-3.940004
0.550700,-3.846848
0.550800,-3.717338
0.550900,-3.658588
0.551000,-3.701109
0.551100,-3.728049
0.551200,-3.746551
0.551300,-3.543685
0.551400,-3.403789
0.551500,-3.239224
0.551600,-3.133734
0.551700,-3.153534
0.551800,-3.105171
0.551900,-2.991566
0.552000,-2.847776
0.552100,-2.706582
0.552200,-2.586161
0.552300,-2.585837
0.552400,-2.539421
0.552500,-2.530982
0.552600,-2.471908
0.552700,-2.489435
0.552800,-2.431335
0.552900,-2.332337
0.553000,-2.287220
0.553100,-2.224575
0.553200,-2.256709
0.553300,-2.228795
0.553400,-2.244375
0.553500,-2.210618
0.553600,-1.965233
0.553700,-1.591963
0.553800,-1.412469
0.553900,-1.663696
0.554000,-1.958742
0.554100,-2.057415
0.554200,-1.672460
0.554300,-1.349825
0.554400,-1.157672
0.554500,-1.122293
0.554600,-1.355343
0.554700,-1.398188
0.554800,-1.261214
0.554900,-1.021672
0.555000,-0.743830
0.555100,-0.733119
0.555200,-0.619190
0.555300,-0.716890
0.555400,-0.643859
0.555500,-0.622112
0.555600,-0.545510
0.555700,-0.523114
0.555800,-0.446188
0.555900,-0.384842
0.556000,-0.453329
0.556100,-0.507859
0.556200,-0.533501
0.556300,-0.506561
0.556400,-0.546484
0.556500,-0.471830
0.556600,-0.419897
0.556700,-0.357902
0.556800,-0.531229
0.556900,-0.860030
0.557000,-0.882751
0.557100,-0.687028
0.557200,-0.410809
0.557300,-0.389062
0.557400,-0.590303
0.557500,-0.949939
0.557600,-1.047963
0.557700,-0.897682
0.557800,-0.642885
0.557900,-0.574723
0.558000,-0.783753
0.558100,-1.018102
0.558200,-1.048612
0.558300,-1.000574
0.558400,-0.984345
0.558500,-1.056078
0.558600,-1.213825
0.558700,-1.315419
0.558800,-1.365080
0.558900,-1.315419
0.559000,-1.369300
0.559100,-1.482904
0.559200,-1.547171
0.559300,-1.538732
0.559400,-1.504975
0.559500,-1.481281
0.559600,-1.617930
0.559700,-1.758150
0.559800,-1.781844
0.559900,-1.875649
0.560000,-1.917195
0.560100,-1.885386
0.560200,-1.976594
0.560300,-2.016193
0.560400,-2.030475
0.560500,-2.067152
0.560600,-2.116164
0.560700,-2.152842
0.560800,-2.159009
0.560900,-2.204127
0.561000,-2.217434
0.561100,-2.287220
0.561200,-2.300852
0.561300,-2.340127
0.561400,-2.354084
0.561500,-2.393034
0.561600,-2.460547
0.561700,-2.489111
0.561800,-2.561493
0.561900,-2.629331
0.562000,-2.945151
0.562100,-3.220074
0.562200,-3.197028
0.562300,-2.853618
0.562400,-2.651727
0.562500,-2.674773
0.562600,-3.080827
0.562700,-3.384314
0.562800,-3.461565
0.562900,-3.309010
0.563000,-3.099328
0.563100,-3.103223
0.563200,-3.317774
0.563300,-3.536544
0.563400,-3.658263
0.563500,-3.640736
0.563600,-3.623857
0.563700,-3.580038
0.563800,-3.589451
0.563900,-3.661509
0.564000,-3.688125
0.564100,-3.680335
0.564200,-3.682932
0.564300,-3.650149
0.564400,-3.699810
0.564500,-3.774465
0.564600,-3.783229
0.564700,-3.710846
0.564800,-3.715390
0.564900,-3.725128
0.565000,-3.730971
0.565100,-3.586205
0.565200,-3.378471
0.565300,-3.368084
0.565400,-3.534272
0.565500,-3.842628
0.565600,-3.961426
0.565700,-3.807897
0.565800,-3.446959
0.565900,-3.267788
0.566000,-3.422939
0.566100,-3.779983
0.566200,-3.971488
0.566300,-3.914037
0.566400,-3.659562
0.566500,-3.488181
0.566600,-3.544659
0.566700,-3.646903
0.566800,-3.711820
0.566900,-3.660860
0.567000,-3.585232
0.567100,-3.574845
0.567200,-3.531026
0.567300,-3.512525
0.567400,-3.358347
0.567500,-3.175606
0.567600,-3.101925
0.567700,-3.093161
0.567800,-3.094460
0.567900,-3.075958
0.568000,-2.834143
0.568100,-2.711775
0.568200,-2.450485
0.568300,-2.419974
0.568400,-2.409263
0.568500,-2.341750
0.568600,-2.242103
0.568700,-2.106752
0.568800,-1.929205
0.568900,-1.832154
0.569000,-1.798398
0.569100,-1.796775
0.569200,-1.832154
0.569300,-1.757825
0.569400,-1.777949
0.569500,-1.728288
0.569600,-1.633510
0.569700,-1.648765
0.569800,-1.541653
0.569900,-1.670512
0.570000,-1.530293
0.570100,-1.684145
0.570200,-1.497834
0.570300,-1.323209
0.570400,-0.884374
0.570500,-0.818159
0.570600,-1.094703
0.570700,-1.438111
0.570800,-1.490694
0.570900,-1.230378
0.571000,-0.869768
0.571100,-0.731496
0.571200,-0.834713
0.571300,-1.047314
0.571400,-1.116126
0.571500,-1.038550
0.571600,-0.820431
0.571700,-0.651973
0.571800,-0.599716
0.571900,-0.591926
0.572000,-0.686379
0.572100,-0.682484
0.572200,-0.691248
0.572300,-0.648078
0.572400,-0.638665
0.572500,-0.633147
0.572600,-0.643859
0.572700,-0.737987
0.572800,-0.878856
0.572900,-0.836660
0.573000,-0.938579
0.573100,-0.961949
0.573200,-0.900278
0.573300,-0.849968
0.573400,-0.816536
0.573500,-1.044717
0.573600,-1.392020
0.573700,-1.314770
0.573800,-1.139171
0.573900,-0.836336
0.574000,-0.897682
0.574100,-1.134627
0.574200,-1.508221
0.574300,-1.540355
0.574400,-1.397214
0.574500,-1.143066
0.574600,-1.113204
0.574700,-1.309252
0.574800,-1.531915
0.574900,-1.582875
0.575000,-1.617281
0.575100,-1.599753
0.575200,-1.658827
0.575300,-1.756527
0.575400,-1.849682
0.575500,-1.850331
0.575600,-1.884737
0.575700,-1.941539
0.575800,-2.029825
0.575900,-2.041835
0.576000,-1.998665
0.576100,-1.989577
0.576200,-1.964260
0.576300,-2.090847
0.576400,-2.208671
0.576500,-2.218733
0.576600,-2.196337
0.576700,-2.109024
0.576800,-2.045730
0.576900,-2.060661
0.577000,-2.030150
0.577100,-2.055143
0.577200,-2.023009
0.577300,-2.026904
0.577400,-2.023009
0.577500,-2.000613
0.577600,-2.041186
0.577700,-2.046055
0.577800,-2.125253
0.577900,-2.138236
0.578000,-2.164203
0.578100,-2.200881
0.578200,-2.256384
0.578300,-2.299229
0.578400,-2.347268
0.578500,-2.412184
0.578600,-2.505664
0.578700,-2.873418
0.578800,-3.122698
0.578900,-3.053887
0.579000,-2.715345
0.579100,-2.583240
0.579200,-2.646534
0.579300,-3.044149
0.579400,-3.330433
0.579500,-3.358996
0.579600,-3.186966
0.579700,-3.029218
0.579800,-3.065247
0.579900,-3.237926
0.580000,-3.426510
0.580100,-3.543685
0.580200,-3.524859
0.580300,-3.479417
0.580400,-3.470978
0.580500,-3.450529
0.580600,-3.492400
0.580700,-3.504085
0.580800,-3.531675
0.580900,-3.572898
0.581000,-3.584583
0.581100,-3.629375
0.581200,-3.664106
0.581300,-3.592697
0.581400,-3.611199
0.581500,-3.620287
0.581600,-3.713443
0.581700,-3.712145
0.581800,-3.557642
0.581900,-3.364514
0.582000,-3.335951
0.582100,-3.603409
0.582200,-3.869893
0.582300,-3.953961
0.582400,-3.710846
0.582500,-3.372953
0.582600,-3.273306
0.582700,-3.444362
0.582800,-3.736488
0.582900,-3.855287
0.583000,-3.730321
0.583100,-3.549527
0.583200,-3.432028
0.583300,-3.422939
0.583400,-3.434624
0.583500,-3.399569
0.583600,-3.369707
0.583700,-3.300895
0.583800,-3.256752
0.583900,-3.198976
0.584000,-3.056808
0.584100,-2.864329
0.584200,-2.714047
0.584300,-2.647507
0.584400,-2.613426
0.584500,-2.558896
0.584600,-2.463469
0.584700,-2.141807
0.584800,-1.999964
0.584900,-1.777949
0.585000,-1.724718
0.585100,-1.635782
0.585200,-1.515686
0.585300,-1.403705
0.585400,-1.278417
0.585500,-1.018751
0.585600,-1.008364
0.585700,-0.891190
0.585800,-0.927219
0.585900,-0.852565
0.586000,-0.872689
0.586100,-0.883076
0.586200,-0.821730
0.586300,-0.742856
0.586400,-0.727601
0.586500,-0.725978
0.586600,-0.755839
0.586700,-0.818159
0.586800,-0.834064
0.586900,-0.740584
0.587000,-0.449110
0.587100,-0.034619
0.587200,-0.060585
0.587300,-0.331286
0.587400,-0.749672
0.587500,-0.694818
0.587600,-0.406914
0.587700,-0.117712
0.587800,-0.045330
0.587900,-0.203077
0.588000,-0.383544
0.588100,-0.501043
0.588200,-0.338103
0.588300,-0.176461
0.588400,-0.031048
0.588500,-0.037865
0.588600,-0.144652
0.588700,-0.174189
0.588800,-0.196260
0.588900,-0.244623
0.589000,-0.177435
0.589100,-0.235535
0.589200,-0.208270
0.589300,-0.223850
0.589400,-0.252413
0.589500,-0.417301
0.589600,-0.524737
0.589700,-0.588355
0.589800,-0.696441
0.589900,-0.564985
0.590000,-0.593873
0.590100,-0.644508
0.590200,-0.975906
0.590300,-1.255371
0.590400,-1.193376
0.590500,-0.948641
0.590600,-0.804202
0.590700,-0.948641
0.590800,-1.333271
0.590900,-1.655257
0.591000,-1.615658
0.591100,-1.416364
0.591200,-1.247257
0.591300,-1.338789
0.591400,-1.583524
0.591500,-1.749061
0.591600,-1.680574
0.591700,-1.680574
0.591800,-1.646169
0.591900,-1.763343
0.592000,-1.812355
0.592100,-1.876622
0.592200,-1.838321
0.592300,-1.808784
0.592400,-1.849682
0.592500,-1.898369
0.592600,-1.927582
0.592700,-1.907458
0.592800,-1.881816
0.592900,-1.879544
0.593000,-2.027553
0.593100,-2.162580
0.593200,-2.174265
0.593300,-2.171344
0.593400,-1.999639
0.593500,-2.078837
0.593600,-2.099611
0.593700,-2.072021
0.593800,-2.087601
0.593900,-2.096040
0.594000,-2.083706
0.594100,-2.080460
0.594200,-2.084031
0.594300,-2.085654
0.594400,-2.068775
0.594500,-2.079487
0.594600,-2.082732
0.594700,-2.076890
0.594800,-2.106427
0.594900,-2.134341
0.595000,-2.159983
0.595100,-2.152842
0.595200,-2.251516
0.595300,-2.413158
0.595400,-2.827002
0.595500,-2.963977
0.595600,-2.840310
0.595700,-2.474180
0.595800,-2.393034
0.595900,-2.548834
0.596000,-3.021428
0.596100,-3.274604
0.596200,-3.217153
0.596300,-3.001629
0.596400,-2.814019
0.596500,-2.831871
0.596600,-3.082125
0.596700,-3.303492
0.596800,-3.358996
0.596900,-3.259349
0.597000,-3.158403
0.597100,-3.155806
0.597200,-3.195405
0.597300,-3.284342
0.597400,-3.332380
0.597500,-3.311931
0.597600,-3.287587
0.597700,-3.329459
0.597800,-3.413202
0.597900,-3.467732
0.598000,-3.438195
0.598100,-3.474548
0.598200,-3.448257
0.598300,-3.505059
0.598400,-3.469355
0.598500,-3.275578
0.598600,-3.113610
0.598700,-3.160999
0.598800,-3.474224
0.598900,-3.728698
0.599000,-3.764403
0.599100,-3.473899
0.599200,-3.160999
0.599300,-3.135682
0.599400,-3.388858
0.599500,-3.688125
0.599600,-3.787773
0.599700,-3.639437
0.599800,-3.432352
0.599900,-3.330433
0.600000,-3.369383
0.600100,-3.420667
0.600200,-3.462863
0.600300,-3.414175
0.600400,-3.370681
0.600500,-3.282394
0.600600,-3.248637
0.600700,-3.129839
0.600800,-2.989294
0.600900,-2.912043
0.601000,-2.917886
0.601100,-2.926974
0.601200,-2.950020
0.601300,-2.857189
0.601400,-2.680290
0.601500,-2.662114
0.601600,-2.433931
0.601700,-2.428738
0.601800,-2.422896
0.601900,-2.345645
0.602000,-2.236260
0.602100,-2.125902
0.602200,-1.956794
0.602300,-1.978541
0.602400,-1.915572
0.602500,-1.995420
0.602600,-1.936995
0.602700,-1.979840
0.602800,-1.944460
0.602900,-1.927906
0.603000,-1.813329
0.603100,-1.879219
0.603200,-1.815925
0.603300,-1.985358
0.603400,-1.922064
0.603500,-1.944785
0.603600,-1.783142
0.603700,-1.476736
0.603800,-1.124889
0.603900,-1.178445
0.604000,-1.650388
0.604100,-1.739648
0.604200,-1.763667
0.604300,-1.276469
0.604400,-1.091782
0.604500,-0.957405
0.604600,-1.151180
0.604700,-1.363782
0.604800,-1.426426
0.604900,-1.269004
0.605000,-1.019400
0.605100,-0.876584
0.605200,-0.838608
0.605300,-0.861653
0.605400,-0.898331
0.605500,-0.918455
0.605600,-0.907419
0.605700,-0.837634
0.605800,-0.820107
0.605900,-0.724030
0.606000,-0.763629
0.606100,-0.752594
0.606200,-0.956107
0.606300,-0.865224
0.606400,-0.940527
0.606500,-0.915534
0.606600,-0.820431
0.606700,-0.841854
0.606800,-0.824002
0.606900,-1.189806
0.607000,-1.287830
0.607100,-1.154751
0.607200,-0.839257
0.607300,-0.755515
0.607400,-0.840231
0.607500,-1.219992
0.607600,-1.401433
0.607700,-1.343982
0.607800,-1.094703
0.607900,-0.942474
0.608000,-1.004469
0.608100,-1.209605
0.608200,-1.318665
0.608300,-1.246283
0.608400,-1.244985
0.608500,-1.214474
0.608600,-1.286207
0.608700,-1.330350
0.608800,-1.385853
0.608900,-1.351123
0.609000,-1.361510
0.609100,-1.394617
0.609200,-1.433892
0.609300,-1.417987
0.609400,-1.403705
0.609500,-1.392670
0.609600,-1.453691
0.609700,-1.653634
0.609800,-1.751009
0.609900,-1.765940
0.610000,-1.739973
0.610100,-1.621825
0.610200,-1.717252
0.610300,-1.745166
0.610400,-1.755877
0.610500,-1.726016
0.610600,-1.750684
0.610700,-1.758150
0.610800,-1.757825
0.610900,-1.751009
0.611000,-1.775028
0.611100,-1.788336
0.611200,-1.799372
0.611300,-1.789959
0.611400,-1.829233
0.611500,-1.828584
0.611600,-1.871104
0.611700,-1.870455
0.611800,-1.912976
0.611900,-1.965233
0.612000,-2.152518
0.612100,-2.564739
0.612200,-2.602066
0.612300,-2.462819
0.612400,-2.075267
0.612500,-2.092145
0.612600,-2.331688
0.612700,-2.764682
0.612800,-2.986698
0.612900,-2.904253
0.613000,-2.682563
0.613100,-2.555650
0.613200,-2.690353
0.613300,-2.883805
0.613400,-3.042526
0.613500,-3.083099
0.613600,-3.037008
0.613700,-2.996760
0.613800,-3.024349
0.613900,-3.074011
0.614000,-3.110689
0.614100,-3.092837
0.614200,-3.087319
0.614300,-3.129190
0.614400,-3.159052
0.614500,-3.234031
0.614600,-3.308685
0.614700,-3.204818
0.614800,-3.187615
0.614900,-3.258699
0.615000,-3.292132
0.615100,-3.241172
0.615200,-3.049992
0.615300,-2.891270
0.615400,-3.051290
0.615500,-3.383664
0.615600,-3.569652
0.615700,-3.539465
0.615800,-3.219100
0.615900,-2.997734
0.616000,-3.065896
0.616100,-3.368734
0.616200,-3.602759
0.616300,-3.607953
0.616400,-3.429756
0.616500,-3.270709
0.616600,-3.284991
0.616700,-3.395350
0.616800,-3.458644
0.616900,-3.440467
0.617000,-3.369058
0.617100,-3.343416
0.617200,-3.309984
0.617300,-3.268437
0.617400,-3.124321
0.617500,-2.979232
0.617600,-2.877313
0.617700,-2.868874
0.617800,-2.872444
0.617900,-2.861084
0.618000,-2.690677
0.618100,-2.520595
0.618200,-2.466714
0.618300,-2.210618
0.618400,-2.238857
0.618500,-2.200556
0.618600,-2.106752
0.618700,-1.990875
0.618800,-1.843515
0.618900,-1.762045
0.619000,-1.726340
0.619100,-1.734455
0.619200,-1.711734
0.619300,-1.712383
0.619400,-1.696154
0.619500,-1.729586
0.619600,-1.616632
0.619700,-1.642923
0.619800,-1.604947
0.619900,-1.636106
0.620000,-1.651362
0.620100,-1.725691
0.620200,-1.700374
0.620300,-1.557882
0.620400,-1.302760
0.620500,-1.017128
0.620600,-1.233949
0.620700,-1.670188
0.620800,-1.778923
0.620900,-1.579629
0.621000,-1.221615
0.621100,-1.119047
0.621200,-1.064842
0.621300,-1.352746
0.621400,-1.568918
0.621500,-1.607543
0.621600,-1.376440
0.621700,-1.223562
0.621800,-1.170655
0.621900,-1.182989
0.622000,-1.286207
0.622100,-1.271276
0.622200,-1.305682
0.622300,-1.246932
0.622400,-1.172603
0.622500,-1.173252
0.622600,-1.116775
0.622700,-1.151180
0.622800,-1.128135
0.622900,-1.267056
0.623000,-1.219992
0.623100,-1.299190
0.623200,-1.227782
0.623300,-1.132355
0.623400,-1.046016
0.623500,-1.156698
0.623600,-1.489720
0.623700,-1.554636
0.623800,-1.324507
0.623900,-1.034006
0.624000,-0.924297
0.624100,-1.096975
0.624200,-1.455639
0.624300,-1.591314
0.624400,-1.449796
0.624500,-1.118073
0.624600,-0.975906
0.624700,-1.128135
0.624800,-1.336192
0.624900,-1.408574
0.625000,-1.354693
0.625100,-1.275820
0.625200,-1.228106
0.625300,-1.312173
0.625400,-1.389748
0.625500,-1.402732
0.625600,-1.366703
0.625700,-1.389099
0.625800,-1.442655
0.625900,-1.462779
0.626000,-1.462130
0.626100,-1.453691
0.626200,-1.452393
0.626300,-1.498808
0.626400,-1.693558
0.626500,-1.769185
0.626600,-1.780870
0.626700,-1.800994
0.626800,-1.748087
0.626900,-1.825987
0.627000,-1.843190
0.627100,-1.856823
0.627200,-1.852928
0.627300,-1.922713
0.627400,-1.972374
0.627500,-2.019114
0.627600,-2.072670
0.627700,-2.115191
0.627800,-2.161931
0.627900,-2.183029
0.628000,-2.218408
0.628100,-2.239181
0.628200,-2.284299
0.628300,-2.351487
0.628400,-2.350838
0.628500,-2.442371
0.628600,-2.498524
0.628700,-2.811747
0.628800,-3.100627
0.628900,-3.119453
0.629000,-2.884129
0.629100,-2.562142
0.629200,-2.549808
0.629300,-2.888998
0.629400,-3.270709
0.629500,-3.364514
0.629600,-3.253181
0.629700,-3.008445
0.629800,-2.938984
0.629900,-3.066545
0.630000,-3.287587
0.630100,-3.435273
0.630200,-3.439493
0.630300,-3.373602
0.630400,-3.332056
0.630500,-3.320046
0.630600,-3.337898
0.630700,-3.370681
0.630800,-3.377173
0.630900,-3.380743
0.631000,-3.368409
0.631100,-3.340819
0.631200,-3.389507
0.631300,-3.393402
0.631400,-3.401517
0.631500,-3.415149
0.631600,-3.446959
0.631700,-3.470004
0.631800,-3.382042
0.631900,-3.197678
0.632000,-3.113286
0.632100,-3.270709
0.632200,-3.589127
0.632300,-3.792966
