0.000100,-0.646131
0.000200,-0.602312
0.000300,-0.611400
0.000400,-0.500069
0.000500,-0.247869
0.000600,-0.143029
0.000700,-0.216060
0.000800,-0.405616
0.000900,-0.317329
0.001000,-0.241377
0.001100,-0.080060
0.001200,0.082231
0.001300,-0.119984
0.001400,-0.635420
0.001500,-0.772718
0.001600,-0.766226
0.001700,-0.670150
0.001800,-0.985643
0.001900,-0.802904
0.002000,-0.646455
0.002100,-0.541940
0.002200,-0.389062
0.002300,-0.249492
0.002400,-0.072270
0.002500,0.016665
0.002600,0.110145
0.002700,0.218230
0.002800,0.308140
0.002900,0.477571
0.003000,0.639862
0.003100,0.676215
0.003200,0.680435
0.003300,0.718411
0.003400,0.753790
0.003500,0.555471
0.003600,0.330211
0.003700,-0.522465
0.003800,-0.864574
0.003900,-0.904823
0.004000,-0.822379
0.004100,-0.633472
0.004200,-0.568880
0.004300,-0.818484
0.004400,-1.016803
0.004500,-1.070359
0.004600,-1.022970
0.004700,-0.879505
0.004800,-0.858083
0.004900,-0.899954
0.005000,-1.008040
0.005100,-1.066789
0.005200,-1.082044
0.005300,-1.027839
0.005400,-1.013882
0.005500,-0.988240
0.005600,-1.011285
0.005700,-1.031410
0.005800,-1.026216
0.005900,-0.997978
0.006000,-0.995381
0.006100,-1.009338
0.006200,-1.043419
0.006300,-1.026216
0.006400,-1.027190
0.006500,-1.056727
0.006600,-1.095352
0.006700,-1.120994
0.006800,-1.061271
0.006900,-0.935333
0.007000,-0.905796
0.007100,-0.988889
0.007200,-1.119696
0.007300,-1.199868
0.007400,-1.135925
0.007500,-1.014531
0.007600,-0.943123
0.007700,-1.025243
0.007800,-1.154102
0.007900,-1.211228
0.008000,-1.199219
0.008100,-1.134302
0.008200,-1.075228
0.008300,-1.068087
0.008400,-1.081071
0.008500,-1.093405
0.008600,-1.091457
0.008700,-1.091457
0.008800,-1.069386
0.008900,-1.021348
0.009000,-0.966818
0.009100,-0.896708
0.009200,-0.842503
0.009300,-0.818484
0.009400,-0.828870
0.009500,-0.840555
0.009600,-0.855811
0.009700,-0.755839
0.009800,-0.712345
0.009900,-0.714618
0.010000,-0.734417
0.010100,-0.672746
0.010200,-0.653596
0.010300,-0.612374
0.010400,-0.578618
0.010500,-0.517596
0.010600,-0.522140
0.010700,-0.547133
0.010800,-0.554923
0.010900,-0.557195
0.011000,-0.551677
0.011100,-0.595821
0.011200,-0.545186
0.011300,-0.543238
0.011400,-0.506236
0.011500,-0.515649
0.011600,-0.524737
0.011700,-0.535448
0.011800,-0.546809
0.011900,-0.530904
0.012000,-0.410809
0.012100,-0.280327
0.012200,-0.155363
0.012300,-0.357902
0.012400,-0.476699
0.012500,-0.586083
0.012600,-0.461119
0.012700,-0.359525
0.012800,-0.245597
0.012900,-0.270914
0.013000,-0.387114
0.013100,-0.473778
0.013200,-0.435153
0.013300,-0.340375
0.013400,-0.265721
0.013500,-0.268318
0.013600,-0.322523
0.013700,-0.374780
0.013800,-0.382246
0.013900,-0.341998
0.014000,-0.337453
0.014100,-0.339725
0.014200,-0.365043
0.014300,-0.360823
0.014400,-0.370561
0.014500,-0.342322
0.014600,-0.400422
0.014700,-0.400098
0.014800,-0.436775
0.014900,-0.419573
0.015000,-0.375105
0.015100,-0.361472
0.015200,-0.473453
0.015300,-0.615945
0.015400,-0.589653
0.015500,-0.522465
0.015600,-0.364718
0.015700,-0.399449
0.015800,-0.499095
0.015900,-0.618866
0.016000,-0.581214
0.016100,-0.478322
0.016200,-0.359200
0.016300,-0.201454
0.016400,-0.442942
0.016500,-0.517921
0.016600,-0.476699
0.016700,-0.374131
0.016800,0.027701
0.016900,0.028675
0.017000,0.049773
0.017100,0.218555
0.017200,0.478545
0.017300,0.784625
0.017400,0.835585
0.017500,0.648626
0.017600,0.509705
0.017700,0.653494
0.017800,0.841752
0.017900,1.055002
0.018000,0.648301
0.018100,0.303595
0.018200,0.112417
0.018300,0.126698
0.018400,0.144875
0.018500,-0.282924
0.018600,-0.342322
0.018700,-0.022934
0.018800,-0.067726
0.018900,-0.033970
0.019000,-0.140757
0.019100,-0.147573
0.019200,-0.170943
0.019300,-0.250466
0.019400,-0.304021
0.019500,-0.307592
0.019600,-0.481568
0.019700,-0.411783
0.019800,-0.539668
0.019900,-0.527658
0.020000,-0.596470
0.020100,-0.647754
0.020200,-0.670474
0.020300,-0.836336
0.020400,-0.933386
0.020500,-1.084316
0.020600,-1.043419
0.020700,-0.931114
0.020800,-0.810369
0.020900,-0.803228
0.021000,-0.993433
0.021100,-1.141118
0.021200,-1.200192
0.021300,-1.073281
0.021400,-0.963572
0.021500,-0.929166
0.021600,-1.005768
0.021700,-1.097949
0.021800,-1.144689
0.021900,-1.076851
0.022000,-0.995706
0.022100,-0.958703
0.022200,-0.954484
0.022300,-0.993433
0.022400,-0.987916
0.022500,-0.999601
0.022600,-0.968765
0.022700,-0.981424
0.022800,-1.027515
0.022900,-1.046990
0.023000,-1.051209
0.023100,-1.041472
0.023200,-1.061271
0.023300,-1.084641
0.023400,-1.077176
0.023500,-0.980450
0.023600,-0.906770
0.023700,-0.911314
0.023800,-0.975906
0.023900,-1.056402
0.024000,-1.095352
0.024100,-0.960975
0.024200,-0.841204
0.024300,-0.817185
0.024400,-0.912288
0.024500,-1.013558
0.024600,-1.064517
0.024700,-1.010636
0.024800,-0.918780
0.024900,-0.855486
0.025000,-0.860355
0.025100,-0.895410
0.025200,-0.913911
0.025300,-0.890216
0.025400,-0.872040
0.025500,-0.835362
0.025600,-0.794465
0.025700,-0.729873
0.025800,-0.676966
0.025900,-0.634121
0.026000,-0.619840
0.026100,-0.618866
0.026200,-0.634121
0.026300,-0.568231
0.026400,-0.475725
0.026500,-0.453005
0.026600,-0.433530
0.026700,-0.431258
0.026800,-0.379324
0.026900,-0.345568
0.027000,-0.304021
0.027100,-0.248843
0.027200,-0.196260
0.027300,-0.192041
0.027400,-0.198857
0.027500,-0.218007
0.027600,-0.228394
0.027700,-0.255983
0.027800,-0.270590
0.027900,-0.231315
0.028000,-0.245272
0.028100,-0.231315
0.028200,-0.275134
0.028300,-0.264423
0.028400,-0.274160
0.028500,-0.273186
0.028600,-0.231640
0.028700,-0.091420
0.028800,0.071520
0.028900,0.142278
0.029000,-0.036891
0.029100,-0.166399
0.029200,-0.193664
0.029300,-0.094666
0.029400,0.019262
0.029500,0.115663
0.029600,0.031596
0.029700,-0.110895
0.029800,-0.166723
0.029900,-0.107325
0.030000,-0.014170
0.030100,0.034193
0.030200,0.004980
0.030300,-0.055392
0.030400,-0.106676
0.030500,-0.118361
0.030600,-0.114466
0.030700,-0.102132
0.030800,-0.121282
0.030900,-0.152442
0.031000,-0.182303
0.031100,-0.207621
0.031200,-0.241053
0.031300,-0.294284
0.031400,-0.309539
0.031500,-0.326093
0.031600,-0.282599
0.031700,-0.282275
0.031800,-0.288442
0.031900,-0.441969
0.032000,-0.494226
0.032100,-0.475401
0.032200,-0.371859
0.032300,-0.301100
0.032400,-0.353683
0.032500,-0.457224
0.032600,-0.546809
0.032700,-0.487735
0.032800,-0.374780
0.032900,-0.012223
0.033000,0.301323
0.033100,0.065352
0.033200,-0.104079
0.033300,0.199405
0.033400,0.334755
0.033500,0.704129
0.033600,0.754115
0.033700,0.992682
0.033800,1.248777
0.033900,1.457158
0.034000,1.630810
0.034100,1.632108
0.034200,1.511364
0.034300,1.618800
0.034400,1.649635
0.034500,1.858341
0.034600,1.739220
0.034700,1.287727
0.034800,0.897255
0.034900,0.828444
0.035000,0.865121
0.035100,0.683356
0.035200,0.327290
0.035300,0.412330
0.035400,0.541514
0.035500,0.506783
0.035600,0.365915
0.035700,0.354555
0.035800,0.252636
0.035900,0.250689
0.036000,0.140006
0.036100,-0.040786
0.036200,-0.274809
0.036300,-0.275783
0.036400,-0.414704
0.036500,-0.490656
0.036600,-0.697739
0.036700,-0.897682
0.036800,-0.848345
0.036900,-0.880803
0.037000,-0.955133
0.037100,-1.143715
0.037200,-1.235572
0.037300,-1.167734
0.037400,-1.003496
0.037500,-0.940527
0.037600,-1.011935
0.037700,-1.207333
0.037800,-1.305357
0.037900,-1.217720
0.038000,-1.069061
0.038100,-0.908718
0.038200,-0.952861
0.038300,-1.007066
0.038400,-1.061920
0.038500,-1.019400
0.038600,-0.929815
0.038700,-0.872689
0.038800,-0.838932
0.038900,-0.826598
0.039000,-0.814913
0.039100,-0.804851
0.039200,-0.773042
0.039300,-0.779858
0.039400,-0.787324
0.039500,-0.792193
0.039600,-0.797386
0.039700,-0.784727
0.039800,-0.794465
0.039900,-0.828870
0.040000,-0.848021
0.040100,-0.826598
0.040200,-0.723706
0.040300,-0.668851
0.040400,-0.717863
0.040500,-0.806474
0.040600,-0.898006
0.040700,-0.862302
0.040800,-0.723381
0.040900,-0.641262
0.041000,-0.668527
0.041100,-0.785376
0.041200,-0.902226
0.041300,-0.919753
0.041400,-0.827897
0.041500,-0.733119
0.041600,-0.688976
0.041700,-0.698388
0.041800,-0.718188
0.041900,-0.729548
0.042000,-0.701959
0.042100,-0.697739
0.042200,-0.661061
0.042300,-0.639964
0.042400,-0.580565
0.042500,-0.525386
0.042600,-0.518245
0.042700,-0.554923
0.042800,-0.572126
0.042900,-0.602312
0.043000,-0.549405
0.043100,-0.498446
0.043200,-0.499744
0.043300,-0.510131
0.043400,-0.492604
0.043500,-0.448785
0.043600,-0.409511
0.043700,-0.379649
0.043800,-0.323496
0.043900,-0.309864
0.044000,-0.307916
0.044100,-0.333558
0.044200,-0.353358
0.044300,-0.354656
0.044400,-0.406589
0.044500,-0.370885
0.044600,-0.403019
0.044700,-0.396527
0.044800,-0.430608
0.044900,-0.435153
0.045000,-0.470207
0.045100,-0.486761
0.045200,-0.514026
0.045300,-0.458198
0.045400,-0.293310
0.045500,-0.214437
0.045600,-0.218332
0.045700,-0.501367
0.045800,-0.539019
0.045900,-0.534150
0.046000,-0.383869
0.046100,-0.255983
0.046200,-0.260852
0.046300,-0.344919
0.046400,-0.466637
0.046500,-0.458198
0.046600,-0.360174
0.046700,-0.259878
0.046800,-0.253387
0.046900,-0.295907
0.047000,-0.329988
0.047100,-0.354332
0.047200,-0.345243
0.047300,-0.321873
0.047400,-0.336804
0.047500,-0.364069
0.047600,-0.368289
0.047700,-0.381272
0.047800,-0.381272
0.047900,-0.446188
0.048000,-0.466637
0.048100,-0.493902
0.048200,-0.483515
0.048300,-0.435802
0.048400,-0.443267
0.048500,-0.500393
0.048600,-0.700660
0.048700,-0.704555
0.048800,-0.650999
0.048900,-0.501692
0.049000,-0.509482
0.049100,-0.585434
0.049200,-0.753243
0.049300,-0.787973
0.049400,-0.724355
0.049500,-0.580241
0.049600,-0.515649
0.049700,-0.589653
0.049800,-0.673071
0.049900,-0.677940
0.050000,-0.650999
0.050100,-0.604260
0.050200,-0.579591
0.050300,-0.583486
0.050400,-0.394580
0.050500,-0.158933
0.050600,0.069572
0.050700,0.030622
0.050800,0.039386
0.050900,0.051720
0.051000,0.183825
0.051100,0.452903
0.051200,0.778458
0.051300,0.665828
0.051400,0.181877
0.051500,0.046851
0.051600,0.151691
0.051700,0.232187
0.051800,-0.050199
0.051900,-0.219630
0.052000,0.160130
0.052100,0.185448
0.052200,0.306517
0.052300,0.416225
0.052400,0.443490
0.052500,0.384741
0.052600,0.455500
0.052700,0.385715
0.052800,0.508406
0.052900,0.478220
0.053000,0.665504
0.053100,0.630124
0.053200,0.712893
0.053300,0.606105
0.053400,0.440244
0.053500,0.362669
0.053600,0.137734
0.053700,-0.559792
0.053800,-0.877233
0.053900,-0.912613
0.054000,-0.786999
0.054100,-0.612699
0.054200,-0.417950
0.054300,-0.818808
0.054400,-1.006417
0.054500,-1.012584
0.054600,-0.938904
0.054700,-0.784078
0.054800,-0.728575
0.054900,-0.789921
0.055000,-0.878207
0.055100,-0.916508
0.055200,-0.883725
0.055300,-0.820431
0.055400,-0.774016
0.055500,-0.775964
0.055600,-0.787648
0.055700,-0.808746
0.055800,-0.829520
0.055900,-0.822703
0.056000,-0.843477
0.056100,-0.859381
0.056200,-0.890866
0.056300,-0.886646
0.056400,-0.912288
0.056500,-0.914885
0.056600,-0.947343
0.056700,-0.937930
0.056800,-0.901901
0.056900,-0.789596
0.057000,-0.794789
0.057100,-0.846073
0.057200,-0.982722
0.057300,-1.047639
0.057400,-0.972985
0.057500,-0.849644
0.057600,-0.786026
0.057700,-0.860355
0.057800,-0.976231
0.057900,-1.080421
0.058000,-1.062245
0.058100,-0.974283
0.058200,-0.897682
0.058300,-0.854512
0.058400,-0.860679
0.058500,-0.868145
0.058600,-0.833415
0.058700,-0.800632
0.058800,-0.727925
0.058900,-0.655544
0.059000,-0.577969
0.059100,-0.489682
0.059200,-0.429635
0.059300,-0.398150
0.059400,-0.395229
0.059500,-0.395554
0.059600,-0.352060
0.059700,-0.262475
0.059800,-0.209244
0.059900,-0.182303
0.060000,-0.171917
0.060100,-0.083955
0.060200,-0.052795
0.060300,0.013744
0.060400,0.051071
0.060500,0.107873
0.060600,0.132216
0.060700,0.126374
0.060800,0.113391
0.060900,0.087749
0.061000,0.065028
0.061100,0.019911
0.061200,0.017639
0.061300,-0.001836
0.061400,-0.025530
0.061500,-0.056690
0.061600,-0.104728
0.061700,-0.126800
0.061800,-0.214762
0.061900,-0.159907
0.062000,-0.119010
0.062100,0.057238
0.062200,0.104302
0.062300,-0.015793
0.062400,-0.244623
0.062500,-0.316356
0.062600,-0.234561
0.062700,-0.098561
0.062800,0.010498
0.062900,-0.024557
0.063000,-0.141081
0.063100,-0.225148
0.063200,-0.215086
0.063300,-0.125826
0.063400,-0.062857
0.063500,-0.057015
0.063600,-0.106676
0.063700,-0.153091
0.063800,-0.161206
0.063900,-0.161206
0.064000,-0.151793
0.064100,-0.153740
0.064200,-0.162828
0.064300,-0.170618
0.064400,-0.174838
0.064500,-0.258905
0.064600,-0.257606
0.064700,-0.319277
0.064800,-0.317654
0.064900,-0.284222
0.065000,-0.243974
0.065100,-0.251439
0.065200,-0.390685
0.065300,-0.516623
0.065400,-0.507534
0.065500,-0.409186
0.065600,-0.271239
0.065700,-0.323172
0.065800,-0.414379
0.065900,-0.516947
0.066000,-0.497797
0.066100,-0.388737
0.066200,0.058536
0.066300,0.466860
0.066400,0.091968
0.066500,-0.166723
0.066600,0.048150
0.066700,0.164999
0.066800,0.351309
0.066900,0.301972
0.067000,0.369810
0.067100,0.526907
0.067200,0.591499
0.067300,0.622334
0.067400,0.478545
0.067500,0.176684
0.067600,0.131243
0.067700,0.258479
0.067800,0.404540
0.067900,0.339624
0.068000,-0.002161
0.068100,-0.436451
0.068200,-0.599066
0.068300,-0.422169
0.068400,-0.361472
0.068500,-0.497472
0.068600,-0.300451
0.068700,0.116961
0.068800,0.260101
0.068900,0.403891
0.069000,0.523337
0.069100,0.705752
0.069200,0.765800
0.069300,0.867718
0.069400,1.054028
0.069500,1.238715
0.069600,1.337388
0.069700,1.425674
0.069800,1.459755
0.069900,1.516881
0.070000,1.582122
0.070100,1.589263
0.070200,1.546743
0.070300,1.312395
0.070400,0.148770
0.070500,-0.967142
0.070600,-0.705529
0.070700,0.127997
0.070800,0.778783
0.070900,0.502888
0.071000,-0.706503
0.071100,-0.846398
0.071200,-0.868145
0.071300,-0.739610
0.071400,-0.646455
0.071500,-0.631849
0.071600,-0.760708
0.071700,-0.844775
0.071800,-0.894761
0.071900,-0.862951
0.072000,-0.824326
0.072100,-0.803878
0.072200,-0.831467
0.072300,-0.863276
0.072400,-0.867171
0.072500,-0.862302
0.072600,-0.856784
0.072700,-0.886971
0.072800,-0.933061
0.072900,-0.957080
0.073000,-0.918455
0.073100,-0.910016
0.073200,-0.922999
0.073300,-0.960651
0.073400,-0.941176
0.073500,-0.848345
0.073600,-0.741558
0.073700,-0.759085
0.073800,-0.839582
0.073900,-0.955782
0.074000,-0.947667
0.074100,-0.809720
0.074200,-0.673720
0.074300,-0.625357
0.074400,-0.723706
0.074500,-0.830169
0.074600,-0.848021
0.074700,-0.787973
0.074800,-0.672746
0.074900,-0.628603
0.075000,-0.619840
0.075100,-0.652622
0.075200,-0.666904
0.075300,-0.650675
0.075400,-0.647429
0.075500,-0.608155
0.075600,-0.560441
0.075700,-0.514350
0.075800,-0.444241
0.075900,-0.406914
0.076000,-0.398799
0.076100,-0.400098
0.076200,-0.413081
0.076300,-0.349788
0.076400,-0.271563
0.076500,-0.254036
0.076600,-0.230991
0.076700,-0.234236
0.076800,-0.181979
0.076900,-0.153091
0.077000,-0.099535
0.077100,-0.034294
0.077200,0.004980
0.077300,0.009524
0.077400,0.015042
0.077500,-0.018390
0.077600,-0.015144
0.077700,-0.071946
0.077800,-0.039487
0.077900,-0.059936
0.078000,-0.051497
0.078100,-0.061884
0.078200,-0.095640
0.078300,-0.090771
0.078400,-0.156337
0.078500,-0.132642
0.078600,-0.140432
0.078700,-0.038838
0.078800,0.090670
0.078900,0.048150
0.079000,-0.174838
0.079100,-0.318303
0.079200,-0.317005
0.079300,-0.223525
0.079400,-0.098237
0.079500,-0.039487
0.079600,-0.116413
0.079700,-0.258905
0.079800,-0.296556
0.079900,-0.220604
0.080000,-0.122580
0.080100,-0.051497
0.080200,-0.092719
0.080300,-0.128747
0.080400,-0.174838
0.080500,-0.176785
0.080600,-0.157311
0.080700,-0.160232
0.080800,-0.164451
0.080900,-0.195611
0.081000,-0.212165
0.081100,-0.224824
0.081200,-0.313110
0.081300,-0.311487
0.081400,-0.366666
0.081500,-0.353683
0.081600,-0.337129
0.081700,-0.282275
0.081800,-0.345568
0.081900,-0.484489
0.082000,-0.542914
0.082100,-0.494876
0.082200,-0.361472
0.082300,-0.284871
0.082400,-0.334208
0.082500,-0.432556
0.082600,-0.507859
0.082700,-0.459821
0.082800,-0.324795
0.082900,0.159806
0.083000,0.282822
0.083100,-0.004757
0.083200,-0.190742
0.083300,-0.155688
0.083400,-0.061884
0.083500,0.302622
0.083600,0.256531
0.083700,0.472378
0.083800,0.581113
0.083900,0.631098
0.084000,0.501590
0.084100,0.434726
0.084200,0.394478
0.084300,0.464263
0.084400,0.592798
0.084500,0.690497
0.084600,0.546058
0.084700,0.031271
0.084800,-0.277081
0.084900,-0.271563
0.085000,-0.304995
0.085100,-0.483515
0.085200,-0.772069
0.085300,-0.657816
0.085400,-0.688326
0.085500,-0.639639
0.085600,-0.614322
0.085700,-0.666904
0.085800,-0.662684
0.085900,-0.918455
0.086000,-0.821730
0.086100,-0.842827
0.086200,-0.849968
0.086300,-0.852889
0.086400,-0.856460
0.086500,-0.861004
0.086600,-0.852889
0.086700,-0.848670
0.086800,-0.858083
0.086900,-0.839906
0.087000,-0.891839
0.087100,-1.024918
0.087200,-1.089185
0.087300,-0.975257
0.087400,-0.799333
0.087500,-0.763954
0.087600,-0.742532
0.087700,-0.928517
0.087800,-0.952212
0.087900,-0.871715
0.088000,-0.731820
0.088100,-0.624384
0.088200,-0.626656
0.088300,-0.697090
0.088400,-0.741233
0.088500,-0.707152
0.088600,-0.624059
0.088700,-0.562389
0.088800,-0.525711
0.088900,-0.552976
0.089000,-0.521491
0.089100,-0.520842
0.089200,-0.480594
0.089300,-0.507210
0.089400,-0.523763
0.089500,-0.552002
0.089600,-0.531878
0.089700,-0.499420
0.089800,-0.489682
0.089900,-0.529606
0.090000,-0.524737
0.090100,-0.506236
0.090200,-0.411458
0.090300,-0.381272
0.090400,-0.438723
0.090500,-0.548756
0.090600,-0.656517
0.090700,-0.625357
0.090800,-0.511429
0.090900,-0.448460
0.091000,-0.498121
0.091100,-0.619515
0.091200,-0.712021
0.091300,-0.713968
0.091400,-0.672097
0.091500,-0.619840
0.091600,-0.588680
0.091700,-0.592575
0.091800,-0.590627
0.091900,-0.569529
0.092000,-0.551677
0.092100,-0.505262
0.092200,-0.469558
0.092300,-0.402370
0.092400,-0.337453
0.092500,-0.261826
0.092600,-0.231964
0.092700,-0.232614
0.092800,-0.233587
0.092900,-0.229368
0.093000,-0.160232
0.093100,-0.114790
0.093200,-0.102781
0.093300,-0.115764
0.093400,-0.073568
0.093500,-0.034294
0.093600,0.020885
0.093700,0.047500
0.093800,0.098135
0.093900,0.094240
0.094000,0.086126
0.094100,0.043281
0.094200,0.004656
0.094300,-0.033970
0.094400,-0.098237
0.094500,-0.107650
0.094600,-0.120633
0.094700,-0.136862
0.094800,-0.186523
0.094900,-0.235859
0.095000,-0.253062
0.095100,-0.354981
0.095200,-0.333234
0.095300,-0.350761
0.095400,-0.180031
0.095500,-0.191067
0.095600,-0.217358
0.095700,-0.507859
0.095800,-0.578618
0.095900,-0.552002
0.096000,-0.447811
0.096100,-0.346866
0.096200,-0.371535
0.096300,-0.494226
0.096400,-0.601663
0.096500,-0.589653
0.096600,-0.506885
0.096700,-0.430933
0.096800,-0.417950
0.096900,-0.446513
0.097000,-0.496498
0.097100,-0.490981
0.097200,-0.456900
0.097300,-0.443916
0.097400,-0.444890
0.097500,-0.451706
0.097600,-0.445539
0.097700,-0.404966
0.097800,-0.435153
0.097900,-0.467611
0.098000,-0.446188
0.098100,-0.497148
0.098200,-0.445864
0.098300,-0.421196
0.098400,-0.414055
0.098500,-0.520193
0.098600,-0.653596
0.098700,-0.658140
0.098800,-0.590952
0.098900,-0.460794
0.099000,-0.441644
0.099100,-0.542265
0.099200,-0.652298
0.099300,-0.662360
0.099400,-0.562064
0.099500,-0.441969
0.099600,-0.417301
0.099700,-0.473778
0.099800,-0.539019
0.099900,-0.539992
0.100000,-0.533825
0.100100,-0.352709
0.100200,-0.249492
0.100300,-0.239430
0.100400,-0.090122
0.100500,0.164025
0.100600,0.538917
0.100700,0.595070
0.100800,0.547032
0.100900,0.532750
0.101000,0.761905
0.101100,1.106286
0.101200,1.303631
0.101300,1.104014
0.101400,0.748597
0.101500,0.666153
0.101600,0.910563
0.101700,1.040396
0.101800,0.889790
0.101900,0.775537
0.102000,1.155297
0.102100,1.343230
0.102200,1.406848
0.102300,1.468843
0.102400,1.516232
0.102500,1.583745
0.102600,1.600623
0.102700,1.518180
0.102800,1.555831
0.102900,1.606466
0.103000,1.662294
0.103100,1.700595
0.103200,1.732728
0.103300,1.669110
0.103400,1.412366
0.103500,1.346801
0.103600,1.199765
0.103700,0.443490
0.103800,-0.894761
0.103900,-0.712670
0.104000,-0.285845
0.104100,0.575270
0.104200,0.617466
0.104300,-0.735391
0.104400,-0.819457
0.104500,-0.884374
0.104600,-0.811018
0.104700,-0.718512
0.104800,-0.690923
0.104900,-0.774990
0.105000,-0.899629
0.105100,-0.929166
0.105200,-0.957405
0.105300,-0.882426
0.105400,-0.872364
0.105500,-0.857434
0.105600,-0.892813
0.105700,-0.903524
0.105800,-0.879830
0.105900,-0.879830
0.106000,-0.870092
0.106100,-0.849644
0.106200,-0.878531
0.106300,-0.853539
0.106400,-0.835687
0.106500,-0.801281
0.106600,-0.779858
0.106700,-0.748049
0.106800,-0.646455
0.106900,-0.532527
0.107000,-0.489033
0.107100,-0.543563
0.107200,-0.627954
0.107300,-0.666255
0.107400,-0.557844
0.107500,-0.425415
0.107600,-0.372833
0.107700,-0.458847
0.107800,-0.584460
0.107900,-0.657167
0.108000,-0.636718
0.108100,-0.569205
0.108200,-0.520518
0.108300,-0.536097
0.108400,-0.565959
0.108500,-0.578293
0.108600,-0.572126
0.108700,-0.564012
0.108800,-0.545835
0.108900,-0.496823
0.109000,-0.449434
0.109100,-0.382570
0.109200,-0.345568
0.109300,-0.332585
0.109400,-0.338752
0.109500,-0.346866
0.109600,-0.337778
0.109700,-0.237158
0.109800,-0.214762
0.109900,-0.215086
0.110000,-0.224824
0.110100,-0.168671
0.110200,-0.144003
0.110300,-0.099535
0.110400,-0.069998
0.110500,-0.020662
0.110600,-0.021960
0.110700,-0.048900
0.110800,-0.074218
0.110900,-0.121931
0.111000,-0.147249
0.111100,-0.205673
0.111200,-0.192690
0.111300,-0.221902
0.111400,-0.220279
0.111500,-0.266695
0.111600,-0.282599
0.111700,-0.326742
0.111800,-0.346217
0.111900,-0.341998
0.112000,-0.209893
0.112100,-0.110571
0.112200,0.007252
0.112300,-0.169320
0.112400,-0.298828
0.112500,-0.314733
0.112600,-0.220604
0.112700,-0.095640
0.112800,-0.002485
0.112900,-0.049549
0.113000,-0.179382
0.113100,-0.209244
0.113200,-0.154714
0.113300,-0.040786
0.113400,0.018288
0.113500,-0.007678
0.113600,-0.044681
0.113700,-0.075516
0.113800,-0.089148
0.113900,-0.075841
0.114000,-0.066103
0.114100,-0.068375
0.114200,-0.060910
0.114300,-0.054743
0.114400,-0.073893
0.114500,-0.097588
0.114600,-0.147898
0.114700,-0.151793
0.114800,-0.208594
0.114900,-0.120308
0.115000,-0.124203
0.115100,-0.088175
0.115200,-0.264423
0.115300,-0.322198
0.115400,-0.310189
0.115500,-0.203401
0.115600,0.370459
0.115700,0.221476
0.115800,-0.404642
0.115900,-0.329339
0.116000,-0.288117
0.116100,0.380521
0.116200,1.294868
0.116300,1.599650
0.116400,1.235469
0.116500,1.140691
0.116600,1.407822
0.116700,1.601922
0.116800,1.973893
0.116900,2.090418
0.117000,2.325740
0.117100,2.453949
0.117200,2.640584
0.117300,2.707448
0.117400,2.571773
0.117500,2.455572
0.117600,2.595792
0.117700,2.879152
0.117800,3.119668
0.117900,3.179716
0.118000,2.788594
0.118100,2.406236
0.118200,2.405262
0.118300,2.614293
0.118400,2.571124
0.118500,2.408508
0.118600,2.483162
0.118700,2.865195
0.118800,2.907716
0.118900,3.128107
0.119000,3.135248
0.119100,3.138169
0.119200,3.209253
0.119300,3.218017
0.119400,3.204709
0.119500,3.209253
0.119600,3.100193
0.119700,3.149530
0.119800,2.953482
0.119900,2.811964
0.120000,2.637338
0.120100,2.414675
0.120200,2.130990
0.120300,1.543822
0.120400,0.312684
0.120500,-0.997328
0.120600,-0.505587
0.120700,0.034517
0.120800,0.557094
0.120900,-0.104079
0.121000,-0.775314
0.121100,-0.981424
0.121200,-0.975257
0.121300,-0.883725
0.121400,-0.798360
0.121500,-0.841529
0.121600,-0.952212
0.121700,-1.066789
0.121800,-1.075228
0.121900,-1.034980
0.122000,-0.978503
0.122100,-0.958379
0.122200,-0.966818
0.122300,-0.996030
0.122400,-0.984345
0.122500,-0.969739
0.122600,-0.945395
0.122700,-0.963247
0.122800,-0.984345
0.122900,-0.967791
0.123000,-0.935333
0.123100,-0.911639
0.123200,-0.916508
0.123300,-0.907095
0.123400,-0.873663
0.123500,-0.739935
0.123600,-0.628279
0.123700,-0.615295
0.123800,-0.685405
0.123900,-0.761033
0.124000,-0.717214
0.124100,-0.570828
0.124200,-0.444565
0.124300,-0.412107
0.124400,-0.501367
0.124500,-0.598417
0.124600,-0.596145
0.124700,-0.485138
0.124800,-0.370561
0.124900,-0.332585
0.125000,-0.329988
0.125100,-0.356604
0.125200,-0.360174
0.125300,-0.337129
0.125400,-0.310189
0.125500,-0.247544
0.125600,-0.213788
0.125700,-0.150819
0.125800,-0.093693
0.125900,-0.053444
0.126000,-0.062857
0.126100,-0.065129
0.126200,-0.076814
0.126300,-0.027478
0.126400,0.036465
0.126500,0.036465
0.126600,0.040684
0.126700,0.062107
0.126800,0.118259
0.126900,0.155586
0.127000,0.208493
0.127100,0.259128
0.127200,0.288989
0.127300,0.286068
0.127400,0.239977
0.127500,0.218230
0.127600,0.176359
0.127700,0.117610
0.127800,0.066975
0.127900,0.040360
0.128000,-0.009301
0.128100,-0.056041
0.128200,-0.125502
0.128300,-0.145626
0.128400,-0.257931
0.128500,-0.237482
0.128600,-0.272862
0.128700,-0.116738
0.128800,-0.028452
0.128900,-0.031697
0.129000,-0.299153
0.129100,-0.440670
0.129200,-0.428661
0.129300,-0.372184
0.129400,-0.222227
0.129500,-0.197559
0.129600,-0.276432
0.129700,-0.394255
0.129800,-0.425415
0.129900,-0.335831
0.130000,-0.235535
0.130100,-0.177110
0.130200,-0.221902
0.130300,-0.251764
0.130400,-0.298179
0.130500,-0.305644
0.130600,-0.285520
0.130700,-0.269616
0.130800,-0.288766
0.130900,-0.322523
0.131000,-0.308241
0.131100,-0.349788
0.131200,-0.370236
0.131300,-0.429959
0.131400,-0.453005
0.131500,-0.455601
0.131600,-0.416976
0.131700,-0.423468
0.131800,-0.451706
0.131900,-0.627954
0.132000,-0.668527
0.132100,-0.604909
0.132200,-0.491630
0.132300,-0.407888
0.132400,-0.480594
0.132500,-0.588355
0.132600,-0.655868
0.132700,-0.603286
0.132800,-0.483191
0.132900,-0.400098
0.133000,-0.423143
0.133100,-0.497472
0.133200,-0.523114
0.133300,-0.529281
0.133400,-0.490007
0.133500,-0.174189
0.133600,-0.090447
0.133700,0.139357
0.133800,0.219853
0.133900,0.368512
0.134000,0.431481
0.134100,0.323719
0.134200,0.227968
0.134300,0.337027
0.134400,0.513924
0.134500,0.711270
0.134600,0.662258
0.134700,0.245820
0.134800,0.108522
0.134900,0.040360
0.135000,0.129944
0.135100,0.066326
0.135200,-0.070972
0.135300,0.319175
0.135400,0.433753
0.135500,0.560339
0.135600,0.616817
0.135700,0.877780
0.135800,0.953732
0.135900,1.025465
0.136000,1.285455
0.136100,1.510065
0.136200,1.716824
0.136300,1.885282
0.136400,1.956690
0.136500,2.180651
0.136600,2.167993
0.136700,2.252709
0.136800,2.250761
0.136900,2.235830
0.137000,1.643144
0.137100,0.506459
0.137200,0.082231
0.137300,0.619089
0.137400,1.683716
0.137500,1.956041
0.137600,1.005341
0.137700,-0.502016
0.137800,-0.666904
0.137900,-0.623410
0.138000,-0.515324
0.138100,-0.290714
0.138200,-0.497148
0.138300,-0.622112
0.138400,-0.714293
0.138500,-0.725329
0.138600,-0.692871
0.138700,-0.666255
0.138800,-0.672746
0.138900,-0.711696
0.139000,-0.739286
0.139100,-0.758436
0.139200,-0.772718
0.139300,-0.809071
0.139400,-0.829520
0.139500,-0.871066
0.139600,-0.881777
0.139700,-0.909691
0.139800,-0.902550
0.139900,-0.949615
0.140000,-0.969739
0.140100,-0.914235
0.140200,-0.785052
0.140300,-0.741558
0.140400,-0.807123
0.140500,-0.918130
0.140600,-0.975906
0.140700,-0.926894
0.140800,-0.798684
0.140900,-0.725653
0.141000,-0.772718
0.141100,-0.884374
0.141200,-0.947343
0.141300,-0.935009
0.141400,-0.877233
0.141500,-0.825949
0.141600,-0.785701
0.141700,-0.785701
0.141800,-0.796088
0.141900,-0.796088
0.142000,-0.787648
0.142100,-0.761357
0.142200,-0.718188
0.142300,-0.639964
0.142400,-0.582188
0.142500,-0.531878
0.142600,-0.526360
0.142700,-0.544861
0.142800,-0.542914
0.142900,-0.529930
0.143000,-0.445215
0.143100,-0.416002
0.143200,-0.388413
0.143300,-0.388088
0.143400,-0.337778
0.143500,-0.289091
0.143600,-0.234236
0.143700,-0.193339
0.143800,-0.131993
0.143900,-0.099860
0.144000,-0.049225
0.144100,-0.070323
0.144200,-0.056366
0.144300,-0.083631
0.144400,-0.112194
0.144500,-0.104404
0.144600,-0.090122
0.144700,-0.072270
0.144800,-0.084280
0.144900,-0.090771
0.145000,-0.153416
0.145100,-0.135239
0.145200,-0.161530
0.145300,-0.028452
0.145400,0.054641
0.145500,0.236407
0.145600,0.095863
0.145700,-0.066103
0.145800,-0.126800
0.145900,-0.070647
0.146000,0.060159
0.146100,0.196808
0.146200,0.213362
0.146300,0.138708
0.146400,0.068923
0.146500,0.100083
0.146600,0.182851
0.146700,0.281524
0.146800,0.298077
0.146900,0.274058
0.147000,0.231863
0.147100,0.215958
0.147200,0.192588
0.147300,0.191615
0.147400,0.181228
0.147500,0.167920
0.147600,0.156560
0.147700,0.119558
0.147800,0.040360
0.147900,0.006928
0.148000,-0.003783
0.148100,-0.022934
0.148200,0.012770
0.148300,0.053992
0.148400,0.096837
0.148500,-0.042409
0.148600,-0.186847
0.148700,-0.191392
0.148800,-0.021960
0.148900,0.942047
0.149000,1.136147
0.149100,0.562287
0.149200,-0.241702
0.149300,-0.226771
0.149400,0.603184
0.149500,1.617502
0.149600,1.957339
0.149700,1.687936
0.149800,1.449368
0.149900,1.694103
0.150000,1.839840
0.150100,2.049845
0.150200,1.829129
0.150300,1.880088
0.150400,2.030370
0.150500,2.259200
0.150600,2.420193
0.150700,2.385138
0.150800,2.155983
0.150900,2.055363
0.151000,2.193635
0.151100,2.442265
0.151200,2.610723
0.151300,2.309186
0.151400,1.783038
0.151500,1.730132
0.151600,1.680471
0.151700,1.796022
0.151800,1.597378
0.151900,1.525970
0.152000,1.868079
0.152100,1.899239
0.152200,2.041406
0.152300,2.203372
0.152400,2.208241
0.152500,2.342618
0.152600,2.426035
0.152700,2.531200
0.152800,2.644155
0.152900,2.660708
0.153000,2.700957
0.153100,2.831439
0.153200,2.793787
0.153300,2.856756
0.153400,2.733739
0.153500,2.798007
0.153600,2.331257
0.153700,1.524347
0.153800,0.283796
0.153900,0.269514
0.154000,1.049484
0.154100,2.009597
0.154200,1.988174
0.154300,0.905694
0.154400,-0.184251
0.154500,-0.534150
0.154600,-0.144652
0.154700,0.560989
0.154800,0.606430
0.154900,-0.020013
0.155000,-0.458522
0.155100,-0.502990
0.155200,-0.472155
0.155300,-0.421520
0.155400,-0.406914
0.155500,-0.414055
0.155600,-0.437749
0.155700,-0.475076
0.155800,-0.473453
0.155900,-0.497148
0.156000,-0.497472
0.156100,-0.545835
0.156200,-0.597768
0.156300,-0.598742
0.156400,-0.626007
0.156500,-0.632498
0.156600,-0.706828
0.156700,-0.752918
0.156800,-0.705854
0.156900,-0.614646
0.157000,-0.629577
0.157100,-0.748699
0.157200,-0.875286
0.157300,-0.911314
0.157400,-0.827897
0.157500,-0.683133
0.157600,-0.659114
0.157700,-0.760059
0.157800,-0.910665
0.157900,-0.970713
0.158000,-0.928517
0.158100,-0.844775
0.158200,-0.807448
0.158300,-0.845424
0.158400,-0.880479
0.158500,-0.886971
0.158600,-0.857758
0.158700,-0.841854
0.158800,-0.827897
0.158900,-0.792193
0.159000,-0.730522
0.159100,-0.686054
0.159200,-0.641587
0.159300,-0.633472
0.159400,-0.671773
0.159500,-0.687677
0.159600,-0.675992
0.159700,-0.613673
0.159800,-0.594522
0.159900,-0.613348
0.160000,-0.620164
0.160100,-0.559143
0.160200,-0.523114
0.160300,-0.450083
0.160400,-0.372508
0.160500,-0.294933
0.160600,-0.255010
0.160700,-0.242676
0.160800,-0.218007
0.160900,-0.200155
0.161000,-0.167373
0.161100,-0.176461
0.161200,-0.093368
0.161300,-0.072270
0.161400,-0.027802
0.161500,-0.013196
0.161600,0.006928
0.161700,0.013419
0.161800,-0.015468
0.161900,0.081906
0.162000,0.153314
0.162100,0.376626
0.162200,0.420120
0.162300,0.308464
0.162400,0.159481
0.162500,0.168569
0.162600,0.220502
0.162700,0.357800
0.162800,0.477571
0.162900,0.441543
0.163000,0.334106
0.163100,0.248416
0.163200,0.291586
0.163300,0.388311
0.163400,0.460368
0.163500,0.448683
0.163600,0.393180
0.163700,0.323719
0.163800,0.276006
0.163900,0.249066
0.164000,0.246794
0.164100,0.191939
0.164200,0.168569
0.164300,0.125075
0.164400,0.067625
0.164500,-0.018390
0.164600,-0.011573
0.164700,-0.072919
0.164800,-0.090771
0.164900,-0.083306
0.165000,-0.066428
0.165100,-0.099860
0.165200,-0.263124
0.165300,-0.366666
0.165400,-0.350761
0.165500,-0.214437
0.165600,-0.006056
0.165700,-0.012872
0.165800,-0.279029
0.165900,-0.411133
0.166000,-0.329988
0.166100,0.247118
0.166200,1.055326
0.166300,1.351020
0.166400,0.953408
0.166500,0.979050
0.166600,1.395488
0.166700,1.630810
0.166800,2.084250
0.166900,2.149167
0.167000,2.492250
0.167100,2.761329
0.167200,3.048260
0.167300,3.206656
0.167400,3.209253
0.167500,3.159592
0.167600,3.184260
0.167700,3.348175
0.167800,3.558504
0.167900,3.639975
0.168000,3.239764
0.168100,2.964842
0.168200,2.888565
0.168300,3.003143
0.168400,3.060594
0.168500,2.717835
0.168600,2.750942
0.168700,3.039496
0.168800,3.096947
0.168900,3.161864
0.169000,3.260537
0.169100,3.292995
0.169200,3.320910
0.169300,3.431268
0.169400,3.557206
0.169500,3.699698
0.169600,3.763966
0.169700,3.836672
0.169800,3.923012
0.169900,3.949952
0.170000,4.087900
0.170100,3.949303
0.170200,4.104454
0.170300,3.753579
0.170400,2.826245
0.170500,2.003754
0.170600,2.250761
0.170700,3.080718
0.170800,3.780519
0.170900,3.551364
0.171000,2.325090
0.171100,1.230925
0.171200,1.213722
0.171300,1.839516
0.171400,2.345214
0.171500,2.283868
0.171600,1.559402
0.171700,0.716463
0.171800,0.392206
0.171900,0.451605
0.172000,0.578841
0.172100,0.579490
0.172200,0.413953
0.172300,0.037438
0.172400,-0.180356
0.172500,-0.170294
0.172600,-0.148871
0.172700,-0.155363
0.172800,-0.184900
0.172900,-0.229692
0.173000,-0.207621
0.173100,-0.208270
0.173200,-0.207945
0.173300,-0.224499
0.173400,-0.211840
0.173500,-0.142704
0.173600,-0.057015
0.173700,-0.119659
0.173800,-0.266045
0.173900,-0.379324
0.174000,-0.369262
0.174100,-0.247869
0.174200,-0.155363
0.174300,-0.198532
0.174400,-0.338103
0.174500,-0.486436
0.174600,-0.529281
0.174700,-0.477348
0.174800,-0.414379
0.174900,-0.431582
0.175000,-0.481243
0.175100,-0.530904
0.175200,-0.534799
0.175300,-0.538045
0.175400,-0.549081
0.175500,-0.529930
0.175600,-0.524413
0.175700,-0.474752
0.175800,-0.408861
0.175900,-0.393606
0.176000,-0.397501
0.176100,-0.406589
0.176200,-0.413081
0.176300,-0.362771
0.176400,-0.309215
0.176500,-0.311811
0.176600,-0.304995
0.176700,-0.281950
0.176800,-0.229043
0.176900,-0.193664
0.177000,-0.144003
0.177100,-0.089148
0.177200,-0.040461
0.177300,-0.019039
0.177400,-0.027478
0.177500,-0.021960
0.177600,-0.015144
0.177700,-0.056690
0.177800,-0.002810
0.177900,-0.027153
0.178000,0.025429
0.178100,-0.025206
0.178200,0.013419
0.178300,-0.045330
0.178400,-0.020337
0.178500,-0.054094
0.178600,0.011147
0.178700,0.122154
0.178800,0.242249
0.178900,0.228942
0.179000,0.009524
0.179100,-0.063182
0.179200,-0.085578
0.179300,0.054641
0.179400,0.191615
0.179500,0.244846
0.179600,0.160455
0.179700,0.059510
0.179800,0.067300
0.179900,0.157534
0.180000,0.261400
0.180100,0.284445
0.180200,0.254584
0.180300,0.218230
0.180400,0.219853
0.180500,0.225696
0.180600,0.254908
0.180700,0.269839
0.180800,0.285094
0.180900,0.288989
0.181000,0.342870
0.181100,0.338001
0.181200,0.393829
0.181300,0.692120
0.181400,0.723279
0.181500,0.983594
0.181600,1.206906
0.181700,1.452939
0.181800,1.154648
0.181900,0.081906
0.182000,-0.040461
0.182100,0.558392
0.182200,1.519478
0.182300,2.064126
0.182400,1.640222
0.182500,0.682382
0.182600,0.304245
0.182700,0.941723
0.182800,2.179678
0.182900,2.871038
0.183000,2.689921
0.183100,2.230312
0.183200,2.243620
0.183300,2.580537
0.183400,2.985940
0.183500,3.276442
0.183600,3.195296
0.183700,3.395239
0.183800,3.566294
0.183900,3.764290
0.184000,3.883737
0.184100,3.774028
0.184200,3.861016
0.184300,4.094067
0.184400,4.412160
0.184500,4.579970
0.184600,4.382947
0.184700,4.018439
0.184800,3.974296
0.184900,4.128473
0.185000,4.212216
0.185100,4.035967
0.185200,3.832128
0.185300,4.108349
0.185400,4.049599
0.185500,4.072969
0.185600,3.930152
0.185700,3.888930
0.185800,3.681197
0.185900,3.513712
0.186000,3.280986
0.186100,3.182313
0.186200,2.865195
0.186300,2.855458
0.186400,2.571124
0.186500,2.513997
0.186600,2.387410
0.186700,2.121902
0.186800,2.092040
0.186900,1.691831
0.187000,0.969312
0.187100,-0.535448
0.187200,-0.726627
0.187300,-0.553625
0.187400,0.255557
0.187500,0.546382
0.187600,-0.515000
0.187700,-0.768498
0.187800,-0.826274
0.187900,-0.756489
0.188000,-0.578942
0.188100,-0.413406
0.188200,-0.515649
0.188300,-0.580241
0.188400,-0.638665
0.188500,-0.584460
0.188600,-0.516947
0.188700,-0.397176
0.188800,-0.361797
0.188900,-0.320900
0.189000,-0.302074
0.189100,-0.272212
0.189200,-0.237807
0.189300,-0.194962
0.189400,-0.179382
0.189500,-0.186523
0.189600,-0.205673
0.189700,-0.186523
0.189800,-0.170618
0.189900,-0.195287
0.190000,-0.202103
0.190100,-0.159258
0.190200,-0.076814
0.190300,-0.035268
0.190400,-0.137511
0.190500,-0.282924
0.190600,-0.340375
0.190700,-0.268642
0.190800,-0.128423
0.190900,-0.053120
0.191000,-0.114790
0.191100,-0.251115
0.191200,-0.345243
0.191300,-0.306618
0.191400,-0.211516
0.191500,-0.137511
0.191600,-0.154065
0.191700,-0.174513
0.191800,-0.181979
0.191900,-0.171268
0.192000,-0.144976
0.192100,-0.114466
0.192200,-0.055716
0.192300,0.005305
0.192400,0.068274
0.192500,0.129944
0.192600,0.151042
0.192700,0.136436
0.192800,0.138383
0.192900,0.148121
0.193000,0.233161
0.193100,0.264321
0.193200,0.263023
0.193300,0.258803
0.193400,0.321447
0.193500,0.349361
0.193600,0.374679
0.193700,0.408111
0.193800,0.482115
0.193900,0.505161
0.194000,0.514573
0.194100,0.472378
0.194200,0.461991
0.194300,0.436674
0.194400,0.439270
0.194500,0.430507
0.194600,0.447385
0.194700,0.438621
0.194800,0.441218
0.194900,0.423691
0.195000,0.395777
0.195100,0.389285
0.195200,0.395777
0.195300,0.442516
0.195400,0.595394
0.195500,0.697313
0.195600,0.612922
0.195700,0.386039
0.195800,0.386039
0.195900,0.420769
0.196000,0.550277
0.196100,0.660960
0.196200,0.667451
0.196300,0.552225
0.196400,0.462640
0.196500,0.500292
0.196600,0.576893
0.196700,0.780406
0.196800,1.031632
0.196900,1.139068
0.197000,0.981646
0.197100,0.923871
0.197200,1.092653
0.197300,1.418533
0.197400,1.699296
0.197500,1.950523
0.197600,2.075487
0.197700,2.161501
0.197800,2.060881
0.197900,2.144623
0.198000,2.233558
0.198100,2.345864
0.198200,2.415649
0.198300,2.920374
0.198400,2.973606
0.198500,2.472126
0.198600,1.520776
0.198700,1.636327
0.198800,2.417596
0.198900,3.338112
0.199000,3.465674
0.199100,2.822675
0.199200,2.042379
0.199300,2.025501
0.199400,2.898627
0.199500,3.853226
0.199600,4.097638
0.199700,3.772729
0.199800,3.415688
0.199900,3.583822
0.200000,3.745789
0.200100,4.033046
0.200200,4.072645
0.200300,4.266097
0.200400,4.431959
0.200500,4.650080
0.200600,4.700716
0.200700,4.623464
0.200800,4.463444
0.200900,4.456303
0.201000,4.688381
0.201100,4.827628
0.201200,4.939286
0.201300,4.435530
0.201400,3.994745
0.201500,3.849007
0.201600,3.708462
0.201700,3.698724
0.201800,3.345253
0.201900,3.294618
0.202000,3.604271
0.202100,3.588041
0.202200,3.521826
0.202300,3.541301
0.202400,3.588691
0.202500,3.499430
0.202600,3.464051
0.202700,3.444576
0.202800,3.489044
0.202900,3.414714
0.203000,3.445225
0.203100,3.482227
0.203200,3.478008
0.203300,3.563698
0.203400,3.426724
0.203500,3.377712
0.203600,3.362781
0.203700,2.365988
0.203800,1.514609
0.203900,1.515258
0.204000,2.371181
0.204100,3.207630
0.204200,3.234246
0.204300,2.121253
0.204400,1.105961
0.204500,0.810916
0.204600,1.323431
0.204700,2.140728
0.204800,2.180002
0.204900,1.628862
0.205000,0.828119
0.205100,0.407786
0.205200,0.386364
0.205300,0.620712
0.205400,0.790792
0.205500,0.813513
0.205600,0.661933
0.205700,0.384741
0.205800,0.480492
0.205900,0.409409
0.206000,0.481466
0.206100,0.215309
0.206200,0.009849
0.206300,0.011472
0.206400,0.049123
0.206500,0.059835
0.206600,0.038412
0.206700,0.049448
0.206800,0.164025
0.206900,0.265619
0.207000,0.261724
0.207100,0.146173
0.207200,0.036140
0.207300,0.025429
0.207400,0.157858
0.207500,0.318851
0.207600,0.322746
0.207700,0.211739
0.207800,0.079634
0.207900,0.027701
0.208000,0.084503
0.208100,0.165648
0.208200,0.202001
0.208300,0.172789
0.208400,0.117935
0.208500,0.099758
0.208600,0.111443
0.208700,0.118908
0.208800,0.131243
0.208900,0.169543
0.209000,0.236082
0.209100,0.273734
0.209200,0.303920
0.209300,0.303920
0.209400,0.298402
0.209500,0.262698
0.209600,0.299700
0.209700,0.382469
0.209800,0.412006
0.209900,0.389609
0.210000,0.387662
0.210100,0.427586
0.210200,0.457772
0.210300,0.481791
0.210400,0.531127
0.210500,0.593122
0.210600,0.600588
0.210700,0.581113
0.210800,0.581437
0.210900,0.582411
0.211000,0.589552
0.211100,0.583385
0.211200,0.598315
0.211300,0.610650
0.211400,0.607404
0.211500,0.631423
0.211600,0.585981
0.211700,0.621036
0.211800,0.543786
0.211900,0.630449
0.212000,0.714191
0.212100,0.907317
0.212200,0.890439
0.212300,0.727823
0.212400,0.556769
0.212500,0.538268
0.212600,0.638564
0.212700,0.788520
0.212800,1.005341
0.212900,0.575595
0.213000,0.633370
0.213100,0.555795
0.213200,0.612922
0.213300,0.904720
0.213400,1.401655
0.213500,1.530514
0.213600,1.237741
0.213700,1.073178
0.213800,1.044940
0.213900,1.386724
0.214000,1.640222
0.214100,1.588939
0.214200,1.622695
0.214300,1.497407
0.214400,1.576929
0.214500,1.366600
0.214600,1.299736
0.214700,1.168930
0.214800,0.986840
0.214900,1.562972
0.215000,1.576929
0.215100,1.770704
0.215200,0.329562
0.215300,0.082880
0.215400,0.370459
0.215500,1.374715
0.215600,1.856719
0.215700,1.918714
0.215800,0.913160
0.215900,0.538268
0.216000,0.814811
0.216100,1.896642
0.216200,2.815210
0.216300,2.944718
0.216400,2.488680
0.216500,2.215706
0.216600,2.281596
0.216700,2.462389
0.216800,2.775611
0.216900,2.690570
0.217000,2.756136
0.217100,2.714264
0.217200,2.835009
0.217300,2.868117
0.217400,2.628250
0.217500,2.376050
0.217600,2.185195
0.217700,2.318599
0.217800,2.446160
0.217900,2.409806
0.218000,1.844709
0.218100,1.578877
0.218200,1.450018
0.218300,1.483125
0.218400,1.438008
0.218500,1.199441
0.218600,1.329598
0.218700,1.355564
0.218800,1.382505
0.218900,1.493836
0.219000,1.354266
0.219100,1.345827
0.219200,1.367898
0.219300,1.423726
0.219400,1.433464
0.219500,1.381206
0.219600,1.361407
0.219700,1.409120
0.219800,1.566867
0.219900,1.559726
0.220000,1.713903
0.220100,1.726561
0.220200,1.841788
0.220300,1.403278
0.220400,0.325991
0.220500,-0.410160
0.220600,-0.169969
0.220700,0.969312
0.220800,1.404252
0.220900,0.866744
0.221000,-0.327391
0.221100,-0.695467
0.221200,-0.638016
0.221300,-0.509482
0.221400,0.010498
0.221500,-0.199831
0.221600,-0.515324
0.221700,-0.608479
0.221800,-0.624708
0.221900,-0.539992
0.222000,-0.482866
0.222100,-0.451382
0.222200,-0.447487
0.222300,-0.458522
0.222400,-0.453329
0.222500,-0.443267
0.222600,-0.430933
0.222700,-0.433854
0.222800,-0.476699
0.222900,-0.469558
0.223000,-0.446837
0.223100,-0.421196
0.223200,-0.421520
0.223300,-0.425740
0.223400,-0.380947
0.223500,-0.253062
0.223600,-0.148222
0.223700,-0.189769
0.223800,-0.321549
0.223900,-0.387114
0.224000,-0.362446
0.224100,-0.243325
0.224200,-0.141081
0.224300,-0.194962
0.224400,-0.293310
0.224500,-0.419248
0.224600,-0.435153
0.224700,-0.355955
0.224800,-0.261501
0.224900,-0.234886
0.225000,-0.243000
0.225100,-0.280652
0.225200,-0.244623
0.225300,-0.217034
0.225400,-0.187497
0.225500,-0.134590
0.225600,-0.100833
0.225700,-0.039487
0.225800,0.028675
0.225900,0.073467
0.226000,0.061133
0.226100,0.057887
0.226200,0.046202
0.226300,0.090345
0.226400,0.150393
0.226500,0.165973
0.226600,0.157858
0.226700,0.177009
0.226800,0.207195
0.226900,0.253285
0.227000,0.287691
0.227100,0.331834
0.227200,0.347089
0.227300,0.364941
0.227400,0.317877
0.227500,0.291910
0.227600,0.249066
0.227700,0.219204
0.227800,0.202326
0.227900,0.203949
0.228000,0.189667
0.228100,0.169219
0.228200,0.104951
0.228300,0.071195
0.228400,-0.005082
0.228500,-0.010924
0.228600,-0.019039
0.228700,0.153314
0.228800,0.209791
0.228900,0.171491
0.229000,-0.040786
0.229100,-0.158284
0.229200,-0.151468
0.229300,-0.036566
0.229400,0.103653
0.229500,0.154937
0.229600,0.082231
0.229700,0.004656
0.229800,0.028999
0.229900,0.132216
0.230000,0.263672
0.230100,0.312359
0.230200,0.350984
0.230300,0.343519
0.230400,0.330860
0.230500,0.353906
0.230600,0.426612
0.230700,0.851814
0.230800,1.117321
0.230900,1.366925
0.231000,1.512013
0.231100,1.587965
0.231200,1.419831
0.231300,1.883983
0.231400,1.782065
0.231500,2.195258
0.231600,2.349109
0.231700,2.959000
0.231800,2.574369
0.231900,1.855420
0.232000,1.877167
0.232100,2.665253
0.232200,3.611087
0.232300,4.137237
0.232400,3.771756
0.232500,3.141740
0.232600,3.010608
0.232700,3.718524
0.232800,4.848402
0.232900,5.450183
0.233000,5.592028
0.233100,5.356703
0.233200,5.556648
0.233300,6.018210
0.233400,6.411611
0.233500,6.789432
0.233600,6.903038
0.233700,7.249700
0.233800,7.532418
0.233900,7.832341
0.234000,7.899531
0.234100,7.692766
0.234200,7.665501
0.234300,7.694714
0.234400,7.767422
0.234500,7.841429
0.234600,7.535989
0.234700,7.057867
0.234800,6.799494
0.234900,6.568062
0.235000,6.566439
0.235100,6.144799
0.235200,5.889998
0.235300,5.953293
0.235400,5.935116
0.235500,5.866953
0.235600,5.804307
0.235700,5.604037
0.235800,5.494327
0.235900,5.328788
0.236000,5.221026
0.236100,5.191164
0.236200,5.343070
0.236300,5.398574
0.236400,5.537822
0.236500,5.679017
0.236600,5.715046
0.236700,5.763734
0.236800,5.953293
0.236900,6.051967
0.237000,5.569956
0.237100,4.515053
0.237200,4.162555
0.237300,4.967200
0.237400,5.961407
0.237500,6.382398
0.237600,5.295031
0.237700,4.014544
0.237800,3.460156
0.237900,3.806162
0.238000,4.552380
0.238100,5.016212
0.238200,4.577049
0.238300,3.922362
0.238400,3.446848
0.238500,3.365702
0.238600,3.491640
0.238700,3.565645
0.238800,3.574734
0.238900,3.327077
0.239000,3.021969
0.239100,2.711019
0.239200,2.455248
0.239300,2.117358
0.239400,1.756423
0.239500,1.265331
0.239600,0.664855
0.239700,0.177658
0.239800,0.109496
0.239900,0.053992
0.240000,0.025429
0.240100,0.068274
0.240200,0.132865
0.240300,0.136111
0.240400,0.030622
0.240500,-0.103755
0.240600,-0.161530
0.240700,-0.104404
0.240800,-0.007029
0.240900,0.035816
0.241000,-0.039487
0.241100,-0.196585
0.241200,-0.272862
0.241300,-0.255983
0.241400,-0.171592
0.241500,-0.109922
0.241600,-0.104079
0.241700,-0.108299
0.241800,-0.114141
0.241900,-0.072595
0.242000,-0.044356
0.242100,-0.032671
0.242200,0.031596
0.242300,0.093591
0.242400,0.171491
0.242500,0.216607
0.242600,0.220827
0.242700,0.221801
0.242800,0.205896
0.242900,0.227643
0.243000,0.334106
0.243100,0.365590
0.243200,0.386039
0.243300,0.377275
0.243400,0.448034
0.243500,0.492177
0.243600,0.524635
0.243700,0.574946
0.243800,0.609351
0.243900,0.643108
0.244000,0.639537
0.244100,0.633370
0.244200,0.616492
0.244300,0.592148
0.244400,0.556444
0.244500,0.596693
0.244600,0.574621
0.244700,0.603184
0.244800,0.576893
0.244900,0.593447
0.245000,0.541189
0.245100,0.537619
0.245200,0.527232
0.245300,0.616817
0.245400,0.746325
0.245500,0.846620
0.245600,0.719709
0.245700,0.553523
0.245800,0.529180
0.245900,0.554172
0.246000,0.647976
0.246100,0.749246
0.246200,0.723928
0.246300,0.616167
0.246400,0.536645
0.246500,0.568129
0.246600,0.654143
0.246700,1.152376
0.246800,1.361731
0.246900,1.291622
0.247000,1.276366
0.247100,1.339660
0.247200,1.555182
0.247300,1.971621
0.247400,2.271859
0.247500,2.512050
0.247600,2.766198
0.247700,2.845071
0.247800,2.643181
0.247900,2.795735
0.248000,2.932709
0.248100,2.934981
0.248200,3.280661
0.248300,3.462428
0.248400,3.796099
0.248500,2.865195
0.248600,2.362742
0.248700,2.484785
0.248800,3.354017
0.248900,4.401773
0.249000,4.479673
0.249100,3.921064
0.249200,3.193998
0.249300,3.437759
0.249400,4.429038
0.249500,5.380073
0.249600,5.631627
0.249700,5.323270
0.249800,5.127220
0.249900,5.477124
0.250000,5.676420
0.250100,6.022105
0.250200,6.070144
0.250300,6.074039
0.250400,6.217182
0.250500,6.378178
0.250600,6.475230
0.250700,6.329165
0.250800,6.060407
0.250900,5.866953
0.251000,5.862408
0.251100,5.825081
0.251200,5.733547
0.251300,5.181426
0.251400,4.686434
0.251500,4.517325
0.251600,4.588085
0.251700,4.508237
0.251800,4.171318
0.251900,4.093743
0.252000,4.363148
0.252100,4.410861
0.252200,4.408265
0.252300,4.374833
0.252400,4.338479
0.252500,4.451435
0.252600,4.386842
0.252700,4.480323
0.252800,4.419301
0.252900,4.402747
0.253000,4.434232
0.253100,4.344322
0.253200,4.216760
0.253300,4.031423
0.253400,3.733455
0.253500,3.536757
0.253600,3.061892
0.253700,2.063153
0.253800,0.684654
0.253900,0.562936
0.254000,1.152376
0.254100,1.760318
0.254200,1.309149
0.254300,-0.187172
0.254400,-0.736689
0.254500,-0.765252
0.254600,-0.697739
0.254700,-0.617243
0.254800,-0.624708
0.254900,-0.725978
0.255000,-0.845424
0.255100,-0.892488
0.255200,-0.850617
0.255300,-0.802579
0.255400,-0.786999
0.255500,-0.815238
0.255600,-0.836336
0.255700,-0.875286
0.255800,-0.847047
0.255900,-0.856784
0.256000,-0.817835
0.256100,-0.830493
0.256200,-0.833739
0.256300,-0.870092
0.256400,-0.834064
0.256500,-0.826274
0.256600,-0.854512
0.256700,-0.838932
0.256800,-0.766226
0.256900,-0.681186
0.257000,-0.697415
0.257100,-0.822379
0.257200,-0.928842
0.257300,-0.952861
0.257400,-0.857434
0.257500,-0.750646
0.257600,-0.770446
0.257700,-0.884698
0.257800,-1.042445
0.257900,-1.071333
0.258000,-0.993433
0.258100,-0.909691
0.258200,-0.883400
0.258300,-0.904498
0.258400,-0.910340
0.258500,-0.898655
0.258600,-0.864574
0.258700,-0.836985
0.258800,-0.783753
0.258900,-0.708450
0.259000,-0.624708
0.259100,-0.515000
0.259200,-0.447811
0.259300,-0.418599
0.259400,-0.399773
0.259500,-0.377702
0.259600,-0.297530
0.259700,-0.198532
0.259800,-0.146275
0.259900,-0.126475
0.260000,-0.095965
0.260100,-0.022285
0.260200,0.079959
0.260300,0.141954
0.260400,0.239328
0.260500,0.311385
0.260600,0.371108
0.260700,0.370135
0.260800,0.357800
0.260900,0.328913
0.261000,0.304245
0.261100,0.256206
0.261200,0.282822
0.261300,0.230889
0.261400,0.237056
0.261500,0.191939
0.261600,0.194536
0.261700,0.098135
0.261800,0.071520
0.261900,0.071844
0.262000,0.173438
0.262100,0.297104
0.262200,0.282498
0.262300,0.090345
0.262400,-0.056041
0.262500,-0.084280
0.262600,-0.009950
0.262700,0.160130
0.262800,0.229266
0.262900,0.187071
0.263000,0.102030
0.263100,0.115987
0.263200,0.192264
0.263300,0.325018
0.263400,0.383767
0.263500,0.393829
0.263600,0.360722
0.263700,0.342545
0.263800,0.345791
0.263900,0.374030
0.264000,0.391882
0.264100,0.520740
0.264200,0.655766
0.264300,0.764177
0.264400,0.782678
0.264500,0.820978
0.264600,0.891737
0.264700,0.935556
0.264800,0.942047
0.264900,1.516232
0.265000,1.857043
0.265100,1.909625
0.265200,1.091355
0.265300,0.881026
0.265400,1.604194
0.265500,2.640584
0.265600,3.513063
0.265700,3.413740
0.265800,2.662331
0.265900,2.395200
0.266000,3.000871
0.266100,4.196311
0.266200,5.011668
0.266300,4.978236
0.266400,4.605612
0.266500,4.516027
0.266600,4.932469
0.266700,5.183698
0.266800,5.501468
0.266900,5.421620
0.267000,5.561841
0.267100,5.719915
0.267200,5.946476
0.267300,5.998410
0.267400,5.820861
0.267500,5.660840
0.267600,5.687131
0.267700,5.838389
0.267800,5.983804
0.267900,5.833196
0.268000,5.320998
0.268100,5.085349
0.268200,4.935066
0.268300,5.001930
0.268400,4.955190
0.268500,4.673126
0.268600,4.723112
0.268700,4.776344
0.268800,4.793222
0.268900,4.816592
0.269000,4.831523
0.269100,4.799065
0.269200,4.758167
0.269300,4.750052
0.269400,4.648782
0.269500,4.584190
0.269600,4.471234
0.269700,4.409239
0.269800,4.223252
0.269900,4.191443
0.270000,3.981437
0.270100,3.976568
0.270200,3.813952
0.270300,3.214122
0.270400,1.895668
0.270500,1.163737
0.270600,1.397435
0.270700,2.303993
0.270800,2.582484
0.270900,1.898265
0.271000,0.395452
0.271100,-0.503964
0.271200,-0.465014
0.271300,0.166297
0.271400,0.563585
0.271500,0.253285
0.271600,-0.777911
0.271700,-0.523763
0.271800,-0.502990
0.271900,-0.449110
0.272000,-0.382246
0.272100,-0.353358
0.272200,-0.343296
0.272300,-0.374131
0.272400,-0.366341
0.272500,-0.363095
0.272600,-0.341024
0.272700,-0.318303
0.272800,-0.346217
0.272900,-0.359850
0.273000,-0.354007
0.273100,-0.335831
0.273200,-0.367315
0.273300,-0.380623
0.273400,-0.349788
0.273500,-0.249167
0.273600,-0.187821
0.273700,-0.241377
0.273800,-0.384842
0.273900,-0.454627
0.274000,-0.435477
0.274100,-0.316031
0.274200,-0.220604
0.274300,-0.278380
0.274400,-0.407238
0.274500,-0.508833
0.274600,-0.484164
0.274700,-0.387114
0.274800,-0.294933
0.274900,-0.286170
0.275000,-0.314733
0.275100,-0.322523
0.275200,-0.299477
0.275300,-0.266370
0.275400,-0.198532
0.275500,-0.152442
0.275600,-0.098561
0.275700,-0.020986
0.275800,0.057238
0.275900,0.107223
0.276000,0.130593
0.276100,0.145849
0.276200,0.179605
0.276300,0.277629
0.276400,0.349037
0.276500,0.357476
0.276600,0.369485
0.276700,0.422068
0.276800,0.440244
0.276900,0.461667
0.277000,0.494125
0.277100,0.529504
0.277200,0.547356
0.277300,0.532101
0.277400,0.492177
0.277500,0.464588
0.277600,0.422068
0.277700,0.393829
0.277800,0.356178
0.277900,0.340922
0.278000,0.332808
0.278100,0.321447
0.278200,0.280225
0.278300,0.235433
0.278400,0.224073
0.278500,0.146173
0.278600,0.260751
0.278700,0.313657
0.278800,0.483414
0.278900,0.392855
0.279000,0.253285
0.279100,0.156560
0.279200,0.258154
0.279300,0.372407
0.279400,0.538592
0.279500,0.566182
0.279600,0.485361
0.279700,0.387987
0.279800,0.368512
0.279900,0.460693
0.280000,0.549953
0.280100,0.560015
0.280200,0.496072
0.280300,0.394478
0.280400,0.348712
0.280500,0.308140
0.280600,0.305543
0.280700,0.278603
0.280800,0.231863
0.280900,0.216607
0.281000,0.192264
0.281100,0.140980
0.281200,0.119233
0.281300,0.090345
0.281400,0.078011
0.281500,0.049123
0.281600,0.416225
0.281700,0.553848
0.281800,0.183176
0.281900,-0.150494
0.282000,-0.207296
0.282100,-0.121607
0.282200,0.549953
0.282300,0.734640
0.282400,0.086450
0.282500,-0.352060
0.282600,-0.410160
0.282700,-0.351410
0.282800,0.164674
0.282900,0.600912
0.283000,0.332159
0.283100,-0.162504
0.283200,-0.274485
0.283300,-0.141731
0.283400,0.066975
0.283500,0.097486
0.283600,0.124426
0.283700,0.356502
0.283800,0.454201
0.283900,0.672320
0.284000,0.699909
0.284100,0.626879
0.284200,0.696339
0.284300,0.953083
0.284400,1.445149
0.284500,1.935267
0.284600,1.865807
0.284700,1.642819
0.284800,1.721043
0.284900,1.910275
0.285000,2.158580
0.285100,2.088145
0.285200,2.306589
0.285300,2.823973
0.285400,3.200814
0.285500,3.472814
0.285600,3.750009
0.285700,3.943460
0.285800,4.190144
0.285900,4.322250
0.286000,4.500771
0.286100,4.548485
0.286200,4.664687
0.286300,4.793222
0.286400,4.801012
0.286500,4.839638
0.286600,4.751351
0.286700,4.818540
0.286800,4.757518
0.286900,4.629631
0.287000,3.830830
0.287100,2.497119
0.287200,1.925854
0.287300,2.422790
0.287400,3.218666
0.287500,3.184585
0.287600,1.963181
0.287700,0.693742
0.287800,-0.198857
0.287900,-0.057015
0.288000,0.678162
0.288100,0.788520
0.288200,0.288665
0.288300,-0.460145
0.288400,-0.510456
0.288500,-0.499420
0.288600,-0.450083
0.288700,-0.397176
0.288800,-0.384518
0.288900,-0.380947
0.289000,-0.429635
0.289100,-0.402045
0.289200,-0.412107
0.289300,-0.428985
0.289400,-0.428985
0.289500,-0.466962
0.289600,-0.486112
0.289700,-0.493577
0.289800,-0.527658
0.289900,-0.551677
0.290000,-0.560441
0.290100,-0.509157
0.290200,-0.422494
0.290300,-0.416976
0.290400,-0.515973
0.290500,-0.612374
0.290600,-0.656517
0.290700,-0.575372
0.290800,-0.454303
0.290900,-0.396203
0.291000,-0.471506
0.291100,-0.648403
0.291200,-0.759734
0.291300,-0.770121
0.291400,-0.711696
0.291500,-0.691897
0.291600,-0.704231
0.291700,-0.738961
0.291800,-0.762656
0.291900,-0.768498
0.292000,-0.772069
0.292100,-0.737338
0.292200,-0.684756
0.292300,-0.616269
0.292400,-0.516298
0.292500,-0.458522
0.292600,-0.426713
0.292700,-0.430284
0.292800,-0.431258
0.292900,-0.400098
0.293000,-0.312785
0.293100,-0.261177
0.293200,-0.260203
0.293300,-0.255334
0.293400,-0.177110
0.293500,-0.126475
0.293600,-0.058638
0.293700,0.018613
0.293800,0.096188
0.293900,0.153314
0.294000,0.190641
0.294100,0.201677
0.294200,0.220502
0.294300,0.242249
0.294400,0.238354
0.294500,0.324369
0.294600,0.349361
0.294700,0.409084
0.294800,0.421743
0.294900,0.469132
0.295000,0.460044
0.295100,0.480492
0.295200,0.482440
0.295300,0.605456
0.295400,0.708998
0.295500,0.886544
0.295600,0.703804
0.295700,0.608053
0.295800,0.552874
0.295900,0.690172
0.296000,0.878754
0.296100,1.941110
0.296200,2.376699
0.296300,2.028747
0.296400,1.923907
0.296500,2.370532
0.296600,3.457884
0.296700,4.337505
0.296800,4.810750
0.296900,4.953567
0.297000,5.035363
0.297100,5.141827
0.297200,5.336254
0.297300,5.677718
0.297400,5.924404
0.297500,6.028922
0.297600,5.991919
0.297700,5.709853
0.297800,5.412856
0.297900,5.033091
0.298000,4.814320
0.298100,4.273887
0.298200,4.064206
0.298300,3.597779
0.298400,3.198866
0.298500,1.910599
0.298600,0.912835
0.298700,0.677189
0.298800,0.992033
0.298900,1.736623
0.299000,1.260137
0.299100,0.224397
0.299200,-0.332909
0.299300,-0.392632
0.299400,-0.324146
0.299500,-0.087525
0.299600,-0.078437
0.299700,-0.488059
0.299800,-0.573749
0.299900,-0.576995
0.300000,-0.634770
0.300100,-0.666904
0.300200,-0.723706
0.300300,-0.755515
0.300400,-0.740259
0.300500,-0.735066
0.300600,-0.739610
0.300700,-0.774341
0.300800,-0.811992
0.300900,-0.801930
0.301000,-0.753892
0.301100,-0.493577
0.301200,-0.150819
0.301300,-0.375105
0.301400,-0.424117
0.301500,-0.235210
0.301600,0.278278
0.301700,0.682707
0.301800,0.811241
0.301900,1.180290
0.302000,1.819392
0.302100,2.285491
0.302200,2.769444
0.302300,3.027162
0.302400,3.372194
0.302500,3.615306
0.302600,4.008702
0.302700,4.177161
0.302800,4.369964
0.302900,4.558872
0.303000,4.886378
0.303100,5.062628
0.303200,5.270363
0.303300,5.340798
0.303400,5.575798
0.303500,5.624486
0.303600,5.559569
0.303700,4.720515
0.303800,3.962286
0.303900,4.176187
0.304000,4.997386
0.304100,5.649479
0.304200,5.449859
0.304300,4.059012
0.304400,2.915506
0.304500,2.649023
0.304600,3.070332
0.304700,3.761694
0.304800,3.592910
0.304900,3.093377
0.305000,2.221224
0.305100,1.959936
0.305200,1.849253
0.305300,1.974542
0.305400,1.826857
0.305500,1.646390
0.305600,1.277340
0.305700,0.810916
0.305800,0.380846
0.305900,-0.106676
0.306000,-0.119984
0.306100,-0.176136
0.306200,-0.228069
0.306300,-0.262475
0.306400,-0.298504
0.306500,-0.371210
0.306600,-0.435477
0.306700,-0.446513
0.306800,-0.401721
0.306900,-0.364718
0.307000,-0.406589
0.307100,-0.568231
0.307200,-0.696441
0.307300,-0.745128
0.307400,-0.624059
0.307500,-0.542589
0.307600,-0.566608
0.307700,-0.697739
0.307800,-0.853214
0.307900,-0.898006
0.308000,-0.842827
0.308100,-0.770121
0.308200,-0.761357
0.308300,-0.783429
0.308400,-0.804851
0.308500,-0.786999
0.308600,-0.763629
0.308700,-0.746427
0.308800,-0.690274
0.308900,-0.642560
0.309000,-0.570828
0.309100,-0.485787
0.309200,-0.431258
0.309300,-0.434503
0.309400,-0.440346
0.309500,-0.438398
0.309600,-0.383544
0.309700,-0.301100
0.309800,-0.277406
0.309900,-0.280002
0.310000,-0.274160
0.310100,-0.219306
0.310200,-0.188146
0.310300,-0.147898
0.310400,-0.098237
0.310500,-0.092070
0.310600,-0.059287
0.310700,-0.092719
0.310800,-0.107650
0.310900,-0.149845
0.311000,-0.143029
0.311100,-0.196585
0.311200,-0.164776
0.311300,-0.205024
0.311400,-0.181005
0.311500,-0.218332
0.311600,-0.215735
0.311700,-0.251115
0.311800,-0.307267
0.311900,-0.288117
0.312000,-0.178408
0.312100,-0.084604
0.312200,-0.048251
0.312300,-0.251439
0.312400,-0.388737
0.312500,-0.402694
0.312600,-0.309215
0.312700,-0.166074
0.312800,-0.090122
0.312900,-0.159907
0.313000,-0.242351
0.313100,-0.255010
0.313200,-0.176785
0.313300,-0.063506
0.313400,-0.009950
0.313500,-0.005406
0.313600,-0.036891
0.313700,-0.049874
0.313800,-0.050199
0.313900,0.002059
0.314000,0.028026
0.314100,0.041009
0.314200,0.061782
0.314300,0.054966
0.314400,0.057238
0.314500,-0.011249
0.314600,0.029973
0.314700,0.002708
0.314800,-0.004108
0.314900,0.014069
0.315000,0.252636
0.315100,0.125400
0.315200,-0.145950
0.315300,-0.242351
0.315400,-0.214437
0.315500,-0.004108
0.315600,0.410058
0.315700,-0.149196
0.315800,-0.409186
0.315900,-0.560766
0.316000,-0.560117
0.316100,-0.477997
0.316200,-0.446837
0.316300,-0.537720
0.316400,-0.687028
0.316500,-0.769796
0.316600,-0.790570
0.316700,-0.824651
0.316800,-0.867820
0.316900,-0.962598
0.317000,-1.004469
0.317100,-1.046016
0.317200,-1.064842
0.317300,-1.123591
0.317400,-1.209605
0.317500,-1.283935
0.317600,-1.323534
0.317700,-1.318665
0.317800,-1.318340
0.317900,-1.346579
0.318000,-1.436164
0.318100,-1.446550
0.318200,-1.434541
0.318300,-1.400135
0.318400,-1.389099
0.318500,-1.382283
0.318600,-1.293347
0.318700,-1.221615
0.318800,-1.155725
0.318900,-1.055429
0.319000,-0.978178
0.319100,-0.898980
0.319200,-0.794789
0.319300,-0.339401
0.319400,0.111768
0.319500,0.376951
0.319600,0.747623
0.319700,1.037474
0.319800,1.242285
0.319900,1.543497
0.320000,1.573359
0.320100,1.767783
0.320200,1.730132
0.320300,1.434113
0.320400,0.547356
0.320500,0.199729
0.320600,0.932634
0.320700,2.012842
0.320800,2.763276
0.320900,2.211487
0.321000,1.283183
0.321100,0.482115
0.321200,0.846296
0.321300,1.692480
0.321400,2.321520
0.321500,2.271534
0.321600,1.488643
0.321700,0.951460
0.321800,0.819355
0.321900,1.064415
0.322000,1.168930
0.322100,1.201713
0.322200,1.025140
0.322300,0.623308
0.322400,0.549953
0.322500,0.357151
0.322600,0.209142
0.322700,-0.171917
0.322800,-0.102132
0.322900,-0.150819
0.323000,-0.137836
0.323100,-0.138809
0.323200,-0.171592
0.323300,-0.209568
0.323400,-0.202427
0.323500,-0.132967
0.323600,-0.074218
0.323700,-0.160556
0.323800,-0.316680
0.323900,-0.397501
0.324000,-0.395229
0.324100,-0.269940
0.324200,-0.203726
0.324300,-0.243649
0.324400,-0.398475
0.324500,-0.536747
0.324600,-0.554599
0.324700,-0.481243
0.324800,-0.425090
0.324900,-0.427363
0.325000,-0.460794
0.325100,-0.470207
0.325200,-0.455601
0.325300,-0.434828
0.325400,-0.414055
0.325500,-0.350761
0.325600,-0.296232
0.325700,-0.220929
0.325800,-0.166399
0.325900,-0.121607
0.326000,-0.103430
0.326100,-0.103105
0.326200,-0.083306
0.326300,0.013419
0.326400,0.096188
0.326500,0.123128
0.326600,0.152016
0.326700,0.213037
0.326800,0.278278
0.326900,0.339948
0.327000,0.373705
0.327100,0.438621
0.327200,0.456149
0.327300,0.469457
0.327400,0.444139
0.327500,0.431481
0.327600,0.421418
0.327700,0.390583
0.327800,0.412006
0.327900,0.400645
0.328000,0.439595
0.328100,0.433103
0.328200,0.440569
0.328300,0.442516
0.328400,0.429208
0.328500,0.476273
0.328600,0.539242
0.328700,0.678162
0.328800,0.824224
0.328900,0.725551
0.329000,0.523662
0.329100,0.439270
0.329200,0.473352
0.329300,0.583060
0.329400,0.719384
0.329500,0.725551
0.329600,0.617141
0.329700,0.510354
0.329800,0.499643
0.329900,0.588903
0.330000,0.828768
0.330100,1.181913
0.330200,1.196195
0.330300,1.104663
0.330400,1.108558
0.330500,1.250075
0.330600,1.613607
0.330700,1.785311
0.330800,1.805110
0.330900,1.950523
0.331000,2.036537
0.331100,1.898590
0.331200,1.930723
0.331300,1.963506
0.331400,1.870676
0.331500,2.165721
0.331600,2.409157
0.331700,2.637014
0.331800,2.375076
0.331900,1.332194
0.332000,1.330247
0.332100,2.007974
0.332200,2.967763
0.332300,3.104088
0.332400,2.438694
0.332500,1.486046
0.332600,1.298763
0.332700,1.856394
0.332800,2.764899
0.332900,2.763926
0.333000,2.199477
0.333100,1.586342
0.333200,1.547068
0.333300,1.404901
0.333400,1.468843
0.333500,1.333817
0.333600,1.081293
0.333700,1.126085
0.333800,1.052080
0.333900,0.958276
0.334000,0.749895
0.334100,0.518144
0.334200,0.484712
0.334300,0.620712
0.334400,0.744053
0.334500,1.000147
0.334600,0.890439
0.334700,0.765150
0.334800,1.023842
0.334900,1.328624
0.335000,1.608738
0.335100,1.541225
0.335200,1.599325
0.335300,2.000508
0.335400,2.033616
0.335500,2.116060
0.335600,1.995640
0.335700,2.012193
0.335800,1.949549
0.335900,1.940461
0.336000,1.935917
0.336100,1.840489
0.336200,1.685015
0.336300,1.529540
0.336400,1.457808
0.336500,1.253970
0.336600,0.872262
0.336700,0.526583
0.336800,0.132865
0.336900,-0.297530
0.337000,-0.918455
0.337100,-1.117099
0.337200,-1.153128
0.337300,-1.111581
0.337400,-1.015505
0.337500,-1.076526
0.337600,-1.267056
0.337700,-1.439085
0.337800,-1.543276
0.337900,-1.465701
0.338000,-1.378388
0.338100,-1.336517
0.338200,-1.392670
0.338300,-1.497510
0.338400,-1.495887
0.338500,-1.459534
0.338600,-1.351448
0.338700,-1.313147
0.338800,-1.263486
0.338900,-1.230378
0.339000,-1.232326
0.339100,-1.203438
0.339200,-1.193376
0.339300,-1.188183
0.339400,-1.218693
0.339500,-1.266407
0.339600,-1.305357
0.339700,-1.296593
0.339800,-1.341710
0.339900,-1.353720
0.340000,-1.404355
0.340100,-1.339114
0.340200,-1.276794
0.340300,-1.244985
0.340400,-1.342684
0.340500,-1.483877
0.340600,-1.535810
0.340700,-1.423180
0.340800,-1.274846
0.340900,-1.207658
0.341000,-1.272250
0.341100,-1.405977
0.341200,-1.444927
0.341300,-1.366054
0.341400,-1.223562
0.341500,-1.134951
0.341600,-1.097300
0.341700,-1.071333
0.341800,-1.020049
0.341900,-0.962598
0.342000,-0.903200
0.342100,-0.828870
0.342200,-0.733768
0.342300,-0.636393
0.342400,-0.525386
0.342500,-0.417950
0.342600,-0.372833
0.342700,-0.323172
0.342800,-0.286494
0.342900,-0.214112
0.343000,-0.078762
0.343100,-0.014495
0.343200,0.019586
0.343300,0.040035
0.343400,0.140980
0.343500,0.210440
0.343600,0.240951
0.343700,0.292235
0.343800,0.342545
0.343900,0.376626
0.344000,0.358125
0.344100,0.337352
0.344200,0.316254
0.344300,0.292560
0.344400,0.265619
0.344500,0.273085
0.344600,0.234459
0.344700,0.225371
0.344800,0.170192
0.344900,0.154288
0.345000,0.086450
0.345100,0.092617
0.345200,0.053668
0.345300,0.125725
0.345400,0.263672
0.345500,0.304245
0.345600,0.155911
0.345700,-0.010600
0.345800,0.011796
0.345900,0.033219
0.346000,0.181228
0.346100,0.279576
0.346200,0.250689
0.346300,0.143577
0.346400,0.106250
0.346500,0.163376
0.346600,0.286068
0.346700,0.348388
0.346800,0.339624
0.346900,0.273734
0.347000,0.195510
0.347100,0.128970
0.347200,0.095863
0.347300,0.059185
0.347400,0.000761
0.347500,-0.064480
0.347600,-0.129721
0.347700,-0.230666
0.347800,-0.305969
0.347900,-0.442618
0.348000,-0.499744
0.348100,-0.602637
0.348200,-0.630551
0.348300,-0.662360
0.348400,-0.694493
0.348500,-0.890866
0.348600,-1.047314
0.348700,-1.056727
0.348800,-0.974932
0.348900,-0.861978
0.349000,-0.918130
0.349100,-1.038550
0.349200,-1.145662
0.349300,-1.113204
0.349400,-0.975581
0.349500,-0.863925
0.349600,-0.849968
0.349700,-0.915534
0.349800,-0.956107
0.349900,-0.919429
0.350000,-0.895085
0.350100,-0.828221
0.350200,-0.830493
0.350300,-0.776288
0.350400,-0.725004
0.350500,-0.701310
0.350600,-0.637042
0.350700,-0.629252
0.350800,-0.506561
0.350900,-0.262800
0.351000,0.082880
0.351100,0.217906
0.351200,0.376626
0.351300,-0.065454
0.351400,-0.261177
0.351500,-0.356279
0.351600,-0.245597
0.351700,-0.174838
0.351800,-0.381921
0.351900,-0.278380
0.352000,0.023806
0.352100,0.091644
0.352200,0.171491
0.352300,0.238030
0.352400,0.283147
0.352500,0.299376
0.352600,0.418173
0.352700,0.474325
0.352800,0.614220
0.352900,0.758010
0.353000,0.804100
0.353100,0.861876
0.353200,0.826496
0.353300,0.762878
0.353400,0.707375
0.353500,0.351309
0.353600,0.016665
0.353700,-0.855811
0.353800,-0.954159
0.353900,-0.946694
0.354000,-0.797386
0.354100,-0.497148
0.354200,-0.803228
0.354300,-0.961949
0.354400,-1.138846
0.354500,-1.136250
0.354600,-1.036927
0.354700,-0.974283
0.354800,-0.988565
0.354900,-1.101844
0.355000,-1.216097
0.355100,-1.252125
0.355200,-1.229080
0.355300,-1.194025
0.355400,-1.181367
0.355500,-1.201166
0.355600,-1.200517
0.355700,-1.219667
0.355800,-1.213825
0.355900,-1.226808
0.356000,-1.221939
0.356100,-1.258942
0.356200,-1.291400
0.356300,-1.302760
0.356400,-1.266732
0.356500,-1.295619
0.356600,-1.289128
0.356700,-1.281987
0.356800,-1.187534
0.356900,-1.127810
0.357000,-1.163515
0.357100,-1.289128
0.357200,-1.366703
0.357300,-1.369624
0.357400,-1.233949
0.357500,-1.113853
0.357600,-1.115152
0.357700,-1.232326
0.357800,-1.353071
0.357900,-1.351123
0.358000,-1.268030
0.358100,-1.181042
0.358200,-1.156698
0.358300,-1.164164
0.358400,-1.165137
0.358500,-1.170331
0.358600,-1.150207
0.358700,-1.160593
0.358800,-1.154102
0.358900,-1.114827
0.359000,-1.077500
0.359100,-1.036278
0.359200,-1.026541
0.359300,-1.053157
0.359400,-1.090159
0.359500,-1.116450
0.359600,-1.059324
0.359700,-0.981749
0.359800,-0.980775
0.359900,-0.982073
0.360000,-0.977854
0.360100,-0.922675
0.360200,-0.883076
0.360300,-0.828221
0.360400,-0.773042
0.360500,-0.731171
0.360600,-0.709424
0.360700,-0.730522
0.360800,-0.736365
0.360900,-0.733443
0.361000,-0.773691
0.361100,-0.762980
0.361200,-0.785052
0.361300,-0.766875
0.361400,-0.802579
0.361500,-0.781481
0.361600,-0.815238
0.361700,-0.807123
0.361800,-0.769147
0.361900,-0.767524
0.362000,-0.593873
0.362100,-0.450408
0.362200,-0.416651
0.362300,-0.613023
0.362400,-0.683782
0.362500,-0.626007
0.362600,-0.521816
0.362700,-0.317329
0.362800,-0.244623
0.362900,-0.302074
0.363000,-0.401071
0.363100,-0.396852
0.363200,-0.292337
0.363300,-0.177110
0.363400,-0.124203
0.363500,-0.165750
0.363600,-0.205024
0.363700,-0.256957
0.363800,-0.254036
0.363900,-0.233912
0.364000,-0.224499
0.364100,-0.248193
0.364200,-0.267344
0.364300,-0.263773
0.364400,-0.304671
0.364500,-0.304021
0.364600,-0.348165
0.364700,-0.358227
0.364800,-0.366017
0.364900,-0.346866
0.365000,-0.315057
0.365100,-0.365692
0.365200,-0.507534
0.365300,-0.561415
0.365400,-0.462417
0.365500,-0.333883
0.365600,-0.247869
0.365700,-0.355630
0.365800,-0.487410
0.365900,-0.559467
0.366000,-0.496498
0.366100,-0.327716
0.366200,0.103978
0.366300,-0.131344
0.366400,-0.478971
0.366500,-0.520842
0.366600,-0.527009
0.366700,-0.513052
0.366800,-0.391659
0.366900,-0.535448
0.367000,-0.469234
0.367100,-0.375429
0.367200,-0.273186
0.367300,-0.397826
0.367400,-0.607830
0.367500,-0.729224
0.367600,-0.663983
0.367700,-0.648078
0.367800,-0.599716
0.367900,-0.808422
0.368000,-0.913586
0.368100,-0.974608
0.368200,-1.017453
0.368300,-1.035954
0.368400,-1.082369
0.368500,-1.162541
0.368600,-1.145013
0.368700,-1.168059
0.368800,-1.191429
0.368900,-1.177472
0.369000,-1.210579
0.369100,-1.216746
0.369200,-1.229729
0.369300,-1.223238
0.369400,-1.229080
0.369500,-1.220316
0.369600,-1.219992
0.369700,-1.212202
0.369800,-1.206359
0.369900,-1.203763
0.370000,-1.222913
0.370100,-1.224536
0.370200,-1.243037
0.370300,-1.319639
0.370400,-1.484851
0.370500,-1.551066
0.370600,-1.454340
0.370700,-1.321261
0.370800,-1.264135
0.370900,-1.394617
0.371000,-1.547820
0.371100,-1.671486
0.371200,-1.599104
0.371300,-1.463753
0.371400,-1.365729
0.371500,-1.400784
0.371600,-1.473815
0.371700,-1.532565
0.371800,-1.488097
0.371900,-1.383906
0.372000,-1.318665
0.372100,-1.262512
0.372200,-1.248555
0.372300,-1.266732
0.372400,-1.262837
0.372500,-1.264784
0.372600,-1.230054
0.372700,-1.203763
0.372800,-1.239791
0.372900,-1.227133
0.373000,-1.242713
0.373100,-1.218044
0.373200,-1.214799
0.373300,-1.196622
0.373400,-1.141443
0.373500,-1.034331
0.373600,-0.961624
0.373700,-1.025243
0.373800,-1.151505
0.373900,-1.189806
0.374000,-1.126188
0.374100,-0.962598
0.374200,-0.878207
0.374300,-0.900278
0.374400,-1.005768
0.374500,-1.079448
0.374600,-1.033682
0.374700,-0.936956
0.374800,-0.853214
0.374900,-0.818484
0.375000,-0.813940
0.375100,-0.797061
0.375200,-0.763305
0.375300,-0.742856
0.375400,-0.717863
0.375500,-0.661061
0.375600,-0.579267
0.375700,-0.505262
0.375800,-0.444890
0.375900,-0.417625
0.376000,-0.430933
0.376100,-0.439697
0.376200,-0.414379
0.376300,-0.316031
0.376400,-0.254685
0.376500,-0.234236
0.376600,-0.223850
0.376700,-0.161206
0.376800,-0.130046
0.376900,-0.084280
0.377000,-0.044356
0.377100,-0.000538
0.377200,0.020885
0.377300,0.016990
0.377400,-0.023583
0.377500,-0.064480
0.377600,-0.091745
0.377700,-0.158933
0.377800,-0.155688
0.377900,-0.189120
0.378000,-0.228719
0.378100,-0.261826
0.378200,-0.316680
0.378300,-0.361148
0.378400,-0.430284
0.378500,-0.424766
0.378600,-0.426713
0.378700,-0.297205
0.378800,-0.226771
0.378900,-0.304671
0.379000,-0.541940
0.379100,-0.584136
0.379200,-0.623410
0.379300,-0.503639
0.379400,-0.408861
0.379500,-0.419248
0.379600,-0.529930
0.379700,-0.637042
0.379800,-0.632498
0.379900,-0.540642
0.380000,-0.457873
0.380100,-0.422169
0.380200,-0.453005
0.380300,-0.475401
0.380400,-0.525711
0.380500,-0.524737
0.380600,-0.512078
0.380700,-0.509806
0.380800,-0.525062
0.380900,-0.543887
0.381000,-0.566933
0.381100,-0.629577
0.381200,-0.706828
0.381300,-0.691897
0.381400,-0.755515
0.381500,-0.772393
0.381600,-0.789596
0.381700,-0.778236
0.381800,-0.953834
0.381900,-1.089510
0.382000,-1.133653
0.382100,-1.055429
0.382200,-0.961624
0.382300,-0.963572
0.382400,-1.081720
0.382500,-1.219667
0.382600,-1.260889
0.382700,-1.175524
0.382800,-1.074904
0.382900,-1.068737
0.383000,-1.160918
0.383100,-1.207658
0.383200,-1.199543
0.383300,-1.208956
0.383400,-1.209930
0.383500,-1.246608
0.383600,-1.253099
0.383700,-1.235572
0.383800,-1.211877
0.383900,-1.206684
0.384000,-1.247257
0.384100,-1.297892
0.384200,-1.316068
0.384300,-1.295944
0.384400,-1.291725
0.384500,-1.278092
0.384600,-1.345605
0.384700,-1.404679
0.384800,-1.416040
0.384900,-1.404355
0.385000,-1.384230
0.385100,-1.425128
0.385200,-1.440059
0.385300,-1.374168
0.385400,-1.366703
0.385500,-1.362159
0.385600,-1.364431
0.385700,-1.364756
0.385800,-1.357290
0.385900,-1.371247
0.386000,-1.390398
0.386100,-1.382932
0.386200,-1.383906
0.386300,-1.382283
0.386400,-1.345930
0.386500,-1.364106
0.386600,-1.368326
0.386700,-1.401109
0.386800,-1.388450
0.386900,-1.389099
0.387000,-1.503352
0.387100,-1.620527
0.387200,-1.613710
0.387300,-1.461481
0.387400,-1.351448
0.387500,-1.342684
0.387600,-1.490694
0.387700,-1.657529
0.387800,-1.666293
0.387900,-1.576059
0.388000,-1.464078
0.388100,-1.419935
0.388200,-1.510168
0.388300,-1.594235
0.388400,-1.619877
0.388500,-1.583524
0.388600,-1.546846
0.388700,-1.511142
0.388800,-1.489071
0.388900,-1.504326
0.389000,-1.514063
0.389100,-1.499782
0.389200,-1.495238
0.389300,-1.480631
0.389400,-1.477710
0.389500,-1.484526
0.389600,-1.488421
0.389700,-1.460832
0.389800,-1.437137
0.389900,-1.424479
0.390000,-1.396889
0.390100,-1.294646
0.390200,-1.151180
0.390300,-1.110283
0.390400,-1.191753
0.390500,-1.298216
0.390600,-1.319963
0.390700,-1.209605
0.390800,-1.071982
0.390900,-1.043419
0.391000,-1.134302
0.391100,-1.273872
0.391200,-1.324183
0.391300,-1.242388
0.391400,-1.146636
0.391500,-1.112555
0.391600,-1.115152
0.391700,-1.145013
0.391800,-1.116126
0.391900,-1.086589
0.392000,-1.080421
0.392100,-1.055429
0.392200,-1.011935
0.392300,-0.975257
0.392400,-0.929815
0.392500,-0.896383
0.392600,-0.896059
0.392700,-0.929166
0.392800,-0.960002
0.392900,-0.947343
0.393000,-0.880803
0.393100,-0.882102
0.393200,-0.911314
0.393300,-0.928192
0.393400,-0.891190
0.393500,-0.877558
0.393600,-0.842503
0.393700,-0.820107
0.393800,-0.794789
0.393900,-0.784727
0.394000,-0.821730
0.394100,-0.845749
0.394200,-0.880154
0.394300,-0.914235
0.394400,-0.955133
0.394500,-0.947992
0.394600,-0.963247
0.394700,-0.953185
0.394800,-1.014207
0.394900,-1.018102
0.395000,-1.090484
0.395100,-1.093405
0.395200,-1.142741
0.395300,-1.007066
0.395400,-0.894111
0.395500,-0.822379
0.395600,-1.017128
0.395700,-1.192078
0.395800,-1.204736
0.395900,-1.150207
0.396000,-1.017128
0.396100,-0.920727
0.396200,-0.964221
0.396300,-1.062894
0.396400,-1.128460
0.396500,-1.073605
0.396600,-0.973634
0.396700,-0.919429
0.396800,-0.910016
0.396900,-0.954808
0.397000,-0.996030
0.397100,-1.009987
0.397200,-0.986617
0.397300,-0.974932
0.397400,-0.990188
0.397500,-1.004794
0.397600,-1.011935
0.397700,-1.025567
0.397800,-1.085939
0.397900,-1.072307
0.398000,-1.072631
0.398100,-1.082044
0.398200,-1.049911
0.398300,-1.038875
0.398400,-0.997004
0.398500,-1.158321
0.398600,-1.191429
0.398700,-1.142741
0.398800,-0.990188
0.398900,-0.895410
0.399000,-0.896059
0.399100,-1.021348
0.399200,-1.100221
0.399300,-1.040173
0.399400,-0.895085
0.399500,-0.812966
0.399600,-0.820107
0.399700,-0.888918
0.399800,-0.931114
0.399900,-0.894761
0.400000,-0.889567
0.400100,-0.848994
0.400200,-0.869443
0.400300,-0.856460
0.400400,-0.848021
0.400500,-0.829844
0.400600,-0.831467
0.400700,-0.861653
0.400800,-0.912937
0.400900,-0.917481
0.401000,-0.922350
0.401100,-0.925920
0.401200,-0.969414
0.401300,-1.056078
0.401400,-1.113853
0.401500,-1.164488
0.401600,-1.163839
0.401700,-1.190130
0.401800,-1.227782
0.401900,-1.204412
0.402000,-1.182989
0.402100,-1.182016
0.402200,-1.174550
0.402300,-1.180393
0.402400,-1.185911
0.402500,-1.193376
0.402600,-1.185911
0.402700,-1.194674
0.402800,-1.210254
0.402900,-1.224536
0.403000,-1.255047
0.403100,-1.281013
0.403200,-1.292698
0.403300,-1.307629
0.403400,-1.364106
0.403500,-1.382283
0.403600,-1.469920
0.403700,-1.611438
0.403800,-1.720173
0.403900,-1.647142
0.404000,-1.540355
0.404100,-1.457586
0.404200,-1.538407
0.404300,-1.728288
0.404400,-1.846436
0.404500,-1.827286
0.404600,-1.725042
0.404700,-1.617281
0.404800,-1.660775
0.404900,-1.714980
0.405000,-1.811057
0.405100,-1.802617
0.405200,-1.773080
0.405300,-1.742570
0.405400,-1.687066
0.405500,-1.695181
0.405600,-1.711085
0.405700,-1.726340
0.405800,-1.701672
0.405900,-1.712383
0.406000,-1.716603
0.406100,-1.738999
0.406200,-1.784765
0.406300,-1.775028
0.406400,-1.771457
0.406500,-1.814627
0.406600,-1.848384
0.406700,-1.858446
0.406800,-1.771457
0.406900,-1.731209
0.407000,-1.800021
0.407100,-1.938293
0.407200,-2.011649
0.407300,-2.011324
0.407400,-1.898694
0.407500,-1.849357
0.407600,-1.892851
0.407700,-2.033396
0.407800,-2.165177
0.407900,-2.203477
0.408000,-2.154465
0.408100,-2.113568
0.408200,-2.116814
0.408300,-2.145052
0.408400,-2.183678
0.408500,-2.192766
0.408600,-2.199907
0.408700,-2.215162
0.408800,-2.187897
0.408900,-2.142131
0.409000,-2.100909
0.409100,-2.043458
0.409200,-2.031773
0.409300,-2.052871
0.409400,-2.064556
0.409500,-2.092794
0.409600,-2.016517
0.409700,-1.935696
0.409800,-1.931801
0.409900,-1.912326
0.410000,-1.897071
0.410100,-1.817224
0.410200,-1.766589
0.410300,-1.677978
0.410400,-1.593262
0.410500,-1.536784
0.410600,-1.492641
0.410700,-1.477061
0.410800,-1.462779
0.410900,-1.446875
0.411000,-1.444927
0.411100,-1.439734
0.411200,-1.423830
0.411300,-1.416364
0.411400,-1.424479
0.411500,-1.405328
0.411600,-1.438436
0.411700,-1.429347
0.411800,-1.409223
0.411900,-1.361510
0.412000,-1.151830
0.412100,-1.087887
0.412200,-1.040498
0.412300,-1.293347
0.412400,-1.294646
0.412500,-1.302436
0.412600,-1.131056
0.412700,-1.022321
0.412800,-0.963572
0.412900,-1.058999
0.413000,-1.129433
0.413100,-1.117099
0.413200,-1.012259
0.413300,-0.929491
0.413400,-0.881453
0.413500,-0.914885
0.413600,-0.969414
0.413700,-0.999601
0.413800,-0.995056
0.413900,-0.974608
0.414000,-0.987591
0.414100,-1.005768
0.414200,-1.040173
0.414300,-1.038226
0.414400,-1.085290
0.414500,-1.087887
0.414600,-1.129758
0.414700,-1.145987
0.414800,-1.129109
0.414900,-1.048288
0.415000,-1.002522
0.415100,-1.052507
0.415200,-1.168708
0.415300,-1.180068
0.415400,-1.058999
0.415500,-0.884374
0.415600,-0.855162
0.415700,-0.930465
0.415800,-1.069061
0.415900,-1.095028
0.416000,-1.004145
0.416100,-0.849644
0.416200,-0.805176
0.416300,-0.844126
0.416400,-0.926894
0.416500,-0.933386
0.416600,-0.913262
0.416700,-0.893462
0.416800,-0.861004
0.416900,-0.884374
0.417000,-0.865224
0.417100,-0.873014
0.417200,-0.858407
0.417300,-0.875286
0.417400,-0.898655
0.417500,-0.920078
0.417600,-0.920402
0.417700,-0.913262
0.417800,-0.915534
0.417900,-0.947667
0.418000,-1.033032
0.418100,-1.085290
0.418200,-1.103467
0.418300,-1.119696
0.418400,-1.158646
0.418500,-1.221615
0.418600,-1.199543
0.418700,-1.206035
0.418800,-1.237844
0.418900,-1.258617
0.419000,-1.266407
0.419100,-1.297242
0.419200,-1.327104
0.419300,-1.330674
0.419400,-1.368326
0.419500,-1.395591
0.419600,-1.437462
0.419700,-1.456937
0.419800,-1.502378
0.419900,-1.533214
0.420000,-1.565023
0.420100,-1.572813
0.420200,-1.577032
0.420300,-1.706541
0.420400,-1.864288
0.420500,-1.916546
0.420600,-1.843190
0.420700,-1.727639
0.420800,-1.703620
0.420900,-1.844164
0.421000,-2.002236
0.421100,-2.132069
0.421200,-2.066503
0.421300,-1.978541
0.421400,-1.923038
0.421500,-2.014245
0.421600,-2.149921
0.421700,-2.235286
0.421800,-2.226847
0.421900,-2.142780
0.422000,-2.108374
0.422100,-2.115840
0.422200,-2.181081
0.422300,-2.200881
0.422400,-2.200556
0.422500,-2.205425
0.422600,-2.192766
0.422700,-2.242427
0.422800,-2.308318
0.422900,-2.275535
0.423000,-2.236260
0.423100,-2.242752
0.423200,-2.258656
0.423300,-2.270341
0.423400,-2.217759
0.423500,-2.078837
0.423600,-2.024957
0.423700,-2.086952
0.423800,-2.194714
0.423900,-2.205425
0.424000,-2.147324
0.424100,-1.993797
0.424200,-1.912002
0.424300,-1.934398
0.424400,-2.051248
0.424500,-2.134017
0.424600,-2.080785
0.424700,-1.959066
0.424800,-1.847085
0.424900,-1.772431
0.425000,-1.759123
0.425100,-1.768536
0.425200,-1.751658
0.425300,-1.698751
0.425400,-1.625395
0.425500,-1.510818
0.425600,-1.435839
0.425700,-1.364431
0.425800,-1.300813
0.425900,-1.264135
0.426000,-1.269653
0.426100,-1.254722
0.426200,-1.226483
0.426300,-1.128784
0.426400,-1.083667
0.426500,-1.064842
0.426600,-1.029137
0.426700,-0.963572
0.426800,-0.927868
0.426900,-0.876584
0.427000,-0.835362
0.427100,-0.774990
0.427200,-0.747400
0.427300,-0.740909
0.427400,-0.774016
0.427500,-0.793491
0.427600,-0.843801
0.427700,-0.860355
0.427800,-0.878856
0.427900,-0.880479
0.428000,-0.894761
0.428100,-0.928192
0.428200,-0.928842
0.428300,-0.993109
0.428400,-0.961624
0.428500,-1.001223
0.428600,-0.831142
0.428700,-0.797386
0.428800,-0.661061
0.428900,-0.811018
0.429000,-0.981099
0.429100,-1.063868
0.429200,-0.997978
0.429300,-0.863601
0.429400,-0.749348
0.429500,-0.769796
0.429600,-0.889243
0.429700,-0.969414
0.429800,-0.965195
0.429900,-0.886971
0.430000,-0.813615
0.430100,-0.804202
0.430200,-0.864250
0.430300,-0.934360
0.430400,-0.984670
0.430500,-0.993109
0.430600,-1.003496
0.430700,-1.026541
0.430800,-1.059324
0.430900,-1.101844
0.431000,-1.146636
0.431100,-1.182016
0.431200,-1.250178
0.431300,-1.324832
0.431400,-1.363133
0.431500,-1.380011
0.431600,-1.350474
0.431700,-1.414092
0.431800,-1.537433
0.431900,-1.725691
0.432000,-1.721796
0.432100,-1.628641
0.432200,-1.548145
0.432300,-1.615009
0.432400,-1.730885
0.432500,-1.879868
0.432600,-1.889930
0.432700,-1.821119
0.432800,-1.703620
0.432900,-1.692908
0.433000,-1.744192
0.433100,-1.815925
0.433200,-1.841567
0.433300,-1.882789
0.433400,-1.842541
0.433500,-1.848384
0.433600,-1.837672
0.433700,-1.832479
0.433800,-1.826312
0.433900,-1.828584
0.434000,-1.857147
0.434100,-1.880842
0.434200,-1.905835
0.434300,-1.884412
0.434400,-1.869481
0.434500,-1.864288
0.434600,-1.951276
0.434700,-2.007754
0.434800,-2.011324
0.434900,-1.991525
0.435000,-2.002560
0.435100,-2.036317
0.435200,-2.055143
0.435300,-1.968479
0.435400,-1.947057
0.435500,-1.921090
0.435600,-1.904861
0.435700,-1.903563
0.435800,-1.889281
0.435900,-1.875324
0.436000,-1.859095
0.436100,-1.850980
0.436200,-1.854551
0.436300,-1.843190
0.436400,-1.839944
0.436500,-1.824040
0.436600,-1.856498
0.436700,-1.843839
0.436800,-1.874999
0.436900,-1.876622
0.437000,-2.050599
0.437100,-2.149597
0.437200,-2.159659
0.437300,-1.987305
0.437400,-1.876947
0.437500,-1.858770
0.437600,-2.021386
0.437700,-2.160957
0.437800,-2.167124
0.437900,-2.069749
0.438000,-1.912002
0.438100,-1.894799
0.438200,-1.982761
0.438300,-2.076565
0.438400,-2.108050
0.438500,-2.075916
0.438600,-2.002236
0.438700,-2.002560
0.438800,-2.003210
0.438900,-1.999964
0.439000,-1.989902
0.439100,-2.006131
0.439200,-1.997692
0.439300,-1.987305
0.439400,-2.039887
0.439500,-2.031124
0.439600,-1.972374
0.439700,-1.998341
0.439800,-2.017167
0.439900,-2.047677
0.440000,-2.036642
0.440100,-1.928880
0.440200,-1.831830
0.440300,-1.850006
0.440400,-1.993472
0.440500,-2.074942
0.440600,-2.066179
0.440700,-1.990875
0.440800,-1.879868
0.440900,-1.862990
0.441000,-1.956145
0.441100,-2.079162
0.441200,-2.178809
0.441300,-2.105129
0.441400,-2.054169
0.441500,-2.037291
0.441600,-2.024957
0.441700,-2.040537
0.441800,-2.042484
0.441900,-2.030799
0.442000,-2.017816
0.442100,-1.986980
0.442200,-1.910703
0.442300,-1.839295
0.442400,-1.768212
0.442500,-1.716603
0.442600,-1.691610
0.442700,-1.702646
0.442800,-1.719849
0.442900,-1.670837
0.443000,-1.574760
0.443100,-1.552689
0.443200,-1.550092
0.443300,-1.561777
0.443400,-1.489395
0.443500,-1.469596
0.443600,-1.438111
0.443700,-1.421233
0.443800,-1.387152
0.443900,-1.392020
0.444000,-1.392670
0.444100,-1.439085
0.444200,-1.440383
0.444300,-1.510818
0.444400,-1.505300
0.444500,-1.519581
0.444600,-1.536784
0.444700,-1.533538
0.444800,-1.558207
0.444900,-1.582226
0.445000,-1.625071
0.445100,-1.660775
0.445200,-1.634484
0.445300,-1.553013
0.445400,-1.378063
0.445500,-1.391371
0.445600,-1.533214
0.445700,-1.743543
0.445800,-1.700049
0.445900,-1.674732
0.446000,-1.548469
0.446100,-1.478684
0.446200,-1.544574
0.446300,-1.637405
0.446400,-1.700049
0.446500,-1.626369
0.446600,-1.514388
0.446700,-1.471219
0.446800,-1.461157
0.446900,-1.472192
0.447000,-1.491018
0.447100,-1.486799
0.447200,-1.492316
0.447300,-1.461481
0.447400,-1.441032
0.447500,-1.451744
0.447600,-1.449796
0.447700,-1.452068
0.447800,-1.437462
0.447900,-1.529319
0.448000,-1.513414
0.448100,-1.533538
0.448200,-1.459858
0.448300,-1.442980
0.448400,-1.432593
0.448500,-1.651362
0.448600,-1.682846
0.448700,-1.634808
0.448800,-1.504326
0.448900,-1.426102
0.449000,-1.477710
0.449100,-1.572813
0.449200,-1.689338
0.449300,-1.648765
0.449400,-1.539381
0.449500,-1.442006
0.449600,-1.421233
0.449700,-1.497834
0.449800,-1.513090
0.449900,-1.504326
0.450000,-1.529968
0.450100,-1.519257
0.450200,-1.569242
0.450300,-1.564374
0.450400,-1.561777
0.450500,-1.564374
0.450600,-1.586445
0.450700,-1.628316
0.450800,-1.665643
0.450900,-1.660775
0.451000,-1.654932
0.451100,-1.637405
0.451200,-1.665968
0.451300,-1.728288
0.451400,-1.766589
0.451500,-1.783142
0.451600,-1.764966
0.451700,-1.778923
0.451800,-1.814302
0.451900,-1.778923
0.452000,-1.748087
0.452100,-1.732183
0.452200,-1.749710
0.452300,-1.763018
0.452400,-1.765615
0.452500,-1.765290
0.452600,-1.744192
0.452700,-1.748087
0.452800,-1.750360
0.452900,-1.763992
0.453000,-1.728288
0.453100,-1.721796
0.453200,-1.724718
0.453300,-1.704918
0.453400,-1.713357
0.453500,-1.718550
0.453600,-1.764641
0.453700,-1.908431
0.453800,-1.991525
0.453900,-1.901291
0.454000,-1.770484
0.454100,-1.692584
0.454200,-1.813004
0.454300,-1.996393
0.454400,-2.095716
0.454500,-2.090522
0.454600,-1.951276
0.454700,-1.892851
0.454800,-1.877271
0.454900,-1.989902
0.455000,-2.057090
0.455100,-2.110647
0.455200,-2.106427
0.455300,-2.065530
0.455400,-2.054818
0.455500,-2.034694
0.455600,-2.070398
0.455700,-2.113568
0.455800,-2.132394
0.455900,-2.109673
0.456000,-2.123954
0.456100,-2.185950
0.456200,-2.196661
0.456300,-2.159983
0.456400,-2.173616
0.456500,-2.200232
0.456600,-2.205749
0.456700,-2.152193
0.456800,-2.013596
0.456900,-1.967181
0.457000,-2.030475
0.457100,-2.159334
0.457200,-2.208995
0.457300,-2.170370
0.457400,-2.081110
0.457500,-1.966856
0.457600,-1.985682
0.457700,-2.086627
0.457800,-2.154465
0.457900,-2.205749
0.458000,-2.113568
0.458100,-2.030475
0.458200,-1.975945
0.458300,-1.937644
0.458400,-1.929529
0.458500,-1.911677
0.458600,-1.892527
0.458700,-1.853901
0.458800,-1.779572
0.458900,-1.685443
0.459000,-1.600078
0.459100,-1.523801
0.459200,-1.500431
0.459300,-1.466025
0.459400,-1.482579
0.459500,-1.468946
0.459600,-1.400784
0.459700,-1.328727
0.459800,-1.298541
0.459900,-1.299190
0.460000,-1.270627
0.460100,-1.217071
0.460200,-1.182016
0.460300,-1.145013
0.460400,-1.093405
0.460500,-1.059973
0.460600,-1.054779
0.460700,-1.043744
0.460800,-1.075228
0.460900,-1.070035
0.461000,-1.101844
0.461100,-1.124240
0.461200,-1.107037
0.461300,-1.109634
0.461400,-1.109958
0.461500,-1.173901
0.461600,-1.190779
0.461700,-1.282312
0.461800,-1.291725
0.461900,-1.259591
0.462000,-1.154751
0.462100,-1.075877
0.462200,-1.174226
0.462300,-1.425777
0.462400,-1.512116
0.462500,-1.501080
0.462600,-1.429997
0.462700,-1.317367
0.462800,-1.310550
0.462900,-1.403056
0.463000,-1.498159
0.463100,-1.491992
0.463200,-1.442331
0.463300,-1.346579
0.463400,-1.310875
0.463500,-1.309901
0.463600,-1.333920
0.463700,-1.356966
0.463800,-1.362159
0.463900,-1.347228
0.464000,-1.316393
0.464100,-1.315744
0.464200,-1.334894
0.464300,-1.327104
0.464400,-1.345605
0.464500,-1.372221
0.464600,-1.417338
0.464700,-1.440383
0.464800,-1.391371
0.464900,-1.365405
0.465000,-1.371247
0.465100,-1.444927
0.465200,-1.645844
0.465300,-1.629939
0.465400,-1.562426
0.465500,-1.427075
0.465600,-1.448822
0.465700,-1.511142
0.465800,-1.625071
0.465900,-1.626369
0.466000,-1.553987
0.466100,-1.453691
0.466200,-1.405653
0.466300,-1.445901
0.466400,-1.506923
0.466500,-1.517309
0.466600,-1.493615
0.466700,-1.500106
0.466800,-1.511467
0.466900,-1.544574
0.467000,-1.520880
0.467100,-1.479333
0.467200,-1.455639
0.467300,-1.483877
0.467400,-1.556908
0.467500,-1.602674
0.467600,-1.614035
0.467700,-1.622149
0.467800,-1.611438
0.467900,-1.686741
0.468000,-1.769185
0.468100,-1.816899
0.468200,-1.812355
0.468300,-1.820469
0.468400,-1.856498
0.468500,-1.881816
0.468600,-1.826312
0.468700,-1.838321
0.468800,-1.835076
0.468900,-1.840269
0.469000,-1.850980
0.469100,-1.878570
0.469200,-1.894150
0.469300,-1.890904
0.469400,-1.884737
0.469500,-1.878894
0.469600,-1.874026
0.469700,-1.870780
0.469800,-1.853901
0.469900,-1.854875
0.470000,-1.862341
0.470100,-1.845462
0.470200,-1.874999
0.470300,-1.968155
0.470400,-2.135639
0.470500,-2.146351
0.470600,-2.026904
0.470700,-1.892202
0.470800,-1.875973
0.470900,-2.059687
0.471000,-2.223926
0.471100,-2.260604
0.471200,-2.225224
0.471300,-2.098637
0.471400,-2.084031
0.471500,-2.115191
0.471600,-2.187248
0.471700,-2.252814
0.471800,-2.196012
0.471900,-2.161282
0.472000,-2.108374
0.472100,-2.079487
0.472200,-2.073320
0.472300,-2.097339
0.472400,-2.104479
0.472500,-2.082408
0.472600,-2.082083
0.472700,-2.140833
0.472800,-2.150246
0.472900,-2.153167
0.473000,-2.174914
0.473100,-2.203477
0.473200,-2.264499
0.473300,-2.282676
0.473400,-2.186599
0.473500,-2.093444
0.473600,-2.085329
0.473700,-2.177186
0.473800,-2.312213
0.473900,-2.330065
0.474000,-2.245349
0.474100,-2.135315
0.474200,-2.089224
0.474300,-2.151544
0.474400,-2.255411
0.474500,-2.306370
0.474600,-2.296957
0.474700,-2.206399
0.474800,-2.134990
0.474900,-2.121033
0.475000,-2.129472
0.475100,-2.148623
0.475200,-2.127849
0.475300,-2.070074
0.475400,-2.024632
0.475500,-1.961338
0.475600,-1.892851
0.475700,-1.837997
0.475800,-1.760422
0.475900,-1.734130
0.476000,-1.729911
0.476100,-1.727314
0.476200,-1.714655
0.476300,-1.611438
0.476400,-1.563075
0.476500,-1.543925
0.476600,-1.533538
0.476700,-1.487123
0.476800,-1.452393
0.476900,-1.409223
0.477000,-1.355992
0.477100,-1.293347
0.477200,-1.274846
0.477300,-1.293023
0.477400,-1.343982
0.477500,-1.351772
0.477600,-1.373844
0.477700,-1.426751
0.477800,-1.427400
0.477900,-1.450770
0.478000,-1.465701
0.478100,-1.502378
0.478200,-1.522827
0.478300,-1.571839
0.478400,-1.623448
0.478500,-1.566646
0.478600,-1.544574
0.478700,-1.337815
0.478800,-1.307954
0.478900,-1.412145
0.479000,-1.623448
0.479100,-1.623123
0.479200,-1.537433
0.479300,-1.396565
0.479400,-1.284908
0.479500,-1.294321
0.479600,-1.368326
0.479700,-1.444927
0.479800,-1.379686
0.479900,-1.263486
0.480000,-1.157023
0.480100,-1.104765
0.480200,-1.140469
0.480300,-1.181367
0.480400,-1.199543
0.480500,-1.155075
0.480600,-1.108336
0.480700,-1.109958
0.480800,-1.151505
0.480900,-1.204087
0.481000,-1.203763
0.481100,-1.236221
0.481200,-1.314121
0.481300,-1.293672
0.481400,-1.350474
0.481500,-1.271925
0.481600,-1.294321
0.481700,-1.282636
0.481800,-1.447524
0.481900,-1.539705
0.482000,-1.545548
0.482100,-1.435839
0.482200,-1.331324
0.482300,-1.418961
0.482400,-1.492966
0.482500,-1.625395
0.482600,-1.627343
0.482700,-1.564049
0.482800,-1.465376
0.482900,-1.416040
0.483000,-1.461157
0.483100,-1.517958
0.483200,-1.541328
0.483300,-1.576059
0.483400,-1.498808
0.483500,-1.474140
0.483600,-1.438436
0.483700,-1.425777
0.483800,-1.411495
0.483900,-1.405653
0.484000,-1.415390
0.484100,-1.424803
0.484200,-1.406951
0.484300,-1.406951
0.484400,-1.403705
0.484500,-1.403381
0.484600,-1.466025
0.484700,-1.533214
0.484800,-1.545873
0.484900,-1.539705
0.485000,-1.544250
0.485100,-1.589691
0.485200,-1.606894
0.485300,-1.555285
0.485400,-1.565672
0.485500,-1.556259
0.485600,-1.565023
0.485700,-1.546846
0.485800,-1.558207
0.485900,-1.532240
0.486000,-1.533538
0.486100,-1.530293
0.486200,-1.530617
0.486300,-1.506923
0.486400,-1.518608
0.486500,-1.521204
0.486600,-1.529319
0.486700,-1.535810
0.486800,-1.568269
0.486900,-1.591314
0.487000,-1.762045
0.487100,-1.866236
0.487200,-1.862990
0.487300,-1.744517
0.487400,-1.645195
0.487500,-1.711085
0.487600,-1.905186
0.487700,-2.034370
0.487800,-2.109997
0.487900,-2.044107
0.488000,-1.956470
0.488100,-1.956794
0.488200,-2.043133
0.488300,-2.170370
0.488400,-2.203477
0.488500,-2.225874
0.488600,-2.141482
0.488700,-2.159983
0.488800,-2.144403
0.488900,-2.224575
0.489000,-2.267096
0.489100,-2.281702
0.489200,-2.279105
0.489300,-2.328442
0.489400,-2.402771
0.489500,-2.394657
0.489600,-2.371287
0.489700,-2.410886
0.489800,-2.463144
0.489900,-2.484891
0.490000,-2.456652
0.490100,-2.314160
0.490200,-2.238532
0.490300,-2.258656
0.490400,-2.361549
0.490500,-2.447239
0.490600,-2.395306
0.490700,-2.283974
0.490800,-2.190819
0.490900,-2.151219
0.491000,-2.208346
0.491100,-2.273912
0.491200,-2.296633
0.491300,-2.269043
0.491400,-2.184976
0.491500,-2.098312
0.491600,-2.053195
0.491700,-2.046055
0.491800,-2.069749
0.491900,-2.062608
0.492000,-2.044756
0.492100,-1.961988
0.492200,-1.869157
0.492300,-1.788336
0.492400,-1.711085
0.492500,-1.645195
0.492600,-1.602025
0.492700,-1.601701
0.492800,-1.582875
0.492900,-1.525748
0.493000,-1.423830
0.493100,-1.412794
0.493200,-1.402732
0.493300,-1.379037
0.493400,-1.287180
0.493500,-1.253424
0.493600,-1.207658
0.493700,-1.151180
0.493800,-1.093729
0.493900,-1.071333
0.494000,-1.065815
0.494100,-1.092431
0.494200,-1.055429
0.494300,-1.109309
0.494400,-1.098598
0.494500,-1.087562
0.494600,-1.089834
0.494700,-1.083667
0.494800,-1.083992
0.494900,-1.118398
0.495000,-1.118722
0.495100,-1.145662
0.495200,-1.064517
0.495300,-0.990188
0.495400,-0.782131
0.495500,-0.841204
0.495600,-0.965519
0.495700,-1.147610
0.495800,-1.141118
0.495900,-1.089510
0.496000,-0.980775
0.496100,-0.922675
0.496200,-1.001223
0.496300,-1.099247
0.496400,-1.166760
0.496500,-1.112231
0.496600,-1.040498
0.496700,-0.986293
0.496800,-0.990188
0.496900,-1.065491
0.497000,-1.107686
0.497100,-1.129758
0.497200,-1.116775
0.497300,-1.091782
0.497400,-1.128460
0.497500,-1.136250
0.497600,-1.128784
0.497700,-1.134951
0.497800,-1.182016
0.497900,-1.270302
0.498000,-1.260565
0.498100,-1.247257
0.498200,-1.190130
0.498300,-1.201815
0.498400,-1.280040
0.498500,-1.436488
0.498600,-1.480631
0.498700,-1.446875
0.498800,-1.306655
0.498900,-1.264135
0.499000,-1.378713
0.499100,-1.489071
0.499200,-1.548145
0.499300,-1.520555
0.499400,-1.442006
0.499500,-1.410197
0.499600,-1.405977
0.499700,-1.459858
0.499800,-1.503677
0.499900,-1.493290
0.500000,-1.523801
0.500100,-1.495238
0.500200,-1.523801
0.500300,-1.512441
0.500400,-1.523152
0.500500,-1.527371
0.500600,-1.528020
0.500700,-1.573787
0.500800,-1.625071
0.500900,-1.638054
0.501000,-1.650064
0.501100,-1.651686
0.501200,-1.689013
0.501300,-1.778598
0.501400,-1.827935
0.501500,-1.840594
0.501600,-1.850331
0.501700,-1.895448
0.501800,-1.966532
0.501900,-1.930828
0.502000,-1.936995
0.502100,-1.945758
0.502200,-1.955171
0.502300,-1.981138
0.502400,-1.999964
0.502500,-2.000938
0.502600,-2.011324
0.502700,-2.015868
0.502800,-2.023983
0.502900,-2.022360
0.503000,-2.007754
0.503100,-2.029176
0.503200,-2.008403
0.503300,-2.035019
0.503400,-2.038914
0.503500,-2.091821
0.503600,-2.168747
0.503700,-2.356681
0.503800,-2.427764
0.503900,-2.356681
0.504000,-2.220356
0.504100,-2.146675
0.504200,-2.251840
0.504300,-2.456003
0.504400,-2.561817
0.504500,-2.539097
0.504600,-2.407640
0.504700,-2.326170
0.504800,-2.346294
0.504900,-2.455354
0.505000,-2.550782
0.505100,-2.548509
0.505200,-2.505015
0.505300,-2.435554
0.505400,-2.423869
0.505500,-2.419325
0.505600,-2.456003
0.505700,-2.443669
0.505800,-2.406017
0.505900,-2.371936
0.506000,-2.407640
0.506100,-2.451134
0.506200,-2.391736
0.506300,-2.367067
0.506400,-2.376480
0.506500,-2.411860
0.506600,-2.399850
0.506700,-2.310265
0.506800,-2.205749
0.506900,-2.148298
0.507000,-2.205425
0.507100,-2.332661
0.507200,-2.365120
0.507300,-2.280728
0.507400,-2.183678
0.507500,-2.104479
0.507600,-2.125577
0.507700,-2.209969
0.507800,-2.297931
0.507900,-2.341425
0.508000,-2.267745
0.508100,-2.169396
0.508200,-2.129472
0.508300,-2.125577
0.508400,-2.152842
0.508500,-2.147974
0.508600,-2.100584
0.508700,-2.064231
0.508800,-1.974971
0.508900,-1.882140
0.509000,-1.797424
0.509100,-1.708813
0.509200,-1.650064
0.509300,-1.638054
0.509400,-1.606245
0.509500,-1.590016
0.509600,-1.462455
0.509700,-1.382932
0.509800,-1.343333
0.509900,-1.331648
0.510000,-1.260240
0.510100,-1.218693
0.510200,-1.179744
0.510300,-1.131705
0.510400,-1.062245
0.510500,-1.030111
0.510600,-1.007390
0.510700,-1.044068
0.510800,-1.056727
0.510900,-1.064842
0.511000,-1.120345
0.511100,-1.104116
0.511200,-1.135276
0.511300,-1.100221
0.511400,-1.158970
0.511500,-1.157023
0.511600,-1.228756
0.511700,-1.267705
0.511800,-1.273223
0.511900,-1.256345
0.512000,-1.098273
0.512100,-1.040498
0.512200,-1.068087
0.512300,-1.298216
0.512400,-1.371896
0.512500,-1.336517
0.512600,-1.259266
0.512700,-1.132030
0.512800,-1.142092
0.512900,-1.251801
0.513000,-1.348526
0.513100,-1.343333
0.513200,-1.281662
0.513300,-1.195324
0.513400,-1.173577
0.513500,-1.212526
0.513600,-1.244335
0.513700,-1.299839
0.513800,-1.313147
0.513900,-1.305032
0.514000,-1.260565
0.514100,-1.260889
0.514200,-1.257643
0.514300,-1.257968
0.514400,-1.305032
0.514500,-1.323534
0.514600,-1.347228
0.514700,-1.354693
0.514800,-1.289452
0.514900,-1.247257
0.515000,-1.244335
0.515100,-1.321261
0.515200,-1.453042
0.515300,-1.454989
0.515400,-1.375142
0.515500,-1.241739
0.515600,-1.246283
0.515700,-1.303085
0.515800,-1.422531
0.515900,-1.442006
0.516000,-1.393319
0.516100,-1.291400
0.516200,-1.234923
0.516300,-1.222913
0.516400,-1.313472
0.516500,-1.343333
0.516600,-1.373195
0.516700,-1.364756
0.516800,-1.366703
0.516900,-1.377090
0.517000,-1.364106
0.517100,-1.369949
0.517200,-1.387152
0.517300,-1.427725
0.517400,-1.465376
0.517500,-1.495562
0.517600,-1.507247
0.517700,-1.506273
0.517800,-1.502378
0.517900,-1.565672
0.518000,-1.651686
0.518100,-1.680899
0.518200,-1.686741
0.518300,-1.657854
0.518400,-1.701023
0.518500,-1.712059
0.518600,-1.639677
0.518700,-1.656880
0.518800,-1.641949
0.518900,-1.641300
0.519000,-1.638703
0.519100,-1.643247
0.519200,-1.627018
0.519300,-1.620851
0.519400,-1.614684
0.519500,-1.600727
0.519600,-1.584498
0.519700,-1.568593
0.519800,-1.541328
0.519900,-1.556259
0.520000,-1.578331
0.520100,-1.584173
0.520200,-1.608517
0.520300,-1.735753
0.520400,-1.920441
0.520500,-1.951925
0.520600,-1.858770
0.520700,-1.706541
0.520800,-1.719200
0.520900,-1.895123
0.521000,-2.068126
0.521100,-2.123954
0.521200,-2.059038
0.521300,-1.961338
0.521400,-1.942513
0.521500,-1.998990
0.521600,-2.088900
0.521700,-2.132394
0.521800,-2.114866
0.521900,-2.075592
0.522000,-2.040861
0.522100,-2.014570
0.522200,-2.003210
0.522300,-2.011649
0.522400,-2.021062
0.522500,-1.994446
0.522600,-2.007429
0.522700,-2.067152
0.522800,-2.056766
0.522900,-2.015544
0.523000,-2.005157
0.523100,-2.022035
0.523200,-2.043458
0.523300,-2.020088
0.523400,-1.910054
0.523500,-1.764966
0.523600,-1.744842
0.523700,-1.807486
0.523800,-1.908107
0.523900,-1.903887
0.524000,-1.795152
0.524100,-1.671161
0.524200,-1.583524
0.524300,-1.632861
0.524400,-1.728288
0.524500,-1.791582
0.524600,-1.772756
0.524700,-1.660775
0.524800,-1.583849
0.524900,-1.564049
0.525000,-1.578980
0.525100,-1.583524
0.525200,-1.558856
0.525300,-1.545223
0.525400,-1.513090
0.525500,-1.453367
0.525600,-1.401758
0.525700,-1.318340
0.525800,-1.254398
0.525900,-1.257643
0.526000,-1.266732
0.526100,-1.278092
0.526200,-1.272574
0.526300,-1.179094
0.526400,-1.147610
0.526500,-1.146961
0.526600,-1.169032
0.526700,-1.102168
0.526800,-1.075877
0.526900,-1.043095
0.527000,-1.010961
0.527100,-0.966493
0.527200,-0.947667
0.527300,-0.946369
0.527400,-0.982722
0.527500,-0.998951
0.527600,-1.020374
0.527700,-1.073281
0.527800,-1.075228
0.527900,-1.098598
0.528000,-1.081720
0.528100,-1.121643
0.528200,-1.118722
0.528300,-1.175199
0.528400,-1.202464
0.528500,-1.145662
0.528600,-1.059973
0.528700,-0.899305
0.528800,-0.756164
0.528900,-0.935982
0.529000,-1.046016
0.529100,-1.152154
0.529200,-0.980775
0.529300,-0.892488
0.529400,-0.787973
0.529500,-0.827572
0.529600,-0.953834
0.529700,-1.046340
0.529800,-1.033032
0.529900,-0.971686
0.530000,-0.932737
0.530100,-0.971362
0.530200,-1.026216
0.530300,-1.088861
0.530400,-1.125214
0.530500,-1.146312
0.530600,-1.168059
0.530700,-1.174226
0.530800,-1.232001
0.530900,-1.265758
0.531000,-1.271276
0.531100,-1.336517
0.531200,-1.397214
0.531300,-1.427075
0.531400,-1.464078
0.531500,-1.384230
0.531600,-1.383581
0.531700,-1.377090
0.531800,-1.575085
0.531900,-1.687715
0.532000,-1.653634
0.532100,-1.528020
0.532200,-1.426751
0.532300,-1.510818
0.532400,-1.589691
0.532500,-1.714655
0.532600,-1.679601
0.532700,-1.569892
0.532800,-1.453042
0.532900,-1.405328
0.533000,-1.480307
0.533100,-1.536784
0.533200,-1.526722
0.533300,-1.506273
0.533400,-1.471543
0.533500,-1.487448
0.533600,-1.472841
0.533700,-1.464402
0.533800,-1.418636
0.533900,-1.431295
0.534000,-1.451094
0.534100,-1.500431
0.534200,-1.497510
0.534300,-1.518608
0.534400,-1.519581
0.534500,-1.533214
0.534600,-1.605271
0.534700,-1.646493
0.534800,-1.676355
0.534900,-1.685768
0.535000,-1.680899
0.535100,-1.743543
0.535200,-1.746465
0.535300,-1.693233
0.535400,-1.697777
0.535500,-1.691610
0.535600,-1.702646
0.535700,-1.716928
0.535800,-1.738999
0.535900,-1.777949
0.536000,-1.792555
0.536100,-1.831830
0.536200,-1.859095
0.536300,-1.869806
0.536400,-1.913949
0.536500,-1.911353
0.536600,-1.961014
0.536700,-1.958093
0.536800,-2.010675
0.536900,-2.049950
0.537000,-2.258981
0.537100,-2.373559
0.537200,-2.355707
0.537300,-2.217434
0.537400,-2.150246
0.537500,-2.188547
0.537600,-2.392709
0.537700,-2.517349
0.537800,-2.519946
0.537900,-2.422571
0.538000,-2.289492
0.538100,-2.295334
0.538200,-2.368041
0.538300,-2.478724
0.538400,-2.496576
0.538500,-2.476452
0.538600,-2.419001
0.538700,-2.401149
0.538800,-2.381349
0.538900,-2.418351
0.539000,-2.438151
0.539100,-2.454380
0.539200,-2.437502
0.539300,-2.428738
0.539400,-2.504042
0.539500,-2.501769
0.539600,-2.470609
0.539700,-2.491058
0.539800,-2.496252
0.539900,-2.521569
0.540000,-2.479698
0.540100,-2.374857
0.540200,-2.282351
0.540300,-2.311564
0.540400,-2.434581
0.540500,-2.509235
0.540600,-2.474504
0.540700,-2.382647
0.540800,-2.263525
0.540900,-2.261253
0.541000,-2.349864
0.541100,-2.463144
0.541200,-2.511832
0.541300,-2.462170
0.541400,-2.399850
0.541500,-2.324871
0.541600,-2.314160
0.541700,-2.300528
0.541800,-2.305072
0.541900,-2.312862
0.542000,-2.275535
0.542100,-2.218733
0.542200,-2.146026
0.542300,-2.073969
0.542400,-2.001587
0.542500,-1.948355
0.542600,-1.946732
0.542700,-1.939267
0.542800,-1.940565
0.542900,-1.896422
0.543000,-1.800994
0.543100,-1.769835
0.543200,-1.745166
0.543300,-1.722770
0.543400,-1.657204
0.543500,-1.609491
0.543600,-1.564698
0.543700,-1.484526
0.543800,-1.462130
0.543900,-1.445577
0.544000,-1.449796
0.544100,-1.467648
0.544200,-1.476412
0.544300,-1.488097
0.544400,-1.483553
0.544500,-1.471219
0.544600,-1.447849
0.544700,-1.426426
0.544800,-1.424154
0.544900,-1.446226
0.545000,-1.442655
0.545100,-1.435190
0.545200,-1.378713
0.545300,-1.217395
0.545400,-1.102168
0.545500,-1.090484
0.545600,-1.262188
0.545700,-1.392020
0.545800,-1.385853
0.545900,-1.300164
0.546000,-1.181042
0.546100,-1.144040
0.546200,-1.206035
0.546300,-1.311199
0.546400,-1.356316
0.546500,-1.324507
0.546600,-1.267705
0.546700,-1.220641
0.546800,-1.229080
0.546900,-1.269328
0.547000,-1.310875
0.547100,-1.329701
0.547200,-1.354369
0.547300,-1.338789
0.547400,-1.359238
0.547500,-1.368001
0.547600,-1.394942
0.547700,-1.357939
0.547800,-1.467973
0.547900,-1.513739
0.548000,-1.516336
0.548100,-1.494913
0.548200,-1.423505
0.548300,-1.412469
0.548400,-1.453367
0.548500,-1.615658
0.548600,-1.640975
0.548700,-1.558207
0.548800,-1.393968
0.548900,-1.372870
0.549000,-1.407600
0.549100,-1.512765
0.549200,-1.560154
0.549300,-1.501405
0.549400,-1.422531
0.549500,-1.345281
0.549600,-1.331324
0.549700,-1.399810
0.549800,-1.401109
0.549900,-1.406302
0.550000,-1.396889
0.550100,-1.403705
0.550200,-1.408250
0.550300,-1.378063
0.550400,-1.364756
0.550500,-1.357615
0.550600,-1.367352
0.550700,-1.399486
0.550800,-1.421233
0.550900,-1.422207
0.551000,-1.402083
0.551100,-1.380660
0.551200,-1.402407
0.551300,-1.469920
0.551400,-1.507247
0.551500,-1.505300
0.551600,-1.510168
0.551700,-1.504326
0.551800,-1.539056
0.551900,-1.513414
0.552000,-1.491667
0.552100,-1.480956
0.552200,-1.489395
0.552300,-1.493290
0.552400,-1.511142
0.552500,-1.489720
0.552600,-1.493939
0.552700,-1.488746
0.552800,-1.479982
0.552900,-1.481930
0.553000,-1.467324
0.553100,-1.466674
0.553200,-1.459534
0.553300,-1.462779
0.553400,-1.462779
0.553500,-1.495562
0.553600,-1.554636
0.553700,-1.741596
0.553800,-1.759772
0.553900,-1.699725
0.554000,-1.539056
0.554100,-1.479009
0.554200,-1.562426
0.554300,-1.694856
0.554400,-1.792231
0.554500,-1.728937
0.554600,-1.609815
0.554700,-1.503028
0.554800,-1.563075
0.554900,-1.629290
0.555000,-1.695505
0.555100,-1.688364
0.555200,-1.629290
0.555300,-1.579954
0.555400,-1.596832
0.555500,-1.574436
0.555600,-1.566646
0.555700,-1.574436
0.555800,-1.553663
0.555900,-1.560154
0.556000,-1.593911
0.556100,-1.649739
0.556200,-1.653634
0.556300,-1.653959
0.556400,-1.667266
0.556500,-1.717252
0.556600,-1.745166
0.556700,-1.727639
0.556800,-1.607219
0.556900,-1.626044
0.557000,-1.727963
0.557100,-1.894474
0.557200,-1.976269
0.557300,-1.969128
0.557400,-1.875324
0.557500,-1.823391
0.557600,-1.912326
0.557700,-2.071047
0.557800,-2.196012
0.557900,-2.241454
0.558000,-2.182704
0.558100,-2.148298
0.558200,-2.130446
0.558300,-2.139534
0.558400,-2.170045
0.558500,-2.167773
0.558600,-2.143754
0.558700,-2.118112
0.558800,-2.071047
0.558900,-2.031448
0.559000,-1.976269
0.559100,-1.931801
0.559200,-1.896746
0.559300,-1.899668
0.559400,-1.906808
0.559500,-1.902913
0.559600,-1.823066
0.559700,-1.765615
0.559800,-1.741920
0.559900,-1.748412
0.560000,-1.686741
0.560100,-1.652660
0.560200,-1.610140
0.560300,-1.554636
0.560400,-1.516660
0.560500,-1.495238
0.560600,-1.502054
0.560700,-1.529968
0.560800,-1.528020
0.560900,-1.578980
0.561000,-1.591314
0.561100,-1.641624
0.561200,-1.610140
0.561300,-1.656231
0.561400,-1.636431
0.561500,-1.715305
0.561600,-1.708813
0.561700,-1.760746
0.561800,-1.744842
0.561900,-1.708488
0.562000,-1.572813
0.562100,-1.453691
0.562200,-1.550741
0.562300,-1.753281
0.562400,-1.834751
0.562500,-1.787687
0.562600,-1.640651
0.562700,-1.507247
0.562800,-1.488421
0.562900,-1.590016
0.563000,-1.678302
0.563100,-1.670188
0.563200,-1.551390
0.563300,-1.440708
0.563400,-1.417013
0.563500,-1.460832
0.563600,-1.523801
0.563700,-1.534512
0.563800,-1.496861
0.563900,-1.490369
0.564000,-1.489720
0.564100,-1.501729
0.564200,-1.515037
0.564300,-1.536784
0.564400,-1.576059
0.564500,-1.609166
0.564600,-1.625720
0.564700,-1.641624
0.564800,-1.592288
0.564900,-1.536784
0.565000,-1.484851
0.565100,-1.570865
0.565200,-1.697453
0.565300,-1.667916
0.565400,-1.524125
0.565500,-1.356966
0.565600,-1.345281
0.565700,-1.388775
0.565800,-1.508870
0.565900,-1.507896
0.566000,-1.389748
0.566100,-1.235572
0.566200,-1.170006
0.566300,-1.193376
0.566400,-1.246932
0.566500,-1.250827
0.566600,-1.261214
0.566700,-1.205386
0.566800,-1.198569
0.566900,-1.201491
0.567000,-1.212526
0.567100,-1.218693
0.567200,-1.239791
0.567300,-1.268679
0.567400,-1.301462
0.567500,-1.309901
0.567600,-1.328402
0.567700,-1.332946
0.567800,-1.349825
0.567900,-1.412794
0.568000,-1.497510
0.568100,-1.533538
0.568200,-1.554636
0.568300,-1.564374
0.568400,-1.623123
0.568500,-1.657529
0.568600,-1.613061
0.568700,-1.634484
0.568800,-1.628966
0.568900,-1.643572
0.569000,-1.645195
0.569100,-1.674083
0.569200,-1.661099
0.569300,-1.676030
0.569400,-1.666293
0.569500,-1.678627
0.569600,-1.679601
0.569700,-1.709138
0.569800,-1.709462
0.569900,-1.754904
0.570000,-1.722121
0.570100,-1.766589
0.570200,-1.784441
0.570300,-1.939916
0.570400,-2.114866
0.570500,-2.152842
0.570600,-2.037615
0.570700,-1.919143
0.570800,-1.920441
0.570900,-2.121033
0.571000,-2.282676
0.571100,-2.321950
0.571200,-2.244050
0.571300,-2.136613
0.571400,-2.119410
0.571500,-2.198284
0.571600,-2.294685
0.571700,-2.371936
0.571800,-2.328442
0.571900,-2.262876
0.572000,-2.214189
0.572100,-2.190819
0.572200,-2.215162
0.572300,-2.224251
0.572400,-2.201854
0.572500,-2.173291
0.572600,-2.163554
0.572700,-2.139859
0.572800,-2.147974
0.572900,-2.109997
0.573000,-2.086303
0.573100,-2.079487
0.573200,-2.102857
0.573300,-2.075916
0.573400,-1.990551
0.573500,-1.872403
0.573600,-1.885386
0.573700,-1.976594
0.573800,-2.080136
0.573900,-2.094742
0.574000,-1.991525
0.574100,-1.849682
0.574200,-1.775028
0.574300,-1.835400
0.574400,-1.963286
0.574500,-2.015544
0.574600,-1.955820
0.574700,-1.850331
0.574800,-1.775677
0.574900,-1.771782
0.575000,-1.775352
0.575100,-1.786064
0.575200,-1.775677
0.575300,-1.750035
0.575400,-1.714331
0.575500,-1.658827
0.575600,-1.611438
0.575700,-1.529643
0.575800,-1.470894
0.575900,-1.443954
0.576000,-1.443304
0.576100,-1.429023
0.576200,-1.376440
0.576300,-1.285557
0.576400,-1.254073
0.576500,-1.207009
0.576600,-1.203114
0.576700,-1.112880
0.576800,-1.082044
0.576900,-1.044717
0.577000,-1.009013
0.577100,-0.966818
0.577200,-0.942799
0.577300,-0.934360
0.577400,-0.966169
0.577500,-0.979152
0.577600,-0.999601
0.577700,-1.012584
0.577800,-0.991486
0.577900,-0.963896
0.578000,-0.974608
0.578100,-0.982073
0.578200,-1.021672
0.578300,-1.042121
0.578400,-1.094054
0.578500,-1.048288
0.578600,-0.980126
0.578700,-0.782780
0.578800,-0.750646
0.578900,-0.841204
0.579000,-1.077825
0.579100,-1.055753
0.579200,-0.993758
0.579300,-0.839582
0.579400,-0.761682
0.579500,-0.830818
0.579600,-0.944746
0.579700,-1.008364
0.579800,-0.951887
0.579900,-0.849644
0.580000,-0.782780
0.580100,-0.789271
0.580200,-0.843801
0.580300,-0.891190
0.580400,-0.897357
0.580500,-0.898006
0.580600,-0.904173
0.580700,-0.918780
0.580800,-0.950913
0.580900,-0.973309
0.581000,-1.008040
0.581100,-1.032383
0.581200,-1.081071
0.581300,-1.101519
0.581400,-1.151830
0.581500,-1.144364
0.581600,-1.132030
0.581700,-1.110932
0.581800,-1.298216
0.581900,-1.378388
0.582000,-1.347228
0.582100,-1.223238
0.582200,-1.122617
0.582300,-1.159620
0.582400,-1.307629
0.582500,-1.398512
0.582600,-1.392020
0.582700,-1.276794
0.582800,-1.175849
0.582900,-1.159944
0.583000,-1.268679
0.583100,-1.321911
0.583200,-1.322884
0.583300,-1.319639
0.583400,-1.264135
0.583500,-1.283935
0.583600,-1.284908
0.583700,-1.293997
0.583800,-1.289452
0.583900,-1.258617
0.584000,-1.289128
0.584100,-1.341710
0.584200,-1.351123
0.584300,-1.348202
0.584400,-1.336841
0.584500,-1.358913
0.584600,-1.438760
0.584700,-1.514388
0.584800,-1.539056
0.584900,-1.548469
0.585000,-1.570541
0.585100,-1.638379
0.585200,-1.639677
0.585300,-1.603324
0.585400,-1.602350
0.585500,-1.590989
0.585600,-1.599104
0.585700,-1.609815
0.585800,-1.603324
0.585900,-1.625395
0.586000,-1.620851
0.586100,-1.652011
0.586200,-1.647467
0.586300,-1.658178
0.586400,-1.677004
0.586500,-1.699725
0.586600,-1.747114
0.586700,-1.772107
0.586800,-1.798398
0.586900,-1.903887
0.587000,-2.094093
0.587100,-2.227496
0.587200,-2.194389
0.587300,-2.075592
0.587400,-1.990875
0.587500,-2.104155
0.587600,-2.325845
0.587700,-2.488786
0.587800,-2.489111
0.587900,-2.363497
0.588000,-2.286571
0.588100,-2.305396
0.588200,-2.386218
0.588300,-2.493006
0.588400,-2.519946
0.588500,-2.468986
0.588600,-2.414456
0.588700,-2.373234
0.588800,-2.400824
0.588900,-2.420624
0.589000,-2.436853
0.589100,-2.406666
0.589200,-2.372910
0.589300,-2.352786
0.589400,-2.377129
0.589500,-2.403096
0.589600,-2.389788
0.589700,-2.350514
0.589800,-2.356356
0.589900,-2.345645
0.590000,-2.330065
0.590100,-2.224575
0.590200,-2.114866
0.590300,-2.142780
0.590400,-2.234313
0.590500,-2.291764
0.590600,-2.276833
0.590700,-2.123305
0.590800,-1.967830
0.590900,-1.936346
0.591000,-2.023983
0.591100,-2.145702
0.591200,-2.181081
0.591300,-2.087277
0.591400,-1.968804
0.591500,-1.912651
0.591600,-1.897720
0.591700,-1.914274
0.591800,-1.919143
0.591900,-1.895773
0.592000,-1.853577
0.592100,-1.765615
0.592200,-1.709787
0.592300,-1.658827
0.592400,-1.604297
0.592500,-1.553987
0.592600,-1.542951
0.592700,-1.529643
0.592800,-1.535486
0.592900,-1.443304
0.593000,-1.362808
0.593100,-1.340736
0.593200,-1.318989
0.593300,-1.285557
0.593400,-1.223562
0.593500,-1.191104
0.593600,-1.151830
0.593700,-1.116450
0.593800,-1.074579
0.593900,-1.065166
0.594000,-1.112880
0.594100,-1.143390
0.594200,-1.174226
0.594300,-1.221939
0.594400,-1.261214
0.594500,-1.260889
0.594600,-1.295619
0.594700,-1.314770
0.594800,-1.396889
0.594900,-1.413118
0.595000,-1.482579
0.595100,-1.474464
0.595200,-1.495562
0.595300,-1.361834
0.595400,-1.257319
0.595500,-1.235896
0.595600,-1.489395
0.595700,-1.580278
0.595800,-1.550417
0.595900,-1.465701
0.596000,-1.333271
0.596100,-1.286856
0.596200,-1.371572
0.596300,-1.490369
0.596400,-1.530293
0.596500,-1.462779
0.596600,-1.370598
0.596700,-1.304708
0.596800,-1.318989
0.596900,-1.354044
0.597000,-1.395915
0.597100,-1.393968
0.597200,-1.393319
0.597300,-1.380011
0.597400,-1.366054
0.597500,-1.340087
0.597600,-1.374168
0.597700,-1.388450
0.597800,-1.445577
0.597900,-1.424479
0.598000,-1.426751
0.598100,-1.433567
0.598200,-1.397214
0.598300,-1.391047
0.598400,-1.405328
0.598500,-1.589691
0.598600,-1.645195
0.598700,-1.580278
0.598800,-1.458560
0.598900,-1.427400
0.599000,-1.518283
0.599100,-1.667591
0.599200,-1.726665
0.599300,-1.672135
0.599400,-1.555285
0.599500,-1.519581
0.599600,-1.548794
0.599700,-1.605271
0.599800,-1.603324
0.599900,-1.583849
0.600000,-1.562426
0.600100,-1.553987
0.600200,-1.587095
0.600300,-1.528994
0.600400,-1.481605
0.600500,-1.448173
0.600600,-1.460183
0.600700,-1.473815
0.600800,-1.463429
0.600900,-1.453042
0.601000,-1.403381
0.601100,-1.378063
0.601200,-1.407925
0.601300,-1.472192
0.601400,-1.501405
0.601500,-1.509519
0.601600,-1.498159
0.601700,-1.537758
0.601800,-1.574436
0.601900,-1.517309
0.602000,-1.512765
0.602100,-1.488421
0.602200,-1.479333
0.602300,-1.483228
0.602400,-1.472517
0.602500,-1.467973
0.602600,-1.453691
0.602700,-1.450445
0.602800,-1.459858
0.602900,-1.454340
0.603000,-1.466025
0.603100,-1.472841
0.603200,-1.491992
0.603300,-1.495887
0.603400,-1.540030
0.603500,-1.544574
0.603600,-1.652336
0.603700,-1.811381
0.603800,-1.866885
0.603900,-1.784116
0.604000,-1.628966
0.604100,-1.577032
0.604200,-1.712059
0.604300,-1.869806
0.604400,-1.970427
0.604500,-1.912651
0.604600,-1.816899
0.604700,-1.766264
0.604800,-1.842541
0.604900,-1.941214
0.605000,-2.003210
0.605100,-2.030475
0.605200,-1.986331
0.605300,-1.992823
0.605400,-1.961988
0.605500,-1.995420
0.605600,-2.003859
0.605700,-2.023334
0.605800,-2.033071
0.605900,-2.052222
0.606000,-2.054169
0.606100,-2.098312
0.606200,-2.100260
0.606300,-2.112919
0.606400,-2.119735
0.606500,-2.169396
0.606600,-2.197959
0.606700,-2.157387
0.606800,-2.040861
0.606900,-2.013921
0.607000,-2.069749
0.607100,-2.189845
0.607200,-2.236585
0.607300,-2.196986
0.607400,-2.068126
0.607500,-2.004833
0.607600,-2.085005
0.607700,-2.228795
0.607800,-2.301177
0.607900,-2.261578
0.608000,-2.167124
0.608100,-2.124279
0.608200,-2.127200
0.608300,-2.122656
0.608400,-2.090847
0.608500,-2.020412
0.608600,-2.011973
0.608700,-1.971725
0.608800,-1.908756
0.608900,-1.813329
0.609000,-1.699725
0.609100,-1.614035
0.609200,-1.558856
0.609300,-1.551066
0.609400,-1.551066
0.609500,-1.528994
0.609600,-1.422531
0.609700,-1.356966
0.609800,-1.339438
0.609900,-1.331324
0.610000,-1.257968
0.610100,-1.209281
0.610200,-1.151180
0.610300,-1.095352
0.610400,-1.044393
0.610500,-1.003171
0.610600,-1.032383
0.610700,-1.035954
0.610800,-1.054455
0.610900,-1.070035
0.611000,-1.103791
0.611100,-1.133328
0.611200,-1.093729
0.611300,-1.137873
0.611400,-1.108011
0.611500,-1.171629
0.611600,-1.159620
0.611700,-1.214474
0.611800,-1.151505
0.611900,-1.083667
0.612000,-0.946369
0.612100,-0.772718
0.612200,-0.816212
0.612300,-0.962274
0.612400,-0.953834
0.612500,-0.849319
0.612600,-0.706503
0.612700,-0.509482
0.612800,-0.472479
0.612900,-0.514026
0.613000,-0.554923
0.613100,-0.501043
0.613200,-0.377702
0.613300,-0.267668
0.613400,-0.260203
0.613500,-0.309864
0.613600,-0.353358
0.613700,-0.331936
0.613800,-0.328041
0.613900,-0.319926
0.614000,-0.334532
0.614100,-0.382895
0.614200,-0.393281
0.614300,-0.404966
0.614400,-0.464365
0.614500,-0.515649
0.614600,-0.549081
0.614700,-0.597768
0.614800,-0.622112
0.614900,-0.613023
0.615000,-0.628603
0.615100,-0.774016
0.615200,-0.974608
0.615300,-1.005118
0.615400,-0.947667
0.615500,-0.816861
0.615600,-0.845749
0.615700,-0.985319
0.615800,-1.159295
0.615900,-1.217071
0.616000,-1.110932
0.616100,-1.028813
0.616200,-1.038226
0.616300,-1.148908
0.616400,-1.256020
0.616500,-1.269004
0.616600,-1.295619
0.616700,-1.256670
0.616800,-1.290426
0.616900,-1.309901
0.617000,-1.327753
0.617100,-1.355018
0.617200,-1.354693
0.617300,-1.405977
0.617400,-1.440708
0.617500,-1.435190
0.617600,-1.463429
0.617700,-1.433892
0.617800,-1.427725
0.617900,-1.461481
0.618000,-1.521204
0.618100,-1.533538
0.618200,-1.514063
0.618300,-1.511467
0.618400,-1.552689
0.618500,-1.541328
0.618600,-1.490694
0.618700,-1.466350
0.618800,-1.475114
0.618900,-1.453042
0.619000,-1.448498
0.619100,-1.459858
0.619200,-1.451744
0.619300,-1.462455
0.619400,-1.473491
0.619500,-1.479333
0.619600,-1.499782
0.619700,-1.483553
0.619800,-1.517309
0.619900,-1.523476
0.620000,-1.539381
0.620100,-1.533214
0.620200,-1.597157
0.620300,-1.706865
0.620400,-1.879868
0.620500,-1.851305
0.620600,-1.732832
0.620700,-1.623123
0.620800,-1.617605
0.620900,-1.816574
0.621000,-2.005157
0.621100,-2.030799
0.621200,-1.956470
0.621300,-1.822417
0.621400,-1.815276
0.621500,-1.901615
0.621600,-2.049950
0.621700,-2.131420
0.621800,-2.102857
0.621900,-2.038914
0.622000,-2.029825
0.622100,-2.097663
0.622200,-2.131095
0.622300,-2.182055
0.622400,-2.191468
0.622500,-2.167449
0.622600,-2.174589
0.622700,-2.212890
0.622800,-2.252814
0.622900,-2.241129
0.623000,-2.207048
0.623100,-2.225874
0.623200,-2.241778
0.623300,-2.245349
0.623400,-2.149597
0.623500,-2.060336
0.623600,-2.049300
0.623700,-2.113568
0.623800,-2.213539
0.623900,-2.233988
0.624000,-2.104804
0.624100,-1.963286
0.624200,-1.930503
0.624300,-2.023983
0.624400,-2.126227
0.624500,-2.162580
0.624600,-2.117463
0.624700,-2.014245
0.624800,-1.961014
0.624900,-1.946083
0.625000,-1.951925
0.625100,-1.951925
0.625200,-1.912651
0.625300,-1.879544
0.625400,-1.800345
0.625500,-1.729911
0.625600,-1.655581
0.625700,-1.565672
0.625800,-1.494588
0.625900,-1.465376
0.626000,-1.458884
0.626100,-1.472517
0.626200,-1.405328
0.626300,-1.300164
0.626400,-1.266407
0.626500,-1.249204
0.626600,-1.251801
0.626700,-1.155075
0.626800,-1.118722
0.626900,-1.071009
0.627000,-1.022646
0.627100,-0.965519
0.627200,-0.924622
0.627300,-0.919429
0.627400,-0.934684
0.627500,-0.942799
0.627600,-0.964870
0.627700,-0.990188
0.627800,-0.967467
0.627900,-0.942474
0.628000,-0.961624
0.628100,-0.989538
0.628200,-1.023944
0.628300,-1.027190
0.628400,-1.045691
0.628500,-1.006092
0.628600,-0.959352
0.628700,-0.763629
0.628800,-0.754866
0.628900,-0.883400
0.629000,-1.039524
0.629100,-1.084966
0.629200,-1.049586
0.629300,-0.929166
0.629400,-0.847696
0.629500,-0.917481
0.629600,-1.077825
0.629700,-1.144364
0.629800,-1.130083
0.629900,-1.021023
0.630000,-0.982073
0.630100,-1.006092
0.630200,-1.043095
0.630300,-1.082694
0.630400,-1.091457
0.630500,-1.067438
0.630600,-1.064192
0.630700,-1.071982
0.630800,-1.085615
0.630900,-1.105090
0.631000,-1.128135
0.631100,-1.201815
0.631200,-1.261538
0.631300,-1.317042
0.631400,-1.337491
0.631500,-1.321261
0.631600,-1.293023
0.631700,-1.318989
0.631800,-1.504326
0.631900,-1.572164
0.632000,-1.541328
0.632100,-1.449472
0.632200,-1.337491
0.632300,-1.428698
0.632400,-1.559505
0.632500,-1.641300
0.632600,-1.594235
0.632700,-1.471219
0.632800,-1.390722
0.632900,-1.407600
0.633000,-1.489395
0.633100,-1.532240
0.633200,-1.488746
0.633300,-1.459534
0.633400,-1.443954
0.633500,-1.471543
0.633600,-1.484202
0.633700,-1.470245
0.633800,-1.465376
0.633900,-1.472192
0.634000,-1.500106
0.634100,-1.551066
0.634200,-1.565023
0.634300,-1.568269
0.634400,-1.559180
0.634500,-1.552040
0.634600,-1.649090
0.634700,-1.695505
0.634800,-1.706216
0.634900,-1.700698
0.635000,-1.713357
0.635100,-1.755228
0.635200,-1.730235
0.635300,-1.695181
0.635400,-1.646818
0.635500,-1.628641
0.635600,-1.613386
0.635700,-1.599753
0.635800,-1.558207
0.635900,-1.548469
0.636000,-1.513090
0.636100,-1.509519
0.636200,-1.505624
0.636300,-1.480307
0.636400,-1.476087
0.636500,-1.461157
0.636600,-1.464727
0.636700,-1.489720
0.636800,-1.516985
0.636900,-1.588717
0.637000,-1.718226
0.637100,-1.829882
0.637200,-1.775677
0.637300,-1.630589
0.637400,-1.539056
0.637500,-1.658178
0.637600,-1.874026
0.637700,-2.018465
0.637800,-2.004183
0.637900,-1.886684
0.638000,-1.795152
0.638100,-1.866885
0.638200,-1.982436
0.638300,-2.064556
0.638400,-2.057740
0.638500,-1.998341
0.638600,-1.927257
0.638700,-1.910054
0.638800,-1.921739
0.638900,-1.933749
0.639000,-1.903563
0.639100,-1.889930
0.639200,-1.847734
0.639300,-1.840918
0.639400,-1.838321
0.639500,-1.847734
0.639600,-1.816574
0.639700,-1.814627
0.639800,-1.849682
0.639900,-1.882789
0.640000,-1.865911
0.640100,-1.757176
0.640200,-1.687715
0.640300,-1.751009
