0.000100,-0.348489
0.000200,-0.151793
0.000300,-0.166399
0.000400,-0.364069
0.000500,-0.561090
0.000600,-0.479296
0.000700,-0.378675
0.000800,-0.142055
0.000900,-0.150494
0.001000,-0.151468
0.001100,-0.233912
0.001200,-0.201778
0.001300,-0.233587
0.001400,-0.217358
0.001500,-0.205998
0.001600,-0.210217
0.001700,-0.244298
0.001800,-0.177110
0.001900,-0.316031
0.002000,-0.358551
0.002100,-0.499420
0.002200,-0.501043
0.002300,-0.513701
0.002400,-0.403993
0.002500,-0.413406
0.002600,-0.507859
0.002700,-0.850942
0.002800,-0.875935
0.002900,-0.794789
0.003000,-0.557520
0.003100,-0.496498
0.003200,-0.665606
0.003300,-0.929166
0.003400,-0.998627
0.003500,-0.884374
0.003600,-0.698713
0.003700,-0.627954
0.003800,-0.715267
0.003900,-0.842503
0.004000,-0.842178
0.004100,-0.828546
0.004200,-0.786999
0.004300,-0.797061
0.004400,-0.881128
0.004500,-0.951887
0.004600,-0.981099
0.004700,-0.908718
0.004800,-0.958703
0.004900,-1.034655
0.005000,-1.070359
0.005100,-1.081720
0.005200,-1.033357
0.005300,-1.019075
0.005400,-1.090484
0.005500,-1.265109
0.005600,-1.318989
0.005700,-1.326130
0.005800,-1.276469
0.005900,-1.244660
0.006000,-1.284584
0.006100,-1.311524
0.006200,-1.312498
0.006300,-1.308278
0.006400,-1.310875
0.006500,-1.294321
0.006600,-1.291725
0.006700,-1.281338
0.006800,-1.286856
0.006900,-1.291725
0.007000,-1.264135
0.007100,-1.253748
0.007200,-1.249204
0.007300,-1.250827
0.007400,-1.293347
0.007500,-1.342035
0.007600,-1.384230
0.007700,-1.426102
0.007800,-1.715954
0.007900,-1.948030
0.008000,-1.957768
0.008100,-1.690961
0.008200,-1.446875
0.008300,-1.538407
0.008400,-1.810083
0.008500,-2.134341
0.008600,-2.205749
0.008700,-2.058389
0.008800,-1.813978
0.008900,-1.770808
0.009000,-1.909405
0.009100,-2.161282
0.009200,-2.253463
0.009300,-2.289492
0.009400,-2.244375
0.009500,-2.207372
0.009600,-2.258332
0.009700,-2.341425
0.009800,-2.383296
0.009900,-2.372910
0.010000,-2.353435
0.010100,-2.438151
0.010200,-2.499497
0.010300,-2.588758
0.010400,-2.618620
0.010500,-2.567660
0.010600,-2.639068
0.010700,-2.678992
0.010800,-2.765331
0.010900,-2.680615
0.011000,-2.461196
0.011100,-2.455029
0.011200,-2.632901
0.011300,-2.888024
0.011400,-3.046746
0.011500,-2.920158
0.011600,-2.697169
0.011700,-2.572853
0.011800,-2.743909
0.011900,-2.983776
0.012000,-3.170737
0.012100,-3.167816
0.012200,-3.037657
0.012300,-2.954239
0.012400,-2.951643
0.012500,-3.029218
0.012600,-3.092512
0.012700,-3.059405
0.012800,-3.030192
0.012900,-2.969495
0.013000,-2.917561
0.013100,-2.849723
0.013200,-2.647507
0.013300,-2.505015
0.013400,-2.439125
0.013500,-2.427764
0.013600,-2.433931
0.013700,-2.421597
0.013800,-2.226523
0.013900,-2.115840
0.014000,-2.049300
0.014100,-1.869157
0.014200,-1.826637
0.014300,-1.767887
0.014400,-1.663047
0.014500,-1.507572
0.014600,-1.377090
0.014700,-1.273872
0.014800,-1.252125
0.014900,-1.256994
0.015000,-1.256345
0.015100,-1.235896
0.015200,-1.258942
0.015300,-1.191429
0.015400,-1.207009
0.015500,-1.122942
0.015600,-1.204087
0.015700,-1.172603
0.015800,-1.293672
0.015900,-1.351448
0.016000,-1.218044
0.016100,-1.107037
0.016200,-0.726627
0.016300,-0.652298
0.016400,-0.919753
0.016500,-1.288479
0.016600,-1.359562
0.016700,-0.946044
0.016800,-0.818484
0.016900,-0.585434
0.017000,-0.679563
0.017100,-0.913586
0.017200,-0.959352
0.017300,-0.938579
0.017400,-0.668202
0.017500,-0.539343
0.017600,-0.528957
0.017700,-0.647754
0.017800,-0.623085
0.017900,-0.695792
0.018000,-0.593548
0.018100,-0.556871
0.018200,-0.527658
0.018300,-0.566933
0.018400,-0.516947
0.018500,-0.494551
0.018600,-0.602961
0.018700,-0.626007
0.018800,-0.655868
0.018900,-0.747076
0.019000,-0.688002
0.019100,-0.662035
0.019200,-0.645806
0.019300,-0.829844
0.019400,-1.142417
0.019500,-1.125863
0.019600,-0.961300
0.019700,-0.699362
0.019800,-0.742207
0.019900,-0.960975
0.020000,-1.256345
0.020100,-1.277118
0.020200,-1.158970
0.020300,-0.955457
0.020400,-0.929491
0.020500,-1.046665
0.020600,-1.184612
0.020700,-1.205710
0.020800,-1.219992
0.020900,-1.161242
0.021000,-1.169357
0.021100,-1.268355
0.021200,-1.339763
0.021300,-1.345605
0.021400,-1.335219
0.021500,-1.361185
0.021600,-1.422856
0.021700,-1.431295
0.021800,-1.398837
0.021900,-1.358264
0.022000,-1.326455
0.022100,-1.447524
0.022200,-1.576708
0.022300,-1.582226
0.022400,-1.555285
0.022500,-1.379037
0.022600,-1.445901
0.022700,-1.452717
0.022800,-1.437137
0.022900,-1.436813
0.023000,-1.438760
0.023100,-1.429672
0.023200,-1.420584
0.023300,-1.425777
0.023400,-1.432918
0.023500,-1.423180
0.023600,-1.429347
0.023700,-1.429347
0.023800,-1.445252
0.023900,-1.462130
0.024000,-1.469920
0.024100,-1.542302
0.024200,-1.570216
0.024300,-1.615982
0.024400,-1.737052
0.024500,-2.074618
0.024600,-2.273263
0.024700,-2.166799
0.024800,-1.917520
0.024900,-1.776975
0.025000,-1.912651
0.025100,-2.322924
0.025200,-2.562467
0.025300,-2.599469
0.025400,-2.391086
0.025500,-2.224575
0.025600,-2.273912
0.025700,-2.493979
0.025800,-2.709178
0.025900,-2.765007
0.026000,-2.703336
0.026100,-2.652052
0.026200,-2.663737
0.026300,-2.694897
0.026400,-2.762410
0.026500,-2.793246
0.026600,-2.789675
0.026700,-2.757866
0.026800,-2.798764
0.026900,-2.896139
0.027000,-2.909447
0.027100,-2.885427
0.027200,-2.848749
0.027300,-2.917561
0.027400,-2.993839
0.027500,-2.993839
0.027600,-2.854917
0.027700,-2.654973
0.027800,-2.735794
0.027900,-2.939633
0.028000,-3.172360
0.028100,-3.253181
0.028200,-3.072388
0.028300,-2.857189
0.028400,-2.808501
0.028500,-2.971442
0.028600,-3.289210
0.028700,-3.424887
0.028800,-3.342118
0.028900,-3.164570
0.029000,-3.059405
0.029100,-3.087968
0.029200,-3.134708
0.029300,-3.170412
0.029400,-3.136980
0.029500,-3.079529
0.029600,-3.016235
0.029700,-2.973390
0.029800,-2.897762
0.029900,-2.754620
0.030000,-2.621541
0.030100,-2.565063
0.030200,-2.557598
0.030300,-2.572204
0.030400,-2.486514
0.030500,-2.270017
0.030600,-2.112594
0.030700,-1.910703
0.030800,-1.958742
0.030900,-1.903563
0.031000,-1.800345
0.031100,-1.714655
0.031200,-1.588717
0.031300,-1.453691
0.031400,-1.341386
0.031500,-1.373844
0.031600,-1.375467
0.031700,-1.374493
0.031800,-1.348526
0.031900,-1.312822
0.032000,-1.311199
0.032100,-1.192402
0.032200,-1.264460
0.032300,-1.204736
0.032400,-1.313147
0.032500,-1.250178
0.032600,-1.315744
0.032700,-1.196622
0.032800,-0.928517
0.032900,-0.675019
0.033000,-0.633797
0.033100,-1.030436
0.033200,-1.282636
0.033300,-1.075228
0.033400,-0.852889
0.033500,-0.464689
0.033600,-0.567906
0.033700,-0.642236
0.033800,-0.919429
0.033900,-0.898655
0.034000,-0.744479
0.034100,-0.536097
0.034200,-0.388413
0.034300,-0.454952
0.034400,-0.465663
0.034500,-0.570828
0.034600,-0.576995
0.034700,-0.546809
0.034800,-0.518245
0.034900,-0.540966
0.035000,-0.573424
0.035100,-0.562713
0.035200,-0.664307
0.035300,-0.776937
0.035400,-0.837634
0.035500,-0.887295
0.035600,-0.917481
0.035700,-0.817835
0.035800,-0.860355
0.035900,-0.854512
0.036000,-1.240441
0.036100,-1.323209
0.036200,-1.308927
0.036300,-1.077176
0.036400,-0.905472
0.036500,-0.993758
0.036600,-1.222588
0.036700,-1.436488
0.036800,-1.382932
0.036900,-1.192402
0.037000,-0.993433
0.037100,-0.976880
0.037200,-1.120345
0.037300,-1.213176
0.037400,-1.175524
0.037500,-1.175849
0.037600,-1.100221
0.037700,-1.123266
0.037800,-1.146312
0.037900,-1.197596
0.038000,-1.178770
0.038100,-1.193376
0.038200,-1.237844
0.038300,-1.256994
0.038400,-1.212526
0.038500,-1.152803
0.038600,-1.114503
0.038700,-1.114503
0.038800,-1.257643
0.038900,-1.311199
0.039000,-1.310550
0.039100,-1.265109
0.039200,-1.126837
0.039300,-1.189481
0.039400,-1.185262
0.039500,-1.149882
0.039600,-1.120020
0.039700,-1.088861
0.039800,-1.079123
0.039900,-1.032383
0.040000,-1.033357
0.040100,-1.022970
0.040200,-0.997653
0.040300,-0.982398
0.040400,-0.962923
0.040500,-0.926245
0.040600,-0.902550
0.040700,-0.942474
0.040800,-0.932087
0.040900,-0.999601
0.041000,-0.993109
0.041100,-1.210254
0.041200,-1.496861
0.041300,-1.655581
0.041400,-1.440383
0.041500,-1.142092
0.041600,-1.102168
0.041700,-1.314121
0.041800,-1.680574
0.041900,-1.881816
0.042000,-1.819496
0.042100,-1.622799
0.042200,-1.491018
0.042300,-1.580278
0.042400,-1.767887
0.042500,-1.946408
0.042600,-1.956794
0.042700,-1.873701
0.042800,-1.865911
0.042900,-1.860718
0.043000,-1.894474
0.043100,-1.940565
0.043200,-1.942188
0.043300,-1.970102
0.043400,-1.977568
0.043500,-2.030799
0.043600,-2.074618
0.043700,-2.101883
0.043800,-2.044756
0.043900,-2.067152
0.044000,-2.136938
0.044100,-2.189845
0.044200,-2.109673
0.044300,-1.931477
0.044400,-1.819171
0.044500,-1.923362
0.044600,-2.124928
0.044700,-2.340776
0.044800,-2.304423
0.044900,-2.080136
0.045000,-1.876622
0.045100,-1.883114
0.045200,-2.078188
0.045300,-2.317081
0.045400,-2.373559
0.045500,-2.283649
0.045600,-2.114542
0.045700,-2.064556
0.045800,-2.074942
0.045900,-2.134666
0.046000,-2.161606
0.046100,-2.166475
0.046200,-2.131744
0.046300,-2.073644
0.046400,-1.977892
0.046500,-1.846111
0.046600,-1.726340
0.046700,-1.641949
0.046800,-1.652336
0.046900,-1.639028
0.047000,-1.621176
0.047100,-1.462779
0.047200,-1.308927
0.047300,-1.263161
0.047400,-1.023295
0.047500,-1.037252
0.047600,-0.991811
0.047700,-0.890216
0.047800,-0.794140
0.047900,-0.672746
0.048000,-0.566284
0.048100,-0.537396
0.048200,-0.532527
0.048300,-0.556871
0.048400,-0.571801
0.048500,-0.595171
0.048600,-0.595821
0.048700,-0.539668
0.048800,-0.558818
0.048900,-0.496823
0.049000,-0.578942
0.049100,-0.589653
0.049200,-0.741233
0.049300,-0.663009
0.049400,-0.534799
0.049500,-0.267019
0.049600,0.018288
0.049700,-0.254036
0.049800,-0.620164
0.049900,-0.867496
0.050000,-0.608804
0.050100,-0.372833
0.050200,-0.162828
0.050300,-0.210867
0.050400,-0.459821
0.050500,-0.591276
0.050600,-0.594847
0.050700,-0.469558
0.050800,-0.316680
0.050900,-0.311811
0.051000,-0.377052
0.051100,-0.440346
0.051200,-0.440670
0.051300,-0.441969
0.051400,-0.441320
0.051500,-0.477997
0.051600,-0.522140
0.051700,-0.559467
0.051800,-0.565634
0.051900,-0.700336
0.052000,-0.729873
0.052100,-0.880154
0.052200,-0.885672
0.052300,-0.950589
0.052400,-0.805500
0.052500,-0.900603
0.052600,-0.925596
0.052700,-1.315419
0.052800,-1.330025
0.052900,-1.266407
0.053000,-1.001223
0.053100,-0.951562
0.053200,-1.102168
0.053300,-1.423505
0.053400,-1.560803
0.053500,-1.468297
0.053600,-1.226159
0.053700,-1.153452
0.053800,-1.249529
0.053900,-1.426751
0.054000,-1.503028
0.054100,-1.509844
0.054200,-1.478684
0.054300,-1.459858
0.054400,-1.543600
0.054500,-1.588717
0.054600,-1.658178
0.054700,-1.611114
0.054800,-1.612087
0.054900,-1.674083
0.055000,-1.699400
0.055100,-1.664345
0.055200,-1.620527
0.055300,-1.588393
0.055400,-1.638703
0.055500,-1.775028
0.055600,-1.831830
0.055700,-1.812679
0.055800,-1.641949
0.055900,-1.652660
0.056000,-1.704269
0.056100,-1.689338
0.056200,-1.675056
0.056300,-1.657204
0.056400,-1.613061
0.056500,-1.636756
0.056600,-1.637080
0.056700,-1.636106
0.056800,-1.626369
0.056900,-1.637080
0.057000,-1.642923
0.057100,-1.644221
0.057200,-1.650388
0.057300,-1.723744
0.057400,-1.726990
0.057500,-1.792880
0.057600,-1.856174
0.057700,-1.927906
0.057800,-2.206723
0.057900,-2.557273
0.058000,-2.525139
0.058100,-2.285272
0.058200,-2.056117
0.058300,-2.124604
0.058400,-2.468986
0.058500,-2.822783
0.058600,-2.937036
0.058700,-2.789026
0.058800,-2.603689
0.058900,-2.532605
0.059000,-2.722162
0.059100,-2.967547
0.059200,-3.111987
0.059300,-3.112312
0.059400,-3.051939
0.059500,-3.037333
0.059600,-3.067195
0.059700,-3.140226
0.059800,-3.191186
0.059900,-3.222995
0.060000,-3.215205
0.060100,-3.249611
0.060200,-3.330108
0.060300,-3.369707
0.060400,-3.366786
0.060500,-3.301220
0.060600,-3.336600
0.060700,-3.342442
0.060800,-3.415149
0.060900,-3.289860
0.061000,-3.083748
0.061100,-3.033438
0.061200,-3.139252
0.061300,-3.377173
0.061400,-3.510902
0.061500,-3.348934
0.061600,-3.093486
0.061700,-2.926650
0.061800,-2.982154
0.061900,-3.216503
0.062000,-3.421966
0.062100,-3.423264
0.062200,-3.253506
0.062300,-3.136006
0.062400,-3.087319
0.062500,-3.111013
0.062600,-3.165544
0.062700,-3.165219
0.062800,-3.154183
0.062900,-3.076932
0.063000,-3.002278
0.063100,-2.926325
0.063200,-2.797790
0.063300,-2.658219
0.063400,-2.571555
0.063500,-2.541369
0.063600,-2.547536
0.063700,-2.506314
0.063800,-2.320327
0.063900,-2.175563
0.064000,-1.889606
0.064100,-1.846111
0.064200,-1.816574
0.064300,-1.769835
0.064400,-1.645519
0.064500,-1.494264
0.064600,-1.334245
0.064700,-1.199543
0.064800,-1.137873
0.064900,-1.115152
0.065000,-1.062569
0.065100,-1.046665
0.065200,-1.055104
0.065300,-1.016479
0.065400,-0.970064
0.065500,-0.909367
0.065600,-0.887944
0.065700,-0.909367
0.065800,-0.873663
0.065900,-0.968116
0.066000,-0.787648
0.066100,-0.691572
0.066200,-0.180680
0.066300,-0.270590
0.066400,-0.384193
0.066500,-0.855162
0.066600,-0.722083
0.066700,-0.581214
0.066800,-0.267993
0.066900,-0.118036
0.067000,-0.290389
0.067100,-0.434828
0.067200,-0.578618
0.067300,-0.471830
0.067400,-0.307267
0.067500,-0.185874
0.067600,-0.134265
0.067700,-0.229692
0.067800,-0.221578
0.067900,-0.302723
0.068000,-0.258905
0.068100,-0.259229
0.068200,-0.230341
0.068300,-0.281625
0.068400,-0.289740
0.068500,-0.348165
0.068600,-0.467935
0.068700,-0.547782
0.068800,-0.605233
0.068900,-0.691248
0.069000,-0.611076
0.069100,-0.601014
0.069200,-0.619840
0.069300,-0.814589
0.069400,-1.136250
0.069500,-1.076526
0.069600,-0.955782
0.069700,-0.652947
0.069800,-0.748699
0.069900,-0.940851
0.070000,-1.234598
0.070100,-1.238493
0.070200,-1.107037
0.070300,-0.953185
0.070400,-0.966493
0.070500,-1.100546
0.070600,-1.232001
0.070700,-1.229729
0.070800,-1.274197
0.070900,-1.221939
0.071000,-1.275820
0.071100,-1.358264
0.071200,-1.445577
0.071300,-1.455639
0.071400,-1.394942
0.071500,-1.433892
0.071600,-1.496211
0.071700,-1.532240
0.071800,-1.512765
0.071900,-1.495562
0.072000,-1.465701
0.072100,-1.582550
0.072200,-1.706216
0.072300,-1.773080
0.072400,-1.773405
0.072500,-1.682197
0.072600,-1.661749
0.072700,-1.697128
0.072800,-1.739648
0.072900,-1.743219
0.073000,-1.741596
0.073100,-1.774703
0.073200,-1.770484
0.073300,-1.823066
0.073400,-1.804240
0.073500,-1.857472
0.073600,-1.849682
0.073700,-1.873701
0.073800,-1.886035
0.073900,-1.892851
0.074000,-1.937968
0.074100,-1.960689
0.074200,-2.011000
0.074300,-2.070074
0.074400,-2.228146
0.074500,-2.556624
0.074600,-2.764033
0.074700,-2.596872
0.074800,-2.324547
0.074900,-2.148623
0.075000,-2.291439
0.075100,-2.647183
0.075200,-2.874392
0.075300,-2.917886
0.075400,-2.738716
0.075500,-2.561493
0.075600,-2.575774
0.075700,-2.744233
0.075800,-2.976311
0.075900,-3.021104
0.076000,-3.015261
0.076100,-2.916588
0.076200,-2.943203
0.076300,-3.033762
0.076400,-3.047070
0.076500,-3.078555
0.076600,-3.046097
0.076700,-3.062975
0.076800,-3.063949
0.076900,-3.141849
0.077000,-3.126918
0.077100,-3.125295
0.077200,-3.058431
0.077300,-3.137305
0.077400,-3.184045
0.077500,-3.217802
0.077600,-3.053237
0.077700,-2.863031
0.077800,-2.915289
0.077900,-3.075634
0.078000,-3.297325
0.078100,-3.374901
0.078200,-3.188265
0.078300,-2.946449
0.078400,-2.899385
0.078500,-3.099004
0.078600,-3.320370
0.078700,-3.386910
0.078800,-3.298299
0.078900,-3.127892
0.079000,-3.020454
0.079100,-3.007796
0.079200,-3.016884
0.079300,-3.008120
0.079400,-2.957161
0.079500,-2.893217
0.079600,-2.742935
0.079700,-2.631603
0.079800,-2.536500
0.079900,-2.347917
0.080000,-2.165501
0.080100,-2.029825
0.080200,-1.940241
0.080300,-1.889930
0.080400,-1.737376
0.080500,-1.465701
0.080600,-1.241414
0.080700,-0.982073
0.080800,-0.949939
0.080900,-0.859381
0.081000,-0.730522
0.081100,-0.569854
0.081200,-0.402694
0.081300,-0.251764
0.081400,-0.138160
0.081500,-0.141406
0.081600,-0.070972
0.081700,-0.100833
0.081800,-0.047927
0.081900,-0.030724
0.082000,0.021209
0.082100,0.075739
0.082200,0.108197
0.082300,0.075090
0.082400,0.071844
0.082500,0.050097
0.082600,0.129944
0.082700,0.151691
0.082800,0.562936
0.082900,0.708024
0.083000,0.822926
0.083100,0.350660
0.083200,0.219853
0.083300,0.311385
0.083400,0.651547
0.083500,0.907317
0.083600,0.936205
0.083700,0.892062
0.083800,0.612922
0.083900,0.650248
0.084000,0.730096
0.084100,0.949513
0.084200,0.991059
0.084300,1.066037
0.084400,1.017350
0.084500,0.925818
0.084600,0.982620
0.084700,1.012482
0.084800,1.011508
0.084900,0.985217
0.085000,0.996252
0.085100,0.980348
0.085200,0.960224
0.085300,0.803776
0.085400,0.796959
0.085500,0.778134
0.085600,0.655442
0.085700,0.791441
0.085800,0.682382
0.085900,0.687575
0.086000,0.281199
0.086100,0.185448
0.086200,0.147472
0.086300,0.322746
0.086400,0.433753
0.086500,0.276006
0.086600,-0.027802
0.086700,-0.267993
0.086800,-0.265072
0.086900,-0.193664
0.087000,-0.087201
0.087100,-0.190093
0.087200,-0.376728
0.087300,-0.559143
0.087400,-0.581864
0.087500,-0.661386
0.087600,-0.635420
0.087700,-0.777262
0.087800,-0.889243
0.087900,-1.011935
0.088000,-1.078799
0.088100,-1.111581
0.088200,-1.182340
0.088300,-1.254722
0.088400,-1.274522
0.088500,-1.298216
0.088600,-1.281662
0.088700,-1.305032
0.088800,-1.519906
0.088900,-1.612087
0.089000,-1.649414
0.089100,-1.552689
0.089200,-1.547171
0.089300,-1.625071
0.089400,-1.643247
0.089500,-1.668565
0.089600,-1.682846
0.089700,-1.701672
0.089800,-1.762369
0.089900,-1.816899
0.090000,-1.859095
0.090100,-1.892851
0.090200,-1.956794
0.090300,-2.015868
0.090400,-2.056117
0.090500,-2.103506
0.090600,-2.120709
0.090700,-2.183678
0.090800,-2.265797
0.090900,-2.318055
0.091000,-2.386218
0.091100,-2.607584
0.091200,-2.975986
0.091300,-3.049018
0.091400,-2.845504
0.091500,-2.603689
0.091600,-2.583889
0.091700,-2.793570
0.091800,-3.207415
0.091900,-3.418395
0.092000,-3.367111
0.092100,-3.135682
0.092200,-3.070765
0.092300,-3.189563
0.092400,-3.383664
0.092500,-3.568353
0.092600,-3.565432
0.092700,-3.508305
0.092800,-3.468057
0.092900,-3.462863
0.093000,-3.494997
0.093100,-3.495322
0.093200,-3.491102
0.093300,-3.458644
0.093400,-3.459942
0.093500,-3.503112
0.093600,-3.564134
0.093700,-3.507656
0.093800,-3.464162
0.093900,-3.448257
0.094000,-3.540439
0.094100,-3.584258
0.094200,-3.578415
0.094300,-3.343741
0.094400,-3.265191
0.094500,-3.367435
0.094600,-3.571275
0.094700,-3.762455
0.094800,-3.745252
0.094900,-3.514797
0.095000,-3.351206
0.095100,-3.357698
0.095200,-3.549203
0.095300,-3.779009
0.095400,-3.816986
0.095500,-3.708250
0.095600,-3.559265
0.095700,-3.512200
0.095800,-3.522262
0.095900,-3.564458
0.096000,-3.545957
0.096100,-3.515446
0.096200,-3.449231
0.096300,-3.382366
0.096400,-3.304141
0.096500,-3.157429
0.096600,-2.969170
0.096700,-2.850048
0.096800,-2.814019
0.096900,-2.780587
0.097000,-2.758191
0.097100,-2.579345
0.097200,-2.380700
0.097300,-2.321626
0.097400,-2.081759
0.097500,-2.088250
0.097600,-2.032747
0.097700,-1.919792
0.097800,-1.794503
0.097900,-1.660775
0.098000,-1.544574
0.098100,-1.492641
0.098200,-1.485176
0.098300,-1.447849
0.098400,-1.429347
0.098500,-1.440383
0.098600,-1.436813
0.098700,-1.295944
0.098800,-1.367677
0.098900,-1.264460
0.099000,-1.354369
0.099100,-1.349176
0.099200,-1.379362
0.099300,-1.343333
0.099400,-1.174550
0.099500,-0.907095
0.099600,-0.655219
0.099700,-0.808746
0.099800,-1.174226
0.099900,-1.395915
0.100000,-1.223887
0.100100,-0.844450
0.100200,-0.743830
0.100300,-0.665606
0.100400,-0.928517
0.100500,-0.999925
0.100600,-1.037252
0.100700,-0.780832
0.100800,-0.673396
0.100900,-0.593224
0.101000,-0.634446
0.101100,-0.656842
0.101200,-0.580890
0.101300,-0.584460
0.101400,-0.520193
0.101500,-0.485138
0.101600,-0.488059
0.101700,-0.502666
0.101800,-0.410484
0.101900,-0.526360
0.102000,-0.676641
0.102100,-0.654894
0.102200,-0.712670
0.102300,-0.663658
0.102400,-0.616594
0.102500,-0.553625
0.102600,-0.715267
0.102700,-1.050560
0.102800,-1.058350
0.102900,-0.963896
0.103000,-0.682484
0.103100,-0.647754
0.103200,-0.846073
0.103300,-1.137548
0.103400,-1.255371
0.103500,-1.170331
0.103600,-0.967791
0.103700,-0.871715
0.103800,-1.007715
0.103900,-1.133978
0.104000,-1.193701
0.104100,-1.154102
0.104200,-1.129433
0.104300,-1.116450
0.104400,-1.211553
0.104500,-1.270627
0.104600,-1.268030
0.104700,-1.228431
0.104800,-1.255047
0.104900,-1.323858
0.105000,-1.371247
0.105100,-1.348851
0.105200,-1.288154
0.105300,-1.275495
0.105400,-1.341386
0.105500,-1.510168
0.105600,-1.558531
0.105700,-1.561128
0.105800,-1.547171
0.105900,-1.484851
0.106000,-1.516985
0.106100,-1.506273
0.106200,-1.482904
0.106300,-1.466025
0.106400,-1.489395
0.106500,-1.490369
0.106600,-1.490369
0.106700,-1.455963
0.106800,-1.489071
0.106900,-1.483553
0.107000,-1.500431
0.107100,-1.510493
0.107200,-1.501080
0.107300,-1.525748
0.107400,-1.547820
0.107500,-1.582226
0.107600,-1.578980
0.107700,-1.661099
0.107800,-1.910054
0.107900,-2.155439
0.108000,-2.201205
0.108100,-1.864288
0.108200,-1.684794
0.108300,-1.693558
0.108400,-2.039238
0.108500,-2.395631
0.108600,-2.484567
0.108700,-2.333960
0.108800,-2.109348
0.108900,-2.091821
0.109000,-2.229769
0.109100,-2.504366
0.109200,-2.599469
0.109300,-2.606285
0.109400,-2.527412
0.109500,-2.540070
0.109600,-2.605961
0.109700,-2.669579
0.109800,-2.724758
0.109900,-2.737417
0.110000,-2.726057
0.110100,-2.742611
0.110200,-2.830248
0.110300,-2.924053
0.110400,-2.884129
0.110500,-2.873093
0.110600,-2.893217
0.110700,-2.991242
0.110800,-2.983776
0.110900,-2.944826
0.111000,-2.738391
0.111100,-2.731250
0.111200,-2.884778
0.111300,-3.123997
0.111400,-3.275253
0.111500,-3.152236
0.111600,-2.924053
0.111700,-2.776692
0.111800,-2.891919
0.111900,-3.160675
0.112000,-3.383015
0.112100,-3.392104
0.112200,-3.232733
0.112300,-3.100627
0.112400,-3.067195
0.112500,-3.130813
0.112600,-3.170737
0.112700,-3.174632
0.112800,-3.148341
0.112900,-3.094784
0.113000,-3.028894
0.113100,-2.968846
0.113200,-2.845179
0.113300,-2.697169
0.113400,-2.621865
0.113500,-2.598495
0.113600,-2.576748
0.113700,-2.505340
0.113800,-2.265797
0.113900,-2.120709
0.114000,-1.833128
0.114100,-1.788985
0.114200,-1.731209
0.114300,-1.653634
0.114400,-1.552689
0.114500,-1.418961
0.114600,-1.281013
0.114700,-1.143390
0.114800,-1.147285
0.114900,-1.146312
0.115000,-1.146636
0.115100,-1.108011
0.115200,-1.145662
0.115300,-1.054455
0.115400,-1.027839
0.115500,-0.966493
0.115600,-0.962598
0.115700,-0.967791
0.115800,-0.968116
0.115900,-1.041147
0.116000,-0.908393
0.116100,-0.707152
0.116200,-0.314733
0.116300,-0.235859
0.116400,-0.482541
0.116500,-0.902550
0.116600,-0.871066
0.116700,-0.644832
0.116800,-0.323821
0.116900,-0.238456
0.117000,-0.298504
0.117100,-0.561739
0.117200,-0.597119
0.117300,-0.542589
0.117400,-0.338752
0.117500,-0.176461
0.117600,-0.152766
0.117700,-0.214112
0.117800,-0.246246
0.117900,-0.305644
0.118000,-0.247220
0.118100,-0.214437
0.118200,-0.188795
0.118300,-0.209244
0.118400,-0.219955
0.118500,-0.300451
0.118600,-0.305969
0.118700,-0.442618
0.118800,-0.375429
0.118900,-0.492604
0.119000,-0.366017
0.119100,-0.381272
0.119200,-0.330637
0.119300,-0.576021
0.119400,-0.866522
0.119500,-0.766875
0.119600,-0.662035
0.119700,-0.330962
0.119800,-0.424117
0.119900,-0.618541
0.120000,-0.921052
0.120100,-0.988889
0.120200,-0.856784
0.120300,-0.649377
0.120400,-0.586408
0.120500,-0.740584
0.120600,-0.905472
0.120700,-0.927219
0.120800,-0.948317
0.120900,-0.859706
0.121000,-0.887295
0.121100,-0.938904
0.121200,-1.001548
0.121300,-1.004469
0.121400,-1.009987
0.121500,-1.049911
0.121600,-1.094054
0.121700,-1.104765
0.121800,-1.063868
0.121900,-1.053157
0.122000,-1.040498
0.122100,-1.161242
0.122200,-1.286207
0.122300,-1.332622
0.122400,-1.322235
0.122500,-1.323209
0.122600,-1.275495
0.122700,-1.311199
0.122800,-1.307304
0.122900,-1.324183
0.123000,-1.327753
0.123100,-1.308927
0.123200,-1.315419
0.123300,-1.314770
0.123400,-1.288803
0.123500,-1.300813
0.123600,-1.271276
0.123700,-1.280040
0.123800,-1.235896
0.123900,-1.258293
0.124000,-1.209281
0.124100,-1.240765
0.124200,-1.223887
0.124300,-1.227133
0.124400,-1.361834
0.124500,-1.696803
0.124600,-1.857796
0.124700,-1.740298
0.124800,-1.418961
0.124900,-1.207333
0.125000,-1.341710
0.125100,-1.706216
0.125200,-1.961014
0.125300,-2.009377
0.125400,-1.798722
0.125500,-1.653634
0.125600,-1.664670
0.125700,-1.876947
0.125800,-2.078837
0.125900,-2.183678
0.126000,-2.103830
0.126100,-2.048002
0.126200,-2.044107
0.126300,-2.066503
0.126400,-2.109673
0.126500,-2.136613
0.126600,-2.106102
0.126700,-2.084031
0.126800,-2.116164
0.126900,-2.128499
0.127000,-2.159334
0.127100,-2.084680
0.127200,-2.032097
0.127300,-2.066503
0.127400,-2.107401
0.127500,-2.092145
0.127600,-1.888307
0.127700,-1.710111
0.127800,-1.742570
0.127900,-1.906484
0.128000,-2.140833
0.128100,-2.237559
0.128200,-2.044107
0.128300,-1.782493
0.128400,-1.699725
0.128500,-1.864613
0.128600,-2.147649
0.128700,-2.326819
0.128800,-2.286571
0.128900,-2.128499
0.129000,-2.055467
0.129100,-2.066503
0.129200,-2.155439
0.129300,-2.220031
0.129400,-2.234637
0.129500,-2.225874
0.129600,-2.190169
0.129700,-2.154790
0.129800,-2.132394
0.129900,-2.053195
0.130000,-1.986007
0.130100,-1.940565
0.130200,-1.962637
0.130300,-2.028852
0.130400,-1.947381
0.130500,-1.787037
0.130600,-1.711085
0.130700,-1.521204
0.130800,-1.555610
0.130900,-1.557882
0.131000,-1.532240
0.131100,-1.461806
0.131200,-1.353071
0.131300,-1.271925
0.131400,-1.184937
0.131500,-1.216421
0.131600,-1.270302
0.131700,-1.338140
0.131800,-1.379037
0.131900,-1.422207
0.132000,-1.414741
0.132100,-1.434216
0.132200,-1.416364
0.132300,-1.447524
0.132400,-1.526398
0.132500,-1.626044
0.132600,-1.594560
0.132700,-1.585796
0.132800,-1.318665
0.132900,-1.064517
0.133000,-1.020049
0.133100,-1.449147
0.133200,-1.804565
0.133300,-1.597157
0.133400,-1.447199
0.133500,-1.113204
0.133600,-1.187209
0.133700,-1.257319
0.133800,-1.559505
0.133900,-1.619228
0.134000,-1.462130
0.134100,-1.277443
0.134200,-1.152803
0.134300,-1.140794
0.134400,-1.172278
0.134500,-1.277767
0.134600,-1.236870
0.134700,-1.185262
0.134800,-1.175199
0.134900,-1.099572
0.135000,-1.106713
0.135100,-1.070359
0.135200,-1.154102
0.135300,-1.254398
0.135400,-1.256670
0.135500,-1.314770
0.135600,-1.292374
0.135700,-1.180717
0.135800,-1.106388
0.135900,-1.142417
0.136000,-1.397863
0.136100,-1.571839
0.136200,-1.485825
0.136300,-1.298541
0.136400,-1.069386
0.136500,-1.189157
0.136600,-1.382932
0.136700,-1.599753
0.136800,-1.553987
0.136900,-1.382283
0.137000,-1.203438
0.137100,-1.185586
0.137200,-1.312173
0.137300,-1.442331
0.137400,-1.426426
0.137500,-1.471868
0.137600,-1.386503
0.137700,-1.445252
0.137800,-1.455639
0.137900,-1.483553
0.138000,-1.459534
0.138100,-1.460832
0.138200,-1.508221
0.138300,-1.533214
0.138400,-1.533214
0.138500,-1.509519
0.138600,-1.489395
0.138700,-1.504975
0.138800,-1.677004
0.138900,-1.767887
0.139000,-1.795152
0.139100,-1.792555
0.139200,-1.677328
0.139300,-1.717252
0.139400,-1.718550
0.139500,-1.726990
0.139600,-1.734780
0.139700,-1.747438
0.139800,-1.753930
0.139900,-1.749386
0.140000,-1.780546
0.140100,-1.774054
0.140200,-1.783142
0.140300,-1.813004
0.140400,-1.811706
0.140500,-1.844164
0.140600,-1.851629
0.140700,-1.921739
0.140800,-1.948680
0.140900,-2.010675
0.141000,-2.077539
0.141100,-2.259630
0.141200,-2.586486
0.141300,-2.647832
0.141400,-2.472881
0.141500,-2.178484
0.141600,-2.072346
0.141700,-2.283974
0.141800,-2.681913
0.141900,-2.814344
0.142000,-2.756243
0.142100,-2.524815
0.142200,-2.413158
0.142300,-2.451784
0.142400,-2.656596
0.142500,-2.813694
0.142600,-2.828301
0.142700,-2.774095
0.142800,-2.760787
0.142900,-2.760787
0.143000,-2.755594
0.143100,-2.784806
0.143200,-2.825055
0.143300,-2.807852
0.143400,-2.837389
0.143500,-2.892244
0.143600,-2.966898
0.143700,-2.926650
0.143800,-2.864979
0.143900,-2.836740
0.144000,-2.916588
0.144100,-2.934440
0.144200,-2.894840
0.144300,-2.688730
0.144400,-2.554027
0.144500,-2.684185
0.144600,-2.862707
0.144700,-3.076283
0.144800,-3.012989
0.144900,-2.772148
0.145000,-2.554027
0.145100,-2.543316
0.145200,-2.755594
0.145300,-2.977285
0.145400,-3.039930
0.145500,-2.945800
0.145600,-2.816291
0.145700,-2.780262
0.145800,-2.773771
0.145900,-2.811747
0.146000,-2.838038
0.146100,-2.808826
0.146200,-2.773446
0.146300,-2.722486
0.146400,-2.661465
0.146500,-2.560194
0.146600,-2.366743
0.146700,-2.282676
0.146800,-2.234637
0.146900,-2.211267
0.147000,-2.208346
0.147100,-2.008727
0.147200,-1.818197
0.147300,-1.603648
0.147400,-1.452717
0.147500,-1.462130
0.147600,-1.343333
0.147700,-1.240441
0.147800,-1.098273
0.147900,-0.942799
0.148000,-0.846722
0.148100,-0.747725
0.148200,-0.762980
0.148300,-0.668527
0.148400,-0.668202
0.148500,-0.653596
0.148600,-0.629252
0.148700,-0.556871
0.148800,-0.487735
0.148900,-0.460470
0.149000,-0.470857
0.149100,-0.525062
0.149200,-0.514026
0.149300,-0.424766
0.149400,-0.296556
0.149500,0.094240
0.149600,0.264646
0.149700,0.202975
0.149800,-0.297530
0.149900,-0.289415
0.150000,-0.257931
0.150100,0.205896
0.150200,0.368187
0.150300,0.334431
0.150400,0.217257
0.150500,0.004331
0.150600,0.060808
0.150700,0.139357
0.150800,0.408760
0.150900,0.430507
0.151000,0.395127
0.151100,0.348712
0.151200,0.354555
0.151300,0.302946
0.151400,0.270813
0.151500,0.292560
0.151600,0.282173
0.151700,0.246144
0.151800,0.315929
0.151900,0.259128
0.152000,0.081257
0.152100,-0.012547
0.152200,0.008875
0.152300,-0.006705
0.152400,0.109496
0.152500,0.114364
0.152600,0.038088
0.152700,-0.387114
0.152800,-0.366666
0.152900,-0.284222
0.153000,0.001734
0.153100,0.043281
0.153200,-0.117387
0.153300,-0.430608
0.153400,-0.563038
0.153500,-0.499744
0.153600,-0.287792
0.153700,-0.186198
0.153800,-0.329014
0.153900,-0.525386
0.154000,-0.644832
0.154100,-0.620813
0.154200,-0.652947
0.154300,-0.654570
0.154400,-0.798684
0.154500,-0.935982
0.154600,-0.977854
0.154700,-0.996355
0.154800,-1.033032
0.154900,-1.140794
0.155000,-1.235247
0.155100,-1.251801
0.155200,-1.256670
0.155300,-1.252450
0.155400,-1.299190
0.155500,-1.493290
0.155600,-1.572164
0.155700,-1.627018
0.155800,-1.636756
0.155900,-1.539705
0.156000,-1.628641
0.156100,-1.617605
0.156200,-1.645195
0.156300,-1.647467
0.156400,-1.650388
0.156500,-1.677978
0.156600,-1.648116
0.156700,-1.691610
0.156800,-1.712708
0.156900,-1.712383
0.157000,-1.755877
0.157100,-1.761071
0.157200,-1.781195
0.157300,-1.813004
0.157400,-1.844164
0.157500,-1.901291
0.157600,-1.928231
0.157700,-2.040537
0.157800,-2.257034
0.157900,-2.616997
0.158000,-2.578371
0.158100,-2.323898
0.158200,-2.113892
0.158300,-2.138561
0.158400,-2.432633
0.158500,-2.787079
0.158600,-2.890945
0.158700,-2.710152
0.158800,-2.530333
0.158900,-2.470609
0.159000,-2.653675
0.159100,-2.873742
0.159200,-3.005524
0.159300,-3.014937
0.159400,-2.935738
0.159500,-2.950020
0.159600,-2.992216
0.159700,-3.058431
0.159800,-3.099653
0.159900,-3.100302
0.160000,-3.081801
0.160100,-3.065572
0.160200,-3.167491
0.160300,-3.183720
0.160400,-3.141849
0.160500,-3.088617
0.160600,-3.110040
0.160700,-3.106469
0.160800,-3.143472
0.160900,-2.985399
0.161000,-2.788377
0.161100,-2.705283
0.161200,-2.810773
0.161300,-3.015261
0.161400,-3.161973
0.161500,-3.030192
0.161600,-2.744883
0.161700,-2.587135
0.161800,-2.632901
0.161900,-2.851671
0.162000,-3.059405
0.162100,-3.045123
0.162200,-2.864654
0.162300,-2.695870
0.162400,-2.657245
0.162500,-2.685808
0.162600,-2.692300
0.162700,-2.678668
0.162800,-2.612128
0.162900,-2.541044
0.163000,-2.459574
0.163100,-2.386542
0.163200,-2.256060
0.163300,-2.064880
0.163400,-1.960040
0.163500,-1.920116
0.163600,-1.867859
0.163700,-1.812030
0.163800,-1.587744
0.163900,-1.440059
0.164000,-1.171304
0.164100,-1.120994
0.164200,-1.057052
0.164300,-0.986942
0.164400,-0.858407
0.164500,-0.756813
0.164600,-0.581539
0.164700,-0.498121
0.164800,-0.447811
0.164900,-0.469234
0.165000,-0.430608
0.165100,-0.427038
0.165200,-0.402045
0.165300,-0.382570
0.165400,-0.304671
0.165500,-0.330962
0.165600,-0.346217
0.165700,-0.381597
0.165800,-0.413730
0.165900,-0.449110
0.166000,-0.413081
0.166100,-0.211840
0.166200,0.115987
0.166300,0.161753
0.166400,-0.079736
0.166500,-0.533825
0.166600,-0.535773
0.166700,-0.408861
0.166800,-0.066428
0.166900,-0.010924
0.167000,-0.124852
0.167100,-0.344270
0.167200,-0.506885
0.167300,-0.428336
0.167400,-0.261501
0.167500,-0.148871
0.167600,-0.162828
0.167700,-0.230017
0.167800,-0.329339
0.167900,-0.291363
0.168000,-0.294933
0.168100,-0.256308
0.168200,-0.280976
0.168300,-0.285196
0.168400,-0.284871
0.168500,-0.306618
0.168600,-0.421845
0.168700,-0.486112
0.168800,-0.562389
0.168900,-0.600365
0.169000,-0.567257
0.169100,-0.555248
0.169200,-0.559467
0.169300,-0.848345
0.169400,-1.056402
0.169500,-1.135925
0.169600,-1.026865
0.169700,-0.804527
0.169800,-0.876259
0.169900,-1.114827
0.170000,-1.432918
0.170100,-1.480956
0.170200,-1.380660
0.170300,-1.196946
0.170400,-1.173252
0.170500,-1.321261
0.170600,-1.492316
0.170700,-1.536784
0.170800,-1.556584
0.170900,-1.516011
0.171000,-1.587419
0.171100,-1.686741
0.171200,-1.766913
0.171300,-1.770159
0.171400,-1.760746
0.171500,-1.825014
0.171600,-1.880842
0.171700,-1.918493
0.171800,-1.903887
0.171900,-1.881166
0.172000,-1.869157
0.172100,-1.973997
0.172200,-2.112919
0.172300,-2.132394
0.172400,-2.121682
0.172500,-2.029176
0.172600,-2.023009
0.172700,-2.058389
0.172800,-2.023334
0.172900,-2.013272
0.173000,-1.990226
0.173100,-1.980813
0.173200,-1.960365
0.173300,-1.943811
0.173400,-1.908431
0.173500,-1.923038
0.173600,-1.890904
0.173700,-1.908107
0.173800,-1.877271
0.173900,-1.887333
0.174000,-1.874026
0.174100,-1.898045
0.174200,-1.928231
0.174300,-1.951601
0.174400,-2.100260
0.174500,-2.373234
0.174600,-2.640367
0.174700,-2.508261
0.174800,-2.278781
0.174900,-2.056117
0.175000,-2.238532
0.175100,-2.567660
0.175200,-2.889972
0.175300,-2.875365
0.175400,-2.669255
0.175500,-2.516376
0.175600,-2.530982
0.175700,-2.751374
0.175800,-2.940282
0.175900,-3.013314
0.176000,-2.953915
0.176100,-2.916912
0.176200,-2.923728
0.176300,-2.974039
0.176400,-3.025648
0.176500,-3.073686
0.176600,-3.065247
0.176700,-3.059405
0.176800,-3.110689
0.176900,-3.205792
0.177000,-3.185019
0.177100,-3.152885
0.177200,-3.189563
0.177300,-3.231110
0.177400,-3.305115
0.177500,-3.318423
0.177600,-3.189887
0.177700,-3.012989
0.177800,-3.078555
0.177900,-3.287587
0.178000,-3.518043
0.178100,-3.575494
0.178200,-3.372953
0.178300,-3.099004
0.178400,-3.006822
0.178500,-3.195405
0.178600,-3.452801
0.178700,-3.585556
0.178800,-3.486882
0.178900,-3.306738
0.179000,-3.199625
0.179100,-3.183720
0.179200,-3.253181
0.179300,-3.275902
0.179400,-3.255129
0.179500,-3.207415
0.179600,-3.129190
0.179700,-3.057457
0.179800,-2.964626
0.179900,-2.829924
0.180000,-2.684510
0.180100,-2.606935
0.180200,-2.593627
0.180300,-2.552729
0.180400,-2.437502
0.180500,-2.208346
0.180600,-2.045730
0.180700,-1.808135
0.180800,-1.826637
0.180900,-1.762694
0.181000,-1.701997
0.181100,-1.587744
0.181200,-1.443954
0.181300,-1.298865
0.181400,-1.211553
0.181500,-1.208631
0.181600,-1.212202
0.181700,-1.187534
0.181800,-1.201166
0.181900,-1.155075
0.182000,-1.143715
0.182100,-1.046340
0.182200,-1.054455
0.182300,-1.020049
0.182400,-1.044393
0.182500,-1.065166
0.182600,-1.096975
0.182700,-0.967142
0.182800,-0.699038
0.182900,-0.371210
0.183000,-0.375754
0.183100,-0.676966
0.183200,-1.053806
0.183300,-0.805500
0.183400,-0.579267
0.183500,-0.233912
0.183600,-0.271239
0.183700,-0.392308
0.183800,-0.637692
0.183900,-0.657491
0.184000,-0.531229
0.184100,-0.269616
0.184200,-0.159907
0.184300,-0.118361
0.184400,-0.169645
0.184500,-0.220604
0.184600,-0.213788
0.184700,-0.207945
0.184800,-0.144003
0.184900,-0.138160
0.185000,-0.152117
0.185100,-0.178733
0.185200,-0.251764
0.185300,-0.281301
0.185400,-0.370885
0.185500,-0.416976
0.185600,-0.501367
0.185700,-0.419573
0.185800,-0.407238
0.185900,-0.425740
0.186000,-0.748699
0.186100,-0.941500
0.186200,-0.899305
0.186300,-0.693520
0.186400,-0.508508
0.186500,-0.676641
0.186600,-0.921701
0.186700,-1.221615
0.186800,-1.213176
0.186900,-1.045367
0.187000,-0.852565
0.187100,-0.889567
0.187200,-1.056727
0.187300,-1.211553
0.187400,-1.198894
0.187500,-1.234923
0.187600,-1.143390
0.187700,-1.186560
0.187800,-1.235572
0.187900,-1.258942
0.188000,-1.235247
0.188100,-1.247581
0.188200,-1.272574
0.188300,-1.276794
0.188400,-1.212526
0.188500,-1.170331
0.188600,-1.128784
0.188700,-1.083343
0.188800,-1.236870
0.188900,-1.287830
0.189000,-1.287505
0.189100,-1.232651
0.189200,-1.068737
0.189300,-1.107362
0.189400,-1.075877
0.189500,-1.055104
0.189600,-1.027190
0.189700,-1.016154
0.189800,-1.010961
0.189900,-0.991486
0.190000,-1.000250
0.190100,-0.990837
0.190200,-0.982722
0.190300,-0.980450
0.190400,-0.977204
0.190500,-0.989863
0.190600,-1.002522
0.190700,-1.005118
0.190800,-1.070684
0.190900,-1.051209
0.191000,-1.111257
0.191100,-1.298541
0.191200,-1.638703
0.191300,-1.703944
0.191400,-1.516011
0.191500,-1.260565
0.191600,-1.185911
0.191700,-1.456288
0.191800,-1.837997
0.191900,-2.020412
0.192000,-1.922388
0.192100,-1.697777
0.192200,-1.588068
0.192300,-1.671161
0.192400,-1.897071
0.192500,-2.079811
0.192600,-2.104804
0.192700,-2.050923
0.192800,-2.051897
0.192900,-2.073320
0.193000,-2.117787
0.193100,-2.186599
0.193200,-2.246971
0.193300,-2.259630
0.193400,-2.259306
0.193500,-2.384270
0.193600,-2.472881
0.193700,-2.505664
0.193800,-2.479698
0.193900,-2.537798
0.194000,-2.619593
0.194100,-2.686458
0.194200,-2.664386
0.194300,-2.514753
0.194400,-2.419001
0.194500,-2.561168
0.194600,-2.796491
0.194700,-3.041877
0.194800,-3.014937
0.194900,-2.806229
0.195000,-2.599469
0.195100,-2.601741
0.195200,-2.824406
0.195300,-3.090889
0.195400,-3.154508
0.195500,-3.065896
0.195600,-2.944826
0.195700,-2.882506
0.195800,-2.884778
0.195900,-2.911070
0.196000,-2.928273
0.196100,-2.925351
0.196200,-2.904902
0.196300,-2.821160
0.196400,-2.774744
0.196500,-2.670878
0.196600,-2.497874
0.196700,-2.404394
0.196800,-2.420624
0.196900,-2.408939
0.197000,-2.372261
0.197100,-2.210943
0.197200,-2.005806
0.197300,-1.775677
0.197400,-1.664994
0.197500,-1.677653
0.197600,-1.615009
0.197700,-1.537109
0.197800,-1.429672
0.197900,-1.274522
0.198000,-1.176498
0.198100,-1.111906
0.198200,-1.099247
0.198300,-1.083667
0.198400,-1.090808
0.198500,-1.103142
0.198600,-1.088536
0.198700,-0.991811
0.198800,-0.958054
0.198900,-0.923648
0.199000,-0.915534
0.199100,-0.980126
0.199200,-0.909042
0.199300,-0.944422
0.199400,-0.667878
0.199500,-0.368613
0.199600,-0.109272
0.199700,-0.308890
0.199800,-0.672422
0.199900,-0.901252
0.200000,-0.696116
0.200100,-0.344919
0.200200,-0.187497
0.200300,-0.181330
0.200400,-0.382246
0.200500,-0.568880
0.200600,-0.552327
0.200700,-0.465014
0.200800,-0.347515
0.200900,-0.377702
0.201000,-0.398799
0.201100,-0.466962
0.201200,-0.454303
0.201300,-0.480269
0.201400,-0.473778
0.201500,-0.499744
0.201600,-0.540642
0.201700,-0.552651
0.201800,-0.558818
0.201900,-0.621138
0.202000,-0.788298
0.202100,-0.865548
0.202200,-0.923648
0.202300,-0.921701
0.202400,-0.789921
0.202500,-0.836336
0.202600,-0.841529
0.202700,-1.274522
0.202800,-1.218693
0.202900,-1.178770
0.203000,-0.877558
0.203100,-0.874636
0.203200,-1.028488
0.203300,-1.316068
0.203400,-1.386827
0.203500,-1.317042
0.203600,-1.111906
0.203700,-0.995056
0.203800,-1.084316
0.203900,-1.226159
0.204000,-1.289452
0.204100,-1.242388
0.204200,-1.225185
0.204300,-1.226808
0.204400,-1.276794
0.204500,-1.287505
0.204600,-1.283610
0.204700,-1.214799
0.204800,-1.233300
0.204900,-1.256994
0.205000,-1.269004
0.205100,-1.232001
0.205200,-1.169357
0.205300,-1.099896
0.205400,-1.136574
0.205500,-1.281338
0.205600,-1.301462
0.205700,-1.271925
0.205800,-1.200841
0.205900,-1.074579
0.206000,-1.112555
0.206100,-1.084316
0.206200,-1.051209
0.206300,-0.998627
0.206400,-0.976231
0.206500,-0.950913
0.206600,-0.907744
0.206700,-0.887620
0.206800,-0.863276
0.206900,-0.843477
0.207000,-0.816212
0.207100,-0.786350
0.207200,-0.777586
0.207300,-0.777262
0.207400,-0.800632
0.207500,-0.809720
0.207600,-0.832116
0.207700,-0.883400
0.207800,-1.138846
0.207900,-1.442655
0.208000,-1.447199
0.208100,-1.200192
0.208200,-0.923973
0.208300,-1.010636
0.208400,-1.236870
0.208500,-1.668240
0.208600,-1.734780
0.208700,-1.635457
0.208800,-1.403381
0.208900,-1.403056
0.209000,-1.611763
0.209100,-1.858121
0.209200,-2.018790
0.209300,-2.018465
0.209400,-2.024307
0.209500,-2.021386
0.209600,-2.140508
0.209700,-2.254112
0.209800,-2.342724
0.209900,-2.388165
0.210000,-2.424519
0.210100,-2.546562
0.210200,-2.696195
0.210300,-2.809150
0.210400,-2.796816
0.210500,-2.793246
0.210600,-2.866602
0.210700,-2.989294
0.210800,-3.087968
0.210900,-3.065247
0.211000,-2.863680
0.211100,-2.898086
0.211200,-3.088942
0.211300,-3.353478
0.211400,-3.574520
0.211500,-3.471627
0.211600,-3.272007
0.211700,-3.171062
0.211800,-3.293430
0.211900,-3.591399
0.212000,-3.807897
0.212100,-3.816661
0.212200,-3.671896
0.212300,-3.571599
0.212400,-3.567055
0.212500,-3.638464
0.212600,-3.700135
0.212700,-3.712469
0.212800,-3.703056
0.212900,-3.648850
0.213000,-3.599513
0.213100,-3.562186
0.213200,-3.468381
0.213300,-3.315502
0.213400,-3.200274
0.213500,-3.157429
0.213600,-3.113610
0.213700,-3.069791
0.213800,-2.827976
0.213900,-2.677694
0.214000,-2.358953
0.214100,-2.284299
0.214200,-2.223926
0.214300,-2.154141
0.214400,-2.011649
0.214500,-1.829233
0.214600,-1.647791
0.214700,-1.496536
0.214800,-1.439085
0.214900,-1.399161
0.215000,-1.355018
0.215100,-1.269004
0.215200,-1.295295
0.215300,-1.156374
0.215400,-1.132679
0.215500,-1.051858
0.215600,-1.061920
0.215700,-1.081395
0.215800,-1.045691
0.215900,-1.141768
0.216000,-0.935009
0.216100,-0.825300
0.216200,-0.410160
0.216300,-0.357577
0.216400,-0.507534
0.216500,-0.939228
0.216600,-0.920402
0.216700,-0.645482
0.216800,-0.392308
0.216900,-0.266695
0.217000,-0.278380
0.217100,-0.483515
0.217200,-0.574398
0.217300,-0.514675
0.217400,-0.295907
0.217500,-0.141406
0.217600,-0.099860
0.217700,-0.176785
0.217800,-0.236508
0.217900,-0.259229
0.218000,-0.206972
0.218100,-0.159583
0.218200,-0.148871
0.218300,-0.141731
0.218400,-0.127449
0.218500,-0.197883
0.218600,-0.302074
0.218700,-0.402370
0.218800,-0.434179
0.218900,-0.553625
0.219000,-0.387764
0.219100,-0.454952
0.219200,-0.365692
0.219300,-0.681835
0.219400,-0.886646
0.219500,-0.898655
0.219600,-0.767524
0.219700,-0.509482
0.219800,-0.549081
0.219900,-0.744479
0.220000,-1.016803
0.220100,-1.106713
0.220200,-1.016803
0.220300,-0.825625
0.220400,-0.800632
0.220500,-0.937605
0.220600,-1.092431
0.220700,-1.145987
0.220800,-1.182340
0.220900,-1.153452
0.221000,-1.201815
0.221100,-1.241414
0.221200,-1.327429
0.221300,-1.303409
0.221400,-1.323858
0.221500,-1.357290
0.221600,-1.430646
0.221700,-1.447199
0.221800,-1.410846
0.221900,-1.383257
0.222000,-1.343009
0.222100,-1.466674
0.222200,-1.585472
0.222300,-1.588068
0.222400,-1.565023
0.222500,-1.525099
0.222600,-1.450121
0.222700,-1.486474
0.222800,-1.435839
0.222900,-1.434541
0.223000,-1.397214
0.223100,-1.395591
0.223200,-1.408899
0.223300,-1.394942
0.223400,-1.379037
0.223500,-1.407925
0.223600,-1.409872
0.223700,-1.431295
0.223800,-1.435190
0.223900,-1.457586
0.224000,-1.483553
0.224100,-1.495562
0.224200,-1.554961
0.224300,-1.638379
0.224400,-1.764966
0.224500,-2.118761
0.224600,-2.297282
0.224700,-2.282676
0.224800,-1.982112
0.224900,-1.822417
0.225000,-1.946732
0.225100,-2.300203
0.225200,-2.560194
0.225300,-2.546237
0.225400,-2.338179
0.225500,-2.157711
0.225600,-2.154141
0.225700,-2.368041
0.225800,-2.519297
0.225900,-2.550132
0.226000,-2.521244
0.226100,-2.464118
0.226200,-2.450810
0.226300,-2.427440
0.226400,-2.462170
0.226500,-2.473855
0.226600,-2.449187
0.226700,-2.465091
0.226800,-2.536824
0.226900,-2.568634
0.227000,-2.599794
0.227100,-2.528710
0.227200,-2.543965
0.227300,-2.590705
0.227400,-2.649780
0.227500,-2.648806
0.227600,-2.482619
0.227700,-2.362523
0.227800,-2.406342
0.227900,-2.598495
0.228000,-2.827002
0.228100,-2.915289
0.228200,-2.744233
0.228300,-2.553703
0.228400,-2.529684
0.228500,-2.693923
0.228600,-2.936387
0.228700,-3.062975
0.228800,-3.001304
0.228900,-2.867900
0.229000,-2.805255
0.229100,-2.804606
0.229200,-2.852320
0.229300,-2.851995
0.229400,-2.851995
0.229500,-2.800386
0.229600,-2.761436
0.229700,-2.719890
0.229800,-2.630954
0.229900,-2.461196
0.230000,-2.312213
0.230100,-2.247621
0.230200,-2.227496
0.230300,-2.196661
0.230400,-2.091172
0.230500,-1.848059
0.230600,-1.737376
0.230700,-1.454016
0.230800,-1.445577
0.230900,-1.375467
0.231000,-1.296918
0.231100,-1.183963
0.231200,-1.081395
0.231300,-0.937930
0.231400,-0.875610
0.231500,-0.841204
0.231600,-0.865224
0.231700,-0.812317
0.231800,-0.879505
0.231900,-0.869768
0.232000,-0.800956
0.232100,-0.769796
0.232200,-0.725329
0.232300,-0.783753
0.232400,-0.717214
0.232500,-0.822054
0.232600,-0.769472
0.232700,-0.760708
0.232800,-0.462742
0.232900,-0.256633
0.233000,-0.110246
0.233100,-0.601988
0.233200,-0.883076
0.233300,-0.752594
0.233400,-0.538370
0.233500,-0.335506
0.233600,-0.293959
0.233700,-0.481892
0.233800,-0.705529
0.233900,-0.754541
0.234000,-0.599716
0.234100,-0.514350
0.234200,-0.388413
0.234300,-0.454627
0.234400,-0.485787
0.234500,-0.529606
0.234600,-0.500393
0.234700,-0.469234
0.234800,-0.444565
0.234900,-0.437749
0.235000,-0.435477
0.235100,-0.443916
0.235200,-0.484814
0.235300,-0.554599
0.235400,-0.611076
0.235500,-0.687028
0.235600,-0.687353
0.235700,-0.572126
0.235800,-0.585434
0.235900,-0.598742
0.236000,-0.892813
0.236100,-1.028164
0.236200,-1.016479
0.236300,-0.828546
0.236400,-0.667553
0.236500,-0.821080
0.236600,-1.045691
0.236700,-1.256670
0.236800,-1.203763
0.236900,-1.070684
0.237000,-0.904823
0.237100,-0.933061
0.237200,-1.111581
0.237300,-1.189806
0.237400,-1.137548
0.237500,-1.134302
0.237600,-1.073605
0.237700,-1.158321
0.237800,-1.187534
0.237900,-1.212526
0.238000,-1.148584
0.238100,-1.120020
0.238200,-1.185262
0.238300,-1.204736
0.238400,-1.190779
0.238500,-1.146312
0.238600,-1.088536
0.238700,-1.092431
0.238800,-1.219667
0.238900,-1.293023
0.239000,-1.308278
0.239100,-1.266083
0.239200,-1.137548
0.239300,-1.166111
0.239400,-1.160593
0.239500,-1.103791
0.239600,-1.062894
0.239700,-1.031410
0.239800,-0.992135
0.239900,-0.962598
0.240000,-0.907095
0.240100,-0.886321
0.240200,-0.867820
0.240300,-0.832441
0.240400,-0.811668
0.240500,-0.781481
0.240600,-0.766875
0.240700,-0.776288
0.240800,-0.769796
0.240900,-0.829844
0.241000,-0.824002
0.241100,-1.047963
0.241200,-1.339438
0.241300,-1.483877
0.241400,-1.262837
0.241500,-1.019400
0.241600,-0.931114
0.241700,-1.190130
0.241800,-1.533538
0.241900,-1.735753
0.242000,-1.650713
0.242100,-1.413118
0.242200,-1.380335
0.242300,-1.454340
0.242400,-1.707190
0.242500,-1.885061
0.242600,-1.905835
0.242700,-1.873052
0.242800,-1.855200
0.242900,-1.908107
0.243000,-1.977892
0.243100,-2.037940
0.243200,-2.087601
0.243300,-2.117463
0.243400,-2.171668
0.243500,-2.227496
0.243600,-2.302800
0.243700,-2.314485
0.243800,-2.347592
0.243900,-2.364795
0.244000,-2.476127
0.244100,-2.535202
0.244200,-2.515727
0.244300,-2.377129
0.244400,-2.257358
0.244500,-2.382972
0.244600,-2.595250
0.244700,-2.829599
0.244800,-2.833169
0.244900,-2.623488
0.245000,-2.447239
0.245100,-2.464767
0.245200,-2.672176
0.245300,-2.901657
0.245400,-2.975662
0.245500,-2.838687
0.245600,-2.693598
0.245700,-2.657245
0.245800,-2.678018
0.245900,-2.756243
0.246000,-2.783833
0.246100,-2.781561
0.246200,-2.779613
0.246300,-2.726381
0.246400,-2.673474
0.246500,-2.609531
0.246600,-2.470285
0.246700,-2.417378
0.246800,-2.403096
0.246900,-2.396604
0.247000,-2.400175
0.247100,-2.249568
0.247200,-2.118761
0.247300,-1.948030
0.247400,-1.843839
0.247500,-1.874675
0.247600,-1.828909
0.247700,-1.785090
0.247800,-1.667916
0.247900,-1.569242
0.248000,-1.448173
0.248100,-1.393319
0.248200,-1.357290
0.248300,-1.355667
0.248400,-1.324832
0.248500,-1.318989
0.248600,-1.266407
0.248700,-1.194999
0.248800,-1.188832
0.248900,-1.115476
0.249000,-1.224211
0.249100,-1.138522
0.249200,-1.289452
0.249300,-1.116450
0.249400,-1.070359
0.249500,-0.699687
0.249600,-0.466962
0.249700,-0.628928
0.249800,-0.988889
0.249900,-1.131705
0.250000,-0.883076
0.250100,-0.647754
0.250200,-0.492604
0.250300,-0.493902
0.250400,-0.682484
0.250500,-0.817510
0.250600,-0.724030
0.250700,-0.573424
0.250800,-0.386141
0.250900,-0.382895
0.251000,-0.424117
0.251100,-0.487735
0.251200,-0.432556
0.251300,-0.407238
0.251400,-0.400422
0.251500,-0.382570
0.251600,-0.369587
0.251700,-0.362122
0.251800,-0.397176
0.251900,-0.449759
0.252000,-0.542914
0.252100,-0.545186
0.252200,-0.612374
0.252300,-0.569205
0.252400,-0.499095
0.252500,-0.493902
0.252600,-0.561090
0.252700,-0.889892
0.252800,-0.927868
0.252900,-0.847372
0.253000,-0.580565
0.253100,-0.550054
0.253200,-0.679887
0.253300,-0.911314
0.253400,-1.038550
0.253500,-0.928842
0.253600,-0.707152
0.253700,-0.609778
0.253800,-0.701634
0.253900,-0.849319
0.254000,-0.881777
0.254100,-0.841854
0.254200,-0.859056
0.254300,-0.863601
0.254400,-0.978827
0.254500,-1.010961
0.254600,-1.001873
0.254700,-0.953834
0.254800,-1.006092
0.254900,-1.091457
0.255000,-1.133328
0.255100,-1.087238
0.255200,-1.027839
0.255300,-0.988565
0.255400,-1.006417
0.255500,-1.146312
0.255600,-1.157672
0.255700,-1.138846
0.255800,-1.100870
0.255900,-1.014207
0.256000,-0.984021
0.256100,-0.951562
0.256200,-0.934035
0.256300,-0.885997
0.256400,-0.879505
0.256500,-0.874636
0.256600,-0.841529
0.256700,-0.866197
0.256800,-0.869443
0.256900,-0.898331
0.257000,-0.902226
0.257100,-0.894111
0.257200,-0.961624
0.257300,-0.987591
0.257400,-1.059973
0.257500,-1.096326
0.257600,-1.208307
0.257700,-1.255696
0.257800,-1.565023
0.257900,-1.912326
0.258000,-1.944135
0.258100,-1.780221
0.258200,-1.567295
0.258300,-1.647142
0.258400,-1.969778
0.258500,-2.349864
0.258600,-2.500147
0.258700,-2.399201
0.258800,-2.222303
0.258900,-2.249244
0.259000,-2.468986
0.259100,-2.690677
0.259200,-2.837064
0.259300,-2.803632
0.259400,-2.765981
0.259500,-2.784482
0.259600,-2.869847
0.259700,-2.957810
0.259800,-2.987996
0.259900,-2.982154
0.260000,-2.962029
0.260100,-2.977934
0.260200,-3.106794
0.260300,-3.154508
0.260400,-3.138603
0.260500,-3.108741
0.260600,-3.115558
0.260700,-3.157104
0.260800,-3.174957
0.260900,-3.113610
0.261000,-2.877962
0.261100,-2.854592
0.261200,-2.994488
0.261300,-3.185343
0.261400,-3.340819
0.261500,-3.183720
0.261600,-2.907175
0.261700,-2.723785
0.261800,-2.790974
0.261900,-3.043825
0.262000,-3.239549
0.262100,-3.177229
0.262200,-3.019156
0.262300,-2.860759
0.262400,-2.838687
0.262500,-2.872120
0.262600,-2.903280
0.262700,-2.882506
0.262800,-2.846802
0.262900,-2.784806
0.263000,-2.719240
0.263100,-2.634200
0.263200,-2.508586
0.263300,-2.348891
0.263400,-2.268394
0.263500,-2.245024
0.263600,-2.208022
0.263700,-2.178809
0.263800,-1.975620
0.263900,-1.844813
0.264000,-1.607543
0.264100,-1.556259
0.264200,-1.503352
0.264300,-1.455314
0.264400,-1.345281
0.264500,-1.192078
0.264600,-1.029462
0.264700,-0.937930
0.264800,-0.902550
0.264900,-0.906770
0.265000,-0.877558
0.265100,-0.852889
0.265200,-0.821405
0.265300,-0.816536
0.265400,-0.734417
0.265500,-0.761033
0.265600,-0.732145
0.265700,-0.755515
0.265800,-0.744479
0.265900,-0.822703
0.266000,-0.708126
0.266100,-0.489033
0.266200,-0.199506
0.266300,0.026403
0.266400,-0.311162
0.266500,-0.710073
0.266600,-0.653921
0.266700,-0.440346
0.266800,-0.122905
0.266900,-0.035268
0.267000,-0.079411
0.267100,-0.319926
0.267200,-0.422169
0.267300,-0.332260
0.267400,-0.078437
0.267500,0.000761
0.267600,0.059185
0.267700,-0.006056
0.267800,-0.104728
0.267900,-0.138485
0.268000,-0.076814
0.268100,-0.018714
0.268200,-0.007678
0.268300,-0.038514
0.268400,-0.041435
0.268500,-0.073568
0.268600,-0.073568
0.268700,-0.200480
0.268800,-0.232289
0.268900,-0.271239
0.269000,-0.237807
0.269100,-0.137511
0.269200,-0.156661
0.269300,-0.307267
0.269400,-0.635744
0.269500,-0.577644
0.269600,-0.434503
0.269700,-0.128747
0.269800,-0.152117
0.269900,-0.342971
0.270000,-0.605233
0.270100,-0.658789
0.270200,-0.549730
0.270300,-0.277081
0.270400,-0.210542
0.270500,-0.347515
0.270600,-0.497472
0.270700,-0.550704
0.270800,-0.581539
0.270900,-0.538694
0.271000,-0.566284
0.271100,-0.624384
0.271200,-0.691897
0.271300,-0.713644
0.271400,-0.744804
0.271500,-0.811343
0.271600,-0.896059
0.271700,-0.933386
0.271800,-0.966169
0.271900,-0.995056
0.272000,-1.008364
0.272100,-1.147935
0.272200,-1.311849
0.272300,-1.355343
0.272400,-1.402083
0.272500,-1.414417
0.272600,-1.385204
0.272700,-1.448498
0.272800,-1.424803
0.272900,-1.447849
0.273000,-1.473491
0.273100,-1.454016
0.273200,-1.476736
0.273300,-1.459209
0.273400,-1.490369
0.273500,-1.486149
0.273600,-1.495887
0.273700,-1.506273
0.273800,-1.519906
0.273900,-1.547820
0.274000,-1.571190
0.274100,-1.604297
0.274200,-1.609166
0.274300,-1.658178
0.274400,-1.810732
0.274500,-2.092470
0.274600,-2.334934
0.274700,-2.201530
0.274800,-1.972699
0.274900,-1.756527
0.275000,-1.881816
0.275100,-2.260929
0.275200,-2.503717
0.275300,-2.528385
0.275400,-2.339802
0.275500,-2.180757
0.275600,-2.158360
0.275700,-2.352786
0.275800,-2.545264
0.275900,-2.659842
0.276000,-2.643288
0.276100,-2.544290
0.276200,-2.542342
0.276300,-2.553054
0.276400,-2.589732
0.276500,-2.618944
0.276600,-2.601417
0.276700,-2.585512
0.276800,-2.593951
0.276900,-2.622515
0.277000,-2.611803
0.277100,-2.528710
0.277200,-2.476127
0.277300,-2.526113
0.277400,-2.572529
0.277500,-2.553054
0.277600,-2.396604
0.277700,-2.185950
0.277800,-2.213539
0.277900,-2.369339
0.278000,-2.576099
0.278100,-2.654324
0.278200,-2.450810
0.278300,-2.208671
0.278400,-2.096689
0.278500,-2.219057
0.278600,-2.456328
0.278700,-2.588758
0.278800,-2.534228
0.278900,-2.383296
0.279000,-2.287869
0.279100,-2.289492
0.279200,-2.340127
0.279300,-2.372910
0.279400,-2.393359
0.279500,-2.409588
0.279600,-2.337855
0.279700,-2.294685
0.279800,-2.235936
0.279900,-2.094742
0.280000,-1.985358
0.280100,-1.967830
0.280200,-1.983735
0.280300,-2.007429
0.280400,-1.946408
0.280500,-1.768536
0.280600,-1.725367
0.280700,-1.480307
0.280800,-1.509519
0.280900,-1.471219
0.281000,-1.411495
0.281100,-1.314121
0.281200,-1.226483
0.281300,-1.129109
0.281400,-1.054779
0.281500,-1.034980
0.281600,-1.042770
0.281700,-1.042121
0.281800,-1.095352
0.281900,-1.066140
0.282000,-1.039524
0.282100,-0.934035
0.282200,-0.970064
0.282300,-0.939877
0.282400,-1.028164
0.282500,-1.078474
0.282600,-1.044717
0.282700,-0.953510
0.282800,-0.634121
0.282900,-0.374131
0.283000,-0.326742
0.283100,-0.670150
0.283200,-1.087238
0.283300,-0.879830
0.283400,-0.678589
0.283500,-0.343296
0.283600,-0.305644
0.283700,-0.374780
0.283800,-0.673396
0.283900,-0.689625
0.284000,-0.547133
0.284100,-0.337778
0.284200,-0.250141
0.284300,-0.197883
0.284400,-0.247869
0.284500,-0.297205
0.284600,-0.268642
0.284700,-0.262150
0.284800,-0.298828
0.284900,-0.244298
0.285000,-0.224499
0.285100,-0.138160
0.285200,-0.207296
0.285300,-0.266370
0.285400,-0.379324
0.285500,-0.484814
0.285600,-0.445539
0.285700,-0.397826
0.285800,-0.296881
0.285900,-0.399773
0.286000,-0.653272
0.286100,-0.884374
0.286200,-0.831467
0.286300,-0.669825
0.286400,-0.444565
0.286500,-0.614646
0.286600,-0.860355
0.286700,-1.107686
0.286800,-1.097300
0.286900,-0.933061
0.287000,-0.750971
0.287100,-0.767849
0.287200,-0.951562
0.287300,-1.088536
0.287400,-1.083343
0.287500,-1.133328
0.287600,-1.088861
0.287700,-1.194350
0.287800,-1.244985
0.287900,-1.331973
0.288000,-1.351772
0.288100,-1.370923
0.288200,-1.402407
0.288300,-1.434216
0.288400,-1.427725
0.288500,-1.361834
0.288600,-1.316393
0.288700,-1.281338
0.288800,-1.422207
0.288900,-1.496861
0.289000,-1.476412
0.289100,-1.322235
0.289200,-1.241739
0.289300,-1.271925
0.289400,-1.266083
0.289500,-1.221939
0.289600,-1.183639
0.289700,-1.151830
0.289800,-1.136250
0.289900,-1.124889
0.290000,-1.101519
0.290100,-1.108336
0.290200,-1.075228
0.290300,-1.081720
0.290400,-1.064517
0.290500,-1.084966
0.290600,-1.050560
0.290700,-1.076526
0.290800,-1.051209
0.290900,-1.107037
0.291000,-1.095677
0.291100,-1.309577
0.291200,-1.629615
0.291300,-1.766913
0.291400,-1.553663
0.291500,-1.251152
0.291600,-1.118398
0.291700,-1.324183
0.291800,-1.750035
0.291900,-1.962637
0.292000,-1.857147
0.292100,-1.656231
0.292200,-1.522827
0.292300,-1.632211
0.292400,-1.843190
0.292500,-2.034045
0.292600,-2.073320
0.292700,-2.069100
0.292800,-2.028852
0.292900,-2.078513
0.293000,-2.139534
0.293100,-2.185625
0.293200,-2.213215
0.293300,-2.214513
0.293400,-2.245673
0.293500,-2.308642
0.293600,-2.399526
0.293700,-2.408939
0.293800,-2.347917
0.293900,-2.362199
0.294000,-2.450810
0.294100,-2.531307
0.294200,-2.487812
0.294300,-2.350514
0.294400,-2.242103
0.294500,-2.375182
0.294600,-2.638419
0.294700,-2.915614
0.294800,-2.932168
0.294900,-2.746506
0.295000,-2.542992
0.295100,-2.560844
0.295200,-2.814019
0.295300,-3.106145
0.295400,-3.234031
0.295500,-3.143472
0.295600,-3.016235
0.295700,-2.951643
0.295800,-2.995137
0.295900,-3.109066
0.296000,-3.136980
0.296100,-3.158078
0.296200,-3.123348
0.296300,-3.053237
0.296400,-3.010392
0.296500,-2.914315
0.296600,-2.761436
0.296700,-2.657570
0.296800,-2.613426
0.296900,-2.581942
0.297000,-2.547211
0.297100,-2.357005
0.297200,-2.168098
0.297300,-1.973023
0.297400,-1.826961
0.297500,-1.825014
0.297600,-1.802617
0.297700,-1.783142
0.297800,-1.672460
0.297900,-1.554961
0.298000,-1.487123
0.298100,-1.470894
0.298200,-1.497510
0.298300,-1.531591
0.298400,-1.551066
0.298500,-1.624097
0.298600,-1.619877
0.298700,-1.641300
0.298800,-1.617930
0.298900,-1.662398
0.299000,-1.693558
0.299100,-1.770159
0.299200,-1.846436
0.299300,-1.779897
0.299400,-1.651362
0.299500,-1.315094
0.299600,-1.053157
0.299700,-1.208307
0.299800,-1.527047
0.299900,-1.806512
0.300000,-1.422531
0.300100,-1.202464
0.300200,-0.889567
0.300300,-0.862627
0.300400,-1.020049
0.300500,-1.185586
0.300600,-1.148908
0.300700,-0.962274
0.300800,-0.772069
0.300900,-0.659763
0.301000,-0.696441
0.301100,-0.660412
0.301200,-0.638990
0.301300,-0.654570
0.301400,-0.590303
0.301500,-0.540317
0.301600,-0.471506
0.301700,-0.421196
0.301800,-0.331286
0.301900,-0.359200
0.302000,-0.500393
0.302100,-0.421520
0.302200,-0.468260
0.302300,-0.301749
0.302400,-0.246571
0.302500,-0.098886
0.302600,-0.188470
0.302700,-0.389386
0.302800,-0.342647
0.302900,-0.170618
0.303000,0.157209
0.303100,0.310087
0.303200,0.263672
0.303300,0.075414
0.303400,-0.008977
0.303500,0.105276
0.303600,0.355853
0.303700,0.510029
0.303800,0.440244
0.303900,0.317552
0.304000,0.298077
0.304100,0.318851
0.304200,0.313008
0.304300,0.302297
0.304400,0.209791
0.304500,0.152665
0.304600,0.137085
0.304700,0.144226
0.304800,0.085477
0.304900,-0.014170
0.305000,-0.061559
0.305100,-0.045979
0.305200,-0.049549
0.305300,-0.045005
0.305400,-0.130370
0.305500,-0.355955
0.305600,-0.462093
0.305700,-0.456900
0.305800,-0.405940
0.305900,-0.391659
0.306000,-0.462742
0.306100,-0.490981
0.306200,-0.472155
0.306300,-0.476699
0.306400,-0.492279
0.306500,-0.459821
0.306600,-0.461768
0.306700,-0.427038
0.306800,-0.415678
0.306900,-0.391983
0.307000,-0.381597
0.307100,-0.402045
0.307200,-0.380623
0.307300,-0.396203
0.307400,-0.415678
0.307500,-0.472155
0.307600,-0.533176
0.307700,-0.622761
0.307800,-0.909042
0.307900,-1.285882
0.308000,-1.319639
0.308100,-1.201491
0.308200,-0.974283
0.308300,-1.069710
0.308400,-1.471219
0.308500,-1.896097
0.308600,-2.080460
0.308700,-2.039238
0.308800,-1.926283
0.308900,-1.997692
0.309000,-2.252165
0.309100,-2.608557
0.309200,-2.806554
0.309300,-2.896463
0.309400,-2.957161
0.309500,-3.048693
0.309600,-3.186317
0.309700,-3.283692
0.309800,-3.371006
0.309900,-3.424238
0.310000,-3.466758
0.310100,-3.563160
0.310200,-3.669948
0.310300,-3.756613
0.310400,-3.719285
0.310500,-3.670922
0.310600,-3.732918
0.310700,-3.772193
0.310800,-3.818284
0.310900,-3.682932
0.311000,-3.441765
0.311100,-3.352504
0.311200,-3.467732
0.311300,-3.657939
0.311400,-3.817959
0.311500,-3.612497
0.311600,-3.335951
0.311700,-3.172684
0.311800,-3.292781
0.311900,-3.555370
0.312000,-3.740383
0.312100,-3.736164
0.312200,-3.599189
0.312300,-3.492725
0.312400,-3.529079
0.312500,-3.586205
0.312600,-3.641385
0.312700,-3.606330
0.312800,-3.557642
0.312900,-3.513498
0.313000,-3.457994
0.313100,-3.376524
0.313200,-3.170412
0.313300,-2.944177
0.313400,-2.829599
0.313500,-2.757217
0.313600,-2.703660
0.313700,-2.591679
0.313800,-2.332337
0.313900,-2.123305
0.314000,-1.873052
0.314100,-1.711734
0.314200,-1.636106
0.314300,-1.516011
0.314400,-1.347877
0.314500,-1.144364
0.314600,-0.968116
0.314700,-0.808746
0.314800,-0.762656
0.314900,-0.697090
0.315000,-0.616594
0.315100,-0.520518
0.315200,-0.477997
0.315300,-0.375429
0.315400,-0.260528
0.315500,-0.230991
0.315600,-0.130370
0.315700,-0.170943
0.315800,-0.025855
0.315900,-0.131669
0.316000,0.090021
0.316100,0.291261
0.316200,0.710296
0.316300,0.843050
0.316400,0.507433
0.316500,0.198106
0.316600,0.082880
0.316700,0.392531
0.316800,0.576893
0.316900,0.736912
0.317000,0.597017
0.317100,0.293858
0.317200,0.108197
0.317300,0.064379
0.317400,0.247443
0.317500,0.257180
0.317600,0.253610
0.317700,0.030298
0.317800,-0.043707
0.317900,-0.147898
0.318000,-0.207296
0.318100,-0.224174
0.318200,-0.286494
0.318300,-0.370885
0.318400,-0.481892
0.318500,-0.495525
0.318600,-0.648727
0.318700,-0.720460
0.318800,-0.800307
0.318900,-0.843477
0.319000,-0.818484
0.319100,-0.732794
0.319200,-0.737338
0.319300,-0.899954
0.319400,-1.223238
0.319500,-1.224861
0.319600,-1.125863
0.319700,-0.889243
0.319800,-0.941176
0.319900,-1.243362
0.320000,-1.613061
0.320100,-1.769835
0.320200,-1.696803
0.320300,-1.535161
0.320400,-1.536460
0.320500,-1.803591
0.320600,-2.070074
0.320700,-2.181406
0.320800,-2.239506
0.320900,-2.247621
0.321000,-2.335907
0.321100,-2.469636
0.321200,-2.612777
0.321300,-2.705608
0.321400,-2.681589
0.321500,-2.664386
0.321600,-2.687431
0.321700,-2.661140
0.321800,-2.593627
0.321900,-2.542667
0.322000,-2.466390
0.322100,-2.511182
0.322200,-2.580319
0.322300,-2.547536
0.322400,-2.486839
0.322500,-2.282026
0.322600,-2.297282
0.322700,-2.301501
0.322800,-2.258332
0.322900,-2.252814
0.323000,-2.245024
0.323100,-2.218733
0.323200,-2.194714
0.323300,-2.191468
0.323400,-2.183029
0.323500,-2.168098
0.323600,-2.130771
0.323700,-2.124279
0.323800,-2.087601
0.323900,-2.082732
0.324000,-2.061959
0.324100,-2.090198
0.324200,-2.108050
0.324300,-2.129797
0.324400,-2.288194
0.324500,-2.547860
0.324600,-2.828625
0.324700,-2.657894
0.324800,-2.405368
0.324900,-2.201530
0.325000,-2.304098
0.325100,-2.693598
0.325200,-2.933790
0.325300,-2.974363
0.325400,-2.792272
0.325500,-2.596223
0.325600,-2.592004
0.325700,-2.727355
0.325800,-2.902630
0.325900,-2.979881
0.326000,-2.910096
0.326100,-2.824730
0.326200,-2.781561
0.326300,-2.794544
0.326400,-2.894516
0.326500,-2.955862
0.326600,-3.030192
0.326700,-3.055510
0.326800,-3.127567
0.326900,-3.290184
0.327000,-3.385612
0.327100,-3.380743
0.327200,-3.431378
0.327300,-3.455073
0.327400,-3.547580
0.327500,-3.500190
0.327600,-3.401841
0.327700,-3.190212
0.327800,-3.198002
0.327900,-3.317449
0.328000,-3.495322
0.328100,-3.533298
0.328200,-3.272007
0.328300,-2.958134
0.328400,-2.805255
0.328500,-2.865303
0.328600,-3.042851
0.328700,-3.097381
0.328800,-2.980531
0.328900,-2.756243
0.329000,-2.555650
0.329100,-2.451134
0.329200,-2.444318
0.329300,-2.441072
0.329400,-2.431010
0.329500,-2.386218
0.329600,-2.307669
0.329700,-2.187897
0.329800,-2.049625
0.329900,-1.874999
0.330000,-1.747763
0.330100,-1.720823
0.330200,-1.687715
0.330300,-1.649739
0.330400,-1.555610
0.330500,-1.365080
0.330600,-1.329376
0.330700,-1.088861
0.330800,-1.074904
0.330900,-1.045042
0.331000,-0.984021
0.331100,-0.894111
0.331200,-0.756489
0.331300,-0.637367
0.331400,-0.539992
0.331500,-0.515000
0.331600,-0.489033
0.331700,-0.445864
0.331800,-0.416976
0.331900,-0.399449
0.332000,-0.281625
0.332100,-0.221902
0.332200,-0.149845
0.332300,-0.176136
0.332400,-0.195287
0.332500,-0.154065
0.332600,-0.248843
0.332700,-0.058638
0.332800,0.169219
0.332900,0.508406
0.333000,0.424340
0.333100,0.161753
0.333200,-0.182953
0.333300,-0.007354
0.333400,0.239977
0.333500,0.456473
0.333600,0.507757
0.333700,0.416874
0.333800,0.173114
0.333900,0.142603
0.334000,0.210440
0.334100,0.367538
0.334200,0.392855
0.334300,0.378249
0.334400,0.327939
0.334500,0.259128
0.334600,0.264321
0.334700,0.226670
0.334800,0.203624
0.334900,0.158183
0.335000,0.159157
0.335100,0.149095
0.335200,0.082880
0.335300,-0.106676
0.335400,-0.199831
0.335500,-0.324470
0.335600,-0.388737
0.335700,-0.293959
0.335800,-0.365692
0.335900,-0.452680
0.336000,-0.865548
0.336100,-1.006092
0.336200,-1.004145
0.336300,-0.796412
0.336400,-0.685405
0.336500,-0.805500
0.336600,-1.080097
0.336700,-1.288154
0.336800,-1.278417
0.336900,-1.120345
0.337000,-0.940851
0.337100,-0.999276
0.337200,-1.169032
0.337300,-1.258293
0.337400,-1.247581
0.337500,-1.282961
0.337600,-1.232651
0.337700,-1.287505
0.337800,-1.314121
0.337900,-1.331973
0.338000,-1.306331
0.338100,-1.273872
0.338200,-1.319963
0.338300,-1.332297
0.338400,-1.336841
0.338500,-1.280689
0.338600,-1.204412
0.338700,-1.185586
0.338800,-1.333596
0.338900,-1.409548
0.339000,-1.383581
0.339100,-1.320937
0.339200,-1.178445
0.339300,-1.218044
0.339400,-1.196622
0.339500,-1.158970
0.339600,-1.142092
0.339700,-1.111257
0.339800,-1.084316
0.339900,-1.069710
0.340000,-1.048937
0.340100,-1.053157
0.340200,-1.028488
0.340300,-1.016479
0.340400,-1.000250
0.340500,-1.030111
0.340600,-1.050235
0.340700,-1.077825
0.340800,-1.093080
0.340900,-1.156698
0.341000,-1.192402
0.341100,-1.403056
0.341200,-1.737701
0.341300,-1.885711
0.341400,-1.703620
0.341500,-1.412469
0.341600,-1.359887
0.341700,-1.569892
0.341800,-1.937968
0.341900,-2.129148
0.342000,-2.012298
0.342100,-1.791582
0.342200,-1.665643
0.342300,-1.785090
0.342400,-1.979840
0.342500,-2.160957
0.342600,-2.193091
0.342700,-2.138885
0.342800,-2.061310
0.342900,-2.125902
0.343000,-2.175563
0.343100,-2.231067
0.343200,-2.256384
0.343300,-2.200881
0.343400,-2.234313
0.343500,-2.297931
0.343600,-2.369339
0.343700,-2.337206
0.343800,-2.269692
0.343900,-2.253788
0.344000,-2.316108
0.344100,-2.336556
0.344200,-2.306695
0.344300,-2.090198
0.344400,-1.972699
0.344500,-2.092470
0.344600,-2.312213
0.344700,-2.528061
0.344800,-2.480022
0.344900,-2.262876
0.345000,-2.011973
0.345100,-2.000288
0.345200,-2.209644
0.345300,-2.481970
0.345400,-2.548185
0.345500,-2.409263
0.345600,-2.221005
0.345700,-2.127200
0.345800,-2.121358
0.345900,-2.180107
0.346000,-2.187573
0.346100,-2.140184
0.346200,-2.063582
0.346300,-1.959066
0.346400,-1.918818
0.346500,-1.750360
0.346600,-1.570541
0.346700,-1.479009
0.346800,-1.465051
0.346900,-1.465376
0.347000,-1.483553
0.347100,-1.353071
0.347200,-1.221290
0.347300,-1.182989
0.347400,-0.998302
0.347500,-1.007066
0.347600,-0.999601
0.347700,-0.913586
0.347800,-0.775964
0.347900,-0.670799
0.348000,-0.593224
0.348100,-0.530580
0.348200,-0.579916
0.348300,-0.548107
0.348400,-0.577644
0.348500,-0.590303
0.348600,-0.585434
0.348700,-0.527658
0.348800,-0.529281
0.348900,-0.606856
0.349000,-0.625033
0.349100,-0.693520
0.349200,-0.746102
0.349300,-0.712345
0.349400,-0.664956
0.349500,-0.305969
0.349600,-0.269940
0.349700,-0.254360
0.349800,-0.849968
0.349900,-0.856135
0.350000,-0.827897
0.350100,-0.439372
0.350200,-0.301425
0.350300,-0.362771
0.350400,-0.510456
0.350500,-0.749348
0.350600,-0.728899
0.350700,-0.569205
0.350800,-0.355305
0.350900,-0.292337
0.351000,-0.403993
0.351100,-0.431582
0.351200,-0.507210
0.351300,-0.480269
0.351400,-0.507534
0.351500,-0.467611
0.351600,-0.492279
0.351700,-0.491630
0.351800,-0.501367
0.351900,-0.580565
0.352000,-0.705205
0.352100,-0.753243
0.352200,-0.820756
0.352300,-0.759085
0.352400,-0.698388
0.352500,-0.691248
0.352600,-0.760059
0.352700,-1.066789
0.352800,-1.092756
0.352900,-0.999925
0.353000,-0.743830
0.353100,-0.622436
0.353200,-0.754541
0.353300,-0.980126
0.353400,-1.154426
0.353500,-1.091782
0.353600,-0.885348
0.353700,-0.748049
0.353800,-0.803878
0.353900,-0.974283
0.354000,-1.053806
0.354100,-1.043744
0.354200,-1.060947
0.354300,-0.982073
0.354400,-0.981424
0.354500,-1.007390
0.354600,-1.034655
0.354700,-0.987266
0.354800,-1.007066
0.354900,-1.046990
0.355000,-1.044393
0.355100,-1.001873
0.355200,-0.937281
0.355300,-0.879830
0.355400,-0.905472
0.355500,-1.066789
0.355600,-1.095352
0.355700,-1.071982
0.355800,-0.934684
0.355900,-0.914560
0.356000,-0.959028
0.356100,-0.945720
0.356200,-0.923648
0.356300,-0.935658
0.356400,-0.933061
0.356500,-0.911639
0.356600,-0.932087
0.356700,-0.932087
0.356800,-0.926245
0.356900,-0.912937
0.357000,-0.931114
0.357100,-0.924622
0.357200,-0.945071
0.357300,-0.972660
0.357400,-0.986617
0.357500,-1.046340
0.357600,-1.116126
0.357700,-1.205386
0.357800,-1.485500
0.357900,-1.830207
0.358000,-1.920116
0.358100,-1.636431
0.358200,-1.480307
0.358300,-1.497834
0.358400,-1.861042
0.358500,-2.196986
0.358600,-2.331688
0.358700,-2.186274
0.358800,-2.032422
0.358900,-2.002885
0.359000,-2.161282
0.359100,-2.354084
0.359200,-2.522543
0.359300,-2.503717
0.359400,-2.470934
0.359500,-2.483593
0.359600,-2.534552
0.359700,-2.595250
0.359800,-2.632577
0.359900,-2.689379
0.360000,-2.699116
0.360100,-2.785780
0.360200,-2.871470
0.360300,-2.845504
0.360400,-2.808501
0.360500,-2.772148
0.360600,-2.829924
0.360700,-2.871470
0.360800,-2.919184
0.360900,-2.814668
0.361000,-2.580319
0.361100,-2.519622
0.361200,-2.611479
0.361300,-2.808501
0.361400,-2.956836
0.361500,-2.783508
0.361600,-2.524815
0.361700,-2.366418
0.361800,-2.429387
0.361900,-2.606935
0.362000,-2.780911
0.362100,-2.767279
0.362200,-2.610830
0.362300,-2.505015
0.362400,-2.475803
0.362500,-2.482944
0.362600,-2.491707
0.362700,-2.485865
0.362800,-2.469960
0.362900,-2.438151
0.363000,-2.419001
0.363100,-2.352136
0.363200,-2.240804
0.363300,-2.048651
0.363400,-2.004833
0.363500,-1.998016
0.363600,-1.982112
0.363700,-1.927906
0.363800,-1.705567
0.363900,-1.563725
0.364000,-1.254073
0.364100,-1.239142
0.364200,-1.209605
0.364300,-1.148584
0.364400,-1.033357
0.364500,-0.916183
0.364600,-0.788298
0.364700,-0.674694
0.364800,-0.661386
0.364900,-0.675668
0.365000,-0.664307
0.365100,-0.647754
0.365200,-0.691572
0.365300,-0.657491
0.365400,-0.621787
0.365500,-0.641587
0.365600,-0.650026
0.365700,-0.736689
0.365800,-0.771744
0.365900,-0.929491
0.366000,-0.855486
0.366100,-0.794789
0.366200,-0.423468
0.366300,-0.508833
0.366400,-0.727601
0.366500,-1.281013
0.366600,-1.289452
0.366700,-1.102493
0.366800,-0.845099
0.366900,-0.745453
0.367000,-0.966818
0.367100,-1.281662
0.367200,-1.491667
0.367300,-1.388450
0.367400,-1.185586
0.367500,-1.092756
0.367600,-1.067438
0.367700,-1.147935
0.367800,-1.227782
0.367900,-1.248230
0.368000,-1.181042
0.368100,-1.184288
0.368200,-1.188183
0.368300,-1.203114
0.368400,-1.217720
0.368500,-1.220641
0.368600,-1.301462
0.368700,-1.350474
0.368800,-1.456937
0.368900,-1.537433
0.369000,-1.491992
0.369100,-1.415066
0.369200,-1.412469
0.369300,-1.596183
0.369400,-1.895773
0.369500,-1.871104
0.369600,-1.701997
0.369700,-1.420908
0.369800,-1.433567
0.369900,-1.584498
0.370000,-1.876947
0.370100,-1.870780
0.370200,-1.731209
0.370300,-1.440059
0.370400,-1.344307
0.370500,-1.476736
0.370600,-1.589042
0.370700,-1.546197
0.370800,-1.483553
0.370900,-1.417662
0.371000,-1.429997
0.371100,-1.484202
0.371200,-1.526073
0.371300,-1.503028
0.371400,-1.439734
0.371500,-1.469271
0.371600,-1.540355
0.371700,-1.600078
0.371800,-1.594884
0.371900,-1.564374
0.372000,-1.550092
0.372100,-1.682522
0.372200,-1.837672
0.372300,-1.858446
0.372400,-1.878570
0.372500,-1.758799
0.372600,-1.805214
0.372700,-1.842216
0.372800,-1.823391
0.372900,-1.834102
0.373000,-1.851954
0.373100,-1.862341
0.373200,-1.852928
0.373300,-1.833777
0.373400,-1.859419
0.373500,-1.870780
0.373600,-1.890579
0.373700,-1.886360
0.373800,-1.915572
0.373900,-1.914923
0.374000,-1.942837
0.374100,-1.954198
0.374200,-1.969128
0.374300,-2.022360
0.374400,-2.113243
0.374500,-2.434581
0.374600,-2.651078
0.374700,-2.616347
0.374800,-2.290790
0.374900,-2.129797
0.375000,-2.267420
0.375100,-2.645560
0.375200,-2.906850
0.375300,-2.920807
0.375400,-2.753646
0.375500,-2.536500
0.375600,-2.590056
0.375700,-2.797465
0.375800,-3.007146
0.375900,-3.100302
0.376000,-3.046097
0.376100,-2.973065
0.376200,-2.913017
0.376300,-2.951967
0.376400,-2.986049
0.376500,-3.010068
0.376600,-2.976960
0.376700,-2.967547
0.376800,-2.972091
0.376900,-2.987347
0.377000,-3.041552
0.377100,-3.028569
0.377200,-3.015261
0.377300,-3.004874
0.377400,-3.051615
0.377500,-3.036034
0.377600,-2.891270
0.377700,-2.690353
0.377800,-2.711126
0.377900,-2.862382
0.378000,-3.074335
0.378100,-3.169114
0.378200,-2.983452
0.378300,-2.740338
0.378400,-2.646534
0.378500,-2.789026
0.378600,-3.040254
0.378700,-3.202871
0.378800,-3.181124
0.378900,-3.023376
0.379000,-2.913666
0.379100,-2.908798
0.379200,-2.935738
0.379300,-2.982478
0.379400,-2.988321
0.379500,-2.962029
0.379600,-2.903604
0.379700,-2.840959
0.379800,-2.791947
0.379900,-2.672500
0.380000,-2.526762
0.380100,-2.485865
0.380200,-2.465741
0.380300,-2.469636
0.380400,-2.384919
0.380500,-2.198609
0.380600,-2.032097
0.380700,-1.801319
0.380800,-1.820145
0.380900,-1.790932
0.381000,-1.734130
0.381100,-1.633185
0.381200,-1.516660
0.381300,-1.426102
0.381400,-1.312173
0.381500,-1.276794
0.381600,-1.291400
0.381700,-1.322884
0.381800,-1.300813
0.381900,-1.323534
0.382000,-1.228431
0.382100,-1.237519
0.382200,-1.222264
0.382300,-1.310875
0.382400,-1.349500
0.382500,-1.413767
0.382600,-1.488097
0.382700,-1.328727
0.382800,-1.175199
0.382900,-0.785052
0.383000,-0.882426
0.383100,-1.232651
0.383200,-1.609491
0.383300,-1.528345
0.383400,-1.287180
0.383500,-1.084316
0.383600,-1.036927
0.383700,-1.122942
0.383800,-1.307304
0.383900,-1.329701
0.384000,-1.260240
0.384100,-1.076851
0.384200,-0.996355
0.384300,-0.943123
0.384400,-0.973309
0.384500,-0.915534
0.384600,-0.989214
0.384700,-0.959028
0.384800,-0.927219
0.384900,-0.899954
0.385000,-0.866846
0.385100,-0.857434
0.385200,-0.926570
0.385300,-1.051534
0.385400,-1.059973
0.385500,-1.141768
0.385600,-1.131381
0.385700,-1.045367
0.385800,-1.043744
0.385900,-1.056727
0.386000,-1.385529
0.386100,-1.559180
0.386200,-1.476087
0.386300,-1.341386
0.386400,-1.198245
0.386500,-1.318989
0.386600,-1.579954
0.386700,-1.797099
0.386800,-1.791906
0.386900,-1.701023
0.387000,-1.580278
0.387100,-1.653634
0.387200,-1.772431
0.387300,-1.857147
0.387400,-1.821119
0.387500,-1.900317
0.387600,-1.901291
0.387700,-1.966856
0.387800,-1.981463
0.387900,-1.973023
0.388000,-1.912326
0.388100,-1.941214
0.388200,-1.982112
0.388300,-2.017816
0.388400,-2.007429
0.388500,-1.943486
0.388600,-1.904536
0.388700,-1.881816
0.388800,-2.048976
0.388900,-2.139534
0.389000,-2.151219
0.389100,-2.147974
0.389200,-2.068126
0.389300,-2.091172
0.389400,-2.089549
0.389500,-2.075267
0.389600,-2.096689
0.389700,-2.082732
0.389800,-2.072995
0.389900,-2.056117
0.390000,-2.051897
0.390100,-2.085329
0.390200,-2.097988
0.390300,-2.109997
0.390400,-2.119410
0.390500,-2.123305
0.390600,-2.133043
0.390700,-2.152842
0.390800,-2.199258
0.390900,-2.234313
0.391000,-2.270666
0.391100,-2.484242
0.391200,-2.798764
0.391300,-2.922755
0.391400,-2.749427
0.391500,-2.474180
0.391600,-2.423545
0.391700,-2.609207
0.391800,-2.995137
0.391900,-3.125620
0.392000,-3.038307
0.392100,-2.833169
0.392200,-2.718916
0.392300,-2.806554
0.392400,-3.013963
0.392500,-3.152885
0.392600,-3.181124
0.392700,-3.135033
0.392800,-3.125620
0.392900,-3.165868
0.393000,-3.209363
0.393100,-3.264867
0.393200,-3.255129
0.393300,-3.251234
0.393400,-3.284017
0.393500,-3.349908
0.393600,-3.465460
0.393700,-3.385612
0.393800,-3.333354
0.393900,-3.339846
0.394000,-3.375550
0.394100,-3.422615
0.394200,-3.335951
0.394300,-3.145744
0.394400,-2.964301
0.394500,-3.046746
0.394600,-3.250909
0.394700,-3.443713
0.394800,-3.377822
0.394900,-3.126594
0.395000,-2.938984
0.395100,-2.971118
0.395200,-3.151587
0.395300,-3.348285
0.395400,-3.360944
0.395500,-3.214231
0.395600,-3.050641
0.395700,-2.998058
0.395800,-3.017533
0.395900,-3.029218
0.396000,-2.983776
0.396100,-2.931518
0.396200,-2.849723
0.396300,-2.807527
0.396400,-2.736443
0.396500,-2.633550
0.396600,-2.437826
0.396700,-2.328442
0.396800,-2.284299
0.396900,-2.252165
0.397000,-2.220031
0.397100,-2.095067
0.397200,-1.911677
0.397300,-1.703620
0.397400,-1.567295
0.397500,-1.603973
0.397600,-1.563725
0.397700,-1.509844
0.397800,-1.380335
0.397900,-1.271925
0.398000,-1.192402
0.398100,-1.199543
0.398200,-1.210254
0.398300,-1.226808
0.398400,-1.244985
0.398500,-1.254073
0.398600,-1.318016
0.398700,-1.215448
0.398800,-1.302111
0.398900,-1.238168
0.399000,-1.304708
0.399100,-1.380985
0.399200,-1.400460
0.399300,-1.389099
0.399400,-1.217395
0.399500,-0.970388
0.399600,-0.765252
0.399700,-0.949939
0.399800,-1.401758
0.399900,-1.475438
0.400000,-1.304708
0.400100,-1.020698
0.400200,-0.936307
0.400300,-0.951887
0.400400,-1.244985
0.400500,-1.394293
0.400600,-1.447199
0.400700,-1.256994
0.400800,-1.157023
0.400900,-1.120020
0.401000,-1.200192
0.401100,-1.346903
0.401200,-1.342684
0.401300,-1.387476
0.401400,-1.393643
0.401500,-1.372221
0.401600,-1.412145
0.401700,-1.451094
0.401800,-1.460183
0.401900,-1.471543
0.402000,-1.589042
0.402100,-1.625720
0.402200,-1.701023
0.402300,-1.712383
0.402400,-1.604947
0.402500,-1.627992
0.402600,-1.675056
0.402700,-2.024307
0.402800,-2.027553
0.402900,-1.944785
0.403000,-1.681873
0.403100,-1.605271
0.403200,-1.722770
0.403300,-2.043133
0.403400,-2.152193
0.403500,-2.083057
0.403600,-1.873376
0.403700,-1.735753
0.403800,-1.855849
0.403900,-2.023334
0.404000,-2.126227
0.404100,-2.107725
0.404200,-2.136613
0.404300,-2.117463
0.404400,-2.231391
0.404500,-2.325521
0.404600,-2.433931
0.404700,-2.456003
0.404800,-2.519946
0.404900,-2.591354
0.405000,-2.649455
0.405100,-2.680940
0.405200,-2.658543
0.405300,-2.681264
0.405400,-2.726706
0.405500,-2.887375
0.405600,-2.970144
0.405700,-2.957161
0.405800,-2.925351
0.405900,-2.878611
0.406000,-2.945800
0.406100,-2.960082
0.406200,-2.955538
0.406300,-2.995137
0.406400,-2.992540
0.406500,-3.004550
0.406600,-3.013314
0.406700,-3.037657
0.406800,-3.034087
0.406900,-3.011691
0.407000,-3.023376
0.407100,-3.058106
0.407200,-3.068168
0.407300,-3.136980
0.407400,-3.152560
0.407500,-3.205792
0.407600,-3.292781
0.407700,-3.349259
0.407800,-3.683906
0.407900,-3.952662
0.408000,-4.001026
0.408100,-3.734216
0.408200,-3.540764
0.408300,-3.590750
0.408400,-3.880929
0.408500,-4.193830
0.408600,-4.261668
0.408700,-4.098077
0.408800,-3.844900
0.408900,-3.791668
0.409000,-3.867296
0.409100,-4.084769
0.409200,-4.182469
0.409300,-4.155529
0.409400,-4.058153
0.409500,-3.965970
0.409600,-3.947144
0.409700,-3.952662
0.409800,-3.936433
0.409900,-3.915011
0.410000,-3.871841
0.410100,-3.912089
0.410200,-3.924099
0.410300,-3.969865
0.410400,-3.940977
0.410500,-3.872490
0.410600,-3.920528
0.410700,-3.907220
0.410800,-3.931889
0.410900,-3.846523
0.411000,-3.669624
0.411100,-3.612172
0.411200,-3.698837
0.411300,-3.942276
0.411400,-4.104244
0.411500,-3.985770
0.411600,-3.734216
0.411700,-3.602435
0.411800,-3.713767
0.411900,-3.943574
0.412000,-4.166240
0.412100,-4.252580
0.412200,-4.143519
0.412300,-4.023422
0.412400,-3.970190
0.412500,-4.001026
0.412600,-4.044520
0.412700,-4.057179
0.412800,-4.020825
0.412900,-3.985770
0.413000,-3.898132
0.413100,-3.772193
0.413200,-3.609900
0.413300,-3.479092
0.413400,-3.410280
0.413500,-3.402166
0.413600,-3.388858
0.413700,-3.339196
0.413800,-3.133410
0.413900,-3.022077
0.414000,-2.955538
0.414100,-2.742935
0.414200,-2.704959
0.414300,-2.660166
0.414400,-2.537474
0.414500,-2.398552
0.414600,-2.255411
0.414700,-2.151219
0.414800,-2.085978
0.414900,-2.066828
0.415000,-2.080785
0.415100,-2.053845
0.415200,-2.048327
0.415300,-2.006131
0.415400,-1.961988
0.415500,-1.926933
0.415600,-1.936670
0.415700,-1.955820
0.415800,-1.984708
0.415900,-2.064556
0.416000,-1.937319
0.416100,-1.796775
0.416200,-1.347228
0.416300,-1.317042
0.416400,-1.491018
0.416500,-1.911677
0.416600,-1.860069
0.416700,-1.616307
0.416800,-1.266732
0.416900,-1.103142
0.417000,-1.211877
0.417100,-1.405328
0.417200,-1.493290
0.417300,-1.372221
0.417400,-1.106713
0.417500,-0.962598
0.417600,-0.945395
0.417700,-0.967467
0.417800,-0.951887
0.417900,-0.962598
0.418000,-0.928842
0.418100,-0.861978
0.418200,-0.853539
0.418300,-0.859706
0.418400,-0.850942
0.418500,-0.756489
0.418600,-0.931114
0.418700,-0.947018
0.418800,-1.029462
0.418900,-1.048612
0.419000,-1.011285
0.419100,-0.917157
0.419200,-0.939553
0.419300,-1.096975
0.419400,-1.359562
0.419500,-1.347228
0.419600,-1.220316
0.419700,-0.988565
0.419800,-0.975581
0.419900,-1.225185
0.420000,-1.499133
0.420100,-1.541653
0.420200,-1.402407
0.420300,-1.212202
0.420400,-1.187209
0.420500,-1.337815
0.420600,-1.511791
0.420700,-1.501405
0.420800,-1.489071
0.420900,-1.454016
0.421000,-1.495238
0.421100,-1.597481
0.421200,-1.675381
0.421300,-1.728288
0.421400,-1.696154
0.421500,-1.751333
0.421600,-1.840918
0.421700,-1.884737
0.421800,-1.862990
0.421900,-1.853577
0.422000,-1.842216
0.422100,-1.977243
0.422200,-2.129797
0.422300,-2.173940
0.422400,-2.169721
0.422500,-2.043458
0.422600,-2.132394
0.422700,-2.179458
0.422800,-2.203477
0.422900,-2.216785
0.423000,-2.233664
0.423100,-2.260929
0.423200,-2.278456
0.423300,-2.333311
0.423400,-2.371287
0.423500,-2.441397
0.423600,-2.465741
0.423700,-2.505989
0.423800,-2.543641
0.423900,-2.589082
0.424000,-2.627059
0.424100,-2.704634
0.424200,-2.769226
0.424300,-2.850697
0.424400,-2.980531
0.424500,-3.286938
0.424600,-3.521288
0.424700,-3.435923
0.424800,-3.162298
0.424900,-2.987022
0.425000,-3.155482
0.425100,-3.533947
0.425200,-3.776737
0.425300,-3.860805
0.425400,-3.623533
0.425500,-3.464811
0.425600,-3.505059
0.425700,-3.726426
0.425800,-3.963698
0.425900,-4.068864
0.426000,-3.970190
0.426100,-3.935459
0.426200,-3.913063
0.426300,-3.981551
0.426400,-4.035432
0.426500,-4.033809
0.426600,-4.008816
0.426700,-3.975383
0.426800,-3.981551
0.426900,-4.039327
0.427000,-4.006868
0.427100,-3.995832
0.427200,-3.943574
0.427300,-3.948767
0.427400,-3.966620
0.427500,-3.949417
0.427600,-3.753691
0.427700,-3.561212
0.427800,-3.544009
0.427900,-3.684230
0.428000,-3.873139
0.428100,-3.918581
0.428200,-3.680011
0.428300,-3.398595
0.428400,-3.264867
0.428500,-3.362891
0.428600,-3.589776
0.428700,-3.711495
0.428800,-3.630024
0.428900,-3.404113
0.429000,-3.226890
0.429100,-3.188914
0.429200,-3.246365
0.429300,-3.285315
0.429400,-3.245067
0.429500,-3.179501
0.429600,-3.071414
0.429700,-3.015261
0.429800,-2.908473
0.429900,-2.740014
0.430000,-2.609531
0.430100,-2.551106
0.430200,-2.512481
0.430300,-2.490734
0.430400,-2.419001
0.430500,-2.208995
0.430600,-2.127525
0.430700,-1.833453
0.430800,-1.850656
0.430900,-1.838646
0.431000,-1.781844
0.431100,-1.697128
0.431200,-1.587419
0.431300,-1.448173
0.431400,-1.386827
0.431500,-1.360211
0.431600,-1.404679
0.431700,-1.421882
0.431800,-1.437137
0.431900,-1.451419
0.432000,-1.340087
0.432100,-1.365729
0.432200,-1.292049
0.432300,-1.360861
0.432400,-1.354044
0.432500,-1.382283
0.432600,-1.442655
0.432700,-1.239142
0.432800,-1.153452
0.432900,-0.737338
0.433000,-0.871391
0.433100,-1.125863
0.433200,-1.527047
0.433300,-1.316068
0.433400,-1.181042
0.433500,-0.809720
0.433600,-0.790245
0.433700,-0.953185
0.433800,-1.169357
0.433900,-1.284259
0.434000,-1.132030
0.434100,-0.959352
0.434200,-0.924297
0.434300,-0.941825
0.434400,-1.006417
0.434500,-1.076526
0.434600,-1.126512
0.434700,-1.128460
0.434800,-1.152803
0.434900,-1.118398
0.435000,-1.133004
0.435100,-1.185262
0.435200,-1.259591
0.435300,-1.381634
0.435400,-1.449796
0.435500,-1.469920
0.435600,-1.524775
0.435700,-1.430970
0.435800,-1.401433
0.435900,-1.466350
0.436000,-1.749061
0.436100,-1.924985
0.436200,-1.902913
0.436300,-1.759123
0.436400,-1.558531
0.436500,-1.697128
0.436600,-1.930828
0.436700,-2.185950
0.436800,-2.200881
0.436900,-2.075916
0.437000,-1.882140
0.437100,-1.899018
0.437200,-2.033071
0.437300,-2.159334
0.437400,-2.145702
0.437500,-2.228146
0.437600,-2.199582
0.437700,-2.255411
0.437800,-2.308967
0.437900,-2.357654
0.438000,-2.375182
0.438100,-2.399850
0.438200,-2.446266
0.438300,-2.497874
0.438400,-2.476776
0.438500,-2.424519
0.438600,-2.390113
0.438700,-2.391411
0.438800,-2.562467
0.438900,-2.671527
0.439000,-2.671202
0.439100,-2.505015
0.439200,-2.481970
0.439300,-2.571879
0.439400,-2.581942
0.439500,-2.589082
0.439600,-2.594600
0.439700,-2.620242
0.439800,-2.625760
0.439900,-2.630305
0.440000,-2.627708
0.440100,-2.667956
0.440200,-2.686458
0.440300,-2.696520
0.440400,-2.715670
0.440500,-2.712100
0.440600,-2.738716
0.440700,-2.742611
0.440800,-2.789351
0.440900,-2.755594
0.441000,-2.779613
0.441100,-2.940931
0.441200,-3.224943
0.441300,-3.281096
0.441400,-3.077906
0.441500,-2.726706
0.441600,-2.644911
0.441700,-2.810124
0.441800,-3.161324
0.441900,-3.350232
0.442000,-3.243119
0.442100,-2.991566
0.442200,-2.912693
0.442300,-2.984426
0.442400,-3.143472
0.442500,-3.296027
0.442600,-3.330433
0.442700,-3.268762
0.442800,-3.270709
0.442900,-3.315502
0.443000,-3.340819
0.443100,-3.382366
0.443200,-3.378796
0.443300,-3.403464
0.443400,-3.463837
0.443500,-3.507007
0.443600,-3.544659
0.443700,-3.535895
0.443800,-3.505708
0.443900,-3.509928
0.444000,-3.606654
0.444100,-3.654044
0.444200,-3.639113
0.444300,-3.488830
0.444400,-3.387235
0.444500,-3.504085
0.444600,-3.749472
0.444700,-3.954935
0.444800,-3.929617
0.444900,-3.695915
0.445000,-3.516744
0.445100,-3.534272
0.445200,-3.707600
0.445300,-3.922801
0.445400,-3.988367
0.445500,-3.838084
0.445600,-3.688774
0.445700,-3.637165
0.445800,-3.656640
0.445900,-3.662483
0.446000,-3.618989
0.446100,-3.600163
0.446200,-3.587179
0.446300,-3.561537
0.446400,-3.494997
0.446500,-3.322643
0.446600,-3.106145
0.446700,-3.003251
0.446800,-2.972741
0.446900,-2.950344
0.447000,-2.938010
0.447100,-2.811747
0.447200,-2.639393
0.447300,-2.571555
0.447400,-2.361874
0.447500,-2.397578
0.447600,-2.367067
0.447700,-2.304423
0.447800,-2.220680
0.447900,-2.138885
0.448000,-2.089549
0.448100,-2.026904
0.448200,-2.053520
0.448300,-2.081110
0.448400,-2.072995
0.448500,-2.184652
0.448600,-2.153816
0.448700,-2.199582
0.448800,-2.167773
0.448900,-2.196661
0.449000,-2.279430
0.449100,-2.249893
0.449200,-2.499822
0.449300,-2.328766
0.449400,-2.373559
0.449500,-1.899343
0.449600,-1.901291
0.449700,-1.907458
0.449800,-2.429387
0.449900,-2.572529
0.450000,-2.423545
0.450100,-2.137912
0.450200,-1.846761
0.450300,-1.957119
0.450400,-2.076565
0.450500,-2.278131
0.450600,-2.220031
0.450700,-2.020412
0.450800,-1.819820
0.450900,-1.703620
0.451000,-1.732832
0.451100,-1.735429
0.451200,-1.725691
0.451300,-1.672460
0.451400,-1.649414
0.451500,-1.598779
0.451600,-1.581901
0.451700,-1.579954
0.451800,-1.558207
0.451900,-1.589691
0.452000,-1.671161
0.452100,-1.666293
0.452200,-1.731534
0.452300,-1.689338
0.452400,-1.572813
0.452500,-1.640326
0.452600,-1.683171
0.452700,-2.067802
0.452800,-2.080785
0.452900,-2.011000
0.453000,-1.690636
0.453100,-1.623123
0.453200,-1.763018
0.453300,-2.069425
0.453400,-2.218408
0.453500,-2.120059
0.453600,-1.879544
0.453700,-1.730235
0.453800,-1.839944
0.453900,-1.972699
0.454000,-2.021062
0.454100,-1.926283
0.454200,-1.918493
0.454300,-1.883439
0.454400,-1.964909
0.454500,-2.004183
0.454600,-2.050274
0.454700,-1.986980
0.454800,-1.975295
0.454900,-1.982436
0.455000,-2.012298
0.455100,-1.972050
0.455200,-1.929854
0.455300,-1.854551
0.455400,-1.896422
0.455500,-2.066179
0.455600,-2.099935
0.455700,-2.068126
0.455800,-1.937644
0.455900,-1.996069
0.456000,-2.089873
0.456100,-2.120384
0.456200,-2.136938
0.456300,-2.186924
0.456400,-2.210618
0.456500,-2.249244
0.456600,-2.263525
0.456700,-2.287220
0.456800,-2.295984
0.456900,-2.330389
0.457000,-2.334934
0.457100,-2.360251
0.457200,-2.391736
0.457300,-2.443994
0.457400,-2.446915
0.457500,-2.510209
0.457600,-2.585187
0.457700,-2.613102
0.457800,-2.916588
0.457900,-3.242795
0.458000,-3.285965
0.458100,-3.024999
0.458200,-2.815317
0.458300,-2.813694
0.458400,-3.121725
0.458500,-3.469030
0.458600,-3.623533
0.458700,-3.507656
0.458800,-3.320046
0.458900,-3.250260
0.459000,-3.396648
0.459100,-3.606005
0.459200,-3.754016
0.459300,-3.765701
0.459400,-3.739410
0.459500,-3.673519
0.459600,-3.692020
0.459700,-3.740059
0.459800,-3.759209
0.459900,-3.773491
0.460000,-3.763104
0.460100,-3.792317
0.460200,-3.811143
0.460300,-3.869569
0.460400,-3.816336
0.460500,-3.821854
0.460600,-3.829644
0.460700,-3.878332
0.460800,-3.906896
0.460900,-3.812766
0.461000,-3.551150
0.461100,-3.489479
0.461200,-3.620936
0.461300,-3.896834
0.461400,-4.084444
0.461500,-3.962725
0.461600,-3.713443
0.461700,-3.523236
0.461800,-3.600812
0.461900,-3.834189
0.462000,-4.053933
0.462100,-4.064320
0.462200,-3.901053
0.462300,-3.748174
0.462400,-3.687476
0.462500,-3.707276
0.462600,-3.736164
0.462700,-3.713767
0.462800,-3.687151
0.462900,-3.634893
0.463000,-3.566081
0.463100,-3.464486
0.463200,-3.305115
0.463300,-3.175930
0.463400,-3.101276
0.463500,-3.071739
0.463600,-3.063949
0.463700,-3.024674
0.463800,-2.844530
0.463900,-2.713398
0.464000,-2.514428
0.464100,-2.428738
0.464200,-2.403096
0.464300,-2.370962
0.464400,-2.286895
0.464500,-2.177186
0.464600,-2.036317
0.464700,-1.921090
0.464800,-1.888632
0.464900,-1.858770
0.465000,-1.882465
0.465100,-1.841243
0.465200,-1.880842
0.465300,-1.780870
0.465400,-1.757500
0.465500,-1.670837
0.465600,-1.712708
0.465700,-1.678951
0.465800,-1.743868
0.465900,-1.851305
0.466000,-1.753281
0.466100,-1.548794
0.466200,-1.262837
0.466300,-1.099896
0.466400,-1.434865
0.466500,-1.785415
0.466600,-1.893501
0.466700,-1.575410
0.466800,-1.407276
0.466900,-1.213176
0.467000,-1.346579
0.467100,-1.604622
0.467200,-1.727963
0.467300,-1.727963
0.467400,-1.492316
0.467500,-1.374818
0.467600,-1.359238
0.467700,-1.394942
0.467800,-1.449796
0.467900,-1.417338
0.468000,-1.498159
0.468100,-1.443954
0.468200,-1.480631
0.468300,-1.464078
0.468400,-1.479982
0.468500,-1.424803
0.468600,-1.529968
0.468700,-1.621825
0.468800,-1.680574
0.468900,-1.735104
0.469000,-1.617281
0.469100,-1.620527
0.469200,-1.546522
0.469300,-1.789634
0.469400,-2.023334
0.469500,-1.954198
0.469600,-1.819171
0.469700,-1.520555
0.469800,-1.549443
0.469900,-1.730560
0.470000,-1.997692
0.470100,-2.007429
0.470200,-1.884412
0.470300,-1.677978
0.470400,-1.641624
0.470500,-1.806837
0.470600,-1.912651
0.470700,-1.891553
0.470800,-1.899343
0.470900,-1.856823
0.471000,-1.902264
0.471100,-1.959715
0.471200,-2.024307
0.471300,-2.069749
0.471400,-2.009701
0.471500,-2.045081
0.471600,-2.095391
0.471700,-2.080136
0.471800,-2.010026
0.471900,-1.940241
0.472000,-1.874026
0.472100,-1.977568
0.472200,-2.081434
0.472300,-2.107076
0.472400,-2.052546
0.472500,-1.895448
0.472600,-1.939591
0.472700,-1.954847
0.472800,-1.953224
0.472900,-1.956145
0.473000,-1.982761
0.473100,-1.989253
0.473200,-1.979840
0.473300,-2.011649
0.473400,-2.034694
0.473500,-2.054169
0.473600,-2.076890
0.473700,-2.102532
0.473800,-2.152193
0.473900,-2.185301
0.474000,-2.244699
0.474100,-2.293387
0.474200,-2.350189
0.474300,-2.442046
0.474400,-2.545264
0.474500,-2.911719
0.474600,-3.202871
0.474700,-3.118479
0.474800,-2.945151
0.474900,-2.724758
0.475000,-2.926325
0.475100,-3.297974
0.475200,-3.667676
0.475300,-3.726751
0.475400,-3.632297
0.475500,-3.487532
0.475600,-3.534272
0.475700,-3.792317
0.475800,-4.088015
0.475900,-4.208436
0.476000,-4.224016
0.476100,-4.201295
0.476200,-4.234403
0.476300,-4.352877
0.476400,-4.413899
0.476500,-4.459666
0.476600,-4.466482
0.476700,-4.470377
0.476800,-4.592098
0.476900,-4.655717
0.477000,-4.715441
0.477100,-4.648576
0.477200,-4.642409
0.477300,-4.679087
0.477400,-4.744329
0.477500,-4.753742
0.477600,-4.588527
0.477700,-4.389555
0.477800,-4.385011
0.477900,-4.554770
0.478000,-4.781981
0.478100,-4.846899
0.478200,-4.617415
0.478300,-4.377221
0.478400,-4.275950
0.478500,-4.399942
0.478600,-4.616117
0.478700,-4.749198
0.478800,-4.655392
0.478900,-4.410654
0.479000,-4.291206
0.479100,-4.238298
0.479200,-4.243816
0.479300,-4.253229
0.479400,-4.143519
0.479500,-4.058477
0.479600,-3.946820
0.479700,-3.867621
0.479800,-3.759534
0.479900,-3.552449
0.480000,-3.366137
0.480100,-3.280122
0.480200,-3.187615
0.480300,-3.151262
0.480400,-3.044798
0.480500,-2.821160
0.480600,-2.676071
0.480700,-2.369339
0.480800,-2.361549
0.480900,-2.305396
0.481000,-2.197959
0.481100,-2.042484
0.481200,-1.920441
0.481300,-1.761720
0.481400,-1.640651
0.481500,-1.606245
0.481600,-1.640326
0.481700,-1.532240
0.481800,-1.556259
0.481900,-1.471219
0.482000,-1.454665
0.482100,-1.356966
0.482200,-1.325806
0.482300,-1.286856
0.482400,-1.247906
0.482500,-1.303409
0.482600,-1.212851
0.482700,-1.098923
0.482800,-0.803878
0.482900,-0.514350
0.483000,-0.474102
0.483100,-0.771744
0.483200,-1.118398
0.483300,-0.911963
0.483400,-0.747076
0.483500,-0.323172
0.483600,-0.357253
0.483700,-0.466312
0.483800,-0.687677
0.483900,-0.774990
0.484000,-0.690598
0.484100,-0.476374
0.484200,-0.387439
0.484300,-0.447487
0.484400,-0.447487
0.484500,-0.543238
0.484600,-0.557520
0.484700,-0.535773
0.484800,-0.563362
0.484900,-0.566284
0.485000,-0.647754
0.485100,-0.659763
0.485200,-0.786675
0.485300,-0.911639
0.485400,-1.002522
0.485500,-1.078149
0.485600,-1.118722
0.485700,-1.081395
0.485800,-1.123266
0.485900,-1.134302
0.486000,-1.449796
0.486100,-1.605271
0.486200,-1.578655
0.486300,-1.414741
0.486400,-1.178445
0.486500,-1.283935
0.486600,-1.504326
0.486700,-1.743219
0.486800,-1.755553
0.486900,-1.576059
0.487000,-1.368001
0.487100,-1.356641
0.487200,-1.527696
0.487300,-1.707515
0.487400,-1.682197
0.487500,-1.748087
0.487600,-1.677004
0.487700,-1.736078
0.487800,-1.797424
0.487900,-1.828259
0.488000,-1.874999
0.488100,-1.898694
0.488200,-1.968479
0.488300,-2.031448
0.488400,-2.041510
0.488500,-2.027553
0.488600,-2.043458
0.488700,-2.076565
0.488800,-2.264174
0.488900,-2.365769
0.489000,-2.391736
0.489100,-2.393359
0.489200,-2.396929
0.489300,-2.407640
0.489400,-2.412509
0.489500,-2.421922
0.489600,-2.430036
0.489700,-2.421922
0.489800,-2.427115
0.489900,-2.420624
0.490000,-2.465091
0.490100,-2.472557
0.490200,-2.502094
0.490300,-2.540070
0.490400,-2.555326
0.490500,-2.581292
0.490600,-2.617321
0.490700,-2.633550
0.490800,-2.715670
0.490900,-2.734171
0.491000,-2.827976
0.491100,-3.024674
0.491200,-3.376199
0.491300,-3.486882
0.491400,-3.286289
0.491500,-2.997409
0.491600,-2.934440
0.491700,-3.127567
0.491800,-3.565757
0.491900,-3.709548
0.492000,-3.669624
0.492100,-3.425211
0.492200,-3.342442
0.492300,-3.397946
0.492400,-3.639762
0.492500,-3.799133
0.492600,-3.850093
0.492700,-3.787448
0.492800,-3.742331
0.492900,-3.808222
0.493000,-3.858208
0.493100,-3.895535
0.493200,-3.927669
0.493300,-3.975383
0.493400,-4.034783
0.493500,-4.134431
0.493600,-4.180846
0.493700,-4.155529
0.493800,-4.173056
0.493900,-4.139299
0.494000,-4.245764
0.494100,-4.244465
0.494200,-4.222393
0.494300,-4.006868
0.494400,-3.931240
0.494500,-4.033484
0.494600,-4.248036
0.494700,-4.457394
0.494800,-4.426234
0.494900,-4.165266
0.495000,-3.966295
0.495100,-3.964997
0.495200,-4.116903
0.495300,-4.338920
0.495400,-4.390529
0.495500,-4.283416
0.495600,-4.104893
0.495700,-4.001675
0.495800,-4.020501
0.495900,-4.043546
0.496000,-4.029589
0.496100,-3.999403
0.496200,-3.972787
0.496300,-3.912414
0.496400,-3.822179
0.496500,-3.694292
0.496600,-3.515446
0.496700,-3.433975
0.496800,-3.421966
0.496900,-3.396323
0.497000,-3.396648
0.497100,-3.222346
0.497200,-3.034736
0.497300,-2.888024
0.497400,-2.678018
0.497500,-2.711450
0.497600,-2.646209
0.497700,-2.556624
0.497800,-2.463144
0.497900,-2.325521
0.498000,-2.255411
0.498100,-2.142131
0.498200,-2.129148
0.498300,-2.100584
0.498400,-2.078837
0.498500,-2.113568
0.498600,-2.079162
0.498700,-2.089224
0.498800,-1.974322
0.498900,-2.002236
0.499000,-1.937968
0.499100,-1.980813
0.499200,-1.957443
0.499300,-1.916546
0.499400,-1.800345
0.499500,-1.364431
0.499600,-1.238493
0.499700,-1.251476
0.499800,-1.805214
0.499900,-1.822417
0.500000,-1.758474
0.500100,-1.354693
0.500200,-1.175199
0.500300,-1.173252
0.500400,-1.383257
0.500500,-1.602999
0.500600,-1.503352
0.500700,-1.346903
0.500800,-1.169357
0.500900,-1.176173
0.501000,-1.216421
0.501100,-1.255371
0.501200,-1.284584
0.501300,-1.242388
0.501400,-1.242063
0.501500,-1.249529
0.501600,-1.274522
0.501700,-1.269977
0.501800,-1.282961
0.501900,-1.379686
0.502000,-1.438111
0.502100,-1.481281
0.502200,-1.608842
0.502300,-1.555610
0.502400,-1.515037
0.502500,-1.463104
0.502600,-1.615658
0.502700,-1.923038
0.502800,-2.035992
0.502900,-1.952899
0.503000,-1.696803
0.503100,-1.611438
0.503200,-1.754255
0.503300,-2.092794
0.503400,-2.234962
0.503500,-2.126227
0.503600,-1.903563
0.503700,-1.789959
0.503800,-1.929529
0.503900,-2.094417
0.504000,-2.168098
0.504100,-2.086627
0.504200,-2.088900
0.504300,-2.084355
0.504400,-2.212890
0.504500,-2.283649
0.504600,-2.337855
0.504700,-2.300528
0.504800,-2.297931
0.504900,-2.373559
0.505000,-2.407640
0.505100,-2.383296
0.505200,-2.305396
0.505300,-2.265148
0.505400,-2.301177
0.505500,-2.473531
0.505600,-2.521244
0.505700,-2.485216
0.505800,-2.277807
0.505900,-2.271315
0.506000,-2.297282
0.506100,-2.275210
0.506200,-2.249244
0.506300,-2.216461
0.506400,-2.205100
0.506500,-2.190819
0.506600,-2.181730
0.506700,-2.147324
0.506800,-2.125577
0.506900,-2.133043
0.507000,-2.112919
0.507100,-2.129472
0.507200,-2.109348
0.507300,-2.095716
0.507400,-2.064231
0.507500,-2.102207
0.507600,-2.133367
0.507700,-2.110647
0.507800,-2.421273
0.507900,-2.684510
0.508000,-2.759813
0.508100,-2.483268
0.508200,-2.195363
0.508300,-2.190169
0.508400,-2.494304
0.508500,-2.886077
0.508600,-2.956836
0.508700,-2.842907
0.508800,-2.607259
0.508900,-2.539421
0.509000,-2.672825
0.509100,-2.934764
0.509200,-3.037982
0.509300,-3.026946
0.509400,-2.964301
0.509500,-2.963652
0.509600,-2.983452
0.509700,-3.044798
0.509800,-3.091863
0.509900,-3.108741
0.510000,-3.088617
0.510100,-3.135357
0.510200,-3.188265
0.510300,-3.281745
0.510400,-3.235329
0.510500,-3.245391
0.510600,-3.281096
0.510700,-3.343741
0.510800,-3.423264
0.510900,-3.374576
0.511000,-3.174307
0.511100,-3.072713
0.511200,-3.242795
0.511300,-3.518367
0.511400,-3.724479
0.511500,-3.656965
0.511600,-3.406385
0.511700,-3.274604
0.511800,-3.368084
0.511900,-3.600163
0.512000,-3.862752
0.512100,-3.929617
0.512200,-3.789396
0.512300,-3.676116
0.512400,-3.674168
0.512500,-3.763429
0.512600,-3.846523
0.512700,-3.870542
0.512800,-3.870867
0.512900,-3.862752
0.513000,-3.859182
0.513100,-3.822504
0.513200,-3.681634
0.513300,-3.586530
0.513400,-3.532000
0.513500,-3.556668
0.513600,-3.587179
0.513700,-3.604382
0.513800,-3.433001
0.513900,-3.330757
0.514000,-3.146718
0.514100,-3.069142
0.514200,-3.069467
0.514300,-3.035710
0.514400,-2.941256
0.514500,-2.843232
0.514600,-2.701713
0.514700,-2.581617
0.514800,-2.555650
0.514900,-2.550132
0.515000,-2.573502
0.515100,-2.541369
0.515200,-2.558572
0.515300,-2.495602
0.515400,-2.427440
0.515500,-2.454705
0.515600,-2.430686
0.515700,-2.419325
0.515800,-2.470285
0.515900,-2.472232
0.516000,-2.368690
0.516100,-2.108374
0.516200,-1.810407
0.516300,-1.647467
0.516400,-1.934398
0.516500,-2.261902
0.516600,-2.311888
0.516700,-2.013596
0.516800,-1.771457
0.516900,-1.530293
0.517000,-1.617605
0.517100,-1.874675
0.517200,-1.960365
0.517300,-1.893176
0.517400,-1.652660
0.517500,-1.541978
0.517600,-1.427400
0.517700,-1.443629
0.517800,-1.487772
0.517900,-1.573462
0.518000,-1.541004
0.518100,-1.516660
0.518200,-1.436813
0.518300,-1.421233
0.518400,-1.404355
0.518500,-1.405004
0.518600,-1.502378
0.518700,-1.557233
0.518800,-1.604297
0.518900,-1.607219
0.519000,-1.515037
0.519100,-1.486474
0.519200,-1.509195
0.519300,-1.657529
0.519400,-1.934723
0.519500,-1.858770
0.519600,-1.716278
0.519700,-1.474789
0.519800,-1.479009
0.519900,-1.675056
0.520000,-1.960040
0.520100,-1.994446
0.520200,-1.885711
0.520300,-1.703620
0.520400,-1.625720
0.520500,-1.753605
0.520600,-1.854226
0.520700,-1.841892
0.520800,-1.900317
0.520900,-1.877921
0.521000,-1.917520
0.521100,-1.951276
0.521200,-1.985358
0.521300,-2.051572
0.521400,-2.031773
0.521500,-2.065854
0.521600,-2.131744
0.521700,-2.111620
0.521800,-2.064231
0.521900,-2.028527
0.522000,-1.999639
0.522100,-2.105453
0.522200,-2.218733
0.522300,-2.220356
0.522400,-2.168422
0.522500,-2.028202
0.522600,-2.105453
0.522700,-2.122332
0.522800,-2.112919
0.522900,-2.128174
0.523000,-2.136613
0.523100,-2.143754
0.523200,-2.142456
0.523300,-2.159334
0.523400,-2.174914
0.523500,-2.192117
0.523600,-2.191143
0.523700,-2.193091
0.523800,-2.230093
0.523900,-2.249893
0.524000,-2.260604
0.524100,-2.315459
0.524200,-2.315783
0.524300,-2.392385
0.524400,-2.455354
0.524500,-2.814668
0.524600,-2.988321
0.524700,-2.935738
0.524800,-2.612128
0.524900,-2.462495
0.525000,-2.546562
0.525100,-2.908148
0.525200,-3.205143
0.525300,-3.172035
0.525400,-3.006822
0.525500,-2.838687
0.525600,-2.852320
0.525700,-3.008769
0.525800,-3.173983
0.525900,-3.230785
0.526000,-3.177229
0.526100,-3.098355
0.526200,-3.139901
0.526300,-3.168140
0.526400,-3.204494
0.526500,-3.221048
0.526600,-3.232408
0.526700,-3.239224
0.526800,-3.342118
0.526900,-3.437870
0.527000,-3.435923
0.527100,-3.381392
0.527200,-3.381392
0.527300,-3.431703
0.527400,-3.508954
0.527500,-3.502463
0.527600,-3.389182
0.527700,-3.176904
0.527800,-3.254155
0.527900,-3.443388
0.528000,-3.683256
0.528100,-3.769921
0.528200,-3.585232
0.528300,-3.380094
0.528400,-3.350557
0.528500,-3.508954
0.528600,-3.754990
0.528700,-3.914037
0.528800,-3.885798
0.528900,-3.761157
0.529000,-3.692669
0.529100,-3.731620
0.529200,-3.778035
0.529300,-3.815363
0.529400,-3.786799
0.529500,-3.775114
0.529600,-3.752393
0.529700,-3.712145
0.529800,-3.615418
0.529900,-3.419369
0.530000,-3.291807
0.530100,-3.239224
0.530200,-3.220398
0.530300,-3.212284
0.530400,-3.126594
0.530500,-2.901657
0.530600,-2.819212
0.530700,-2.523517
0.530800,-2.538123
0.530900,-2.466390
0.531000,-2.376480
0.531100,-2.236260
0.531200,-2.097014
0.531300,-1.961338
0.531400,-1.831181
0.531500,-1.805539
0.531600,-1.800994
0.531700,-1.788660
0.531800,-1.708164
0.531900,-1.725042
0.532000,-1.618579
0.532100,-1.592612
0.532200,-1.490044
0.532300,-1.578980
0.532400,-1.491667
0.532500,-1.545223
0.532600,-1.577032
0.532700,-1.409548
0.532800,-1.172278
0.532900,-0.825300
0.533000,-0.872040
0.533100,-1.075877
0.533200,-1.499133
0.533300,-1.319314
0.533400,-1.073605
0.533500,-0.770446
0.533600,-0.665281
0.533700,-0.832765
0.533800,-1.025892
0.533900,-1.082694
0.534000,-0.867171
0.534100,-0.707801
0.534200,-0.573100
0.534300,-0.575372
0.534400,-0.635095
0.534500,-0.594847
0.534600,-0.648078
0.534700,-0.554923
0.534800,-0.548432
0.534900,-0.529281
0.535000,-0.586083
0.535100,-0.527658
0.535200,-0.612374
0.535300,-0.723057
0.535400,-0.716240
0.535500,-0.798684
0.535600,-0.847696
0.535700,-0.756164
0.535800,-0.771744
0.535900,-0.789596
0.536000,-1.085290
0.536100,-1.279066
0.536200,-1.260889
0.536300,-1.133004
0.536400,-0.884049
0.536500,-1.052183
0.536600,-1.307954
0.536700,-1.584822
0.536800,-1.627992
0.536900,-1.515037
0.537000,-1.380011
0.537100,-1.420259
0.537200,-1.625720
0.537300,-1.761395
0.537400,-1.791257
0.537500,-1.821443
0.537600,-1.761720
0.537700,-1.838971
0.537800,-1.919143
0.537900,-2.036966
0.538000,-2.111945
0.538100,-2.135639
0.538200,-2.161931
0.538300,-2.190819
0.538400,-2.227496
0.538500,-2.214838
0.538600,-2.214513
0.538700,-2.229769
0.538800,-2.372261
0.538900,-2.457951
0.539000,-2.475478
0.539100,-2.306695
0.539200,-2.323573
0.539300,-2.364146
0.539400,-2.383621
0.539500,-2.376805
0.539600,-2.376156
0.539700,-2.351163
0.539800,-2.340127
0.539900,-2.333960
0.540000,-2.345969
0.540100,-2.317081
0.540200,-2.321626
0.540300,-2.306695
0.540400,-2.309616
0.540500,-2.324547
0.540600,-2.329416
0.540700,-2.369664
0.540800,-2.406017
0.540900,-2.460547
0.541000,-2.524490
0.541100,-2.684835
0.541200,-3.006822
0.541300,-3.129839
0.541400,-2.978583
0.541500,-2.641665
0.541600,-2.557598
0.541700,-2.764682
0.541800,-3.125295
0.541900,-3.289535
0.542000,-3.269411
0.542100,-3.063300
0.542200,-2.935089
0.542300,-3.015586
0.542400,-3.195730
0.542500,-3.393402
0.542600,-3.402166
0.542700,-3.371006
0.542800,-3.345363
0.542900,-3.347311
0.543000,-3.372953
0.543100,-3.412553
0.543200,-3.424238
0.543300,-3.441116
0.543400,-3.429106
0.543500,-3.477145
0.543600,-3.536544
0.543700,-3.580363
0.543800,-3.555045
0.543900,-3.547580
0.544000,-3.582960
0.544100,-3.615418
0.544200,-3.549203
0.544300,-3.399245
0.544400,-3.259673
0.544500,-3.367111
0.544600,-3.558616
0.544700,-3.753367
0.544800,-3.734541
0.544900,-3.525833
0.545000,-3.367435
0.545100,-3.406385
0.545200,-3.607953
0.545300,-3.811468
0.545400,-3.889693
0.545500,-3.851067
0.545600,-3.730321
0.545700,-3.700784
0.545800,-3.738436
0.545900,-3.767973
0.546000,-3.814714
0.546100,-3.791993
0.546200,-3.801730
0.546300,-3.779334
0.546400,-3.713118
0.546500,-3.560239
0.546600,-3.405087
0.546700,-3.335301
0.546800,-3.305115
0.546900,-3.296027
0.547000,-3.281096
0.547100,-3.117181
0.547200,-2.923728
0.547300,-2.870172
0.547400,-2.629655
0.547500,-2.648806
0.547600,-2.581617
0.547700,-2.492681
0.547800,-2.372261
0.547900,-2.255411
0.548000,-2.184652
0.548100,-2.108050
0.548200,-2.046704
0.548300,-2.028202
0.548400,-1.976269
0.548500,-2.000288
0.548600,-1.946408
0.548700,-1.883763
0.548800,-1.867859
0.548900,-1.786388
0.549000,-1.843515
0.549100,-1.791582
0.549200,-1.882789
0.549300,-1.763018
0.549400,-1.618254
0.549500,-1.298216
0.549600,-1.092106
0.549700,-1.148908
0.549800,-1.624746
0.549900,-1.762694
0.550000,-1.521529
0.550100,-1.200192
0.550200,-1.013558
0.550300,-0.940202
0.550400,-1.186884
0.550500,-1.277767
0.550600,-1.242063
0.550700,-1.048937
0.550800,-0.875286
0.550900,-0.789271
0.551000,-0.860030
0.551100,-0.827572
0.551200,-0.848994
0.551300,-0.793491
0.551400,-0.771095
0.551500,-0.758761
0.551600,-0.761682
0.551700,-0.735391
0.551800,-0.685730
0.551900,-0.821730
0.552000,-0.922350
0.552100,-0.939228
0.552200,-1.014856
0.552300,-0.966493
0.552400,-0.832765
0.552500,-0.854188
0.552600,-0.892488
0.552700,-1.255696
0.552800,-1.242063
0.552900,-1.161892
0.553000,-0.888269
0.553100,-0.893138
0.553200,-0.945071
0.553300,-1.352097
0.553400,-1.388125
0.553500,-1.315094
0.553600,-1.120345
0.553700,-1.072307
0.553800,-1.194350
0.553900,-1.364756
0.554000,-1.411820
0.554100,-1.400135
0.554200,-1.403381
0.554300,-1.438760
0.554400,-1.547820
0.554500,-1.644221
0.554600,-1.633510
0.554700,-1.601701
0.554800,-1.646169
0.554900,-1.733481
0.555000,-1.822092
0.555100,-1.817224
0.555200,-1.816250
0.555300,-1.812679
0.555400,-1.905835
0.555500,-2.101883
0.555600,-2.181730
0.555700,-2.233014
0.555800,-2.251191
0.555900,-2.205100
0.556000,-2.317081
0.556100,-2.357005
0.556200,-2.411860
0.556300,-2.456977
0.556400,-2.503717
0.556500,-2.539746
0.556600,-2.608557
0.556700,-2.668281
0.556800,-2.701064
0.556900,-2.744558
0.557000,-2.794869
0.557100,-2.854267
0.557200,-2.878611
0.557300,-2.949046
0.557400,-2.986373
0.557500,-3.080827
0.557600,-3.167491
0.557700,-3.221372
0.557800,-3.563160
0.557900,-3.850093
0.558000,-3.919879
0.558100,-3.627428
0.558200,-3.400867
0.558300,-3.491751
0.558400,-3.778685
0.558500,-4.147414
0.558600,-4.216551
0.558700,-4.069513
0.558800,-3.781606
0.558900,-3.725777
0.559000,-3.866323
0.559100,-4.119175
0.559200,-4.223367
0.559300,-4.186364
0.559400,-4.058802
0.559500,-4.038353
0.559600,-4.083471
0.559700,-4.139624
0.559800,-4.142870
0.559900,-4.118850
0.560000,-4.116254
0.560100,-4.133781
0.560200,-4.199672
0.560300,-4.234079
0.560400,-4.201620
0.560500,-4.166565
0.560600,-4.153257
0.560700,-4.234079
0.560800,-4.276924
0.560900,-4.185391
0.561000,-3.992911
0.561100,-3.926046
0.561200,-4.068215
0.561300,-4.310032
0.561400,-4.466807
0.561500,-4.323989
0.561600,-4.051012
0.561700,-3.890991
0.561800,-3.974085
0.561900,-4.205840
0.562000,-4.426883
0.562100,-4.405460
0.562200,-4.199023
0.562300,-4.003947
0.562400,-3.967918
0.562500,-4.023422
0.562600,-4.066917
0.562700,-4.022124
0.562800,-3.936433
0.562900,-3.857559
0.563000,-3.789071
0.563100,-3.708574
0.563200,-3.597241
0.563300,-3.444362
0.563400,-3.322318
0.563500,-3.286289
0.563600,-3.231434
0.563700,-3.195405
0.563800,-2.979881
0.563900,-2.808501
0.564000,-2.522543
0.564100,-2.475478
0.564200,-2.448213
0.564300,-2.354409
0.564400,-2.202828
0.564500,-2.069425
0.564600,-1.871754
0.564700,-1.766264
0.564800,-1.692584
0.564900,-1.727963
0.565000,-1.677653
0.565100,-1.671811
0.565200,-1.608517
0.565300,-1.612737
0.565400,-1.522178
0.565500,-1.540355
0.565600,-1.547171
0.565700,-1.516985
0.565800,-1.617281
0.565900,-1.570865
0.566000,-1.601052
0.566100,-1.298541
0.566200,-1.131705
0.566300,-0.939553
0.566400,-1.186884
0.566500,-1.633185
0.566600,-1.555935
0.566700,-1.442655
0.566800,-1.106388
0.566900,-0.969739
0.567000,-1.080097
0.567100,-1.240441
0.567200,-1.448498
0.567300,-1.268030
0.567400,-1.105090
0.567500,-0.954159
0.567600,-0.955133
0.567700,-1.005768
0.567800,-1.067763
0.567900,-1.129758
0.568000,-1.081720
0.568100,-1.054130
0.568200,-1.042445
0.568300,-1.092756
0.568400,-1.126512
0.568500,-1.199543
0.568600,-1.252125
0.568700,-1.365080
0.568800,-1.392670
0.568900,-1.509844
0.569000,-1.386178
0.569100,-1.359238
0.569200,-1.359238
0.569300,-1.555610
0.569400,-1.842866
0.569500,-1.875649
0.569600,-1.740947
0.569700,-1.432593
0.569800,-1.480956
0.569900,-1.675056
0.570000,-1.971725
0.570100,-2.005806
0.570200,-1.904212
0.570300,-1.691610
0.570400,-1.627667
0.570500,-1.745166
0.570600,-1.920441
0.570700,-1.963610
0.570800,-2.011324
0.570900,-1.928556
0.571000,-1.946732
0.571100,-1.973348
0.571200,-2.077539
0.571300,-2.110971
0.571400,-2.105778
0.571500,-2.122332
0.571600,-2.145702
0.571700,-2.170045
0.571800,-2.123305
0.571900,-2.091496
0.572000,-2.091496
0.572100,-2.198609
0.572200,-2.322599
0.572300,-2.353759
0.572400,-2.326170
0.572500,-2.225224
0.572600,-2.237559
0.572700,-2.240155
0.572800,-2.209969
0.572900,-2.202504
0.573000,-2.189520
0.573100,-2.192442
0.573200,-2.184652
0.573300,-2.193091
0.573400,-2.190169
0.573500,-2.219706
0.573600,-2.211916
0.573700,-2.232365
0.573800,-2.249893
0.573900,-2.249244
0.574000,-2.274561
0.574100,-2.262551
0.574200,-2.363497
0.574300,-2.318380
0.574400,-2.473531
0.574500,-2.783184
0.574600,-3.041877
0.574700,-2.911394
0.574800,-2.600118
0.574900,-2.430361
0.575000,-2.523841
0.575100,-2.889647
0.575200,-3.155806
0.575300,-3.158078
0.575400,-2.928273
0.575500,-2.771498
0.575600,-2.742286
0.575700,-2.939958
0.575800,-3.145744
0.575900,-3.228838
0.576000,-3.182747
0.576100,-3.111013
0.576200,-3.095109
0.576300,-3.101925
0.576400,-3.124321
0.576500,-3.151262
0.576600,-3.163272
0.576700,-3.188265
0.576800,-3.235329
0.576900,-3.262270
0.577000,-3.265191
0.577100,-3.278824
0.577200,-3.261945
0.577300,-3.333029
0.577400,-3.389507
0.577500,-3.425536
0.577600,-3.209038
0.577700,-3.083424
0.577800,-3.103223
0.577900,-3.284991
0.578000,-3.526806
0.578100,-3.602435
0.578200,-3.418070
0.578300,-3.206766
0.578400,-3.135357
0.578500,-3.292132
0.578600,-3.536544
0.578700,-3.672870
0.578800,-3.643982
0.578900,-3.487532
0.579000,-3.408008
0.579100,-3.421641
0.579200,-3.475197
0.579300,-3.502463
0.579400,-3.489479
0.579500,-3.479742
0.579600,-3.449880
0.579700,-3.393402
0.579800,-3.271034
0.579900,-3.133734
0.580000,-3.014287
0.580100,-2.955538
0.580200,-2.935089
0.580300,-2.920483
0.580400,-2.835442
0.580500,-2.613426
0.580600,-2.415106
0.580700,-2.249893
0.580800,-2.278131
0.580900,-2.268069
0.581000,-2.241778
0.581100,-2.131420
0.581200,-2.057415
0.581300,-1.931477
0.581400,-1.862990
0.581500,-1.865911
0.581600,-1.902589
0.581700,-1.943486
0.581800,-1.978217
0.581900,-1.951925
0.582000,-1.998665
0.582100,-1.903563
0.582200,-1.979840
0.582300,-1.903887
0.582400,-2.036642
0.582500,-2.049625
0.582600,-2.083382
0.582700,-2.012947
0.582800,-1.721796
0.582900,-1.406951
0.583000,-1.430321
0.583100,-1.770808
0.583200,-2.079162
0.583300,-1.977243
0.583400,-1.742570
0.583500,-1.380011
0.583600,-1.344631
0.583700,-1.430646
0.583800,-1.664994
0.583900,-1.655581
0.584000,-1.460183
0.584100,-1.302760
0.584200,-1.133653
0.584300,-1.225834
0.584400,-1.168383
0.584500,-1.283935
0.584600,-1.216746
0.584700,-1.213825
0.584800,-1.148908
0.584900,-1.141118
0.585000,-1.143390
0.585100,-1.089834
0.585200,-1.099247
0.585300,-1.156698
0.585400,-1.248880
0.585500,-1.331648
0.585600,-1.401758
0.585700,-1.313147
0.585800,-1.311849
0.585900,-1.281338
0.586000,-1.668889
0.586100,-1.805539
0.586200,-1.762369
0.586300,-1.551066
0.586400,-1.312822
0.586500,-1.408899
0.586600,-1.648116
0.586700,-1.928880
0.586800,-1.882789
0.586900,-1.694207
0.587000,-1.486799
0.587100,-1.480956
0.587200,-1.646818
0.587300,-1.767562
0.587400,-1.775352
0.587500,-1.788985
0.587600,-1.726990
0.587700,-1.811706
0.587800,-1.865586
0.587900,-1.944460
0.588000,-1.930503
0.588100,-1.928880
0.588200,-1.969778
0.588300,-2.026255
0.588400,-2.024957
0.588500,-1.990551
0.588600,-1.961014
0.588700,-1.982112
0.588800,-2.111945
0.588900,-2.210943
0.589000,-2.213539
0.589100,-2.208346
0.589200,-2.078837
0.589300,-2.131095
0.589400,-2.116164
0.589500,-2.125253
0.589600,-2.158360
0.589700,-2.156088
0.589800,-2.168747
0.589900,-2.181730
0.590000,-2.234637
0.590100,-2.240804
0.590200,-2.254761
0.590300,-2.272289
0.590400,-2.269043
0.590500,-2.301501
0.590600,-2.307993
0.590700,-2.348566
0.590800,-2.370638
0.590900,-2.426141
0.591000,-2.443344
0.591100,-2.655297
0.591200,-3.008120
0.591300,-3.136656
0.591400,-2.968196
0.591500,-2.705933
0.591600,-2.625760
0.591700,-2.871795
0.591800,-3.242795
0.591900,-3.472601
0.592000,-3.422290
0.592100,-3.161973
0.592200,-3.059405
0.592300,-3.126918
0.592400,-3.342118
0.592500,-3.540439
0.592600,-3.550501
0.592700,-3.534596
0.592800,-3.455722
0.592900,-3.457994
0.593000,-3.496945
0.593100,-3.508630
0.593200,-3.534921
0.593300,-3.502463
0.593400,-3.488505
0.593500,-3.552449
0.593600,-3.604382
0.593700,-3.582310
0.593800,-3.576143
0.593900,-3.554396
0.594000,-3.630349
0.594100,-3.644631
0.594200,-3.640736
0.594300,-3.404438
0.594400,-3.287912
0.594500,-3.425536
0.594600,-3.643332
0.594700,-3.879306
0.594800,-3.869893
0.594900,-3.639113
0.595000,-3.434949
0.595100,-3.411254
0.595200,-3.619962
0.595300,-3.877359
0.595400,-3.998754
0.595500,-3.906571
0.595600,-3.763104
0.595700,-3.707600
0.595800,-3.740059
0.595900,-3.782904
0.596000,-3.818284
0.596100,-3.809196
0.596200,-3.794265
0.596300,-3.723180
0.596400,-3.670922
0.596500,-3.589451
0.596600,-3.472276
0.596700,-3.368734
0.596800,-3.296676
0.596900,-3.272657
0.597000,-3.276227
0.597100,-3.155806
0.597200,-2.951318
0.597300,-2.752023
0.597400,-2.589082
0.597500,-2.593302
0.597600,-2.505340
0.597700,-2.405044
0.597800,-2.278781
0.597900,-2.154141
0.598000,-1.973673
0.598100,-1.951925
0.598200,-1.870455
0.598300,-1.869157
0.598400,-1.812030
0.598500,-1.826637
0.598600,-1.797749
0.598700,-1.683820
0.598800,-1.677328
0.598900,-1.566321
0.599000,-1.598455
0.599100,-1.578980
0.599200,-1.628966
0.599300,-1.591963
0.599400,-1.357615
0.599500,-1.063543
0.599600,-0.758436
0.599700,-0.903849
0.599800,-1.246932
0.599900,-1.449147
0.600000,-1.311849
0.600100,-1.001223
0.600200,-0.780508
0.600300,-0.798035
0.600400,-0.958054
0.600500,-1.110283
0.600600,-1.108985
0.600700,-1.000574
0.600800,-0.812966
0.600900,-0.765577
0.601000,-0.786026
0.601100,-0.838932
0.601200,-0.855811
0.601300,-0.844450
0.601400,-0.833415
0.601500,-0.840880
0.601600,-0.843477
0.601700,-0.859706
0.601800,-0.847372
0.601900,-0.954484
0.602000,-1.083992
0.602100,-1.191429
0.602200,-1.182016
0.602300,-1.253099
0.602400,-1.111257
0.602500,-1.215123
0.602600,-1.282636
0.602700,-1.687066
0.602800,-1.713357
0.602900,-1.653634
0.603000,-1.363133
0.603100,-1.323209
0.603200,-1.466999
0.603300,-1.776002
0.603400,-1.918493
0.603500,-1.866236
0.603600,-1.677328
0.603700,-1.585472
0.603800,-1.660775
0.603900,-1.818197
0.604000,-1.864937
0.604100,-1.870780
0.604200,-1.871104
0.604300,-1.871429
0.604400,-1.941214
0.604500,-2.009701
0.604600,-2.047028
0.604700,-2.003534
0.604800,-2.008727
0.604900,-2.061310
0.605000,-2.109673
0.605100,-2.073320
0.605200,-2.034045
0.605300,-2.011000
0.605400,-2.058064
0.605500,-2.221654
0.605600,-2.279105
0.605700,-2.278131
0.605800,-2.233988
0.605900,-2.167449
0.606000,-2.234637
0.606100,-2.267420
0.606200,-2.266771
0.606300,-2.264824
0.606400,-2.275210
0.606500,-2.267420
0.606600,-2.292413
0.606700,-2.332661
0.606800,-2.343697
0.606900,-2.336556
0.607000,-2.340451
0.607100,-2.378103
0.607200,-2.379726
0.607300,-2.414456
0.607400,-2.400499
0.607500,-2.520920
0.607600,-2.505340
0.607700,-2.664386
0.607800,-2.884454
0.607900,-3.249611
0.608000,-3.275578
0.608100,-3.013638
0.608200,-2.819212
0.608300,-2.814019
0.608400,-3.169763
0.608500,-3.516744
0.608600,-3.693319
0.608700,-3.590750
0.608800,-3.385937
0.608900,-3.331406
0.609000,-3.484610
0.609100,-3.757262
0.609200,-3.883526
0.609300,-3.939354
0.609400,-3.876709
0.609500,-3.885473
0.609600,-3.926696
0.609700,-3.987718
0.609800,-4.013360
0.609900,-4.019527
0.610000,-4.023747
0.610100,-4.040950
0.610200,-4.135404
0.610300,-4.177601
0.610400,-4.151309
0.610500,-4.086716
0.610600,-4.082821
0.610700,-4.148712
0.610800,-4.166889
0.610900,-4.075356
0.611000,-3.847821
0.611100,-3.777711
0.611200,-3.916309
0.611300,-4.151309
0.611400,-4.307760
0.611500,-4.199023
0.611600,-3.938381
0.611700,-3.780957
0.611800,-3.850093
0.611900,-4.073408
0.612000,-4.289583
0.612100,-4.298996
0.612200,-4.139624
0.612300,-3.975059
0.612400,-3.941951
0.612500,-3.974085
0.612600,-3.990964
0.612700,-3.944223
0.612800,-3.875411
0.612900,-3.813091
0.613000,-3.740708
0.613100,-3.659886
0.613200,-3.490778
0.613300,-3.321993
0.613400,-3.218451
0.613500,-3.154832
0.613600,-3.108741
0.613700,-3.075309
0.613800,-2.858487
0.613900,-2.706257
0.614000,-2.570906
0.614100,-2.367716
0.614200,-2.362848
0.614300,-2.278456
0.614400,-2.154141
0.614500,-2.006455
0.614600,-1.840918
0.614700,-1.727963
0.614800,-1.640651
0.614900,-1.641949
0.615000,-1.591314
0.615100,-1.532240
0.615200,-1.532889
0.615300,-1.467324
0.615400,-1.454016
0.615500,-1.351123
0.615600,-1.366378
0.615700,-1.298216
0.615800,-1.383581
0.615900,-1.387801
0.616000,-1.298216
0.616100,-1.161567
0.616200,-0.682159
0.616300,-0.673396
0.616400,-0.774016
0.616500,-1.187534
0.616600,-1.254398
0.616700,-0.985319
0.616800,-0.775964
0.616900,-0.554599
0.617000,-0.638990
0.617100,-0.851916
0.617200,-0.974608
0.617300,-0.870417
0.617400,-0.735715
0.617500,-0.578293
0.617600,-0.569854
0.617700,-0.601338
0.617800,-0.704880
0.617900,-0.660737
0.618000,-0.648403
0.618100,-0.611076
0.618200,-0.617243
0.618300,-0.659439
0.618400,-0.714618
0.618500,-0.727601
0.618600,-0.853539
0.618700,-0.905147
0.618800,-1.042121
0.618900,-1.110932
0.619000,-1.074254
0.619100,-1.082694
0.619200,-1.050560
0.619300,-1.289128
0.619400,-1.603973
0.619500,-1.656880
0.619600,-1.508221
0.619700,-1.352746
0.619800,-1.313147
0.619900,-1.605596
0.620000,-1.927582
0.620100,-1.993797
0.620200,-1.881166
0.620300,-1.687715
0.620400,-1.655257
0.620500,-1.825338
0.620600,-1.996393
0.620700,-2.049950
0.620800,-2.074293
0.620900,-2.011324
0.621000,-2.034694
0.621100,-2.101883
0.621200,-2.214189
0.621300,-2.268069
0.621400,-2.248919
0.621500,-2.263850
0.621600,-2.294361
0.621700,-2.298580
0.621800,-2.233014
0.621900,-2.203477
0.622000,-2.206399
0.622100,-2.327793
0.622200,-2.437177
0.622300,-2.450161
0.622400,-2.442371
0.622500,-2.277158
0.622600,-2.321626
0.622700,-2.330065
0.622800,-2.293711
0.622900,-2.293387
0.623000,-2.247621
0.623100,-2.215811
0.623200,-2.186274
0.623300,-2.170045
0.623400,-2.141807
0.623500,-2.134341
0.623600,-2.101234
0.623700,-2.107725
0.623800,-2.084680
0.623900,-2.099935
0.624000,-2.076890
0.624100,-2.081434
0.624200,-2.127525
0.624300,-2.130122
0.624400,-2.258332
0.624500,-2.549808
0.624600,-2.829274
0.624700,-2.743584
0.624800,-2.458924
0.624900,-2.271315
0.625000,-2.375182
0.625100,-2.745532
0.625200,-3.031166
0.625300,-3.093161
0.625400,-2.942230
0.625500,-2.777016
0.625600,-2.792921
0.625700,-3.003901
0.625800,-3.222021
0.625900,-3.310958
0.626000,-3.326213
0.626100,-3.269086
0.626200,-3.307063
0.626300,-3.344714
0.626400,-3.418395
0.626500,-3.457994
0.626600,-3.481040
0.626700,-3.522587
0.626800,-3.605031
0.626900,-3.679686
0.627000,-3.721882
0.627100,-3.706302
0.627200,-3.679686
0.627300,-3.732918
0.627400,-3.790694
0.627500,-3.831267
0.627600,-3.720259
0.627700,-3.542062
0.627800,-3.593346
0.627900,-3.773491
0.628000,-4.003298
0.628100,-4.088989
0.628200,-3.910791
0.628300,-3.665080
0.628400,-3.586530
0.628500,-3.738436
0.628600,-3.973111
0.628700,-4.138975
0.628800,-4.096779
0.628900,-3.927020
0.629000,-3.841005
0.629100,-3.835812
0.629200,-3.872165
0.629300,-3.874762
0.629400,-3.825749
0.629500,-3.808871
0.629600,-3.763429
0.629700,-3.686827
0.629800,-3.554072
0.629900,-3.388858
0.630000,-3.259024
0.630100,-3.205143
0.630200,-3.189563
0.630300,-3.160026
0.630400,-3.069142
0.630500,-2.836091
0.630600,-2.755594
0.630700,-2.531956
0.630800,-2.493006
0.630900,-2.420624
0.631000,-2.327144
0.631100,-2.215487
0.631200,-2.116489
0.631300,-1.915572
0.631400,-1.867534
0.631500,-1.841243
0.631600,-1.827935
0.631700,-1.862990
0.631800,-1.823715
0.631900,-1.842216
0.632000,-1.730235
0.632100,-1.730560
0.632200,-1.661424
0.632300,-1.739648
