0.000100,-1.845787
0.000200,-1.892851
0.000300,-1.881491
0.000400,-1.844489
0.000500,-1.808460
0.000600,-1.791906
0.000700,-1.948355
0.000800,-2.033720
0.000900,-2.047353
0.001000,-2.013921
0.001100,-1.863964
0.001200,-1.931801
0.001300,-1.928880
0.001400,-1.933100
0.001500,-1.943162
0.001600,-1.937968
0.001700,-1.982436
0.001800,-1.992498
0.001900,-2.026904
0.002000,-2.038914
0.002100,-2.056117
0.002200,-2.102857
0.002300,-2.110971
0.002400,-2.151219
0.002500,-2.183353
0.002600,-2.212241
0.002700,-2.232041
0.002800,-2.318380
0.002900,-2.365769
0.003000,-2.569607
0.003100,-2.898086
0.003200,-3.131462
0.003300,-2.926325
0.003400,-2.646534
0.003500,-2.538123
0.003600,-2.789675
0.003700,-3.196055
0.003800,-3.484935
0.003900,-3.445336
0.004000,-3.237601
0.004100,-3.060378
0.004200,-3.175606
0.004300,-3.439818
0.004400,-3.618989
0.004500,-3.679037
0.004600,-3.621910
0.004700,-3.567704
0.004800,-3.545632
0.004900,-3.627428
0.005000,-3.677739
0.005100,-3.729023
0.005200,-3.665080
0.005300,-3.682607
0.005400,-3.742980
0.005500,-3.762780
0.005600,-3.815687
0.005700,-3.812766
0.005800,-3.794589
0.005900,-3.819582
0.006000,-3.829320
0.006100,-3.810169
0.006200,-3.584907
0.006300,-3.438195
0.006400,-3.533623
0.006500,-3.760508
0.006600,-3.984796
0.006700,-3.999078
0.006800,-3.717013
0.006900,-3.467407
0.007000,-3.466109
0.007100,-3.718312
0.007200,-4.019852
0.007300,-4.151958
0.007400,-4.061074
0.007500,-3.837759
0.007600,-3.737787
0.007700,-3.816336
0.007800,-3.947144
0.007900,-4.024071
0.008000,-3.983174
0.008100,-3.911115
0.008200,-3.826074
0.008300,-3.785825
0.008400,-3.743629
0.008500,-3.617366
0.008600,-3.493699
0.008700,-3.401192
0.008800,-3.363865
0.008900,-3.350557
0.009000,-3.210012
0.009100,-2.990593
0.009200,-2.725083
0.009300,-2.590381
0.009400,-2.606935
0.009500,-2.552080
0.009600,-2.461521
0.009700,-2.346294
0.009800,-2.203477
0.009900,-2.035668
0.010000,-2.014895
0.010100,-1.955171
0.010200,-2.007429
0.010300,-1.934723
0.010400,-1.997043
0.010500,-1.905186
0.010600,-1.879219
0.010700,-1.826961
0.010800,-1.791582
0.010900,-1.833777
0.011000,-1.829882
0.011100,-1.900966
0.011200,-1.883439
0.011300,-1.743868
0.011400,-1.440059
0.011500,-1.157672
0.011600,-1.301137
0.011700,-1.598455
0.011800,-1.869806
0.011900,-1.624746
0.012000,-1.357290
0.012100,-1.070035
0.012200,-1.086264
0.012300,-1.233300
0.012400,-1.431295
0.012500,-1.459534
0.012600,-1.204412
0.012700,-1.039849
0.012800,-0.909042
0.012900,-0.995056
0.013000,-0.999925
0.013100,-1.108985
0.013200,-1.082369
0.013300,-1.058025
0.013400,-1.034980
0.013500,-1.022646
0.013600,-1.067114
0.013700,-1.053806
0.013800,-1.178121
0.013900,-1.271276
0.014000,-1.313472
0.014100,-1.316068
0.014200,-1.351123
0.014300,-1.335868
0.014400,-1.316393
0.014500,-1.499782
0.014600,-1.794503
0.014700,-1.965558
0.014800,-1.874675
0.014900,-1.638703
0.015000,-1.546522
0.015100,-1.675706
0.015200,-2.041835
0.015300,-2.172967
0.015400,-2.132394
0.015500,-1.924985
0.015600,-1.772756
0.015700,-1.827610
0.015800,-1.960365
0.015900,-2.092794
0.016000,-2.071047
0.016100,-2.095067
0.016200,-2.030799
0.016300,-2.124928
0.016400,-2.187573
0.016500,-2.239506
0.016600,-2.211267
0.016700,-2.262227
0.016800,-2.338504
0.016900,-2.379726
0.017000,-2.363821
0.017100,-2.315459
0.017200,-2.297606
0.017300,-2.311888
0.017400,-2.485216
0.017500,-2.526113
0.017600,-2.512156
0.017700,-2.428738
0.017800,-2.296633
0.017900,-2.333311
0.018000,-2.304747
0.018100,-2.274886
0.018200,-2.229119
0.018300,-2.204127
0.018400,-2.191143
0.018500,-2.190169
0.018600,-2.159659
0.018700,-2.176212
0.018800,-2.166799
0.018900,-2.210294
0.019000,-2.233339
0.019100,-2.200881
0.019200,-2.268719
0.019300,-2.277482
0.019400,-2.383621
0.019500,-2.424519
0.019600,-2.524815
0.019700,-2.815642
0.019800,-3.129190
0.019900,-3.279797
0.020000,-3.013963
0.020100,-2.839986
0.020200,-2.791623
0.020300,-3.164245
0.020400,-3.551799
0.020500,-3.784203
0.020600,-3.663781
0.020700,-3.461565
0.020800,-3.421641
0.020900,-3.615094
0.021000,-3.872490
0.021100,-4.039651
0.021200,-4.083795
0.021300,-4.023747
0.021400,-4.006868
0.021500,-4.043546
0.021600,-4.055556
0.021700,-4.093533
0.021800,-4.118526
0.021900,-4.135729
0.022000,-4.172732
0.022100,-4.206489
0.022200,-4.294127
0.022300,-4.233105
0.022400,-4.216875
0.022500,-4.256150
0.022600,-4.302242
0.022700,-4.308733
0.022800,-4.230833
0.022900,-4.001999
0.023000,-3.897158
0.023100,-4.024071
0.023200,-4.294452
0.023300,-4.489853
0.023400,-4.383064
0.023500,-4.070487
0.023600,-3.841005
0.023700,-3.868270
0.023800,-4.108464
0.023900,-4.335349
0.024000,-4.360343
0.024100,-4.180197
0.024200,-4.019527
0.024300,-3.974085
0.024400,-4.013685
0.024500,-4.052959
0.024600,-4.021799
0.024700,-4.019527
0.024800,-3.980252
0.024900,-3.919879
0.025000,-3.842952
0.025100,-3.727400
0.025200,-3.552773
0.025300,-3.440142
0.025400,-3.434949
0.025500,-3.425861
0.025600,-3.326538
0.025700,-3.048044
0.025800,-2.847127
0.025900,-2.812721
0.026000,-2.593302
0.026100,-2.616347
0.026200,-2.530982
0.026300,-2.405044
0.026400,-2.273912
0.026500,-2.104804
0.026600,-2.023983
0.026700,-1.948355
0.026800,-1.966532
0.026900,-1.912651
0.027000,-1.911028
0.027100,-1.899018
0.027200,-1.867209
0.027300,-1.873376
0.027400,-1.819171
0.027500,-1.865586
0.027600,-1.870455
0.027700,-1.962312
0.027800,-1.973673
0.027900,-1.972374
0.028000,-1.802617
0.028100,-1.365405
0.028200,-1.183639
0.028300,-1.337491
0.028400,-1.722770
0.028500,-1.897396
0.028600,-1.628316
0.028700,-1.268679
0.028800,-1.009013
0.028900,-1.053806
0.029000,-1.289452
0.029100,-1.448498
0.029200,-1.403381
0.029300,-1.146961
0.029400,-0.947992
0.029500,-0.908393
0.029600,-0.945720
0.029700,-1.097949
0.029800,-1.070035
0.029900,-1.056727
0.030000,-0.972660
0.030100,-0.987591
0.030200,-0.996355
0.030300,-0.990837
0.030400,-1.017777
0.030500,-1.128784
0.030600,-1.235896
0.030700,-1.264784
0.030800,-1.342684
0.030900,-1.270627
0.031000,-1.186884
0.031100,-1.220966
0.031200,-1.352746
0.031300,-1.807811
0.031400,-1.759772
0.031500,-1.650388
0.031600,-1.296593
0.031700,-1.295944
0.031800,-1.509519
0.031900,-1.874999
0.032000,-2.025606
0.032100,-1.940565
0.032200,-1.687066
0.032300,-1.524775
0.032400,-1.686417
0.032500,-1.887009
0.032600,-1.995095
0.032700,-1.965883
0.032800,-1.899992
0.032900,-1.859744
0.033000,-1.920441
0.033100,-1.993797
0.033200,-2.077864
0.033300,-2.012947
0.033400,-2.023983
0.033500,-2.078837
0.033600,-2.114866
0.033700,-2.098637
0.033800,-2.083706
0.033900,-2.051248
0.034000,-2.096040
0.034100,-2.287220
0.034200,-2.366094
0.034300,-2.367716
0.034400,-2.242427
0.034500,-2.225549
0.034600,-2.273912
0.034700,-2.261578
0.034800,-2.260929
0.034900,-2.237883
0.035000,-2.229769
0.035100,-2.236260
0.035200,-2.219382
0.035300,-2.233014
0.035400,-2.239831
0.035500,-2.255086
0.035600,-2.268394
0.035700,-2.277482
0.035800,-2.288194
0.035900,-2.324871
0.036000,-2.350189
0.036100,-2.406666
0.036200,-2.455029
0.036300,-2.583889
0.036400,-2.849723
0.036500,-3.275902
0.036600,-3.289210
0.036700,-3.047395
0.036800,-2.819861
0.036900,-2.913342
0.037000,-3.276552
0.037100,-3.630024
0.037200,-3.786150
0.037300,-3.610874
0.037400,-3.383015
0.037500,-3.355101
0.037600,-3.519990
0.037700,-3.755639
0.037800,-3.893263
0.037900,-3.876709
0.038000,-3.781606
0.038100,-3.765701
0.038200,-3.822828
0.038300,-3.872814
0.038400,-3.927994
0.038500,-3.972462
0.038600,-3.964997
0.038700,-3.998429
0.038800,-4.096129
0.038900,-4.117877
0.039000,-4.105218
0.039100,-4.096454
0.039200,-4.167214
0.039300,-4.260695
0.039400,-4.329182
0.039500,-4.215253
0.039600,-4.020825
0.039700,-3.956557
0.039800,-4.162670
0.039900,-4.440840
0.040000,-4.609950
0.040100,-4.463886
0.040200,-4.198049
0.040300,-4.006219
0.040400,-4.104893
0.040500,-4.365211
0.040600,-4.579114
0.040700,-4.585606
0.040800,-4.410654
0.040900,-4.272055
0.041000,-4.206164
0.041100,-4.251931
0.041200,-4.303215
0.041300,-4.317173
0.041400,-4.299970
0.041500,-4.262318
0.041600,-4.173056
0.041700,-4.100674
0.041800,-3.946820
0.041900,-3.737462
0.042000,-3.651123
0.042100,-3.673519
0.042200,-3.661834
0.042300,-3.581661
0.042400,-3.348934
0.042500,-3.211310
0.042600,-3.157754
0.042700,-2.904578
0.042800,-2.841933
0.042900,-2.784157
0.043000,-2.655947
0.043100,-2.541693
0.043200,-2.320327
0.043300,-2.262227
0.043400,-2.138236
0.043500,-2.169072
0.043600,-2.119735
0.043700,-2.131420
0.043800,-2.109673
0.043900,-2.107725
0.044000,-2.014570
0.044100,-1.992498
0.044200,-2.012947
0.044300,-1.972374
0.044400,-2.005157
0.044500,-2.029501
0.044600,-1.944135
0.044700,-1.805214
0.044800,-1.343009
0.044900,-1.311524
0.045000,-1.477061
0.045100,-1.955820
0.045200,-1.873052
0.045300,-1.688689
0.045400,-1.387152
0.045500,-1.163190
0.045600,-1.287180
0.045700,-1.453042
0.045800,-1.595858
0.045900,-1.504651
0.046000,-1.286531
0.046100,-1.115476
0.046200,-1.080746
0.046300,-1.120670
0.046400,-1.156698
0.046500,-1.163839
0.046600,-1.149557
0.046700,-1.108660
0.046800,-1.131056
0.046900,-1.132679
0.047000,-1.099896
0.047100,-1.157347
0.047200,-1.213176
0.047300,-1.423505
0.047400,-1.417987
0.047500,-1.553338
0.047600,-1.442980
0.047700,-1.434216
0.047800,-1.457586
0.047900,-1.722121
0.048000,-2.052222
0.048100,-2.017491
0.048200,-1.876298
0.048300,-1.579629
0.048400,-1.635133
0.048500,-1.884412
0.048600,-2.212890
0.048700,-2.277482
0.048800,-2.132069
0.048900,-1.910703
0.049000,-1.836049
0.049100,-1.990875
0.049200,-2.169396
0.049300,-2.163878
0.049400,-2.156413
0.049500,-2.080136
0.049600,-2.105778
0.049700,-2.143429
0.049800,-2.171668
0.049900,-2.161931
0.050000,-2.096040
0.050100,-2.116164
0.050200,-2.144079
0.050300,-2.132718
0.050400,-2.088900
0.050500,-2.020737
0.050600,-1.965883
0.050700,-2.055792
0.050800,-2.194714
0.050900,-2.229119
0.051000,-2.194714
0.051100,-2.024957
0.051200,-2.076565
0.051300,-2.076565
0.051400,-2.093768
0.051500,-2.083057
0.051600,-2.083382
0.051700,-2.068126
0.051800,-2.052871
0.051900,-2.076241
0.052000,-2.034045
0.052100,-2.048002
0.052200,-2.064556
0.052300,-2.074618
0.052400,-2.089224
0.052500,-2.109997
0.052600,-2.158360
0.052700,-2.178160
0.052800,-2.231716
0.052900,-2.309941
0.053000,-2.448538
0.053100,-2.790649
0.053200,-3.050641
0.053300,-3.048693
0.053400,-2.732873
0.053500,-2.582591
0.053600,-2.632252
0.053700,-3.132111
0.053800,-3.431054
0.053900,-3.500515
0.054000,-3.304141
0.054100,-3.133734
0.054200,-3.161973
0.054300,-3.373927
0.054400,-3.647228
0.054500,-3.728374
0.054600,-3.693643
0.054700,-3.651447
0.054800,-3.659237
0.054900,-3.752069
0.055000,-3.818933
0.055100,-3.870542
0.055200,-3.850743
0.055300,-3.832566
0.055400,-3.916958
0.055500,-4.011412
0.055600,-4.042897
0.055700,-4.016281
0.055800,-4.008491
0.055900,-4.099375
0.056000,-4.133457
0.056100,-4.170460
0.056200,-3.978954
0.056300,-3.783553
0.056400,-3.845549
0.056500,-4.002324
0.056600,-4.282766
0.056700,-4.385011
0.056800,-4.188312
0.056900,-3.939679
0.057000,-3.823802
0.057100,-4.001675
0.057200,-4.294452
0.057300,-4.459342
0.057400,-4.401890
0.057500,-4.196427
0.057600,-4.107165
0.057700,-4.114955
0.057800,-4.177925
0.057900,-4.241869
0.058000,-4.205190
0.058100,-4.159099
0.058200,-4.082821
0.058300,-4.047442
0.058400,-3.939030
0.058500,-3.776737
0.058600,-3.657614
0.058700,-3.569327
0.058800,-3.563485
0.058900,-3.544009
0.059000,-3.464811
0.059100,-3.248637
0.059200,-3.154508
0.059300,-2.983127
0.059400,-2.856539
0.059500,-2.784482
0.059600,-2.695221
0.059700,-2.556624
0.059800,-2.443994
0.059900,-2.210294
0.060000,-2.138561
0.060100,-2.141157
0.060200,-2.088250
0.060300,-2.111296
0.060400,-2.056441
0.060500,-2.073644
0.060600,-1.999315
0.060700,-1.948680
0.060800,-1.947706
0.060900,-1.896097
0.061000,-1.926933
0.061100,-1.958742
0.061200,-1.934398
0.061300,-1.901291
0.061400,-1.565997
0.061500,-1.265758
0.061600,-1.066464
0.061700,-1.476736
0.061800,-1.706865
0.061900,-1.658827
0.062000,-1.340412
0.062100,-1.068412
0.062200,-0.876909
0.062300,-1.034980
0.062400,-1.148584
0.062500,-1.270302
0.062600,-1.085939
0.062700,-0.857758
0.062800,-0.706178
0.062900,-0.681510
0.063000,-0.725004
0.063100,-0.703906
0.063200,-0.778885
0.063300,-0.734417
0.063400,-0.700011
0.063500,-0.670150
0.063600,-0.699038
0.063700,-0.688002
0.063800,-0.694493
0.063900,-0.894436
0.064000,-0.900603
0.064100,-1.027515
0.064200,-1.015830
0.064300,-0.998951
0.064400,-0.945395
0.064500,-0.940202
0.064600,-1.303085
0.064700,-1.484526
0.064800,-1.506273
0.064900,-1.278417
0.065000,-1.103467
0.065100,-1.153452
0.065200,-1.441357
0.065300,-1.717901
0.065400,-1.747763
0.065500,-1.597157
0.065600,-1.415390
0.065700,-1.416040
0.065800,-1.567944
0.065900,-1.736403
0.066000,-1.763018
0.066100,-1.824040
0.066200,-1.747438
0.066300,-1.804240
0.066400,-1.840594
0.066500,-1.910054
0.066600,-1.961338
0.066700,-1.943811
0.066800,-1.980164
0.066900,-2.008078
0.067000,-1.989902
0.067100,-1.950303
0.067200,-1.959066
0.067300,-1.957119
0.067400,-2.125253
0.067500,-2.256060
0.067600,-2.308642
0.067700,-2.303774
0.067800,-2.183353
0.067900,-2.303449
0.068000,-2.321301
0.068100,-2.332012
0.068200,-2.331363
0.068300,-2.342724
0.068400,-2.376480
0.068500,-2.374208
0.068600,-2.419974
0.068700,-2.406017
0.068800,-2.394657
0.068900,-2.467039
0.069000,-2.451784
0.069100,-2.472881
0.069200,-2.452433
0.069300,-2.526113
0.069400,-2.523192
0.069500,-2.590381
0.069600,-2.635173
0.069700,-2.818239
0.069800,-3.152885
0.069900,-3.323292
0.070000,-3.228838
0.070100,-2.913342
0.070200,-2.853618
0.070300,-2.977285
0.070400,-3.465460
0.070500,-3.693968
0.070600,-3.652096
0.070700,-3.460591
0.070800,-3.311931
0.070900,-3.395999
0.071000,-3.588153
0.071100,-3.788422
0.071200,-3.796861
0.071300,-3.764727
0.071400,-3.746875
0.071500,-3.738761
0.071600,-3.794914
0.071700,-3.802379
0.071800,-3.843602
0.071900,-3.863077
0.072000,-3.887745
0.072100,-3.959803
0.072200,-3.998429
0.072300,-3.983823
0.072400,-3.944548
0.072500,-3.989016
0.072600,-4.036081
0.072700,-4.118201
0.072800,-4.063671
0.072900,-3.902027
0.073000,-3.742006
0.073100,-3.826074
0.073200,-4.038029
0.073300,-4.259721
0.073400,-4.273678
0.073500,-4.013360
0.073600,-3.791343
0.073700,-3.789396
0.073800,-3.994534
0.073900,-4.231157
0.074000,-4.298022
0.074100,-4.191233
0.074200,-4.029589
0.074300,-3.953636
0.074400,-3.971164
0.074500,-3.992911
0.074600,-4.021475
0.074700,-3.956557
0.074800,-3.918256
0.074900,-3.849769
0.075000,-3.780957
0.075100,-3.613471
0.075200,-3.413526
0.075300,-3.285965
0.075400,-3.281745
0.075500,-3.284017
0.075600,-3.287587
0.075700,-3.138603
0.075800,-2.940931
0.075900,-2.892568
0.076000,-2.672500
0.076100,-2.681264
0.076200,-2.612777
0.076300,-2.502419
0.076400,-2.376480
0.076500,-2.256384
0.076600,-2.100584
0.076700,-2.045730
0.076800,-2.034370
0.076900,-2.011973
0.077000,-2.019439
0.077100,-2.004183
0.077200,-2.012298
0.077300,-1.950952
0.077400,-1.919143
0.077500,-1.938942
0.077600,-1.941214
0.077700,-1.972050
0.077800,-1.986007
0.077900,-1.933749
0.078000,-1.868508
0.078100,-1.419935
0.078200,-1.274197
0.078300,-1.148908
0.078400,-1.730560
0.078500,-1.840918
0.078600,-1.763343
0.078700,-1.377090
0.078800,-1.159944
0.078900,-1.114503
0.079000,-1.318340
0.079100,-1.521853
0.079200,-1.487123
0.079300,-1.288154
0.079400,-1.125863
0.079500,-1.025567
0.079600,-1.101195
0.079700,-1.157997
0.079800,-1.157672
0.079900,-1.064842
0.080000,-1.017453
0.080100,-1.010961
0.080200,-1.039200
0.080300,-1.005768
0.080400,-0.985968
0.080500,-0.976880
0.080600,-1.145013
0.080700,-1.095028
0.080800,-1.177147
0.080900,-1.141443
0.081000,-1.028488
0.081100,-0.921052
0.081200,-0.977854
0.081300,-1.323209
0.081400,-1.461806
0.081500,-1.336192
0.081600,-1.115476
0.081700,-0.935982
0.081800,-1.111581
0.081900,-1.471868
0.082000,-1.726340
0.082100,-1.655581
0.082200,-1.436488
0.082300,-1.315744
0.082400,-1.467973
0.082500,-1.721796
0.082600,-1.859744
0.082700,-1.823391
0.082800,-1.832154
0.082900,-1.811381
0.083000,-1.954522
0.083100,-2.050274
0.083200,-2.112594
0.083300,-2.064880
0.083400,-2.087926
0.083500,-2.130122
0.083600,-2.160957
0.083700,-2.157062
0.083800,-2.075916
0.083900,-2.043458
0.084000,-2.050599
0.084100,-2.224251
0.084200,-2.294036
0.084300,-2.297282
0.084400,-2.204127
0.084500,-2.124604
0.084600,-2.182704
0.084700,-2.183353
0.084800,-2.155114
0.084900,-2.147649
0.085000,-2.159983
0.085100,-2.177186
0.085200,-2.165826
0.085300,-2.144728
0.085400,-2.142131
0.085500,-2.133367
0.085600,-2.148298
0.085700,-2.123954
0.085800,-2.135964
0.085900,-2.132394
0.086000,-2.145377
0.086100,-2.137587
0.086200,-2.196337
0.086300,-2.269692
0.086400,-2.545264
0.086500,-2.905876
0.086600,-3.043500
0.086700,-2.811098
0.086800,-2.537798
0.086900,-2.499173
0.087000,-2.789026
0.087100,-3.210012
0.087200,-3.456371
0.087300,-3.389507
0.087400,-3.170412
0.087500,-3.075634
0.087600,-3.201897
0.087700,-3.467732
0.087800,-3.660536
0.087900,-3.738111
0.088000,-3.691047
0.088100,-3.680011
0.088200,-3.702082
0.088300,-3.776412
0.088400,-3.882877
0.088500,-3.914361
0.088600,-3.928968
0.088700,-3.940977
0.088800,-3.917607
0.088900,-4.005570
0.089000,-4.041924
0.089100,-4.059127
0.089200,-4.044196
0.089300,-4.077953
0.089400,-4.098726
0.089500,-4.063671
0.089600,-3.872814
0.089700,-3.742980
0.089800,-3.835487
0.089900,-4.150335
0.090000,-4.321392
0.090100,-4.282442
0.090200,-3.987718
0.090300,-3.713767
0.090400,-3.767973
0.090500,-4.049389
0.090600,-4.305163
0.090700,-4.356448
0.090800,-4.157152
0.090900,-3.957856
0.091000,-3.909493
0.091100,-3.941627
0.091200,-4.012386
0.091300,-4.008816
0.091400,-3.976033
0.091500,-3.911440
0.091600,-3.877683
0.091700,-3.785825
0.091800,-3.585556
0.091900,-3.414500
0.092000,-3.325564
0.092100,-3.284666
0.092200,-3.269086
0.092300,-3.223644
0.092400,-3.050316
0.092500,-2.858812
0.092600,-2.794869
0.092700,-2.513130
0.092800,-2.514104
0.092900,-2.445616
0.093000,-2.347592
0.093100,-2.199582
0.093200,-2.031448
0.093300,-1.903238
0.093400,-1.841567
0.093500,-1.837023
0.093600,-1.817224
0.093700,-1.798722
0.093800,-1.804889
0.093900,-1.758799
0.094000,-1.674407
0.094100,-1.687715
0.094200,-1.639352
0.094300,-1.669538
0.094400,-1.667266
0.094500,-1.728613
0.094600,-1.667266
0.094700,-1.567944
0.094800,-1.083343
0.094900,-0.994407
0.095000,-0.976880
0.095100,-1.514063
0.095200,-1.574760
0.095300,-1.427400
0.095400,-1.156049
0.095500,-0.903200
0.095600,-0.874312
0.095700,-1.079123
0.095800,-1.244335
0.095900,-1.275820
0.096000,-1.060622
0.096100,-0.942149
0.096200,-0.784078
0.096300,-0.788298
0.096400,-0.865548
0.096500,-0.922999
0.096600,-0.945395
0.096700,-0.924297
0.096800,-0.890216
0.096900,-0.883725
0.097000,-0.893787
0.097100,-0.947018
0.097200,-1.088536
0.097300,-1.175524
0.097400,-1.242713
0.097500,-1.305682
0.097600,-1.293997
0.097700,-1.264135
0.097800,-1.184612
0.097900,-1.403056
0.098000,-1.700374
0.098100,-1.857472
0.098200,-1.689987
0.098300,-1.450121
0.098400,-1.327429
0.098500,-1.512116
0.098600,-1.885711
0.098700,-2.041835
0.098800,-1.936995
0.098900,-1.688689
0.099000,-1.544250
0.099100,-1.678302
0.099200,-1.849357
0.099300,-1.907133
0.099400,-1.869157
0.099500,-1.894799
0.099600,-1.895773
0.099700,-1.980164
0.099800,-2.011649
0.099900,-2.084031
0.100000,-2.041186
0.100100,-2.094093
0.100200,-2.163229
0.100300,-2.177186
0.100400,-2.138885
0.100500,-2.074942
0.100600,-2.054494
0.100700,-2.131420
0.100800,-2.315134
0.100900,-2.380375
0.101000,-2.352461
0.101100,-2.179458
0.101200,-2.178484
0.101300,-2.235611
0.101400,-2.205425
0.101500,-2.184976
0.101600,-2.172967
0.101700,-2.183029
0.101800,-2.169721
0.101900,-2.174589
0.102000,-2.174589
0.102100,-2.209969
0.102200,-2.214513
0.102300,-2.231716
0.102400,-2.244375
0.102500,-2.240804
0.102600,-2.279754
0.102700,-2.311564
0.102800,-2.365769
0.102900,-2.434581
0.103000,-2.513130
0.103100,-2.830248
0.103200,-3.127243
0.103300,-3.193458
0.103400,-2.899060
0.103500,-2.677045
0.103600,-2.700090
0.103700,-3.039930
0.103800,-3.413851
0.103900,-3.535246
0.104000,-3.428782
0.104100,-3.212933
0.104200,-3.198327
0.104300,-3.336275
0.104400,-3.598864
0.104500,-3.765701
0.104600,-3.751744
0.104700,-3.681958
0.104800,-3.660536
0.104900,-3.704030
0.105000,-3.743629
0.105100,-3.798809
0.105200,-3.768947
0.105300,-3.790045
0.105400,-3.811792
0.105500,-3.788422
0.105600,-3.875086
0.105700,-3.811468
0.105800,-3.806274
0.105900,-3.777062
0.106000,-3.852365
0.106100,-3.877359
0.106200,-3.804976
0.106300,-3.586205
0.106400,-3.463837
0.106500,-3.609251
0.106600,-3.896509
0.106700,-4.031537
0.106800,-3.921827
0.106900,-3.602435
0.107000,-3.433975
0.107100,-3.542387
0.107200,-3.851067
0.107300,-4.044845
0.107400,-4.013685
0.107500,-3.841005
0.107600,-3.724154
0.107700,-3.714741
0.107800,-3.751095
0.107900,-3.779983
0.108000,-3.769272
0.108100,-3.741682
0.108200,-3.702407
0.108300,-3.636192
0.108400,-3.534596
0.108500,-3.360944
0.108600,-3.200274
0.108700,-3.147691
0.108800,-3.143147
0.108900,-3.111013
0.109000,-3.083424
0.109100,-2.892568
0.109200,-2.747155
0.109300,-2.668605
0.109400,-2.403096
0.109500,-2.384270
0.109600,-2.316432
0.109700,-2.191792
0.109800,-2.055143
0.109900,-1.859419
0.110000,-1.774054
0.110100,-1.701023
0.110200,-1.658503
0.110300,-1.631562
0.110400,-1.546522
0.110500,-1.564049
0.110600,-1.505300
0.110700,-1.485176
0.110800,-1.401109
0.110900,-1.427725
0.111000,-1.379362
0.111100,-1.429672
0.111200,-1.456288
0.111300,-1.416040
0.111400,-1.285557
0.111500,-0.919104
0.111600,-0.802255
0.111700,-1.002846
0.111800,-1.384880
0.111900,-1.472192
0.112000,-1.219343
0.112100,-1.043744
0.112200,-0.721434
0.112300,-0.911639
0.112400,-1.091133
0.112500,-1.253424
0.112600,-1.212851
0.112700,-0.972336
0.112800,-0.823677
0.112900,-0.749023
0.113000,-0.873987
0.113100,-0.890866
0.113200,-0.928192
0.113300,-0.937281
0.113400,-0.876259
0.113500,-0.862627
0.113600,-0.882751
0.113700,-0.888269
0.113800,-0.889567
0.113900,-1.108336
0.114000,-1.132030
0.114100,-1.133004
0.114200,-1.228756
0.114300,-1.162216
0.114400,-1.156698
0.114500,-1.096326
0.114600,-1.300164
0.114700,-1.639028
0.114800,-1.636756
0.114900,-1.459534
0.115000,-1.173252
0.115100,-1.132030
0.115200,-1.330350
0.115300,-1.686417
0.115400,-1.752307
0.115500,-1.584822
0.115600,-1.348851
0.115700,-1.258942
0.115800,-1.397538
0.115900,-1.550092
0.116000,-1.597806
0.116100,-1.602999
0.116200,-1.577357
0.116300,-1.616632
0.116400,-1.665319
0.116500,-1.748737
0.116600,-1.834102
0.116700,-1.820794
0.116800,-1.863314
0.116900,-1.900317
0.117000,-1.937968
0.117100,-1.921090
0.117200,-1.896422
0.117300,-1.895773
0.117400,-2.007754
0.117500,-2.167124
0.117600,-2.228146
0.117700,-2.238857
0.117800,-2.079162
0.117900,-2.144079
0.118000,-2.187897
0.118100,-2.197310
0.118200,-2.214513
0.118300,-2.229119
0.118400,-2.228470
0.118500,-2.232041
0.118600,-2.266771
0.118700,-2.265148
0.118800,-2.320003
0.118900,-2.301501
0.119000,-2.321301
0.119100,-2.318704
0.119200,-2.343697
0.119300,-2.351163
0.119400,-2.354733
0.119500,-2.428089
0.119600,-2.498848
0.119700,-2.566362
0.119800,-2.890945
0.119900,-3.179501
0.120000,-3.148341
0.120100,-2.890945
0.120200,-2.693923
0.120300,-2.736119
0.120400,-3.129839
0.120500,-3.470653
0.120600,-3.559590
0.120700,-3.394051
0.120800,-3.211635
0.120900,-3.168140
0.121000,-3.339196
0.121100,-3.539790
0.121200,-3.656640
0.121300,-3.600812
0.121400,-3.552773
0.121500,-3.468706
0.121600,-3.507331
0.121700,-3.516744
0.121800,-3.552773
0.121900,-3.547904
0.122000,-3.595943
0.122100,-3.650473
0.122200,-3.666378
0.122300,-3.677739
0.122400,-3.676440
0.122500,-3.697863
0.122600,-3.726426
0.122700,-3.777386
0.122800,-3.816661
0.122900,-3.687476
0.123000,-3.533623
0.123100,-3.482987
0.123200,-3.721233
0.123300,-4.014983
0.123400,-4.153906
0.123500,-3.984147
0.123600,-3.686827
0.123700,-3.578740
0.123800,-3.728049
0.123900,-3.984796
0.124000,-4.137027
0.124100,-4.089638
0.124200,-3.919230
0.124300,-3.809845
0.124400,-3.777062
0.124500,-3.813091
0.124600,-3.821854
0.124700,-3.827372
0.124800,-3.804002
0.124900,-3.767973
0.125000,-3.680984
0.125100,-3.553747
0.125200,-3.347960
0.125300,-3.236303
0.125400,-3.168465
0.125500,-3.140875
0.125600,-3.103548
0.125700,-3.020779
0.125800,-2.782210
0.125900,-2.698467
0.126000,-2.485540
0.126100,-2.430686
0.126200,-2.357979
0.126300,-2.314485
0.126400,-2.180432
0.126500,-2.081434
0.126600,-1.928880
0.126700,-1.903887
0.126800,-1.807811
0.126900,-1.855524
0.127000,-1.787362
0.127100,-1.850656
0.127200,-1.776002
0.127300,-1.763343
0.127400,-1.664021
0.127500,-1.659476
0.127600,-1.688040
0.127700,-1.633510
0.127800,-1.724718
0.127900,-1.659152
0.128000,-1.626694
0.128100,-1.275820
0.128200,-0.956431
0.128300,-0.906121
0.128400,-1.178445
0.128500,-1.635782
0.128600,-1.426751
0.128700,-1.330999
0.128800,-0.927868
0.128900,-0.880154
0.129000,-0.950264
0.129100,-1.146636
0.129200,-1.272574
0.129300,-1.126837
0.129400,-0.964221
0.129500,-0.806799
0.129600,-0.824326
0.129700,-0.836011
0.129800,-0.798035
0.129900,-0.847372
0.130000,-0.839906
0.130100,-0.860355
0.130200,-0.875610
0.130300,-0.883076
0.130400,-0.826274
0.130500,-0.911963
0.130600,-0.972660
0.130700,-1.084641
0.130800,-1.126512
0.130900,-1.167409
0.131000,-1.075228
0.131100,-1.088861
0.131200,-1.065815
0.131300,-1.361510
0.131400,-1.584498
0.131500,-1.567944
0.131600,-1.342035
0.131700,-1.154426
0.131800,-1.182340
0.131900,-1.492316
0.132000,-1.778923
0.132100,-1.741271
0.132200,-1.549768
0.132300,-1.394942
0.132400,-1.452393
0.132500,-1.644546
0.132600,-1.757176
0.132700,-1.709138
0.132800,-1.733481
0.132900,-1.709138
0.133000,-1.825663
0.133100,-1.879868
0.133200,-1.957443
0.133300,-1.961014
0.133400,-1.950952
0.133500,-2.009701
0.133600,-2.075267
0.133700,-2.074618
0.133800,-2.026580
0.133900,-1.946408
0.134000,-1.944460
0.134100,-2.079487
0.134200,-2.219057
0.134300,-2.198284
0.134400,-2.163229
0.134500,-2.024632
0.134600,-2.109673
0.134700,-2.094742
0.134800,-2.073644
0.134900,-2.061635
0.135000,-2.072021
0.135100,-2.069425
0.135200,-2.044756
0.135300,-2.022685
0.135400,-1.999639
0.135500,-1.977568
0.135600,-1.980813
0.135700,-1.960365
0.135800,-1.950627
0.135900,-1.933749
0.136000,-1.913625
0.136100,-1.946408
0.136200,-1.957443
0.136300,-1.989577
0.136400,-2.107076
0.136500,-2.468986
0.136600,-2.670878
0.136700,-2.588758
0.136800,-2.270991
0.136900,-2.132394
0.137000,-2.295659
0.137100,-2.748778
0.137200,-2.986049
0.137300,-2.999032
0.137400,-2.791947
0.137500,-2.630305
0.137600,-2.693274
0.137700,-2.944502
0.137800,-3.190537
0.137900,-3.259673
0.138000,-3.180475
0.138100,-3.169439
0.138200,-3.232733
0.138300,-3.342442
0.138400,-3.402815
0.138500,-3.393727
0.138600,-3.382366
0.138700,-3.431703
0.138800,-3.468706
0.138900,-3.534596
0.139000,-3.597891
0.139100,-3.575819
0.139200,-3.565757
0.139300,-3.580038
0.139400,-3.639437
0.139500,-3.652096
0.139600,-3.517393
0.139700,-3.324590
0.139800,-3.358996
0.139900,-3.643332
0.140000,-3.906247
0.140100,-4.010763
0.140200,-3.727075
0.140300,-3.439169
0.140400,-3.403789
0.140500,-3.653719
0.140600,-3.983823
0.140700,-4.068215
0.140800,-3.927345
0.140900,-3.744603
0.141000,-3.662483
0.141100,-3.767324
0.141200,-3.839382
0.141300,-3.865024
0.141400,-3.779009
0.141500,-3.718961
0.141600,-3.672870
0.141700,-3.629700
0.141800,-3.485584
0.141900,-3.324265
0.142000,-3.161649
0.142100,-3.114908
0.142200,-3.062975
0.142300,-3.036034
0.142400,-2.908473
0.142500,-2.696195
0.142600,-2.614400
0.142700,-2.328117
0.142800,-2.345645
0.142900,-2.282676
0.143000,-2.203477
0.143100,-2.092470
0.143200,-1.955820
0.143300,-1.792231
0.143400,-1.769185
0.143500,-1.727639
0.143600,-1.773080
0.143700,-1.721147
0.143800,-1.696479
0.143900,-1.683820
0.144000,-1.624097
0.144100,-1.624097
0.144200,-1.644546
0.144300,-1.578006
0.144400,-1.676030
0.144500,-1.632536
0.144600,-1.696803
0.144700,-1.527696
0.144800,-1.350798
0.144900,-0.897033
0.145000,-1.047314
0.145100,-1.306006
0.145200,-1.617930
0.145300,-1.509844
0.145400,-1.211877
0.145500,-0.918780
0.145600,-0.819133
0.145700,-0.973959
0.145800,-1.202140
0.145900,-1.211228
0.146000,-1.127810
0.146100,-0.866846
0.146200,-0.735715
0.146300,-0.724030
0.146400,-0.776937
0.146500,-0.772069
0.146600,-0.799658
0.146700,-0.794789
0.146800,-0.662360
0.146900,-0.670474
0.147000,-0.663983
0.147100,-0.688002
0.147200,-0.723381
0.147300,-0.865873
0.147400,-0.904823
0.147500,-0.895085
0.147600,-1.018426
0.147700,-0.916832
0.147800,-0.945720
0.147900,-0.873338
0.148000,-1.258942
0.148100,-1.476736
0.148200,-1.396240
0.148300,-1.170006
0.148400,-0.933061
0.148500,-1.064517
0.148600,-1.392345
0.148700,-1.688040
0.148800,-1.665643
0.148900,-1.444927
0.149000,-1.265758
0.149100,-1.325481
0.149200,-1.545548
0.149300,-1.681548
0.149400,-1.693233
0.149500,-1.737701
0.149600,-1.690312
0.149700,-1.759448
0.149800,-1.784765
0.149900,-1.863964
0.150000,-1.879868
0.150100,-1.882140
0.150200,-1.899992
0.150300,-1.929854
0.150400,-1.881491
0.150500,-1.842541
0.150600,-1.819171
0.150700,-1.810407
0.150800,-1.990875
0.150900,-2.071697
0.151000,-2.035668
0.151100,-1.929854
0.151200,-1.865911
0.151300,-1.958093
0.151400,-1.933424
0.151500,-1.922713
0.151600,-1.937968
0.151700,-1.920766
0.151800,-1.907782
0.151900,-1.904212
0.152000,-1.872403
0.152100,-1.895773
0.152200,-1.866560
0.152300,-1.896746
0.152400,-1.839295
0.152500,-1.866236
0.152600,-1.860393
0.152700,-1.888632
0.152800,-1.932775
0.152900,-1.971076
0.153000,-2.030475
0.153100,-2.210294
0.153200,-2.615049
0.153300,-2.740338
0.153400,-2.561817
0.153500,-2.316757
0.153600,-2.232690
0.153700,-2.447564
0.153800,-2.814019
0.153900,-3.052264
0.154000,-3.049667
0.154100,-2.850048
0.154200,-2.768902
0.154300,-2.854592
0.154400,-3.087643
0.154500,-3.266489
0.154600,-3.367435
0.154700,-3.334652
0.154800,-3.324265
0.154900,-3.359321
0.155000,-3.393402
0.155100,-3.450854
0.155200,-3.496620
0.155300,-3.539465
0.155400,-3.599513
0.155500,-3.611199
0.155600,-3.653395
0.155700,-3.720908
0.155800,-3.694617
0.155900,-3.744603
0.156000,-3.777711
0.156100,-3.823802
0.156200,-3.801730
0.156300,-3.613795
0.156400,-3.457021
0.156500,-3.549527
0.156600,-3.851067
0.156700,-4.067890
0.156800,-4.055881
0.156900,-3.779009
0.157000,-3.527456
0.157100,-3.557317
0.157200,-3.817310
0.157300,-4.039327
0.157400,-4.088664
0.157500,-3.917932
0.157600,-3.795888
0.157700,-3.707600
0.157800,-3.722531
0.157900,-3.750446
0.158000,-3.741682
0.158100,-3.724479
0.158200,-3.699161
0.158300,-3.642683
0.158400,-3.563160
0.158500,-3.390805
0.158600,-3.197678
0.158700,-3.098679
0.158800,-3.083748
0.158900,-3.018182
0.159000,-2.991242
0.159100,-2.847451
0.159200,-2.609531
0.159300,-2.494304
0.159400,-2.221005
0.159500,-2.204451
0.159600,-2.134990
0.159700,-2.016517
0.159800,-1.887333
0.159900,-1.724068
0.160000,-1.593262
0.160100,-1.517634
0.160200,-1.450121
0.160300,-1.478684
0.160400,-1.429997
0.160500,-1.427400
0.160600,-1.416364
0.160700,-1.292049
0.160800,-1.330350
0.160900,-1.214149
0.161000,-1.296269
0.161100,-1.250178
0.161200,-1.358913
0.161300,-1.279390
0.161400,-1.175199
0.161500,-0.759085
0.161600,-0.618866
0.161700,-0.613997
0.161800,-1.098273
0.161900,-1.212526
0.162000,-1.066789
0.162100,-0.711047
0.162200,-0.454952
0.162300,-0.513701
0.162400,-0.660088
0.162500,-0.836336
0.162600,-0.837634
0.162700,-0.676966
0.162800,-0.456575
0.162900,-0.403344
0.163000,-0.456575
0.163100,-0.527983
0.163200,-0.502016
0.163300,-0.471830
0.163400,-0.449759
0.163500,-0.444890
0.163600,-0.488384
0.163700,-0.502666
0.163800,-0.452355
0.163900,-0.516623
0.164000,-0.615620
0.164100,-0.759410
0.164200,-0.761033
0.164300,-0.811018
0.164400,-0.691572
0.164500,-0.703257
0.164600,-0.766875
0.164700,-1.168383
0.164800,-1.305357
0.164900,-1.220316
0.165000,-0.930465
0.165100,-0.811668
0.165200,-0.968116
0.165300,-1.377739
0.165400,-1.549768
0.165500,-1.452717
0.165600,-1.222264
0.165700,-1.119696
0.165800,-1.250827
0.165900,-1.459209
0.166000,-1.579629
0.166100,-1.598779
0.166200,-1.550092
0.166300,-1.521853
0.166400,-1.631562
0.166500,-1.759448
0.166600,-1.789309
0.166700,-1.763992
0.166800,-1.758474
0.166900,-1.856174
0.167000,-1.902264
0.167100,-1.926283
0.167200,-1.881491
0.167300,-1.887009
0.167400,-1.939267
0.167500,-2.126227
0.167600,-2.206399
0.167700,-2.221329
0.167800,-2.230418
0.167900,-2.133692
0.168000,-2.221005
0.168100,-2.220356
0.168200,-2.245673
0.168300,-2.238208
0.168400,-2.258007
0.168500,-2.233988
0.168600,-2.270991
0.168700,-2.298580
0.168800,-2.316757
0.168900,-2.344671
0.169000,-2.344671
0.169100,-2.346294
0.169200,-2.343697
0.169300,-2.348891
0.169400,-2.374533
0.169500,-2.371611
0.169600,-2.456328
0.169700,-2.474829
0.169800,-2.749751
0.169900,-3.098030
0.170000,-3.141849
0.170100,-2.954239
0.170200,-2.606610
0.170300,-2.613102
0.170400,-2.893217
0.170500,-3.313879
0.170600,-3.433975
0.170700,-3.326213
0.170800,-3.090889
0.170900,-2.976636
0.171000,-3.108092
0.171100,-3.364189
0.171200,-3.524859
0.171300,-3.528105
0.171400,-3.438844
0.171500,-3.378471
0.171600,-3.383340
0.171700,-3.471627
0.171800,-3.520639
0.171900,-3.512200
0.172000,-3.475522
0.172100,-3.501489
0.172200,-3.480715
0.172300,-3.568353
0.172400,-3.571924
0.172500,-3.508954
0.172600,-3.513823
0.172700,-3.519341
0.172800,-3.556019
0.172900,-3.449231
0.173000,-3.217802
0.173100,-3.102574
0.173200,-3.220723
0.173300,-3.466109
0.173400,-3.647228
0.173500,-3.522262
0.173600,-3.193133
0.173700,-2.963328
0.173800,-3.011042
0.173900,-3.235329
0.174000,-3.459617
0.174100,-3.510577
0.174200,-3.326213
0.174300,-3.123672
0.174400,-3.064273
0.174500,-3.095758
0.174600,-3.172360
0.174700,-3.142174
0.174800,-3.125295
0.174900,-3.081801
0.175000,-2.995137
0.175100,-2.891270
0.175200,-2.796816
0.175300,-2.636796
0.175400,-2.548834
0.175500,-2.510209
0.175600,-2.468337
0.175700,-2.438800
0.175800,-2.217434
0.175900,-2.038914
0.176000,-1.747438
0.176100,-1.665968
0.176200,-1.650388
0.176300,-1.595858
0.176400,-1.496536
0.176500,-1.378388
0.176600,-1.200841
0.176700,-1.085939
0.176800,-1.030111
0.176900,-0.992135
0.177000,-1.052832
0.177100,-1.004794
0.177200,-1.036278
0.177300,-0.986617
0.177400,-0.937281
0.177500,-0.961949
0.177600,-0.896059
0.177700,-1.043095
0.177800,-0.976880
0.177900,-1.083343
0.178000,-1.010961
0.178100,-0.872689
0.178200,-0.539343
0.178300,-0.382246
0.178400,-0.642236
0.178500,-1.044068
0.178600,-1.175199
0.178700,-0.897682
0.178800,-0.638665
0.178900,-0.486436
0.179000,-0.500393
0.179100,-0.780508
0.179200,-0.919104
0.179300,-0.884374
0.179400,-0.715916
0.179500,-0.574398
0.179600,-0.555248
0.179700,-0.570179
0.179800,-0.686703
0.179900,-0.735715
0.180000,-0.757787
0.180100,-0.725653
0.180200,-0.722083
0.180300,-0.727276
0.180400,-0.738312
0.180500,-0.755839
0.180600,-0.837634
0.180700,-1.069710
0.180800,-1.071982
0.180900,-1.207658
0.181000,-1.147610
0.181100,-1.144689
0.181200,-1.084966
0.181300,-1.311849
0.181400,-1.649414
0.181500,-1.675056
0.181600,-1.571839
0.181700,-1.313472
0.181800,-1.300488
0.181900,-1.498159
0.182000,-1.863964
0.182100,-1.947057
0.182200,-1.829558
0.182300,-1.645195
0.182400,-1.582226
0.182500,-1.703620
0.182600,-1.858121
0.182700,-1.934073
0.182800,-1.927906
0.182900,-1.919467
0.183000,-1.897720
0.183100,-2.010026
0.183200,-2.078837
0.183300,-2.067802
0.183400,-2.004183
0.183500,-2.049950
0.183600,-2.131744
0.183700,-2.173940
0.183800,-2.122332
0.183900,-2.035668
0.184000,-1.990226
0.184100,-2.075267
0.184200,-2.231716
0.184300,-2.266122
0.184400,-2.235286
0.184500,-2.201530
0.184600,-2.092470
0.184700,-2.117138
0.184800,-2.085978
0.184900,-2.056766
0.185000,-2.035992
0.185100,-2.007754
0.185200,-2.011324
0.185300,-2.003210
0.185400,-1.997692
0.185500,-1.987630
0.185600,-1.986007
0.185700,-1.995420
0.185800,-1.968155
0.185900,-2.003859
0.186000,-1.963935
0.186100,-2.046055
0.186200,-2.097014
0.186300,-2.201530
0.186400,-2.308642
0.186500,-2.597197
0.186600,-2.930869
0.186700,-2.838363
0.186800,-2.649780
0.186900,-2.386542
0.187000,-2.548834
0.187100,-2.876015
0.187200,-3.183396
0.187300,-3.300571
0.187400,-3.128216
0.187500,-2.928597
0.187600,-2.876339
0.187700,-3.080178
0.187800,-3.280447
0.187900,-3.410605
0.188000,-3.337898
0.188100,-3.314528
0.188200,-3.304790
0.188300,-3.343091
0.188400,-3.376848
0.188500,-3.347636
0.188600,-3.333678
0.188700,-3.351531
0.188800,-3.411254
0.188900,-3.475522
0.189000,-3.481365
0.189100,-3.433975
0.189200,-3.433001
0.189300,-3.442414
0.189400,-3.511226
0.189500,-3.554396
0.189600,-3.411254
0.189700,-3.193782
0.189800,-3.195405
0.189900,-3.421641
0.190000,-3.714417
0.190100,-3.862103
0.190200,-3.701758
0.190300,-3.396323
0.190400,-3.264542
0.190500,-3.410930
0.190600,-3.701433
0.190700,-3.881578
0.190800,-3.794589
0.190900,-3.628077
0.191000,-3.499866
0.191100,-3.507981
0.191200,-3.548229
0.191300,-3.596917
0.191400,-3.564134
0.191500,-3.502463
0.191600,-3.436247
0.191700,-3.364189
0.191800,-3.286289
0.191900,-3.142498
0.192000,-2.959433
0.192100,-2.862382
0.192200,-2.804931
0.192300,-2.796816
0.192400,-2.751050
0.192500,-2.511182
0.192600,-2.340451
0.192700,-2.027553
0.192800,-1.994770
0.192900,-1.972699
0.193000,-1.905186
0.193100,-1.787362
0.193200,-1.660450
0.193300,-1.479658
0.193400,-1.419935
0.193500,-1.387152
0.193600,-1.345281
0.193700,-1.347553
0.193800,-1.288479
0.193900,-1.288479
0.194000,-1.254398
0.194100,-1.186560
0.194200,-1.183963
0.194300,-1.146636
0.194400,-1.193376
0.194500,-1.194999
0.194600,-1.257319
0.194700,-1.173252
0.194800,-0.986942
0.194900,-0.618217
0.195000,-0.470532
0.195100,-0.804202
0.195200,-1.273872
0.195300,-1.221939
0.195400,-0.995056
0.195500,-0.633797
0.195600,-0.505587
0.195700,-0.622761
0.195800,-0.913262
0.195900,-1.040173
0.196000,-0.950589
0.196100,-0.713968
0.196200,-0.531553
0.196300,-0.492604
0.196400,-0.556871
0.196500,-0.601014
0.196600,-0.653272
0.196700,-0.566933
0.196800,-0.573100
0.196900,-0.553949
0.197000,-0.594847
0.197100,-0.559143
0.197200,-0.587057
0.197300,-0.619515
0.197400,-0.717214
0.197500,-0.827897
0.197600,-0.872364
0.197700,-0.849968
0.197800,-0.832116
0.197900,-0.813940
0.198000,-1.095028
0.198100,-1.396240
0.198200,-1.418312
0.198300,-1.276145
0.198400,-0.988889
0.198500,-1.034655
0.198600,-1.331973
0.198700,-1.711410
0.198800,-1.770484
0.198900,-1.614684
0.199000,-1.398188
0.199100,-1.381634
0.199200,-1.550741
0.199300,-1.750684
0.199400,-1.786064
0.199500,-1.781520
0.199600,-1.698102
0.199700,-1.709787
0.199800,-1.816899
0.199900,-1.912002
0.200000,-1.892527
0.200100,-1.846436
0.200200,-1.863964
0.200300,-1.945758
0.200400,-1.988928
0.200500,-1.974646
0.200600,-1.949004
0.200700,-1.916871
0.200800,-2.036966
0.200900,-2.168422
0.201000,-2.197959
0.201100,-2.185950
0.201200,-2.093768
0.201300,-2.108050
0.201400,-2.107725
0.201500,-2.063257
0.201600,-2.041835
0.201700,-2.028527
0.201800,-2.023658
0.201900,-2.015544
0.202000,-2.023658
0.202100,-1.991525
0.202200,-1.968804
0.202300,-1.969128
0.202400,-1.962312
0.202500,-1.979190
0.202600,-1.966532
0.202700,-2.015219
0.202800,-1.990875
0.202900,-2.052222
0.203000,-2.016193
0.203100,-2.169396
0.203200,-2.463469
0.203300,-2.728004
0.203400,-2.664386
0.203500,-2.359926
0.203600,-2.154790
0.203700,-2.253139
0.203800,-2.668930
0.203900,-2.988321
0.204000,-2.988321
0.204100,-2.776043
0.204200,-2.584863
0.204300,-2.595899
0.204400,-2.761436
0.204500,-3.029543
0.204600,-3.099328
0.204700,-3.077581
0.204800,-3.028894
0.204900,-3.022402
0.205000,-3.081152
0.205100,-3.123348
0.205200,-3.155482
0.205300,-3.224618
0.205400,-3.207415
0.205500,-3.236303
0.205600,-3.273306
0.205700,-3.359321
0.205800,-3.362891
0.205900,-3.413202
0.206000,-3.493050
0.206100,-3.532000
0.206200,-3.542062
0.206300,-3.409631
0.206400,-3.221048
0.206500,-3.285640
0.206600,-3.490778
0.206700,-3.749472
0.206800,-3.869569
0.206900,-3.675466
0.207000,-3.444037
0.207100,-3.388209
0.207200,-3.556019
0.207300,-3.845874
0.207400,-4.022773
0.207500,-3.993885
0.207600,-3.809845
0.207700,-3.727400
0.207800,-3.741033
0.207900,-3.813091
0.208000,-3.858857
0.208100,-3.878332
0.208200,-3.860480
0.208300,-3.807573
0.208400,-3.742980
0.208500,-3.646903
0.208600,-3.483312
0.208700,-3.334652
0.208800,-3.279797
0.208900,-3.222671
0.209000,-3.190537
0.209100,-3.073362
0.209200,-2.828950
0.209300,-2.679317
0.209400,-2.389788
0.209500,-2.394981
0.209600,-2.334609
0.209700,-2.233988
0.209800,-2.137912
0.209900,-2.044756
0.210000,-1.890579
0.210100,-1.806512
0.210200,-1.795801
0.210300,-1.789959
0.210400,-1.776326
0.210500,-1.803267
0.210600,-1.748737
0.210700,-1.772431
0.210800,-1.672784
0.210900,-1.695181
0.211000,-1.648765
0.211100,-1.684469
0.211200,-1.723744
0.211300,-1.667591
0.211400,-1.677004
0.211500,-1.283935
0.211600,-1.123591
0.211700,-0.819782
0.211800,-1.417987
0.211900,-1.566321
0.212000,-1.448498
0.212100,-1.218693
0.212200,-0.835362
0.212300,-0.824326
0.212400,-0.876584
0.212500,-1.125863
0.212600,-1.125538
0.212700,-0.969090
0.212800,-0.828870
0.212900,-0.635420
0.213000,-0.696766
0.213100,-0.645806
0.213200,-0.752918
0.213300,-0.691248
0.213400,-0.672097
0.213500,-0.659114
0.213600,-0.641262
0.213700,-0.618541
0.213800,-0.576670
0.213900,-0.619840
0.214000,-0.744479
0.214100,-0.892164
0.214200,-0.869443
0.214300,-0.884698
0.214400,-0.784403
0.214500,-0.801930
0.214600,-0.840231
0.214700,-1.174226
0.214800,-1.342684
0.214900,-1.267056
0.215000,-1.064842
0.215100,-0.831467
0.215200,-0.980450
0.215300,-1.205386
0.215400,-1.466674
0.215500,-1.389748
0.215600,-1.217071
0.215700,-1.044393
0.215800,-1.083343
0.215900,-1.220641
0.216000,-1.343333
0.216100,-1.264784
0.216200,-1.303409
0.216300,-1.301462
0.216400,-1.407600
0.216500,-1.460507
0.216600,-1.504326
0.216700,-1.490694
0.216800,-1.491018
0.216900,-1.573787
0.217000,-1.652336
0.217100,-1.661749
0.217200,-1.619553
0.217300,-1.605271
0.217400,-1.628316
0.217500,-1.807162
0.217600,-1.883439
0.217700,-1.903563
0.217800,-1.906159
0.217900,-1.797749
0.218000,-1.874026
0.218100,-1.897071
0.218200,-1.903563
0.218300,-1.920441
0.218400,-1.934723
0.218500,-1.941214
0.218600,-1.963286
0.218700,-1.976918
0.218800,-1.974971
0.218900,-1.993148
0.219000,-2.002885
0.219100,-1.993797
0.219200,-2.010350
0.219300,-2.013596
0.219400,-2.032747
0.219500,-2.040861
0.219600,-2.102857
0.219700,-2.122656
0.219800,-2.321626
0.219900,-2.725408
0.220000,-2.881857
0.220100,-2.775718
0.220200,-2.438476
0.220300,-2.393034
0.220400,-2.596223
0.220500,-2.995786
0.220600,-3.274929
0.220700,-3.204169
0.220800,-3.007471
0.220900,-2.853618
0.221000,-2.982803
0.221100,-3.175281
0.221200,-3.347311
0.221300,-3.385612
0.221400,-3.296027
0.221500,-3.258375
0.221600,-3.286614
0.221700,-3.348609
0.221800,-3.426185
0.221900,-3.418070
0.222000,-3.391455
0.222100,-3.373602
0.222200,-3.471627
0.222300,-3.593022
0.222400,-3.557642
0.222500,-3.459942
0.222600,-3.423913
0.222700,-3.489479
0.222800,-3.546606
0.222900,-3.532974
0.223000,-3.291158
0.223100,-3.160675
0.223200,-3.222021
0.223300,-3.435923
0.223400,-3.660211
0.223500,-3.637165
0.223600,-3.381717
0.223700,-3.117830
0.223800,-3.121725
0.223900,-3.321020
0.224000,-3.608926
0.224100,-3.689099
0.224200,-3.539790
0.224300,-3.354127
0.224400,-3.265516
0.224500,-3.294404
0.224600,-3.372629
0.224700,-3.408658
0.224800,-3.385287
0.224900,-3.326538
0.225000,-3.267139
0.225100,-3.214880
0.225200,-3.160675
0.225300,-3.045123
0.225400,-2.930869
0.225500,-2.869847
0.225600,-2.856539
0.225700,-2.848749
0.225800,-2.733847
0.225900,-2.518323
0.226000,-2.293387
0.226100,-2.170694
0.226200,-2.198284
0.226300,-2.164852
0.226400,-2.078188
0.226500,-1.976269
0.226600,-1.866236
0.226700,-1.712383
0.226800,-1.699076
0.226900,-1.677004
0.227000,-1.709462
0.227100,-1.691286
0.227200,-1.711410
0.227300,-1.628966
0.227400,-1.641300
0.227500,-1.562426
0.227600,-1.595209
0.227700,-1.574111
0.227800,-1.618254
0.227900,-1.690636
0.228000,-1.547820
0.228100,-1.526722
0.228200,-1.079772
0.228300,-0.878856
0.228400,-0.841529
0.228500,-1.292049
0.228600,-1.508870
0.228700,-1.276469
0.228800,-1.048937
0.228900,-0.669176
0.229000,-0.709100
0.229100,-0.809071
0.229200,-0.988889
0.229300,-0.959352
0.229400,-0.676641
0.229500,-0.408212
0.229600,-0.317329
0.229700,-0.286494
0.229800,-0.381597
0.229900,-0.330313
0.230000,-0.334208
0.230100,-0.218981
0.230200,-0.181654
0.230300,-0.147573
0.230400,-0.165425
0.230500,-0.214762
0.230600,-0.262150
0.230700,-0.389711
0.230800,-0.371535
0.230900,-0.357902
0.231000,-0.328041
0.231100,-0.267668
0.231200,-0.242026
0.231300,-0.358876
0.231400,-0.656193
0.231500,-0.738637
0.231600,-0.626007
0.231700,-0.412756
0.231800,-0.242026
0.231900,-0.437749
0.232000,-0.720785
0.232100,-0.993433
0.232200,-0.919104
0.232300,-0.729873
0.232400,-0.565959
0.232500,-0.651324
0.232600,-0.850942
0.232700,-1.000899
0.232800,-1.019725
0.232900,-1.014531
0.233000,-0.921701
0.233100,-0.996679
0.233200,-1.047963
0.233300,-1.143066
0.233400,-1.134627
0.233500,-1.144689
0.233600,-1.183314
0.233700,-1.207333
0.233800,-1.186884
0.233900,-1.156049
0.234000,-1.136574
0.234100,-1.176498
0.234200,-1.346903
0.234300,-1.422531
0.234400,-1.432269
0.234500,-1.424479
0.234600,-1.306006
0.234700,-1.372546
0.234800,-1.386827
0.234900,-1.370273
0.235000,-1.382932
0.235100,-1.376440
0.235200,-1.370923
0.235300,-1.387152
0.235400,-1.402732
0.235500,-1.387152
0.235600,-1.400784
0.235700,-1.386827
0.235800,-1.400135
0.235900,-1.427725
0.236000,-1.413767
0.236100,-1.470894
0.236200,-1.482579
0.236300,-1.557557
0.236400,-1.575410
0.236500,-1.866236
0.236600,-2.233988
0.236700,-2.378752
0.236800,-2.211916
0.236900,-1.975945
0.237000,-1.970102
0.237100,-2.283974
0.237200,-2.720863
0.237300,-2.917886
0.237400,-2.827651
0.237500,-2.663737
0.237600,-2.581292
0.237700,-2.749427
0.237800,-2.966249
0.237900,-3.127892
0.238000,-3.118479
0.238100,-3.093810
0.238200,-3.093161
0.238300,-3.150937
0.238400,-3.201897
0.238500,-3.280447
0.238600,-3.284666
0.238700,-3.321020
0.238800,-3.409631
0.238900,-3.487207
0.239000,-3.585881
0.239100,-3.606979
0.239200,-3.548554
0.239300,-3.593671
0.239400,-3.673843
0.239500,-3.730646
0.239600,-3.685529
0.239700,-3.508305
0.239800,-3.425211
0.239900,-3.559914
0.240000,-3.842952
0.240100,-4.067241
0.240200,-3.987069
0.240300,-3.721882
0.240400,-3.523236
0.240500,-3.551475
0.240600,-3.819258
0.240700,-4.047766
0.240800,-4.062697
0.240900,-3.897807
0.241000,-3.730321
0.241100,-3.658263
0.241200,-3.666378
0.241300,-3.685853
0.241400,-3.644306
0.241500,-3.574196
0.241600,-3.484610
0.241700,-3.371979
0.241800,-3.251234
0.241900,-3.110040
0.242000,-2.891595
0.242100,-2.731899
0.242200,-2.642314
0.242300,-2.563440
0.242400,-2.486189
0.242500,-2.255086
0.242600,-1.989902
0.242700,-1.675056
0.242800,-1.545223
0.242900,-1.541653
0.243000,-1.435514
0.243100,-1.297892
0.243200,-1.136899
0.243300,-0.964870
0.243400,-0.800956
0.243500,-0.753892
0.243600,-0.675343
0.243700,-0.644832
0.243800,-0.550054
0.243900,-0.500393
0.244000,-0.411133
0.244100,-0.327067
0.244200,-0.273186
0.244300,-0.181005
0.244400,-0.211840
0.244500,-0.139134
0.244600,-0.205349
0.244700,-0.079086
0.244800,0.009200
0.244900,0.487309
0.245000,0.672320
0.245100,0.582086
0.245200,0.237056
0.245300,0.122803
0.245400,0.334106
0.245500,0.627203
0.245600,0.852787
0.245700,0.811566
0.245800,0.563910
0.245900,0.405514
0.246000,0.438297
0.246100,0.618764
0.246200,0.785274
0.246300,0.795336
0.246400,0.707050
0.246500,0.625905
0.246600,0.563910
0.246700,0.628177
0.246800,0.599289
0.246900,0.599289
0.247000,0.525934
0.247100,0.484387
0.247200,0.478220
0.247300,0.424015
0.247400,0.234135
0.247500,0.130269
0.247600,-0.051497
0.247700,-0.056366
0.247800,-0.031373
0.247900,-0.043707
0.248000,-0.249167
0.248100,-0.618541
0.248200,-0.752594
0.248300,-0.720135
0.248400,-0.491305
0.248500,-0.519219
0.248600,-0.810694
0.248700,-1.214149
0.248800,-1.437137
0.248900,-1.420584
0.249000,-1.271925
0.249100,-1.228431
0.249200,-1.424479
0.249300,-1.728288
0.249400,-1.887009
0.249500,-1.955171
0.249600,-1.976269
0.249700,-1.968479
0.249800,-2.088900
0.249900,-2.238532
0.250000,-2.368690
0.250100,-2.345969
0.250200,-2.369339
0.250300,-2.445616
0.250400,-2.502743
0.250500,-2.504042
0.250600,-2.504366
0.250700,-2.480347
0.250800,-2.564414
0.250900,-2.743909
0.251000,-2.797790
0.251100,-2.791947
0.251200,-2.718267
0.251300,-2.647183
0.251400,-2.681589
0.251500,-2.648806
0.251600,-2.616023
0.251700,-2.566362
0.251800,-2.536175
0.251900,-2.508910
0.252000,-2.472232
0.252100,-2.448862
0.252200,-2.414456
0.252300,-2.367067
0.252400,-2.375506
0.252500,-2.373884
0.252600,-2.387841
0.252700,-2.383946
0.252800,-2.420624
0.252900,-2.485540
0.253000,-2.509235
0.253100,-2.636147
0.253200,-2.906850
0.253300,-3.281096
0.253400,-3.311931
0.253500,-3.035385
0.253600,-2.857838
0.253700,-2.878287
0.253800,-3.253831
0.253900,-3.630674
0.254000,-3.776737
0.254100,-3.626779
0.254200,-3.396323
0.254300,-3.348609
0.254400,-3.524210
0.254500,-3.804327
0.254600,-3.932538
0.254700,-3.949741
0.254800,-3.838733
0.254900,-3.832241
0.255000,-3.891965
0.255100,-3.933512
0.255200,-3.961426
0.255300,-3.964348
0.255400,-3.955908
0.255500,-3.955908
0.255600,-4.077953
0.255700,-4.078277
0.255800,-4.058477
0.255900,-4.003622
0.256000,-3.989990
0.256100,-4.036730
0.256200,-4.026993
0.256300,-3.907545
0.256400,-3.633595
0.256500,-3.556993
0.256600,-3.677739
0.256700,-3.891965
0.256800,-4.052959
0.256900,-3.858208
0.257000,-3.576793
0.257100,-3.381392
0.257200,-3.416772
0.257300,-3.667352
0.257400,-3.885149
0.257500,-3.885149
0.257600,-3.679686
0.257700,-3.471952
0.257800,-3.412877
0.257900,-3.436572
0.258000,-3.466434
0.258100,-3.483961
0.258200,-3.423588
0.258300,-3.352180
0.258400,-3.218451
0.258500,-3.144446
0.258600,-3.033762
0.258700,-2.880559
0.258800,-2.784806
0.258900,-2.765007
0.259000,-2.753646
0.259100,-2.728004
0.259200,-2.517999
0.259300,-2.393683
0.259400,-2.094093
0.259500,-2.058064
0.259600,-2.032422
0.259700,-1.976594
0.259800,-1.883763
0.259900,-1.782493
0.260000,-1.635133
0.260100,-1.566646
0.260200,-1.524775
0.260300,-1.559505
0.260400,-1.585796
0.260500,-1.583849
0.260600,-1.601052
0.260700,-1.578331
0.260800,-1.523152
0.260900,-1.474789
0.261000,-1.500756
0.261100,-1.479982
0.261200,-1.539056
0.261300,-1.555935
0.261400,-1.557557
0.261500,-1.278417
0.261600,-1.050560
0.261700,-0.811668
0.261800,-1.191429
0.261900,-1.481930
0.262000,-1.599429
0.262100,-1.310875
0.262200,-1.030111
0.262300,-0.799658
0.262400,-0.964546
0.262500,-1.087887
0.262600,-1.241739
0.262700,-1.173901
0.262800,-0.941176
0.262900,-0.819782
0.263000,-0.746102
0.263100,-0.806150
0.263200,-0.810369
0.263300,-0.825949
0.263400,-0.805176
0.263500,-0.798360
0.263600,-0.799658
0.263700,-0.792193
0.263800,-0.796412
0.263900,-0.823352
0.264000,-0.961300
0.264100,-1.043095
0.264200,-1.091457
0.264300,-1.152479
0.264400,-1.094703
0.264500,-1.061271
0.264600,-1.092431
0.264700,-1.352746
0.264800,-1.613710
0.264900,-1.567944
0.265000,-1.452068
0.265100,-1.100546
0.265200,-1.160918
0.265300,-1.307954
0.265400,-1.669214
0.265500,-1.702970
0.265600,-1.589042
0.265700,-1.297892
0.265800,-1.190779
0.265900,-1.276469
0.266000,-1.398837
0.266100,-1.407925
0.266200,-1.398837
0.266300,-1.313472
0.266400,-1.285233
0.266500,-1.303409
0.266600,-1.348202
0.266700,-1.356966
0.266800,-1.337166
0.266900,-1.372870
0.267000,-1.448498
0.267100,-1.454989
0.267200,-1.414092
0.267300,-1.398837
0.267400,-1.381309
0.267500,-1.507247
0.267600,-1.674732
0.267700,-1.702970
0.267800,-1.683496
0.267900,-1.564698
0.268000,-1.593586
0.268100,-1.622149
0.268200,-1.598130
0.268300,-1.639028
0.268400,-1.604622
0.268500,-1.629290
0.268600,-1.622799
0.268700,-1.644870
0.268800,-1.636106
0.268900,-1.682846
0.269000,-1.679276
0.269100,-1.677004
0.269200,-1.694207
0.269300,-1.706541
0.269400,-1.740947
0.269500,-1.766264
0.269600,-1.818197
0.269700,-1.904212
0.269800,-2.008078
0.269900,-2.365444
0.270000,-2.666333
0.270100,-2.636796
0.270200,-2.355058
0.270300,-2.161282
0.270400,-2.333960
0.270500,-2.681589
0.270600,-3.079204
0.270700,-3.109066
0.270800,-2.992216
0.270900,-2.802983
0.271000,-2.893217
0.271100,-3.072713
0.271200,-3.321020
0.271300,-3.380094
0.271400,-3.365163
0.271500,-3.356724
0.271600,-3.384638
0.271700,-3.463188
0.271800,-3.503436
0.271900,-3.514797
0.272000,-3.523561
0.272100,-3.536544
0.272200,-3.606005
0.272300,-3.666378
0.272400,-3.683906
0.272500,-3.598864
0.272600,-3.572248
0.272700,-3.650473
0.272800,-3.670273
0.272900,-3.702082
0.273000,-3.520964
0.273100,-3.302518
0.273200,-3.317125
0.273300,-3.469679
0.273400,-3.696564
0.273500,-3.794589
0.273600,-3.582635
0.273700,-3.313554
0.273800,-3.183071
0.273900,-3.340819
0.274000,-3.581661
0.274100,-3.707600
0.274200,-3.603084
0.274300,-3.405736
0.274400,-3.313554
0.274500,-3.299272
0.274600,-3.352829
0.274700,-3.377497
0.274800,-3.355750
0.274900,-3.331731
0.275000,-3.312905
0.275100,-3.258699
0.275200,-3.188265
0.275300,-3.081476
0.275400,-2.946774
0.275500,-2.882182
0.275600,-2.872120
0.275700,-2.834792
0.275800,-2.800062
0.275900,-2.570906
0.276000,-2.485216
0.276100,-2.188871
0.276200,-2.207048
0.276300,-2.169396
0.276400,-2.113243
0.276500,-2.013272
0.276600,-1.888632
0.276700,-1.746140
0.276800,-1.704593
0.276900,-1.627018
0.277000,-1.680899
0.277100,-1.651686
0.277200,-1.647467
0.277300,-1.694531
0.277400,-1.623448
0.277500,-1.645195
0.277600,-1.563075
0.277700,-1.601701
0.277800,-1.566970
0.277900,-1.597806
0.278000,-1.692908
0.278100,-1.503352
0.278200,-1.334245
0.278300,-0.915209
0.278400,-0.849968
0.278500,-1.130083
0.278600,-1.460183
0.278700,-1.490044
0.278800,-1.092106
0.278900,-0.910016
0.279000,-0.641587
0.279100,-0.824002
0.279200,-0.990188
0.279300,-1.047314
0.279400,-0.867820
0.279500,-0.664307
0.279600,-0.494226
0.279700,-0.518245
0.279800,-0.513052
0.279900,-0.515324
0.280000,-0.468909
0.280100,-0.408861
0.280200,-0.354007
0.280300,-0.314084
0.280400,-0.308890
0.280500,-0.276432
0.280600,-0.243974
0.280700,-0.356604
0.280800,-0.295258
0.280900,-0.349138
0.281000,-0.387764
0.281100,-0.255010
0.281200,-0.219306
0.281300,-0.130695
0.281400,-0.383544
0.281500,-0.575372
0.281600,-0.507859
0.281700,-0.296881
0.281800,0.078985
0.281900,-0.015468
0.282000,-0.218981
0.282100,-0.454952
0.282200,-0.406265
0.282300,-0.192690
0.282400,0.057238
0.282500,0.112092
0.282600,-0.018714
0.282700,-0.129721
0.282800,-0.069349
0.282900,-0.027478
0.283000,0.046202
0.283100,0.011472
0.283200,-0.050848
0.283300,-0.109922
0.283400,-0.082657
0.283500,-0.059611
0.283600,-0.110246
0.283700,-0.179382
0.283800,-0.182953
0.283900,-0.152442
0.284000,-0.134914
0.284100,-0.107650
0.284200,-0.237158
0.284300,-0.375754
0.284400,-0.383544
0.284500,-0.371535
0.284600,-0.232289
0.284700,-0.305320
0.284800,-0.340699
0.284900,-0.374780
0.285000,-0.407563
0.285100,-0.428661
0.285200,-0.489682
0.285300,-0.540317
0.285400,-0.622761
0.285500,-0.707152
0.285600,-0.772069
0.285700,-0.867496
0.285800,-0.930789
0.285900,-1.021023
0.286000,-1.126512
0.286100,-1.235896
0.286200,-1.359238
0.286300,-1.452068
0.286400,-1.624746
0.286500,-1.832479
0.286600,-2.342074
0.286700,-2.629331
0.286800,-2.585187
0.286900,-2.369015
0.287000,-2.331039
0.287100,-2.540070
0.287200,-3.018182
0.287300,-3.391455
0.287400,-3.425211
0.287500,-3.330757
0.287600,-3.225592
0.287700,-3.339521
0.287800,-3.641385
0.287900,-3.869244
0.288000,-4.030563
0.288100,-4.015957
0.288200,-4.044845
0.288300,-4.134755
0.288400,-4.214279
0.288500,-4.341192
0.288600,-4.405785
0.288700,-4.488554
0.288800,-4.558016
0.288900,-4.708624
0.289000,-4.833266
0.289100,-4.844951
0.289200,-4.773542
0.289300,-4.764129
0.289400,-4.815089
0.289500,-4.872866
0.289600,-4.845925
0.289700,-4.644356
0.289800,-4.422988
0.289900,-4.501213
0.290000,-4.672271
0.290100,-4.917983
0.290200,-4.923826
0.290300,-4.656041
0.290400,-4.363264
0.290500,-4.291206
0.290600,-4.459342
0.290700,-4.716739
0.290800,-4.803404
0.290900,-4.649549
0.291000,-4.435971
0.291100,-4.297697
0.291200,-4.276924
0.291300,-4.270432
0.291400,-4.242193
0.291500,-4.157152
0.291600,-4.045494
0.291700,-3.897807
0.291800,-3.804327
0.291900,-3.649824
0.292000,-3.455398
0.292100,-3.262594
0.292200,-3.046746
0.292300,-2.904253
0.292400,-2.816940
0.292500,-2.656596
0.292600,-2.345645
0.292700,-2.219057
0.292800,-1.979190
0.292900,-1.862341
0.293000,-1.758474
0.293100,-1.618579
0.293200,-1.467648
0.293300,-1.312822
0.293400,-1.166111
0.293500,-1.091457
0.293600,-1.014207
0.293700,-1.027190
0.293800,-0.959028
0.293900,-0.989214
0.294000,-0.951238
0.294100,-0.935982
0.294200,-0.893462
0.294300,-0.847047
0.294400,-0.877233
0.294500,-0.838608
0.294600,-0.873014
0.294700,-0.900928
0.294800,-0.694818
0.294900,-0.467286
0.295000,-0.111869
0.295100,-0.175487
0.295200,-0.511429
0.295300,-0.880154
0.295400,-0.617243
0.295500,-0.432880
0.295600,-0.040786
0.295700,-0.045005
0.295800,-0.268318
0.295900,-0.480594
0.296000,-0.521167
0.296100,-0.355955
0.296200,-0.156012
0.296300,-0.040137
0.296400,-0.134265
0.296500,-0.251439
0.296600,-0.267993
0.296700,-0.303048
0.296800,-0.291687
0.296900,-0.311811
0.297000,-0.362771
0.297100,-0.398150
0.297200,-0.451057
0.297300,-0.501043
0.297400,-0.653921
0.297500,-0.740584
0.297600,-0.861978
0.297700,-0.911963
0.297800,-0.860030
0.297900,-0.914235
0.298000,-0.924622
0.298100,-1.374168
0.298200,-1.522503
0.298300,-1.498159
0.298400,-1.265433
0.298500,-1.147610
0.298600,-1.273872
0.298700,-1.679601
0.298800,-1.924336
0.298900,-1.898045
0.299000,-1.721796
0.299100,-1.529968
0.299200,-1.604622
0.299300,-1.821443
0.299400,-2.010026
0.299500,-1.993472
0.299600,-1.994446
0.299700,-1.927257
0.299800,-1.996393
0.299900,-2.053520
0.300000,-2.159009
0.300100,-2.129472
0.300200,-2.112594
0.300300,-2.129472
0.300400,-2.158360
0.300500,-2.146675
0.300600,-2.094417
0.300700,-2.057415
0.300800,-2.042484
0.300900,-2.184976
0.301000,-2.275535
0.301100,-2.251516
0.301200,-2.233664
0.301300,-2.084031
0.301400,-2.160632
0.301500,-2.180757
0.301600,-2.174265
0.301700,-2.180432
0.301800,-2.159659
0.301900,-2.183353
0.302000,-2.206723
0.302100,-2.239506
0.302200,-2.293711
0.302300,-2.325521
0.302400,-2.373234
0.302500,-2.430036
0.302600,-2.459898
0.302700,-2.517349
0.302800,-2.528061
0.302900,-2.600767
0.303000,-2.677694
0.303100,-2.695870
0.303200,-2.993189
0.303300,-3.345363
0.303400,-3.491427
0.303500,-3.337898
0.303600,-3.066870
0.303700,-2.992540
0.303800,-3.231759
0.303900,-3.682607
0.304000,-3.877034
0.304100,-3.831267
0.304200,-3.570625
0.304300,-3.499217
0.304400,-3.620287
0.304500,-3.901702
0.304600,-4.090287
0.304700,-4.082497
0.304800,-3.961751
0.304900,-3.862103
0.305000,-3.896834
0.305100,-3.937407
0.305200,-3.969541
0.305300,-3.939030
0.305400,-3.893263
0.305500,-3.857559
0.305600,-3.892290
0.305700,-3.964023
0.305800,-3.904624
0.305900,-3.841330
0.306000,-3.803678
0.306100,-3.818933
0.306200,-3.845225
0.306300,-3.756288
0.306400,-3.529403
0.306500,-3.421641
0.306600,-3.506358
0.306700,-3.744279
0.306800,-3.982524
0.306900,-3.912414
0.307000,-3.640411
0.307100,-3.354127
0.307200,-3.366462
0.307300,-3.605031
0.307400,-3.899106
0.307500,-3.981875
0.307600,-3.794914
0.307700,-3.567380
0.307800,-3.457670
0.307900,-3.483312
0.308000,-3.564134
0.308100,-3.584258
0.308200,-3.550501
0.308300,-3.458644
0.308400,-3.340495
0.308500,-3.258699
0.308600,-3.137954
0.308700,-3.003576
0.308800,-2.900683
0.308900,-2.861733
0.309000,-2.839337
0.309100,-2.857513
0.309200,-2.699765
0.309300,-2.517025
0.309400,-2.486514
0.309500,-2.279754
0.309600,-2.248270
0.309700,-2.196661
0.309800,-2.080136
0.309900,-1.949329
0.310000,-1.806837
0.310100,-1.659801
0.310200,-1.579629
0.310300,-1.539056
0.310400,-1.540355
0.310500,-1.527371
0.310600,-1.524450
0.310700,-1.521853
0.310800,-1.401109
0.310900,-1.416040
0.311000,-1.353071
0.311100,-1.377090
0.311200,-1.397863
0.311300,-1.421557
0.311400,-1.370273
0.311500,-1.247906
0.311600,-0.891515
0.311700,-0.667229
0.311800,-0.764603
0.311900,-1.195648
0.312000,-1.400460
0.312100,-1.150207
0.312200,-0.868145
0.312300,-0.487410
0.312400,-0.563362
0.312500,-0.674694
0.312600,-0.937930
0.312700,-0.828221
0.312800,-0.701959
0.312900,-0.434179
0.313000,-0.354332
0.313100,-0.424117
0.313200,-0.455277
0.313300,-0.501043
0.313400,-0.485787
0.313500,-0.419248
0.313600,-0.384518
0.313700,-0.387764
0.313800,-0.393606
0.313900,-0.355630
0.314000,-0.487735
0.314100,-0.565634
0.314200,-0.659439
0.314300,-0.609453
0.314400,-0.682159
0.314500,-0.634446
0.314600,-0.588031
0.314700,-0.696766
0.314800,-1.051209
0.314900,-1.090484
0.315000,-1.047639
0.315100,-0.783753
0.315200,-0.693520
0.315300,-0.848345
0.315400,-1.183314
0.315500,-1.393968
0.315600,-1.334245
0.315700,-1.130732
0.315800,-1.001873
0.315900,-1.077176
0.316000,-1.297242
0.316100,-1.418961
0.316200,-1.426426
0.316300,-1.414417
0.316400,-1.340412
0.316500,-1.408250
0.316600,-1.445577
0.316700,-1.496536
0.316800,-1.459534
0.316900,-1.472517
0.317000,-1.507247
0.317100,-1.528345
0.317200,-1.487123
0.317300,-1.421233
0.317400,-1.406627
0.317500,-1.431619
0.317600,-1.606894
0.317700,-1.656880
0.317800,-1.615982
0.317900,-1.552364
0.318000,-1.478359
0.318100,-1.528670
0.318200,-1.531591
0.318300,-1.502378
0.318400,-1.501729
0.318500,-1.482904
0.318600,-1.509195
0.318700,-1.494588
0.318800,-1.492641
0.318900,-1.527696
0.319000,-1.523801
0.319100,-1.565997
0.319200,-1.568593
0.319300,-1.612737
0.319400,-1.629939
0.319500,-1.676355
0.319600,-1.705243
0.319700,-1.752632
0.319800,-1.834102
0.319900,-2.083382
0.320000,-2.488786
0.320100,-2.518648
0.320200,-2.322275
0.320300,-2.044432
0.320400,-2.061310
0.320500,-2.428738
0.320600,-2.841284
0.320700,-3.000006
0.320800,-2.854917
0.320900,-2.644262
0.321000,-2.576424
0.321100,-2.748128
0.321200,-3.015261
0.321300,-3.145095
0.321400,-3.150288
0.321500,-3.070116
0.321600,-3.054536
0.321700,-3.058431
0.321800,-3.094135
0.321900,-3.106794
0.322000,-3.134384
0.322100,-3.121400
0.322200,-3.196704
0.322300,-3.287912
0.322400,-3.320370
0.322500,-3.313879
0.322600,-3.313230
0.322700,-3.330433
0.322800,-3.430405
0.322900,-3.465784
0.323000,-3.403140
0.323100,-3.222671
0.323200,-3.167167
0.323300,-3.321020
0.323400,-3.609251
0.323500,-3.845549
0.323600,-3.746551
0.323700,-3.500515
0.323800,-3.298623
0.323900,-3.384963
0.324000,-3.655991
0.324100,-3.910142
0.324200,-3.925722
0.324300,-3.769272
0.324400,-3.595294
0.324500,-3.550177
0.324600,-3.558616
0.324700,-3.603733
0.324800,-3.598540
0.324900,-3.540439
0.325000,-3.500190
0.325100,-3.414825
0.325200,-3.325564
0.325300,-3.198651
0.325400,-3.024025
0.325500,-2.944502
0.325600,-2.900683
0.325700,-2.874067
0.325800,-2.833494
0.325900,-2.586486
0.326000,-2.414456
0.326100,-2.167124
0.326200,-2.099286
0.326300,-2.099611
0.326400,-2.014245
0.326500,-1.917520
0.326600,-1.773405
0.326700,-1.639352
0.326800,-1.527371
0.326900,-1.488746
0.327000,-1.493290
0.327100,-1.489395
0.327200,-1.489720
0.327300,-1.519906
0.327400,-1.484526
0.327500,-1.456937
0.327600,-1.442006
0.327700,-1.432593
0.327800,-1.442006
0.327900,-1.515362
0.328000,-1.477710
0.328100,-1.504975
0.328200,-1.286856
0.328300,-1.008364
0.328400,-0.799009
0.328500,-1.065166
0.328600,-1.531266
0.328700,-1.553338
0.328800,-1.391371
0.328900,-1.011610
0.329000,-0.865224
0.329100,-0.979801
0.329200,-1.264460
0.329300,-1.496211
0.329400,-1.374818
0.329500,-1.235572
0.329600,-1.004469
0.329700,-1.033682
0.329800,-1.138846
0.329900,-1.277443
0.330000,-1.276469
0.330100,-1.280689
0.330200,-1.274846
0.330300,-1.311849
0.330400,-1.334894
0.330500,-1.357939
0.330600,-1.331973
0.330700,-1.486474
0.330800,-1.466999
0.330900,-1.573787
0.331000,-1.508221
0.331100,-1.464078
0.331200,-1.397538
0.331300,-1.345281
0.331400,-1.513739
0.331500,-1.810407
0.331600,-1.749710
0.331700,-1.586121
0.331800,-1.244660
0.331900,-1.217720
0.332000,-1.404355
0.332100,-1.766589
0.332200,-1.867534
0.332300,-1.733157
0.332400,-1.445577
0.332500,-1.336517
0.332600,-1.494913
0.332700,-1.685118
0.332800,-1.750684
0.332900,-1.723744
0.333000,-1.674407
0.333100,-1.662722
0.333200,-1.719200
0.333300,-1.783792
0.333400,-1.814952
0.333500,-1.791257
0.333600,-1.774054
0.333700,-1.808784
0.333800,-1.796775
0.333900,-1.726990
0.334000,-1.682197
0.334100,-1.647142
0.334200,-1.692259
0.334300,-1.877921
0.334400,-1.934398
0.334500,-1.944135
0.334600,-1.740298
0.334700,-1.802293
0.334800,-1.858446
0.334900,-1.834426
0.335000,-1.849033
0.335100,-1.839295
0.335200,-1.828909
0.335300,-1.822092
0.335400,-1.787362
0.335500,-1.774054
0.335600,-1.744517
0.335700,-1.759772
0.335800,-1.751658
0.335900,-1.746140
0.336000,-1.751658
0.336100,-1.767562
0.336200,-1.808784
0.336300,-1.824689
0.336400,-1.866236
0.336500,-2.008078
0.336600,-2.287544
0.336700,-2.660815
0.336800,-2.594600
0.336900,-2.354409
0.337000,-2.063907
0.337100,-2.191143
0.337200,-2.534877
0.337300,-2.905876
0.337400,-3.014612
0.337500,-2.826353
0.337600,-2.593951
0.337700,-2.579020
0.337800,-2.767603
0.337900,-3.020779
0.338000,-3.146393
0.338100,-3.135033
0.338200,-3.006822
0.338300,-3.005199
0.338400,-3.040254
0.338500,-3.090240
0.338600,-3.152885
0.338700,-3.143796
0.338800,-3.122374
0.338900,-3.156780
0.339000,-3.218775
0.339100,-3.209363
0.339200,-3.220398
0.339300,-3.205468
0.339400,-3.255454
0.339500,-3.340495
0.339600,-3.350557
0.339700,-3.251234
0.339800,-2.975337
0.339900,-2.997734
0.340000,-3.160999
0.340100,-3.438844
0.340200,-3.622884
0.340300,-3.464162
0.340400,-3.184370
0.340500,-3.018182
0.340600,-3.144770
0.340700,-3.442414
0.340800,-3.691696
0.340900,-3.704355
0.341000,-3.530052
0.341100,-3.389182
0.341200,-3.389507
0.341300,-3.469679
0.341400,-3.549203
0.341500,-3.549203
0.341600,-3.521288
0.341700,-3.441765
0.341800,-3.388858
0.341900,-3.297974
0.342000,-3.131787
0.342100,-2.973714
0.342200,-2.883480
0.342300,-2.857838
0.342400,-2.837389
0.342500,-2.778315
0.342600,-2.548509
0.342700,-2.448538
0.342800,-2.203477
0.342900,-2.151219
0.343000,-2.147649
0.343100,-2.073644
0.343200,-2.006780
0.343300,-1.938618
0.343400,-1.783467
0.343500,-1.704269
0.343600,-1.704593
0.343700,-1.707190
0.343800,-1.762045
0.343900,-1.705892
0.344000,-1.818847
0.344100,-1.688364
0.344200,-1.711734
0.344300,-1.611438
0.344400,-1.665319
0.344500,-1.669214
0.344600,-1.721796
0.344700,-1.752956
0.344800,-1.673433
0.344900,-1.448822
0.345000,-1.053157
0.345100,-0.897033
0.345200,-1.278092
0.345300,-1.567620
0.345400,-1.666942
0.345500,-1.298216
0.345600,-1.108011
0.345700,-0.892164
0.345800,-1.049262
0.345900,-1.258617
0.346000,-1.343982
0.346100,-1.308278
0.346200,-1.041472
0.346300,-0.838932
0.346400,-0.785376
0.346500,-0.788947
0.346600,-0.825300
0.346700,-0.766875
0.346800,-0.766226
0.346900,-0.695467
0.347000,-0.668527
0.347100,-0.649701
0.347200,-0.658465
0.347300,-0.688326
0.347400,-0.776937
0.347500,-0.898331
0.347600,-0.935982
0.347700,-1.045691
0.347800,-0.954159
0.347900,-0.954484
0.348000,-0.922675
0.348100,-1.212526
0.348200,-1.491018
0.348300,-1.455314
0.348400,-1.311849
0.348500,-1.046016
0.348600,-1.112555
0.348700,-1.359562
0.348800,-1.636106
0.348900,-1.664021
0.349000,-1.540030
0.349100,-1.292698
0.349200,-1.244985
0.349300,-1.375791
0.349400,-1.530942
0.349500,-1.549768
0.349600,-1.561452
0.349700,-1.512765
0.349800,-1.530617
0.349900,-1.548794
0.350000,-1.597806
0.350100,-1.593586
0.350200,-1.564049
0.350300,-1.596183
0.350400,-1.627018
0.350500,-1.623772
0.350600,-1.562426
0.350700,-1.530293
0.350800,-1.469596
0.350900,-1.580278
0.351000,-1.710760
0.351100,-1.733157
0.351200,-1.733806
0.351300,-1.591963
0.351400,-1.632211
0.351500,-1.664021
0.351600,-1.651362
0.351700,-1.681223
0.351800,-1.681223
0.351900,-1.707515
0.352000,-1.713682
0.352100,-1.733481
0.352200,-1.747438
0.352300,-1.752307
0.352400,-1.799696
0.352500,-1.782169
0.352600,-1.847734
0.352700,-1.840594
0.352800,-1.872727
0.352900,-1.925959
0.353000,-1.988279
0.353100,-2.081110
0.353200,-2.216461
0.353300,-2.609531
0.353400,-2.825704
0.353500,-2.750076
0.353600,-2.508586
0.353700,-2.356356
0.353800,-2.551755
0.353900,-2.960406
0.354000,-3.316151
0.354100,-3.341468
0.354200,-3.180799
0.354300,-3.041552
0.354400,-3.103223
0.354500,-3.337573
0.354600,-3.563485
0.354700,-3.649500
0.354800,-3.607628
0.354900,-3.588478
0.355000,-3.575170
0.355100,-3.598215
0.355200,-3.645929
0.355300,-3.637490
0.355400,-3.635867
0.355500,-3.611848
0.355600,-3.700135
0.355700,-3.719610
0.355800,-3.688125
0.355900,-3.624507
0.356000,-3.604707
0.356100,-3.665729
0.356200,-3.650149
0.356300,-3.632297
0.356400,-3.396648
0.356500,-3.200599
0.356600,-3.280771
0.356700,-3.463837
0.356800,-3.723505
0.356900,-3.797511
0.357000,-3.570625
0.357100,-3.299922
0.357200,-3.267139
0.357300,-3.463188
0.357400,-3.777386
0.357500,-3.935459
0.357600,-3.865024
0.357700,-3.699810
0.357800,-3.597891
0.357900,-3.624831
0.358000,-3.723505
0.358100,-3.761157
0.358200,-3.759859
0.358300,-3.721558
0.358400,-3.669624
0.358500,-3.603084
0.358600,-3.476496
0.358700,-3.286614
0.358800,-3.145744
0.358900,-3.085371
0.359000,-3.067844
0.359100,-3.071090
0.359200,-2.988970
0.359300,-2.768902
0.359400,-2.690353
0.359500,-2.457301
0.359600,-2.430036
0.359700,-2.420299
0.359800,-2.347592
0.359900,-2.240155
0.360000,-2.128174
0.360100,-1.985033
0.360200,-1.957768
0.360300,-1.926283
0.360400,-1.996718
0.360500,-1.903563
0.360600,-1.968155
0.360700,-1.941214
0.360800,-1.889606
0.360900,-1.835725
0.361000,-1.851629
0.361100,-1.837023
0.361200,-1.925634
0.361300,-2.004508
0.361400,-2.016517
0.361500,-1.936670
0.361600,-1.692259
0.361700,-1.366703
0.361800,-1.388450
0.361900,-1.760422
0.362000,-2.194714
0.362100,-2.043458
0.362200,-1.830532
0.362300,-1.439734
0.362400,-1.357290
0.362500,-1.452068
0.362600,-1.751333
0.362700,-1.793529
0.362800,-1.635782
0.362900,-1.393319
0.363000,-1.246283
0.363100,-1.157023
0.363200,-1.209281
0.363300,-1.173901
0.363400,-1.107037
0.363500,-1.072956
0.363600,-1.031410
0.363700,-0.964546
0.363800,-0.942149
0.363900,-0.881777
0.364000,-0.859056
0.364100,-0.949615
0.364200,-0.973634
0.364300,-1.018426
0.364400,-1.045367
0.364500,-0.955782
0.364600,-0.933710
0.364700,-0.900278
0.364800,-1.248230
0.364900,-1.402732
0.365000,-1.364431
0.365100,-1.133653
0.365200,-0.929491
0.365300,-1.027515
0.365400,-1.320937
0.365500,-1.610140
0.365600,-1.607543
0.365700,-1.445252
0.365800,-1.211553
0.365900,-1.238168
0.366000,-1.432918
0.366100,-1.610464
0.366200,-1.656880
0.366300,-1.663371
0.366400,-1.595858
0.366500,-1.665643
0.366600,-1.739324
0.366700,-1.848708
0.366800,-1.876298
0.366900,-1.850331
0.367000,-1.896746
0.367100,-1.918818
0.367200,-1.929854
0.367300,-1.903887
0.367400,-1.897396
0.367500,-1.876947
0.367600,-2.045730
0.367700,-2.158685
0.367800,-2.174914
0.367900,-2.113892
0.368000,-1.974646
0.368100,-2.052222
0.368200,-2.051572
0.368300,-2.018790
0.368400,-1.992498
0.368500,-1.955171
0.368600,-1.915248
0.368700,-1.887009
0.368800,-1.834751
0.368900,-1.808460
0.369000,-1.770484
0.369100,-1.751658
0.369200,-1.772756
0.369300,-1.767238
0.369400,-1.783467
0.369500,-1.779572
0.369600,-1.823391
0.369700,-1.898045
0.369800,-1.943162
0.369900,-2.204776
0.370000,-2.548834
0.370100,-2.776692
0.370200,-2.567335
0.370300,-2.346294
0.370400,-2.188547
0.370500,-2.454705
0.370600,-2.871146
0.370700,-3.159377
0.370800,-3.129839
0.370900,-2.972091
0.371000,-2.855566
0.371100,-2.947098
0.371200,-3.232083
0.371300,-3.416772
0.371400,-3.468057
0.371500,-3.473250
0.371600,-3.463837
0.371700,-3.533298
0.371800,-3.600812
0.371900,-3.643657
0.372000,-3.694617
0.372100,-3.696240
0.372200,-3.755964
0.372300,-3.815038
0.372400,-3.915335
0.372500,-3.854638
0.372600,-3.823153
0.372700,-3.823153
0.372800,-3.893263
0.372900,-3.915660
0.373000,-3.844900
0.373100,-3.647228
0.373200,-3.496295
0.373300,-3.606330
0.373400,-3.806924
0.373500,-4.056530
0.373600,-4.025370
0.373700,-3.803353
0.373800,-3.576143
0.373900,-3.571924
0.374000,-3.776737
0.374100,-4.024396
0.374200,-4.131834
0.374300,-4.008167
0.374400,-3.827372
0.374500,-3.749147
0.374600,-3.730646
0.374700,-3.757262
0.374800,-3.751095
0.374900,-3.721882
0.375000,-3.673843
0.375100,-3.573871
0.375200,-3.507007
0.375300,-3.338547
0.375400,-3.151587
0.375500,-3.039930
0.375600,-3.016235
0.375700,-3.004225
0.375800,-2.974363
0.375900,-2.804931
0.376000,-2.574476
0.376100,-2.517025
0.376200,-2.251191
0.376300,-2.252489
0.376400,-2.159983
0.376500,-2.052871
0.376600,-1.901615
0.376700,-1.780221
0.376800,-1.635782
0.376900,-1.550417
0.377000,-1.548794
0.377100,-1.504651
0.377200,-1.548469
0.377300,-1.499133
0.377400,-1.561128
0.377500,-1.429672
0.377600,-1.426426
0.377700,-1.407600
0.377800,-1.405004
0.377900,-1.512765
0.378000,-1.445577
0.378100,-1.556908
0.378200,-1.327104
0.378300,-1.035629
0.378400,-0.813615
0.378500,-0.870092
0.378600,-1.394293
0.378700,-1.526073
0.378800,-1.459209
0.378900,-1.087562
0.379000,-0.851267
0.379100,-0.985319
0.379200,-1.134627
0.379300,-1.382608
0.379400,-1.358588
0.379500,-1.195648
0.379600,-1.037901
0.379700,-1.010636
0.379800,-1.135276
0.379900,-1.196946
0.380000,-1.197271
0.380100,-1.178770
0.380200,-1.174875
0.380300,-1.229729
0.380400,-1.243362
0.380500,-1.301137
0.380600,-1.278417
0.380700,-1.465701
0.380800,-1.505300
0.380900,-1.589691
0.381000,-1.695181
0.381100,-1.627018
0.381200,-1.600402
0.381300,-1.583849
0.381400,-1.735429
0.381500,-2.056117
0.381600,-2.141482
0.381700,-2.031773
0.381800,-1.763992
0.381900,-1.622149
0.382000,-1.784116
0.382100,-2.081110
0.382200,-2.233014
0.382300,-2.083382
0.382400,-1.860718
0.382500,-1.670512
0.382600,-1.752956
0.382700,-1.907458
0.382800,-1.992498
0.382900,-1.894150
0.383000,-1.859419
0.383100,-1.790608
0.383200,-1.879544
0.383300,-1.929854
0.383400,-1.960689
0.383500,-1.932126
0.383600,-1.929529
0.383700,-1.983410
0.383800,-2.019439
0.383900,-1.999315
0.384000,-1.927582
0.384100,-1.886035
0.384200,-1.916871
0.384300,-2.082408
0.384400,-2.150570
0.384500,-2.141157
0.384600,-1.928231
0.384700,-1.907133
0.384800,-1.969453
0.384900,-1.975295
0.385000,-1.916546
0.385100,-1.895448
0.385200,-1.907782
0.385300,-1.922064
0.385400,-1.901615
0.385500,-1.909730
0.385600,-1.897396
0.385700,-1.927257
0.385800,-1.952250
0.385900,-1.955496
0.386000,-2.007754
0.386100,-2.053845
0.386200,-2.078837
0.386300,-2.159009
0.386400,-2.225874
0.386500,-2.285921
0.386600,-2.567984
0.386700,-2.964951
0.386800,-3.050965
0.386900,-2.824406
0.387000,-2.620892
0.387100,-2.598820
0.387200,-2.985399
0.387300,-3.423588
0.387400,-3.641060
0.387500,-3.564458
0.387600,-3.323292
0.387700,-3.299922
0.387800,-3.443064
0.387900,-3.748174
0.388000,-3.873139
0.388100,-3.911765
0.388200,-3.811468
0.388300,-3.803353
0.388400,-3.847821
0.388500,-3.889693
0.388600,-3.934810
0.388700,-3.933512
0.388800,-3.887421
0.388900,-3.936433
0.389000,-4.036081
0.389100,-4.073084
0.389200,-4.101323
0.389300,-4.028291
0.389400,-4.056854
0.389500,-4.146765
0.389600,-4.165266
0.389700,-4.162020
0.389800,-3.948443
0.389900,-3.870867
0.390000,-3.986744
0.390100,-4.229859
0.390200,-4.440840
0.390300,-4.349956
0.390400,-4.093533
0.390500,-3.877034
0.390600,-3.938705
0.390700,-4.214928
0.390800,-4.482387
0.390900,-4.505757
0.391000,-4.349956
0.391100,-4.143519
0.391200,-4.094506
0.391300,-4.130860
0.391400,-4.215577
0.391500,-4.212980
0.391600,-4.188636
0.391700,-4.091261
0.391800,-3.984472
0.391900,-3.866323
0.392000,-3.714741
0.392100,-3.536869
0.392200,-3.451503
0.392300,-3.422290
0.392400,-3.411254
0.392500,-3.365163
0.392600,-3.198002
0.392700,-3.058106
0.392800,-3.005524
0.392900,-2.746830
0.393000,-2.753971
0.393100,-2.709828
0.393200,-2.636472
0.393300,-2.510209
0.393400,-2.365769
0.393500,-2.291439
0.393600,-2.255086
0.393700,-2.277158
0.393800,-2.298905
0.393900,-2.307669
0.394000,-2.317406
0.394100,-2.310590
0.394200,-2.269692
0.394300,-2.282676
0.394400,-2.302475
0.394500,-2.308318
0.394600,-2.324871
0.394700,-2.346294
0.394800,-2.350514
0.394900,-2.197959
0.395000,-1.888307
0.395100,-1.676355
0.395200,-1.917844
0.395300,-2.268719
0.395400,-2.423220
0.395500,-2.117787
0.395600,-1.844164
0.395700,-1.652985
0.395800,-1.718226
0.395900,-1.965558
0.396000,-2.115840
0.396100,-2.101558
0.396200,-1.901940
0.396300,-1.643572
0.396400,-1.642923
0.396500,-1.698426
0.396600,-1.761720
0.396700,-1.834751
0.396800,-1.849357
0.396900,-1.810083
0.397000,-1.836699
0.397100,-1.796450
0.397200,-1.814952
0.397300,-1.800994
0.397400,-1.940565
0.397500,-1.944785
0.397600,-2.043458
0.397700,-2.045081
0.397800,-2.046379
0.397900,-1.986331
0.398000,-1.912002
0.398100,-2.123305
0.398200,-2.372585
0.398300,-2.359602
0.398400,-2.256384
0.398500,-1.917844
0.398600,-1.857147
0.398700,-2.008727
0.398800,-2.317081
0.398900,-2.446266
0.399000,-2.307019
0.399100,-2.043782
0.399200,-1.909081
0.399300,-2.013596
0.399400,-2.203477
0.399500,-2.295984
0.399600,-2.296633
0.399700,-2.267096
0.399800,-2.211916
0.399900,-2.312213
0.400000,-2.374208
0.400100,-2.440099
0.400200,-2.433282
0.400300,-2.472232
0.400400,-2.546562
0.400500,-2.561493
0.400600,-2.527736
0.400700,-2.507937
0.400800,-2.449836
0.400900,-2.529359
0.401000,-2.717942
0.401100,-2.754620
0.401200,-2.761112
0.401300,-2.609531
0.401400,-2.611479
0.401500,-2.654973
0.401600,-2.625760
0.401700,-2.622190
0.401800,-2.616347
0.401900,-2.597522
0.402000,-2.595250
0.402100,-2.562791
0.402200,-2.598820
0.402300,-2.607259
0.402400,-2.597846
0.402500,-2.590056
0.402600,-2.565063
0.402700,-2.615374
0.402800,-2.579020
0.402900,-2.672176
0.403000,-2.658868
0.403100,-2.731575
0.403200,-2.834143
0.403300,-3.087643
0.403400,-3.439493
0.403500,-3.403789
0.403600,-3.160350
0.403700,-2.876988
0.403800,-2.913342
0.403900,-3.262594
0.404000,-3.617041
0.404100,-3.698187
0.404200,-3.566406
0.404300,-3.372304
0.404400,-3.331406
0.404500,-3.559914
0.404600,-3.810819
0.404700,-3.947144
0.404800,-3.977980
0.404900,-3.945846
0.405000,-3.927020
0.405100,-3.989990
0.405200,-4.051012
0.405300,-4.092559
0.405400,-4.095480
0.405500,-4.075356
0.405600,-4.104569
0.405700,-4.184092
0.405800,-4.112683
0.405900,-4.124368
0.406000,-4.096129
0.406100,-4.102297
0.406200,-4.162670
0.406300,-4.166889
0.406400,-4.074058
0.406500,-3.858533
0.406600,-3.862428
0.406700,-4.041599
0.406800,-4.320418
0.406900,-4.505433
0.407000,-4.405460
0.407100,-4.160722
0.407200,-4.026019
0.407300,-4.151634
0.407400,-4.431752
0.407500,-4.664480
0.407600,-4.681034
0.407700,-4.550550
0.407800,-4.427857
0.407900,-4.419093
0.408000,-4.438243
0.408100,-4.464210
0.408200,-4.476545
0.408300,-4.431752
0.408400,-4.375598
0.408500,-4.284714
0.408600,-4.143194
0.408700,-3.960777
0.408800,-3.765701
0.408900,-3.693643
0.409000,-3.664755
0.409100,-3.585881
0.409200,-3.522911
0.409300,-3.272981
0.409400,-3.113935
0.409500,-3.035061
0.409600,-2.786754
0.409700,-2.772472
0.409800,-2.679966
0.409900,-2.563116
0.410000,-2.423220
0.410100,-2.249893
0.410200,-2.159983
0.410300,-2.104804
0.410400,-2.128174
0.410500,-2.059362
0.410600,-2.084680
0.410700,-2.092794
0.410800,-2.039887
0.410900,-1.955171
0.411000,-2.023658
0.411100,-1.993472
0.411200,-2.045405
0.411300,-2.058064
0.411400,-2.101234
0.411500,-2.054169
0.411600,-1.802617
0.411700,-1.396240
0.411800,-1.291400
0.411900,-1.526398
0.412000,-1.973997
0.412100,-1.939267
0.412200,-1.785090
0.412300,-1.356641
0.412400,-1.264784
0.412500,-1.352097
0.412600,-1.554961
0.412700,-1.700698
0.412800,-1.584822
0.412900,-1.373519
0.413000,-1.225510
0.413100,-1.170331
0.413200,-1.261214
0.413300,-1.210579
0.413400,-1.258942
0.413500,-1.225185
0.413600,-1.191104
0.413700,-1.177796
0.413800,-1.164813
0.413900,-1.166760
0.414000,-1.171304
0.414100,-1.221939
0.414200,-1.333920
0.414300,-1.337491
0.414400,-1.388450
0.414500,-1.280689
0.414600,-1.268679
0.414700,-1.266732
0.414800,-1.507572
0.414900,-1.803916
0.415000,-1.754255
0.415100,-1.587744
0.415200,-1.358264
0.415300,-1.376116
0.415400,-1.655257
0.415500,-1.983085
0.415600,-2.036966
0.415700,-1.913625
0.415800,-1.701023
0.415900,-1.663047
0.416000,-1.802293
0.416100,-1.981138
0.416200,-2.042484
0.416300,-2.073320
0.416400,-2.065530
0.416500,-2.090198
0.416600,-2.164852
0.416700,-2.241778
0.416800,-2.299554
0.416900,-2.299229
0.417000,-2.354084
0.417100,-2.426141
0.417200,-2.465091
0.417300,-2.450810
0.417400,-2.431984
0.417500,-2.407640
0.417600,-2.546237
0.417700,-2.742611
0.417800,-2.804931
0.417900,-2.815966
0.418000,-2.637445
0.418100,-2.711126
0.418200,-2.774744
0.418300,-2.777016
0.418400,-2.799088
0.418500,-2.830897
0.418600,-2.853943
0.418700,-2.882506
0.418800,-2.876015
0.418900,-2.919184
0.419000,-2.936063
0.419100,-2.959757
0.419200,-2.976960
0.419300,-2.995786
0.419400,-3.011691
0.419500,-3.022077
0.419600,-3.062650
0.419700,-3.076932
0.419800,-3.184370
0.419900,-3.278499
0.420000,-3.639437
0.420100,-3.866323
0.420200,-3.821530
0.420300,-3.478768
0.420400,-3.307712
0.420500,-3.417097
0.420600,-3.867296
0.420700,-4.219148
0.420800,-4.265888
0.420900,-4.071785
0.421000,-3.884499
0.421100,-3.869569
0.421200,-4.105867
0.421300,-4.321392
0.421400,-4.451551
0.421500,-4.438568
0.421600,-4.344762
0.421700,-4.349307
0.421800,-4.385985
0.421900,-4.449929
0.422000,-4.495046
0.422100,-4.492125
0.422200,-4.507380
0.422300,-4.557367
0.422400,-4.611573
0.422500,-4.591448
0.422600,-4.540488
0.422700,-4.496020
0.422800,-4.589825
0.422900,-4.648576
0.423000,-4.632022
0.423100,-4.463886
0.423200,-4.207462
0.423300,-4.239596
0.423400,-4.428181
0.423500,-4.683307
0.423600,-4.763804
0.423700,-4.528479
0.423800,-4.246088
0.423900,-4.113008
0.424000,-4.253878
0.424100,-4.511925
0.424200,-4.662208
0.424300,-4.581062
0.424400,-4.399293
0.424500,-4.269134
0.424600,-4.245764
0.424700,-4.284065
0.424800,-4.326261
0.424900,-4.309058
0.425000,-4.276599
0.425100,-4.178574
0.425200,-4.128588
0.425300,-4.055232
0.425400,-3.894237
0.425500,-3.729348
0.425600,-3.649824
0.425700,-3.619313
0.425800,-3.576468
0.425900,-3.489479
0.426000,-3.239549
0.426100,-3.066221
0.426200,-2.803308
0.426300,-2.801685
0.426400,-2.773771
0.426500,-2.697818
0.426600,-2.591030
0.426700,-2.457951
0.426800,-2.350189
0.426900,-2.283325
0.427000,-2.272614
0.427100,-2.289167
0.427200,-2.287220
0.427300,-2.316108
0.427400,-2.343697
0.427500,-2.325845
0.427600,-2.279754
0.427700,-2.292413
0.427800,-2.367392
0.427900,-2.381998
0.428000,-2.426791
0.428100,-2.552080
0.428200,-2.407640
0.428300,-2.271315
0.428400,-1.812679
0.428500,-1.961663
0.428600,-2.132394
0.428700,-2.593951
0.428800,-2.401149
0.428900,-2.201854
0.429000,-1.837023
0.429100,-1.814952
0.429200,-1.958093
0.429300,-2.160632
0.429400,-2.259306
0.429500,-2.063907
0.429600,-1.809434
0.429700,-1.710760
0.429800,-1.707839
0.429900,-1.810732
0.430000,-1.815276
0.430100,-1.843515
0.430200,-1.809109
0.430300,-1.796450
0.430400,-1.785415
0.430500,-1.768536
0.430600,-1.757176
0.430700,-1.763992
0.430800,-1.860393
0.430900,-1.882140
0.431000,-1.960040
0.431100,-1.998990
0.431200,-1.855200
0.431300,-1.829558
0.431400,-1.834751
0.431500,-2.101234
0.431600,-2.275859
0.431700,-2.242103
0.431800,-2.028852
0.431900,-1.741920
0.432000,-1.849033
0.432100,-2.054818
0.432200,-2.354409
0.432300,-2.355707
0.432400,-2.180757
0.432500,-1.969128
0.432600,-1.946083
0.432700,-2.108050
0.432800,-2.272614
0.432900,-2.245024
0.433000,-2.244699
0.433100,-2.206399
0.433200,-2.283974
0.433300,-2.341101
0.433400,-2.407316
0.433500,-2.401798
0.433600,-2.399850
0.433700,-2.433282
0.433800,-2.509884
0.433900,-2.513130
0.434000,-2.484567
0.434100,-2.440748
0.434200,-2.415106
0.434300,-2.570257
0.434400,-2.709178
0.434500,-2.726706
0.434600,-2.717618
0.434700,-2.543965
0.434800,-2.606610
0.434900,-2.613102
0.435000,-2.590056
0.435100,-2.578371
0.435200,-2.577722
0.435300,-2.597846
0.435400,-2.602390
0.435500,-2.598495
0.435600,-2.582591
0.435700,-2.601417
0.435800,-2.604662
0.435900,-2.630954
0.436000,-2.627708
0.436100,-2.671527
0.436200,-2.655297
0.436300,-2.708205
0.436400,-2.755918
0.436500,-2.800711
0.436600,-2.979557
0.436700,-3.341793
0.436800,-3.576143
0.436900,-3.406710
0.437000,-3.092512
0.437100,-2.951318
0.437200,-3.138928
0.437300,-3.597241
0.437400,-3.801081
0.437500,-3.810169
0.437600,-3.561537
0.437700,-3.448906
0.437800,-3.487207
0.437900,-3.748823
0.438000,-3.900404
0.438100,-3.956233
0.438200,-3.884499
0.438300,-3.825100
0.438400,-3.865673
0.438500,-3.912414
0.438600,-3.946495
0.438700,-3.942276
0.438800,-3.938381
0.438900,-3.940328
0.439000,-3.989990
0.439100,-4.074058
0.439200,-4.034783
0.439300,-4.050687
0.439400,-4.058153
0.439500,-4.135404
0.439600,-4.205515
0.439700,-4.198049
0.439800,-4.009790
0.439900,-3.834513
0.440000,-3.958180
0.440100,-4.211682
0.440200,-4.500239
0.440300,-4.562885
0.440400,-4.343464
0.440500,-4.124044
0.440600,-4.144168
0.440700,-4.391828
0.440800,-4.713493
0.440900,-4.871567
0.441000,-4.789447
0.441100,-4.640136
0.441200,-4.583658
0.441300,-4.654094
0.441400,-4.767050
0.441500,-4.793991
0.441600,-4.755365
0.441700,-4.732644
0.441800,-4.691097
0.441900,-4.685579
0.442000,-4.623583
0.442100,-4.512898
0.442200,-4.289907
0.442300,-4.195453
0.442400,-4.209410
0.442500,-4.200971
0.442600,-4.121772
0.442700,-3.946171
0.442800,-3.887421
0.442900,-3.710197
0.443000,-3.628077
0.443100,-3.580688
0.443200,-3.482663
0.443300,-3.363865
0.443400,-3.245716
0.443500,-3.110689
0.443600,-3.084073
0.443700,-3.066870
0.443800,-3.037333
0.443900,-3.084722
0.444000,-3.023051
0.444100,-3.105496
0.444200,-2.963652
0.444300,-3.000655
0.444400,-2.906201
0.444500,-2.940282
0.444600,-2.972091
0.444700,-2.958459
0.444800,-3.005199
0.444900,-2.862057
0.445000,-2.588758
0.445100,-2.214189
0.445200,-2.273587
0.445300,-2.703660
0.445400,-2.947423
0.445500,-2.924702
0.445600,-2.502094
0.445700,-2.338829
0.445800,-2.256709
0.445900,-2.405044
0.446000,-2.637770
0.446100,-2.664710
0.446200,-2.538772
0.446300,-2.293387
0.446400,-2.269368
0.446500,-2.238208
0.446600,-2.355382
0.446700,-2.320327
0.446800,-2.342724
0.446900,-2.288194
0.447000,-2.281377
0.447100,-2.274886
0.447200,-2.308318
0.447300,-2.293387
0.447400,-2.348566
0.447500,-2.505015
0.447600,-2.468013
0.447700,-2.586161
0.447800,-2.609531
0.447900,-2.524166
0.448000,-2.513454
0.448100,-2.573827
0.448200,-2.949695
0.448300,-3.055510
0.448400,-2.993189
0.448500,-2.705933
0.448600,-2.534877
0.448700,-2.623164
0.448800,-2.923079
0.448900,-3.154508
0.449000,-3.092512
0.449100,-2.865952
0.449200,-2.650753
0.449300,-2.692625
0.449400,-2.898735
0.449500,-3.039280
0.449600,-3.020454
0.449700,-3.000979
0.449800,-2.930869
0.449900,-3.007796
0.450000,-3.071414
0.450100,-3.121076
0.450200,-3.119777
0.450300,-3.085047
0.450400,-3.113286
0.450500,-3.108417
0.450600,-3.082450
0.450700,-3.010068
0.450800,-2.962354
0.450900,-2.953590
0.451000,-3.098355
0.451100,-3.199625
0.451200,-3.168465
0.451300,-3.112312
0.451400,-2.988970
0.451500,-3.047395
0.451600,-3.028569
0.451700,-3.000006
0.451800,-2.960082
0.451900,-2.985724
0.452000,-2.958134
0.452100,-2.950669
0.452200,-2.953915
0.452300,-2.948397
0.452400,-2.948072
0.452500,-2.963003
0.452600,-2.947748
0.452700,-2.975986
0.452800,-2.957161
0.452900,-3.010068
0.453000,-2.998383
0.453100,-3.052588
0.453200,-3.108741
0.453300,-3.283368
0.453400,-3.707276
0.453500,-3.770895
0.453600,-3.565757
0.453700,-3.271034
0.453800,-3.161324
0.453900,-3.398595
0.454000,-3.785825
0.454100,-3.965646
0.454200,-3.855936
0.454300,-3.646903
0.454400,-3.502463
0.454500,-3.642359
0.454600,-3.878008
0.454700,-4.049389
0.454800,-4.076330
0.454900,-4.029265
0.455000,-3.995508
0.455100,-4.015632
0.455200,-4.083471
0.455300,-4.146765
0.455400,-4.206813
0.455500,-4.226938
0.455600,-4.287311
0.455700,-4.367808
0.455800,-4.439866
0.455900,-4.485633
0.456000,-4.454148
0.456100,-4.506082
0.456200,-4.562560
0.456300,-4.614494
0.456400,-4.582035
0.456500,-4.399942
0.456600,-4.266537
0.456700,-4.392477
0.456800,-4.661884
0.456900,-4.911492
0.457000,-4.862479
0.457100,-4.599238
0.457200,-4.335999
0.457300,-4.325612
0.457400,-4.571324
0.457500,-4.860531
0.457600,-4.949144
0.457700,-4.785552
0.457800,-4.563859
0.457900,-4.468430
0.458000,-4.433699
0.458100,-4.491476
0.458200,-4.472974
0.458300,-4.374949
0.458400,-4.292829
0.458500,-4.174679
0.458600,-4.083471
0.458700,-3.920528
0.458800,-3.707276
0.458900,-3.532000
0.459000,-3.426185
0.459100,-3.338547
0.459200,-3.242795
0.459300,-3.010392
0.459400,-2.780911
0.459500,-2.509559
0.459600,-2.308318
0.459700,-2.280728
0.459800,-2.152842
0.459900,-2.006780
0.460000,-1.800021
0.460100,-1.633185
0.460200,-1.466999
0.460300,-1.360211
0.460400,-1.335868
0.460500,-1.317042
0.460600,-1.303085
0.460700,-1.283935
0.460800,-1.221615
0.460900,-1.166111
0.461000,-1.096975
0.461100,-1.144689
0.461200,-1.107686
0.461300,-1.209281
0.461400,-1.142741
0.461500,-1.230054
0.461600,-1.016803
0.461700,-0.754541
0.461800,-0.412432
0.461900,-0.667878
0.462000,-1.031734
0.462100,-1.188507
0.462200,-1.085939
0.462300,-0.655219
0.462400,-0.444241
0.462500,-0.546809
0.462600,-0.719162
0.462700,-0.984670
0.462800,-0.975906
0.462900,-0.881777
0.463000,-0.659114
0.463100,-0.702608
0.463200,-0.749023
0.463300,-0.795763
0.463400,-0.896383
0.463500,-0.957080
0.463600,-0.979801
0.463700,-0.960651
0.463800,-1.052183
0.463900,-1.089834
0.464000,-1.170331
0.464100,-1.250827
0.464200,-1.420584
0.464300,-1.477061
0.464400,-1.640651
0.464500,-1.687391
0.464600,-1.665643
0.464700,-1.758150
0.464800,-1.850980
0.464900,-2.307344
0.465000,-2.406666
0.465100,-2.365769
0.465200,-2.128174
0.465300,-2.101234
0.465400,-2.324547
0.465500,-2.744233
0.465600,-2.984101
0.465700,-2.937361
0.465800,-2.739365
0.465900,-2.650429
0.466000,-2.798114
0.466100,-3.057782
0.466200,-3.211635
0.466300,-3.194756
0.466400,-3.294728
0.466500,-3.292781
0.466600,-3.401192
0.466700,-3.463512
0.466800,-3.495322
0.466900,-3.501489
0.467000,-3.511226
0.467100,-3.556993
0.467200,-3.555045
0.467300,-3.495646
0.467400,-3.459942
0.467500,-3.411579
0.467600,-3.461889
0.467700,-3.618664
0.467800,-3.650798
0.467900,-3.633920
0.468000,-3.519990
0.468100,-3.458319
0.468200,-3.501164
0.468300,-3.476171
0.468400,-3.474873
0.468500,-3.448906
0.468600,-3.460916
0.468700,-3.453126
0.468800,-3.427159
0.468900,-3.439818
0.469000,-3.433326
0.469100,-3.450529
0.469200,-3.450854
0.469300,-3.473899
0.469400,-3.477470
0.469500,-3.489155
0.469600,-3.548554
0.469700,-3.589451
0.469800,-3.653719
0.469900,-3.734541
0.470000,-4.004596
0.470100,-4.344438
0.470200,-4.356772
0.470300,-4.067890
0.470400,-3.850418
0.470500,-3.889044
0.470600,-4.187663
0.470700,-4.575868
0.470800,-4.698238
0.470900,-4.546331
0.471000,-4.306786
0.471100,-4.302891
0.471200,-4.478492
0.471300,-4.749522
0.471400,-4.919606
0.471500,-4.941029
0.471600,-4.871243
0.471700,-4.862803
0.471800,-4.927072
0.471900,-5.008219
0.472000,-5.011465
0.472100,-5.055933
0.472200,-5.057881
0.472300,-5.104946
0.472400,-5.162073
0.472500,-5.155906
0.472600,-5.097805
0.472700,-5.108516
0.472800,-5.105920
0.472900,-5.161749
0.473000,-5.168241
0.473100,-5.048792
0.473200,-4.785552
0.473300,-4.691746
0.473400,-4.891367
0.473500,-5.153959
0.473600,-5.356177
0.473700,-5.222771
0.473800,-4.897210
0.473900,-4.747250
0.474000,-4.819309
0.474100,-5.084821
0.474200,-5.305541
0.474300,-5.327938
0.474400,-5.142923
0.474500,-4.927072
0.474600,-4.873190
0.474700,-4.890393
0.474800,-4.909869
0.474900,-4.898508
0.475000,-4.830994
0.475100,-4.805351
0.475200,-4.697264
0.475300,-4.603783
0.475400,-4.405460
0.475500,-4.224341
0.475600,-4.158775
0.475700,-4.146116
0.475800,-4.127290
0.475900,-4.083471
0.476000,-3.851392
0.476100,-3.713443
0.476200,-3.609576
0.476300,-3.370681
0.476400,-3.373602
0.476500,-3.317125
0.476600,-3.203845
0.476700,-3.052588
0.476800,-2.898411
0.476900,-2.805904
0.477000,-2.773771
0.477100,-2.726057
0.477200,-2.700415
0.477300,-2.672500
0.477400,-2.663412
0.477500,-2.667307
0.477600,-2.585512
0.477700,-2.610180
0.477800,-2.539746
0.477900,-2.546887
0.478000,-2.565712
0.478100,-2.529359
0.478200,-2.553703
0.478300,-2.245024
0.478400,-1.926933
0.478500,-1.728288
0.478600,-1.887009
0.478700,-2.373884
0.478800,-2.341425
0.478900,-2.172967
0.479000,-1.722121
0.479100,-1.643896
0.479200,-1.615333
0.479300,-1.876622
0.479400,-2.053195
0.479500,-1.925959
0.479600,-1.772431
0.479700,-1.504326
0.479800,-1.502054
0.479900,-1.523476
0.480000,-1.563400
0.480100,-1.609166
0.480200,-1.510818
0.480300,-1.482254
0.480400,-1.440059
0.480500,-1.439734
0.480600,-1.418636
0.480700,-1.447199
0.480800,-1.543276
0.480900,-1.663371
0.481000,-1.684469
0.481100,-1.729586
0.481200,-1.679276
0.481300,-1.579305
0.481400,-1.572164
0.481500,-1.783467
0.481600,-2.075916
0.481700,-2.092794
0.481800,-1.926933
0.481900,-1.605920
0.482000,-1.611763
0.482100,-1.825014
0.482200,-2.183029
0.482300,-2.254437
0.482400,-2.122332
0.482500,-1.884412
0.482600,-1.821443
0.482700,-1.948680
0.482800,-2.168098
0.482900,-2.246322
0.483000,-2.240804
0.483100,-2.247296
0.483200,-2.268719
0.483300,-2.390762
0.483400,-2.449511
0.483500,-2.542018
0.483600,-2.533903
0.483700,-2.577722
0.483800,-2.674448
0.483900,-2.713398
0.484000,-2.723460
0.484100,-2.707231
0.484200,-2.688405
0.484300,-2.795842
0.484400,-3.005524
0.484500,-3.060378
0.484600,-3.049667
0.484700,-2.859785
0.484800,-2.938659
0.484900,-2.975337
0.485000,-2.975013
0.485100,-2.987347
0.485200,-2.990268
0.485300,-2.992216
0.485400,-2.993189
0.485500,-2.986049
0.485600,-2.986373
0.485700,-2.977285
0.485800,-2.977609
0.485900,-2.951967
0.486000,-2.936712
0.486100,-2.952616
0.486200,-2.929571
0.486300,-2.960406
0.486400,-2.985399
0.486500,-3.036684
0.486600,-3.119128
0.486700,-3.454099
0.486800,-3.751744
0.486900,-3.720908
0.487000,-3.430729
0.487100,-3.198327
0.487200,-3.304466
0.487300,-3.680011
0.487400,-4.009465
0.487500,-4.159424
0.487600,-3.954935
0.487700,-3.777386
0.487800,-3.738111
0.487900,-3.975708
0.488000,-4.195453
0.488100,-4.353202
0.488200,-4.292829
0.488300,-4.217525
0.488400,-4.212980
0.488500,-4.297697
0.488600,-4.362939
0.488700,-4.408381
0.488800,-4.419093
0.488900,-4.409031
0.489000,-4.442788
0.489100,-4.534646
0.489200,-4.508679
0.489300,-4.546980
0.489400,-4.555744
0.489500,-4.589825
0.489600,-4.635917
0.489700,-4.620986
0.489800,-4.482063
0.489900,-4.234079
0.490000,-4.280819
0.490100,-4.442138
0.490200,-4.706352
0.490300,-4.868321
0.490400,-4.715765
0.490500,-4.446358
0.490600,-4.347684
0.490700,-4.515495
0.490800,-4.799509
0.490900,-5.018930
0.491000,-5.026396
0.491100,-4.842030
0.491200,-4.722906
0.491300,-4.699860
0.491400,-4.803728
0.491500,-4.868971
0.491600,-4.883252
0.491700,-4.853390
0.491800,-4.803728
0.491900,-4.736863
0.492000,-4.627478
0.492100,-4.450578
0.492200,-4.332104
0.492300,-4.280494
0.492400,-4.271081
0.492500,-4.260045
0.492600,-4.193181
0.492700,-3.980252
0.492800,-3.886772
0.492900,-3.746226
0.493000,-3.625805
0.493100,-3.598864
0.493200,-3.533298
0.493300,-3.426834
0.493400,-3.299597
0.493500,-3.110364
0.493600,-3.023376
0.493700,-2.976311
0.493800,-3.013963
0.493900,-2.974039
0.494000,-3.019805
0.494100,-2.970144
0.494200,-2.961705
0.494300,-2.880234
0.494400,-2.880559
0.494500,-2.930869
0.494600,-2.908148
0.494700,-2.992865
0.494800,-2.935413
0.494900,-2.863356
0.495000,-2.588109
0.495100,-2.116489
0.495200,-2.201205
0.495300,-2.328117
0.495400,-2.894516
0.495500,-2.699441
0.495600,-2.559545
0.495700,-2.095391
0.495800,-1.934073
0.495900,-2.096040
0.496000,-2.329091
0.496100,-2.439774
0.496200,-2.366418
0.496300,-2.075267
0.496400,-1.977243
0.496500,-1.936346
0.496600,-2.035992
0.496700,-2.007429
0.496800,-2.057090
0.496900,-1.995744
0.497000,-1.970427
0.497100,-1.952899
0.497200,-1.963286
0.497300,-1.947057
0.497400,-1.955496
0.497500,-2.119735
0.497600,-2.133692
0.497700,-2.172317
0.497800,-2.196337
0.497900,-2.078837
0.498000,-2.054818
0.498100,-2.023009
0.498200,-2.354409
0.498300,-2.523192
0.498400,-2.533254
0.498500,-2.283325
0.498600,-2.086303
0.498700,-2.063257
0.498800,-2.362199
0.498900,-2.712100
0.499000,-2.713723
0.499100,-2.564739
0.499200,-2.324222
0.499300,-2.309941
0.499400,-2.461196
0.499500,-2.636472
0.499600,-2.646534
0.499700,-2.630954
0.499800,-2.546562
0.499900,-2.582266
0.500000,-2.641016
0.500100,-2.717293
0.500200,-2.738391
0.500300,-2.687107
0.500400,-2.730601
0.500500,-2.759489
0.500600,-2.783184
0.500700,-2.753322
0.500800,-2.717293
0.500900,-2.666982
0.501000,-2.805255
0.501100,-2.953590
0.501200,-2.976311
0.501300,-2.952616
0.501400,-2.795842
0.501500,-2.859136
0.501600,-2.886726
0.501700,-2.849723
0.501800,-2.853294
0.501900,-2.851346
0.502000,-2.838687
0.502100,-2.821809
0.502200,-2.814019
0.502300,-2.813694
0.502400,-2.809150
0.502500,-2.807203
0.502600,-2.844530
0.502700,-2.837064
0.502800,-2.869847
0.502900,-2.864979
0.503000,-2.909771
0.503100,-2.969170
0.503200,-2.972741
0.503300,-3.186966
0.503400,-3.531351
0.503500,-3.812766
0.503600,-3.642034
0.503700,-3.379120
0.503800,-3.216828
0.503900,-3.395025
0.504000,-3.804002
0.504100,-4.104893
0.504200,-4.119500
0.504300,-3.910466
0.504400,-3.766999
0.504500,-3.805950
0.504600,-4.007517
0.504700,-4.254852
0.504800,-4.302891
0.504900,-4.332753
0.505000,-4.250957
0.505100,-4.283740
0.505200,-4.323015
0.505300,-4.349631
0.505400,-4.391828
0.505500,-4.368457
0.505600,-4.382090
0.505700,-4.452850
0.505800,-4.547629
0.505900,-4.552173
0.506000,-4.556393
0.506100,-4.547629
0.506200,-4.569052
0.506300,-4.639812
0.506400,-4.626179
0.506500,-4.492449
0.506600,-4.278222
0.506700,-4.327559
0.506800,-4.499266
0.506900,-4.739136
0.507000,-4.811519
0.507100,-4.574245
0.507200,-4.276924
0.507300,-4.228236
0.507400,-4.395073
0.507500,-4.623258
0.507600,-4.733618
0.507700,-4.645005
0.507800,-4.462912
0.507900,-4.350605
0.508000,-4.345412
0.508100,-4.411627
0.508200,-4.423312
0.508300,-4.375274
0.508400,-4.322041
0.508500,-4.254527
0.508600,-4.216226
0.508700,-4.138975
0.508800,-3.974734
0.508900,-3.821205
0.509000,-3.747524
0.509100,-3.735515
0.509200,-3.714092
0.509300,-3.614444
0.509400,-3.381717
0.509500,-3.151587
0.509600,-2.961380
0.509700,-2.966573
0.509800,-2.913342
0.509900,-2.843232
0.510000,-2.749751
0.510100,-2.634524
0.510200,-2.493330
0.510300,-2.414456
0.510400,-2.425817
0.510500,-2.440748
0.510600,-2.441072
0.510700,-2.443669
0.510800,-2.465416
0.510900,-2.420948
0.511000,-2.450810
0.511100,-2.413158
0.511200,-2.440423
0.511300,-2.433282
0.511400,-2.489760
0.511500,-2.500471
0.511600,-2.384595
0.511700,-2.107401
0.511800,-1.805863
0.511900,-1.781195
0.512000,-2.097663
0.512100,-2.497874
0.512200,-2.303449
0.512300,-2.018465
0.512400,-1.683171
0.512500,-1.556584
0.512600,-1.713033
0.512700,-1.923038
0.512800,-1.977568
0.512900,-1.752956
0.513000,-1.550417
0.513100,-1.460183
0.513200,-1.451744
0.513300,-1.478359
0.513400,-1.552040
0.513500,-1.560479
0.513600,-1.501405
0.513700,-1.465701
0.513800,-1.448822
0.513900,-1.458235
0.514000,-1.478035
0.514100,-1.531591
0.514200,-1.652985
0.514300,-1.660775
0.514400,-1.689013
0.514500,-1.671161
0.514600,-1.553013
0.514700,-1.585472
0.514800,-1.505624
0.514900,-1.862341
0.515000,-1.924985
0.515100,-1.890579
0.515200,-1.607868
0.515300,-1.396565
0.515400,-1.428374
0.515500,-1.710111
0.515600,-1.885386
0.515700,-1.822742
0.515800,-1.625071
0.515900,-1.386178
0.516000,-1.345281
0.516100,-1.522503
0.516200,-1.594235
0.516300,-1.524450
0.516400,-1.496211
0.516500,-1.399810
0.516600,-1.470245
0.516700,-1.477061
0.516800,-1.486149
0.516900,-1.437137
0.517000,-1.413118
0.517100,-1.449147
0.517200,-1.509844
0.517300,-1.513414
0.517400,-1.458560
0.517500,-1.429997
0.517600,-1.436164
0.517700,-1.612087
0.517800,-1.706865
0.517900,-1.702646
0.518000,-1.706865
0.518100,-1.629290
0.518200,-1.648116
0.518300,-1.652985
0.518400,-1.639677
0.518500,-1.644546
0.518600,-1.645195
0.518700,-1.646493
0.518800,-1.629939
0.518900,-1.673433
0.519000,-1.702970
0.519100,-1.751009
0.519200,-1.778923
0.519300,-1.828909
0.519400,-1.859419
0.519500,-1.939916
0.519600,-2.008727
0.519700,-2.112594
0.519800,-2.223277
0.519900,-2.346943
0.520000,-2.636147
0.520100,-3.036684
0.520200,-3.314853
0.520300,-3.148341
0.520400,-2.978259
0.520500,-2.963003
0.520600,-3.303817
0.520700,-3.767324
0.520800,-4.113982
0.520900,-4.147414
0.521000,-4.019527
0.521100,-3.999403
0.521200,-4.184417
0.521300,-4.524259
0.521400,-4.765103
0.521500,-4.908246
0.521600,-4.961803
0.521700,-4.942003
0.521800,-5.059828
0.521900,-5.158503
0.522000,-5.243870
0.522100,-5.313656
0.522200,-5.339623
0.522300,-5.394479
0.522400,-5.474328
0.522500,-5.559370
0.522600,-5.568134
0.522700,-5.561642
0.522800,-5.610980
0.522900,-5.697970
0.523000,-5.728806
0.523100,-5.730104
0.523200,-5.534377
0.523300,-5.412980
0.523400,-5.525613
0.523500,-5.775871
0.523600,-6.022235
0.523700,-5.999514
0.523800,-5.742438
0.523900,-5.493478
0.524000,-5.482118
0.524100,-5.678819
0.524200,-5.921287
0.524300,-6.001137
0.524400,-5.855396
0.524500,-5.660966
0.524600,-5.564563
0.524700,-5.579819
0.524800,-5.624937
0.524900,-5.593452
0.525000,-5.511006
0.525100,-5.424990
0.525200,-5.296128
0.525300,-5.165968
0.525400,-5.015035
0.525500,-4.796263
0.525600,-4.523934
0.525700,-4.397021
0.525800,-4.339569
0.525900,-4.278547
0.526000,-4.084120
0.526100,-3.847172
0.526200,-3.742331
0.526300,-3.455398
0.526400,-3.393727
0.526500,-3.265840
0.526600,-3.116531
0.526700,-2.927623
0.526800,-2.777341
0.526900,-2.633550
0.527000,-2.544290
0.527100,-2.478075
0.527200,-2.460547
0.527300,-2.412184
0.527400,-2.379077
0.527500,-2.344671
0.527600,-2.263850
0.527700,-2.243726
0.527800,-2.162580
0.527900,-2.182055
0.528000,-2.136938
0.528100,-2.169072
0.528200,-2.088250
0.528300,-1.932451
0.528400,-1.594884
0.528500,-1.357615
0.528600,-1.420259
0.528700,-1.798073
0.528800,-2.008727
0.528900,-1.825987
0.529000,-1.495887
0.529100,-1.258942
0.529200,-1.202140
0.529300,-1.453691
0.529400,-1.656555
0.529500,-1.641949
0.529600,-1.458560
0.529700,-1.293672
0.529800,-1.211553
0.529900,-1.293023
0.530000,-1.356316
0.530100,-1.381958
0.530200,-1.380660
0.530300,-1.369949
0.530400,-1.382932
0.530500,-1.434216
0.530600,-1.472841
0.530700,-1.500431
0.530800,-1.612412
0.530900,-1.720498
0.531000,-1.751982
0.531100,-1.893176
0.531200,-1.852279
0.531300,-1.818197
0.531400,-1.789959
0.531500,-1.930178
0.531600,-2.301501
0.531700,-2.419974
0.531800,-2.322924
0.531900,-2.131420
0.532000,-1.966532
0.532100,-2.208995
0.532200,-2.504042
0.532300,-2.750725
0.532400,-2.632901
0.532500,-2.430036
0.532600,-2.324871
0.532700,-2.441397
0.532800,-2.647183
0.532900,-2.731250
0.533000,-2.710801
0.533100,-2.727355
0.533200,-2.669579
0.533300,-2.793570
0.533400,-2.886726
0.533500,-2.964951
0.533600,-2.973390
0.533700,-2.973065
0.533800,-3.031815
0.533900,-3.103873
0.534000,-3.109391
0.534100,-3.085371
0.534200,-3.048693
0.534300,-3.115558
0.534400,-3.321020
0.534500,-3.414175
0.534600,-3.424887
0.534700,-3.393727
0.534800,-3.352180
0.534900,-3.433001
0.535000,-3.463188
0.535100,-3.482014
0.535200,-3.511551
0.535300,-3.520639
0.535400,-3.542711
0.535500,-3.577766
0.535600,-3.624507
0.535700,-3.625156
0.535800,-3.656640
0.535900,-3.675142
0.536000,-3.720908
0.536100,-3.763429
0.536200,-3.790694
0.536300,-3.820881
0.536400,-3.861778
0.536500,-3.927345
0.536600,-3.991613
0.536700,-4.263940
0.536800,-4.557691
0.536900,-4.744654
0.537000,-4.438893
0.537100,-4.233105
0.537200,-4.175978
0.537300,-4.561262
0.537400,-4.898183
0.537500,-5.051064
0.537600,-4.924150
0.537700,-4.651172
0.537800,-4.578790
0.537900,-4.719336
0.538000,-4.986471
0.538100,-5.177004
0.538200,-5.124097
0.538300,-5.057231
0.538400,-4.979006
0.538500,-5.025746
0.538600,-5.094234
0.538700,-5.107867
0.538800,-5.092612
0.538900,-5.050415
0.539000,-5.029317
0.539100,-5.106569
0.539200,-5.070540
0.539300,-5.103648
0.539400,-5.027694
0.539500,-5.047494
0.539600,-5.107867
0.539700,-5.142923
0.539800,-5.030291
0.539900,-4.762830
0.540000,-4.661559
0.540100,-4.826774
0.540200,-5.041327
0.540300,-5.231211
0.540400,-5.101700
0.540500,-4.793991
0.540600,-4.563534
0.540700,-4.589176
0.540800,-4.842679
0.540900,-5.073785
0.541000,-5.078005
0.541100,-4.877734
0.541200,-4.649549
0.541300,-4.565481
0.541400,-4.602809
0.541500,-4.652146
0.541600,-4.644031
0.541700,-4.541787
0.541800,-4.464210
0.541900,-4.367484
0.542000,-4.266213
0.542100,-4.145142
0.542200,-3.960777
0.542300,-3.852690
0.542400,-3.772517
0.542500,-3.673519
0.542600,-3.591723
0.542700,-3.389182
0.542800,-3.231110
0.542900,-3.173334
0.543000,-2.910745
0.543100,-2.939958
0.543200,-2.858812
0.543300,-2.737417
0.543400,-2.573178
0.543500,-2.412509
0.543600,-2.339153
0.543700,-2.246647
0.543800,-2.291439
0.543900,-2.218084
0.544000,-2.263850
0.544100,-2.231716
0.544200,-2.232041
0.544300,-2.132394
0.544400,-2.185301
0.544500,-2.087601
0.544600,-2.137912
0.544700,-2.180432
0.544800,-2.190169
0.544900,-2.235936
0.545000,-1.953224
0.545100,-1.718226
0.545200,-1.357615
0.545300,-1.637405
0.545400,-2.040537
0.545500,-2.118761
0.545600,-1.996393
0.545700,-1.503028
0.545800,-1.407600
0.545900,-1.321261
0.546000,-1.625720
0.546100,-1.734780
0.546200,-1.704918
0.546300,-1.402407
0.546400,-1.256345
0.546500,-1.117748
0.546600,-1.226159
0.546700,-1.267705
0.546800,-1.269977
0.546900,-1.204412
0.547000,-1.154426
0.547100,-1.129758
0.547200,-1.120670
0.547300,-1.149882
0.547400,-1.095352
0.547500,-1.250503
0.547600,-1.334894
0.547700,-1.311199
0.547800,-1.386178
0.547900,-1.374493
0.548000,-1.317367
0.548100,-1.335219
0.548200,-1.479333
0.548300,-1.738999
0.548400,-1.805539
0.548500,-1.716603
0.548600,-1.438760
0.548700,-1.381958
0.548800,-1.628641
0.548900,-1.993472
0.549000,-2.184652
0.549100,-2.089224
0.549200,-1.827935
0.549300,-1.733157
0.549400,-1.890904
0.549500,-2.132069
0.549600,-2.265148
0.549700,-2.327793
0.549800,-2.306695
0.549900,-2.291115
0.550000,-2.362199
0.550100,-2.514104
0.550200,-2.606285
0.550300,-2.603364
0.550400,-2.623164
0.550500,-2.678668
0.550600,-2.739040
0.550700,-2.731899
0.550800,-2.730926
0.550900,-2.716968
0.551000,-2.814993
0.551100,-3.011691
0.551200,-3.077257
0.551300,-3.103873
0.551400,-2.974039
0.551500,-3.008445
0.551600,-3.069791
0.551700,-3.074011
0.551800,-3.097706
0.551900,-3.105171
0.552000,-3.102899
0.552100,-3.117505
0.552200,-3.143147
0.552300,-3.186317
0.552400,-3.165219
0.552500,-3.181448
0.552600,-3.197353
0.552700,-3.227864
0.552800,-3.238900
0.552900,-3.297000
0.553000,-3.315502
0.553100,-3.429106
0.553200,-3.442739
0.553300,-3.521613
0.553400,-3.838408
0.553500,-4.128913
0.553600,-4.186040
0.553700,-3.920204
0.553800,-3.654693
0.553900,-3.741357
0.554000,-4.102621
0.554100,-4.484659
0.554200,-4.580737
0.554300,-4.459342
0.554400,-4.209085
0.554500,-4.159748
0.554600,-4.315225
0.554700,-4.581711
0.554800,-4.735240
0.554900,-4.683631
0.555000,-4.593396
0.555100,-4.553796
0.555200,-4.576517
0.555300,-4.602160
0.555400,-4.610924
0.555500,-4.600537
0.555600,-4.587229
0.555700,-4.561911
0.555800,-4.611897
0.555900,-4.609950
0.556000,-4.597291
0.556100,-4.532049
0.556200,-4.538541
0.556300,-4.543085
0.556400,-4.566131
0.556500,-4.402539
0.556600,-4.180846
0.556700,-4.090936
0.556800,-4.246737
0.556900,-4.490177
0.557000,-4.645330
0.557100,-4.460315
0.557200,-4.176951
0.557300,-4.010763
0.557400,-4.075680
0.557500,-4.341517
0.557600,-4.570675
0.557700,-4.559314
0.557800,-4.358395
0.557900,-4.190584
0.558000,-4.127290
0.558100,-4.169810
0.558200,-4.206164
0.558300,-4.194804
0.558400,-4.152932
0.558500,-4.085093
0.558600,-4.028940
0.558700,-3.895860
0.558800,-3.726751
0.558900,-3.596268
0.559000,-3.526806
0.559100,-3.513823
0.559200,-3.491427
0.559300,-3.450854
0.559400,-3.212608
0.559500,-3.067844
0.559600,-2.990268
0.559700,-2.788377
0.559800,-2.769226
0.559900,-2.697493
0.560000,-2.564414
0.560100,-2.462819
0.560200,-2.302151
0.560300,-2.201530
0.560400,-2.138236
0.560500,-2.154141
0.560600,-2.171019
0.560700,-2.123630
0.560800,-2.171019
0.560900,-2.108050
0.561000,-2.082083
0.561100,-2.071697
0.561200,-2.021386
0.561300,-2.166799
0.561400,-2.073644
0.561500,-2.249893
0.561600,-2.123954
0.561700,-1.950303
0.561800,-1.573462
0.561900,-1.503028
0.562000,-1.771457
0.562100,-2.218408
0.562200,-2.351163
0.562300,-2.056441
0.562400,-1.853577
0.562500,-1.582226
0.562600,-1.793854
0.562700,-2.048327
0.562800,-2.205425
0.562900,-2.135639
0.563000,-1.897071
0.563100,-1.783792
0.563200,-1.808135
0.563300,-1.921739
0.563400,-1.948680
0.563500,-2.065854
0.563600,-2.070398
0.563700,-2.058064
0.563800,-2.097988
0.563900,-2.115191
0.564000,-2.140833
0.564100,-2.155114
0.564200,-2.307019
0.564300,-2.505340
0.564400,-2.544290
0.564500,-2.610830
0.564600,-2.558247
0.564700,-2.555326
0.564800,-2.587459
0.564900,-2.796816
0.565000,-3.158727
0.565100,-3.100302
0.565200,-2.994488
0.565300,-2.693598
0.565400,-2.756568
0.565500,-2.999356
0.565600,-3.356724
0.565700,-3.412553
0.565800,-3.289860
0.565900,-3.031815
0.566000,-2.938984
0.566100,-3.105171
0.566200,-3.262270
0.566300,-3.311931
0.566400,-3.279473
0.566500,-3.245716
0.566600,-3.257076
0.566700,-3.298299
0.566800,-3.373927
0.566900,-3.378796
0.567000,-3.321669
0.567100,-3.326213
0.567200,-3.375225
0.567300,-3.384314
0.567400,-3.286938
0.567500,-3.187940
0.567600,-3.115558
0.567700,-3.210336
0.567800,-3.329459
0.567900,-3.310308
0.568000,-3.260322
0.568100,-3.066221
0.568200,-3.068168
0.568300,-3.058106
0.568400,-3.001629
0.568500,-2.940607
0.568600,-2.885752
0.568700,-2.858487
0.568800,-2.826678
0.568900,-2.789675
0.569000,-2.756892
0.569100,-2.720863
0.569200,-2.691651
0.569300,-2.690677
0.569400,-2.676395
0.569500,-2.588433
0.569600,-2.587784
0.569700,-2.526438
0.569800,-2.618295
0.569900,-2.560519
0.570000,-2.678018
0.570100,-2.985724
0.570200,-3.270709
0.570300,-3.162947
0.570400,-2.838038
0.570500,-2.686782
0.570600,-2.830897
0.570700,-3.216503
0.570800,-3.502138
0.570900,-3.544009
0.571000,-3.355750
0.571100,-3.193133
0.571200,-3.232733
0.571300,-3.452801
0.571400,-3.693643
0.571500,-3.807897
0.571600,-3.794589
0.571700,-3.762455
0.571800,-3.808871
0.571900,-3.856261
0.572000,-3.934486
0.572100,-3.995183
0.572200,-4.020825
0.572300,-4.057828
0.572400,-4.135080
0.572500,-4.237649
0.572600,-4.309058
0.572700,-4.282766
0.572800,-4.281144
0.572900,-4.382415
0.573000,-4.439217
0.573100,-4.531075
0.573200,-4.361316
0.573300,-4.224016
0.573400,-4.289907
0.573500,-4.506731
0.573600,-4.815414
0.573700,-4.942003
0.573800,-4.770621
0.573900,-4.528479
0.574000,-4.462263
0.574100,-4.644681
0.574200,-4.961478
0.574300,-5.172460
0.574400,-5.144221
0.574500,-4.963101
0.574600,-4.823528
0.574700,-4.820607
0.574800,-4.923826
0.574900,-4.989717
0.575000,-4.965698
0.575100,-4.944924
0.575200,-4.873190
0.575300,-4.808922
0.575400,-4.669025
0.575500,-4.480115
0.575600,-4.353526
0.575700,-4.277573
0.575800,-4.274003
0.575900,-4.263291
0.576000,-4.177925
0.576100,-3.928968
0.576200,-3.804651
0.576300,-3.632946
0.576400,-3.502463
0.576500,-3.440467
0.576600,-3.348609
0.576700,-3.216503
0.576800,-3.085696
0.576900,-2.912368
0.577000,-2.808826
0.577100,-2.740988
0.577200,-2.733198
0.577300,-2.728653
0.577400,-2.693274
0.577500,-2.718267
0.577600,-2.616347
0.577700,-2.611803
0.577800,-2.564089
0.577900,-2.496576
0.578000,-2.587784
0.578100,-2.526438
0.578200,-2.661789
0.578300,-2.448538
0.578400,-2.307344
0.578500,-1.783142
0.578600,-1.882789
0.578700,-2.106427
0.578800,-2.547211
0.578900,-2.527736
0.579000,-2.159659
0.579100,-1.933100
0.579200,-1.776975
0.579300,-1.945758
0.579400,-2.172642
0.579500,-2.249893
0.579600,-2.062608
0.579700,-1.821443
0.579800,-1.749710
0.579900,-1.732183
0.580000,-1.838321
0.580100,-1.822742
0.580200,-1.830532
0.580300,-1.783792
0.580400,-1.750684
0.580500,-1.754904
0.580600,-1.758799
0.580700,-1.757825
0.580800,-1.724068
0.580900,-1.886360
0.581000,-1.929205
0.581100,-1.974971
0.581200,-1.964909
0.581300,-1.845787
0.581400,-1.855849
0.581500,-1.817548
0.581600,-2.097014
0.581700,-2.253788
0.581800,-2.228795
0.581900,-2.009052
0.582000,-1.841892
0.582100,-1.937644
0.582200,-2.170370
0.582300,-2.448213
0.582400,-2.420299
0.582500,-2.268069
0.582600,-2.088575
0.582700,-2.104804
0.582800,-2.277807
0.582900,-2.398876
0.583000,-2.368041
0.583100,-2.391411
0.583200,-2.333960
0.583300,-2.437177
0.583400,-2.504691
0.583500,-2.559221
0.583600,-2.543965
0.583700,-2.531307
0.583800,-2.586486
0.583900,-2.644911
0.584000,-2.653350
0.584100,-2.614725
0.584200,-2.577397
0.584300,-2.576424
0.584400,-2.740014
0.584500,-2.861084
0.584600,-2.867575
0.584700,-2.835766
0.584800,-2.705933
0.584900,-2.779288
0.585000,-2.785131
0.585100,-2.787079
0.585200,-2.834143
0.585300,-2.834143
0.585400,-2.845828
0.585500,-2.855241
0.585600,-2.887050
0.585700,-2.879585
0.585800,-2.916588
0.585900,-2.946774
0.586000,-2.953590
0.586100,-2.966573
0.586200,-3.004550
0.586300,-3.024349
0.586400,-3.067844
0.586500,-3.066545
0.586600,-3.137954
0.586700,-3.284342
0.586800,-3.656640
0.586900,-3.821205
0.587000,-3.677089
0.587100,-3.348609
0.587200,-3.173658
0.587300,-3.383015
0.587400,-3.789396
0.587500,-4.012386
0.587600,-4.024396
0.587700,-3.794914
0.587800,-3.635867
0.587900,-3.686827
0.588000,-3.902352
0.588100,-4.100998
0.588200,-4.128588
0.588300,-4.055881
0.588400,-4.050038
0.588500,-4.088015
0.588600,-4.168188
0.588700,-4.221095
0.588800,-4.248360
0.588900,-4.277898
0.589000,-4.271731
0.589100,-4.353851
0.589200,-4.413250
0.589300,-4.423637
0.589400,-4.416821
0.589500,-4.415522
0.589600,-4.508030
0.589700,-4.581711
0.589800,-4.576842
0.589900,-4.366185
0.590000,-4.209410
0.590100,-4.317822
0.590200,-4.559639
0.590300,-4.816387
0.590400,-4.823204
0.590500,-4.588527
0.590600,-4.368457
0.590700,-4.325612
0.590800,-4.548928
0.590900,-4.855987
0.591000,-4.966347
0.591100,-4.871892
0.591200,-4.691421
0.591300,-4.652795
0.591400,-4.707326
0.591500,-4.777437
0.591600,-4.789447
0.591700,-4.728100
0.591800,-4.725827
0.591900,-4.675516
0.592000,-4.668376
0.592100,-4.513223
0.592200,-4.339894
0.592300,-4.229534
0.592400,-4.185066
0.592500,-4.157476
0.592600,-4.172732
0.592700,-4.081198
0.592800,-3.879631
0.592900,-3.788098
0.593000,-3.538816
0.593100,-3.539465
0.593200,-3.462863
0.593300,-3.379120
0.593400,-3.249936
0.593500,-3.143147
0.593600,-3.017858
0.593700,-2.950020
0.593800,-2.950020
0.593900,-2.915289
0.594000,-2.928922
0.594100,-2.930869
0.594200,-2.930545
0.594300,-2.942554
0.594400,-2.884454
0.594500,-2.939958
0.594600,-2.860434
0.594700,-2.964951
0.594800,-2.954564
0.594900,-2.979557
0.595000,-2.898735
0.595100,-2.517349
0.595200,-2.411535
0.595300,-2.299879
0.595400,-2.888349
0.595500,-3.018832
0.595600,-3.041228
0.595700,-2.584863
0.595800,-2.423869
0.595900,-2.311239
0.596000,-2.465741
0.596100,-2.678992
0.596200,-2.716968
0.596300,-2.573502
0.596400,-2.293062
0.596500,-2.232365
0.596600,-2.218733
0.596700,-2.263201
0.596800,-2.270341
0.596900,-2.259955
0.597000,-2.144079
0.597100,-2.085654
0.597200,-2.029176
0.597300,-2.074942
0.597400,-2.028852
0.597500,-2.069425
0.597600,-2.105129
0.597700,-2.087277
0.597800,-2.081110
0.597900,-2.021386
0.598000,-1.935047
0.598100,-1.806512
0.598200,-1.841892
0.598300,-2.137912
0.598400,-2.205425
0.598500,-2.091821
0.598600,-1.816574
0.598700,-1.484202
0.598800,-1.596507
0.598900,-1.844813
0.599000,-2.060661
0.599100,-1.927906
0.599200,-1.669538
0.599300,-1.420259
0.599400,-1.378063
0.599500,-1.548145
0.599600,-1.637080
0.599700,-1.576708
0.599800,-1.509844
0.599900,-1.389099
0.600000,-1.424479
0.600100,-1.464402
0.600200,-1.528994
0.600300,-1.486799
0.600400,-1.434216
0.600500,-1.463104
0.600600,-1.491018
0.600700,-1.454665
0.600800,-1.407925
0.600900,-1.405004
0.601000,-1.404355
0.601100,-1.546197
0.601200,-1.624422
0.601300,-1.658178
0.601400,-1.601376
0.601500,-1.540030
0.601600,-1.645195
0.601700,-1.695830
0.601800,-1.721472
0.601900,-1.765290
0.602000,-1.786064
0.602100,-1.844489
0.602200,-1.883763
0.602300,-1.963610
0.602400,-2.010350
0.602500,-2.061310
0.602600,-2.144728
0.602700,-2.208671
0.602800,-2.267745
0.602900,-2.316432
0.603000,-2.373559
0.603100,-2.444967
0.603200,-2.537149
0.603300,-2.612777
0.603400,-2.888024
0.603500,-3.327836
0.603600,-3.490453
0.603700,-3.385937
0.603800,-3.161649
0.603900,-3.191186
0.604000,-3.460591
0.604100,-3.965646
0.604200,-4.207787
0.604300,-4.282442
0.604400,-4.113332
0.604500,-4.098077
0.604600,-4.257773
0.604700,-4.588852
0.604800,-4.834564
0.604900,-4.945898
0.605000,-4.918957
0.605100,-4.948170
0.605200,-5.016009
0.605300,-5.133185
0.605400,-5.213683
0.605500,-5.288663
0.605600,-5.287040
0.605700,-5.333132
0.605800,-5.399348
0.605900,-5.419148
0.606000,-5.439272
0.606100,-5.411357
0.606200,-5.412980
0.606300,-5.483741
0.606400,-5.477898
0.606500,-5.427262
0.606600,-5.220824
0.606700,-5.078330
0.606800,-5.207516
0.606900,-5.427262
0.607000,-5.657396
0.607100,-5.631429
0.607200,-5.362669
0.607300,-5.143247
0.607400,-5.117929
0.607500,-5.335728
0.607600,-5.598970
0.607700,-5.671029
0.607800,-5.536649
0.607900,-5.333781
0.608000,-5.210762
0.608100,-5.213683
0.608200,-5.274706
0.608300,-5.270811
0.608400,-5.229588
0.608500,-5.172460
0.608600,-5.061776
0.608700,-4.962127
0.608800,-4.790096
0.608900,-4.607029
0.609000,-4.477194
0.609100,-4.409355
0.609200,-4.374949
0.609300,-4.323989
0.609400,-4.152283
0.609500,-3.953636
0.609600,-3.868270
0.609700,-3.565757
0.609800,-3.550177
0.609900,-3.441116
0.610000,-3.311282
0.610100,-3.167167
0.610200,-3.023051
0.610300,-2.901007
0.610400,-2.752673
0.610500,-2.790649
0.610600,-2.731899
0.610700,-2.727680
0.610800,-2.717942
0.610900,-2.635173
0.611000,-2.601417
0.611100,-2.504042
0.611200,-2.534552
0.611300,-2.514753
0.611400,-2.600767
0.611500,-2.619918
0.611600,-2.519297
0.611700,-2.406666
0.611800,-2.018465
0.611900,-1.873701
0.612000,-1.864613
0.612100,-2.407316
0.612200,-2.486189
0.612300,-2.422246
0.612400,-2.023983
0.612500,-1.850006
0.612600,-1.813978
0.612700,-2.011324
0.612800,-2.235286
0.612900,-2.144728
0.613000,-2.028852
0.613100,-1.808135
0.613200,-1.746789
0.613300,-1.812030
0.613400,-1.823715
0.613500,-1.912326
0.613600,-1.891228
0.613700,-1.876622
0.613800,-1.858770
0.613900,-1.867209
0.614000,-1.876947
0.614100,-1.858121
0.614200,-1.967830
0.614300,-2.084680
0.614400,-2.122007
0.614500,-2.210294
0.614600,-2.162904
0.614700,-2.124279
0.614800,-2.061310
0.614900,-2.221979
0.615000,-2.559221
0.615100,-2.633226
0.615200,-2.509559
0.615300,-2.242752
0.615400,-2.123954
0.615500,-2.284948
0.615600,-2.631927
0.615700,-2.744233
0.615800,-2.616347
0.615900,-2.379401
0.616000,-2.250217
0.616100,-2.291115
0.616200,-2.436204
0.616300,-2.520595
0.616400,-2.468337
0.616500,-2.400824
0.616600,-2.342074
0.616700,-2.393683
0.616800,-2.455679
0.616900,-2.486189
0.617000,-2.437826
0.617100,-2.450810
0.617200,-2.492357
0.617300,-2.511182
0.617400,-2.455354
0.617500,-2.357979
0.617600,-2.308318
0.617700,-2.323898
0.617800,-2.497874
0.617900,-2.515077
0.618000,-2.473855
0.618100,-2.279754
0.618200,-2.261578
0.618300,-2.274886
0.618400,-2.260604
0.618500,-2.237559
0.618600,-2.190169
0.618700,-2.154465
0.618800,-2.139210
0.618900,-2.140184
0.619000,-2.113568
0.619100,-2.114217
0.619200,-2.093768
0.619300,-2.124604
0.619400,-2.098312
0.619500,-2.106102
0.619600,-2.105453
0.619700,-2.075916
0.619800,-2.186924
0.619900,-2.137912
0.620000,-2.276184
0.620100,-2.491383
0.620200,-2.877962
0.620300,-2.939308
0.620400,-2.675422
0.620500,-2.498848
0.620600,-2.471908
0.620700,-2.830573
0.620800,-3.215854
0.620900,-3.421316
0.621000,-3.313554
0.621100,-3.111663
0.621200,-3.103223
0.621300,-3.335951
0.621400,-3.637490
0.621500,-3.825100
0.621600,-3.830294
0.621700,-3.788747
0.621800,-3.856261
0.621900,-3.909493
0.622000,-4.031212
0.622100,-4.104244
0.622200,-4.156178
0.622300,-4.193830
0.622400,-4.246088
0.622500,-4.358720
0.622600,-4.420391
0.622700,-4.482063
0.622800,-4.457069
0.622900,-4.529777
0.623000,-4.624556
0.623100,-4.738486
0.623200,-4.709598
0.623300,-4.547629
0.623400,-4.518416
0.623500,-4.692720
0.623600,-4.989393
0.623700,-5.231860
0.623800,-5.173109
0.623900,-4.869944
0.624000,-4.698562
0.624100,-4.805351
0.624200,-5.089366
0.624300,-5.365590
0.624400,-5.405839
0.624500,-5.222122
0.624600,-5.044897
0.624700,-4.994586
0.624800,-5.069890
0.624900,-5.116631
0.625000,-5.118579
0.625100,-5.061451
0.625200,-4.973812
0.625300,-4.908895
0.625400,-4.793017
0.625500,-4.644031
0.625600,-4.478168
0.625700,-4.364238
0.625800,-4.326910
0.625900,-4.298347
0.626000,-4.251282
0.626100,-4.034783
0.626200,-3.850418
0.626300,-3.752069
0.626400,-3.519666
0.626500,-3.488830
0.626600,-3.396648
0.626700,-3.233382
0.626800,-3.070116
0.626900,-2.898086
0.627000,-2.780262
0.627100,-2.695221
0.627200,-2.686133
0.627300,-2.679317
0.627400,-2.631278
0.627500,-2.659192
0.627600,-2.558572
0.627700,-2.530982
0.627800,-2.480022
0.627900,-2.469636
0.628000,-2.493330
0.628100,-2.464767
0.628200,-2.582591
0.628300,-2.382972
0.628400,-2.264824
0.628500,-1.839295
0.628600,-1.751333
0.628700,-1.903887
0.628800,-2.431659
0.628900,-2.440099
0.629000,-2.246647
0.629100,-1.820469
0.629200,-1.652660
0.629300,-1.740947
0.629400,-1.965883
0.629500,-2.121358
0.629600,-1.978866
0.629700,-1.809758
0.629800,-1.615658
0.629900,-1.642923
0.630000,-1.677653
0.630100,-1.699725
0.630200,-1.714006
0.630300,-1.664345
0.630400,-1.617281
0.630500,-1.595209
0.630600,-1.631887
0.630700,-1.610464
0.630800,-1.657529
0.630900,-1.724068
0.631000,-1.841243
0.631100,-1.858770
0.631200,-1.920116
0.631300,-1.924661
0.631400,-1.902913
0.631500,-1.874999
0.631600,-2.044756
0.631700,-2.345320
