0.000100,-1.588717
0.000200,-1.605596
0.000300,-1.525748
0.000400,-1.437462
0.000500,-1.474464
0.000600,-1.620851
0.000700,-1.665319
0.000800,-1.664021
0.000900,-1.588068
0.001000,-1.495887
0.001100,-1.453367
0.001200,-1.492641
0.001300,-1.559830
0.001400,-1.564049
0.001500,-1.510818
0.001600,-1.415390
0.001700,-1.380985
0.001800,-1.379037
0.001900,-1.389099
0.002000,-1.403705
0.002100,-1.399161
0.002200,-1.391696
0.002300,-1.392670
0.002400,-1.384880
0.002500,-1.373844
0.002600,-1.380985
0.002700,-1.393643
0.002800,-1.450445
0.002900,-1.437137
0.003000,-1.465701
0.003100,-1.450445
0.003200,-1.421557
0.003300,-1.428049
0.003400,-1.479009
0.003500,-1.618579
0.003600,-1.654932
0.003700,-1.611114
0.003800,-1.526073
0.003900,-1.510168
0.004000,-1.554312
0.004100,-1.651362
0.004200,-1.692908
0.004300,-1.635457
0.004400,-1.528994
0.004500,-1.466025
0.004600,-1.468297
0.004700,-1.500106
0.004800,-1.510493
0.004900,-1.491018
0.005000,-1.458884
0.005100,-1.430970
0.005200,-1.410197
0.005300,-1.405977
0.005400,-1.406302
0.005500,-1.399486
0.005600,-1.403381
0.005700,-1.422856
0.005800,-1.461157
0.005900,-1.479658
0.006000,-1.485825
0.006100,-1.485500
0.006200,-1.520555
0.006300,-1.586445
0.006400,-1.627018
0.006500,-1.641949
0.006600,-1.639028
0.006700,-1.663696
0.006800,-1.670837
0.006900,-1.635457
0.007000,-1.632536
0.007100,-1.627018
0.007200,-1.621176
0.007300,-1.623123
0.007400,-1.614035
0.007500,-1.635457
0.007600,-1.632211
0.007700,-1.638379
0.007800,-1.634159
0.007900,-1.634159
0.008000,-1.643896
0.008100,-1.637080
0.008200,-1.631887
0.008300,-1.647791
0.008400,-1.641949
0.008500,-1.635457
0.008600,-1.702321
0.008700,-1.792555
0.008800,-1.829233
0.008900,-1.749710
0.009000,-1.662073
0.009100,-1.630264
0.009200,-1.718875
0.009300,-1.857472
0.009400,-1.924985
0.009500,-1.877271
0.009600,-1.802617
0.009700,-1.739973
0.009800,-1.775677
0.009900,-1.810083
0.010000,-1.849357
0.010100,-1.818197
0.010200,-1.780546
0.010300,-1.742245
0.010400,-1.720498
0.010500,-1.738025
0.010600,-1.719524
0.010700,-1.723744
0.010800,-1.736727
0.010900,-1.757176
0.011000,-1.767562
0.011100,-1.779897
0.011200,-1.800021
0.011300,-1.813004
0.011400,-1.822742
0.011500,-1.865262
0.011600,-1.879868
0.011700,-1.860718
0.011800,-1.799047
0.011900,-1.793204
0.012000,-1.851629
0.012100,-1.951601
0.012200,-2.013921
0.012300,-1.990226
0.012400,-1.914923
0.012500,-1.857472
0.012600,-1.883114
0.012700,-1.971725
0.012800,-2.023334
0.012900,-2.009377
0.013000,-1.953548
0.013100,-1.891228
0.013200,-1.859744
0.013300,-1.867859
0.013400,-1.883439
0.013500,-1.866236
0.013600,-1.839944
0.013700,-1.815925
0.013800,-1.788985
0.013900,-1.745491
0.014000,-1.714331
0.014100,-1.655906
0.014200,-1.641949
0.014300,-1.650064
0.014400,-1.658827
0.014500,-1.652336
0.014600,-1.586121
0.014700,-1.550417
0.014800,-1.543276
0.014900,-1.561777
0.015000,-1.535161
0.015100,-1.515037
0.015200,-1.477061
0.015300,-1.453367
0.015400,-1.436164
0.015500,-1.418961
0.015600,-1.411171
0.015700,-1.415390
0.015800,-1.438760
0.015900,-1.463429
0.016000,-1.480631
0.016100,-1.510168
0.016200,-1.494264
0.016300,-1.528345
0.016400,-1.533214
0.016500,-1.538732
0.016600,-1.573462
0.016700,-1.552364
0.016800,-1.594884
0.016900,-1.519581
0.017000,-1.438436
0.017100,-1.311199
0.017200,-1.401758
0.017300,-1.496536
0.017400,-1.568269
0.017500,-1.532565
0.017600,-1.432269
0.017700,-1.352097
0.017800,-1.363457
0.017900,-1.435514
0.018000,-1.510818
0.018100,-1.497510
0.018200,-1.430970
0.018300,-1.382932
0.018400,-1.371896
0.018500,-1.385853
0.018600,-1.414417
0.018700,-1.445577
0.018800,-1.446550
0.018900,-1.417987
0.019000,-1.421557
0.019100,-1.426426
0.019200,-1.395266
0.019300,-1.407925
0.019400,-1.437137
0.019500,-1.438111
0.019600,-1.440708
0.019700,-1.450445
0.019800,-1.420908
0.019900,-1.399486
0.020000,-1.381634
0.020100,-1.450121
0.020200,-1.550417
0.020300,-1.563725
0.020400,-1.481281
0.020500,-1.385204
0.020600,-1.378713
0.020700,-1.444278
0.020800,-1.546197
0.020900,-1.570541
0.021000,-1.502378
0.021100,-1.410197
0.021200,-1.383581
0.021300,-1.427075
0.021400,-1.475763
0.021500,-1.507572
0.021600,-1.511467
0.021700,-1.490369
0.021800,-1.508221
0.021900,-1.503677
0.022000,-1.513414
0.022100,-1.522178
0.022200,-1.503028
0.022300,-1.531591
0.022400,-1.555610
0.022500,-1.576383
0.022600,-1.582226
0.022700,-1.570541
0.022800,-1.567944
0.022900,-1.603648
0.023000,-1.649090
0.023100,-1.667266
0.023200,-1.658178
0.023300,-1.663696
0.023400,-1.700049
0.023500,-1.713033
0.023600,-1.686741
0.023700,-1.696154
0.023800,-1.703295
0.023900,-1.713033
0.024000,-1.717901
0.024100,-1.722445
0.024200,-1.731209
0.024300,-1.744192
0.024400,-1.750035
0.024500,-1.753605
0.024600,-1.751333
0.024700,-1.763018
0.024800,-1.778923
0.024900,-1.782818
0.025000,-1.797749
0.025100,-1.787362
0.025200,-1.805214
0.025300,-1.899668
0.025400,-2.020088
0.025500,-2.036966
0.025600,-1.948030
0.025700,-1.850980
0.025800,-1.850006
0.025900,-1.973997
0.026000,-2.087277
0.026100,-2.123305
0.026200,-2.049625
0.026300,-1.987630
0.026400,-1.964584
0.026500,-2.026580
0.026600,-2.090522
0.026700,-2.126551
0.026800,-2.128499
0.026900,-2.099935
0.027000,-2.079487
0.027100,-2.090522
0.027200,-2.095716
0.027300,-2.116814
0.027400,-2.125253
0.027500,-2.143754
0.027600,-2.154141
0.027700,-2.164527
0.027800,-2.184327
0.027900,-2.164203
0.028000,-2.168747
0.028100,-2.167449
0.028200,-2.154141
0.028300,-2.153492
0.028400,-2.096689
0.028500,-2.000938
0.028600,-1.990551
0.028700,-2.034370
0.028800,-2.108699
0.028900,-2.132394
0.029000,-2.044756
0.029100,-1.962312
0.029200,-1.897071
0.029300,-1.923362
0.029400,-2.007429
0.029500,-2.058713
0.029600,-2.045730
0.029700,-1.981787
0.029800,-1.925959
0.029900,-1.904212
0.030000,-1.908756
0.030100,-1.915248
0.030200,-1.934723
0.030300,-1.919143
0.030400,-1.890255
0.030500,-1.871104
0.030600,-1.824364
0.030700,-1.771457
0.030800,-1.746140
0.030900,-1.738350
0.031000,-1.746789
0.031100,-1.762369
0.031200,-1.723744
0.031300,-1.676355
0.031400,-1.657854
0.031500,-1.632861
0.031600,-1.638054
0.031700,-1.598455
0.031800,-1.574760
0.031900,-1.559505
0.032000,-1.529968
0.032100,-1.487772
0.032200,-1.472517
0.032300,-1.460507
0.032400,-1.474140
0.032500,-1.488097
0.032600,-1.500431
0.032700,-1.525748
0.032800,-1.490044
0.032900,-1.522178
0.033000,-1.491667
0.033100,-1.508870
0.033200,-1.482904
0.033300,-1.529319
0.033400,-1.536135
0.033500,-1.531591
0.033600,-1.465376
0.033700,-1.346254
0.033800,-1.324832
0.033900,-1.404679
0.034000,-1.520231
0.034100,-1.563725
0.034200,-1.482579
0.034300,-1.399810
0.034400,-1.327753
0.034500,-1.362159
0.034600,-1.434541
0.034700,-1.477061
0.034800,-1.442655
0.034900,-1.389099
0.035000,-1.352746
0.035100,-1.360536
0.035200,-1.389424
0.035300,-1.421882
0.035400,-1.451419
0.035500,-1.451744
0.035600,-1.449147
0.035700,-1.442655
0.035800,-1.460832
0.035900,-1.457586
0.036000,-1.436488
0.036100,-1.495562
0.036200,-1.495562
0.036300,-1.536135
0.036400,-1.530617
0.036500,-1.488421
0.036600,-1.461806
0.036700,-1.464078
0.036800,-1.583849
0.036900,-1.632861
0.037000,-1.630589
0.037100,-1.543925
0.037200,-1.458884
0.037300,-1.483877
0.037400,-1.573462
0.037500,-1.663047
0.037600,-1.657529
0.037700,-1.561452
0.037800,-1.492641
0.037900,-1.470245
0.038000,-1.535810
0.038100,-1.576708
0.038200,-1.585796
0.038300,-1.584822
0.038400,-1.576383
0.038500,-1.588717
0.038600,-1.580603
0.038700,-1.577357
0.038800,-1.574760
0.038900,-1.578655
0.039000,-1.598455
0.039100,-1.622474
0.039200,-1.611438
0.039300,-1.627667
0.039400,-1.619228
0.039500,-1.620202
0.039600,-1.668240
0.039700,-1.704918
0.039800,-1.714655
0.039900,-1.689338
0.040000,-1.698426
0.040100,-1.709787
0.040200,-1.706865
0.040300,-1.683171
0.040400,-1.667266
0.040500,-1.654608
0.040600,-1.649414
0.040700,-1.637729
0.040800,-1.631887
0.040900,-1.616632
0.041000,-1.624746
0.041100,-1.641300
0.041200,-1.634484
0.041300,-1.640326
0.041400,-1.612737
0.041500,-1.629290
0.041600,-1.626694
0.041700,-1.642274
0.041800,-1.666942
0.041900,-1.708164
0.042000,-1.842866
0.042100,-1.936670
0.042200,-1.908431
0.042300,-1.819496
0.042400,-1.760746
0.042500,-1.805539
0.042600,-1.968155
0.042700,-2.046379
0.042800,-2.076890
0.042900,-1.989902
0.043000,-1.947057
0.043100,-1.933424
0.043200,-2.011973
0.043300,-2.086303
0.043400,-2.116814
0.043500,-2.089549
0.043600,-2.053520
0.043700,-2.044432
0.043800,-2.069425
0.043900,-2.089549
0.044000,-2.096365
0.044100,-2.098637
0.044200,-2.110647
0.044300,-2.113892
0.044400,-2.128499
0.044500,-2.165501
0.044600,-2.137912
0.044700,-2.126876
0.044800,-2.137912
0.044900,-2.148623
0.045000,-2.116814
0.045100,-2.045405
0.045200,-1.982436
0.045300,-1.984384
0.045400,-2.030475
0.045500,-2.125253
0.045600,-2.108050
0.045700,-2.025281
0.045800,-1.951276
0.045900,-1.943486
0.046000,-2.025930
0.046100,-2.117463
0.046200,-2.159334
0.046300,-2.124604
0.046400,-2.049625
0.046500,-2.015868
0.046600,-2.013272
0.046700,-2.035668
0.046800,-2.027229
0.046900,-2.004833
0.047000,-1.988279
0.047100,-1.949329
0.047200,-1.885061
0.047300,-1.843839
0.047400,-1.802617
0.047500,-1.749710
0.047600,-1.730560
0.047700,-1.726340
0.047800,-1.723095
0.047900,-1.693233
0.048000,-1.636431
0.048100,-1.613061
0.048200,-1.588393
0.048300,-1.579954
0.048400,-1.556584
0.048500,-1.529319
0.048600,-1.496536
0.048700,-1.448498
0.048800,-1.423830
0.048900,-1.410197
0.049000,-1.416364
0.049100,-1.440059
0.049200,-1.439734
0.049300,-1.469920
0.049400,-1.490694
0.049500,-1.497510
0.049600,-1.517634
0.049700,-1.501729
0.049800,-1.516336
0.049900,-1.526398
0.050000,-1.535486
0.050100,-1.556908
0.050200,-1.527047
0.050300,-1.455639
0.050400,-1.348526
0.050500,-1.384555
0.050600,-1.487123
0.050700,-1.568269
0.050800,-1.562426
0.050900,-1.486799
0.051000,-1.374493
0.051100,-1.352746
0.051200,-1.425452
0.051300,-1.509195
0.051400,-1.537109
0.051500,-1.498808
0.051600,-1.435839
0.051700,-1.401109
0.051800,-1.430321
0.051900,-1.469271
0.052000,-1.493290
0.052100,-1.495887
0.052200,-1.496861
0.052300,-1.485825
0.052400,-1.508546
0.052500,-1.543600
0.052600,-1.537109
0.052700,-1.569892
0.052800,-1.597481
0.052900,-1.616956
0.053000,-1.664021
0.053100,-1.656555
0.053200,-1.642923
0.053300,-1.645519
0.053400,-1.710760
0.053500,-1.818522
0.053600,-1.849357
0.053700,-1.830207
0.053800,-1.761720
0.053900,-1.699725
0.054000,-1.757500
0.054100,-1.843515
0.054200,-1.921415
0.054300,-1.885711
0.054400,-1.787362
0.054500,-1.701997
0.054600,-1.697128
0.054700,-1.730235
0.054800,-1.758474
0.054900,-1.750035
0.055000,-1.722445
0.055100,-1.667591
0.055200,-1.672460
0.055300,-1.659152
0.055400,-1.666293
0.055500,-1.664021
0.055600,-1.664994
0.055700,-1.655581
0.055800,-1.644221
0.055900,-1.632861
0.056000,-1.616307
0.056100,-1.602025
0.056200,-1.613710
0.056300,-1.655906
0.056400,-1.651037
0.056500,-1.649090
0.056600,-1.625071
0.056700,-1.632861
0.056800,-1.621825
0.056900,-1.589367
0.057000,-1.560803
0.057100,-1.554312
0.057200,-1.538407
0.057300,-1.527371
0.057400,-1.506273
0.057500,-1.510168
0.057600,-1.510493
0.057700,-1.511791
0.057800,-1.510493
0.057900,-1.509195
0.058000,-1.512441
0.058100,-1.518608
0.058200,-1.525424
0.058300,-1.536135
0.058400,-1.584173
0.058500,-1.581577
0.058600,-1.671811
0.058700,-1.773405
0.058800,-1.834751
0.058900,-1.778598
0.059000,-1.682522
0.059100,-1.653309
0.059200,-1.726990
0.059300,-1.864937
0.059400,-1.911677
0.059500,-1.888956
0.059600,-1.817873
0.059700,-1.751982
0.059800,-1.755553
0.059900,-1.800994
0.060000,-1.831181
0.060100,-1.822742
0.060200,-1.775677
0.060300,-1.750360
0.060400,-1.716278
0.060500,-1.718550
0.060600,-1.691935
0.060700,-1.672460
0.060800,-1.668565
0.060900,-1.676355
0.061000,-1.692584
0.061100,-1.698426
0.061200,-1.695181
0.061300,-1.698426
0.061400,-1.718226
0.061500,-1.737052
0.061600,-1.770808
0.061700,-1.738025
0.061800,-1.700698
0.061900,-1.675381
0.062000,-1.725691
0.062100,-1.809109
0.062200,-1.858121
0.062300,-1.841892
0.062400,-1.740947
0.062500,-1.717577
0.062600,-1.737701
0.062700,-1.824040
0.062800,-1.896097
0.062900,-1.917520
0.063000,-1.870131
0.063100,-1.821443
0.063200,-1.799372
0.063300,-1.816574
0.063400,-1.833128
0.063500,-1.824040
0.063600,-1.811057
0.063700,-1.800670
0.063800,-1.764641
0.063900,-1.730885
0.064000,-1.712708
0.064100,-1.677328
0.064200,-1.685768
0.064300,-1.692584
0.064400,-1.705567
0.064500,-1.705567
0.064600,-1.651686
0.064700,-1.641300
0.064800,-1.631238
0.064900,-1.637729
0.065000,-1.604297
0.065100,-1.594884
0.065200,-1.553663
0.065300,-1.529319
0.065400,-1.483228
0.065500,-1.492316
0.065600,-1.475763
0.065700,-1.491667
0.065800,-1.489071
0.065900,-1.510168
0.066000,-1.531266
0.066100,-1.551390
0.066200,-1.545873
0.066300,-1.544250
0.066400,-1.550741
0.066500,-1.556908
0.066600,-1.572488
0.066700,-1.589367
0.066800,-1.561128
0.066900,-1.545873
0.067000,-1.444278
0.067100,-1.380660
0.067200,-1.412469
0.067300,-1.568269
0.067400,-1.606894
0.067500,-1.605271
0.067600,-1.517309
0.067700,-1.430970
0.067800,-1.437137
0.067900,-1.500756
0.068000,-1.566970
0.068100,-1.568269
0.068200,-1.487772
0.068300,-1.426426
0.068400,-1.430646
0.068500,-1.446875
0.068600,-1.469271
0.068700,-1.471868
0.068800,-1.458884
0.068900,-1.440708
0.069000,-1.448173
0.069100,-1.457586
0.069200,-1.458235
0.069300,-1.429997
0.069400,-1.445901
0.069500,-1.482579
0.069600,-1.479982
0.069700,-1.511142
0.069800,-1.488097
0.069900,-1.464727
0.070000,-1.444603
0.070100,-1.509519
0.070200,-1.629615
0.070300,-1.602025
0.070400,-1.546846
0.070500,-1.439734
0.070600,-1.432918
0.070700,-1.464078
0.070800,-1.578980
0.070900,-1.578655
0.071000,-1.526722
0.071100,-1.396889
0.071200,-1.380660
0.071300,-1.421557
0.071400,-1.477710
0.071500,-1.484851
0.071600,-1.475438
0.071700,-1.421233
0.071800,-1.421557
0.071900,-1.408899
0.072000,-1.407600
0.072100,-1.394942
0.072200,-1.364756
0.072300,-1.369300
0.072400,-1.366703
0.072500,-1.376116
0.072600,-1.345281
0.072700,-1.329051
0.072800,-1.298216
0.072900,-1.315744
0.073000,-1.365080
0.073100,-1.354693
0.073200,-1.340412
0.073300,-1.312173
0.073400,-1.326779
0.073500,-1.325156
0.073600,-1.281662
0.073700,-1.269977
0.073800,-1.248555
0.073900,-1.243686
0.074000,-1.247906
0.074100,-1.255696
0.074200,-1.272574
0.074300,-1.251152
0.074400,-1.266732
0.074500,-1.288479
0.074600,-1.294970
0.074700,-1.308603
0.074800,-1.310226
0.074900,-1.306655
0.075000,-1.331648
0.075100,-1.340087
0.075200,-1.367028
0.075300,-1.430646
0.075400,-1.539381
0.075500,-1.571839
0.075600,-1.488097
0.075700,-1.392345
0.075800,-1.389099
0.075900,-1.517958
0.076000,-1.664345
0.076100,-1.694531
0.076200,-1.634484
0.076300,-1.548145
0.076400,-1.510493
0.076500,-1.562751
0.076600,-1.646493
0.076700,-1.685443
0.076800,-1.676030
0.076900,-1.637405
0.077000,-1.643247
0.077100,-1.657529
0.077200,-1.695830
0.077300,-1.712383
0.077400,-1.727963
0.077500,-1.748087
0.077600,-1.767562
0.077700,-1.790932
0.077800,-1.834751
0.077900,-1.814627
0.078000,-1.820469
0.078100,-1.836049
0.078200,-1.865586
0.078300,-1.868183
0.078400,-1.814952
0.078500,-1.733481
0.078600,-1.704593
0.078700,-1.745166
0.078800,-1.848708
0.078900,-1.875649
0.079000,-1.810732
0.079100,-1.703620
0.079200,-1.653634
0.079300,-1.697777
0.079400,-1.789634
0.079500,-1.866236
0.079600,-1.852603
0.079700,-1.798398
0.079800,-1.736078
0.079900,-1.704269
0.080000,-1.738025
0.080100,-1.760097
0.080200,-1.756851
0.080300,-1.732508
0.080400,-1.693882
0.080500,-1.669214
0.080600,-1.634484
0.080700,-1.591314
0.080800,-1.561128
0.080900,-1.567620
0.081000,-1.574111
0.081100,-1.574111
0.081200,-1.561777
0.081300,-1.512765
0.081400,-1.498159
0.081500,-1.510493
0.081600,-1.519257
0.081700,-1.501405
0.081800,-1.467648
0.081900,-1.440708
0.082000,-1.424154
0.082100,-1.394942
0.082200,-1.370273
0.082300,-1.372546
0.082400,-1.363457
0.082500,-1.383257
0.082600,-1.389748
0.082700,-1.408250
0.082800,-1.394617
0.082900,-1.416689
0.083000,-1.394942
0.083100,-1.426426
0.083200,-1.403056
0.083300,-1.432918
0.083400,-1.410197
0.083500,-1.416040
0.083600,-1.333596
0.083700,-1.237519
0.083800,-1.192727
0.083900,-1.271925
0.084000,-1.399810
0.084100,-1.458884
0.084200,-1.435839
0.084300,-1.335219
0.084400,-1.256345
0.084500,-1.283285
0.084600,-1.361834
0.084700,-1.426102
0.084800,-1.407600
0.084900,-1.330674
0.085000,-1.269004
0.085100,-1.245958
0.085200,-1.279390
0.085300,-1.306331
0.085400,-1.309252
0.085500,-1.306980
0.085600,-1.299190
0.085700,-1.296593
0.085800,-1.312822
0.085900,-1.333271
0.086000,-1.343333
0.086100,-1.376765
0.086200,-1.383581
0.086300,-1.422531
0.086400,-1.407600
0.086500,-1.398512
0.086600,-1.387801
0.086700,-1.400460
0.086800,-1.497510
0.086900,-1.529319
0.087000,-1.536135
0.087100,-1.474140
0.087200,-1.383581
0.087300,-1.399161
0.087400,-1.479009
0.087500,-1.577032
0.087600,-1.587095
0.087700,-1.516985
0.087800,-1.440059
0.087900,-1.430321
0.088000,-1.497185
0.088100,-1.550092
0.088200,-1.585147
0.088300,-1.602350
0.088400,-1.593586
0.088500,-1.600402
0.088600,-1.604947
0.088700,-1.609815
0.088800,-1.614359
0.088900,-1.614359
0.089000,-1.643896
0.089100,-1.673433
0.089200,-1.701997
0.089300,-1.685118
0.089400,-1.670512
0.089500,-1.685118
0.089600,-1.739648
0.089700,-1.785090
0.089800,-1.807162
0.089900,-1.778598
0.090000,-1.792231
0.090100,-1.813978
0.090200,-1.796775
0.090300,-1.773730
0.090400,-1.778274
0.090500,-1.775352
0.090600,-1.761071
0.090700,-1.758150
0.090800,-1.757825
0.090900,-1.764641
0.091000,-1.765940
0.091100,-1.761720
0.091200,-1.760746
0.091300,-1.757176
0.091400,-1.765940
0.091500,-1.769835
0.091600,-1.761071
0.091700,-1.774379
0.091800,-1.766264
0.091900,-1.792880
0.092000,-1.904536
0.092100,-1.986656
0.092200,-1.958417
0.092300,-1.860393
0.092400,-1.759448
0.092500,-1.792880
0.092600,-1.924985
0.092700,-2.012947
0.092800,-2.016193
0.092900,-1.924985
0.093000,-1.862990
0.093100,-1.849682
0.093200,-1.900641
0.093300,-1.972374
0.093400,-1.966207
0.093500,-1.929854
0.093600,-1.887658
0.093700,-1.871104
0.093800,-1.862990
0.093900,-1.858446
0.094000,-1.862016
0.094100,-1.839944
0.094200,-1.839295
0.094300,-1.848384
0.094400,-1.862341
0.094500,-1.870131
0.094600,-1.856823
0.094700,-1.856498
0.094800,-1.871754
0.094900,-1.879219
0.095000,-1.895123
0.095100,-1.840269
0.095200,-1.796126
0.095300,-1.819171
0.095400,-1.884412
0.095500,-1.974322
0.095600,-1.975295
0.095700,-1.917195
0.095800,-1.837672
0.095900,-1.825338
0.096000,-1.902589
0.096100,-1.983735
0.096200,-2.046704
0.096300,-2.017816
0.096400,-1.980813
0.096500,-1.951276
0.096600,-1.958093
0.096700,-1.997367
0.096800,-2.022035
0.096900,-2.022360
0.097000,-2.023334
0.097100,-2.002560
0.097200,-1.993472
0.097300,-1.954847
0.097400,-1.934073
0.097500,-1.922064
0.097600,-1.923687
0.097700,-1.921415
0.097800,-1.926608
0.097900,-1.891878
0.098000,-1.830856
0.098100,-1.796126
0.098200,-1.779247
0.098300,-1.732508
0.098400,-1.681548
0.098500,-1.655581
0.098600,-1.613710
0.098700,-1.576059
0.098800,-1.514388
0.098900,-1.495238
0.099000,-1.477710
0.099100,-1.484851
0.099200,-1.472192
0.099300,-1.489720
0.099400,-1.473815
0.099500,-1.477386
0.099600,-1.472517
0.099700,-1.470245
0.099800,-1.464078
0.099900,-1.501080
0.100000,-1.526398
0.100100,-1.532889
0.100200,-1.519581
0.100300,-1.463104
0.100400,-1.345605
0.100500,-1.355667
0.100600,-1.477386
0.100700,-1.596183
0.100800,-1.621176
0.100900,-1.554961
0.101000,-1.460183
0.101100,-1.421882
0.101200,-1.485825
0.101300,-1.575734
0.101400,-1.589367
0.101500,-1.551066
0.101600,-1.477061
0.101700,-1.438111
0.101800,-1.421557
0.101900,-1.410846
0.102000,-1.411171
0.102100,-1.384880
0.102200,-1.361510
0.102300,-1.342684
0.102400,-1.299839
0.102500,-1.280040
0.102600,-1.243362
0.102700,-1.222913
0.102800,-1.222913
0.102900,-1.218693
0.103000,-1.243686
0.103100,-1.229729
0.103200,-1.220966
0.103300,-1.205710
0.103400,-1.255371
0.103500,-1.364106
0.103600,-1.421233
0.103700,-1.416040
0.103800,-1.367352
0.103900,-1.288479
0.104000,-1.345605
0.104100,-1.449796
0.104200,-1.545873
0.104300,-1.547820
0.104400,-1.463753
0.104500,-1.389099
0.104600,-1.399486
0.104700,-1.435514
0.104800,-1.446550
0.104900,-1.432269
0.105000,-1.413767
0.105100,-1.380985
0.105200,-1.387476
0.105300,-1.372870
0.105400,-1.350474
0.105500,-1.356641
0.105600,-1.365729
0.105700,-1.369624
0.105800,-1.390722
0.105900,-1.405653
0.106000,-1.389099
0.106100,-1.378388
0.106200,-1.400460
0.106300,-1.443954
0.106400,-1.465376
0.106500,-1.479333
0.106600,-1.455314
0.106700,-1.480956
0.106800,-1.509195
0.106900,-1.473166
0.107000,-1.473491
0.107100,-1.471219
0.107200,-1.482579
0.107300,-1.469920
0.107400,-1.488097
0.107500,-1.481930
0.107600,-1.493290
0.107700,-1.509195
0.107800,-1.534188
0.107900,-1.531591
0.108000,-1.552689
0.108100,-1.556584
0.108200,-1.578655
0.108300,-1.602025
0.108400,-1.622149
0.108500,-1.633185
0.108600,-1.682846
0.108700,-1.811706
0.108800,-1.875649
0.108900,-1.825014
0.109000,-1.732183
0.109100,-1.658503
0.109200,-1.725367
0.109300,-1.847734
0.109400,-1.885386
0.109500,-1.875324
0.109600,-1.771457
0.109700,-1.704918
0.109800,-1.718550
0.109900,-1.771457
0.110000,-1.840269
0.110100,-1.824364
0.110200,-1.806188
0.110300,-1.782169
0.110400,-1.785739
0.110500,-1.778923
0.110600,-1.806837
0.110700,-1.813004
0.110800,-1.815925
0.110900,-1.821119
0.111000,-1.851954
0.111100,-1.883763
0.111200,-1.899018
0.111300,-1.896746
0.111400,-1.895123
0.111500,-1.924336
0.111600,-1.952575
0.111700,-1.927906
0.111800,-1.846436
0.111900,-1.794827
0.112000,-1.824689
0.112100,-1.908756
0.112200,-1.972374
0.112300,-1.942837
0.112400,-1.880842
0.112500,-1.810407
0.112600,-1.819820
0.112700,-1.901615
0.112800,-1.996069
0.112900,-2.025606
0.113000,-1.954847
0.113100,-1.903563
0.113200,-1.884088
0.113300,-1.880193
0.113400,-1.886360
0.113500,-1.870455
0.113600,-1.875649
0.113700,-1.858770
0.113800,-1.825014
0.113900,-1.778274
0.114000,-1.745491
0.114100,-1.703620
0.114200,-1.691935
0.114300,-1.679925
0.114400,-1.677978
0.114500,-1.693558
0.114600,-1.653634
0.114700,-1.616632
0.114800,-1.619877
0.114900,-1.626694
0.115000,-1.615333
0.115100,-1.595858
0.115200,-1.576059
0.115300,-1.554961
0.115400,-1.510493
0.115500,-1.499782
0.115600,-1.468622
0.115700,-1.480631
0.115800,-1.475114
0.115900,-1.481605
0.116000,-1.499133
0.116100,-1.491018
0.116200,-1.473815
0.116300,-1.484526
0.116400,-1.445252
0.116500,-1.483228
0.116600,-1.472841
0.116700,-1.508870
0.116800,-1.456937
0.116900,-1.452717
0.117000,-1.341710
0.117100,-1.257968
0.117200,-1.277118
0.117300,-1.384880
0.117400,-1.471868
0.117500,-1.442006
0.117600,-1.360861
0.117700,-1.254398
0.117800,-1.262512
0.117900,-1.319963
0.118000,-1.398188
0.118100,-1.391047
0.118200,-1.332946
0.118300,-1.247906
0.118400,-1.206684
0.118500,-1.220641
0.118600,-1.222913
0.118700,-1.237519
0.118800,-1.215123
0.118900,-1.201166
0.119000,-1.203763
0.119100,-1.207982
0.119200,-1.227782
0.119300,-1.249204
0.119400,-1.237844
0.119500,-1.311849
0.119600,-1.328078
0.119700,-1.359562
0.119800,-1.347228
0.119900,-1.347877
0.120000,-1.345281
0.120100,-1.393968
0.120200,-1.517309
0.120300,-1.527047
0.120400,-1.488097
0.120500,-1.382608
0.120600,-1.375467
0.120700,-1.435190
0.120800,-1.532565
0.120900,-1.548469
0.121000,-1.507247
0.121100,-1.415715
0.121200,-1.370923
0.121300,-1.395266
0.121400,-1.444278
0.121500,-1.449796
0.121600,-1.438760
0.121700,-1.420908
0.121800,-1.407600
0.121900,-1.402083
0.122000,-1.397538
0.122100,-1.383257
0.122200,-1.367352
0.122300,-1.374493
0.122400,-1.390073
0.122500,-1.394293
0.122600,-1.380335
0.122700,-1.373519
0.122800,-1.358913
0.122900,-1.401433
0.123000,-1.466025
0.123100,-1.506273
0.123200,-1.528345
0.123300,-1.542627
0.123400,-1.577032
0.123500,-1.604622
0.123600,-1.598130
0.123700,-1.616632
0.123800,-1.626044
0.123900,-1.614684
0.124000,-1.620527
0.124100,-1.623772
0.124200,-1.622474
0.124300,-1.611763
0.124400,-1.583524
0.124500,-1.588393
0.124600,-1.575410
0.124700,-1.573462
0.124800,-1.557882
0.124900,-1.555610
0.125000,-1.543276
0.125100,-1.543600
0.125200,-1.555610
0.125300,-1.640001
0.125400,-1.748737
0.125500,-1.776975
0.125600,-1.724718
0.125700,-1.636756
0.125800,-1.628641
0.125900,-1.717577
0.126000,-1.859419
0.126100,-1.927906
0.126200,-1.906159
0.126300,-1.809109
0.126400,-1.786388
0.126500,-1.810732
0.126600,-1.877921
0.126700,-1.916546
0.126800,-1.910379
0.126900,-1.864937
0.127000,-1.846436
0.127100,-1.853252
0.127200,-1.858121
0.127300,-1.838321
0.127400,-1.814627
0.127500,-1.812679
0.127600,-1.800021
0.127700,-1.815276
0.127800,-1.819171
0.127900,-1.791906
0.128000,-1.749386
0.128100,-1.725367
0.128200,-1.724068
0.128300,-1.690636
0.128400,-1.622149
0.128500,-1.523801
0.128600,-1.481605
0.128700,-1.504975
0.128800,-1.556259
0.128900,-1.584498
0.129000,-1.519581
0.129100,-1.436164
0.129200,-1.392345
0.129300,-1.428374
0.129400,-1.499457
0.129500,-1.560803
0.129600,-1.547171
0.129700,-1.481930
0.129800,-1.404030
0.129900,-1.380011
0.130000,-1.395915
0.130100,-1.392994
0.130200,-1.375142
0.130300,-1.354044
0.130400,-1.305682
0.130500,-1.262512
0.130600,-1.219992
0.130700,-1.151505
0.130800,-1.098598
0.130900,-1.076202
0.131000,-1.070035
0.131100,-1.061596
0.131200,-1.055104
0.131300,-0.987916
0.131400,-0.961300
0.131500,-0.949290
0.131600,-0.938904
0.131700,-0.910016
0.131800,-0.883725
0.131900,-0.856135
0.132000,-0.847696
0.132100,-0.819133
0.132200,-0.829520
0.132300,-0.856460
0.132400,-0.886971
0.132500,-0.901577
0.132600,-0.918780
0.132700,-0.966818
0.132800,-1.005768
0.132900,-1.020049
0.133000,-1.021997
0.133100,-1.054779
0.133200,-1.066140
0.133300,-1.118398
0.133400,-1.123591
0.133500,-1.127161
0.133600,-1.087562
0.133700,-0.998627
0.133800,-0.901577
0.133900,-1.014207
0.134000,-1.104116
0.134100,-1.170980
0.134200,-1.128135
0.134300,-1.031410
0.134400,-0.958054
0.134500,-0.988565
0.134600,-1.066464
0.134700,-1.133004
0.134800,-1.113853
0.134900,-1.044393
0.135000,-0.987916
0.135100,-0.981424
0.135200,-1.017128
0.135300,-1.055753
0.135400,-1.068737
0.135500,-1.083018
0.135600,-1.098923
0.135700,-1.127810
0.135800,-1.170980
0.135900,-1.198245
0.136000,-1.223238
0.136100,-1.269328
0.136200,-1.315419
0.136300,-1.387152
0.136400,-1.435514
0.136500,-1.463753
0.136600,-1.493939
0.136700,-1.500431
0.136800,-1.618904
0.136900,-1.704593
0.137000,-1.736078
0.137100,-1.690636
0.137200,-1.600078
0.137300,-1.616307
0.137400,-1.695181
0.137500,-1.788660
0.137600,-1.793854
0.137700,-1.703944
0.137800,-1.597806
0.137900,-1.545223
0.138000,-1.575410
0.138100,-1.627018
0.138200,-1.620851
0.138300,-1.599104
0.138400,-1.545223
0.138500,-1.550092
0.138600,-1.545873
0.138700,-1.535161
0.138800,-1.529968
0.138900,-1.527047
0.139000,-1.523152
0.139100,-1.548469
0.139200,-1.561777
0.139300,-1.540030
0.139400,-1.506273
0.139500,-1.497510
0.139600,-1.520555
0.139700,-1.552040
0.139800,-1.533538
0.139900,-1.523801
0.140000,-1.512116
0.140100,-1.514388
0.140200,-1.511791
0.140300,-1.456288
0.140400,-1.434541
0.140500,-1.426751
0.140600,-1.416040
0.140700,-1.419610
0.140800,-1.403056
0.140900,-1.391696
0.141000,-1.383581
0.141100,-1.397538
0.141200,-1.406627
0.141300,-1.419935
0.141400,-1.429672
0.141500,-1.436813
0.141600,-1.448822
0.141700,-1.473491
0.141800,-1.508221
0.141900,-1.541653
0.142000,-1.644870
0.142100,-1.778923
0.142200,-1.787362
0.142300,-1.702646
0.142400,-1.653959
0.142500,-1.674732
0.142600,-1.812679
0.142700,-1.928231
0.142800,-1.947706
0.142900,-1.899668
0.143000,-1.815601
0.143100,-1.810407
0.143200,-1.852603
0.143300,-1.924661
0.143400,-1.926283
0.143500,-1.928231
0.143600,-1.881816
0.143700,-1.886360
0.143800,-1.877921
0.143900,-1.891228
0.144000,-1.884088
0.144100,-1.896422
0.144200,-1.888307
0.144300,-1.910379
0.144400,-1.911677
0.144500,-1.913300
0.144600,-1.903238
0.144700,-1.895123
0.144800,-1.912002
0.144900,-1.913949
0.145000,-1.908107
0.145100,-1.847734
0.145200,-1.780221
0.145300,-1.780546
0.145400,-1.831505
0.145500,-1.907133
0.145600,-1.931801
0.145700,-1.871754
0.145800,-1.788011
0.145900,-1.766589
0.146000,-1.809109
0.146100,-1.898694
0.146200,-1.963935
0.146300,-1.937644
0.146400,-1.877596
0.146500,-1.796126
0.146600,-1.763992
0.146700,-1.753281
0.146800,-1.735753
0.146900,-1.697777
0.147000,-1.651362
0.147100,-1.588717
0.147200,-1.530617
0.147300,-1.463753
0.147400,-1.408899
0.147500,-1.349825
0.147600,-1.327429
0.147700,-1.324183
0.147800,-1.335219
0.147900,-1.296918
0.148000,-1.222913
0.148100,-1.198245
0.148200,-1.194025
0.148300,-1.179744
0.148400,-1.159944
0.148500,-1.135600
0.148600,-1.099572
0.148700,-1.087238
0.148800,-1.072631
0.148900,-1.060947
0.149000,-1.039524
0.149100,-1.069386
0.149200,-1.070684
0.149300,-1.102168
0.149400,-1.091782
0.149500,-1.089510
0.149600,-1.079772
0.149700,-1.061920
0.149800,-1.078474
0.149900,-1.050560
0.150000,-1.069710
0.150100,-1.045691
0.150200,-1.029137
0.150300,-0.928192
0.150400,-0.839582
0.150500,-0.755839
0.150600,-0.877233
0.150700,-0.992135
0.150800,-1.010636
0.150900,-0.976880
0.151000,-0.870092
0.151100,-0.834064
0.151200,-0.904498
0.151300,-1.002197
0.151400,-1.051858
0.151500,-1.040173
0.151600,-0.987266
0.151700,-0.961949
0.151800,-0.974283
0.151900,-1.017777
0.152000,-1.073281
0.152100,-1.103467
0.152200,-1.128784
0.152300,-1.117748
0.152400,-1.134302
0.152500,-1.146636
0.152600,-1.166760
0.152700,-1.202140
0.152800,-1.222913
0.152900,-1.266407
0.153000,-1.308278
0.153100,-1.318016
0.153200,-1.332297
0.153300,-1.331648
0.153400,-1.385529
0.153500,-1.473815
0.153600,-1.543925
0.153700,-1.527371
0.153800,-1.460832
0.153900,-1.381309
0.154000,-1.400784
0.154100,-1.474140
0.154200,-1.505300
0.154300,-1.466674
0.154400,-1.374818
0.154500,-1.280364
0.154600,-1.252125
0.154700,-1.290751
0.154800,-1.301137
0.154900,-1.301787
0.155000,-1.275820
0.155100,-1.212202
0.155200,-1.182989
0.155300,-1.136899
0.155400,-1.131381
0.155500,-1.104765
0.155600,-1.113529
0.155700,-1.123591
0.155800,-1.139820
0.155900,-1.126512
0.156000,-1.128135
0.156100,-1.121968
0.156200,-1.154102
0.156300,-1.221615
0.156400,-1.261538
0.156500,-1.260889
0.156600,-1.254722
0.156700,-1.270302
0.156800,-1.285557
0.156900,-1.256020
0.157000,-1.246932
0.157100,-1.244985
0.157200,-1.259915
0.157300,-1.259591
0.157400,-1.273223
0.157500,-1.304383
0.157600,-1.330674
0.157700,-1.359887
0.157800,-1.409223
0.157900,-1.426751
0.158000,-1.463104
0.158100,-1.480631
0.158200,-1.533214
0.158300,-1.576059
0.158400,-1.642598
0.158500,-1.675056
0.158600,-1.749710
0.158700,-1.894150
0.158800,-1.976594
0.158900,-1.946732
0.159000,-1.851954
0.159100,-1.783792
0.159200,-1.874999
0.159300,-2.007429
0.159400,-2.100260
0.159500,-2.091496
0.159600,-1.992823
0.159700,-1.931152
0.159800,-1.943162
0.159900,-2.010350
0.160000,-2.061959
0.160100,-2.048976
0.160200,-2.009701
0.160300,-1.963935
0.160400,-1.932126
0.160500,-1.912976
0.160600,-1.891228
0.160700,-1.892527
0.160800,-1.858121
0.160900,-1.855849
0.161000,-1.841243
0.161100,-1.835400
0.161200,-1.829233
0.161300,-1.814302
0.161400,-1.804240
0.161500,-1.802293
0.161600,-1.815601
0.161700,-1.788985
0.161800,-1.709787
0.161900,-1.648441
0.162000,-1.650064
0.162100,-1.714331
0.162200,-1.768212
0.162300,-1.732183
0.162400,-1.635457
0.162500,-1.538732
0.162600,-1.522178
0.162700,-1.567944
0.162800,-1.618254
0.162900,-1.620202
0.163000,-1.550092
0.163100,-1.471543
0.163200,-1.429997
0.163300,-1.407600
0.163400,-1.391371
0.163500,-1.365729
0.163600,-1.330674
0.163700,-1.311524
0.163800,-1.269004
0.163900,-1.236221
0.164000,-1.185262
0.164100,-1.149233
0.164200,-1.123591
0.164300,-1.117424
0.164400,-1.113204
0.164500,-1.121319
0.164600,-1.073281
0.164700,-1.049586
0.164800,-1.041472
0.164900,-1.054455
0.165000,-1.050560
0.165100,-1.049262
0.165200,-1.049911
0.165300,-1.044393
0.165400,-1.017777
0.165500,-1.016154
0.165600,-1.003171
0.165700,-1.047314
0.165800,-1.051209
0.165900,-1.086264
0.166000,-1.108011
0.166100,-1.131056
0.166200,-1.142417
0.166300,-1.165462
0.166400,-1.180393
0.166500,-1.213176
0.166600,-1.231028
0.166700,-1.289128
0.166800,-1.282961
0.166900,-1.280689
0.167000,-1.188507
0.167100,-1.103791
0.167200,-1.111581
0.167300,-1.260240
0.167400,-1.321911
0.167500,-1.355992
0.167600,-1.244985
0.167700,-1.172927
0.167800,-1.148259
0.167900,-1.219343
0.168000,-1.290102
0.168100,-1.300813
0.168200,-1.266732
0.168300,-1.195324
0.168400,-1.151830
0.168500,-1.163839
0.168600,-1.170006
0.168700,-1.195324
0.168800,-1.166436
0.168900,-1.168708
0.169000,-1.152154
0.169100,-1.170006
0.169200,-1.178121
0.169300,-1.177147
0.169400,-1.170980
0.169500,-1.214474
0.169600,-1.217071
0.169700,-1.259591
0.169800,-1.257643
0.169900,-1.259266
0.170000,-1.261863
0.170100,-1.311849
0.170200,-1.448498
0.170300,-1.468946
0.170400,-1.458884
0.170500,-1.344631
0.170600,-1.321911
0.170700,-1.385853
0.170800,-1.491992
0.170900,-1.534188
0.171000,-1.493615
0.171100,-1.402407
0.171200,-1.342035
0.171300,-1.350474
0.171400,-1.410197
0.171500,-1.439734
0.171600,-1.402083
0.171700,-1.362159
0.171800,-1.318665
0.171900,-1.310550
0.172000,-1.265109
0.172100,-1.240116
0.172200,-1.221939
0.172300,-1.211553
0.172400,-1.233624
0.172500,-1.217071
0.172600,-1.178445
0.172700,-1.136899
0.172800,-1.097300
0.172900,-1.102168
0.173000,-1.145662
0.173100,-1.160269
0.173200,-1.171954
0.173300,-1.163839
0.173400,-1.189806
0.173500,-1.201166
0.173600,-1.157347
0.173700,-1.170331
0.173800,-1.156698
0.173900,-1.170655
0.174000,-1.175849
0.174100,-1.201491
0.174200,-1.212202
0.174300,-1.218369
0.174400,-1.236221
0.174500,-1.251801
0.174600,-1.268355
0.174700,-1.297242
0.174800,-1.287830
0.174900,-1.335868
0.175000,-1.328727
0.175100,-1.353071
0.175200,-1.380985
0.175300,-1.480307
0.175400,-1.602674
0.175500,-1.684145
0.175600,-1.607868
0.175700,-1.528345
0.175800,-1.531915
0.175900,-1.652336
0.176000,-1.794178
0.176100,-1.873376
0.176200,-1.857796
0.176300,-1.797099
0.176400,-1.744517
0.176500,-1.800021
0.176600,-1.883114
0.176700,-1.942188
0.176800,-1.925959
0.176900,-1.908431
0.177000,-1.855524
0.177100,-1.849033
0.177200,-1.843839
0.177300,-1.841892
0.177400,-1.826312
0.177500,-1.829882
0.177600,-1.837023
0.177700,-1.864288
0.177800,-1.890904
0.177900,-1.908107
0.178000,-1.888307
0.178100,-1.905510
0.178200,-1.951601
0.178300,-1.978541
0.178400,-1.939267
0.178500,-1.881166
0.178600,-1.871429
0.178700,-1.923038
0.178800,-2.035668
0.178900,-2.103830
0.179000,-2.049950
0.179100,-1.946083
0.179200,-1.875649
0.179300,-1.883439
0.179400,-1.952250
0.179500,-2.014570
0.179600,-2.022035
0.179700,-1.964260
0.179800,-1.899018
0.179900,-1.879219
0.180000,-1.882789
0.180100,-1.907782
0.180200,-1.895448
0.180300,-1.900641
0.180400,-1.878894
0.180500,-1.848059
0.180600,-1.828584
0.180700,-1.817224
0.180800,-1.793529
0.180900,-1.762045
0.181000,-1.769185
0.181100,-1.776326
0.181200,-1.766913
0.181300,-1.707839
0.181400,-1.662398
0.181500,-1.660126
0.181600,-1.663371
0.181700,-1.623772
0.181800,-1.600402
0.181900,-1.559180
0.182000,-1.534512
0.182100,-1.501080
0.182200,-1.490369
0.182300,-1.466674
0.182400,-1.465051
0.182500,-1.470569
0.182600,-1.463753
0.182700,-1.466350
0.182800,-1.452393
0.182900,-1.471543
0.183000,-1.455639
0.183100,-1.477386
0.183200,-1.468622
0.183300,-1.543276
0.183400,-1.529643
0.183500,-1.582875
0.183600,-1.553338
0.183700,-1.487772
0.183800,-1.426751
0.183900,-1.525424
0.184000,-1.695181
0.184100,-1.770484
0.184200,-1.754255
0.184300,-1.676679
0.184400,-1.621825
0.184500,-1.645519
0.184600,-1.704269
0.184700,-1.788011
0.184800,-1.768861
0.184900,-1.707839
0.185000,-1.640975
0.185100,-1.596832
0.185200,-1.592288
0.185300,-1.578980
0.185400,-1.552689
0.185500,-1.501729
0.185600,-1.444927
0.185700,-1.388125
0.185800,-1.314770
0.185900,-1.239467
0.186000,-1.177472
0.186100,-1.129109
0.186200,-1.083667
0.186300,-1.032708
0.186400,-0.979152
0.186500,-0.909367
0.186600,-0.830169
0.186700,-0.797710
0.186800,-0.792193
0.186900,-0.839582
0.187000,-0.757462
0.187100,-0.645806
0.187200,-0.495849
0.187300,-0.440346
0.187400,-0.463716
0.187500,-0.520193
0.187600,-0.482541
0.187700,-0.381921
0.187800,-0.249492
0.187900,-0.177759
0.188000,-0.170618
0.188100,-0.166723
0.188200,-0.144652
0.188300,-0.105702
0.188400,0.357476
0.188500,0.573647
0.188600,0.726525
0.188700,0.869666
0.188800,1.107909
0.188900,1.106935
0.189000,1.072854
0.189100,0.904071
0.189200,0.756387
0.189300,0.780406
0.189400,0.636616
0.189500,0.617141
0.189600,0.185123
0.189700,-0.446837
0.189800,-0.450083
0.189900,-0.507859
0.190000,-0.586408
0.190100,-0.657816
0.190200,-0.726627
0.190300,-0.761357
0.190400,-0.839257
0.190500,-0.902550
0.190600,-0.960326
0.190700,-1.017777
0.190800,-1.087887
0.190900,-1.155075
0.191000,-1.201491
0.191100,-1.254722
0.191200,-1.294646
0.191300,-1.320288
0.191400,-1.365080
0.191500,-1.414741
0.191600,-1.455314
0.191700,-1.507247
0.191800,-1.540679
0.191900,-1.579954
0.192000,-1.682522
0.192100,-1.822092
0.192200,-1.857472
0.192300,-1.803591
0.192400,-1.727963
0.192500,-1.751982
0.192600,-1.912326
0.192700,-2.036642
0.192800,-2.117463
0.192900,-2.076890
0.193000,-2.020737
0.193100,-1.996718
0.193200,-2.090198
0.193300,-2.175888
0.193400,-2.214838
0.193500,-2.191143
0.193600,-2.150246
0.193700,-2.133692
0.193800,-2.146026
0.193900,-2.148623
0.194000,-2.149597
0.194100,-2.136289
0.194200,-2.135315
0.194300,-2.128499
0.194400,-2.139210
0.194500,-2.159659
0.194600,-2.112594
0.194700,-2.094093
0.194800,-2.108374
0.194900,-2.116489
0.195000,-2.105453
0.195100,-2.011324
0.195200,-1.927906
0.195300,-1.919467
0.195400,-1.966532
0.195500,-2.052546
0.195600,-2.078837
0.195700,-2.012622
0.195800,-1.919143
0.195900,-1.870780
0.196000,-1.914923
0.196100,-2.016842
0.196200,-2.080785
0.196300,-2.048976
0.196400,-1.984059
0.196500,-1.941214
0.196600,-1.914598
0.196700,-1.929854
0.196800,-1.927257
0.196900,-1.904861
0.197000,-1.863639
0.197100,-1.810732
0.197200,-1.766589
0.197300,-1.725367
0.197400,-1.664021
0.197500,-1.627667
0.197600,-1.586770
0.197700,-1.568918
0.197800,-1.562102
0.197900,-1.524450
0.198000,-1.460832
0.198100,-1.411495
0.198200,-1.396565
0.198300,-1.410522
0.198400,-1.375791
0.198500,-1.363457
0.198600,-1.333920
0.198700,-1.337815
0.198800,-1.309577
0.198900,-1.322884
0.199000,-1.343658
0.199100,-1.355667
0.199200,-1.359238
0.199300,-1.352097
0.199400,-1.377739
0.199500,-1.373844
0.199600,-1.386178
0.199700,-1.402732
0.199800,-1.420584
0.199900,-1.457586
0.200000,-1.499457
0.200100,-1.478359
0.200200,-1.502054
0.200300,-1.404355
0.200400,-1.357615
0.200500,-1.288479
0.200600,-1.413443
0.200700,-1.529968
0.200800,-1.527371
0.200900,-1.476087
0.201000,-1.349500
0.201100,-1.289452
0.201200,-1.300164
0.201300,-1.347877
0.201400,-1.373195
0.201500,-1.338789
0.201600,-1.246283
0.201700,-1.181691
0.201800,-1.182016
0.201900,-1.205061
0.202000,-1.226808
0.202100,-1.248880
0.202200,-1.266732
0.202300,-1.257643
0.202400,-1.272574
0.202500,-1.291400
0.202600,-1.292374
0.202700,-1.304383
0.202800,-1.324832
0.202900,-1.351448
0.203000,-1.350798
0.203100,-1.352746
0.203200,-1.313472
0.203300,-1.286207
0.203400,-1.280364
0.203500,-1.378388
0.203600,-1.413767
0.203700,-1.407925
0.203800,-1.319963
0.203900,-1.207333
0.204000,-1.225510
0.204100,-1.301787
0.204200,-1.397538
0.204300,-1.379686
0.204400,-1.313147
0.204500,-1.238168
0.204600,-1.239791
0.204700,-1.300488
0.204800,-1.394293
0.204900,-1.423505
0.205000,-1.439085
0.205100,-1.425777
0.205200,-1.459209
0.205300,-1.462779
0.205400,-1.494264
0.205500,-1.510168
0.205600,-1.520231
0.205700,-1.553987
0.205800,-1.575734
0.205900,-1.581901
0.206000,-1.576383
0.206100,-1.568593
0.206200,-1.584173
0.206300,-1.640001
0.206400,-1.678627
0.206500,-1.693558
0.206600,-1.691935
0.206700,-1.717577
0.206800,-1.747438
0.206900,-1.748737
0.207000,-1.729586
0.207100,-1.722445
0.207200,-1.706216
0.207300,-1.706865
0.207400,-1.723744
0.207500,-1.702970
0.207600,-1.715305
0.207700,-1.711410
0.207800,-1.730885
0.207900,-1.740947
0.208000,-1.758150
0.208100,-1.799696
0.208200,-1.816250
0.208300,-1.867209
0.208400,-1.904536
0.208500,-1.968804
0.208600,-2.046704
0.208700,-2.205425
0.208800,-2.348891
0.208900,-2.384270
0.209000,-2.335258
0.209100,-2.324222
0.209200,-2.404070
0.209300,-2.566686
0.209400,-2.691326
0.209500,-2.697493
0.209600,-2.596872
0.209700,-2.492681
0.209800,-2.482619
0.209900,-2.527412
0.210000,-2.553378
0.210100,-2.526438
0.210200,-2.447889
0.210300,-2.366743
0.210400,-2.313186
0.210500,-2.261902
0.210600,-2.213215
0.210700,-2.167773
0.210800,-2.104804
0.210900,-2.058389
0.211000,-2.012947
0.211100,-1.991200
0.211200,-1.983410
0.211300,-1.935696
0.211400,-1.949653
0.211500,-1.986331
0.211600,-2.024307
0.211700,-2.050599
0.211800,-2.039563
0.211900,-2.019763
0.212000,-2.086303
0.212100,-2.211916
0.212200,-2.332337
0.212300,-2.378752
0.212400,-2.350189
0.212500,-2.298905
0.212600,-2.336556
0.212700,-2.431984
0.212800,-2.541044
0.212900,-2.602066
0.213000,-2.598820
0.213100,-2.528710
0.213200,-2.494629
0.213300,-2.492357
0.213400,-2.508910
0.213500,-2.509559
0.213600,-2.509884
0.213700,-2.471259
0.213800,-2.402771
0.213900,-2.316108
0.214000,-2.234313
0.214100,-2.136613
0.214200,-2.068451
0.214300,-2.018465
0.214400,-1.978217
0.214500,-1.940565
0.214600,-1.857147
0.214700,-1.783142
0.214800,-1.736403
0.214900,-1.741920
0.215000,-1.707839
0.215100,-1.652985
0.215200,-1.595209
0.215300,-1.535810
0.215400,-1.449796
0.215500,-1.384880
0.215600,-1.341386
0.215700,-1.325481
0.215800,-1.295295
0.215900,-1.275495
0.216000,-1.271276
0.216100,-1.263810
0.216200,-1.249529
0.216300,-1.263486
0.216400,-1.245634
0.216500,-1.244011
0.216600,-1.241739
0.216700,-1.223887
0.216800,-1.208307
0.216900,-1.139495
0.217000,-1.041472
0.217100,-0.929166
0.217200,-0.896059
0.217300,-1.008040
0.217400,-1.057376
0.217500,-1.063543
0.217600,-0.963896
0.217700,-0.872364
0.217800,-0.848021
0.217900,-0.918130
0.218000,-1.006741
0.218100,-1.040822
0.218200,-1.001223
0.218300,-0.955782
0.218400,-0.945395
0.218500,-0.973309
0.218600,-1.031734
0.218700,-1.073281
0.218800,-1.103791
0.218900,-1.119371
0.219000,-1.142092
0.219100,-1.178445
0.219200,-1.202464
0.219300,-1.217071
0.219400,-1.259591
0.219500,-1.316717
0.219600,-1.347553
0.219700,-1.371247
0.219800,-1.367028
0.219900,-1.355667
0.220000,-1.345930
0.220100,-1.364756
0.220200,-1.466674
0.220300,-1.501405
0.220400,-1.474464
0.220500,-1.394942
0.220600,-1.365080
0.220700,-1.442331
0.220800,-1.580278
0.220900,-1.649090
0.221000,-1.641624
0.221100,-1.581577
0.221200,-1.547171
0.221300,-1.589042
0.221400,-1.681873
0.221500,-1.741271
0.221600,-1.744192
0.221700,-1.739324
0.221800,-1.726990
0.221900,-1.764641
0.222000,-1.786388
0.222100,-1.799047
0.222200,-1.797099
0.222300,-1.820794
0.222400,-1.837348
0.222500,-1.862016
0.222600,-1.854875
0.222700,-1.827935
0.222800,-1.807811
0.222900,-1.802293
0.223000,-1.825014
0.223100,-1.830856
0.223200,-1.798398
0.223300,-1.748087
0.223400,-1.735429
0.223500,-1.716603
0.223600,-1.684794
0.223700,-1.673758
0.223800,-1.648441
0.223900,-1.631562
0.224000,-1.613386
0.224100,-1.624097
0.224200,-1.583849
0.224300,-1.554312
0.224400,-1.521853
0.224500,-1.479658
0.224600,-1.438111
0.224700,-1.378713
0.224800,-1.333271
0.224900,-1.279066
0.225000,-1.256345
0.225100,-1.223238
0.225200,-1.204736
0.225300,-1.237195
0.225400,-1.315094
0.225500,-1.352097
0.225600,-1.255047
0.225700,-1.169682
0.225800,-1.124240
0.225900,-1.209605
0.226000,-1.341386
0.226100,-1.426102
0.226200,-1.382283
0.226300,-1.284259
0.226400,-1.212526
0.226500,-1.248230
0.226600,-1.317367
0.226700,-1.365405
0.226800,-1.352097
0.226900,-1.296269
0.227000,-1.272899
0.227100,-1.269653
0.227200,-1.273872
0.227300,-1.262188
0.227400,-1.284259
0.227500,-1.290102
0.227600,-1.289777
0.227700,-1.312498
0.227800,-1.370273
0.227900,-1.376440
0.228000,-1.391371
0.228100,-1.411820
0.228200,-1.442331
0.228300,-1.484202
0.228400,-1.485176
0.228500,-1.423505
0.228600,-1.418312
0.228700,-1.463753
0.228800,-1.559180
0.228900,-1.615009
0.229000,-1.603648
0.229100,-1.501405
0.229200,-1.421557
0.229300,-1.436488
0.229400,-1.510818
0.229500,-1.600402
0.229600,-1.620527
0.229700,-1.588068
0.229800,-1.557557
0.229900,-1.564698
0.230000,-1.603324
0.230100,-1.655581
0.230200,-1.675381
0.230300,-1.693882
0.230400,-1.710760
0.230500,-1.702321
0.230600,-1.707839
0.230700,-1.713357
0.230800,-1.725691
0.230900,-1.729911
0.231000,-1.762694
0.231100,-1.806512
0.231200,-1.845138
0.231300,-1.804565
0.231400,-1.791582
0.231500,-1.818197
0.231600,-1.849357
0.231700,-1.843839
0.231800,-1.839944
0.231900,-1.835076
0.232000,-1.803591
0.232100,-1.773405
0.232200,-1.753281
0.232300,-1.765290
0.232400,-1.778923
0.232500,-1.789959
0.232600,-1.779247
0.232700,-1.784116
0.232800,-1.775028
0.232900,-1.772431
0.233000,-1.803916
0.233100,-1.811381
0.233200,-1.861367
0.233300,-1.871754
0.233400,-1.876622
0.233500,-1.871104
0.233600,-1.822092
0.233700,-1.753281
0.233800,-1.614684
0.233900,-1.686092
0.234000,-1.766913
0.234100,-1.827286
0.234200,-1.767562
0.234300,-1.654932
0.234400,-1.560803
0.234500,-1.527047
0.234600,-1.589691
0.234700,-1.638054
0.234800,-1.608192
0.234900,-1.513414
0.235000,-1.424154
0.235100,-1.395266
0.235200,-1.366054
0.235300,-1.376765
0.235400,-1.344956
0.235500,-1.307304
0.235600,-1.247257
0.235700,-1.204087
0.235800,-1.156374
0.235900,-1.114827
0.236000,-1.056078
0.236100,-1.055104
0.236200,-1.061596
0.236300,-1.078474
0.236400,-1.093729
0.236500,-1.108985
0.236600,-1.111257
0.236700,-1.139495
0.236800,-1.224211
0.236900,-1.364756
0.237000,-1.400784
0.237100,-1.391371
0.237200,-1.295619
0.237300,-1.297567
0.237400,-1.384880
0.237500,-1.503352
0.237600,-1.551066
0.237700,-1.503677
0.237800,-1.392345
0.237900,-1.365080
0.238000,-1.383906
0.238100,-1.474789
0.238200,-1.519581
0.238300,-1.517309
0.238400,-1.515037
0.238500,-1.491018
0.238600,-1.501080
0.238700,-1.510493
0.238800,-1.536135
0.238900,-1.551390
0.239000,-1.578980
0.239100,-1.618579
0.239200,-1.626694
0.239300,-1.631887
0.239400,-1.634808
0.239500,-1.620202
0.239600,-1.660450
0.239700,-1.690312
0.239800,-1.700698
0.239900,-1.707839
0.240000,-1.684469
0.240100,-1.686741
0.240200,-1.685118
0.240300,-1.644546
0.240400,-1.645195
0.240500,-1.621500
0.240600,-1.622799
0.240700,-1.624422
0.240800,-1.630913
0.240900,-1.654608
0.241000,-1.644221
0.241100,-1.637729
0.241200,-1.663696
0.241300,-1.676355
0.241400,-1.686092
0.241500,-1.658178
0.241600,-1.672460
0.241700,-1.649739
0.241800,-1.639352
0.241900,-1.631238
0.242000,-1.687715
0.242100,-1.771457
0.242200,-1.745815
0.242300,-1.662722
0.242400,-1.520555
0.242500,-1.505949
0.242600,-1.617281
0.242700,-1.703944
0.242800,-1.724068
0.242900,-1.651037
0.243000,-1.531266
0.243100,-1.478359
0.243200,-1.490044
0.243300,-1.523476
0.243400,-1.518608
0.243500,-1.455314
0.243600,-1.361834
0.243700,-1.296593
0.243800,-1.219992
0.243900,-1.181691
0.244000,-1.118722
0.244100,-1.045691
0.244200,-0.981424
0.244300,-0.912613
0.244400,-0.879505
0.244500,-0.825949
0.244600,-0.761357
0.244700,-0.716565
0.244800,-0.679238
0.244900,-0.693844
0.245000,-0.675343
0.245100,-0.607505
0.245200,-0.517921
0.245300,-0.497797
0.245400,-0.574723
0.245500,-0.656517
0.245600,-0.708450
0.245700,-0.678589
0.245800,-0.613997
0.245900,-0.610427
0.246000,-0.673396
0.246100,-0.815238
0.246200,-0.937605
0.246300,-0.983371
0.246400,-1.012908
0.246500,-1.020698
0.246600,-1.071658
0.246700,-1.156049
0.246800,-1.239467
0.246900,-1.307954
0.247000,-1.355992
0.247100,-1.376116
0.247200,-1.367352
0.247300,-1.375791
0.247400,-1.378063
0.247500,-1.374493
0.247600,-1.401433
0.247700,-1.432269
0.247800,-1.477061
0.247900,-1.484851
0.248000,-1.449796
0.248100,-1.428374
0.248200,-1.407276
0.248300,-1.422856
0.248400,-1.400135
0.248500,-1.360861
0.248600,-1.350798
0.248700,-1.333596
0.248800,-1.294321
0.248900,-1.269328
0.249000,-1.265109
0.249100,-1.287180
0.249200,-1.279066
0.249300,-1.282636
0.249400,-1.309901
0.249500,-1.314445
0.249600,-1.328078
0.249700,-1.335543
0.249800,-1.328078
0.249900,-1.347877
0.250000,-1.346254
0.250100,-1.370598
0.250200,-1.347228
0.250300,-1.271600
0.250400,-1.177472
0.250500,-1.130083
0.250600,-1.229080
0.250700,-1.354044
0.250800,-1.376116
0.250900,-1.368651
0.251000,-1.254722
0.251100,-1.201815
0.251200,-1.212202
0.251300,-1.301137
0.251400,-1.356641
0.251500,-1.317367
0.251600,-1.239467
0.251700,-1.149557
0.251800,-1.119047
0.251900,-1.145987
0.252000,-1.152154
0.252100,-1.147935
0.252200,-1.103791
0.252300,-1.099896
0.252400,-1.082369
0.252500,-1.083018
0.252600,-1.104441
0.252700,-1.131705
0.252800,-1.139495
0.252900,-1.218693
0.253000,-1.232001
0.253100,-1.285557
0.253200,-1.295295
0.253300,-1.319639
0.253400,-1.380985
0.253500,-1.520231
0.253600,-1.642598
0.253700,-1.684794
0.253800,-1.641624
0.253900,-1.596183
0.254000,-1.619553
0.254100,-1.737701
0.254200,-1.834426
0.254300,-1.853252
0.254400,-1.791906
0.254500,-1.716928
0.254600,-1.709462
0.254700,-1.764317
0.254800,-1.801968
0.254900,-1.828909
0.255000,-1.843190
0.255100,-1.811381
0.255200,-1.818197
0.255300,-1.827610
0.255400,-1.819171
0.255500,-1.842216
0.255600,-1.850656
0.255700,-1.873052
0.255800,-1.906159
0.255900,-1.926283
0.256000,-1.916871
0.256100,-1.936021
0.256200,-1.932775
0.256300,-1.987630
0.256400,-2.037615
0.256500,-2.068775
0.256600,-2.075916
0.256700,-2.080785
0.256800,-2.091821
0.256900,-2.097663
0.257000,-2.063907
0.257100,-2.040861
0.257200,-2.015219
0.257300,-2.000288
0.257400,-1.969128
0.257500,-1.929854
0.257600,-1.928880
0.257700,-1.920116
0.257800,-1.914923
0.257900,-1.908107
0.258000,-1.915248
0.258100,-1.936995
0.258200,-1.939267
0.258300,-1.965558
0.258400,-1.964909
0.258500,-1.998990
0.258600,-2.036317
0.258700,-2.145702
0.258800,-2.265473
0.258900,-2.249244
0.259000,-2.181406
0.259100,-2.123630
0.259200,-2.164527
0.259300,-2.287220
0.259400,-2.419325
0.259500,-2.436853
0.259600,-2.364146
0.259700,-2.294685
0.259800,-2.279105
0.259900,-2.336881
0.260000,-2.408939
0.260100,-2.434905
0.260200,-2.395306
0.260300,-2.349540
0.260400,-2.320003
0.260500,-2.319678
0.260600,-2.331363
0.260700,-2.359926
0.260800,-2.348891
0.260900,-2.367716
0.261000,-2.376480
0.261100,-2.406342
0.261200,-2.397903
0.261300,-2.393034
0.261400,-2.374533
0.261500,-2.368690
0.261600,-2.379726
0.261700,-2.326494
0.261800,-2.214838
0.261900,-2.133367
0.262000,-2.108374
0.262100,-2.139534
0.262200,-2.202504
0.262300,-2.207372
0.262400,-2.123305
0.262500,-2.028852
0.262600,-2.000938
0.262700,-2.045405
0.262800,-2.137912
0.262900,-2.192117
0.263000,-2.146351
0.263100,-2.087277
0.263200,-2.032747
0.263300,-2.001587
0.263400,-1.986331
0.263500,-1.941214
0.263600,-1.913300
0.263700,-1.860718
0.263800,-1.781844
0.263900,-1.715305
0.264000,-1.643896
0.264100,-1.601376
0.264200,-1.540355
0.264300,-1.519257
0.264400,-1.527696
0.264500,-1.543925
0.264600,-1.488097
0.264700,-1.436164
0.264800,-1.421233
0.264900,-1.442331
0.265000,-1.442655
0.265100,-1.428049
0.265200,-1.429672
0.265300,-1.441357
0.265400,-1.433242
0.265500,-1.450445
0.265600,-1.468622
0.265700,-1.520880
0.265800,-1.541653
0.265900,-1.575734
0.266000,-1.599104
0.266100,-1.625720
0.266200,-1.622474
0.266300,-1.647142
0.266400,-1.628641
0.266500,-1.655906
0.266600,-1.654283
0.266700,-1.653959
0.266800,-1.666942
0.266900,-1.615333
0.267000,-1.556259
0.267100,-1.397863
0.267200,-1.421557
0.267300,-1.495887
0.267400,-1.617605
0.267500,-1.623123
0.267600,-1.564374
0.267700,-1.473491
0.267800,-1.424803
0.267900,-1.506923
0.268000,-1.615982
0.268100,-1.697777
0.268200,-1.692259
0.268300,-1.640651
0.268400,-1.625720
0.268500,-1.639028
0.268600,-1.683171
0.268700,-1.715954
0.268800,-1.738025
0.268900,-1.759448
0.269000,-1.765290
0.269100,-1.783142
0.269200,-1.775677
0.269300,-1.773405
0.269400,-1.763667
0.269500,-1.842866
0.269600,-1.842541
0.269700,-1.874999
0.269800,-1.864937
0.269900,-1.862341
0.270000,-1.852928
0.270100,-1.889281
0.270200,-1.998990
0.270300,-2.010350
0.270400,-1.983085
0.270500,-1.891228
0.270600,-1.837997
0.270700,-1.883114
0.270800,-1.975620
0.270900,-2.049300
0.271000,-2.055143
0.271100,-1.981138
0.271200,-1.934073
0.271300,-1.944135
0.271400,-2.012622
0.271500,-2.048002
0.271600,-2.060336
0.271700,-2.059362
0.271800,-2.047677
0.271900,-2.086303
0.272000,-2.075592
0.272100,-2.091172
0.272200,-2.081434
0.272300,-2.078837
0.272400,-2.125577
0.272500,-2.138561
0.272600,-2.137912
0.272700,-2.122007
0.272800,-2.095067
0.272900,-2.098962
0.273000,-2.122656
0.273100,-2.138236
0.273200,-2.129472
0.273300,-2.097014
0.273400,-2.079487
0.273500,-2.070398
0.273600,-2.032097
0.273700,-1.992174
0.273800,-1.951601
0.273900,-1.900641
0.274000,-1.841243
0.274100,-1.803267
0.274200,-1.767562
0.274300,-1.732832
0.274400,-1.696154
0.274500,-1.646818
0.274600,-1.624422
0.274700,-1.593911
0.274800,-1.548794
0.274900,-1.554312
0.275000,-1.532889
0.275100,-1.561777
0.275200,-1.567295
0.275300,-1.616956
0.275400,-1.721796
0.275500,-1.796126
0.275600,-1.760422
0.275700,-1.653634
0.275800,-1.620851
0.275900,-1.707839
0.276000,-1.866236
0.276100,-1.949978
0.276200,-1.966856
0.276300,-1.909405
0.276400,-1.887658
0.276500,-1.963935
0.276600,-2.087277
0.276700,-2.196012
0.276800,-2.213864
0.276900,-2.222628
0.277000,-2.217110
0.277100,-2.216785
0.277200,-2.215487
0.277300,-2.190169
0.277400,-2.142131
0.277500,-2.089873
0.277600,-2.034694
0.277700,-2.002560
0.277800,-1.959715
0.277900,-1.886684
0.278000,-1.819171
0.278100,-1.770808
0.278200,-1.753930
0.278300,-1.720823
0.278400,-1.644870
0.278500,-1.555610
0.278600,-1.505624
0.278700,-1.509195
0.278800,-1.558531
0.278900,-1.611763
0.279000,-1.590989
0.279100,-1.504651
0.279200,-1.414417
0.279300,-1.410846
0.279400,-1.492316
0.279500,-1.563075
0.279600,-1.571190
0.279700,-1.529968
0.279800,-1.471543
0.279900,-1.465376
0.280000,-1.473815
0.280100,-1.504651
0.280200,-1.502378
0.280300,-1.489720
0.280400,-1.461157
0.280500,-1.420584
0.280600,-1.392020
0.280700,-1.340087
0.280800,-1.286207
0.280900,-1.263486
0.281000,-1.255696
0.281100,-1.231352
0.281200,-1.217071
0.281300,-1.117748
0.281400,-1.061920
0.281500,-1.029787
0.281600,-1.024593
0.281700,-0.992784
0.281800,-0.927868
0.281900,-0.881453
0.282000,-0.833739
0.282100,-0.780183
0.282200,-0.742856
0.282300,-0.725653
0.282400,-0.719486
0.282500,-0.696441
0.282600,-0.708450
0.282700,-0.726302
0.282800,-0.738961
0.282900,-0.766875
0.283000,-0.774341
0.283100,-0.805500
0.283200,-0.829844
0.283300,-0.868794
0.283400,-0.925271
0.283500,-0.957405
0.283600,-0.964221
0.283700,-0.904498
0.283800,-0.836660
0.283900,-0.839906
0.284000,-1.046665
0.284100,-1.126512
0.284200,-1.166436
0.284300,-1.092756
0.284400,-1.036603
0.284500,-1.068737
0.284600,-1.175849
0.284700,-1.269653
0.284800,-1.315094
0.284900,-1.289777
0.285000,-1.247906
0.285100,-1.271276
0.285200,-1.350798
0.285300,-1.409872
0.285400,-1.475438
0.285500,-1.499133
0.285600,-1.528994
0.285700,-1.566970
0.285800,-1.604297
0.285900,-1.643572
0.286000,-1.642923
0.286100,-1.680250
0.286200,-1.714655
0.286300,-1.749386
0.286400,-1.779247
0.286500,-1.779247
0.286600,-1.779247
0.286700,-1.806188
0.286800,-1.857147
0.286900,-1.999639
0.287000,-2.017167
0.287100,-1.990226
0.287200,-1.885061
0.287300,-1.874026
0.287400,-1.927582
0.287500,-2.013272
0.287600,-2.036642
0.287700,-2.003534
0.287800,-1.877596
0.287900,-1.817548
0.288000,-1.837997
0.288100,-1.903887
0.288200,-1.930828
0.288300,-1.925634
0.288400,-1.893825
0.288500,-1.880517
0.288600,-1.890904
0.288700,-1.911028
0.288800,-1.912651
0.288900,-1.901291
0.289000,-1.914274
0.289100,-1.940565
0.289200,-1.933749
0.289300,-1.918818
0.289400,-1.887983
0.289500,-1.840269
0.289600,-1.820794
0.289700,-1.800345
0.289800,-1.774379
0.289900,-1.718550
0.290000,-1.658827
0.290100,-1.621176
0.290200,-1.571190
0.290300,-1.497510
0.290400,-1.442655
0.290500,-1.386178
0.290600,-1.332297
0.290700,-1.293347
0.290800,-1.235896
0.290900,-1.199543
0.291000,-1.153128
0.291100,-1.121319
0.291200,-1.080746
0.291300,-1.047963
0.291400,-1.001223
0.291500,-0.972336
0.291600,-0.940527
0.291700,-0.915534
0.291800,-0.878531
0.291900,-0.869443
0.292000,-0.917806
0.292100,-1.046016
0.292200,-1.043419
0.292300,-0.979476
0.292400,-0.885023
0.292500,-0.857758
0.292600,-0.952212
0.292700,-1.087562
0.292800,-1.150207
0.292900,-1.121968
0.293000,-1.017777
0.293100,-0.993433
0.293200,-1.039849
0.293300,-1.114178
0.293400,-1.169682
0.293500,-1.173252
0.293600,-1.157672
0.293700,-1.138846
0.293800,-1.157997
0.293900,-1.187858
0.294000,-1.239142
0.294100,-1.268355
0.294200,-1.294646
0.294300,-1.311849
0.294400,-1.371247
0.294500,-1.408574
0.294600,-1.452068
0.294700,-1.452393
0.294800,-1.479333
0.294900,-1.521204
0.295000,-1.558207
0.295100,-1.537758
0.295200,-1.492641
0.295300,-1.493939
0.295400,-1.540030
0.295500,-1.635133
0.295600,-1.703295
0.295700,-1.680250
0.295800,-1.598455
0.295900,-1.562426
0.296000,-1.592612
0.296100,-1.685768
0.296200,-1.751009
0.296300,-1.743219
0.296400,-1.667266
0.296500,-1.621500
0.296600,-1.628641
0.296700,-1.647791
0.296800,-1.666942
0.296900,-1.693558
0.297000,-1.692584
0.297100,-1.694856
0.297200,-1.683496
0.297300,-1.690961
0.297400,-1.664021
0.297500,-1.660126
0.297600,-1.657204
0.297700,-1.697777
0.297800,-1.730560
0.297900,-1.737052
0.298000,-1.703944
0.298100,-1.692259
0.298200,-1.732832
0.298300,-1.741271
0.298400,-1.729911
0.298500,-1.715305
0.298600,-1.708488
0.298700,-1.692908
0.298800,-1.683171
0.298900,-1.688689
0.299000,-1.715629
0.299100,-1.735429
0.299200,-1.775352
0.299300,-1.791582
0.299400,-1.834102
0.299500,-1.847085
0.299600,-1.872078
0.299700,-1.867534
0.299800,-1.913300
0.299900,-1.918493
0.300000,-1.947381
0.300100,-1.940565
0.300200,-1.947706
0.300300,-1.918169
0.300400,-1.789634
0.300500,-1.761395
0.300600,-1.828259
0.300700,-1.968804
0.300800,-2.012622
0.300900,-1.952250
0.301000,-1.859095
0.301100,-1.787687
0.301200,-1.788011
0.301300,-1.868183
0.301400,-1.918818
0.301500,-1.899668
0.301600,-1.819820
0.301700,-1.765290
0.301800,-1.750035
0.301900,-1.766589
0.302000,-1.786064
0.302100,-1.784116
0.302200,-1.752632
0.302300,-1.740298
0.302400,-1.750035
0.302500,-1.750360
0.302600,-1.758150
0.302700,-1.770159
0.302800,-1.792231
0.302900,-1.812030
0.303000,-1.833128
0.303100,-1.864937
0.303200,-1.853252
0.303300,-1.836374
0.303400,-1.869806
0.303500,-1.953224
0.303600,-2.035992
0.303700,-2.021062
0.303800,-1.961663
0.303900,-1.848384
0.304000,-1.850331
0.304100,-1.897071
0.304200,-1.972050
0.304300,-1.950627
0.304400,-1.865262
0.304500,-1.747438
0.304600,-1.680899
0.304700,-1.676355
0.304800,-1.676355
0.304900,-1.636756
0.305000,-1.602025
0.305100,-1.508221
0.305200,-1.456937
0.305300,-1.410522
0.305400,-1.368975
0.305500,-1.363782
0.305600,-1.359238
0.305700,-1.362808
0.305800,-1.370598
0.305900,-1.378063
0.306000,-1.379037
0.306100,-1.377090
0.306200,-1.363133
0.306300,-1.393643
0.306400,-1.432918
0.306500,-1.427725
0.306600,-1.422856
0.306700,-1.407600
0.306800,-1.418961
0.306900,-1.414092
0.307000,-1.375467
0.307100,-1.343658
0.307200,-1.326779
0.307300,-1.305357
0.307400,-1.273872
0.307500,-1.245309
0.307600,-1.223887
0.307700,-1.211553
0.307800,-1.218369
0.307900,-1.200192
0.308000,-1.212202
0.308100,-1.224211
0.308200,-1.259266
0.308300,-1.280689
0.308400,-1.302436
0.308500,-1.321911
0.308600,-1.393968
0.308700,-1.502054
0.308800,-1.610140
0.308900,-1.613710
0.309000,-1.564049
0.309100,-1.481930
0.309200,-1.514713
0.309300,-1.658178
0.309400,-1.750035
0.309500,-1.793854
0.309600,-1.747438
0.309700,-1.696803
0.309800,-1.723744
0.309900,-1.808135
0.310000,-1.898694
0.310100,-1.941539
0.310200,-1.954198
0.310300,-1.964584
0.310400,-1.977568
0.310500,-2.027229
0.310600,-2.096365
0.310700,-2.146351
0.310800,-2.155439
0.310900,-2.173940
0.311000,-2.224900
0.311100,-2.256384
0.311200,-2.280404
0.311300,-2.258981
0.311400,-2.248270
0.311500,-2.271315
0.311600,-2.302800
0.311700,-2.289167
0.311800,-2.225224
0.311900,-2.154141
0.312000,-2.188222
0.312100,-2.256709
0.312200,-2.358953
0.312300,-2.405693
0.312400,-2.355382
0.312500,-2.295010
0.312600,-2.291439
0.312700,-2.378752
0.312800,-2.502094
0.312900,-2.603364
0.313000,-2.605312
0.313100,-2.558572
0.313200,-2.540070
0.313300,-2.525464
0.313400,-2.546237
0.313500,-2.557273
0.313600,-2.546887
0.313700,-2.511832
0.313800,-2.444318
0.313900,-2.404070
0.314000,-2.317081
0.314100,-2.239831
0.314200,-2.161606
0.314300,-2.111620
0.314400,-2.073320
0.314500,-2.052546
0.314600,-1.985033
0.314700,-1.881491
0.314800,-1.820469
0.314900,-1.786388
0.315000,-1.764317
0.315100,-1.726665
0.315200,-1.695830
0.315300,-1.651362
0.315400,-1.590989
0.315500,-1.576059
0.315600,-1.551066
0.315700,-1.554961
0.315800,-1.518932
0.315900,-1.496211
0.316000,-1.478684
0.316100,-1.456288
0.316200,-1.410197
0.316300,-1.383581
0.316400,-1.338140
0.316500,-1.309252
0.316600,-1.302760
0.316700,-1.275820
0.316800,-1.272574
0.316900,-1.236870
0.317000,-1.174875
0.317100,-1.062894
0.317200,-1.042445
0.317300,-1.147935
0.317400,-1.275820
0.317500,-1.296269
0.317600,-1.246932
0.317700,-1.147285
0.317800,-1.118722
0.317900,-1.157023
0.318000,-1.243362
0.318100,-1.285233
0.318200,-1.239791
0.318300,-1.167085
0.318400,-1.110932
0.318500,-1.122617
0.318600,-1.171304
0.318700,-1.194674
0.318800,-1.204736
0.318900,-1.195973
0.319000,-1.184937
0.319100,-1.200192
0.319200,-1.213500
0.319300,-1.207658
0.319400,-1.199543
0.319500,-1.254073
0.319600,-1.281338
0.319700,-1.289777
0.319800,-1.312498
0.319900,-1.271276
0.320000,-1.271925
0.320100,-1.301462
0.320200,-1.428049
0.320300,-1.502378
0.320400,-1.492641
0.320500,-1.438760
0.320600,-1.386178
0.320700,-1.437137
0.320800,-1.516985
0.320900,-1.584173
0.321000,-1.546197
0.321100,-1.448822
0.321200,-1.331973
0.321300,-1.290751
0.321400,-1.321911
0.321500,-1.333596
0.321600,-1.334569
0.321700,-1.323209
0.321800,-1.297242
0.321900,-1.304708
0.322000,-1.327104
0.322100,-1.357290
0.322200,-1.371572
0.322300,-1.413118
0.322400,-1.435190
0.322500,-1.464727
0.322600,-1.466674
0.322700,-1.454989
0.322800,-1.456288
0.322900,-1.463104
0.323000,-1.515686
0.323100,-1.567620
0.323200,-1.571515
0.323300,-1.568918
0.323400,-1.579629
0.323500,-1.609815
0.323600,-1.618579
0.323700,-1.640326
0.323800,-1.659476
0.323900,-1.684469
0.324000,-1.715305
0.324100,-1.768536
0.324200,-1.792231
0.324300,-1.823066
0.324400,-1.840269
0.324500,-1.877596
0.324600,-1.894799
0.324700,-1.934073
0.324800,-1.933749
0.324900,-1.951276
0.325000,-1.960689
0.325100,-1.987305
0.325200,-2.000938
0.325300,-2.050274
0.325400,-2.160632
0.325500,-2.229119
0.325600,-2.212566
0.325700,-2.118112
0.325800,-2.063257
0.325900,-2.134341
0.326000,-2.277158
0.326100,-2.378752
0.326200,-2.370638
0.326300,-2.307019
0.326400,-2.247945
0.326500,-2.244050
0.326600,-2.325196
0.326700,-2.355707
0.326800,-2.366094
0.326900,-2.304098
0.327000,-2.255735
0.327100,-2.221329
0.327200,-2.206399
0.327300,-2.204776
0.327400,-2.162580
0.327500,-2.148623
0.327600,-2.126227
0.327700,-2.130446
0.327800,-2.130122
0.327900,-2.135964
0.328000,-2.131095
0.328100,-2.145702
0.328200,-2.165501
0.328300,-2.188871
0.328400,-2.175239
0.328500,-2.087601
0.328600,-2.071372
0.328700,-2.103830
0.328800,-2.169396
0.328900,-2.217759
0.329000,-2.191468
0.329100,-2.115515
0.329200,-2.022035
0.329300,-1.992823
0.329400,-2.028202
0.329500,-2.103830
0.329600,-2.090847
0.329700,-2.020088
0.329800,-1.944785
0.329900,-1.885711
0.330000,-1.876298
0.330100,-1.882140
0.330200,-1.878245
0.330300,-1.894474
0.330400,-1.887333
0.330500,-1.869481
0.330600,-1.860718
0.330700,-1.846761
0.330800,-1.841243
0.330900,-1.833128
0.331000,-1.871429
0.331100,-1.927906
0.331200,-1.918169
0.331300,-1.884412
0.331400,-1.847085
0.331500,-1.852928
0.331600,-1.864288
0.331700,-1.841567
0.331800,-1.812030
0.331900,-1.794178
0.332000,-1.763018
0.332100,-1.742894
0.332200,-1.730885
0.332300,-1.753605
0.332400,-1.764641
0.332500,-1.813653
0.332600,-1.841243
0.332700,-1.902589
0.332800,-1.936021
0.332900,-1.956470
0.333000,-1.982112
0.333100,-2.014895
0.333200,-2.061635
0.333300,-2.093119
0.333400,-2.116489
0.333500,-2.143429
0.333600,-2.143105
0.333700,-2.082408
0.333800,-1.965883
0.333900,-2.026255
0.334000,-2.122981
0.334100,-2.180757
0.334200,-2.167449
0.334300,-2.078513
0.334400,-1.947381
0.334500,-1.869157
0.334600,-1.904861
0.334700,-1.931477
0.334800,-1.904536
0.334900,-1.781844
0.335000,-1.649090
0.335100,-1.570865
0.335200,-1.517309
0.335300,-1.505624
0.335400,-1.463753
0.335500,-1.409223
0.335600,-1.376440
0.335700,-1.342359
0.335800,-1.294321
0.335900,-1.263161
0.336000,-1.254722
0.336100,-1.261863
0.336200,-1.248555
0.336300,-1.255696
0.336400,-1.227133
0.336500,-1.216421
0.336600,-1.162541
0.336700,-1.149882
0.336800,-1.186235
0.336900,-1.265758
0.337000,-1.275495
0.337100,-1.223562
0.337200,-1.109634
0.337300,-1.077825
0.337400,-1.147935
0.337500,-1.251152
0.337600,-1.306980
0.337700,-1.256345
0.337800,-1.175524
0.337900,-1.136250
0.338000,-1.165462
0.338100,-1.244011
0.338200,-1.302111
0.338300,-1.313147
0.338400,-1.299839
0.338500,-1.308278
0.338600,-1.349500
0.338700,-1.370273
0.338800,-1.399161
0.338900,-1.420259
0.339000,-1.432269
0.339100,-1.484202
0.339200,-1.516011
0.339300,-1.528670
0.339400,-1.526073
0.339500,-1.512441
0.339600,-1.518608
0.339700,-1.571839
0.339800,-1.587744
0.339900,-1.592937
0.340000,-1.568918
0.340100,-1.580603
0.340200,-1.589367
0.340300,-1.565347
0.340400,-1.541004
0.340500,-1.523801
0.340600,-1.523152
0.340700,-1.505624
0.340800,-1.480631
0.340900,-1.472517
0.341000,-1.464402
0.341100,-1.463753
0.341200,-1.447849
0.341300,-1.446550
0.341400,-1.450770
0.341500,-1.437787
0.341600,-1.468946
0.341700,-1.470569
0.341800,-1.493939
0.341900,-1.500431
0.342000,-1.579954
0.342100,-1.719524
0.342200,-1.765940
0.342300,-1.713357
0.342400,-1.636106
0.342500,-1.613386
0.342600,-1.740947
0.342700,-1.906159
0.342800,-1.989902
0.342900,-1.960040
0.343000,-1.859095
0.343100,-1.831181
0.343200,-1.864937
0.343300,-1.924336
0.343400,-1.958742
0.343500,-1.924985
0.343600,-1.867209
0.343700,-1.805863
0.343800,-1.780546
0.343900,-1.770808
0.344000,-1.756202
0.344100,-1.731209
0.344200,-1.702321
0.344300,-1.693233
0.344400,-1.694856
0.344500,-1.671811
0.344600,-1.659801
0.344700,-1.623772
0.344800,-1.601052
0.344900,-1.590989
0.345000,-1.573787
0.345100,-1.528994
0.345200,-1.411171
0.345300,-1.391696
0.345400,-1.405653
0.345500,-1.474140
0.345600,-1.551390
0.345700,-1.523801
0.345800,-1.432593
0.345900,-1.366703
0.346000,-1.373844
0.346100,-1.478035
0.346200,-1.537109
0.346300,-1.539705
0.346400,-1.467324
0.346500,-1.391371
0.346600,-1.352746
0.346700,-1.346903
0.346800,-1.366054
0.346900,-1.331973
0.347000,-1.270627
0.347100,-1.220316
0.347200,-1.140469
0.347300,-1.091457
0.347400,-1.026216
0.347500,-0.989863
0.347600,-0.965195
0.347700,-0.984670
0.347800,-1.004469
0.347900,-1.017453
0.348000,-0.955457
0.348100,-0.953834
0.348200,-0.986293
0.348300,-1.005443
0.348400,-1.006417
0.348500,-1.027839
0.348600,-1.042121
0.348700,-1.060297
0.348800,-1.088861
0.348900,-1.100870
0.349000,-1.159295
0.349100,-1.226159
0.349200,-1.277767
0.349300,-1.333920
0.349400,-1.394942
0.349500,-1.433892
0.349600,-1.456937
0.349700,-1.502703
0.349800,-1.526398
0.349900,-1.605271
0.350000,-1.615658
0.350100,-1.660775
0.350200,-1.684469
0.350300,-1.659801
0.350400,-1.617930
0.350500,-1.518608
0.350600,-1.676679
0.350700,-1.784765
0.350800,-1.885386
0.350900,-1.854226
0.351000,-1.782169
0.351100,-1.704593
0.351200,-1.685443
0.351300,-1.739648
0.351400,-1.781195
0.351500,-1.751333
0.351600,-1.652985
0.351700,-1.554961
0.351800,-1.528345
0.351900,-1.522178
0.352000,-1.540355
0.352100,-1.518283
0.352200,-1.499457
0.352300,-1.475438
0.352400,-1.471219
0.352500,-1.454016
0.352600,-1.456612
0.352700,-1.445901
0.352800,-1.463104
0.352900,-1.485500
0.353000,-1.465051
0.353100,-1.485825
0.353200,-1.454016
0.353300,-1.429023
0.353400,-1.401433
0.353500,-1.461806
0.353600,-1.543925
0.353700,-1.504975
0.353800,-1.448173
0.353900,-1.331973
0.354000,-1.312822
0.354100,-1.345281
0.354200,-1.426102
0.354300,-1.442980
0.354400,-1.380985
0.354500,-1.270951
0.354600,-1.232651
0.354700,-1.252125
0.354800,-1.293672
0.354900,-1.303734
0.355000,-1.289128
0.355100,-1.241414
0.355200,-1.214799
0.355300,-1.191429
0.355400,-1.159620
0.355500,-1.137548
0.355600,-1.122942
0.355700,-1.131056
0.355800,-1.134302
0.355900,-1.158646
0.356000,-1.159944
0.356100,-1.168383
0.356200,-1.171954
0.356300,-1.228756
0.356400,-1.299839
0.356500,-1.335543
0.356600,-1.365080
0.356700,-1.396889
0.356800,-1.454665
0.356900,-1.507896
0.357000,-1.508870
0.357100,-1.550741
0.357200,-1.578655
0.357300,-1.602350
0.357400,-1.626694
0.357500,-1.633510
0.357600,-1.657529
0.357700,-1.675056
0.357800,-1.711734
0.357900,-1.736403
0.358000,-1.763667
0.358100,-1.799047
0.358200,-1.844164
0.358300,-1.887658
0.358400,-1.929529
0.358500,-1.979190
0.358600,-2.023983
0.358700,-2.158036
0.358800,-2.284948
0.358900,-2.347592
0.359000,-2.277807
0.359100,-2.185301
0.359200,-2.197310
0.359300,-2.320003
0.359400,-2.428738
0.359500,-2.466714
0.359600,-2.394332
0.359700,-2.324547
0.359800,-2.282026
0.359900,-2.326494
0.360000,-2.392709
0.360100,-2.414132
0.360200,-2.410886
0.360300,-2.360900
0.360400,-2.378752
0.360500,-2.371936
0.360600,-2.414456
0.360700,-2.435879
0.360800,-2.466390
0.360900,-2.493330
0.361000,-2.520595
0.361100,-2.541044
0.361200,-2.567335
0.361300,-2.579669
0.361400,-2.571230
0.361500,-2.571879
0.361600,-2.588109
0.361700,-2.583564
0.361800,-2.519946
0.361900,-2.459898
0.362000,-2.447564
0.362100,-2.503068
0.362200,-2.583240
0.362300,-2.611803
0.362400,-2.536824
0.362500,-2.452108
0.362600,-2.386218
0.362700,-2.418676
0.362800,-2.477101
0.362900,-2.486839
0.363000,-2.392060
0.363100,-2.253139
0.363200,-2.139859
0.363300,-2.048651
0.363400,-1.951601
0.363500,-1.853577
0.363600,-1.775352
0.363700,-1.666293
0.363800,-1.559505
0.363900,-1.467973
0.364000,-1.374168
0.364100,-1.291400
0.364200,-1.216746
0.364300,-1.186884
0.364400,-1.153452
0.364500,-1.137548
0.364600,-1.096651
0.364700,-1.036603
0.364800,-1.012584
0.364900,-1.017777
0.365000,-1.017453
0.365100,-0.988565
0.365200,-0.984994
0.365300,-0.985643
0.365400,-0.966169
0.365500,-0.934684
0.365600,-0.937930
0.365700,-0.954484
0.365800,-0.968765
0.365900,-0.976231
0.366000,-0.986293
0.366100,-1.011610
0.366200,-0.991811
0.366300,-1.014856
0.366400,-1.013882
0.366500,-1.035954
0.366600,-1.037577
0.366700,-1.082044
0.366800,-1.062245
0.366900,-1.083018
0.367000,-1.011610
0.367100,-0.917481
0.367200,-0.886646
0.367300,-1.002522
0.367400,-1.134951
0.367500,-1.158646
0.367600,-1.119047
0.367700,-1.038550
0.367800,-1.016479
0.367900,-1.086589
0.368000,-1.184612
0.368100,-1.257643
0.368200,-1.258617
0.368300,-1.237519
0.368400,-1.226808
0.368500,-1.262837
0.368600,-1.340736
0.368700,-1.402407
0.368800,-1.434541
0.368900,-1.464402
0.369000,-1.473166
0.369100,-1.479333
0.369200,-1.495238
0.369300,-1.490694
0.369400,-1.475763
0.369500,-1.496861
0.369600,-1.528020
0.369700,-1.527047
0.369800,-1.535161
0.369900,-1.508221
0.370000,-1.488097
0.370100,-1.478684
0.370200,-1.590989
0.370300,-1.627343
0.370400,-1.607543
0.370500,-1.514063
0.370600,-1.459534
0.370700,-1.481605
0.370800,-1.564374
0.370900,-1.657529
0.371000,-1.647142
0.371100,-1.590016
0.371200,-1.536784
0.371300,-1.543925
0.371400,-1.604297
0.371500,-1.672784
0.371600,-1.682197
0.371700,-1.689663
0.371800,-1.679276
0.371900,-1.703295
0.372000,-1.687715
0.372100,-1.673758
0.372200,-1.649739
0.372300,-1.617281
0.372400,-1.608517
0.372500,-1.602999
0.372600,-1.573137
0.372700,-1.516985
0.372800,-1.471868
0.372900,-1.465376
0.373000,-1.486474
0.373100,-1.491667
0.373200,-1.469596
0.373300,-1.434541
0.373400,-1.406951
0.373500,-1.422207
0.373600,-1.398512
0.373700,-1.376116
0.373800,-1.374168
0.373900,-1.365080
0.374000,-1.354693
0.374100,-1.330674
0.374200,-1.328727
0.374300,-1.311199
0.374400,-1.314770
0.374500,-1.292374
0.374600,-1.284584
0.374700,-1.261538
0.374800,-1.271600
0.374900,-1.273872
0.375000,-1.291075
0.375100,-1.319963
0.375200,-1.339114
0.375300,-1.399486
0.375400,-1.501729
0.375500,-1.603324
0.375600,-1.594235
0.375700,-1.517958
0.375800,-1.470569
0.375900,-1.525748
0.376000,-1.685768
0.376100,-1.799372
0.376200,-1.811381
0.376300,-1.770159
0.376400,-1.719849
0.376500,-1.751658
0.376600,-1.840918
0.376700,-1.918493
0.376800,-1.952250
0.376900,-1.926608
0.377000,-1.897396
0.377100,-1.910054
0.377200,-1.924336
0.377300,-1.938942
0.377400,-1.938293
0.377500,-1.920441
0.377600,-1.911353
0.377700,-1.921090
0.377800,-1.958093
0.377900,-1.951601
0.378000,-1.960365
0.378100,-1.977892
0.378200,-2.008727
0.378300,-2.048651
0.378400,-2.045730
0.378500,-1.972374
0.378600,-1.936995
0.378700,-1.971400
0.378800,-2.062608
0.378900,-2.158360
0.379000,-2.147324
0.379100,-2.072021
0.379200,-1.971400
0.379300,-1.966207
0.379400,-2.036317
0.379500,-2.133692
0.379600,-2.179134
0.379700,-2.134666
0.379800,-2.069425
0.379900,-2.029825
0.380000,-2.031773
0.380100,-2.021062
0.380200,-2.023009
0.380300,-1.985682
0.380400,-1.924011
0.380500,-1.862016
0.380600,-1.809109
0.380700,-1.737052
0.380800,-1.675056
0.380900,-1.617281
0.381000,-1.606894
0.381100,-1.582875
0.381200,-1.556259
0.381300,-1.512116
0.381400,-1.427075
0.381500,-1.402083
0.381600,-1.367677
0.381700,-1.326779
0.381800,-1.273223
0.381900,-1.203114
0.382000,-1.127161
0.382100,-1.051858
0.382200,-1.019400
0.382300,-0.959028
0.382400,-0.947667
0.382500,-0.913262
0.382600,-0.898655
0.382700,-0.894761
0.382800,-0.889892
0.382900,-0.898655
0.383000,-0.874312
0.383100,-0.907095
0.383200,-0.923648
0.383300,-0.950589
0.383400,-0.956756
0.383500,-0.992460
0.383600,-0.966818
0.383700,-0.944746
0.383800,-0.829195
0.383900,-0.912937
0.384000,-1.037901
0.384100,-1.167409
0.384200,-1.157672
0.384300,-1.109309
0.384400,-1.039849
0.384500,-1.027515
0.384600,-1.115476
0.384700,-1.204412
0.384800,-1.263486
0.384900,-1.242713
0.385000,-1.196946
0.385100,-1.203114
0.385200,-1.261538
0.385300,-1.346903
0.385400,-1.411820
0.385500,-1.435839
0.385600,-1.466350
0.385700,-1.516985
0.385800,-1.584498
0.385900,-1.636431
0.386000,-1.688689
0.386100,-1.727314
0.386200,-1.821443
0.386300,-1.844164
0.386400,-1.926283
0.386500,-1.935696
0.386600,-1.956145
0.386700,-1.971076
0.386800,-2.036966
0.386900,-2.182055
0.387000,-2.216136
0.387100,-2.215487
0.387200,-2.144728
0.387300,-2.130122
0.387400,-2.177511
0.387500,-2.296633
0.387600,-2.352786
0.387700,-2.350514
0.387800,-2.252814
0.387900,-2.177186
0.388000,-2.187897
0.388100,-2.254761
0.388200,-2.294036
0.388300,-2.318704
0.388400,-2.282676
0.388500,-2.234962
0.388600,-2.211267
0.388700,-2.197635
0.388800,-2.180757
0.388900,-2.155439
0.389000,-2.100909
0.389100,-2.066828
0.389200,-2.008078
0.389300,-1.961338
0.389400,-1.894799
0.389500,-1.815276
0.389600,-1.757176
0.389700,-1.743868
0.389800,-1.699725
0.389900,-1.640001
0.390000,-1.584173
0.390100,-1.558207
0.390200,-1.544574
0.390300,-1.489071
0.390400,-1.466350
0.390500,-1.422856
0.390600,-1.384230
0.390700,-1.350474
0.390800,-1.318989
0.390900,-1.263486
0.391000,-1.225834
0.391100,-1.178121
0.391200,-1.130083
0.391300,-1.087562
0.391400,-1.061271
0.391500,-1.018102
0.391600,-0.992135
0.391700,-0.960326
0.391800,-0.984670
0.391900,-0.988889
0.392000,-1.029462
0.392100,-1.150207
0.392200,-1.222588
0.392300,-1.182340
0.392400,-1.108985
0.392500,-1.090159
0.392600,-1.189157
0.392700,-1.367028
0.392800,-1.474464
0.392900,-1.499457
0.393000,-1.422207
0.393100,-1.414092
0.393200,-1.470569
0.393300,-1.608517
0.393400,-1.680574
0.393500,-1.739648
0.393600,-1.728288
0.393700,-1.739973
0.393800,-1.761071
0.393900,-1.791906
0.394000,-1.816899
0.394100,-1.827610
0.394200,-1.832154
0.394300,-1.837672
0.394400,-1.846436
0.394500,-1.873052
0.394600,-1.878570
0.394700,-1.868832
0.394800,-1.899668
0.394900,-1.917520
0.395000,-1.948355
0.395100,-1.936021
0.395200,-1.885711
0.395300,-1.881491
0.395400,-1.924336
0.395500,-2.007429
0.395600,-2.068126
0.395700,-2.056766
0.395800,-1.992174
0.395900,-1.924985
0.396000,-1.973023
0.396100,-2.070074
0.396200,-2.147324
0.396300,-2.165501
0.396400,-2.110647
0.396500,-2.067152
0.396600,-2.049300
0.396700,-2.060661
0.396800,-2.093444
0.396900,-2.097663
0.397000,-2.081110
0.397100,-2.056117
0.397200,-2.012298
0.397300,-1.971076
0.397400,-1.914274
0.397500,-1.869806
0.397600,-1.834426
0.397700,-1.823066
0.397800,-1.834102
0.397900,-1.803267
0.398000,-1.726990
0.398100,-1.690961
0.398200,-1.682197
0.398300,-1.662398
0.398400,-1.594884
0.398500,-1.572164
0.398600,-1.508870
0.398700,-1.457262
0.398800,-1.372221
0.398900,-1.330350
0.399000,-1.289128
0.399100,-1.252775
0.399200,-1.217071
0.399300,-1.185586
0.399400,-1.156049
0.399500,-1.114178
0.399600,-1.056402
0.399700,-1.025243
0.399800,-0.989214
0.399900,-0.967791
0.400000,-0.956431
0.400100,-0.938579
0.400200,-0.918130
0.400300,-0.861653
0.400400,-0.769796
0.400500,-0.657167
0.400600,-0.765577
0.400700,-0.853214
0.400800,-0.926245
0.400900,-0.886646
0.401000,-0.799009
0.401100,-0.743181
0.401200,-0.751295
0.401300,-0.826598
0.401400,-0.907095
0.401500,-0.937930
0.401600,-0.910016
0.401700,-0.868469
0.401800,-0.885348
0.401900,-0.949290
0.402000,-1.027190
0.402100,-1.079772
0.402200,-1.121968
0.402300,-1.173901
0.402400,-1.186560
0.402500,-1.240441
0.402600,-1.272574
0.402700,-1.306655
0.402800,-1.350798
0.402900,-1.419610
0.403000,-1.447199
0.403100,-1.480307
0.403200,-1.473491
0.403300,-1.478359
0.403400,-1.468946
0.403500,-1.558207
0.403600,-1.659152
0.403700,-1.663696
0.403800,-1.614359
0.403900,-1.513414
0.404000,-1.496211
0.404100,-1.563725
0.404200,-1.654283
0.404300,-1.697128
0.404400,-1.615658
0.404500,-1.508221
0.404600,-1.455314
0.404700,-1.478684
0.404800,-1.521529
0.404900,-1.517634
0.405000,-1.502378
0.405100,-1.470569
0.405200,-1.429672
0.405300,-1.417013
0.405400,-1.373195
0.405500,-1.332297
0.405600,-1.295619
0.405700,-1.264784
0.405800,-1.260889
0.405900,-1.227133
0.406000,-1.177472
0.406100,-1.116126
0.406200,-1.040498
0.406300,-1.033032
0.406400,-1.044068
0.406500,-1.032708
0.406600,-0.972660
0.406700,-0.951887
0.406800,-0.958379
0.406900,-0.977854
0.407000,-0.932412
0.407100,-0.965195
0.407200,-0.967142
0.407300,-0.990837
0.407400,-1.034331
0.407500,-1.092106
0.407600,-1.127486
0.407700,-1.186560
0.407800,-1.241414
0.407900,-1.314770
0.408000,-1.360211
0.408100,-1.404355
0.408200,-1.443954
0.408300,-1.497510
0.408400,-1.551390
0.408500,-1.584173
0.408600,-1.626369
0.408700,-1.727963
0.408800,-1.862341
0.408900,-1.894474
0.409000,-1.830856
0.409100,-1.741920
0.409200,-1.741271
0.409300,-1.878570
0.409400,-1.993472
0.409500,-2.041510
0.409600,-1.973673
0.409700,-1.878245
0.409800,-1.848384
0.409900,-1.879219
0.410000,-1.966207
0.410100,-1.998016
0.410200,-1.961663
0.410300,-1.934723
0.410400,-1.901615
0.410500,-1.932451
0.410600,-1.951276
0.410700,-1.993797
0.410800,-2.028852
0.410900,-2.034045
0.411000,-2.058064
0.411100,-2.114542
0.411200,-2.159659
0.411300,-2.211916
0.411400,-2.230418
0.411500,-2.278131
0.411600,-2.300203
0.411700,-2.306370
0.411800,-2.275210
0.411900,-2.216136
0.412000,-2.223277
0.412100,-2.286246
0.412200,-2.375506
0.412300,-2.429387
0.412400,-2.353435
0.412500,-2.258656
0.412600,-2.180757
0.412700,-2.215811
0.412800,-2.283325
0.412900,-2.339802
0.413000,-2.324222
0.413100,-2.246647
0.413200,-2.175888
0.413300,-2.131095
0.413400,-2.131095
0.413500,-2.140184
0.413600,-2.104479
0.413700,-2.054169
0.413800,-1.995744
0.413900,-1.944135
0.414000,-1.887658
0.414100,-1.825338
0.414200,-1.774379
0.414300,-1.749061
0.414400,-1.752307
0.414500,-1.761720
0.414600,-1.725367
0.414700,-1.685443
0.414800,-1.648116
0.414900,-1.647467
0.415000,-1.643896
0.415100,-1.605920
0.415200,-1.605920
0.415300,-1.574111
0.415400,-1.542951
0.415500,-1.514063
0.415600,-1.497185
0.415700,-1.500756
0.415800,-1.536784
0.415900,-1.535810
0.416000,-1.569567
0.416100,-1.580278
0.416200,-1.598130
0.416300,-1.626369
0.416400,-1.609815
0.416500,-1.648765
0.416600,-1.641949
0.416700,-1.680574
0.416800,-1.676679
0.416900,-1.693558
0.417000,-1.646169
0.417100,-1.522503
0.417200,-1.464727
0.417300,-1.587744
0.417400,-1.668889
0.417500,-1.712383
0.417600,-1.660126
0.417700,-1.558207
0.417800,-1.490369
0.417900,-1.502378
0.418000,-1.581252
0.418100,-1.614684
0.418200,-1.567620
0.418300,-1.492641
0.418400,-1.411495
0.418500,-1.386827
0.418600,-1.380011
0.418700,-1.389424
0.418800,-1.357290
0.418900,-1.319314
0.419000,-1.271600
0.419100,-1.225185
0.419200,-1.186884
0.419300,-1.163190
0.419400,-1.125863
0.419500,-1.121968
0.419600,-1.071982
0.419700,-1.041472
0.419800,-1.011935
0.419900,-0.959028
0.420000,-0.919753
0.420100,-0.861653
0.420200,-0.935982
0.420300,-0.950264
0.420400,-0.905472
0.420500,-0.805500
0.420600,-0.717214
0.420700,-0.723706
0.420800,-0.794140
0.420900,-0.857758
0.421000,-0.863601
0.421100,-0.796412
0.421200,-0.731496
0.421300,-0.715267
0.421400,-0.785376
0.421500,-0.846073
0.421600,-0.885672
0.421700,-0.929166
0.421800,-0.934684
0.421900,-0.979801
0.422000,-1.018102
0.422100,-1.050560
0.422200,-1.130083
0.422300,-1.212202
0.422400,-1.279390
0.422500,-1.361510
0.422600,-1.429347
0.422700,-1.482254
0.422800,-1.535486
0.422900,-1.586445
0.423000,-1.692908
0.423100,-1.777300
0.423200,-1.829233
0.423300,-1.864613
0.423400,-1.892202
0.423500,-1.968479
0.423600,-1.998016
0.423700,-2.006455
0.423800,-2.028852
0.423900,-2.051572
0.424000,-2.103506
0.424100,-2.119735
0.424200,-2.154790
0.424300,-2.192117
0.424400,-2.238208
0.424500,-2.254437
0.424600,-2.276184
0.424700,-2.312213
0.424800,-2.348566
0.424900,-2.372910
0.425000,-2.390113
0.425100,-2.426466
0.425200,-2.428089
0.425300,-2.460223
0.425400,-2.550132
0.425500,-2.612452
0.425600,-2.589732
0.425700,-2.451784
0.425800,-2.368041
0.425900,-2.351163
0.426000,-2.482944
0.426100,-2.541044
0.426200,-2.528061
0.426300,-2.433282
0.426400,-2.354409
0.426500,-2.338179
0.426600,-2.373559
0.426700,-2.392709
0.426800,-2.406666
0.426900,-2.360900
0.427000,-2.330714
0.427100,-2.294361
0.427200,-2.301826
0.427300,-2.301177
0.427400,-2.285597
0.427500,-2.283000
0.427600,-2.264174
0.427700,-2.294685
0.427800,-2.314809
0.427900,-2.306370
0.428000,-2.301177
0.428100,-2.317081
0.428200,-2.319029
0.428300,-2.347592
0.428400,-2.332337
0.428500,-2.259306
0.428600,-2.191792
0.428700,-2.195687
0.428800,-2.250866
0.428900,-2.330714
0.429000,-2.330714
0.429100,-2.240804
0.429200,-2.134666
0.429300,-2.106102
0.429400,-2.156088
0.429500,-2.224575
0.429600,-2.235936
0.429700,-2.196012
0.429800,-2.127849
0.429900,-2.091496
0.430000,-2.073644
0.430100,-2.079487
0.430200,-2.053195
0.430300,-1.998016
0.430400,-1.964584
0.430500,-1.906159
0.430600,-1.842216
0.430700,-1.767562
0.430800,-1.673433
0.430900,-1.600727
0.431000,-1.583524
0.431100,-1.566970
0.431200,-1.547495
0.431300,-1.490044
0.431400,-1.429347
0.431500,-1.402732
0.431600,-1.379362
0.431700,-1.359562
0.431800,-1.325806
0.431900,-1.286531
0.432000,-1.259591
0.432100,-1.220316
0.432200,-1.189481
0.432300,-1.190455
0.432400,-1.191429
0.432500,-1.239142
0.432600,-1.240765
0.432700,-1.301462
0.432800,-1.322884
0.432900,-1.358913
0.433000,-1.359562
0.433100,-1.412469
0.433200,-1.434541
0.433300,-1.463753
0.433400,-1.494264
0.433500,-1.487448
0.433600,-1.478035
0.433700,-1.387152
0.433800,-1.259915
0.433900,-1.253424
0.434000,-1.329701
0.434100,-1.415390
0.434200,-1.375791
0.434300,-1.305357
0.434400,-1.189806
0.434500,-1.133653
0.434600,-1.169032
0.434700,-1.232651
0.434800,-1.275171
0.434900,-1.223887
0.435000,-1.180393
0.435100,-1.161567
0.435200,-1.175849
0.435300,-1.226808
0.435400,-1.279715
0.435500,-1.304708
0.435600,-1.323858
0.435700,-1.341710
0.435800,-1.359238
0.435900,-1.363133
0.436000,-1.374168
0.436100,-1.366378
0.436200,-1.428698
0.436300,-1.444278
0.436400,-1.512441
0.436500,-1.528020
0.436600,-1.518283
0.436700,-1.522503
0.436800,-1.574760
0.436900,-1.689338
0.437000,-1.707515
0.437100,-1.688040
0.437200,-1.586445
0.437300,-1.545548
0.437400,-1.553338
0.437500,-1.646169
0.437600,-1.679276
0.437700,-1.633510
0.437800,-1.518932
0.437900,-1.432918
0.438000,-1.435514
0.438100,-1.475438
0.438200,-1.496861
0.438300,-1.463753
0.438400,-1.439409
0.438500,-1.383257
0.438600,-1.369300
0.438700,-1.371247
0.438800,-1.364431
0.438900,-1.348202
0.439000,-1.346254
0.439100,-1.379037
0.439200,-1.380011
0.439300,-1.424803
0.439400,-1.404030
0.439500,-1.395266
0.439600,-1.415066
0.439700,-1.475114
0.439800,-1.525099
0.439900,-1.547495
0.440000,-1.570216
0.440100,-1.606894
0.440200,-1.641624
0.440300,-1.636756
0.440400,-1.625395
0.440500,-1.633510
0.440600,-1.651037
0.440700,-1.646818
0.440800,-1.658503
0.440900,-1.650388
0.441000,-1.658178
0.441100,-1.682522
0.441200,-1.698102
0.441300,-1.719849
0.441400,-1.730885
0.441500,-1.749710
0.441600,-1.758474
0.441700,-1.772107
0.441800,-1.787362
0.441900,-1.832804
0.442000,-1.887658
0.442100,-1.993148
0.442200,-2.046379
0.442300,-1.965233
0.442400,-1.838646
0.442500,-1.757176
0.442600,-1.804889
0.442700,-1.883114
0.442800,-1.895448
0.442900,-1.816899
0.443000,-1.673433
0.443100,-1.555285
0.443200,-1.506923
0.443300,-1.522827
0.443400,-1.530617
0.443500,-1.471543
0.443600,-1.430646
0.443700,-1.378063
0.443800,-1.368651
0.443900,-1.391371
0.444000,-1.449796
0.444100,-1.459858
0.444200,-1.477386
0.444300,-1.504975
0.444400,-1.569242
0.444500,-1.629615
0.444600,-1.667266
0.444700,-1.717252
0.444800,-1.763018
0.444900,-1.840918
0.445000,-1.875649
0.445100,-1.891228
0.445200,-1.874026
0.445300,-1.859419
0.445400,-1.935372
0.445500,-2.046704
0.445600,-2.156737
0.445700,-2.162255
0.445800,-2.100260
0.445900,-2.059038
0.446000,-2.111296
0.446100,-2.215487
0.446200,-2.332337
0.446300,-2.357005
0.446400,-2.332661
0.446500,-2.274236
0.446600,-2.258332
0.446700,-2.275210
0.446800,-2.315459
0.446900,-2.329740
0.447000,-2.319029
0.447100,-2.292413
0.447200,-2.254112
0.447300,-2.245998
0.447400,-2.207372
0.447500,-2.167449
0.447600,-2.155114
0.447700,-2.159983
0.447800,-2.175888
0.447900,-2.170370
0.448000,-2.150246
0.448100,-2.124604
0.448200,-2.125902
0.448300,-2.148298
0.448400,-2.135964
0.448500,-2.124279
0.448600,-2.104479
0.448700,-2.091496
0.448800,-2.059362
0.448900,-2.055143
0.449000,-2.060012
0.449100,-2.071697
0.449200,-2.083382
0.449300,-2.076565
0.449400,-2.120059
0.449500,-2.108374
0.449600,-2.118761
0.449700,-2.115191
0.449800,-2.122981
0.449900,-2.131744
0.450000,-2.108699
0.450100,-2.109997
0.450200,-2.072995
0.450300,-2.002560
0.450400,-1.906808
0.450500,-1.754904
0.450600,-1.787362
0.450700,-1.818522
0.450800,-1.845787
0.450900,-1.757500
0.451000,-1.634159
0.451100,-1.513090
0.451200,-1.449472
0.451300,-1.473815
0.451400,-1.489395
0.451500,-1.459209
0.451600,-1.370923
0.451700,-1.272574
0.451800,-1.215448
0.451900,-1.198894
0.452000,-1.194674
0.452100,-1.172278
0.452200,-1.148259
0.452300,-1.127161
0.452400,-1.093080
0.452500,-1.089185
0.452600,-1.081720
0.452700,-1.096001
0.452800,-1.131056
0.452900,-1.187858
0.453000,-1.197920
0.453100,-1.260240
0.453200,-1.274846
0.453300,-1.303734
0.453400,-1.335219
0.453500,-1.441357
0.453600,-1.592937
0.453700,-1.650713
0.453800,-1.653634
0.453900,-1.605596
0.454000,-1.622474
0.454100,-1.717252
0.454200,-1.836699
0.454300,-1.902264
0.454400,-1.890255
0.454500,-1.808784
0.454600,-1.783792
0.454700,-1.823066
0.454800,-1.883763
0.454900,-1.943811
0.455000,-1.989253
0.455100,-2.007105
0.455200,-2.004183
0.455300,-2.025281
0.455400,-2.070074
0.455500,-2.086303
0.455600,-2.123954
0.455700,-2.150570
0.455800,-2.166799
0.455900,-2.192442
0.456000,-2.202828
0.456100,-2.204776
0.456200,-2.197635
0.456300,-2.226198
0.456400,-2.270991
0.456500,-2.286895
0.456600,-2.273912
0.456700,-2.248594
0.456800,-2.273912
0.456900,-2.296957
0.457000,-2.289167
0.457100,-2.294036
0.457200,-2.293711
0.457300,-2.314160
0.457400,-2.320327
0.457500,-2.328766
0.457600,-2.357330
0.457700,-2.347268
0.457800,-2.354733
0.457900,-2.328117
0.458000,-2.311564
0.458100,-2.258981
0.458200,-2.214838
0.458300,-2.157387
0.458400,-2.083057
0.458500,-2.013921
0.458600,-1.934723
0.458700,-1.921415
0.458800,-1.930178
0.458900,-1.858446
0.459000,-1.667266
0.459100,-1.470569
0.459200,-1.338789
0.459300,-1.362483
0.459400,-1.405977
0.459500,-1.382608
0.459600,-1.275820
0.459700,-1.142741
0.459800,-1.103142
0.459900,-1.125863
0.460000,-1.194025
0.460100,-1.247906
0.460200,-1.249853
0.460300,-1.230054
0.460400,-1.233624
0.460500,-1.247581
0.460600,-1.276469
0.460700,-1.308927
0.460800,-1.331973
0.460900,-1.354693
0.461000,-1.365729
0.461100,-1.401433
0.461200,-1.434216
0.461300,-1.432593
0.461400,-1.406302
0.461500,-1.415066
0.461600,-1.435839
0.461700,-1.424479
0.461800,-1.382932
0.461900,-1.285233
0.462000,-1.247906
0.462100,-1.268679
0.462200,-1.326130
0.462300,-1.342684
0.462400,-1.280040
0.462500,-1.168383
0.462600,-1.123591
0.462700,-1.146312
0.462800,-1.221290
0.462900,-1.292698
0.463000,-1.303734
0.463100,-1.255371
0.463200,-1.201815
0.463300,-1.182665
0.463400,-1.186560
0.463500,-1.194674
0.463600,-1.185586
0.463700,-1.189481
0.463800,-1.153128
0.463900,-1.114503
0.464000,-1.072956
0.464100,-1.049262
0.464200,-1.028488
0.464300,-1.027839
0.464400,-1.029787
0.464500,-1.052832
0.464600,-1.037577
0.464700,-0.999925
0.464800,-0.995381
0.464900,-1.005768
0.465000,-1.026865
0.465100,-1.025567
0.465200,-1.022321
0.465300,-1.024269
0.465400,-0.994083
0.465500,-0.973634
0.465600,-0.976880
0.465700,-0.992135
0.465800,-1.018751
0.465900,-1.053806
0.466000,-1.067114
0.466100,-1.080746
0.466200,-1.087887
0.466300,-1.105090
0.466400,-1.129758
0.466500,-1.158646
0.466600,-1.182016
0.466700,-1.219992
0.466800,-1.234273
0.466900,-1.270951
0.467000,-1.229729
0.467100,-1.186560
0.467200,-1.100870
0.467300,-1.260240
0.467400,-1.393643
0.467500,-1.460183
0.467600,-1.422531
0.467700,-1.360861
0.467800,-1.306980
0.467900,-1.339438
0.468000,-1.446226
0.468100,-1.506923
0.468200,-1.495887
0.468300,-1.429672
0.468400,-1.372870
0.468500,-1.395591
0.468600,-1.408574
0.468700,-1.424803
0.468800,-1.425777
0.468900,-1.415390
0.469000,-1.427400
0.469100,-1.441357
0.469200,-1.456288
0.469300,-1.454665
0.469400,-1.468297
0.469500,-1.466350
0.469600,-1.550092
0.469700,-1.578331
0.469800,-1.623772
0.469900,-1.632861
0.470000,-1.642923
0.470100,-1.698426
0.470200,-1.822092
0.470300,-1.951925
0.470400,-1.963286
0.470500,-1.935696
0.470600,-1.877921
0.470700,-1.922713
0.470800,-2.029825
0.470900,-2.148298
0.471000,-2.208022
0.471100,-2.156737
0.471200,-2.100909
0.471300,-2.098312
0.471400,-2.176862
0.471500,-2.270666
0.471600,-2.314160
0.471700,-2.313836
0.471800,-2.282026
0.471900,-2.288518
0.472000,-2.297606
0.472100,-2.310914
0.472200,-2.319029
0.472300,-2.321626
0.472400,-2.322275
0.472500,-2.341750
0.472600,-2.355058
0.472700,-2.343697
0.472800,-2.333311
0.472900,-2.339478
0.473000,-2.379077
0.473100,-2.409588
0.473200,-2.412834
0.473300,-2.375831
0.473400,-2.340451
0.473500,-2.354084
0.473600,-2.340127
0.473700,-2.304098
0.473800,-2.291115
0.473900,-2.280079
0.474000,-2.270341
0.474100,-2.248270
0.474200,-2.234637
0.474300,-2.210294
0.474400,-2.208671
0.474500,-2.187248
0.474600,-2.152193
0.474700,-2.143429
0.474800,-2.115840
0.474900,-2.090522
0.475000,-2.072670
0.475100,-2.042484
0.475200,-2.033396
0.475300,-1.986656
0.475400,-2.073320
0.475500,-2.126227
0.475600,-2.124279
0.475700,-1.992498
0.475800,-1.886684
0.475900,-1.867859
0.476000,-1.984708
0.476100,-2.085654
0.476200,-2.109024
0.476300,-2.019439
0.476400,-1.950627
0.476500,-1.952250
0.476600,-1.997692
0.476700,-2.050923
0.476800,-2.047028
0.476900,-1.996069
0.477000,-1.914274
0.477100,-1.879544
0.477200,-1.879544
0.477300,-1.869481
0.477400,-1.872078
0.477500,-1.849357
0.477600,-1.857796
0.477700,-1.876947
0.477800,-1.905186
0.477900,-1.924011
0.478000,-1.933100
0.478100,-1.918493
0.478200,-1.950627
0.478300,-1.964584
0.478400,-1.954847
0.478500,-1.905835
0.478600,-1.828584
0.478700,-1.847085
0.478800,-1.924985
0.478900,-2.044107
0.479000,-2.091172
0.479100,-2.027553
0.479200,-1.949329
0.479300,-1.917195
0.479400,-1.990551
0.479500,-2.097663
0.479600,-2.170370
0.479700,-2.138236
0.479800,-2.101883
0.479900,-2.061310
0.480000,-2.069100
0.480100,-2.084355
0.480200,-2.105453
0.480300,-2.090198
0.480400,-2.084031
0.480500,-2.079162
0.480600,-2.061310
0.480700,-2.036966
0.480800,-2.017167
0.480900,-1.995744
0.481000,-2.003210
0.481100,-2.020088
0.481200,-2.024957
0.481300,-1.972699
0.481400,-1.900966
0.481500,-1.889606
0.481600,-1.870131
0.481700,-1.840594
0.481800,-1.792880
0.481900,-1.739973
0.482000,-1.722121
0.482100,-1.688040
0.482200,-1.656231
0.482300,-1.639028
0.482400,-1.657204
0.482500,-1.673109
0.482600,-1.683171
0.482700,-1.699076
0.482800,-1.706216
0.482900,-1.694531
0.483000,-1.723744
0.483100,-1.719849
0.483200,-1.756527
0.483300,-1.772431
0.483400,-1.805863
0.483500,-1.831181
0.483600,-1.814302
0.483700,-1.762694
0.483800,-1.661099
0.483900,-1.638379
0.484000,-1.760422
0.484100,-1.852279
0.484200,-1.886684
0.484300,-1.821119
0.484400,-1.709138
0.484500,-1.647791
0.484600,-1.687391
0.484700,-1.745166
0.484800,-1.764317
0.484900,-1.717252
0.485000,-1.623123
0.485100,-1.539705
0.485200,-1.496211
0.485300,-1.481605
0.485400,-1.438436
0.485500,-1.410846
0.485600,-1.339438
0.485700,-1.277443
0.485800,-1.229405
0.485900,-1.180068
0.486000,-1.133653
0.486100,-1.084966
0.486200,-1.084641
0.486300,-1.084641
0.486400,-1.075553
0.486500,-1.068737
0.486600,-0.995706
0.486700,-0.971037
0.486800,-0.932412
0.486900,-1.032383
0.487000,-1.063219
0.487100,-1.033682
0.487200,-0.922999
0.487300,-0.838283
0.487400,-0.858083
0.487500,-0.972011
0.487600,-1.087238
0.487700,-1.130407
0.487800,-1.085939
0.487900,-1.057052
0.488000,-1.132679
0.488100,-1.268355
0.488200,-1.402407
0.488300,-1.499133
0.488400,-1.585796
0.488500,-1.672135
0.488600,-1.772431
0.488700,-1.867859
0.488800,-1.948680
0.488900,-2.028852
0.489000,-2.109673
0.489100,-2.194714
0.489200,-2.258332
0.489300,-2.303449
0.489400,-2.352786
0.489500,-2.379401
0.489600,-2.417053
0.489700,-2.532605
0.489800,-2.600443
0.489900,-2.635498
0.490000,-2.667307
0.490100,-2.708854
0.490200,-2.765981
0.490300,-2.762735
0.490400,-2.777016
0.490500,-2.784157
0.490600,-2.802009
0.490700,-2.790649
0.490800,-2.792272
0.490900,-2.789026
0.491000,-2.790324
0.491100,-2.752997
0.491200,-2.713398
0.491300,-2.689054
0.491400,-2.654973
0.491500,-2.624137
0.491600,-2.581292
0.491700,-2.548509
0.491800,-2.521244
0.491900,-2.473531
0.492000,-2.480347
0.492100,-2.531631
0.492200,-2.570581
0.492300,-2.490084
0.492400,-2.366418
0.492500,-2.253463
0.492600,-2.275535
0.492700,-2.389464
0.492800,-2.437177
0.492900,-2.383621
0.493000,-2.284623
0.493100,-2.160632
0.493200,-2.146675
0.493300,-2.157062
0.493400,-2.180107
0.493500,-2.137587
0.493600,-2.066179
0.493700,-1.982761
0.493800,-1.918169
0.493900,-1.871754
0.494000,-1.829233
0.494100,-1.791906
0.494200,-1.741596
0.494300,-1.730235
0.494400,-1.721472
0.494500,-1.733157
0.494600,-1.711085
0.494700,-1.712383
0.494800,-1.684794
0.494900,-1.705892
0.495000,-1.726016
0.495100,-1.708164
0.495200,-1.615982
0.495300,-1.550741
0.495400,-1.568593
0.495500,-1.646818
0.495600,-1.711085
0.495700,-1.701997
0.495800,-1.618904
0.495900,-1.553663
0.496000,-1.592937
0.496100,-1.678627
0.496200,-1.789309
0.496300,-1.829233
0.496400,-1.801644
0.496500,-1.750684
0.496600,-1.729586
0.496700,-1.740298
0.496800,-1.771457
0.496900,-1.802293
0.497000,-1.807486
0.497100,-1.784765
0.497200,-1.758474
0.497300,-1.739648
0.497400,-1.717577
0.497500,-1.699076
0.497600,-1.680574
0.497700,-1.704269
0.497800,-1.707190
0.497900,-1.720823
0.498000,-1.688689
0.498100,-1.648765
0.498200,-1.643896
0.498300,-1.647142
0.498400,-1.631238
0.498500,-1.605920
0.498600,-1.595534
0.498700,-1.547171
0.498800,-1.494264
0.498900,-1.466350
0.499000,-1.443629
0.499100,-1.444278
0.499200,-1.435514
0.499300,-1.417338
0.499400,-1.427400
0.499500,-1.440059
0.499600,-1.415390
0.499700,-1.428374
0.499800,-1.421557
0.499900,-1.444278
0.500000,-1.459209
0.500100,-1.493615
0.500200,-1.510818
0.500300,-1.491343
0.500400,-1.429997
0.500500,-1.318665
0.500600,-1.373195
0.500700,-1.495562
0.500800,-1.577682
0.500900,-1.566646
0.501000,-1.488097
0.501100,-1.388775
0.501200,-1.381309
0.501300,-1.461806
0.501400,-1.560803
0.501500,-1.597806
0.501600,-1.585472
0.501700,-1.550417
0.501800,-1.562102
0.501900,-1.608517
0.502000,-1.680574
0.502100,-1.738025
0.502200,-1.778923
0.502300,-1.806837
0.502400,-1.853252
0.502500,-1.899343
0.502600,-1.940565
0.502700,-1.974971
0.502800,-2.010026
0.502900,-2.029176
0.503000,-2.101234
0.503100,-2.117138
0.503200,-2.135964
0.503300,-2.104155
0.503400,-2.083057
0.503500,-2.141807
0.503600,-2.223277
0.503700,-2.237234
0.503800,-2.190494
0.503900,-2.062284
0.504000,-2.001262
0.504100,-2.017816
0.504200,-2.096689
0.504300,-2.110647
0.504400,-2.042484
0.504500,-1.927582
0.504600,-1.832154
0.504700,-1.817873
0.504800,-1.858121
0.504900,-1.873701
0.505000,-1.860393
0.505100,-1.827935
0.505200,-1.797424
0.505300,-1.789309
0.505400,-1.776975
0.505500,-1.809434
0.505600,-1.810732
0.505700,-1.808460
0.505800,-1.840269
0.505900,-1.866885
0.506000,-1.890579
0.506100,-1.895448
0.506200,-1.908107
0.506300,-1.948355
0.506400,-2.028202
0.506500,-2.067152
0.506600,-2.094417
0.506700,-2.121358
0.506800,-2.157711
0.506900,-2.208671
0.507000,-2.235936
0.507100,-2.262227
0.507200,-2.296633
0.507300,-2.328117
0.507400,-2.362523
0.507500,-2.392060
0.507600,-2.436528
0.507700,-2.462819
0.507800,-2.498199
0.507900,-2.531956
0.508000,-2.591679
0.508100,-2.649780
0.508200,-2.706257
0.508300,-2.764682
0.508400,-2.834143
0.508500,-2.911719
0.508600,-2.982478
0.508700,-3.075309
0.508800,-3.221372
0.508900,-3.285315
0.509000,-3.293430
0.509100,-3.218451
0.509200,-3.204818
0.509300,-3.331082
0.509400,-3.461565
0.509500,-3.539465
0.509600,-3.511876
0.509700,-3.436247
0.509800,-3.385287
0.509900,-3.420667
0.510000,-3.473899
0.510100,-3.513823
0.510200,-3.489479
0.510300,-3.418720
0.510400,-3.348934
0.510500,-3.299922
0.510600,-3.284342
0.510700,-3.247014
0.510800,-3.214231
0.510900,-3.163596
0.511000,-3.128216
0.511100,-3.077581
0.511200,-3.038307
0.511300,-2.969495
0.511400,-2.912693
0.511500,-2.862707
0.511600,-2.860434
0.511700,-2.801685
0.511800,-2.739040
0.511900,-2.627708
0.512000,-2.563440
0.512100,-2.577073
0.512200,-2.633550
0.512300,-2.678992
0.512400,-2.625760
0.512500,-2.519297
0.512600,-2.444318
0.512700,-2.453082
0.512800,-2.515402
0.512900,-2.562142
0.513000,-2.584538
0.513100,-2.523841
0.513200,-2.465091
0.513300,-2.437177
0.513400,-2.421597
0.513500,-2.405693
0.513600,-2.362199
0.513700,-2.313511
0.513800,-2.258007
0.513900,-2.176212
0.514000,-2.092145
0.514100,-2.005806
0.514200,-1.923687
0.514300,-1.865586
0.514400,-1.840269
0.514500,-1.837997
0.514600,-1.826637
0.514700,-1.738675
0.514800,-1.701348
0.514900,-1.672460
0.515000,-1.661424
0.515100,-1.625720
0.515200,-1.601052
0.515300,-1.578655
0.515400,-1.534837
0.515500,-1.501080
0.515600,-1.479009
0.515700,-1.475114
0.515800,-1.478684
0.515900,-1.497834
0.516000,-1.527371
0.516100,-1.547820
0.516200,-1.554961
0.516300,-1.558207
0.516400,-1.578980
0.516500,-1.582875
0.516600,-1.604297
0.516700,-1.566970
0.516800,-1.573137
0.516900,-1.496861
0.517000,-1.448822
0.517100,-1.278417
0.517200,-1.155075
0.517300,-1.207658
0.517400,-1.232975
0.517500,-1.272250
0.517600,-1.168708
0.517700,-1.067763
0.517800,-0.964221
0.517900,-0.931763
0.518000,-0.998627
0.518100,-1.030111
0.518200,-1.038875
0.518300,-0.979476
0.518400,-0.947018
0.518500,-0.937281
0.518600,-0.963572
0.518700,-1.001548
0.518800,-1.009013
0.518900,-1.028813
0.519000,-1.034006
0.519100,-1.037577
0.519200,-1.069386
0.519300,-1.077176
0.519400,-1.100870
0.519500,-1.164164
0.519600,-1.211877
0.519700,-1.270302
0.519800,-1.306331
0.519900,-1.314770
0.520000,-1.331973
0.520100,-1.342359
0.520200,-1.460832
0.520300,-1.600078
0.520400,-1.606569
0.520500,-1.607543
0.520600,-1.562751
0.520700,-1.619228
0.520800,-1.733481
0.520900,-1.867209
0.521000,-1.902589
0.521100,-1.856174
0.521200,-1.806188
0.521300,-1.805863
0.521400,-1.873052
0.521500,-1.930503
0.521600,-1.954847
0.521700,-1.980813
0.521800,-1.974646
0.521900,-1.961663
0.522000,-1.963935
0.522100,-1.955820
0.522200,-1.954522
0.522300,-1.935696
0.522400,-1.935047
0.522500,-1.952899
0.522600,-1.950952
0.522700,-1.934073
0.522800,-1.909081
0.522900,-1.884412
0.523000,-1.920116
0.523100,-1.986656
0.523200,-2.009377
0.523300,-2.024632
0.523400,-2.037615
0.523500,-2.102857
0.523600,-2.135964
0.523700,-2.144728
0.523800,-2.155439
0.523900,-2.195038
0.524000,-2.195363
0.524100,-2.229444
0.524200,-2.260279
0.524300,-2.290790
0.524400,-2.308642
0.524500,-2.335258
0.524600,-2.356681
0.524700,-2.399526
0.524800,-2.433282
0.524900,-2.454705
0.525000,-2.486189
0.525100,-2.500147
0.525200,-2.542992
0.525300,-2.571555
0.525400,-2.666333
0.525500,-2.775718
0.525600,-2.783184
0.525700,-2.688405
0.525800,-2.611479
0.525900,-2.598171
0.526000,-2.709178
0.526100,-2.811747
0.526200,-2.836415
0.526300,-2.751050
0.526400,-2.629980
0.526500,-2.603364
0.526600,-2.642963
0.526700,-2.719565
0.526800,-2.736119
0.526900,-2.712424
0.527000,-2.671527
0.527100,-2.682887
0.527200,-2.696520
0.527300,-2.696844
0.527400,-2.719240
0.527500,-2.702362
0.527600,-2.707231
0.527700,-2.703660
0.527800,-2.701064
0.527900,-2.704310
0.528000,-2.687107
0.528100,-2.685159
0.528200,-2.694248
0.528300,-2.685808
0.528400,-2.664710
0.528500,-2.590705
0.528600,-2.497550
0.528700,-2.481645
0.528800,-2.542992
0.528900,-2.609207
0.529000,-2.624137
0.529100,-2.545588
0.529200,-2.436528
0.529300,-2.418351
0.529400,-2.469311
0.529500,-2.575125
0.529600,-2.616347
0.529700,-2.609207
0.529800,-2.566037
0.529900,-2.534552
0.530000,-2.549808
0.530100,-2.575125
0.530200,-2.587135
0.530300,-2.574152
0.530400,-2.555326
0.530500,-2.526762
0.530600,-2.495602
0.530700,-2.454380
0.530800,-2.390762
0.530900,-2.344022
0.531000,-2.312537
0.531100,-2.276833
0.531200,-2.281053
0.531300,-2.220680
0.531400,-2.137912
0.531500,-2.069749
0.531600,-2.026904
0.531700,-1.993148
0.531800,-1.936021
0.531900,-1.871429
0.532000,-1.816250
0.532100,-1.747114
0.532200,-1.685118
0.532300,-1.648765
0.532400,-1.629939
0.532500,-1.634484
0.532600,-1.641300
0.532700,-1.650713
0.532800,-1.676030
0.532900,-1.654283
0.533000,-1.671486
0.533100,-1.645195
0.533200,-1.664021
0.533300,-1.640975
0.533400,-1.679601
0.533500,-1.680574
0.533600,-1.693233
0.533700,-1.583849
0.533800,-1.494588
0.533900,-1.425777
0.534000,-1.523476
0.534100,-1.618904
0.534200,-1.612087
0.534300,-1.556259
0.534400,-1.460832
0.534500,-1.407276
0.534600,-1.441357
0.534700,-1.516011
0.534800,-1.556908
0.534900,-1.523476
0.535000,-1.466999
0.535100,-1.425452
0.535200,-1.421557
0.535300,-1.455314
0.535400,-1.484851
0.535500,-1.510168
0.535600,-1.518932
0.535700,-1.527371
0.535800,-1.531266
0.535900,-1.555285
0.536000,-1.570541
0.536100,-1.594884
0.536200,-1.621500
0.536300,-1.626369
0.536400,-1.656555
0.536500,-1.666293
0.536600,-1.664345
0.536700,-1.645519
0.536800,-1.671161
0.536900,-1.767562
0.537000,-1.823391
0.537100,-1.809434
0.537200,-1.718875
0.537300,-1.630913
0.537400,-1.654608
0.537500,-1.743868
0.537600,-1.843515
0.537700,-1.823066
0.537800,-1.712383
0.537900,-1.616632
0.538000,-1.608842
0.538100,-1.664994
0.538200,-1.708164
0.538300,-1.710436
0.538400,-1.692259
0.538500,-1.666293
0.538600,-1.669214
0.538700,-1.671486
0.538800,-1.680574
0.538900,-1.695181
0.539000,-1.702646
0.539100,-1.761720
0.539200,-1.827935
0.539300,-1.867534
0.539400,-1.907782
0.539500,-1.932775
0.539600,-1.971725
0.539700,-2.064231
0.539800,-2.117463
0.539900,-2.165826
0.540000,-2.197959
0.540100,-2.244050
0.540200,-2.307669
0.540300,-2.324547
0.540400,-2.331363
0.540500,-2.366418
0.540600,-2.392385
0.540700,-2.419650
0.540800,-2.448862
0.540900,-2.484891
0.541000,-2.507612
0.541100,-2.538123
0.541200,-2.576748
0.541300,-2.608557
0.541400,-2.648806
0.541500,-2.690353
0.541600,-2.708205
0.541700,-2.727030
0.541800,-2.734821
0.541900,-2.757541
0.542000,-2.814668
0.542100,-2.936712
0.542200,-3.037333
0.542300,-2.991566
0.542400,-2.893542
0.542500,-2.836091
0.542600,-2.867575
0.542700,-3.016884
0.542800,-3.103548
0.542900,-3.130813
0.543000,-3.063624
0.543100,-3.011042
0.543200,-3.019481
0.543300,-3.072388
0.543400,-3.143796
0.543500,-3.176904
0.543600,-3.146393
0.543700,-3.111663
0.543800,-3.077257
0.543900,-3.063949
0.544000,-3.045123
0.544100,-3.053887
0.544200,-3.032139
0.544300,-3.022727
0.544400,-2.990917
0.544500,-2.999356
0.544600,-3.008120
0.544700,-2.996111
0.544800,-2.992865
0.544900,-3.000006
0.545000,-2.996111
0.545100,-2.971118
0.545200,-2.911070
0.545300,-2.838363
0.545400,-2.839986
0.545500,-2.924702
0.545600,-2.977609
0.545700,-2.977609
0.545800,-2.875365
0.545900,-2.769226
0.546000,-2.744233
0.546100,-2.790974
0.546200,-2.852644
0.546300,-2.850697
0.546400,-2.762086
0.546500,-2.650753
0.546600,-2.555650
0.546700,-2.507287
0.546800,-2.462819
0.546900,-2.433282
0.547000,-2.398227
0.547100,-2.355707
0.547200,-2.299554
0.547300,-2.242427
0.547400,-2.193740
0.547500,-2.135639
0.547600,-2.100584
0.547700,-2.114542
0.547800,-2.114866
0.547900,-2.121682
0.548000,-2.096040
0.548100,-2.052871
0.548200,-2.040537
0.548300,-2.065205
0.548400,-2.073644
0.548500,-2.060985
0.548600,-2.043458
0.548700,-2.017167
0.548800,-1.983735
0.548900,-1.965233
0.549000,-1.946732
0.549100,-1.962637
0.549200,-1.982436
0.549300,-1.995420
0.549400,-1.995420
0.549500,-1.998341
0.549600,-1.987305
0.549700,-1.989902
0.549800,-1.993472
0.549900,-1.982761
0.550000,-2.002560
0.550100,-2.002560
0.550200,-2.003210
0.550300,-1.962637
0.550400,-1.870455
0.550500,-1.753605
0.550600,-1.764641
0.550700,-1.881816
0.550800,-1.968479
0.550900,-2.009701
0.551000,-1.919467
0.551100,-1.819496
0.551200,-1.792231
0.551300,-1.852603
0.551400,-1.931801
0.551500,-1.954522
0.551600,-1.915572
0.551700,-1.853577
0.551800,-1.810732
0.551900,-1.820145
0.552000,-1.845462
0.552100,-1.876947
0.552200,-1.909405
0.552300,-1.908756
0.552400,-1.905510
0.552500,-1.916546
0.552600,-1.921090
0.552700,-1.942837
0.552800,-1.987305
0.552900,-2.013596
0.553000,-2.026255
0.553100,-2.031124
0.553200,-2.039887
0.553300,-2.033071
0.553400,-2.028202
0.553500,-2.078513
0.553600,-2.190494
0.553700,-2.244375
0.553800,-2.211916
0.553900,-2.138885
0.554000,-2.083382
0.554100,-2.163554
0.554200,-2.261902
0.554300,-2.320976
0.554400,-2.273263
0.554500,-2.170045
0.554600,-2.089873
0.554700,-2.107401
0.554800,-2.154141
0.554900,-2.163878
0.555000,-2.138236
0.555100,-2.102857
0.555200,-2.053520
0.555300,-2.025930
0.555400,-1.964260
0.555500,-1.943162
0.555600,-1.914598
0.555700,-1.909081
0.555800,-1.900966
0.555900,-1.899018
0.556000,-1.876298
0.556100,-1.851954
0.556200,-1.843515
0.556300,-1.862990
0.556400,-1.917195
0.556500,-1.951601
0.556600,-1.974322
0.556700,-2.002560
0.556800,-2.054818
0.556900,-2.094093
0.557000,-2.082083
0.557100,-2.097988
0.557200,-2.131420
0.557300,-2.135315
0.557400,-2.161282
0.557500,-2.186599
0.557600,-2.208671
0.557700,-2.226198
0.557800,-2.242752
0.557900,-2.279105
0.558000,-2.290790
0.558100,-2.303449
0.558200,-2.327468
0.558300,-2.363821
0.558400,-2.395306
0.558500,-2.438800
0.558600,-2.473206
0.558700,-2.567660
0.558800,-2.721513
0.558900,-2.772797
0.559000,-2.754296
0.559100,-2.676395
0.559200,-2.660815
0.559300,-2.785780
0.559400,-2.956836
0.559500,-3.047070
0.559600,-3.063624
0.559700,-3.023700
0.559800,-3.008445
0.559900,-3.044149
0.560000,-3.132436
0.560100,-3.208713
0.560200,-3.209687
0.560300,-3.178202
0.560400,-3.158078
0.560500,-3.148341
0.560600,-3.151262
0.560700,-3.166517
0.560800,-3.163921
0.560900,-3.132761
0.561000,-3.131462
0.561100,-3.111663
0.561200,-3.133410
0.561300,-3.107443
0.561400,-3.082125
0.561500,-3.026297
0.561600,-3.000330
0.561700,-2.979881
0.561800,-2.916263
0.561900,-2.798764
0.562000,-2.722486
0.562100,-2.707231
0.562200,-2.762086
0.562300,-2.772148
0.562400,-2.702362
0.562500,-2.564089
0.562600,-2.459249
0.562700,-2.448213
0.562800,-2.514104
0.562900,-2.560844
0.563000,-2.552080
0.563100,-2.467364
0.563200,-2.417053
0.563300,-2.384595
0.563400,-2.388165
0.563500,-2.393359
0.563600,-2.391086
0.563700,-2.389464
0.563800,-2.365444
0.563900,-2.341101
0.564000,-2.291115
0.564100,-2.233664
0.564200,-2.196012
0.564300,-2.162255
0.564400,-2.153492
0.564500,-2.137912
0.564600,-2.122007
0.564700,-2.070723
0.564800,-1.998016
0.564900,-1.967830
0.565000,-1.953548
0.565100,-1.899018
0.565200,-1.859744
0.565300,-1.799696
0.565400,-1.754579
0.565500,-1.689338
0.565600,-1.637405
0.565700,-1.625720
0.565800,-1.615009
0.565900,-1.626694
0.566000,-1.631562
0.566100,-1.652336
0.566200,-1.660450
0.566300,-1.684794
0.566400,-1.701672
0.566500,-1.700049
0.566600,-1.729911
0.566700,-1.726665
0.566800,-1.777625
0.566900,-1.770159
0.567000,-1.755228
0.567100,-1.653309
0.567200,-1.599104
0.567300,-1.643896
0.567400,-1.760097
0.567500,-1.831830
0.567600,-1.825663
0.567700,-1.745166
0.567800,-1.678627
0.567900,-1.673109
0.568000,-1.735753
0.568100,-1.794178
0.568200,-1.799696
0.568300,-1.723095
0.568400,-1.654608
0.568500,-1.628316
0.568600,-1.638379
0.568700,-1.661424
0.568800,-1.677653
0.568900,-1.694207
0.569000,-1.685118
0.569100,-1.684469
0.569200,-1.691610
0.569300,-1.674083
0.569400,-1.683820
0.569500,-1.698426
0.569600,-1.677328
0.569700,-1.706541
0.569800,-1.708164
0.569900,-1.721796
0.570000,-1.682522
0.570100,-1.698751
0.570200,-1.791257
0.570300,-1.898045
0.570400,-1.924336
0.570500,-1.883114
0.570600,-1.795477
0.570700,-1.803591
0.570800,-1.867209
0.570900,-1.972699
0.571000,-1.988928
0.571100,-1.910379
0.571200,-1.816574
0.571300,-1.779897
0.571400,-1.814952
0.571500,-1.864288
0.571600,-1.845138
0.571700,-1.854875
0.571800,-1.833128
0.571900,-1.812355
0.572000,-1.813329
0.572100,-1.805863
0.572200,-1.784765
0.572300,-1.756202
0.572400,-1.787687
0.572500,-1.797424
0.572600,-1.804889
0.572700,-1.806188
0.572800,-1.782169
0.572900,-1.780221
0.573000,-1.822092
0.573100,-1.897720
0.573200,-1.944460
0.573300,-1.960689
0.573400,-1.975945
0.573500,-2.024632
0.573600,-2.047028
0.573700,-2.033071
0.573800,-2.051572
0.573900,-2.064231
0.574000,-2.080136
0.574100,-2.080460
0.574200,-2.107725
0.574300,-2.127200
0.574400,-2.141157
0.574500,-2.150246
0.574600,-2.159983
0.574700,-2.198933
0.574800,-2.210294
0.574900,-2.228146
0.575000,-2.268394
0.575100,-2.292089
0.575200,-2.313836
0.575300,-2.350514
0.575400,-2.465091
0.575500,-2.597197
0.575600,-2.632901
0.575700,-2.594276
0.575800,-2.487488
0.575900,-2.515077
0.576000,-2.642963
0.576100,-2.764358
0.576200,-2.848100
0.576300,-2.810124
0.576400,-2.771174
0.576500,-2.761761
0.576600,-2.829274
0.576700,-2.908148
0.576800,-2.967223
0.576900,-2.977609
0.577000,-2.964626
0.577100,-2.952941
0.577200,-2.966249
0.577300,-2.974039
0.577400,-2.997409
0.577500,-3.014612
0.577600,-3.013638
0.577700,-3.031490
0.577800,-3.049342
0.577900,-3.082775
0.578000,-3.087968
0.578100,-3.074011
0.578200,-3.077906
0.578300,-3.075634
0.578400,-3.098355
0.578500,-3.043175
0.578600,-2.968196
0.578700,-2.947098
0.578800,-2.993514
0.578900,-3.074011
0.579000,-3.096083
0.579100,-3.032464
0.579200,-2.953915
0.579300,-2.919184
0.579400,-2.963003
0.579500,-3.051939
0.579600,-3.104197
0.579700,-3.071739
0.579800,-3.013638
0.579900,-2.965600
0.580000,-2.943528
0.580100,-2.928597
0.580200,-2.915938
0.580300,-2.889647
0.580400,-2.860434
0.580500,-2.806878
0.580600,-2.762410
0.580700,-2.700415
0.580800,-2.619269
0.580900,-2.564089
0.581000,-2.536175
0.581100,-2.542667
0.581200,-2.542342
0.581300,-2.518972
0.581400,-2.460872
0.581500,-2.426141
0.581600,-2.412834
0.581700,-2.416729
0.581800,-2.381674
0.581900,-2.367067
0.582000,-2.345969
0.582100,-2.329091
0.582200,-2.323249
0.582300,-2.324871
0.582400,-2.344346
0.582500,-2.365769
0.582600,-2.369989
0.582700,-2.424194
0.582800,-2.446590
0.582900,-2.474829
0.583000,-2.482294
0.583100,-2.464118
0.583200,-2.492032
0.583300,-2.490084
0.583400,-2.508910
0.583500,-2.517349
0.583600,-2.526113
0.583700,-2.476127
0.583800,-2.366743
0.583900,-2.353110
0.584000,-2.401149
0.584100,-2.516376
0.584200,-2.536824
0.584300,-2.484242
0.584400,-2.352786
0.584500,-2.274561
0.584600,-2.232690
0.584700,-2.277482
0.584800,-2.279105
0.584900,-2.220031
0.585000,-2.108050
0.585100,-2.034045
0.585200,-2.002885
0.585300,-2.000938
0.585400,-2.014570
0.585500,-2.004508
0.585600,-2.005157
0.585700,-2.004183
0.585800,-2.014895
0.585900,-2.027553
0.586000,-2.047028
0.586100,-2.075267
0.586200,-2.138885
0.586300,-2.159983
0.586400,-2.201530
0.586500,-2.246971
0.586600,-2.233988
0.586700,-2.237559
0.586800,-2.256709
0.586900,-2.374208
0.587000,-2.455354
0.587100,-2.463469
0.587200,-2.398876
0.587300,-2.317406
0.587400,-2.327468
0.587500,-2.407316
0.587600,-2.478399
0.587700,-2.441721
0.587800,-2.332012
0.587900,-2.224900
0.588000,-2.193415
0.588100,-2.202828
0.588200,-2.203477
0.588300,-2.133043
0.588400,-2.082732
0.588500,-2.022360
0.588600,-1.988928
0.588700,-1.939916
0.588800,-1.902913
0.588900,-1.862341
0.589000,-1.816250
0.589100,-1.800021
0.589200,-1.793854
0.589300,-1.780546
0.589400,-1.738350
0.589500,-1.702321
0.589600,-1.671811
0.589700,-1.690636
0.589800,-1.667916
0.589900,-1.637405
0.590000,-1.601052
0.590100,-1.574436
0.590200,-1.575734
0.590300,-1.568269
0.590400,-1.538407
0.590500,-1.519257
0.590600,-1.502703
0.590700,-1.507247
0.590800,-1.502378
0.590900,-1.502054
0.591000,-1.501405
0.591100,-1.488421
0.591200,-1.483228
0.591300,-1.502378
0.591400,-1.516336
0.591500,-1.522503
0.591600,-1.536784
0.591700,-1.566646
0.591800,-1.602999
0.591900,-1.634159
0.592000,-1.699400
0.592100,-1.845138
0.592200,-1.980813
0.592300,-2.006780
0.592400,-1.948355
0.592500,-1.913300
0.592600,-1.948355
0.592700,-2.123305
0.592800,-2.256709
0.592900,-2.281053
0.593000,-2.232041
0.593100,-2.166799
0.593200,-2.184976
0.593300,-2.258981
0.593400,-2.332986
0.593500,-2.366094
0.593600,-2.325845
0.593700,-2.287220
0.593800,-2.281053
0.593900,-2.293387
0.594000,-2.308642
0.594100,-2.322924
0.594200,-2.344346
0.594300,-2.363497
0.594400,-2.392060
0.594500,-2.414781
0.594600,-2.459249
0.594700,-2.474829
0.594800,-2.508586
0.594900,-2.530333
0.595000,-2.575450
0.595100,-2.587135
0.595200,-2.529034
0.595300,-2.496901
0.595400,-2.514104
0.595500,-2.613102
0.595600,-2.683536
0.595700,-2.706257
0.595800,-2.625111
0.595900,-2.562467
0.596000,-2.558896
0.596100,-2.638095
0.596200,-2.753971
0.596300,-2.795518
0.596400,-2.786105
0.596500,-2.730276
0.596600,-2.699441
0.596700,-2.711126
0.596800,-2.724109
0.596900,-2.713073
0.597000,-2.689054
0.597100,-2.654648
0.597200,-2.636472
0.597300,-2.601417
0.597400,-2.560194
0.597500,-2.500796
0.597600,-2.460223
0.597700,-2.444967
0.597800,-2.443344
0.597900,-2.451459
0.598000,-2.393359
0.598100,-2.317731
0.598200,-2.309291
0.598300,-2.294361
0.598400,-2.280404
0.598500,-2.235936
0.598600,-2.196337
0.598700,-2.142780
0.598800,-2.096040
0.598900,-2.069425
0.599000,-2.039887
0.599100,-2.015868
0.599200,-2.011000
0.599300,-2.005806
0.599400,-2.016842
0.599500,-2.007429
0.599600,-1.971400
0.599700,-1.978217
0.599800,-1.943162
0.599900,-1.971725
0.600000,-1.983735
0.600100,-1.998341
0.600200,-1.998341
0.600300,-2.000938
0.600400,-1.940565
0.600500,-1.844489
0.600600,-1.831505
0.600700,-1.965883
0.600800,-2.055143
0.600900,-2.081759
0.601000,-2.037291
0.601100,-1.947057
0.601200,-1.924985
0.601300,-1.979515
0.601400,-2.083382
0.601500,-2.119410
0.601600,-2.081110
0.601700,-2.010350
0.601800,-1.973673
0.601900,-1.980489
0.602000,-2.006131
0.602100,-2.026255
0.602200,-2.048651
0.602300,-2.055792
0.602400,-2.050599
0.602500,-2.064556
0.602600,-2.069425
0.602700,-2.071372
0.602800,-2.123630
0.602900,-2.123954
0.603000,-2.130771
0.603100,-2.130771
0.603200,-2.145377
0.603300,-2.122332
0.603400,-2.096689
0.603500,-2.115515
0.603600,-2.198284
0.603700,-2.250217
0.603800,-2.196986
0.603900,-2.129148
0.604000,-2.071697
0.604100,-2.109673
0.604200,-2.186274
0.604300,-2.245673
0.604400,-2.215487
0.604500,-2.080460
0.604600,-2.011324
0.604700,-2.007429
0.604800,-2.048327
0.604900,-2.072021
0.605000,-2.063257
0.605100,-2.064231
0.605200,-2.031773
0.605300,-2.023658
0.605400,-2.013596
0.605500,-2.017491
0.605600,-1.991849
0.605700,-2.005482
0.605800,-1.992823
0.605900,-2.018465
0.606000,-2.013272
0.606100,-1.991525
0.606200,-1.978866
0.606300,-1.989577
0.606400,-2.046379
0.606500,-2.056117
0.606600,-2.039887
0.606700,-2.026904
0.606800,-2.032097
0.606900,-2.055792
0.607000,-2.037940
0.607100,-2.052546
0.607200,-2.054494
0.607300,-2.065530
0.607400,-2.076890
0.607500,-2.097014
0.607600,-2.101883
0.607700,-2.109673
0.607800,-2.127849
0.607900,-2.149272
0.608000,-2.182379
0.608100,-2.178809
0.608200,-2.205100
0.608300,-2.248594
0.608400,-2.261253
0.608500,-2.320652
0.608600,-2.361549
0.608700,-2.460547
0.608800,-2.614400
0.608900,-2.713398
0.609000,-2.696844
0.609100,-2.632901
0.609200,-2.644911
0.609300,-2.727030
0.609400,-2.888349
0.609500,-2.994163
0.609600,-2.982154
0.609700,-2.922430
0.609800,-2.866277
0.609900,-2.893867
0.610000,-2.947748
0.610100,-3.007796
0.610200,-3.002602
0.610300,-2.973714
0.610400,-2.952616
0.610500,-2.921132
0.610600,-2.892568
0.610700,-2.868224
0.610800,-2.844530
0.610900,-2.829924
0.611000,-2.800062
0.611100,-2.781236
0.611200,-2.775718
0.611300,-2.755594
0.611400,-2.723460
0.611500,-2.681589
0.611600,-2.662438
0.611700,-2.641016
0.611800,-2.571879
0.611900,-2.491707
0.612000,-2.387841
0.612100,-2.395306
0.612200,-2.440423
0.612300,-2.453082
0.612400,-2.404719
0.612500,-2.291439
0.612600,-2.186274
0.612700,-2.156413
0.612800,-2.189845
0.612900,-2.243726
0.613000,-2.223601
0.613100,-2.132718
0.613200,-2.059362
0.613300,-2.011000
0.613400,-1.993148
0.613500,-1.976918
0.613600,-1.942188
0.613700,-1.916546
0.613800,-1.890904
0.613900,-1.833453
0.614000,-1.777625
0.614100,-1.718875
0.614200,-1.675381
0.614300,-1.664670
0.614400,-1.674732
0.614500,-1.668565
0.614600,-1.686741
0.614700,-1.664670
0.614800,-1.647467
0.614900,-1.655257
0.615000,-1.678951
0.615100,-1.692908
0.615200,-1.681873
0.615300,-1.679925
0.615400,-1.682846
0.615500,-1.702970
0.615600,-1.694207
0.615700,-1.734455
0.615800,-1.789634
0.615900,-1.847085
0.616000,-1.900317
0.616100,-1.964909
0.616200,-2.014570
0.616300,-2.047353
0.616400,-2.096040
0.616500,-2.147974
0.616600,-2.178160
0.616700,-2.226523
0.616800,-2.272289
0.616900,-2.269692
0.617000,-2.257683
0.617100,-2.162580
0.617200,-2.110971
0.617300,-2.119086
0.617400,-2.279430
0.617500,-2.336556
0.617600,-2.337855
0.617700,-2.275210
0.617800,-2.195363
0.617900,-2.209969
0.618000,-2.272614
0.618100,-2.327468
0.618200,-2.339802
0.618300,-2.284623
0.618400,-2.225874
0.618500,-2.208022
0.618600,-2.221654
0.618700,-2.228470
0.618800,-2.236585
0.618900,-2.233339
0.619000,-2.218408
0.619100,-2.196337
0.619200,-2.180432
0.619300,-2.155114
0.619400,-2.155439
0.619500,-2.185950
0.619600,-2.138885
0.619700,-2.160632
0.619800,-2.122007
0.619900,-2.115191
0.620000,-2.068775
0.620100,-2.026255
0.620200,-2.072995
0.620300,-2.135964
0.620400,-2.146026
0.620500,-2.058713
0.620600,-1.923362
0.620700,-1.896746
0.620800,-1.924011
0.620900,-2.017491
0.621000,-2.024957
0.621100,-1.952250
0.621200,-1.846111
0.621300,-1.797099
0.621400,-1.824364
0.621500,-1.882789
0.621600,-1.897071
0.621700,-1.910703
0.621800,-1.924985
0.621900,-1.937644
0.622000,-1.962637
0.622100,-1.970427
0.622200,-1.999639
0.622300,-1.997043
0.622400,-2.035019
0.622500,-2.108699
0.622600,-2.142131
0.622700,-2.167124
0.622800,-2.177511
0.622900,-2.198933
0.623000,-2.265148
0.623100,-2.345645
0.623200,-2.383296
0.623300,-2.416079
0.623400,-2.440099
0.623500,-2.468337
0.623600,-2.490734
0.623700,-2.476776
0.623800,-2.484891
0.623900,-2.494304
0.624000,-2.517349
0.624100,-2.527412
0.624200,-2.546237
0.624300,-2.551431
0.624400,-2.548185
0.624500,-2.536175
0.624600,-2.559221
0.624700,-2.559545
0.624800,-2.561168
0.624900,-2.566686
0.625000,-2.569283
0.625100,-2.600443
0.625200,-2.596872
0.625300,-2.625111
0.625400,-2.687107
0.625500,-2.816940
0.625600,-2.822458
0.625700,-2.766305
0.625800,-2.685484
0.625900,-2.652701
0.626000,-2.761112
0.626100,-2.880559
0.626200,-2.923404
0.626300,-2.880234
0.626400,-2.782859
0.626500,-2.740014
0.626600,-2.784482
0.626700,-2.866277
0.626800,-2.900034
0.626900,-2.885427
0.627000,-2.844205
0.627100,-2.819212
0.627200,-2.810773
0.627300,-2.816616
0.627400,-2.829924
0.627500,-2.840635
0.627600,-2.853943
0.627700,-2.853618
0.627800,-2.865303
0.627900,-2.872769
0.628000,-2.888673
0.628100,-2.879910
0.628200,-2.864979
0.628300,-2.865303
0.628400,-2.863031
0.628500,-2.802983
0.628600,-2.700090
0.628700,-2.673150
0.628800,-2.727680
0.628900,-2.802334
0.629000,-2.848425
0.629100,-2.782859
0.629200,-2.680290
0.629300,-2.630305
0.629400,-2.661789
0.629500,-2.731575
0.629600,-2.796167
0.629700,-2.765981
0.629800,-2.679317
0.629900,-2.631603
0.630000,-2.607584
0.630100,-2.594925
0.630200,-2.597522
0.630300,-2.569283
0.630400,-2.556299
0.630500,-2.525464
0.630600,-2.486514
0.630700,-2.451134
0.630800,-2.407965
0.630900,-2.371287
0.631000,-2.347917
0.631100,-2.359277
0.631200,-2.354084
0.631300,-2.334609
0.631400,-2.280728
0.631500,-2.228795
0.631600,-2.220680
