0.000100,-1.167409
0.000200,-1.239467
0.000300,-1.218044
0.000400,-1.182340
0.000500,-1.093405
0.000600,-1.063219
0.000700,-1.085939
0.000800,-1.136899
0.000900,-1.177147
0.001000,-1.157672
0.001100,-1.151830
0.001200,-1.151830
0.001300,-1.163190
0.001400,-1.181691
0.001500,-1.194350
0.001600,-1.246283
0.001700,-1.259591
0.001800,-1.296269
0.001900,-1.329051
0.002000,-1.314445
0.002100,-1.275495
0.002200,-1.254398
0.002300,-1.338789
0.002400,-1.486149
0.002500,-1.519906
0.002600,-1.450121
0.002700,-1.348202
0.002800,-1.355667
0.002900,-1.429997
0.003000,-1.572813
0.003100,-1.581577
0.003200,-1.534837
0.003300,-1.408574
0.003400,-1.390073
0.003500,-1.395591
0.003600,-1.478035
0.003700,-1.486149
0.003800,-1.485825
0.003900,-1.469920
0.004000,-1.452393
0.004100,-1.467973
0.004200,-1.476087
0.004300,-1.472517
0.004400,-1.454989
0.004500,-1.466674
0.004600,-1.510168
0.004700,-1.554312
0.004800,-1.554961
0.004900,-1.569242
0.005000,-1.575410
0.005100,-1.609815
0.005200,-1.684145
0.005300,-1.702646
0.005400,-1.735104
0.005500,-1.730560
0.005600,-1.754904
0.005700,-1.759448
0.005800,-1.722121
0.005900,-1.736727
0.006000,-1.721796
0.006100,-1.709787
0.006200,-1.712708
0.006300,-1.724718
0.006400,-1.728937
0.006500,-1.721472
0.006600,-1.713033
0.006700,-1.727639
0.006800,-1.705567
0.006900,-1.721472
0.007000,-1.709138
0.007100,-1.740622
0.007200,-1.749386
0.007300,-1.772756
0.007400,-1.782169
0.007500,-1.891553
0.007600,-2.007754
0.007700,-2.034045
0.007800,-1.961663
0.007900,-1.863314
0.008000,-1.898694
0.008100,-2.027553
0.008200,-2.192442
0.008300,-2.228470
0.008400,-2.222628
0.008500,-2.128823
0.008600,-2.128823
0.008700,-2.155439
0.008800,-2.257683
0.008900,-2.311888
0.009000,-2.304423
0.009100,-2.270991
0.009200,-2.247945
0.009300,-2.241454
0.009400,-2.256384
0.009500,-2.258656
0.009600,-2.249893
0.009700,-2.247621
0.009800,-2.222952
0.009900,-2.235936
0.010000,-2.231716
0.010100,-2.206399
0.010200,-2.178160
0.010300,-2.193740
0.010400,-2.205100
0.010500,-2.192766
0.010600,-2.111296
0.010700,-2.026904
0.010800,-2.013272
0.010900,-2.070074
0.011000,-2.152842
0.011100,-2.161282
0.011200,-2.094417
0.011300,-1.980489
0.011400,-1.908756
0.011500,-1.941863
0.011600,-2.039238
0.011700,-2.107401
0.011800,-2.076565
0.011900,-2.011649
0.012000,-1.928556
0.012100,-1.901615
0.012200,-1.913300
0.012300,-1.913300
0.012400,-1.894150
0.012500,-1.867534
0.012600,-1.817873
0.012700,-1.742570
0.012800,-1.674732
0.012900,-1.621500
0.013000,-1.565997
0.013100,-1.540355
0.013200,-1.503677
0.013300,-1.503028
0.013400,-1.461157
0.013500,-1.366054
0.013600,-1.311849
0.013700,-1.304708
0.013800,-1.286856
0.013900,-1.226159
0.014000,-1.217720
0.014100,-1.184288
0.014200,-1.159620
0.014300,-1.108011
0.014400,-1.114503
0.014500,-1.133653
0.014600,-1.156698
0.014700,-1.193701
0.014800,-1.225185
0.014900,-1.266083
0.015000,-1.310550
0.015100,-1.288479
0.015200,-1.345281
0.015300,-1.312498
0.015400,-1.385529
0.015500,-1.353720
0.015600,-1.448173
0.015700,-1.380335
0.015800,-1.390073
0.015900,-1.216746
0.016000,-1.200517
0.016100,-1.329376
0.016200,-1.426102
0.016300,-1.492641
0.016400,-1.421233
0.016500,-1.330674
0.016600,-1.277767
0.016700,-1.319963
0.016800,-1.389424
0.016900,-1.434541
0.017000,-1.391047
0.017100,-1.307629
0.017200,-1.258293
0.017300,-1.253748
0.017400,-1.274522
0.017500,-1.310550
0.017600,-1.320288
0.017700,-1.308278
0.017800,-1.288803
0.017900,-1.297242
0.018000,-1.291400
0.018100,-1.298541
0.018200,-1.318016
0.018300,-1.334894
0.018400,-1.426751
0.018500,-1.375142
0.018600,-1.390073
0.018700,-1.371247
0.018800,-1.339763
0.018900,-1.337491
0.019000,-1.506923
0.019100,-1.596832
0.019200,-1.582875
0.019300,-1.474789
0.019400,-1.377090
0.019500,-1.438436
0.019600,-1.548794
0.019700,-1.668240
0.019800,-1.645195
0.019900,-1.545223
0.020000,-1.472841
0.020100,-1.461157
0.020200,-1.552040
0.020300,-1.585472
0.020400,-1.556259
0.020500,-1.565023
0.020600,-1.503352
0.020700,-1.504326
0.020800,-1.497510
0.020900,-1.511467
0.021000,-1.499133
0.021100,-1.471868
0.021200,-1.497185
0.021300,-1.533538
0.021400,-1.550741
0.021500,-1.541328
0.021600,-1.529968
0.021700,-1.547495
0.021800,-1.599429
0.021900,-1.671811
0.022000,-1.682197
0.022100,-1.670188
0.022200,-1.683171
0.022300,-1.726340
0.022400,-1.728613
0.022500,-1.701348
0.022600,-1.691935
0.022700,-1.700049
0.022800,-1.714655
0.022900,-1.728937
0.023000,-1.751658
0.023100,-1.768861
0.023200,-1.763667
0.023300,-1.795477
0.023400,-1.819820
0.023500,-1.834426
0.023600,-1.835725
0.023700,-1.883114
0.023800,-1.926283
0.023900,-1.926608
0.024000,-1.969778
0.024100,-1.987630
0.024200,-2.171993
0.024300,-2.259630
0.024400,-2.246647
0.024500,-2.171993
0.024600,-2.085005
0.024700,-2.119086
0.024800,-2.284299
0.024900,-2.413807
0.025000,-2.393359
0.025100,-2.322599
0.025200,-2.233339
0.025300,-2.250542
0.025400,-2.313186
0.025500,-2.400499
0.025600,-2.395631
0.025700,-2.354733
0.025800,-2.307019
0.025900,-2.293711
0.026000,-2.297931
0.026100,-2.305396
0.026200,-2.306046
0.026300,-2.303124
0.026400,-2.291439
0.026500,-2.264174
0.026600,-2.274886
0.026700,-2.326170
0.026800,-2.295010
0.026900,-2.259306
0.027000,-2.260929
0.027100,-2.259630
0.027200,-2.229769
0.027300,-2.133367
0.027400,-2.039887
0.027500,-2.030150
0.027600,-2.112594
0.027700,-2.181730
0.027800,-2.156737
0.027900,-2.016517
0.028000,-1.908431
0.028100,-1.876622
0.028200,-1.935047
0.028300,-2.042160
0.028400,-2.043782
0.028500,-1.940565
0.028600,-1.810083
0.028700,-1.750684
0.028800,-1.753281
0.028900,-1.755228
0.029000,-1.733806
0.029100,-1.684145
0.029200,-1.651362
0.029300,-1.593586
0.029400,-1.565997
0.029500,-1.503352
0.029600,-1.424479
0.029700,-1.377739
0.029800,-1.356641
0.029900,-1.371247
0.030000,-1.374818
0.030100,-1.317367
0.030200,-1.256345
0.030300,-1.226808
0.030400,-1.226808
0.030500,-1.217720
0.030600,-1.172603
0.030700,-1.138197
0.030800,-1.077500
0.030900,-1.028813
0.031000,-0.975257
0.031100,-0.959028
0.031200,-0.973959
0.031300,-0.961624
0.031400,-0.984994
0.031500,-0.986942
0.031600,-0.991161
0.031700,-1.001548
0.031800,-0.984994
0.031900,-1.009987
0.032000,-1.040498
0.032100,-1.032059
0.032200,-1.079123
0.032300,-1.044393
0.032400,-1.114827
0.032500,-0.984345
0.032600,-0.921376
0.032700,-0.893138
0.032800,-1.131056
0.032900,-1.183639
0.033000,-1.207982
0.033100,-1.153452
0.033200,-1.053481
0.033300,-1.028488
0.033400,-1.108011
0.033500,-1.208956
0.033600,-1.241739
0.033700,-1.201166
0.033800,-1.133653
0.033900,-1.096651
0.034000,-1.114827
0.034100,-1.150856
0.034200,-1.194350
0.034300,-1.200517
0.034400,-1.194999
0.034500,-1.168059
0.034600,-1.175524
0.034700,-1.179419
0.034800,-1.199219
0.034900,-1.233949
0.035000,-1.265109
0.035100,-1.283285
0.035200,-1.297892
0.035300,-1.295944
0.035400,-1.279390
0.035500,-1.242388
0.035600,-1.318665
0.035700,-1.441682
0.035800,-1.560154
0.035900,-1.527047
0.036000,-1.451419
0.036100,-1.362483
0.036200,-1.439409
0.036300,-1.591314
0.036400,-1.683496
0.036500,-1.665968
0.036600,-1.556908
0.036700,-1.522503
0.036800,-1.542302
0.036900,-1.625071
0.037000,-1.679601
0.037100,-1.685118
0.037200,-1.679925
0.037300,-1.657204
0.037400,-1.706865
0.037500,-1.708164
0.037600,-1.688040
0.037700,-1.675381
0.037800,-1.675706
0.037900,-1.698102
0.038000,-1.723095
0.038100,-1.697777
0.038200,-1.650064
0.038300,-1.628316
0.038400,-1.627343
0.038500,-1.666617
0.038600,-1.675056
0.038700,-1.658827
0.038800,-1.641624
0.038900,-1.630913
0.039000,-1.650713
0.039100,-1.609815
0.039200,-1.607868
0.039300,-1.591314
0.039400,-1.576383
0.039500,-1.568593
0.039600,-1.570541
0.039700,-1.548794
0.039800,-1.558531
0.039900,-1.545548
0.040000,-1.535486
0.040100,-1.521853
0.040200,-1.537758
0.040300,-1.520555
0.040400,-1.538732
0.040500,-1.532889
0.040600,-1.548469
0.040700,-1.560479
0.040800,-1.627992
0.040900,-1.783467
0.041000,-1.826961
0.041100,-1.771133
0.041200,-1.660126
0.041300,-1.628966
0.041400,-1.746465
0.041500,-1.897071
0.041600,-2.020088
0.041700,-1.971076
0.041800,-1.897396
0.041900,-1.827610
0.042000,-1.879219
0.042100,-1.940890
0.042200,-2.006131
0.042300,-2.044107
0.042400,-1.998665
0.042500,-1.959066
0.042600,-1.914923
0.042700,-1.900966
0.042800,-1.919792
0.042900,-1.939916
0.043000,-1.935047
0.043100,-1.905186
0.043200,-1.879868
0.043300,-1.909405
0.043400,-1.943811
0.043500,-1.923038
0.043600,-1.908107
0.043700,-1.900641
0.043800,-1.929854
0.043900,-1.876298
0.044000,-1.823715
0.044100,-1.809758
0.044200,-1.874675
0.044300,-2.009377
0.044400,-2.095067
0.044500,-2.105453
0.044600,-2.025930
0.044700,-1.987954
0.044800,-2.061635
0.044900,-2.178160
0.045000,-2.311239
0.045100,-2.347592
0.045200,-2.314485
0.045300,-2.296308
0.045400,-2.295334
0.045500,-2.328442
0.045600,-2.358304
0.045700,-2.381024
0.045800,-2.392385
0.045900,-2.386542
0.046000,-2.357654
0.046100,-2.328117
0.046200,-2.274236
0.046300,-2.243726
0.046400,-2.229769
0.046500,-2.232365
0.046600,-2.241778
0.046700,-2.266771
0.046800,-2.192117
0.046900,-2.166475
0.047000,-2.166150
0.047100,-2.170694
0.047200,-2.108050
0.047300,-2.084680
0.047400,-2.038914
0.047500,-2.009052
0.047600,-1.930503
0.047700,-1.900641
0.047800,-1.887658
0.047900,-1.897396
0.048000,-1.888632
0.048100,-1.860718
0.048200,-1.871429
0.048300,-1.845462
0.048400,-1.798398
0.048500,-1.794503
0.048600,-1.740947
0.048700,-1.761395
0.048800,-1.738025
0.048900,-1.790283
0.049000,-1.704593
0.049100,-1.678302
0.049200,-1.498808
0.049300,-1.401433
0.049400,-1.437137
0.049500,-1.582226
0.049600,-1.602025
0.049700,-1.541653
0.049800,-1.430321
0.049900,-1.310875
0.050000,-1.294646
0.050100,-1.328402
0.050200,-1.396565
0.050300,-1.370923
0.050400,-1.282961
0.050500,-1.193701
0.050600,-1.137873
0.050700,-1.150856
0.050800,-1.170655
0.050900,-1.186884
0.051000,-1.175849
0.051100,-1.149233
0.051200,-1.120670
0.051300,-1.101195
0.051400,-1.092431
0.051500,-1.074904
0.051600,-1.102818
0.051700,-1.103791
0.051800,-1.099247
0.051900,-1.082694
0.052000,-1.074579
0.052100,-1.007715
0.052200,-1.003496
0.052300,-1.027190
0.052400,-1.189806
0.052500,-1.189157
0.052600,-1.108011
0.052700,-0.962598
0.052800,-0.948966
0.052900,-1.009013
0.053000,-1.126188
0.053100,-1.136250
0.053200,-1.062569
0.053300,-0.954484
0.053400,-0.916508
0.053500,-0.964546
0.053600,-1.011285
0.053700,-1.014531
0.053800,-1.007066
0.053900,-1.014856
0.054000,-1.021997
0.054100,-1.045691
0.054200,-1.027839
0.054300,-1.017453
0.054400,-1.002197
0.054500,-1.049911
0.054600,-1.130083
0.054700,-1.144364
0.054800,-1.154751
0.054900,-1.160269
0.055000,-1.163839
0.055100,-1.215123
0.055200,-1.307954
0.055300,-1.341386
0.055400,-1.368975
0.055500,-1.381309
0.055600,-1.427725
0.055700,-1.446875
0.055800,-1.410197
0.055900,-1.450770
0.056000,-1.450770
0.056100,-1.459858
0.056200,-1.472192
0.056300,-1.469271
0.056400,-1.483877
0.056500,-1.474789
0.056600,-1.496211
0.056700,-1.491018
0.056800,-1.502703
0.056900,-1.479982
0.057000,-1.510818
0.057100,-1.516336
0.057200,-1.529319
0.057300,-1.539056
0.057400,-1.566970
0.057500,-1.682522
0.057600,-1.799372
0.057700,-1.810732
0.057800,-1.720173
0.057900,-1.643247
0.058000,-1.644546
0.058100,-1.819820
0.058200,-1.930828
0.058300,-2.005482
0.058400,-1.915572
0.058500,-1.821119
0.058600,-1.793529
0.058700,-1.857796
0.058800,-1.954198
0.058900,-2.000938
0.059000,-1.980813
0.059100,-1.957768
0.059200,-1.936670
0.059300,-1.923362
0.059400,-1.936346
0.059500,-1.962637
0.059600,-1.969778
0.059700,-1.977243
0.059800,-1.982112
0.059900,-2.008727
0.060000,-2.045405
0.060100,-2.087277
0.060200,-2.062608
0.060300,-2.089873
0.060400,-2.111296
0.060500,-2.122007
0.060600,-2.059687
0.060700,-1.984384
0.060800,-1.962637
0.060900,-2.036966
0.061000,-2.112919
0.061100,-2.122332
0.061200,-2.072995
0.061300,-1.949978
0.061400,-1.905186
0.061500,-1.964584
0.061600,-2.072346
0.061700,-2.111945
0.061800,-2.089224
0.061900,-2.026580
0.062000,-1.961014
0.062100,-1.956145
0.062200,-1.961663
0.062300,-1.953224
0.062400,-1.949004
0.062500,-1.924011
0.062600,-1.890904
0.062700,-1.847410
0.062800,-1.814302
0.062900,-1.769835
0.063000,-1.735429
0.063100,-1.742245
0.063200,-1.752307
0.063300,-1.775352
0.063400,-1.770808
0.063500,-1.698751
0.063600,-1.660775
0.063700,-1.655581
0.063800,-1.657204
0.063900,-1.624746
0.064000,-1.594560
0.064100,-1.567620
0.064200,-1.547820
0.064300,-1.487772
0.064400,-1.501080
0.064500,-1.488421
0.064600,-1.510493
0.064700,-1.516011
0.064800,-1.522827
0.064900,-1.577357
0.065000,-1.539381
0.065100,-1.574111
0.065200,-1.555610
0.065300,-1.532240
0.065400,-1.598779
0.065500,-1.536135
0.065600,-1.630913
0.065700,-1.493290
0.065800,-1.542951
0.065900,-1.270302
0.066000,-1.284908
0.066100,-1.329376
0.066200,-1.426751
0.066300,-1.437787
0.066400,-1.333596
0.066500,-1.233949
0.066600,-1.125214
0.066700,-1.131381
0.066800,-1.197596
0.066900,-1.243686
0.067000,-1.189481
0.067100,-1.097624
0.067200,-1.012908
0.067300,-0.984021
0.067400,-0.985968
0.067500,-0.995381
0.067600,-0.974932
0.067700,-0.927543
0.067800,-0.893787
0.067900,-0.877882
0.068000,-0.841529
0.068100,-0.851591
0.068200,-0.817835
0.068300,-0.891515
0.068400,-0.869768
0.068500,-0.872040
0.068600,-0.875610
0.068700,-0.807773
0.068800,-0.787324
0.068900,-0.766551
0.069000,-0.905796
0.069100,-0.969739
0.069200,-0.935009
0.069300,-0.810694
0.069400,-0.722407
0.069500,-0.738637
0.069600,-0.814264
0.069700,-0.892813
0.069800,-0.854837
0.069900,-0.757787
0.070000,-0.662360
0.070100,-0.643859
0.070200,-0.712021
0.070300,-0.749997
0.070400,-0.714942
0.070500,-0.706178
0.070600,-0.694493
0.070700,-0.732470
0.070800,-0.733768
0.070900,-0.737987
0.071000,-0.728575
0.071100,-0.730847
0.071200,-0.767200
0.071300,-0.838932
0.071400,-0.867171
0.071500,-0.863925
0.071600,-0.880803
0.071700,-0.895085
0.071800,-0.999925
0.071900,-1.076851
0.072000,-1.137548
0.072100,-1.197920
0.072200,-1.241090
0.072300,-1.329701
0.072400,-1.386178
0.072500,-1.392994
0.072600,-1.426102
0.072700,-1.434865
0.072800,-1.473491
0.072900,-1.504975
0.073000,-1.510493
0.073100,-1.532889
0.073200,-1.556584
0.073300,-1.561128
0.073400,-1.588068
0.073500,-1.594884
0.073600,-1.593262
0.073700,-1.650388
0.073800,-1.670512
0.073900,-1.727314
0.074000,-1.717252
0.074100,-1.813329
0.074200,-1.956470
0.074300,-2.071697
0.074400,-2.028202
0.074500,-1.962312
0.074600,-1.848384
0.074700,-1.924011
0.074800,-2.103181
0.074900,-2.205749
0.075000,-2.223601
0.075100,-2.110971
0.075200,-2.074293
0.075300,-2.073320
0.075400,-2.164527
0.075500,-2.211916
0.075600,-2.237559
0.075700,-2.194389
0.075800,-2.171668
0.075900,-2.139859
0.076000,-2.150570
0.076100,-2.138561
0.076200,-2.129797
0.076300,-2.127200
0.076400,-2.124279
0.076500,-2.100584
0.076600,-2.134990
0.076700,-2.127200
0.076800,-2.094417
0.076900,-2.090847
0.077000,-2.070723
0.077100,-2.110647
0.077200,-2.077215
0.077300,-1.991849
0.077400,-1.906484
0.077500,-1.899018
0.077600,-1.993472
0.077700,-2.059362
0.077800,-2.034045
0.077900,-1.914274
0.078000,-1.780870
0.078100,-1.770808
0.078200,-1.836049
0.078300,-1.929854
0.078400,-1.950627
0.078500,-1.880842
0.078600,-1.803591
0.078700,-1.782818
0.078800,-1.762045
0.078900,-1.780221
0.079000,-1.789959
0.079100,-1.791582
0.079200,-1.785415
0.079300,-1.734130
0.079400,-1.735104
0.079500,-1.718226
0.079600,-1.701997
0.079700,-1.702970
0.079800,-1.725691
0.079900,-1.757825
0.080000,-1.795152
0.080100,-1.766264
0.080200,-1.753605
0.080300,-1.794503
0.080400,-1.824689
0.080500,-1.832154
0.080600,-1.824364
0.080700,-1.786713
0.080800,-1.732183
0.080900,-1.683171
0.081000,-1.640651
0.081100,-1.633834
0.081200,-1.629290
0.081300,-1.634484
0.081400,-1.613710
0.081500,-1.638379
0.081600,-1.602025
0.081700,-1.602350
0.081800,-1.521853
0.081900,-1.520555
0.082000,-1.472192
0.082100,-1.509519
0.082200,-1.500756
0.082300,-1.458560
0.082400,-1.448822
0.082500,-1.299514
0.082600,-1.140469
0.082700,-1.131056
0.082800,-1.251801
0.082900,-1.333920
0.083000,-1.308603
0.083100,-1.227457
0.083200,-1.052832
0.083300,-1.001873
0.083400,-1.050560
0.083500,-1.132355
0.083600,-1.132679
0.083700,-1.068737
0.083800,-0.978827
0.083900,-0.949615
0.084000,-0.952536
0.084100,-0.999276
0.084200,-1.008040
0.084300,-0.983371
0.084400,-0.971362
0.084500,-0.977204
0.084600,-0.991161
0.084700,-1.008040
0.084800,-0.996030
0.084900,-0.995056
0.085000,-1.044068
0.085100,-1.049911
0.085200,-1.069386
0.085300,-1.034980
0.085400,-1.021348
0.085500,-0.988240
0.085600,-1.058999
0.085700,-1.216746
0.085800,-1.236870
0.085900,-1.195648
0.086000,-1.060622
0.086100,-1.056727
0.086200,-1.106063
0.086300,-1.211877
0.086400,-1.291400
0.086500,-1.253748
0.086600,-1.181042
0.086700,-1.128135
0.086800,-1.169032
0.086900,-1.258617
0.087000,-1.312173
0.087100,-1.335868
0.087200,-1.335868
0.087300,-1.341710
0.087400,-1.393643
0.087500,-1.407276
0.087600,-1.415715
0.087700,-1.428698
0.087800,-1.456937
0.087900,-1.504001
0.088000,-1.535486
0.088100,-1.560803
0.088200,-1.569892
0.088300,-1.562751
0.088400,-1.598779
0.088500,-1.674407
0.088600,-1.716928
0.088700,-1.742570
0.088800,-1.751333
0.088900,-1.784116
0.089000,-1.814302
0.089100,-1.777625
0.089200,-1.757176
0.089300,-1.740298
0.089400,-1.734130
0.089500,-1.718226
0.089600,-1.723744
0.089700,-1.708164
0.089800,-1.677653
0.089900,-1.717577
0.090000,-1.711085
0.090100,-1.708164
0.090200,-1.715305
0.090300,-1.720498
0.090400,-1.764317
0.090500,-1.755228
0.090600,-1.789634
0.090700,-1.813004
0.090800,-1.883763
0.090900,-2.077539
0.091000,-2.115515
0.091100,-2.069749
0.091200,-1.940565
0.091300,-1.933100
0.091400,-2.035992
0.091500,-2.186274
0.091600,-2.250542
0.091700,-2.213215
0.091800,-2.105453
0.091900,-2.067152
0.092000,-2.077864
0.092100,-2.174914
0.092200,-2.197959
0.092300,-2.178160
0.092400,-2.118112
0.092500,-2.108699
0.092600,-2.072670
0.092700,-2.070398
0.092800,-2.056441
0.092900,-2.069749
0.093000,-2.031448
0.093100,-1.998665
0.093200,-2.015868
0.093300,-2.041186
0.093400,-2.013596
0.093500,-1.999639
0.093600,-2.006455
0.093700,-2.010026
0.093800,-1.997692
0.093900,-1.959066
0.094000,-1.883439
0.094100,-1.869806
0.094200,-1.898369
0.094300,-2.019114
0.094400,-2.038265
0.094500,-1.999639
0.094600,-1.891553
0.094700,-1.804889
0.094800,-1.811381
0.094900,-1.892527
0.095000,-1.965233
0.095100,-1.956145
0.095200,-1.881491
0.095300,-1.791257
0.095400,-1.761720
0.095500,-1.750684
0.095600,-1.742894
0.095700,-1.726016
0.095800,-1.689987
0.095900,-1.663696
0.096000,-1.589367
0.096100,-1.524450
0.096200,-1.454340
0.096300,-1.388125
0.096400,-1.385204
0.096500,-1.372546
0.096600,-1.395915
0.096700,-1.388775
0.096800,-1.319314
0.096900,-1.263161
0.097000,-1.267381
0.097100,-1.271600
0.097200,-1.213176
0.097300,-1.181042
0.097400,-1.154751
0.097500,-1.114827
0.097600,-1.068737
0.097700,-1.039849
0.097800,-1.010961
0.097900,-1.048612
0.098000,-1.028488
0.098100,-1.048612
0.098200,-1.048612
0.098300,-1.042121
0.098400,-1.035629
0.098500,-1.044068
0.098600,-1.070359
0.098700,-1.062569
0.098800,-1.115476
0.098900,-1.109958
0.099000,-1.103791
0.099100,-1.032383
0.099200,-0.927868
0.099300,-0.793816
0.099400,-0.905147
0.099500,-1.048288
0.099600,-1.075877
0.099700,-1.039524
0.099800,-0.951238
0.099900,-0.839257
0.100000,-0.838608
0.100100,-0.904823
0.100200,-0.976555
0.100300,-0.958054
0.100400,-0.891515
0.100500,-0.814589
0.100600,-0.797710
0.100700,-0.822703
0.100800,-0.848994
0.100900,-0.864574
0.101000,-0.846073
0.101100,-0.866522
0.101200,-0.856784
0.101300,-0.851591
0.101400,-0.861653
0.101500,-0.880154
0.101600,-0.903849
0.101700,-0.945071
0.101800,-0.939877
0.101900,-0.967467
0.102000,-0.911314
0.102100,-0.890541
0.102200,-0.848670
0.102300,-0.948317
0.102400,-1.050884
0.102500,-1.016479
0.102600,-0.910340
0.102700,-0.786675
0.102800,-0.767849
0.102900,-0.847372
0.103000,-0.930789
0.103100,-0.935333
0.103200,-0.826274
0.103300,-0.720460
0.103400,-0.679563
0.103500,-0.722732
0.103600,-0.775314
0.103700,-0.788947
0.103800,-0.804851
0.103900,-0.785052
0.104000,-0.780508
0.104100,-0.757138
0.104200,-0.767524
0.104300,-0.761682
0.104400,-0.761033
0.104500,-0.787648
0.104600,-0.828870
0.104700,-0.842178
0.104800,-0.830493
0.104900,-0.846073
0.105000,-0.853863
0.105100,-0.921376
0.105200,-0.987266
0.105300,-1.023295
0.105400,-1.040173
0.105500,-1.055104
0.105600,-1.122942
0.105700,-1.161567
0.105800,-1.134627
0.105900,-1.153452
0.106000,-1.161892
0.106100,-1.186560
0.106200,-1.204736
0.106300,-1.220641
0.106400,-1.232975
0.106500,-1.235896
0.106600,-1.257643
0.106700,-1.276145
0.106800,-1.280364
0.106900,-1.288154
0.107000,-1.303734
0.107100,-1.341710
0.107200,-1.356641
0.107300,-1.371896
0.107400,-1.414417
0.107500,-1.554636
0.107600,-1.699076
0.107700,-1.719200
0.107800,-1.664670
0.107900,-1.597806
0.108000,-1.633185
0.108100,-1.821119
0.108200,-1.980813
0.108300,-2.028527
0.108400,-1.976918
0.108500,-1.936346
0.108600,-1.941539
0.108700,-2.036317
0.108800,-2.120059
0.108900,-2.162580
0.109000,-2.158685
0.109100,-2.144728
0.109200,-2.150246
0.109300,-2.162255
0.109400,-2.189196
0.109500,-2.219706
0.109600,-2.251516
0.109700,-2.259955
0.109800,-2.268394
0.109900,-2.318055
0.110000,-2.369339
0.110100,-2.381349
0.110200,-2.380700
0.110300,-2.409263
0.110400,-2.436853
0.110500,-2.456003
0.110600,-2.407965
0.110700,-2.325845
0.110800,-2.331039
0.110900,-2.410237
0.111000,-2.502094
0.111100,-2.532929
0.111200,-2.437502
0.111300,-2.294685
0.111400,-2.248594
0.111500,-2.297282
0.111600,-2.380375
0.111700,-2.390113
0.111800,-2.305072
0.111900,-2.185625
0.112000,-2.092794
0.112100,-2.041835
0.112200,-2.014895
0.112300,-1.938618
0.112400,-1.874999
0.112500,-1.815925
0.112600,-1.746465
0.112700,-1.648441
0.112800,-1.545223
0.112900,-1.444603
0.113000,-1.359562
0.113100,-1.337166
0.113200,-1.309577
0.113300,-1.306655
0.113400,-1.242713
0.113500,-1.152803
0.113600,-1.109958
0.113700,-1.093729
0.113800,-1.063868
0.113900,-1.028488
0.114000,-0.996030
0.114100,-0.951887
0.114200,-0.906445
0.114300,-0.848994
0.114400,-0.853539
0.114500,-0.873663
0.114600,-0.916508
0.114700,-0.936632
0.114800,-0.941500
0.114900,-0.994732
0.115000,-1.015830
0.115100,-1.029462
0.115200,-1.027190
0.115300,-1.057376
0.115400,-1.079772
0.115500,-1.102493
0.115600,-1.115476
0.115700,-1.076526
0.115800,-1.057376
0.115900,-0.870741
0.116000,-0.934360
0.116100,-1.055104
0.116200,-1.208307
0.116300,-1.205061
0.116400,-1.158321
0.116500,-1.043419
0.116600,-0.979152
0.116700,-1.019075
0.116800,-1.080421
0.116900,-1.120345
0.117000,-1.056402
0.117100,-0.985319
0.117200,-0.939877
0.117300,-0.916183
0.117400,-0.938579
0.117500,-0.960326
0.117600,-0.944422
0.117700,-0.915209
0.117800,-0.884698
0.117900,-0.893787
0.118000,-0.864899
0.118100,-0.873014
0.118200,-0.863276
0.118300,-0.929815
0.118400,-0.918455
0.118500,-0.998302
0.118600,-0.981424
0.118700,-0.985643
0.118800,-0.973309
0.118900,-0.997004
0.119000,-1.184288
0.119100,-1.276794
0.119200,-1.284259
0.119300,-1.205061
0.119400,-1.187534
0.119500,-1.244335
0.119600,-1.427075
0.119700,-1.514713
0.119800,-1.507572
0.119900,-1.404030
0.120000,-1.350798
0.120100,-1.368001
0.120200,-1.456612
0.120300,-1.479009
0.120400,-1.489395
0.120500,-1.462455
0.120600,-1.443304
0.120700,-1.456612
0.120800,-1.442655
0.120900,-1.393643
0.121000,-1.346254
0.121100,-1.341061
0.121200,-1.354044
0.121300,-1.350798
0.121400,-1.355018
0.121500,-1.303085
0.121600,-1.275495
0.121700,-1.258942
0.121800,-1.312822
0.121900,-1.343333
0.122000,-1.359238
0.122100,-1.347553
0.122200,-1.343009
0.122300,-1.343009
0.122400,-1.324832
0.122500,-1.307954
0.122600,-1.313472
0.122700,-1.321261
0.122800,-1.357290
0.122900,-1.363133
0.123000,-1.367352
0.123100,-1.373519
0.123200,-1.385853
0.123300,-1.406627
0.123400,-1.409223
0.123500,-1.451419
0.123600,-1.456288
0.123700,-1.471543
0.123800,-1.464078
0.123900,-1.501729
0.124000,-1.505624
0.124100,-1.562751
0.124200,-1.700698
0.124300,-1.814627
0.124400,-1.743543
0.124500,-1.647791
0.124600,-1.584498
0.124700,-1.644221
0.124800,-1.794503
0.124900,-1.901291
0.125000,-1.880842
0.125100,-1.762694
0.125200,-1.694531
0.125300,-1.687715
0.125400,-1.779247
0.125500,-1.841567
0.125600,-1.883439
0.125700,-1.835725
0.125800,-1.797424
0.125900,-1.750360
0.126000,-1.765615
0.126100,-1.812030
0.126200,-1.812355
0.126300,-1.800994
0.126400,-1.775028
0.126500,-1.775352
0.126600,-1.792880
0.126700,-1.801319
0.126800,-1.779897
0.126900,-1.756851
0.127000,-1.763343
0.127100,-1.760422
0.127200,-1.746465
0.127300,-1.656231
0.127400,-1.573137
0.127500,-1.578980
0.127600,-1.653634
0.127700,-1.713682
0.127800,-1.689987
0.127900,-1.572488
0.128000,-1.451419
0.128100,-1.438111
0.128200,-1.501405
0.128300,-1.578006
0.128400,-1.565997
0.128500,-1.492966
0.128600,-1.410522
0.128700,-1.374493
0.128800,-1.389748
0.128900,-1.406951
0.129000,-1.409548
0.129100,-1.394617
0.129200,-1.381958
0.129300,-1.361510
0.129400,-1.338789
0.129500,-1.297242
0.129600,-1.245309
0.129700,-1.213500
0.129800,-1.206684
0.129900,-1.222264
0.130000,-1.237519
0.130100,-1.187209
0.130200,-1.127810
0.130300,-1.103142
0.130400,-1.114178
0.130500,-1.072956
0.130600,-1.066140
0.130700,-1.034331
0.130800,-1.004794
0.130900,-0.950913
0.131000,-0.910016
0.131100,-0.910016
0.131200,-0.955133
0.131300,-0.962923
0.131400,-0.982073
0.131500,-1.018102
0.131600,-1.054455
0.131700,-1.053806
0.131800,-1.103791
0.131900,-1.101519
0.132000,-1.154751
0.132100,-1.205710
0.132200,-1.241739
0.132300,-1.255371
0.132400,-1.256994
0.132500,-1.128135
0.132600,-1.055753
0.132700,-1.057701
0.132800,-1.225185
0.132900,-1.332297
0.133000,-1.273223
0.133100,-1.245309
0.133200,-1.116775
0.133300,-1.082369
0.133400,-1.124565
0.133500,-1.197271
0.133600,-1.212526
0.133700,-1.144364
0.133800,-1.044393
0.133900,-0.979152
0.134000,-0.975906
0.134100,-1.027515
0.134200,-1.038550
0.134300,-1.043744
0.134400,-1.005768
0.134500,-0.977529
0.134600,-0.966493
0.134700,-0.936632
0.134800,-0.920727
0.134900,-0.961300
0.135000,-0.970064
0.135100,-0.947992
0.135200,-0.966169
0.135300,-0.921701
0.135400,-0.894761
0.135500,-0.839582
0.135600,-0.860355
0.135700,-1.015180
0.135800,-0.997653
0.135900,-0.914560
0.136000,-0.787324
0.136100,-0.767849
0.136200,-0.815238
0.136300,-0.941825
0.136400,-0.939553
0.136500,-0.884374
0.136600,-0.750322
0.136700,-0.700660
0.136800,-0.710073
0.136900,-0.768498
0.137000,-0.760059
0.137100,-0.769796
0.137200,-0.731171
0.137300,-0.714618
0.137400,-0.722083
0.137500,-0.703906
0.137600,-0.701310
0.137700,-0.675343
0.137800,-0.716240
0.137900,-0.764603
0.138000,-0.796737
0.138100,-0.822703
0.138200,-0.833739
0.138300,-0.856135
0.138400,-0.908718
0.138500,-1.008364
0.138600,-1.052507
0.138700,-1.078799
0.138800,-1.081071
0.138900,-1.141443
0.139000,-1.171629
0.139100,-1.161242
0.139200,-1.173901
0.139300,-1.199219
0.139400,-1.176822
0.139500,-1.214799
0.139600,-1.225510
0.139700,-1.241090
0.139800,-1.255696
0.139900,-1.288803
0.140000,-1.281013
0.140100,-1.306980
0.140200,-1.317691
0.140300,-1.330674
0.140400,-1.353071
0.140500,-1.363782
0.140600,-1.378388
0.140700,-1.416689
0.140800,-1.530617
0.140900,-1.681873
0.141000,-1.713357
0.141100,-1.650713
0.141200,-1.561128
0.141300,-1.535161
0.141400,-1.673433
0.141500,-1.771782
0.141600,-1.889281
0.141700,-1.842541
0.141800,-1.778274
0.141900,-1.762045
0.142000,-1.793204
0.142100,-1.946083
0.142200,-1.979190
0.142300,-2.002236
0.142400,-1.981463
0.142500,-1.968155
0.142600,-1.957119
0.142700,-1.982112
0.142800,-2.015868
0.142900,-2.024957
0.143000,-2.032747
0.143100,-2.035019
0.143200,-2.069425
0.143300,-2.118761
0.143400,-2.138236
0.143500,-2.132394
0.143600,-2.187573
0.143700,-2.233988
0.143800,-2.259306
0.143900,-2.242427
0.144000,-2.147000
0.144100,-2.185625
0.144200,-2.272614
0.144300,-2.410237
0.144400,-2.473531
0.144500,-2.441397
0.144600,-2.359926
0.144700,-2.339802
0.144800,-2.421922
0.144900,-2.549483
0.145000,-2.625760
0.145100,-2.624462
0.145200,-2.554352
0.145300,-2.509559
0.145400,-2.487488
0.145500,-2.503392
0.145600,-2.521569
0.145700,-2.509235
0.145800,-2.503068
0.145900,-2.468337
0.146000,-2.393683
0.146100,-2.353759
0.146200,-2.250542
0.146300,-2.184327
0.146400,-2.148298
0.146500,-2.117138
0.146600,-2.121682
0.146700,-2.048651
0.146800,-1.940565
0.146900,-1.853577
0.147000,-1.782169
0.147100,-1.731209
0.147200,-1.631238
0.147300,-1.559505
0.147400,-1.471543
0.147500,-1.373844
0.147600,-1.262512
0.147700,-1.207333
0.147800,-1.169357
0.147900,-1.144364
0.148000,-1.097300
0.148100,-1.094703
0.148200,-1.082044
0.148300,-1.070684
0.148400,-1.035629
0.148500,-1.045367
0.148600,-1.011285
0.148700,-1.034980
0.148800,-1.009987
0.148900,-1.051209
0.149000,-0.967791
0.149100,-0.983371
0.149200,-0.724355
0.149300,-0.715591
0.149400,-0.736040
0.149500,-0.871391
0.149600,-0.957729
0.149700,-0.832116
0.149800,-0.687028
0.149900,-0.548432
0.150000,-0.509157
0.150100,-0.574074
0.150200,-0.580890
0.150300,-0.556871
0.150400,-0.463391
0.150500,-0.392308
0.150600,-0.362122
0.150700,-0.382246
0.150800,-0.439048
0.150900,-0.460794
0.151000,-0.466637
0.151100,-0.488059
0.151200,-0.525062
0.151300,-0.561739
0.151400,-0.612374
0.151500,-0.677291
0.151600,-0.771419
0.151700,-0.820756
0.151800,-0.889567
0.151900,-0.946369
0.152000,-0.952212
0.152100,-0.982073
0.152200,-0.986617
0.152300,-1.117424
0.152400,-1.239142
0.152500,-1.224536
0.152600,-1.140145
0.152700,-1.036927
0.152800,-1.067438
0.152900,-1.180068
0.153000,-1.271600
0.153100,-1.293023
0.153200,-1.222913
0.153300,-1.135600
0.153400,-1.117748
0.153500,-1.167734
0.153600,-1.241090
0.153700,-1.218693
0.153800,-1.244335
0.153900,-1.177472
0.154000,-1.195324
0.154100,-1.208956
0.154200,-1.207658
0.154300,-1.193376
0.154400,-1.191429
0.154500,-1.205386
0.154600,-1.258617
0.154700,-1.279066
0.154800,-1.306331
0.154900,-1.306006
0.155000,-1.299839
0.155100,-1.372221
0.155200,-1.431944
0.155300,-1.485176
0.155400,-1.499782
0.155500,-1.517309
0.155600,-1.590340
0.155700,-1.613710
0.155800,-1.602674
0.155900,-1.614035
0.156000,-1.617930
0.156100,-1.638379
0.156200,-1.650713
0.156300,-1.652985
0.156400,-1.652660
0.156500,-1.652985
0.156600,-1.676679
0.156700,-1.668889
0.156800,-1.687066
0.156900,-1.659152
0.157000,-1.675381
0.157100,-1.678951
0.157200,-1.684145
0.157300,-1.688040
0.157400,-1.733481
0.157500,-1.849357
0.157600,-1.964584
0.157700,-1.926283
0.157800,-1.827610
0.157900,-1.760422
0.158000,-1.741596
0.158100,-1.904212
0.158200,-2.017491
0.158300,-2.034694
0.158400,-1.964909
0.158500,-1.883763
0.158600,-1.891228
0.158700,-1.984059
0.158800,-2.047677
0.158900,-2.100909
0.159000,-2.086303
0.159100,-2.058713
0.159200,-2.035992
0.159300,-2.055143
0.159400,-2.090522
0.159500,-2.103506
0.159600,-2.147000
0.159700,-2.144403
0.159800,-2.206723
0.159900,-2.229119
0.160000,-2.291115
0.160100,-2.300203
0.160200,-2.303124
0.160300,-2.353435
0.160400,-2.367716
0.160500,-2.348241
0.160600,-2.267096
0.160700,-2.190494
0.160800,-2.224251
0.160900,-2.292738
0.161000,-2.338179
0.161100,-2.368690
0.161200,-2.274561
0.161300,-2.171019
0.161400,-2.119410
0.161500,-2.183678
0.161600,-2.289492
0.161700,-2.313836
0.161800,-2.255086
0.161900,-2.166799
0.162000,-2.098962
0.162100,-2.079811
0.162200,-2.079811
0.162300,-2.092470
0.162400,-2.082083
0.162500,-2.049300
0.162600,-1.998665
0.162700,-1.924661
0.162800,-1.861691
0.162900,-1.802293
0.163000,-1.769185
0.163100,-1.765940
0.163200,-1.752307
0.163300,-1.771133
0.163400,-1.693882
0.163500,-1.596507
0.163600,-1.570541
0.163700,-1.555935
0.163800,-1.541004
0.163900,-1.468622
0.164000,-1.424154
0.164100,-1.385204
0.164200,-1.330999
0.164300,-1.287830
0.164400,-1.278092
0.164500,-1.274522
0.164600,-1.288803
0.164700,-1.279066
0.164800,-1.289777
0.164900,-1.257968
0.165000,-1.259591
0.165100,-1.212202
0.165200,-1.214799
0.165300,-1.221939
0.165400,-1.235247
0.165500,-1.264135
0.165600,-1.270627
0.165700,-1.271925
0.165800,-1.166760
0.165900,-1.054130
0.166000,-0.976555
0.166100,-1.190130
0.166200,-1.246932
0.166300,-1.328078
0.166400,-1.256345
0.166500,-1.173901
0.166600,-1.141768
0.166700,-1.190779
0.166800,-1.300164
0.166900,-1.339438
0.167000,-1.302436
0.167100,-1.263810
0.167200,-1.212851
0.167300,-1.237519
0.167400,-1.307304
0.167500,-1.359562
0.167600,-1.390398
0.167700,-1.371247
0.167800,-1.392020
0.167900,-1.392670
0.168000,-1.395591
0.168100,-1.415715
0.168200,-1.426102
0.168300,-1.456288
0.168400,-1.486149
0.168500,-1.481930
0.168600,-1.486149
0.168700,-1.431295
0.168800,-1.386503
0.168900,-1.414417
0.169000,-1.539381
0.169100,-1.592612
0.169200,-1.532889
0.169300,-1.394942
0.169400,-1.386503
0.169500,-1.350798
0.169600,-1.522503
0.169700,-1.552689
0.169800,-1.499133
0.169900,-1.385529
0.170000,-1.317691
0.170100,-1.334245
0.170200,-1.374168
0.170300,-1.393643
0.170400,-1.362483
0.170500,-1.344631
0.170600,-1.284908
0.170700,-1.297567
0.170800,-1.269653
0.170900,-1.230054
0.171000,-1.186235
0.171100,-1.172278
0.171200,-1.187858
0.171300,-1.189157
0.171400,-1.174875
0.171500,-1.129758
0.171600,-1.109309
0.171700,-1.101519
0.171800,-1.172603
0.171900,-1.179744
0.172000,-1.172278
0.172100,-1.151180
0.172200,-1.148259
0.172300,-1.175849
0.172400,-1.135276
0.172500,-1.111581
0.172600,-1.099896
0.172700,-1.084641
0.172800,-1.101195
0.172900,-1.102818
0.173000,-1.079448
0.173100,-1.095352
0.173200,-1.079772
0.173300,-1.114178
0.173400,-1.120994
0.173500,-1.112231
0.173600,-1.125538
0.173700,-1.128784
0.173800,-1.137548
0.173900,-1.145338
0.174000,-1.144364
0.174100,-1.239142
0.174200,-1.328402
0.174300,-1.428049
0.174400,-1.343009
0.174500,-1.249529
0.174600,-1.151180
0.174700,-1.238168
0.174800,-1.407600
0.174900,-1.481281
0.175000,-1.469271
0.175100,-1.366703
0.175200,-1.295944
0.175300,-1.346254
0.175400,-1.433892
0.175500,-1.496536
0.175600,-1.496861
0.175700,-1.442980
0.175800,-1.423830
0.175900,-1.383581
0.176000,-1.409548
0.176100,-1.426751
0.176200,-1.418636
0.176300,-1.419285
0.176400,-1.413443
0.176500,-1.440059
0.176600,-1.510493
0.176700,-1.511791
0.176800,-1.498808
0.176900,-1.518932
0.177000,-1.539705
0.177100,-1.593262
0.177200,-1.557233
0.177300,-1.501080
0.177400,-1.467648
0.177500,-1.539056
0.177600,-1.703295
0.177700,-1.798722
0.177800,-1.821119
0.177900,-1.752632
0.178000,-1.710436
0.178100,-1.788660
0.178200,-1.945109
0.178300,-2.097339
0.178400,-2.141482
0.178500,-2.104804
0.178600,-2.086627
0.178700,-2.085329
0.178800,-2.117787
0.178900,-2.145702
0.179000,-2.152842
0.179100,-2.159983
0.179200,-2.106752
0.179300,-2.057090
0.179400,-2.031124
0.179500,-1.955171
0.179600,-1.937319
0.179700,-1.904861
0.179800,-1.912976
0.179900,-1.917195
0.180000,-1.920766
0.180100,-1.873376
0.180200,-1.831505
0.180300,-1.807162
0.180400,-1.796126
0.180500,-1.767238
0.180600,-1.742894
0.180700,-1.703944
0.180800,-1.640001
0.180900,-1.566970
0.181000,-1.511467
0.181100,-1.505949
0.181200,-1.517958
0.181300,-1.479982
0.181400,-1.487448
0.181500,-1.423180
0.181600,-1.406302
0.181700,-1.325806
0.181800,-1.311524
0.181900,-1.250503
0.182000,-1.208631
0.182100,-1.217071
0.182200,-1.173901
0.182300,-1.150856
0.182400,-1.071009
0.182500,-0.929166
0.182600,-0.814264
0.182700,-0.822379
0.182800,-1.000899
0.182900,-0.945071
0.183000,-0.955457
0.183100,-0.849319
0.183200,-0.735066
0.183300,-0.720135
0.183400,-0.787324
0.183500,-0.859056
0.183600,-0.880803
0.183700,-0.832765
0.183800,-0.771419
0.183900,-0.749997
0.184000,-0.797061
0.184100,-0.870741
0.184200,-0.912937
0.184300,-0.926570
0.184400,-0.921052
0.184500,-0.913586
0.184600,-0.925920
0.184700,-0.949939
0.184800,-0.979476
0.184900,-0.966169
0.185000,-1.020374
0.185100,-1.060947
0.185200,-1.132355
0.185300,-1.131056
0.185400,-1.151830
0.185500,-1.121968
0.185600,-1.232651
0.185700,-1.384555
0.185800,-1.434216
0.185900,-1.373844
0.186000,-1.245958
0.186100,-1.272899
0.186200,-1.361185
0.186300,-1.499457
0.186400,-1.534837
0.186500,-1.485176
0.186600,-1.379037
0.186700,-1.340736
0.186800,-1.364431
0.186900,-1.437787
0.187000,-1.447199
0.187100,-1.466025
0.187200,-1.448173
0.187300,-1.445577
0.187400,-1.465051
0.187500,-1.466999
0.187600,-1.495887
0.187700,-1.502054
0.187800,-1.545873
0.187900,-1.573137
0.188000,-1.602999
0.188100,-1.607868
0.188200,-1.606569
0.188300,-1.614684
0.188400,-1.665319
0.188500,-1.718550
0.188600,-1.761071
0.188700,-1.765290
0.188800,-1.785090
0.188900,-1.815276
0.189000,-1.839620
0.189100,-1.810732
0.189200,-1.815276
0.189300,-1.802293
0.189400,-1.811706
0.189500,-1.822092
0.189600,-1.828909
0.189700,-1.858121
0.189800,-1.874350
0.189900,-1.908756
0.190000,-1.899992
0.190100,-1.921090
0.190200,-1.930178
0.190300,-1.941539
0.190400,-1.987954
0.190500,-1.991525
0.190600,-2.020737
0.190700,-2.055143
0.190800,-2.143429
0.190900,-2.303774
0.191000,-2.305396
0.191100,-2.261902
0.191200,-2.166475
0.191300,-2.136938
0.191400,-2.289167
0.191500,-2.392709
0.191600,-2.456977
0.191700,-2.420948
0.191800,-2.332337
0.191900,-2.293387
0.192000,-2.356031
0.192100,-2.444967
0.192200,-2.512805
0.192300,-2.514104
0.192400,-2.485216
0.192500,-2.426466
0.192600,-2.418676
0.192700,-2.477101
0.192800,-2.463144
0.192900,-2.461521
0.193000,-2.425492
0.193100,-2.406017
0.193200,-2.404719
0.193300,-2.429387
0.193400,-2.391086
0.193500,-2.360251
0.193600,-2.358304
0.193700,-2.391086
0.193800,-2.359926
0.193900,-2.297606
0.194000,-2.180757
0.194100,-2.181730
0.194200,-2.246322
0.194300,-2.356681
0.194400,-2.393359
0.194500,-2.318704
0.194600,-2.195038
0.194700,-2.156088
0.194800,-2.225874
0.194900,-2.339802
0.195000,-2.403096
0.195100,-2.395631
0.195200,-2.315134
0.195300,-2.259306
0.195400,-2.253463
0.195500,-2.260929
0.195600,-2.283649
0.195700,-2.300852
0.195800,-2.292738
0.195900,-2.267745
0.196000,-2.199582
0.196100,-2.151219
0.196200,-2.110647
0.196300,-2.081434
0.196400,-2.066179
0.196500,-2.073320
0.196600,-2.096689
0.196700,-2.093768
0.196800,-2.056117
0.196900,-2.028202
0.197000,-2.029501
0.197100,-2.051248
0.197200,-2.023983
0.197300,-2.035343
0.197400,-2.019439
0.197500,-1.983085
0.197600,-1.963286
0.197700,-1.972050
0.197800,-1.997043
0.197900,-2.023658
0.198000,-2.024632
0.198100,-2.049625
0.198200,-2.068775
0.198300,-2.072995
0.198400,-2.083057
0.198500,-2.036642
0.198600,-2.069749
0.198700,-2.045081
0.198800,-2.122007
0.198900,-2.046055
0.199000,-2.084355
0.199100,-1.888956
0.199200,-1.774054
0.199300,-1.657854
0.199400,-1.788985
0.199500,-1.837672
0.199600,-1.837672
0.199700,-1.723419
0.199800,-1.550092
0.199900,-1.395591
0.200000,-1.354693
0.200100,-1.379686
0.200200,-1.387801
0.200300,-1.320288
0.200400,-1.204087
0.200500,-1.113529
0.200600,-1.053481
0.200700,-1.022646
0.200800,-1.005443
0.200900,-1.004469
0.201000,-0.940527
0.201100,-0.912937
0.201200,-0.892813
0.201300,-0.852240
0.201400,-0.824326
0.201500,-0.801605
0.201600,-0.810369
0.201700,-0.772393
0.201800,-0.798684
0.201900,-0.759734
0.202000,-0.706503
0.202100,-0.632174
0.202200,-0.569529
0.202300,-0.684431
0.202400,-0.739935
0.202500,-0.686054
0.202600,-0.547133
0.202700,-0.431258
0.202800,-0.417301
0.202900,-0.515973
0.203000,-0.610427
0.203100,-0.570503
0.203200,-0.467611
0.203300,-0.374780
0.203400,-0.369262
0.203500,-0.427038
0.203600,-0.471506
0.203700,-0.462742
0.203800,-0.500718
0.203900,-0.474752
0.204000,-0.528308
0.204100,-0.528957
0.204200,-0.533176
0.204300,-0.566608
0.204400,-0.592250
0.204500,-0.666255
0.204600,-0.772069
0.204700,-0.858407
0.204800,-0.945395
0.204900,-1.013233
0.205000,-1.105739
0.205100,-1.270627
0.205200,-1.452393
0.205300,-1.605271
0.205400,-1.713682
0.205500,-1.815276
0.205600,-1.959066
0.205700,-2.052871
0.205800,-2.089549
0.205900,-2.166150
0.206000,-2.218408
0.206100,-2.292413
0.206200,-2.320327
0.206300,-2.357005
0.206400,-2.354409
0.206500,-2.380375
0.206600,-2.355382
0.206700,-2.348241
0.206800,-2.329416
0.206900,-2.281702
0.207000,-2.253139
0.207100,-2.192442
0.207200,-2.180757
0.207300,-2.134990
0.207400,-2.144079
0.207500,-2.208022
0.207600,-2.284948
0.207700,-2.233339
0.207800,-2.077215
0.207900,-1.978866
0.208000,-1.961338
0.208100,-2.100909
0.208200,-2.203153
0.208300,-2.157062
0.208400,-2.055792
0.208500,-1.885711
0.208600,-1.854551
0.208700,-1.869481
0.208800,-1.923362
0.208900,-1.852928
0.209000,-1.794827
0.209100,-1.703620
0.209200,-1.626369
0.209300,-1.586121
0.209400,-1.547495
0.209500,-1.536784
0.209600,-1.476736
0.209700,-1.463104
0.209800,-1.448498
0.209900,-1.439734
0.210000,-1.422531
0.210100,-1.420584
0.210200,-1.394942
0.210300,-1.404030
0.210400,-1.399161
0.210500,-1.404679
0.210600,-1.318340
0.210700,-1.243686
0.210800,-1.266407
0.210900,-1.338140
0.211000,-1.393319
0.211100,-1.385204
0.211200,-1.271925
0.211300,-1.166436
0.211400,-1.167409
0.211500,-1.264135
0.211600,-1.374818
0.211700,-1.410197
0.211800,-1.362159
0.211900,-1.312173
0.212000,-1.290751
0.212100,-1.303734
0.212200,-1.325156
0.212300,-1.329376
0.212400,-1.329051
0.212500,-1.320288
0.212600,-1.286207
0.212700,-1.238168
0.212800,-1.193701
0.212900,-1.128460
0.213000,-1.100546
0.213100,-1.112555
0.213200,-1.130083
0.213300,-1.158970
0.213400,-1.123266
0.213500,-1.086264
0.213600,-1.123266
0.213700,-1.153777
0.213800,-1.170006
0.213900,-1.159620
0.214000,-1.170331
0.214100,-1.195648
0.214200,-1.188507
0.214300,-1.187858
0.214400,-1.237844
0.214500,-1.320612
0.214600,-1.366378
0.214700,-1.440383
0.214800,-1.511791
0.214900,-1.563725
0.215000,-1.633185
0.215100,-1.666293
0.215200,-1.706865
0.215300,-1.778923
0.215400,-1.823391
0.215500,-1.887009
0.215600,-1.899018
0.215700,-1.943811
0.215800,-1.813004
0.215900,-1.730560
0.216000,-1.625395
0.216100,-1.891553
0.216200,-1.935047
0.216300,-1.975620
0.216400,-1.896422
0.216500,-1.773080
0.216600,-1.689663
0.216700,-1.735753
0.216800,-1.824040
0.216900,-1.834751
0.217000,-1.767562
0.217100,-1.655581
0.217200,-1.571839
0.217300,-1.578655
0.217400,-1.575085
0.217500,-1.574436
0.217600,-1.546846
0.217700,-1.516011
0.217800,-1.496536
0.217900,-1.487772
0.218000,-1.464727
0.218100,-1.490369
0.218200,-1.506598
0.218300,-1.623448
0.218400,-1.606569
0.218500,-1.669538
0.218600,-1.668565
0.218700,-1.641300
0.218800,-1.636756
0.218900,-1.683496
0.219000,-1.864937
0.219100,-1.903238
0.219200,-1.881816
0.219300,-1.760422
0.219400,-1.724718
0.219500,-1.768536
0.219600,-1.908431
0.219700,-1.969778
0.219800,-1.926933
0.219900,-1.791582
0.220000,-1.719849
0.220100,-1.723095
0.220200,-1.775677
0.220300,-1.784116
0.220400,-1.749710
0.220500,-1.754579
0.220600,-1.720498
0.220700,-1.729586
0.220800,-1.707839
0.220900,-1.678951
0.221000,-1.662722
0.221100,-1.657529
0.221200,-1.679601
0.221300,-1.706216
0.221400,-1.689987
0.221500,-1.659801
0.221600,-1.653309
0.221700,-1.672784
0.221800,-1.762045
0.221900,-1.805214
0.222000,-1.839295
0.222100,-1.822742
0.222200,-1.829882
0.222300,-1.870455
0.222400,-1.826637
0.222500,-1.814952
0.222600,-1.793204
0.222700,-1.784441
0.222800,-1.752956
0.222900,-1.690961
0.223000,-1.659152
0.223100,-1.593262
0.223200,-1.566321
0.223300,-1.534188
0.223400,-1.511791
0.223500,-1.452068
0.223600,-1.413118
0.223700,-1.380011
0.223800,-1.372221
0.223900,-1.355018
0.224000,-1.339438
0.224100,-1.390722
0.224200,-1.494913
0.224300,-1.563075
0.224400,-1.466999
0.224500,-1.326130
0.224600,-1.252450
0.224700,-1.350474
0.224800,-1.516985
0.224900,-1.621176
0.225000,-1.569242
0.225100,-1.502703
0.225200,-1.432918
0.225300,-1.521204
0.225400,-1.618579
0.225500,-1.726340
0.225600,-1.770484
0.225700,-1.754255
0.225800,-1.764966
0.225900,-1.789959
0.226000,-1.865911
0.226100,-1.886684
0.226200,-1.911677
0.226300,-1.922388
0.226400,-1.949978
0.226500,-1.981463
0.226600,-2.024307
0.226700,-1.999315
0.226800,-2.026904
0.226900,-2.037940
0.227000,-2.077215
0.227100,-2.075592
0.227200,-2.048651
0.227300,-1.998341
0.227400,-1.972050
0.227500,-2.024957
0.227600,-2.120384
0.227700,-2.197310
0.227800,-2.153816
0.227900,-2.023334
0.228000,-1.946083
0.228100,-1.982436
0.228200,-2.051897
0.228300,-2.129472
0.228400,-2.090522
0.228500,-1.991849
0.228600,-1.900966
0.228700,-1.846436
0.228800,-1.810407
0.228900,-1.775352
0.229000,-1.727314
0.229100,-1.680574
0.229200,-1.622149
0.229300,-1.562751
0.229400,-1.486474
0.229500,-1.409223
0.229600,-1.310226
0.229700,-1.264135
0.229800,-1.257319
0.229900,-1.254073
0.230000,-1.238818
0.230100,-1.151505
0.230200,-1.109634
0.230300,-1.109634
0.230400,-1.104765
0.230500,-1.065491
0.230600,-1.058999
0.230700,-1.043095
0.230800,-1.021023
0.230900,-0.991486
0.231000,-0.993758
0.231100,-1.028488
0.231200,-1.065491
0.231300,-1.121319
0.231400,-1.139171
0.231500,-1.189157
0.231600,-1.242388
0.231700,-1.246608
0.231800,-1.297242
0.231900,-1.286207
0.232000,-1.380985
0.232100,-1.382608
0.232200,-1.429023
0.232300,-1.421557
0.232400,-1.408574
0.232500,-1.241739
0.232600,-1.110608
0.232700,-1.153777
0.232800,-1.312173
0.232900,-1.313796
0.233000,-1.304708
0.233100,-1.161567
0.233200,-1.039849
0.233300,-1.026865
0.233400,-1.105090
0.233500,-1.174226
0.233600,-1.150856
0.233700,-1.064517
0.233800,-0.994732
0.233900,-0.996679
0.234000,-1.032059
0.234100,-1.088211
0.234200,-1.106063
0.234300,-1.123591
0.234400,-1.121968
0.234500,-1.145338
0.234600,-1.170655
0.234700,-1.198569
0.234800,-1.194350
0.234900,-1.221615
0.235000,-1.308603
0.235100,-1.280040
0.235200,-1.366378
0.235300,-1.328078
0.235400,-1.355018
0.235500,-1.312173
0.235600,-1.447849
0.235700,-1.531266
0.235800,-1.565347
0.235900,-1.508870
0.236000,-1.398837
0.236100,-1.404030
0.236200,-1.540679
0.236300,-1.669214
0.236400,-1.690636
0.236500,-1.627018
0.236600,-1.571839
0.236700,-1.566321
0.236800,-1.652985
0.236900,-1.739648
0.237000,-1.782818
0.237100,-1.795477
0.237200,-1.790608
0.237300,-1.827610
0.237400,-1.875649
0.237500,-1.877596
0.237600,-1.897071
0.237700,-1.911353
0.237800,-1.982761
0.237900,-2.028527
0.238000,-2.073969
0.238100,-2.093119
0.238200,-2.094093
0.238300,-2.107725
0.238400,-2.176212
0.238500,-2.258007
0.238600,-2.274886
0.238700,-2.290790
0.238800,-2.331039
0.238900,-2.368041
0.239000,-2.378428
0.239100,-2.334284
0.239200,-2.323898
0.239300,-2.313186
0.239400,-2.294685
0.239500,-2.288518
0.239600,-2.256384
0.239700,-2.234962
0.239800,-2.235611
0.239900,-2.199582
0.240000,-2.189845
0.240100,-2.155764
0.240200,-2.142131
0.240300,-2.141157
0.240400,-2.143754
0.240500,-2.149597
0.240600,-2.160308
0.240700,-2.160957
0.240800,-2.310914
0.240900,-2.431335
0.241000,-2.450485
0.241100,-2.363497
0.241200,-2.233988
0.241300,-2.224900
0.241400,-2.342074
0.241500,-2.485216
0.241600,-2.491707
0.241700,-2.408939
0.241800,-2.289492
0.241900,-2.262227
0.242000,-2.314809
0.242100,-2.386542
0.242200,-2.412184
0.242300,-2.387516
0.242400,-2.307669
0.242500,-2.267096
0.242600,-2.213539
0.242700,-2.196012
0.242800,-2.142131
0.242900,-2.048327
0.243000,-1.962637
0.243100,-1.901940
0.243200,-1.836049
0.243300,-1.807811
0.243400,-1.737701
0.243500,-1.706216
0.243600,-1.693558
0.243700,-1.685118
0.243800,-1.688364
0.243900,-1.598455
0.244000,-1.514713
0.244100,-1.504975
0.244200,-1.551390
0.244300,-1.654932
0.244400,-1.664994
0.244500,-1.565023
0.244600,-1.424803
0.244700,-1.393319
0.244800,-1.469271
0.244900,-1.579629
0.245000,-1.630589
0.245100,-1.611763
0.245200,-1.542302
0.245300,-1.502378
0.245400,-1.496211
0.245500,-1.542951
0.245600,-1.574436
0.245700,-1.559505
0.245800,-1.551715
0.245900,-1.510493
0.246000,-1.471543
0.246100,-1.428374
0.246200,-1.373519
0.246300,-1.356966
0.246400,-1.362483
0.246500,-1.375791
0.246600,-1.378063
0.246700,-1.368001
0.246800,-1.302436
0.246900,-1.261214
0.247000,-1.268355
0.247100,-1.257968
0.247200,-1.220641
0.247300,-1.198569
0.247400,-1.159944
0.247500,-1.115476
0.247600,-1.057376
0.247700,-1.044717
0.247800,-1.063543
0.247900,-1.051858
0.248000,-1.119696
0.248100,-1.129433
0.248200,-1.149882
0.248300,-1.163839
0.248400,-1.203763
0.248500,-1.216746
0.248600,-1.232975
0.248700,-1.287505
0.248800,-1.319963
0.248900,-1.337166
0.249000,-1.369949
0.249100,-1.229729
0.249200,-1.201491
0.249300,-1.069710
0.249400,-1.303734
0.249500,-1.353071
0.249600,-1.461481
0.249700,-1.345930
0.249800,-1.229080
0.249900,-1.132030
0.250000,-1.146312
0.250100,-1.241090
0.250200,-1.269977
0.250300,-1.237195
0.250400,-1.108985
0.250500,-1.038550
0.250600,-1.025892
0.250700,-1.031734
0.250800,-1.051534
0.250900,-1.050235
0.251000,-1.015830
0.251100,-1.001548
0.251200,-0.970388
0.251300,-0.986293
0.251400,-0.949939
0.251500,-0.960002
0.251600,-0.969090
0.251700,-0.973634
0.251800,-0.978827
0.251900,-0.999925
0.252000,-0.994083
0.252100,-0.954484
0.252200,-0.988240
0.252300,-1.092756
0.252400,-1.199219
0.252500,-1.186560
0.252600,-1.127161
0.252700,-1.030111
0.252800,-1.122293
0.252900,-1.218693
0.253000,-1.356966
0.253100,-1.340087
0.253200,-1.280040
0.253300,-1.192078
0.253400,-1.197596
0.253500,-1.254073
0.253600,-1.301787
0.253700,-1.287505
0.253800,-1.312498
0.253900,-1.288479
0.254000,-1.289777
0.254100,-1.264135
0.254200,-1.234598
0.254300,-1.236221
0.254400,-1.227782
0.254500,-1.255371
0.254600,-1.252125
0.254700,-1.249529
0.254800,-1.221615
0.254900,-1.214799
0.255000,-1.203763
0.255100,-1.256345
0.255200,-1.288154
0.255300,-1.333271
0.255400,-1.298865
0.255500,-1.309252
0.255600,-1.341061
0.255700,-1.332622
0.255800,-1.297242
0.255900,-1.297242
0.256000,-1.294970
0.256100,-1.256020
0.256200,-1.275171
0.256300,-1.266407
0.256400,-1.274197
0.256500,-1.279390
0.256600,-1.288154
0.256700,-1.290751
0.256800,-1.305682
0.256900,-1.323534
0.257000,-1.363457
0.257100,-1.385204
0.257200,-1.407600
0.257300,-1.455639
0.257400,-1.524125
0.257500,-1.671811
0.257600,-1.814627
0.257700,-1.781844
0.257800,-1.726016
0.257900,-1.621825
0.258000,-1.719849
0.258100,-1.924661
0.258200,-2.051248
0.258300,-2.060661
0.258400,-1.960040
0.258500,-1.938618
0.258600,-1.946732
0.258700,-2.038589
0.258800,-2.127849
0.258900,-2.106102
0.259000,-2.092145
0.259100,-2.049625
0.259200,-2.052546
0.259300,-2.083057
0.259400,-2.080785
0.259500,-2.082083
0.259600,-2.077539
0.259700,-2.098312
0.259800,-2.123954
0.259900,-2.179134
0.260000,-2.217434
0.260100,-2.201854
0.260200,-2.239506
0.260300,-2.301177
0.260400,-2.337206
0.260500,-2.339478
0.260600,-2.270991
0.260700,-2.225549
0.260800,-2.245998
0.260900,-2.356356
0.261000,-2.445292
0.261100,-2.432958
0.261200,-2.339478
0.261300,-2.280728
0.261400,-2.296957
0.261500,-2.386867
0.261600,-2.482619
0.261700,-2.498524
0.261800,-2.458275
0.261900,-2.390113
0.262000,-2.376480
0.262100,-2.364471
0.262200,-2.369339
0.262300,-2.380375
0.262400,-2.382647
0.262500,-2.363821
0.262600,-2.327793
0.262700,-2.274236
0.262800,-2.220031
0.262900,-2.157387
0.263000,-2.129797
0.263100,-2.123630
0.263200,-2.106752
0.263300,-2.105453
0.263400,-2.017167
0.263500,-1.929854
0.263600,-1.890904
0.263700,-1.876298
0.263800,-1.839620
0.263900,-1.768861
0.264000,-1.730885
0.264100,-1.662722
0.264200,-1.598779
0.264300,-1.561128
0.264400,-1.534837
0.264500,-1.510168
0.264600,-1.519906
0.264700,-1.510493
0.264800,-1.538407
0.264900,-1.530942
0.265000,-1.507896
0.265100,-1.534512
0.265200,-1.502054
0.265300,-1.559505
0.265400,-1.597157
0.265500,-1.631562
0.265600,-1.655906
0.265700,-1.606245
0.265800,-1.541328
0.265900,-1.363782
0.266000,-1.416040
0.266100,-1.551715
0.266200,-1.649414
0.266300,-1.628641
0.266400,-1.518283
0.266500,-1.365080
0.266600,-1.328727
0.266700,-1.380011
0.266800,-1.453367
0.266900,-1.467324
0.267000,-1.362483
0.267100,-1.255047
0.267200,-1.228756
0.267300,-1.250827
0.267400,-1.283610
0.267500,-1.302760
0.267600,-1.298216
0.267700,-1.268030
0.267800,-1.271925
0.267900,-1.264460
0.268000,-1.253424
0.268100,-1.206684
0.268200,-1.189481
0.268300,-1.236870
0.268400,-1.209281
0.268500,-1.219018
0.268600,-1.178445
0.268700,-1.098273
0.268800,-1.051209
0.268900,-1.098598
0.269000,-1.189157
0.269100,-1.217395
0.269200,-1.132030
0.269300,-1.032708
0.269400,-0.949615
0.269500,-1.053806
0.269600,-1.140794
0.269700,-1.198245
0.269800,-1.144040
0.269900,-1.050560
0.270000,-1.004469
0.270100,-1.032059
0.270200,-1.090159
0.270300,-1.111581
0.270400,-1.072956
0.270500,-1.065491
0.270600,-1.049262
0.270700,-1.051858
0.270800,-1.054130
0.270900,-1.046990
0.271000,-1.035305
0.271100,-1.027190
0.271200,-1.054455
0.271300,-1.064842
0.271400,-1.051534
0.271500,-1.024269
0.271600,-0.996679
0.271700,-1.022970
0.271800,-1.092756
0.271900,-1.115152
0.272000,-1.119047
0.272100,-1.119047
0.272200,-1.148584
0.272300,-1.182989
0.272400,-1.150856
0.272500,-1.168708
0.272600,-1.177472
0.272700,-1.200192
0.272800,-1.208956
0.272900,-1.210254
0.273000,-1.232001
0.273100,-1.246608
0.273200,-1.274197
0.273300,-1.281013
0.273400,-1.310875
0.273500,-1.332946
0.273600,-1.390398
0.273700,-1.395591
0.273800,-1.421557
0.273900,-1.458884
0.274000,-1.515362
0.274100,-1.599104
0.274200,-1.775677
0.274300,-1.855200
0.274400,-1.795801
0.274500,-1.706541
0.274600,-1.692908
0.274700,-1.867534
0.274800,-2.021062
0.274900,-2.164852
0.275000,-2.142456
0.275100,-2.076890
0.275200,-2.063582
0.275300,-2.146351
0.275400,-2.270017
0.275500,-2.380375
0.275600,-2.390113
0.275700,-2.393034
0.275800,-2.373234
0.275900,-2.419001
0.276000,-2.446915
0.276100,-2.491707
0.276200,-2.488462
0.276300,-2.494629
0.276400,-2.497550
0.276500,-2.540719
0.276600,-2.567335
0.276700,-2.559221
0.276800,-2.531956
0.276900,-2.544939
0.277000,-2.554352
0.277100,-2.550457
0.277200,-2.485216
0.277300,-2.407965
0.277400,-2.351163
0.277500,-2.402122
0.277600,-2.491707
0.277700,-2.541693
0.277800,-2.480996
0.277900,-2.342724
0.278000,-2.271964
0.278100,-2.336232
0.278200,-2.431010
0.278300,-2.512805
0.278400,-2.499822
0.278500,-2.402771
0.278600,-2.328442
0.278700,-2.285272
0.278800,-2.266771
0.278900,-2.256384
0.279000,-2.235286
0.279100,-2.201530
0.279200,-2.159334
0.279300,-2.087926
0.279400,-2.024632
0.279500,-1.955496
0.279600,-1.910379
0.279700,-1.879868
0.279800,-1.902913
0.279900,-1.930828
0.280000,-1.931477
0.280100,-1.856823
0.280200,-1.813004
0.280300,-1.825338
0.280400,-1.826312
0.280500,-1.798398
0.280600,-1.778598
0.280700,-1.736403
0.280800,-1.679601
0.280900,-1.624097
0.281000,-1.609815
0.281100,-1.595209
0.281200,-1.623448
0.281300,-1.622149
0.281400,-1.618904
0.281500,-1.640001
0.281600,-1.607219
0.281700,-1.595209
0.281800,-1.577032
0.281900,-1.626044
0.282000,-1.590989
0.282100,-1.632536
0.282200,-1.601701
0.282300,-1.610140
0.282400,-1.510168
0.282500,-1.442006
0.282600,-1.333920
0.282700,-1.412145
0.282800,-1.622149
0.282900,-1.583524
0.283000,-1.574436
0.283100,-1.454989
0.283200,-1.351772
0.283300,-1.356316
0.283400,-1.459858
0.283500,-1.545873
0.283600,-1.525099
0.283700,-1.449796
0.283800,-1.381958
0.283900,-1.399161
0.284000,-1.457586
0.284100,-1.500106
0.284200,-1.531915
0.284300,-1.563725
0.284400,-1.588717
0.284500,-1.624422
0.284600,-1.669538
0.284700,-1.713682
0.284800,-1.747438
0.284900,-1.828584
0.285000,-1.868183
0.285100,-1.932451
0.285200,-1.976918
0.285300,-1.950303
0.285400,-1.944785
0.285500,-1.929205
0.285600,-2.079811
0.285700,-2.180432
0.285800,-2.179134
0.285900,-2.116164
0.286000,-1.982436
0.286100,-2.003534
0.286200,-2.069425
0.286300,-2.197959
0.286400,-2.194389
0.286500,-2.125577
0.286600,-2.013272
0.286700,-1.971400
0.286800,-2.006780
0.286900,-2.056117
0.287000,-2.043133
0.287100,-2.040537
0.287200,-1.986656
0.287300,-1.995095
0.287400,-1.958417
0.287500,-1.953873
0.287600,-1.942513
0.287700,-1.911677
0.287800,-1.904536
0.287900,-1.892851
0.288000,-1.890255
0.288100,-1.879219
0.288200,-1.850331
0.288300,-1.822092
0.288400,-1.867534
0.288500,-1.944135
0.288600,-1.958417
0.288700,-1.956145
0.288800,-1.978866
0.288900,-2.023334
0.289000,-2.029825
0.289100,-1.991200
0.289200,-1.989902
0.289300,-2.003210
0.289400,-2.014245
0.289500,-2.023334
0.289600,-2.056117
0.289700,-2.073969
0.289800,-2.111945
0.289900,-2.178160
0.290000,-2.212890
0.290100,-2.254761
0.290200,-2.269043
0.290300,-2.311239
0.290400,-2.347592
0.290500,-2.387516
0.290600,-2.401473
0.290700,-2.437826
0.290800,-2.545264
0.290900,-2.677694
0.291000,-2.708529
0.291100,-2.594925
0.291200,-2.501445
0.291300,-2.504366
0.291400,-2.629655
0.291500,-2.746506
0.291600,-2.726057
0.291700,-2.605961
0.291800,-2.464118
0.291900,-2.389788
0.292000,-2.408939
0.292100,-2.435230
0.292200,-2.420948
0.292300,-2.338504
0.292400,-2.254112
0.292500,-2.195038
0.292600,-2.184652
0.292700,-2.154465
0.292800,-2.147000
0.292900,-2.119735
0.293000,-2.122656
0.293100,-2.151869
0.293200,-2.184002
0.293300,-2.181730
0.293400,-2.181081
0.293500,-2.204127
0.293600,-2.236909
0.293700,-2.261253
0.293800,-2.261902
0.293900,-2.198284
0.294000,-2.147974
0.294100,-2.171668
0.294200,-2.257034
0.294300,-2.377129
0.294400,-2.415430
0.294500,-2.356031
0.294600,-2.263525
0.294700,-2.246322
0.294800,-2.326170
0.294900,-2.423869
0.295000,-2.463793
0.295100,-2.417378
0.295200,-2.341750
0.295300,-2.278131
0.295400,-2.221654
0.295500,-2.231391
0.295600,-2.212566
0.295700,-2.192442
0.295800,-2.140508
0.295900,-2.103181
0.296000,-2.057415
0.296100,-2.000288
0.296200,-1.922388
0.296300,-1.864937
0.296400,-1.828259
0.296500,-1.806512
0.296600,-1.811706
0.296700,-1.763018
0.296800,-1.682197
0.296900,-1.657204
0.297000,-1.656555
0.297100,-1.656555
0.297200,-1.614359
0.297300,-1.585147
0.297400,-1.571190
0.297500,-1.552364
0.297600,-1.520555
0.297700,-1.550092
0.297800,-1.575085
0.297900,-1.590665
0.298000,-1.649414
0.298100,-1.703620
0.298200,-1.753605
0.298300,-1.799372
0.298400,-1.843839
0.298500,-1.903887
0.298600,-1.922713
0.298700,-1.985682
0.298800,-2.037615
0.298900,-2.064231
0.299000,-2.081759
0.299100,-1.966856
0.299200,-1.892851
0.299300,-1.778598
0.299400,-2.036966
0.299500,-2.093119
0.299600,-2.158360
0.299700,-2.038265
0.299800,-1.930828
0.299900,-1.870780
0.300000,-1.930503
0.300100,-2.041510
0.300200,-2.091496
0.300300,-2.063257
0.300400,-1.981787
0.300500,-1.941539
0.300600,-1.969453
0.300700,-1.996069
0.300800,-2.021386
0.300900,-2.000613
0.301000,-2.006455
0.301100,-2.005482
0.301200,-2.006131
0.301300,-2.004508
0.301400,-1.992823
0.301500,-1.962312
0.301600,-1.968479
0.301700,-2.018140
0.301800,-1.990226
0.301900,-1.998341
0.302000,-1.917520
0.302100,-1.882789
0.302200,-1.839620
0.302300,-1.981787
0.302400,-1.986656
0.302500,-1.939591
0.302600,-1.801644
0.302700,-1.713033
0.302800,-1.733481
0.302900,-1.803267
0.303000,-1.879868
0.303100,-1.823391
0.303200,-1.710111
0.303300,-1.587744
0.303400,-1.601701
0.303500,-1.658503
0.303600,-1.703295
0.303700,-1.680574
0.303800,-1.665319
0.303900,-1.592288
0.304000,-1.601052
0.304100,-1.576708
0.304200,-1.544250
0.304300,-1.524450
0.304400,-1.495887
0.304500,-1.505624
0.304600,-1.512116
0.304700,-1.490044
0.304800,-1.463753
0.304900,-1.438760
0.305000,-1.440708
0.305100,-1.493290
0.305200,-1.530617
0.305300,-1.550741
0.305400,-1.528345
0.305500,-1.534512
0.305600,-1.572164
0.305700,-1.546197
0.305800,-1.514713
0.305900,-1.503352
0.306000,-1.508870
0.306100,-1.501080
0.306200,-1.494264
0.306300,-1.491992
0.306400,-1.477061
0.306500,-1.463753
0.306600,-1.482904
0.306700,-1.481930
0.306800,-1.501080
0.306900,-1.516985
0.307000,-1.528020
0.307100,-1.534512
0.307200,-1.568269
0.307300,-1.576708
0.307400,-1.627018
0.307500,-1.793854
0.307600,-1.896422
0.307700,-1.858770
0.307800,-1.742570
0.307900,-1.679925
0.308000,-1.759448
0.308100,-1.946408
0.308200,-2.006455
0.308300,-2.015868
0.308400,-1.894474
0.308500,-1.841892
0.308600,-1.867209
0.308700,-1.939916
0.308800,-2.015868
0.308900,-2.030475
0.309000,-2.038914
0.309100,-1.993797
0.309200,-1.985358
0.309300,-1.984384
0.309400,-2.006455
0.309500,-2.013272
0.309600,-2.019114
0.309700,-2.036317
0.309800,-2.065530
0.309900,-2.121358
0.310000,-2.195038
0.310100,-2.183678
0.310200,-2.227496
0.310300,-2.285272
0.310400,-2.332986
0.310500,-2.369015
0.310600,-2.310914
0.310700,-2.303449
0.310800,-2.315459
0.310900,-2.452108
0.311000,-2.589082
0.311100,-2.609531
0.311200,-2.537798
0.311300,-2.481645
0.311400,-2.536500
0.311500,-2.669255
0.311600,-2.779613
0.311700,-2.832520
0.311800,-2.797465
0.311900,-2.757541
0.312000,-2.740663
0.312100,-2.748128
0.312200,-2.763708
0.312300,-2.772472
0.312400,-2.767928
0.312500,-2.763384
0.312600,-2.703336
0.312700,-2.669904
0.312800,-2.624462
0.312900,-2.566686
0.313000,-2.555650
0.313100,-2.579345
0.313200,-2.588758
0.313300,-2.584214
0.313400,-2.528061
0.313500,-2.495278
0.313600,-2.480022
0.313700,-2.480022
0.313800,-2.458275
0.313900,-2.446590
0.314000,-2.421273
0.314100,-2.377454
0.314200,-2.331688
0.314300,-2.279430
0.314400,-2.280404
0.314500,-2.286246
0.314600,-2.297282
0.314700,-2.290141
0.314800,-2.323249
0.314900,-2.302151
0.315000,-2.320327
0.315100,-2.292413
0.315200,-2.319678
0.315300,-2.332012
0.315400,-2.372585
0.315500,-2.381998
0.315600,-2.425168
0.315700,-2.374208
0.315800,-2.313186
0.315900,-2.139534
0.316000,-2.209969
0.316100,-2.386542
0.316200,-2.432958
0.316300,-2.400499
0.316400,-2.294036
0.316500,-2.185950
0.316600,-2.133367
0.316700,-2.201530
0.316800,-2.258332
0.316900,-2.230093
0.317000,-2.162255
0.317100,-2.068451
0.317200,-2.059038
0.317300,-2.092470
0.317400,-2.150895
0.317500,-2.176212
0.317600,-2.159009
0.317700,-2.147974
0.317800,-2.154141
0.317900,-2.171993
0.318000,-2.188547
0.318100,-2.180432
0.318200,-2.211916
0.318300,-2.296633
0.318400,-2.288843
0.318500,-2.346943
0.318600,-2.312537
0.318700,-2.246647
0.318800,-2.194714
0.318900,-2.226198
0.319000,-2.374208
0.319100,-2.329740
0.319200,-2.303124
0.319300,-2.136938
0.319400,-2.140508
0.319500,-2.184327
0.319600,-2.300528
0.319700,-2.308318
0.319800,-2.212566
0.319900,-2.072021
0.320000,-2.005157
0.320100,-2.035019
0.320200,-2.086303
0.320300,-2.073320
0.320400,-2.053845
0.320500,-2.020737
0.320600,-1.989902
0.320700,-2.006780
0.320800,-1.976918
0.320900,-1.964584
0.321000,-1.961988
0.321100,-1.963610
0.321200,-1.964584
0.321300,-1.987630
0.321400,-1.966532
0.321500,-1.940565
0.321600,-1.904536
0.321700,-1.923362
0.321800,-1.959715
0.321900,-1.966856
0.322000,-1.962961
0.322100,-1.948680
0.322200,-1.949329
0.322300,-1.946083
0.322400,-1.890255
0.322500,-1.904212
0.322600,-1.882465
0.322700,-1.882465
0.322800,-1.881491
0.322900,-1.875324
0.323000,-1.887658
0.323100,-1.897396
0.323200,-1.901940
0.323300,-1.900641
0.323400,-1.891553
0.323500,-1.906808
0.323600,-1.906159
0.323700,-1.895773
0.323800,-1.910379
0.323900,-1.896422
0.324000,-1.922713
0.324100,-1.989253
0.324200,-2.134666
0.324300,-2.173291
0.324400,-2.084031
0.324500,-1.996718
0.324600,-1.992498
0.324700,-2.134666
0.324800,-2.308967
0.324900,-2.360900
0.325000,-2.313511
0.325100,-2.239506
0.325200,-2.217110
0.325300,-2.283974
0.325400,-2.341750
0.325500,-2.402447
0.325600,-2.364795
0.325700,-2.344022
0.325800,-2.323898
0.325900,-2.337855
0.326000,-2.350189
0.326100,-2.342074
0.326200,-2.330065
0.326300,-2.299229
0.326400,-2.294685
0.326500,-2.349215
0.326600,-2.362199
0.326700,-2.335907
0.326800,-2.285597
0.326900,-2.296308
0.327000,-2.308318
0.327100,-2.301177
0.327200,-2.236585
0.327300,-2.160957
0.327400,-2.115840
0.327500,-2.150570
0.327600,-2.237883
0.327700,-2.276509
0.327800,-2.187897
0.327900,-2.038589
0.328000,-1.966207
0.328100,-1.985682
0.328200,-2.105453
0.328300,-2.148623
0.328400,-2.117463
0.328500,-2.042484
0.328600,-1.966532
0.328700,-1.936346
0.328800,-1.952575
0.328900,-1.955496
0.329000,-1.948680
0.329100,-1.914598
0.329200,-1.895773
0.329300,-1.840594
0.329400,-1.823391
0.329500,-1.797749
0.329600,-1.769835
0.329700,-1.772756
0.329800,-1.783142
0.329900,-1.826961
0.330000,-1.857147
0.330100,-1.813004
0.330200,-1.822417
0.330300,-1.860069
0.330400,-1.888632
0.330500,-1.877271
0.330600,-1.887333
0.330700,-1.890904
0.330800,-1.868832
0.330900,-1.837348
0.331000,-1.864613
0.331100,-1.913300
0.331200,-1.933749
0.331300,-1.995095
0.331400,-2.021386
0.331500,-2.082083
0.331600,-2.098312
0.331700,-2.099611
0.331800,-2.122981
0.331900,-2.113243
0.332000,-2.158036
0.332100,-2.199907
0.332200,-2.199258
0.332300,-2.197959
0.332400,-2.089873
0.332500,-2.025930
0.332600,-1.879219
0.332700,-2.048976
0.332800,-2.153492
0.332900,-2.234962
0.333000,-2.130122
0.333100,-2.000938
0.333200,-1.898045
0.333300,-1.901940
0.333400,-2.003534
0.333500,-2.063582
0.333600,-2.021386
0.333700,-1.917844
0.333800,-1.824040
0.333900,-1.800021
0.334000,-1.841567
0.334100,-1.855524
0.334200,-1.873701
0.334300,-1.874675
0.334400,-1.870131
0.334500,-1.898369
0.334600,-1.927582
0.334700,-1.937319
0.334800,-1.922064
0.334900,-2.014245
0.335000,-2.028202
0.335100,-2.057740
0.335200,-2.064880
0.335300,-2.026255
0.335400,-2.008078
0.335500,-2.005157
0.335600,-2.178484
0.335700,-2.257358
0.335800,-2.245024
0.335900,-2.163878
0.336000,-2.048976
0.336100,-2.080136
0.336200,-2.154141
0.336300,-2.287869
0.336400,-2.291115
0.336500,-2.203477
0.336600,-2.085978
0.336700,-2.062933
0.336800,-2.125577
0.336900,-2.179134
0.337000,-2.173291
0.337100,-2.155439
0.337200,-2.117138
0.337300,-2.106427
0.337400,-2.087601
0.337500,-2.092145
0.337600,-2.082408
0.337700,-2.063582
0.337800,-2.057090
0.337900,-2.053845
0.338000,-2.053520
0.338100,-2.028527
0.338200,-2.005482
0.338300,-1.979190
0.338400,-2.029501
0.338500,-2.061959
0.338600,-2.081110
0.338700,-2.050923
0.338800,-2.076890
0.338900,-2.100260
0.339000,-2.104804
0.339100,-2.025930
0.339200,-2.041835
0.339300,-2.018140
0.339400,-1.994770
0.339500,-2.007105
0.339600,-2.007429
0.339700,-2.011324
0.339800,-2.010675
0.339900,-2.010675
0.340000,-2.028202
0.340100,-2.043782
0.340200,-2.038589
0.340300,-2.084355
0.340400,-2.089549
0.340500,-2.123630
0.340600,-2.152193
0.340700,-2.227172
0.340800,-2.355707
0.340900,-2.511182
0.341000,-2.517349
0.341100,-2.432633
0.341200,-2.334284
0.341300,-2.372585
0.341400,-2.588109
0.341500,-2.733198
0.341600,-2.770200
0.341700,-2.698143
0.341800,-2.589732
0.341900,-2.566686
0.342000,-2.647832
0.342100,-2.738391
0.342200,-2.793895
0.342300,-2.759813
0.342400,-2.703985
0.342500,-2.698792
0.342600,-2.700739
0.342700,-2.736443
0.342800,-2.740338
0.342900,-2.733847
0.343000,-2.737417
0.343100,-2.734171
0.343200,-2.781236
0.343300,-2.805255
0.343400,-2.767928
0.343500,-2.768902
0.343600,-2.761761
0.343700,-2.780587
0.343800,-2.763059
0.343900,-2.699441
0.344000,-2.623813
0.344100,-2.602066
0.344200,-2.661789
0.344300,-2.746830
0.344400,-2.740338
0.344500,-2.635822
0.344600,-2.514753
0.344700,-2.479373
0.344800,-2.535851
0.344900,-2.626085
0.345000,-2.665035
0.345100,-2.608882
0.345200,-2.524815
0.345300,-2.452757
0.345400,-2.434581
0.345500,-2.441397
0.345600,-2.431984
0.345700,-2.427115
0.345800,-2.383296
0.345900,-2.322599
0.346000,-2.255086
0.346100,-2.203153
0.346200,-2.134341
0.346300,-2.089549
0.346400,-2.053195
0.346500,-2.054494
0.346600,-2.032747
0.346700,-1.985033
0.346800,-1.879219
0.346900,-1.842541
0.347000,-1.815925
0.347100,-1.798073
0.347200,-1.752956
0.347300,-1.709138
0.347400,-1.670512
0.347500,-1.612412
0.347600,-1.545223
0.347700,-1.548469
0.347800,-1.553013
0.347900,-1.573137
0.348000,-1.587419
0.348100,-1.596183
0.348200,-1.624097
0.348300,-1.608842
0.348400,-1.649414
0.348500,-1.614359
0.348600,-1.670837
0.348700,-1.660126
0.348800,-1.746789
0.348900,-1.722121
0.349000,-1.716278
0.349100,-1.607868
0.349200,-1.494588
0.349300,-1.507572
0.349400,-1.651686
0.349500,-1.766913
0.349600,-1.771782
0.349700,-1.713033
0.349800,-1.584173
0.349900,-1.517958
0.350000,-1.562751
0.350100,-1.655257
0.350200,-1.694207
0.350300,-1.646169
0.350400,-1.542302
0.350500,-1.470569
0.350600,-1.481605
0.350700,-1.494588
0.350800,-1.510168
0.350900,-1.501729
0.351000,-1.482579
0.351100,-1.485500
0.351200,-1.476412
0.351300,-1.481605
0.351400,-1.500106
0.351500,-1.533538
0.351600,-1.578980
0.351700,-1.622474
0.351800,-1.659476
0.351900,-1.680250
0.352000,-1.657529
0.352100,-1.666293
0.352200,-1.748412
0.352300,-1.899018
0.352400,-1.979190
0.352500,-1.981787
0.352600,-1.919792
0.352700,-1.868832
0.352800,-1.949653
0.352900,-2.096365
0.353000,-2.191468
0.353100,-2.193415
0.353200,-2.106427
0.353300,-2.048651
0.353400,-2.071372
0.353500,-2.142780
0.353600,-2.208346
0.353700,-2.218408
0.353800,-2.255735
0.353900,-2.259630
0.354000,-2.272289
0.354100,-2.261902
0.354200,-2.292413
0.354300,-2.298580
0.354400,-2.312213
0.354500,-2.339153
0.354600,-2.370962
0.354700,-2.358953
0.354800,-2.336881
0.354900,-2.321950
0.355000,-2.322599
0.355100,-2.389788
0.355200,-2.425817
0.355300,-2.438800
0.355400,-2.404719
0.355500,-2.460547
0.355600,-2.498848
0.355700,-2.465091
0.355800,-2.452757
0.355900,-2.454056
0.356000,-2.455679
0.356100,-2.454056
0.356200,-2.450810
0.356300,-2.444967
0.356400,-2.435879
0.356500,-2.428089
0.356600,-2.406666
0.356700,-2.392060
0.356800,-2.399526
0.356900,-2.366094
0.357000,-2.343373
0.357100,-2.346943
0.357200,-2.318704
0.357300,-2.333960
0.357400,-2.349215
0.357500,-2.503392
0.357600,-2.523192
0.357700,-2.461521
0.357800,-2.305396
0.357900,-2.219382
0.358000,-2.290141
0.358100,-2.425492
0.358200,-2.519622
0.358300,-2.469311
0.358400,-2.359926
0.358500,-2.257034
0.358600,-2.281053
0.358700,-2.325845
0.358800,-2.414132
0.358900,-2.405368
0.359000,-2.378428
0.359100,-2.299229
0.359200,-2.287544
0.359300,-2.290790
0.359400,-2.297282
0.359500,-2.284299
0.359600,-2.285272
0.359700,-2.267745
0.359800,-2.269368
0.359900,-2.269368
0.360000,-2.263201
0.360100,-2.198609
0.360200,-2.184002
0.360300,-2.165501
0.360400,-2.166475
0.360500,-2.138561
0.360600,-2.024632
0.360700,-1.967830
0.360800,-1.950627
0.360900,-2.024957
0.361000,-2.073644
0.361100,-2.030799
0.361200,-1.899343
0.361300,-1.805214
0.361400,-1.828584
0.361500,-1.893501
0.361600,-1.963935
0.361700,-1.975945
0.361800,-1.894799
0.361900,-1.824364
0.362000,-1.799047
0.362100,-1.815925
0.362200,-1.835400
0.362300,-1.832804
0.362400,-1.835725
0.362500,-1.856498
0.362600,-1.856498
0.362700,-1.865911
0.362800,-1.841243
0.362900,-1.804889
0.363000,-1.804240
0.363100,-1.857147
0.363200,-1.900641
0.363300,-1.939267
0.363400,-1.883439
0.363500,-1.860718
0.363600,-1.887983
0.363700,-1.935372
0.363800,-1.940890
0.363900,-1.950303
0.364000,-1.945434
0.364100,-1.931477
0.364200,-1.926933
0.364300,-1.953873
0.364400,-1.979840
0.364500,-2.013272
0.364600,-2.085978
0.364700,-2.134341
0.364800,-2.215487
0.364900,-2.237883
0.365000,-2.286895
0.365100,-2.277482
0.365200,-2.346619
0.365300,-2.304423
0.365400,-2.383296
0.365500,-2.368690
0.365600,-2.420948
0.365700,-2.330714
0.365800,-2.257358
0.365900,-2.085654
0.366000,-2.178484
0.366100,-2.355707
0.366200,-2.389139
0.366300,-2.390437
0.366400,-2.282676
0.366500,-2.180432
0.366600,-2.150246
0.366700,-2.224575
0.366800,-2.325845
0.366900,-2.325521
0.367000,-2.225549
0.367100,-2.143754
0.367200,-2.103181
0.367300,-2.119086
0.367400,-2.158685
0.367500,-2.176537
0.367600,-2.148623
0.367700,-2.145702
0.367800,-2.120709
0.367900,-2.132718
0.368000,-2.143105
0.368100,-2.143105
0.368200,-2.150895
0.368300,-2.248594
0.368400,-2.220356
0.368500,-2.265148
0.368600,-2.244699
0.368700,-2.268719
0.368800,-2.233339
0.368900,-2.355058
0.369000,-2.470285
0.369100,-2.484891
0.369200,-2.432309
0.369300,-2.312862
0.369400,-2.290141
0.369500,-2.353110
0.369600,-2.473531
0.369700,-2.518648
0.369800,-2.447239
0.369900,-2.340127
0.370000,-2.305721
0.370100,-2.311888
0.370200,-2.364795
0.370300,-2.370962
0.370400,-2.359277
0.370500,-2.319354
0.370600,-2.310265
0.370700,-2.304747
0.370800,-2.283974
0.370900,-2.250542
0.371000,-2.205749
0.371100,-2.214838
0.371200,-2.235286
0.371300,-2.231391
0.371400,-2.215487
0.371500,-2.168422
0.371600,-2.122656
0.371700,-2.172317
0.371800,-2.211916
0.371900,-2.212566
0.372000,-2.177511
0.372100,-2.155114
0.372200,-2.166150
0.372300,-2.153816
0.372400,-2.091172
0.372500,-2.070074
0.372600,-2.042809
0.372700,-2.038589
0.372800,-2.046704
0.372900,-2.034694
0.373000,-2.025281
0.373100,-2.007105
0.373200,-1.995744
0.373300,-1.996718
0.373400,-2.032097
0.373500,-2.034694
0.373600,-2.050599
0.373700,-2.081759
0.373800,-2.100909
0.373900,-2.135639
0.374000,-2.155764
0.374100,-2.272614
0.374200,-2.404394
0.374300,-2.461196
0.374400,-2.346294
0.374500,-2.217434
0.374600,-2.214513
0.374700,-2.316432
0.374800,-2.464118
0.374900,-2.507612
0.375000,-2.441072
0.375100,-2.365769
0.375200,-2.295984
0.375300,-2.346943
0.375400,-2.440748
0.375500,-2.480022
0.375600,-2.440423
0.375700,-2.412834
0.375800,-2.404719
0.375900,-2.387841
0.376000,-2.409588
0.376100,-2.416404
0.376200,-2.444967
0.376300,-2.434581
0.376400,-2.458924
0.376500,-2.459898
0.376600,-2.468662
0.376700,-2.505664
0.376800,-2.476452
0.376900,-2.487488
0.377000,-2.457626
0.377100,-2.465416
0.377200,-2.384919
0.377300,-2.318380
0.377400,-2.305721
0.377500,-2.348241
0.377600,-2.435554
0.377700,-2.477426
0.377800,-2.395631
0.377900,-2.300203
0.378000,-2.269043
0.378100,-2.313836
0.378200,-2.412834
0.378300,-2.465091
0.378400,-2.422571
0.378500,-2.346294
0.378600,-2.299554
0.378700,-2.277482
0.378800,-2.273587
0.378900,-2.260604
0.379000,-2.213539
0.379100,-2.166150
0.379200,-2.140833
0.379300,-2.067802
0.379400,-1.998990
0.379500,-1.898369
0.379600,-1.831181
0.379700,-1.785415
0.379800,-1.773730
0.379900,-1.748087
0.380000,-1.705243
0.380100,-1.599429
0.380200,-1.563400
0.380300,-1.526398
0.380400,-1.511467
0.380500,-1.437137
0.380600,-1.380335
0.380700,-1.338464
0.380800,-1.289128
0.380900,-1.249853
0.381000,-1.242063
0.381100,-1.244335
0.381200,-1.272574
0.381300,-1.301787
0.381400,-1.345605
0.381500,-1.354044
0.381600,-1.375467
0.381700,-1.378063
0.381800,-1.397214
0.381900,-1.432593
0.382000,-1.450770
0.382100,-1.491343
0.382200,-1.550741
0.382300,-1.540355
0.382400,-1.504326
0.382500,-1.393968
0.382600,-1.375467
0.382700,-1.505949
0.382800,-1.662073
0.382900,-1.699076
0.383000,-1.660775
0.383100,-1.605596
0.383200,-1.552689
0.383300,-1.605920
0.383400,-1.728288
0.383500,-1.795152
0.383600,-1.768536
0.383700,-1.705567
0.383800,-1.642274
0.383900,-1.671811
0.384000,-1.713682
0.384100,-1.765615
0.384200,-1.778598
0.384300,-1.784441
0.384400,-1.803916
0.384500,-1.809434
0.384600,-1.844813
0.384700,-1.868183
0.384800,-1.873052
0.384900,-1.951925
0.385000,-2.015868
0.385100,-2.044107
0.385200,-2.091496
0.385300,-2.053845
0.385400,-2.075592
0.385500,-2.085978
0.385600,-2.227172
0.385700,-2.329091
0.385800,-2.324222
0.385900,-2.242752
0.386000,-2.113892
0.386100,-2.152193
0.386200,-2.251191
0.386300,-2.345645
0.386400,-2.315783
0.386500,-2.218408
0.386600,-2.111620
0.386700,-2.110971
0.386800,-2.159009
0.386900,-2.214513
0.387000,-2.157387
0.387100,-2.157062
0.387200,-2.130122
0.387300,-2.149921
0.387400,-2.133043
0.387500,-2.143105
0.387600,-2.131420
0.387700,-2.124928
0.387800,-2.155114
0.387900,-2.183678
0.388000,-2.199582
0.388100,-2.195363
0.388200,-2.186599
0.388300,-2.187573
0.388400,-2.240804
0.388500,-2.291439
0.388600,-2.302151
0.388700,-2.302151
0.388800,-2.323249
0.388900,-2.378103
0.389000,-2.377129
0.389100,-2.315783
0.389200,-2.326494
0.389300,-2.313836
0.389400,-2.313186
0.389500,-2.298256
0.389600,-2.291115
0.389700,-2.298256
0.389800,-2.287869
0.389900,-2.282676
0.390000,-2.276833
0.390100,-2.280404
0.390200,-2.249244
0.390300,-2.243726
0.390400,-2.209320
0.390500,-2.215811
0.390600,-2.211267
0.390700,-2.274886
0.390800,-2.363172
0.390900,-2.471583
0.391000,-2.440748
0.391100,-2.296957
0.391200,-2.213539
0.391300,-2.237883
0.391400,-2.442695
0.391500,-2.536500
0.391600,-2.562467
0.391700,-2.480672
0.391800,-2.395631
0.391900,-2.409912
0.392000,-2.484891
0.392100,-2.567660
0.392200,-2.618620
0.392300,-2.549808
0.392400,-2.517025
0.392500,-2.509559
0.392600,-2.533254
0.392700,-2.560519
0.392800,-2.582915
0.392900,-2.569932
0.393000,-2.566037
0.393100,-2.594925
0.393200,-2.655297
0.393300,-2.654324
0.393400,-2.661789
0.393500,-2.658219
0.393600,-2.669579
0.393700,-2.731899
0.393800,-2.719565
0.393900,-2.646534
0.394000,-2.588758
0.394100,-2.603689
0.394200,-2.719240
0.394300,-2.817589
0.394400,-2.812396
0.394500,-2.720214
0.394600,-2.629980
0.394700,-2.617321
0.394800,-2.697818
0.394900,-2.821160
0.395000,-2.875690
0.395100,-2.827002
0.395200,-2.758840
0.395300,-2.712100
0.395400,-2.742611
0.395500,-2.777016
0.395600,-2.805904
0.395700,-2.801360
0.395800,-2.774095
0.395900,-2.726706
0.396000,-2.691002
0.396100,-2.653675
0.396200,-2.606935
0.396300,-2.543641
0.396400,-2.551431
0.396500,-2.526762
0.396600,-2.546237
0.396700,-2.505340
0.396800,-2.429387
0.396900,-2.403421
0.397000,-2.368690
0.397100,-2.334934
0.397200,-2.290790
0.397300,-2.251191
0.397400,-2.179783
0.397500,-2.109024
0.397600,-2.047028
0.397700,-2.051248
0.397800,-2.052222
0.397900,-2.047028
0.398000,-2.046704
0.398100,-2.043458
0.398200,-2.048651
0.398300,-2.041510
0.398400,-2.021711
0.398500,-2.044432
0.398600,-1.982112
0.398700,-2.066828
0.398800,-1.997692
0.398900,-2.082408
0.399000,-1.981138
0.399100,-1.958093
0.399200,-1.773730
0.399300,-1.833777
0.399400,-1.938942
0.399500,-2.023658
0.399600,-1.999639
0.399700,-1.940890
0.399800,-1.803267
0.399900,-1.758474
0.400000,-1.809109
0.400100,-1.900966
0.400200,-1.939916
0.400300,-1.869481
0.400400,-1.752307
0.400500,-1.681548
0.400600,-1.683496
0.400700,-1.734455
0.400800,-1.749061
0.400900,-1.719200
0.401000,-1.663696
0.401100,-1.620527
0.401200,-1.584822
0.401300,-1.579305
0.401400,-1.547820
0.401500,-1.550092
0.401600,-1.524775
0.401700,-1.567620
0.401800,-1.559505
0.401900,-1.585147
0.402000,-1.513090
0.402100,-1.508221
0.402200,-1.515686
0.402300,-1.678951
0.402400,-1.679925
0.402500,-1.665968
0.402600,-1.561452
0.402700,-1.575085
0.402800,-1.625720
0.402900,-1.762694
0.403000,-1.839295
0.403100,-1.824040
0.403200,-1.744517
0.403300,-1.703620
0.403400,-1.748087
0.403500,-1.834102
0.403600,-1.886684
0.403700,-1.936021
0.403800,-1.963610
0.403900,-1.964260
0.404000,-1.998341
0.404100,-2.011000
0.404200,-2.043458
0.404300,-2.057415
0.404400,-2.090198
0.404500,-2.116814
0.404600,-2.150895
0.404700,-2.150895
0.404800,-2.144728
0.404900,-2.113243
0.405000,-2.129148
0.405100,-2.191468
0.405200,-2.194389
0.405300,-2.164203
0.405400,-2.128823
0.405500,-2.115191
0.405600,-2.117463
0.405700,-2.059038
0.405800,-2.036317
0.405900,-1.994121
0.406000,-1.986980
0.406100,-1.949653
0.406200,-1.935372
0.406300,-1.915572
0.406400,-1.880193
0.406500,-1.867209
0.406600,-1.860393
0.406700,-1.843190
0.406800,-1.837672
0.406900,-1.824689
0.407000,-1.817548
0.407100,-1.811057
0.407200,-1.837997
0.407300,-1.835400
0.407400,-1.926933
0.407500,-2.085978
0.407600,-2.136938
0.407700,-2.098312
0.407800,-2.008078
0.407900,-1.970102
0.408000,-2.056766
0.408100,-2.210294
0.408200,-2.299554
0.408300,-2.262227
0.408400,-2.181081
0.408500,-2.091496
0.408600,-2.150895
0.408700,-2.252165
0.408800,-2.319029
0.408900,-2.298256
0.409000,-2.273912
0.409100,-2.248270
0.409200,-2.239181
0.409300,-2.256709
0.409400,-2.272938
0.409500,-2.288194
0.409600,-2.305721
0.409700,-2.329091
0.409800,-2.356356
0.409900,-2.386542
0.410000,-2.383296
0.410100,-2.375182
0.410200,-2.406017
0.410300,-2.417702
0.410400,-2.447889
0.410500,-2.394008
0.410600,-2.316757
0.410700,-2.307669
0.410800,-2.371936
0.410900,-2.483593
0.411000,-2.543316
0.411100,-2.501769
0.411200,-2.410237
0.411300,-2.333635
0.411400,-2.388490
0.411500,-2.487812
0.411600,-2.563765
0.411700,-2.577722
0.411800,-2.507287
0.411900,-2.454380
0.412000,-2.408939
0.412100,-2.399526
0.412200,-2.408289
0.412300,-2.386542
0.412400,-2.363497
0.412500,-2.344996
0.412600,-2.287220
0.412700,-2.247296
0.412800,-2.156413
0.412900,-2.107076
0.413000,-2.081759
0.413100,-2.091172
0.413200,-2.098962
0.413300,-2.098637
0.413400,-2.005482
0.413500,-1.966207
0.413600,-1.957119
0.413700,-1.971725
0.413800,-1.930503
0.413900,-1.900966
0.414000,-1.870780
0.414100,-1.819171
0.414200,-1.768861
0.414300,-1.736078
0.414400,-1.761395
0.414500,-1.749061
0.414600,-1.759123
0.414700,-1.760746
0.414800,-1.783467
0.414900,-1.756851
0.415000,-1.763667
0.415100,-1.754579
0.415200,-1.744517
0.415300,-1.764317
0.415400,-1.763992
0.415500,-1.775352
0.415600,-1.775677
0.415700,-1.684145
0.415800,-1.599753
0.415900,-1.465701
0.416000,-1.565997
0.416100,-1.682846
0.416200,-1.778274
0.416300,-1.706865
0.416400,-1.625720
0.416500,-1.522827
0.416600,-1.521853
0.416700,-1.624746
0.416800,-1.683820
0.416900,-1.692908
0.417000,-1.593911
0.417100,-1.536784
0.417200,-1.537758
0.417300,-1.584498
0.417400,-1.623123
0.417500,-1.640975
0.417600,-1.640326
0.417700,-1.651686
0.417800,-1.651362
0.417900,-1.680574
0.418000,-1.677653
0.418100,-1.675381
0.418200,-1.717901
0.418300,-1.763343
0.418400,-1.801319
0.418500,-1.800670
0.418600,-1.778923
0.418700,-1.730235
0.418800,-1.754904
0.418900,-1.820145
0.419000,-1.964909
0.419100,-1.942837
0.419200,-1.889606
0.419300,-1.742894
0.419400,-1.791257
0.419500,-1.866560
0.419600,-2.013596
0.419700,-2.020412
0.419800,-1.976269
0.419900,-1.868832
0.420000,-1.851954
0.420100,-1.885386
0.420200,-1.982761
0.420300,-1.974646
0.420400,-1.999964
0.420500,-1.973673
0.420600,-1.983085
0.420700,-2.009377
0.420800,-2.019763
0.420900,-2.030475
0.421000,-2.023658
0.421100,-2.043133
0.421200,-2.086303
0.421300,-2.118112
0.421400,-2.122656
0.421500,-2.116164
0.421600,-2.094742
0.421700,-2.160957
0.421800,-2.218408
0.421900,-2.262551
0.422000,-2.253463
0.422100,-2.243401
0.422200,-2.284623
0.422300,-2.292413
0.422400,-2.237883
0.422500,-2.251516
0.422600,-2.247945
0.422700,-2.259630
0.422800,-2.245673
0.422900,-2.246322
0.423000,-2.261253
0.423100,-2.235611
0.423200,-2.249893
0.423300,-2.258332
0.423400,-2.276509
0.423500,-2.268394
0.423600,-2.251191
0.423700,-2.282676
0.423800,-2.299879
0.423900,-2.297931
0.424000,-2.354409
0.424100,-2.442371
0.424200,-2.606610
0.424300,-2.616023
0.424400,-2.546887
0.424500,-2.396929
0.424600,-2.376480
0.424700,-2.557598
0.424800,-2.672500
0.424900,-2.714696
0.425000,-2.641016
0.425100,-2.516700
0.425200,-2.497874
0.425300,-2.559221
0.425400,-2.654648
0.425500,-2.677694
0.425600,-2.649780
0.425700,-2.583564
0.425800,-2.565388
0.425900,-2.575450
0.426000,-2.572204
0.426100,-2.593951
0.426200,-2.567335
0.426300,-2.576099
0.426400,-2.589407
0.426500,-2.614400
0.426600,-2.637445
0.426700,-2.634200
0.426800,-2.628682
0.426900,-2.653675
0.427000,-2.673150
0.427100,-2.686458
0.427200,-2.650104
0.427300,-2.554677
0.427400,-2.546562
0.427500,-2.620242
0.427600,-2.720863
0.427700,-2.744883
0.427800,-2.662114
0.427900,-2.563765
0.428000,-2.518648
0.428100,-2.583564
0.428200,-2.706582
0.428300,-2.784157
0.428400,-2.763059
0.428500,-2.693923
0.428600,-2.626734
0.428700,-2.599145
0.428800,-2.628032
0.428900,-2.647507
0.429000,-2.645560
0.429100,-2.621865
0.429200,-2.578696
0.429300,-2.515727
0.429400,-2.457626
0.429500,-2.389788
0.429600,-2.342074
0.429700,-2.319354
0.429800,-2.321950
0.429900,-2.322599
0.430000,-2.295659
0.430100,-2.184327
0.430200,-2.158685
0.430300,-2.115515
0.430400,-2.111620
0.430500,-2.059362
0.430600,-2.018790
0.430700,-1.950303
0.430800,-1.872727
0.430900,-1.835400
0.431000,-1.811706
0.431100,-1.778598
0.431200,-1.803916
0.431300,-1.767887
0.431400,-1.774379
0.431500,-1.747763
0.431600,-1.750035
0.431700,-1.725691
0.431800,-1.705567
0.431900,-1.715954
0.432000,-1.713357
0.432100,-1.746140
0.432200,-1.687066
0.432300,-1.695830
0.432400,-1.573787
0.432500,-1.417338
0.432600,-1.328727
0.432700,-1.392345
0.432800,-1.577357
0.432900,-1.528020
0.433000,-1.514063
0.433100,-1.315094
0.433200,-1.240116
0.433300,-1.254073
0.433400,-1.344631
0.433500,-1.369300
0.433600,-1.278741
0.433700,-1.185262
0.433800,-1.095677
0.433900,-1.101519
0.434000,-1.131056
0.434100,-1.143066
0.434200,-1.149233
0.434300,-1.141768
0.434400,-1.116775
0.434500,-1.112231
0.434600,-1.119047
0.434700,-1.124889
0.434800,-1.123915
0.434900,-1.199868
0.435000,-1.202464
0.435100,-1.262512
0.435200,-1.238168
0.435300,-1.248880
0.435400,-1.255696
0.435500,-1.292374
0.435600,-1.450445
0.435700,-1.528994
0.435800,-1.561452
0.435900,-1.481281
0.436000,-1.422207
0.436100,-1.485176
0.436200,-1.638054
0.436300,-1.751333
0.436400,-1.773730
0.436500,-1.708813
0.436600,-1.638054
0.436700,-1.671161
0.436800,-1.762045
0.436900,-1.828259
0.437000,-1.822417
0.437100,-1.865262
0.437200,-1.852603
0.437300,-1.892851
0.437400,-1.876298
0.437500,-1.893825
0.437600,-1.890255
0.437700,-1.917844
0.437800,-1.965558
0.437900,-2.043133
0.438000,-2.083382
0.438100,-2.096365
0.438200,-2.120709
0.438300,-2.162580
0.438400,-2.261578
0.438500,-2.353110
0.438600,-2.384270
0.438700,-2.404719
0.438800,-2.425168
0.438900,-2.483268
0.439000,-2.468662
0.439100,-2.445292
0.439200,-2.443344
0.439300,-2.427115
0.439400,-2.412834
0.439500,-2.424194
0.439600,-2.407640
0.439700,-2.401473
0.439800,-2.388490
0.439900,-2.376156
0.440000,-2.368690
0.440100,-2.346294
0.440200,-2.327793
0.440300,-2.310590
0.440400,-2.319029
0.440500,-2.317406
0.440600,-2.321301
0.440700,-2.333635
0.440800,-2.481321
0.440900,-2.552080
0.441000,-2.530657
0.441100,-2.360900
0.441200,-2.287544
0.441300,-2.322275
0.441400,-2.501769
0.441500,-2.607908
0.441600,-2.584863
0.441700,-2.502743
0.441800,-2.424843
0.441900,-2.438800
0.442000,-2.513779
0.442100,-2.583889
0.442200,-2.588433
0.442300,-2.555650
0.442400,-2.514104
0.442500,-2.536500
0.442600,-2.531631
0.442700,-2.572529
0.442800,-2.567984
0.442900,-2.593302
0.443000,-2.586486
0.443100,-2.605312
0.443200,-2.614725
0.443300,-2.616672
0.443400,-2.616997
0.443500,-2.615049
0.443600,-2.628357
0.443700,-2.653350
0.443800,-2.630954
0.443900,-2.542667
0.444000,-2.499173
0.444100,-2.496576
0.444200,-2.597522
0.444300,-2.677694
0.444400,-2.651727
0.444500,-2.540719
0.444600,-2.454056
0.444700,-2.445292
0.444800,-2.518323
0.444900,-2.589082
0.445000,-2.592328
0.445100,-2.511507
0.445200,-2.435879
0.445300,-2.359926
0.445400,-2.323249
0.445500,-2.298905
0.445600,-2.278456
0.445700,-2.217759
0.445800,-2.164852
0.445900,-2.097339
0.446000,-2.021386
0.446100,-1.947706
0.446200,-1.883114
0.446300,-1.834751
0.446400,-1.829233
0.446500,-1.806512
0.446600,-1.793854
0.446700,-1.734780
0.446800,-1.677978
0.446900,-1.673109
0.447000,-1.664670
0.447100,-1.633510
0.447200,-1.605271
0.447300,-1.590016
0.447400,-1.557882
0.447500,-1.528345
0.447600,-1.527696
0.447700,-1.534188
0.447800,-1.552689
0.447900,-1.614684
0.448000,-1.625071
0.448100,-1.684145
0.448200,-1.682197
0.448300,-1.701023
0.448400,-1.714331
0.448500,-1.705243
0.448600,-1.795477
0.448700,-1.738025
0.448800,-1.847734
0.448900,-1.771457
0.449000,-1.817224
0.449100,-1.662073
0.449200,-1.532565
0.449300,-1.592612
0.449400,-1.713682
0.449500,-1.871754
0.449600,-1.818197
0.449700,-1.816250
0.449800,-1.683171
0.449900,-1.651686
0.450000,-1.734455
0.450100,-1.836049
0.450200,-1.872403
0.450300,-1.804240
0.450400,-1.741271
0.450500,-1.712059
0.450600,-1.763992
0.450700,-1.790608
0.450800,-1.818847
0.450900,-1.837997
0.451000,-1.852928
0.451100,-1.870455
0.451200,-1.881491
0.451300,-1.900641
0.451400,-1.905835
0.451500,-1.941214
0.451600,-2.010026
0.451700,-1.975620
0.451800,-2.024632
0.451900,-2.005157
0.452000,-1.992823
0.452100,-1.967830
0.452200,-2.024632
0.452300,-2.166150
0.452400,-2.172967
0.452500,-2.122332
0.452600,-1.981138
0.452700,-1.943811
0.452800,-1.985358
0.452900,-2.108699
0.453000,-2.155439
0.453100,-2.088575
0.453200,-1.957119
0.453300,-1.900966
0.453400,-1.922388
0.453500,-1.965883
0.453600,-1.963286
0.453700,-1.943486
0.453800,-1.923362
0.453900,-1.890904
0.454000,-1.902589
0.454100,-1.859744
0.454200,-1.830532
0.454300,-1.800021
0.454400,-1.810083
0.454500,-1.829882
0.454600,-1.870131
0.454700,-1.852928
0.454800,-1.838646
0.454900,-1.821119
0.455000,-1.867209
0.455100,-1.941863
0.455200,-1.971076
0.455300,-1.960040
0.455400,-1.955171
0.455500,-1.985682
0.455600,-2.011649
0.455700,-1.967505
0.455800,-1.987630
0.455900,-2.020088
0.456000,-2.051572
0.456100,-2.083382
0.456200,-2.124928
0.456300,-2.170694
0.456400,-2.216461
0.456500,-2.249568
0.456600,-2.296633
0.456700,-2.349215
0.456800,-2.388490
0.456900,-2.418676
0.457000,-2.451134
0.457100,-2.474829
0.457200,-2.490734
0.457300,-2.535851
0.457400,-2.614400
0.457500,-2.767279
0.457600,-2.819861
0.457700,-2.755594
0.457800,-2.630305
0.457900,-2.614075
0.458000,-2.741961
0.458100,-2.904902
0.458200,-2.962029
0.458300,-2.926000
0.458400,-2.817914
0.458500,-2.765007
0.458600,-2.797141
0.458700,-2.889322
0.458800,-2.915614
0.458900,-2.897437
0.459000,-2.831871
0.459100,-2.795193
0.459200,-2.775069
0.459300,-2.788701
0.459400,-2.812071
0.459500,-2.807527
0.459600,-2.790649
0.459700,-2.769551
0.459800,-2.774744
0.459900,-2.800062
0.460000,-2.769551
0.460100,-2.755918
0.460200,-2.757866
0.460300,-2.768902
0.460400,-2.766630
0.460500,-2.715021
0.460600,-2.625436
0.460700,-2.558247
0.460800,-2.604987
0.460900,-2.703011
0.461000,-2.752673
0.461100,-2.687756
0.461200,-2.571230
0.461300,-2.490734
0.461400,-2.530008
0.461500,-2.637770
0.461600,-2.720539
0.461700,-2.717942
0.461800,-2.663737
0.461900,-2.620242
0.462000,-2.623813
0.462100,-2.641340
0.462200,-2.656596
0.462300,-2.660166
0.462400,-2.638095
0.462500,-2.616672
0.462600,-2.581617
0.462700,-2.527412
0.462800,-2.453731
0.462900,-2.428089
0.463000,-2.411211
0.463100,-2.419650
0.463200,-2.398227
0.463300,-2.388490
0.463400,-2.298905
0.463500,-2.270666
0.463600,-2.251516
0.463700,-2.249568
0.463800,-2.209969
0.463900,-2.184976
0.464000,-2.159983
0.464100,-2.116164
0.464200,-2.085329
0.464300,-2.089873
0.464400,-2.087277
0.464500,-2.121033
0.464600,-2.114542
0.464700,-2.123954
0.464800,-2.167449
0.464900,-2.138885
0.465000,-2.153492
0.465100,-2.155114
0.465200,-2.170045
0.465300,-2.156088
0.465400,-2.167773
0.465500,-2.169072
0.465600,-2.173616
0.465700,-2.032747
0.465800,-1.945758
0.465900,-1.811057
0.466000,-1.875973
0.466100,-2.013921
0.466200,-1.992174
0.466300,-1.986656
0.466400,-1.844164
0.466500,-1.727639
0.466600,-1.726016
0.466700,-1.793854
0.466800,-1.842216
0.466900,-1.804240
0.467000,-1.722445
0.467100,-1.644546
0.467200,-1.617281
0.467300,-1.629290
0.467400,-1.668565
0.467500,-1.659476
0.467600,-1.649090
0.467700,-1.636431
0.467800,-1.619553
0.467900,-1.636106
0.468000,-1.663371
0.468100,-1.664345
0.468200,-1.662398
0.468300,-1.774054
0.468400,-1.759772
0.468500,-1.807811
0.468600,-1.753281
0.468700,-1.770159
0.468800,-1.757500
0.468900,-1.919792
0.469000,-1.979840
0.469100,-2.031773
0.469200,-1.956145
0.469300,-1.850656
0.469400,-1.907458
0.469500,-1.966856
0.469600,-2.106102
0.469700,-2.109673
0.469800,-2.065205
0.469900,-1.990226
0.470000,-1.991525
0.470100,-2.051897
0.470200,-2.122981
0.470300,-2.119410
0.470400,-2.152518
0.470500,-2.139534
0.470600,-2.168747
0.470700,-2.156737
0.470800,-2.173616
0.470900,-2.184976
0.471000,-2.195038
0.471100,-2.234962
0.471200,-2.277482
0.471300,-2.289492
0.471400,-2.301501
0.471500,-2.298580
0.471600,-2.301826
0.471700,-2.352786
0.471800,-2.416729
0.471900,-2.441397
0.472000,-2.412184
0.472100,-2.431659
0.472200,-2.456003
0.472300,-2.445941
0.472400,-2.388814
0.472500,-2.367716
0.472600,-2.374208
0.472700,-2.359926
0.472800,-2.327793
0.472900,-2.323573
0.473000,-2.305072
0.473100,-2.291115
0.473200,-2.251840
0.473300,-2.216136
0.473400,-2.197959
0.473500,-2.149597
0.473600,-2.103506
0.473700,-2.060661
0.473800,-2.037291
0.473900,-2.018140
0.474000,-1.985682
0.474100,-2.056766
0.474200,-2.136613
0.474300,-2.101883
0.474400,-1.954522
0.474500,-1.851629
0.474600,-1.808135
0.474700,-1.949978
0.474800,-2.065530
0.474900,-2.048327
0.475000,-1.952899
0.475100,-1.822417
0.475200,-1.824689
0.475300,-1.852279
0.475400,-1.932775
0.475500,-1.943486
0.475600,-1.924011
0.475700,-1.869157
0.475800,-1.845462
0.475900,-1.871754
0.476000,-1.873701
0.476100,-1.885061
0.476200,-1.896097
0.476300,-1.880517
0.476400,-1.915572
0.476500,-1.933100
0.476600,-1.941539
0.476700,-1.950627
0.476800,-1.943811
0.476900,-1.968804
0.477000,-1.996069
0.477100,-1.997692
0.477200,-1.923687
0.477300,-1.862016
0.477400,-1.901615
0.477500,-1.975295
0.477600,-2.088575
0.477700,-2.117787
0.477800,-2.022360
0.477900,-1.944785
0.478000,-1.942837
0.478100,-2.043133
0.478200,-2.128823
0.478300,-2.199907
0.478400,-2.181730
0.478500,-2.126227
0.478600,-2.064556
0.478700,-2.071372
0.478800,-2.077864
0.478900,-2.092145
0.479000,-2.072021
0.479100,-2.052222
0.479200,-1.986656
0.479300,-1.943811
0.479400,-1.887983
0.479500,-1.814627
0.479600,-1.758474
0.479700,-1.741271
0.479800,-1.739324
0.479900,-1.739648
0.480000,-1.697128
0.480100,-1.616632
0.480200,-1.593586
0.480300,-1.580603
0.480400,-1.586445
0.480500,-1.536135
0.480600,-1.510168
0.480700,-1.458235
0.480800,-1.436488
0.480900,-1.419935
0.481000,-1.403381
0.481100,-1.437462
0.481200,-1.478359
0.481300,-1.481281
0.481400,-1.542302
0.481500,-1.536135
0.481600,-1.569567
0.481700,-1.543600
0.481800,-1.576059
0.481900,-1.591314
0.482000,-1.620851
0.482100,-1.646493
0.482200,-1.664994
0.482300,-1.629290
0.482400,-1.538732
0.482500,-1.388450
0.482600,-1.359887
0.482700,-1.461481
0.482800,-1.596832
0.482900,-1.606894
0.483000,-1.517958
0.483100,-1.381634
0.483200,-1.277118
0.483300,-1.316068
0.483400,-1.394617
0.483500,-1.437787
0.483600,-1.371896
0.483700,-1.286856
0.483800,-1.222264
0.483900,-1.254073
0.484000,-1.281662
0.484100,-1.330674
0.484200,-1.341386
0.484300,-1.318340
0.484400,-1.329376
0.484500,-1.358588
0.484600,-1.385204
0.484700,-1.415390
0.484800,-1.395266
0.484900,-1.465051
0.485000,-1.550741
0.485100,-1.586121
0.485200,-1.609491
0.485300,-1.566970
0.485400,-1.582550
0.485500,-1.620527
0.485600,-1.817873
0.485700,-1.904212
0.485800,-1.916871
0.485900,-1.828909
0.486000,-1.751658
0.486100,-1.818847
0.486200,-1.982112
0.486300,-2.085654
0.486400,-2.093119
0.486500,-1.989253
0.486600,-1.931152
0.486700,-1.943162
0.486800,-2.032097
0.486900,-2.104155
0.487000,-2.083706
0.487100,-2.088575
0.487200,-2.033720
0.487300,-2.056766
0.487400,-2.050923
0.487500,-2.048651
0.487600,-2.048327
0.487700,-2.039238
0.487800,-2.065205
0.487900,-2.080785
0.488000,-2.083057
0.488100,-2.072021
0.488200,-2.048327
0.488300,-2.061310
0.488400,-2.139210
0.488500,-2.161282
0.488600,-2.177186
0.488700,-2.149921
0.488800,-2.168422
0.488900,-2.188871
0.489000,-2.153492
0.489100,-2.118112
0.489200,-2.100584
0.489300,-2.096365
0.489400,-2.107725
0.489500,-2.104804
0.489600,-2.108699
0.489700,-2.113892
0.489800,-2.111945
0.489900,-2.137587
0.490000,-2.122332
0.490100,-2.157387
0.490200,-2.148623
0.490300,-2.170045
0.490400,-2.196986
0.490500,-2.204127
0.490600,-2.272614
0.490700,-2.316757
0.490800,-2.492357
0.490900,-2.598171
0.491000,-2.575450
0.491100,-2.454380
0.491200,-2.386542
0.491300,-2.479698
0.491400,-2.688405
0.491500,-2.784482
0.491600,-2.809799
0.491700,-2.729627
0.491800,-2.660815
0.491900,-2.715021
0.492000,-2.823107
0.492100,-2.932817
0.492200,-2.940931
0.492300,-2.931194
0.492400,-2.895490
0.492500,-2.878287
0.492600,-2.898086
0.492700,-2.937036
0.492800,-2.950669
0.492900,-2.962354
0.493000,-2.943528
0.493100,-2.942230
0.493200,-2.967872
0.493300,-2.984750
0.493400,-2.989944
0.493500,-2.972741
0.493600,-2.977934
0.493700,-2.980855
0.493800,-2.938984
0.493900,-2.863031
0.494000,-2.789351
0.494100,-2.825055
0.494200,-2.906525
0.494300,-3.007146
0.494400,-2.978908
0.494500,-2.863356
0.494600,-2.767603
0.494700,-2.753646
0.494800,-2.846153
0.494900,-2.964951
0.495000,-3.002278
0.495100,-2.949371
0.495200,-2.853294
0.495300,-2.800711
0.495400,-2.790974
0.495500,-2.796167
0.495600,-2.808501
0.495700,-2.770849
0.495800,-2.714696
0.495900,-2.648806
0.496000,-2.578371
0.496100,-2.504691
0.496200,-2.437177
0.496300,-2.380375
0.496400,-2.365444
0.496500,-2.332012
0.496600,-2.328766
0.496700,-2.231716
0.496800,-2.162255
0.496900,-2.157711
0.497000,-2.154141
0.497100,-2.123630
0.497200,-2.098962
0.497300,-2.072670
0.497400,-2.036966
0.497500,-1.991200
0.497600,-1.974971
0.497700,-1.982761
0.497800,-2.006780
0.497900,-2.045405
0.498000,-2.060336
0.498100,-2.116164
0.498200,-2.112919
0.498300,-2.144728
0.498400,-2.134666
0.498500,-2.176537
0.498600,-2.168747
0.498700,-2.266446
0.498800,-2.232690
0.498900,-2.325521
0.499000,-2.176862
0.499100,-2.149921
0.499200,-1.889606
0.499300,-1.993148
0.499400,-2.112594
0.499500,-2.168422
0.499600,-2.194714
0.499700,-2.040212
0.499800,-1.887333
0.499900,-1.825663
0.500000,-1.873376
0.500100,-1.957119
0.500200,-1.951601
0.500300,-1.850006
0.500400,-1.745491
0.500500,-1.698751
0.500600,-1.705567
0.500700,-1.730885
0.500800,-1.751658
0.500900,-1.753605
0.501000,-1.730560
0.501100,-1.710436
0.501200,-1.702970
0.501300,-1.692259
0.501400,-1.707515
0.501500,-1.702321
0.501600,-1.763343
0.501700,-1.753930
0.501800,-1.750035
0.501900,-1.719200
0.502000,-1.653634
0.502100,-1.640651
0.502200,-1.665968
0.502300,-1.774054
0.502400,-1.811057
0.502500,-1.746140
0.502600,-1.638703
0.502700,-1.596183
0.502800,-1.656231
0.502900,-1.776975
0.503000,-1.800021
0.503100,-1.751982
0.503200,-1.638703
0.503300,-1.588068
0.503400,-1.613386
0.503500,-1.677328
0.503600,-1.676355
0.503700,-1.687066
0.503800,-1.638703
0.503900,-1.629939
0.504000,-1.611763
0.504100,-1.586121
0.504200,-1.559180
0.504300,-1.550417
0.504400,-1.534512
0.504500,-1.557557
0.504600,-1.559180
0.504700,-1.532565
0.504800,-1.496861
0.504900,-1.490694
0.505000,-1.510818
0.505100,-1.584173
0.505200,-1.599429
0.505300,-1.614035
0.505400,-1.607868
0.505500,-1.634484
0.505600,-1.681223
0.505700,-1.658827
0.505800,-1.692584
0.505900,-1.727963
0.506000,-1.756202
0.506100,-1.768536
0.506200,-1.818522
0.506300,-1.825663
0.506400,-1.862990
0.506500,-1.886035
0.506600,-1.909730
0.506700,-1.958417
0.506800,-1.965233
0.506900,-1.998016
0.507000,-2.038265
0.507100,-2.056117
0.507200,-2.101883
0.507300,-2.118437
0.507400,-2.252814
0.507500,-2.406342
0.507600,-2.498848
0.507700,-2.422246
0.507800,-2.290790
0.507900,-2.313511
0.508000,-2.415755
0.508100,-2.611803
0.508200,-2.695546
0.508300,-2.650104
0.508400,-2.568309
0.508500,-2.520920
0.508600,-2.554677
0.508700,-2.638095
0.508800,-2.681264
0.508900,-2.677369
0.509000,-2.606935
0.509100,-2.596223
0.509200,-2.576099
0.509300,-2.541044
0.509400,-2.534877
0.509500,-2.517349
0.509600,-2.522543
0.509700,-2.528385
0.509800,-2.503392
0.509900,-2.497225
0.510000,-2.461521
0.510100,-2.468986
0.510200,-2.453731
0.510300,-2.460872
0.510400,-2.458600
0.510500,-2.428414
0.510600,-2.343697
0.510700,-2.303124
0.510800,-2.374208
0.510900,-2.489435
0.511000,-2.533903
0.511100,-2.481970
0.511200,-2.369664
0.511300,-2.321626
0.511400,-2.381349
0.511500,-2.479698
0.511600,-2.563765
0.511700,-2.522543
0.511800,-2.440748
0.511900,-2.368690
0.512000,-2.373559
0.512100,-2.373234
0.512200,-2.367392
0.512300,-2.345645
0.512400,-2.310914
0.512500,-2.272614
0.512600,-2.222628
0.512700,-2.134990
0.512800,-2.052222
0.512900,-1.986007
0.513000,-1.947057
0.513100,-1.927582
0.513200,-1.923038
0.513300,-1.882789
0.513400,-1.790932
0.513500,-1.748087
0.513600,-1.723095
0.513700,-1.719849
0.513800,-1.669214
0.513900,-1.626044
0.514000,-1.588717
0.514100,-1.547171
0.514200,-1.505624
0.514300,-1.488746
0.514400,-1.503352
0.514500,-1.537758
0.514600,-1.562102
0.514700,-1.597481
0.514800,-1.610789
0.514900,-1.625395
0.515000,-1.627992
0.515100,-1.632211
0.515200,-1.658178
0.515300,-1.655906
0.515400,-1.705243
0.515500,-1.726990
0.515600,-1.709787
0.515700,-1.648765
0.515800,-1.503352
0.515900,-1.451744
0.516000,-1.523801
0.516100,-1.712059
0.516200,-1.658503
0.516300,-1.692584
0.516400,-1.556259
0.516500,-1.460183
0.516600,-1.473815
0.516700,-1.568918
0.516800,-1.623123
0.516900,-1.581252
0.517000,-1.499457
0.517100,-1.421882
0.517200,-1.392994
0.517300,-1.413443
0.517400,-1.441357
0.517500,-1.458235
0.517600,-1.442980
0.517700,-1.411171
0.517800,-1.415715
0.517900,-1.422207
0.518000,-1.426426
0.518100,-1.456288
0.518200,-1.459209
0.518300,-1.470245
0.518400,-1.493615
0.518500,-1.495238
0.518600,-1.447849
0.518700,-1.421233
0.518800,-1.383906
0.518900,-1.514063
0.519000,-1.573462
0.519100,-1.560803
0.519200,-1.455963
0.519300,-1.317367
0.519400,-1.307629
0.519500,-1.380660
0.519600,-1.478035
0.519700,-1.467973
0.519800,-1.378388
0.519900,-1.274522
0.520000,-1.253748
0.520100,-1.314445
0.520200,-1.395591
0.520300,-1.399486
0.520400,-1.435190
0.520500,-1.408250
0.520600,-1.450445
0.520700,-1.457586
0.520800,-1.487448
0.520900,-1.520880
0.521000,-1.559180
0.521100,-1.608517
0.521200,-1.665643
0.521300,-1.692584
0.521400,-1.731858
0.521500,-1.736727
0.521600,-1.781844
0.521700,-1.862665
0.521800,-1.942513
0.521900,-1.976918
0.522000,-2.020412
0.522100,-2.048976
0.522200,-2.119086
0.522300,-2.131420
0.522400,-2.101883
0.522500,-2.108374
0.522600,-2.124279
0.522700,-2.126876
0.522800,-2.135639
0.522900,-2.147649
0.523000,-2.145052
0.523100,-2.173291
0.523200,-2.182379
0.523300,-2.203477
0.523400,-2.208022
0.523500,-2.226198
0.523600,-2.262551
0.523700,-2.299554
0.523800,-2.349540
0.523900,-2.381674
0.524000,-2.419974
0.524100,-2.561493
0.524200,-2.669579
0.524300,-2.669579
0.524400,-2.545588
0.524500,-2.448538
0.524600,-2.497550
0.524700,-2.650104
0.524800,-2.728329
0.524900,-2.754296
0.525000,-2.652376
0.525100,-2.555975
0.525200,-2.515727
0.525300,-2.538447
0.525400,-2.568958
0.525500,-2.591030
0.525600,-2.554027
0.525700,-2.495278
0.525800,-2.439125
0.525900,-2.425492
0.526000,-2.424194
0.526100,-2.403745
0.526200,-2.402771
0.526300,-2.399201
0.526400,-2.414781
0.526500,-2.429063
0.526600,-2.438800
0.526700,-2.420624
0.526800,-2.427764
0.526900,-2.467364
0.527000,-2.494953
0.527100,-2.508586
0.527200,-2.409912
0.527300,-2.345969
0.527400,-2.371287
0.527500,-2.469960
0.527600,-2.552729
0.527700,-2.550457
0.527800,-2.468986
0.527900,-2.366094
0.528000,-2.361225
0.528100,-2.464118
0.528200,-2.547211
0.528300,-2.590705
0.528400,-2.550457
0.528500,-2.492357
0.528600,-2.468013
0.528700,-2.475478
0.528800,-2.479049
0.528900,-2.503392
0.529000,-2.474180
0.529100,-2.472881
0.529200,-2.422896
0.529300,-2.357330
0.529400,-2.280079
0.529500,-2.225549
0.529600,-2.189845
0.529700,-2.183353
0.529800,-2.165177
0.529900,-2.188547
0.530000,-2.143105
0.530100,-2.077539
0.530200,-2.074293
0.530300,-2.068451
0.530400,-2.067477
0.530500,-2.018465
0.530600,-2.006780
0.530700,-1.951925
0.530800,-1.905510
0.530900,-1.891553
0.531000,-1.888956
0.531100,-1.916221
0.531200,-1.952575
0.531300,-1.958093
0.531400,-1.984384
0.531500,-2.000938
0.531600,-1.995744
0.531700,-2.012622
0.531800,-2.020412
0.531900,-2.022035
0.532000,-2.018790
0.532100,-2.077539
0.532200,-2.131420
0.532300,-2.085654
0.532400,-1.974971
0.532500,-1.899343
0.532600,-1.861367
0.532700,-1.995420
0.532800,-2.123954
0.532900,-2.149597
0.533000,-2.089873
0.533100,-1.962312
0.533200,-1.903887
0.533300,-1.926283
0.533400,-1.998016
0.533500,-2.007429
0.533600,-1.943811
0.533700,-1.851954
0.533800,-1.765615
0.533900,-1.773730
0.534000,-1.790283
0.534100,-1.812355
0.534200,-1.786064
0.534300,-1.785090
0.534400,-1.731209
0.534500,-1.726340
0.534600,-1.714006
0.534700,-1.719849
0.534800,-1.713357
0.534900,-1.751009
0.535000,-1.778923
0.535100,-1.864937
0.535200,-1.823066
0.535300,-1.803916
0.535400,-1.792880
0.535500,-1.820145
0.535600,-1.991200
0.535700,-2.009377
0.535800,-2.016842
0.535900,-1.865262
0.536000,-1.905510
0.536100,-1.867534
0.536200,-2.061310
0.536300,-2.063257
0.536400,-2.066828
0.536500,-1.949329
0.536600,-1.880842
0.536700,-1.896097
0.536800,-1.941214
0.536900,-1.955820
0.537000,-1.919143
0.537100,-1.909081
0.537200,-1.871754
0.537300,-1.879219
0.537400,-1.846761
0.537500,-1.822417
0.537600,-1.820469
0.537700,-1.822742
0.537800,-1.838971
0.537900,-1.852603
0.538000,-1.842216
0.538100,-1.839295
0.538200,-1.811057
0.538300,-1.814952
0.538400,-1.872403
0.538500,-1.896746
0.538600,-1.913625
0.538700,-1.898694
0.538800,-1.882789
0.538900,-1.900641
0.539000,-1.857796
0.539100,-1.850980
0.539200,-1.850331
0.539300,-1.861367
0.539400,-1.842216
0.539500,-1.861042
0.539600,-1.862665
0.539700,-1.887333
0.539800,-1.882789
0.539900,-1.899018
0.540000,-1.914923
0.540100,-1.956470
0.540200,-1.986980
0.540300,-2.018465
0.540400,-2.050923
0.540500,-2.080785
0.540600,-2.115840
0.540700,-2.226523
0.540800,-2.391736
0.540900,-2.440748
0.541000,-2.406342
0.541100,-2.286246
0.541200,-2.265148
0.541300,-2.326819
0.541400,-2.506314
0.541500,-2.568958
0.541600,-2.560519
0.541700,-2.467039
0.541800,-2.427764
0.541900,-2.419974
0.542000,-2.503068
0.542100,-2.550782
0.542200,-2.566362
0.542300,-2.538447
0.542400,-2.505989
0.542500,-2.497550
0.542600,-2.490734
0.542700,-2.496576
0.542800,-2.502419
0.542900,-2.475803
0.543000,-2.443344
0.543100,-2.456003
0.543200,-2.470934
0.543300,-2.447239
0.543400,-2.421273
0.543500,-2.399526
0.543600,-2.424194
0.543700,-2.425492
0.543800,-2.378428
0.543900,-2.263850
0.544000,-2.236585
0.544100,-2.272289
0.544200,-2.384919
0.544300,-2.427764
0.544400,-2.346943
0.544500,-2.272614
0.544600,-2.209644
0.544700,-2.216136
0.544800,-2.294685
0.544900,-2.375831
0.545000,-2.387516
0.545100,-2.328117
0.545200,-2.263525
0.545300,-2.229769
0.545400,-2.229119
0.545500,-2.244375
0.545600,-2.259955
0.545700,-2.245673
0.545800,-2.224900
0.545900,-2.169721
0.546000,-2.137262
0.546100,-2.075916
0.546200,-2.034045
0.546300,-1.982112
0.546400,-1.973673
0.546500,-1.969128
0.546600,-1.977568
0.546700,-1.891878
0.546800,-1.860718
0.546900,-1.831830
0.547000,-1.839295
0.547100,-1.820469
0.547200,-1.804889
0.547300,-1.790932
0.547400,-1.731209
0.547500,-1.692259
0.547600,-1.687715
0.547700,-1.690636
0.547800,-1.704918
0.547900,-1.727639
0.548000,-1.724718
0.548100,-1.752956
0.548200,-1.722121
0.548300,-1.755228
0.548400,-1.749386
0.548500,-1.750360
0.548600,-1.779572
0.548700,-1.774054
0.548800,-1.854551
0.548900,-1.774703
0.549000,-1.812355
0.549100,-1.603324
0.549200,-1.559180
0.549300,-1.588393
0.549400,-1.755553
0.549500,-1.809109
0.549600,-1.826961
0.549700,-1.753281
0.549800,-1.639677
0.549900,-1.594235
0.550000,-1.652660
0.550100,-1.733157
0.550200,-1.721796
0.550300,-1.657529
0.550400,-1.579954
0.550500,-1.521204
0.550600,-1.538732
0.550700,-1.573137
0.550800,-1.588393
0.550900,-1.597806
0.551000,-1.574760
0.551100,-1.565023
0.551200,-1.573787
0.551300,-1.601052
0.551400,-1.586445
0.551500,-1.599753
0.551600,-1.583200
0.551700,-1.671486
0.551800,-1.656555
0.551900,-1.612412
0.552000,-1.574111
0.552100,-1.552364
0.552200,-1.631238
0.552300,-1.681548
0.552400,-1.699400
0.552500,-1.623123
0.552600,-1.485825
0.552700,-1.508546
0.552800,-1.573137
0.552900,-1.645844
0.553000,-1.641949
0.553100,-1.600727
0.553200,-1.484851
0.553300,-1.441682
0.553400,-1.429347
0.553500,-1.469596
0.553600,-1.483553
0.553700,-1.475438
0.553800,-1.460507
0.553900,-1.424154
0.554000,-1.391696
0.554100,-1.390073
0.554200,-1.386178
0.554300,-1.390398
0.554400,-1.410522
0.554500,-1.436488
0.554600,-1.482254
0.554700,-1.502703
0.554800,-1.520880
0.554900,-1.550092
0.555000,-1.603324
0.555100,-1.703944
0.555200,-1.738350
0.555300,-1.774054
0.555400,-1.808135
0.555500,-1.851629
0.555600,-1.885711
0.555700,-1.836699
0.555800,-1.871104
0.555900,-1.856174
0.556000,-1.870780
0.556100,-1.874999
0.556200,-1.883114
0.556300,-1.885711
0.556400,-1.886035
0.556500,-1.898045
0.556600,-1.901291
0.556700,-1.912326
0.556800,-1.924661
0.556900,-1.906808
0.557000,-1.940565
0.557100,-1.948355
0.557200,-1.987954
0.557300,-2.008403
0.557400,-2.128823
0.557500,-2.254437
0.557600,-2.312537
0.557700,-2.241129
0.557800,-2.173616
0.557900,-2.185301
0.558000,-2.292738
0.558100,-2.477426
0.558200,-2.524166
0.558300,-2.479049
0.558400,-2.417053
0.558500,-2.370313
0.558600,-2.431659
0.558700,-2.501445
0.558800,-2.563116
0.558900,-2.527736
0.559000,-2.493655
0.559100,-2.448213
0.559200,-2.407640
0.559300,-2.413483
0.559400,-2.411860
0.559500,-2.392709
0.559600,-2.378103
0.559700,-2.364795
0.559800,-2.385569
0.559900,-2.406342
0.560000,-2.361874
0.560100,-2.370638
0.560200,-2.373559
0.560300,-2.406342
0.560400,-2.384919
0.560500,-2.305396
0.560600,-2.218733
0.560700,-2.199258
0.560800,-2.265148
0.560900,-2.358304
0.561000,-2.346943
0.561100,-2.272614
0.561200,-2.180432
0.561300,-2.138561
0.561400,-2.158036
0.561500,-2.233339
0.561600,-2.270666
0.561700,-2.258007
0.561800,-2.193740
0.561900,-2.093768
0.562000,-2.038914
0.562100,-2.050923
0.562200,-2.056117
0.562300,-2.039238
0.562400,-2.012622
0.562500,-1.959066
0.562600,-1.896097
0.562700,-1.842541
0.562800,-1.789634
0.562900,-1.721147
0.563000,-1.709138
0.563100,-1.710760
0.563200,-1.728937
0.563300,-1.729911
0.563400,-1.660450
0.563500,-1.632211
0.563600,-1.637405
0.563700,-1.651686
0.563800,-1.631562
0.563900,-1.628966
0.564000,-1.602350
0.564100,-1.611763
0.564200,-1.565997
0.564300,-1.608517
0.564400,-1.622474
0.564500,-1.685118
0.564600,-1.734780
0.564700,-1.763343
0.564800,-1.802942
0.564900,-1.800670
0.565000,-1.810083
0.565100,-1.849682
0.565200,-1.824040
0.565300,-1.899343
0.565400,-1.862990
0.565500,-1.911677
0.565600,-1.851954
0.565700,-1.801319
0.565800,-1.663371
0.565900,-1.579629
0.566000,-1.736727
0.566100,-1.817548
0.566200,-1.896422
0.566300,-1.802293
0.566400,-1.713682
0.566500,-1.638703
0.566600,-1.675056
0.566700,-1.756851
0.566800,-1.829558
0.566900,-1.792231
0.567000,-1.718875
0.567100,-1.687715
0.567200,-1.674407
0.567300,-1.678302
0.567400,-1.721796
0.567500,-1.762694
0.567600,-1.768861
0.567700,-1.745491
0.567800,-1.758799
0.567900,-1.763343
0.568000,-1.761720
0.568100,-1.759123
0.568200,-1.764641
0.568300,-1.853577
0.568400,-1.850331
0.568500,-1.868508
0.568600,-1.782169
0.568700,-1.766913
0.568800,-1.765940
0.568900,-1.906484
0.569000,-1.965233
0.569100,-1.948355
0.569200,-1.816899
0.569300,-1.731858
0.569400,-1.763343
0.569500,-1.827610
0.569600,-1.898694
0.569700,-1.876947
0.569800,-1.777625
0.569900,-1.697128
0.570000,-1.642923
0.570100,-1.682522
0.570200,-1.696479
0.570300,-1.699725
0.570400,-1.704269
0.570500,-1.672784
0.570600,-1.664670
0.570700,-1.636106
0.570800,-1.620851
0.570900,-1.588393
0.571000,-1.583524
0.571100,-1.619228
0.571200,-1.620527
0.571300,-1.620851
0.571400,-1.602350
0.571500,-1.591963
0.571600,-1.593586
0.571700,-1.664345
0.571800,-1.705567
0.571900,-1.719200
0.572000,-1.726340
0.572100,-1.732832
0.572200,-1.774379
0.572300,-1.779897
0.572400,-1.744192
0.572500,-1.776651
0.572600,-1.792231
0.572700,-1.785415
0.572800,-1.810407
0.572900,-1.812355
0.573000,-1.845787
0.573100,-1.859095
0.573200,-1.877271
0.573300,-1.903238
0.573400,-1.898694
0.573500,-1.925310
0.573600,-1.916871
0.573700,-1.951925
0.573800,-1.985358
0.573900,-1.981463
0.574000,-2.056766
0.574100,-2.173616
0.574200,-2.285597
0.574300,-2.222628
0.574400,-2.147000
0.574500,-2.025606
0.574600,-2.081434
0.574700,-2.232041
0.574800,-2.313511
0.574900,-2.342399
0.575000,-2.238208
0.575100,-2.187897
0.575200,-2.174265
0.575300,-2.248270
0.575400,-2.316432
0.575500,-2.311888
0.575600,-2.306695
0.575700,-2.241454
0.575800,-2.214838
0.575900,-2.211592
0.576000,-2.243401
0.576100,-2.265797
0.576200,-2.260604
0.576300,-2.253463
0.576400,-2.242427
0.576500,-2.276509
0.576600,-2.255086
0.576700,-2.250217
0.576800,-2.246647
0.576900,-2.280404
0.577000,-2.267745
0.577100,-2.259630
0.577200,-2.166475
0.577300,-2.108374
0.577400,-2.139859
0.577500,-2.226847
0.577600,-2.323573
0.577700,-2.275210
0.577800,-2.213864
0.577900,-2.137912
0.578000,-2.128499
0.578100,-2.208995
0.578200,-2.301826
0.578300,-2.368690
0.578400,-2.331363
0.578500,-2.274236
0.578600,-2.229119
0.578700,-2.216136
0.578800,-2.230093
0.578900,-2.228470
0.579000,-2.222303
0.579100,-2.196337
0.579200,-2.156413
0.579300,-2.122332
0.579400,-2.035992
0.579500,-1.954522
0.579600,-1.908756
0.579700,-1.902913
0.579800,-1.892202
0.579900,-1.905835
0.580000,-1.843515
0.580100,-1.805539
0.580200,-1.774703
0.580300,-1.762694
0.580400,-1.753930
0.580500,-1.723744
0.580600,-1.682197
0.580700,-1.653309
0.580800,-1.596183
0.580900,-1.588393
0.581000,-1.570216
0.581100,-1.600078
0.581200,-1.592612
0.581300,-1.651686
0.581400,-1.648116
0.581500,-1.665319
0.581600,-1.658827
0.581700,-1.673109
0.581800,-1.665643
0.581900,-1.679925
0.582000,-1.726665
0.582100,-1.718550
0.582200,-1.760746
0.582300,-1.704593
0.582400,-1.673109
0.582500,-1.495238
0.582600,-1.550741
0.582700,-1.654608
0.582800,-1.816899
0.582900,-1.805539
0.583000,-1.755228
0.583100,-1.638054
0.583200,-1.580603
0.583300,-1.654283
0.583400,-1.753605
0.583500,-1.791582
0.583600,-1.736403
0.583700,-1.650388
0.583800,-1.609491
0.583900,-1.607543
0.584000,-1.621825
0.584100,-1.666942
0.584200,-1.674407
0.584300,-1.678951
0.584400,-1.651686
0.584500,-1.655581
0.584600,-1.676679
0.584700,-1.700698
0.584800,-1.695830
0.584900,-1.799047
0.585000,-1.771782
0.585100,-1.863964
0.585200,-1.819496
0.585300,-1.843190
0.585400,-1.782169
0.585500,-1.867534
0.585600,-2.015544
0.585700,-2.033396
0.585800,-2.001262
0.585900,-1.872403
0.586000,-1.863639
0.586100,-1.900317
0.586200,-1.999315
0.586300,-2.074942
0.586400,-2.057090
0.586500,-1.942837
0.586600,-1.897720
0.586700,-1.898694
0.586800,-1.970751
0.586900,-2.007429
0.587000,-2.000613
0.587100,-1.987954
0.587200,-1.971725
0.587300,-1.988928
0.587400,-1.942188
0.587500,-1.903238
0.587600,-1.897720
0.587700,-1.879868
0.587800,-1.913949
0.587900,-1.919792
0.588000,-1.905835
0.588100,-1.888632
0.588200,-1.876622
0.588300,-1.892527
0.588400,-1.972374
0.588500,-1.991200
0.588600,-2.014570
0.588700,-2.003534
0.588800,-2.035343
0.588900,-2.058389
0.589000,-2.008403
0.589100,-2.003210
0.589200,-1.982761
0.589300,-1.982436
0.589400,-1.983410
0.589500,-1.989577
0.589600,-1.970751
0.589700,-1.986331
0.589800,-1.958417
0.589900,-1.961988
0.590000,-1.983735
0.590100,-1.971076
0.590200,-1.969778
0.590300,-1.966207
0.590400,-1.980164
0.590500,-1.972050
0.590600,-1.990875
0.590700,-2.031773
0.590800,-2.166150
0.590900,-2.208995
0.591000,-2.135639
0.591100,-2.029825
0.591200,-1.989577
0.591300,-2.078513
0.591400,-2.235286
0.591500,-2.304747
0.591600,-2.273263
0.591700,-2.207048
0.591800,-2.138885
0.591900,-2.182055
0.592000,-2.218733
0.592100,-2.292738
0.592200,-2.308967
0.592300,-2.287220
0.592400,-2.262876
0.592500,-2.230742
0.592600,-2.248594
0.592700,-2.241129
0.592800,-2.264174
0.592900,-2.236260
0.593000,-2.247296
0.593100,-2.283000
0.593200,-2.329740
0.593300,-2.275535
0.593400,-2.283325
0.593500,-2.305396
0.593600,-2.333311
0.593700,-2.344022
0.593800,-2.299229
0.593900,-2.223601
0.594000,-2.163878
0.594100,-2.207048
0.594200,-2.316108
0.594300,-2.373884
0.594400,-2.341101
0.594500,-2.285921
0.594600,-2.237234
0.594700,-2.281053
0.594800,-2.379401
0.594900,-2.489760
0.595000,-2.525789
0.595100,-2.496901
0.595200,-2.438151
0.595300,-2.425817
0.595400,-2.436204
0.595500,-2.446266
0.595600,-2.431984
0.595700,-2.428738
0.595800,-2.416079
0.595900,-2.377779
0.596000,-2.315134
0.596100,-2.242103
0.596200,-2.183678
0.596300,-2.157062
0.596400,-2.146351
0.596500,-2.151544
0.596600,-2.134017
0.596700,-2.051897
0.596800,-2.014570
0.596900,-1.984708
0.597000,-1.965558
0.597100,-1.914598
0.597200,-1.868508
0.597300,-1.823066
0.597400,-1.767562
0.597500,-1.693882
0.597600,-1.667916
0.597700,-1.632211
0.597800,-1.657529
0.597900,-1.657204
0.598000,-1.654608
0.598100,-1.654283
0.598200,-1.640326
0.598300,-1.639028
0.598400,-1.631562
0.598500,-1.618254
0.598600,-1.627343
0.598700,-1.660775
0.598800,-1.650064
0.598900,-1.672135
0.599000,-1.589691
0.599100,-1.480956
0.599200,-1.362159
0.599300,-1.417013
0.599400,-1.557882
0.599500,-1.616956
0.599600,-1.551066
0.599700,-1.501729
0.599800,-1.405004
0.599900,-1.392020
0.600000,-1.438436
0.600100,-1.504001
0.600200,-1.488097
0.600300,-1.425777
0.600400,-1.355667
0.600500,-1.302760
0.600600,-1.304059
0.600700,-1.321261
0.600800,-1.353071
0.600900,-1.369624
0.601000,-1.367352
0.601100,-1.345930
0.601200,-1.342035
0.601300,-1.381634
0.601400,-1.405328
0.601500,-1.455314
0.601600,-1.494264
0.601700,-1.552040
0.601800,-1.597157
0.601900,-1.586770
0.602000,-1.576708
0.602100,-1.573462
0.602200,-1.727963
0.602300,-1.811057
0.602400,-1.829233
0.602500,-1.753930
0.602600,-1.657529
0.602700,-1.668889
0.602800,-1.740298
0.602900,-1.862341
0.603000,-1.856823
0.603100,-1.802293
0.603200,-1.709462
0.603300,-1.664021
0.603400,-1.694856
0.603500,-1.746140
0.603600,-1.746465
0.603700,-1.756851
0.603800,-1.722121
0.603900,-1.725042
0.604000,-1.706541
0.604100,-1.698102
0.604200,-1.676679
0.604300,-1.647142
0.604400,-1.652336
0.604500,-1.694856
0.604600,-1.712059
0.604700,-1.701672
0.604800,-1.691610
0.604900,-1.686417
0.605000,-1.718875
0.605100,-1.785415
0.605200,-1.802293
0.605300,-1.821768
0.605400,-1.832154
0.605500,-1.880842
0.605600,-1.882140
0.605700,-1.831505
0.605800,-1.845138
0.605900,-1.824689
0.606000,-1.827610
0.606100,-1.813653
0.606200,-1.815276
0.606300,-1.810732
0.606400,-1.819496
0.606500,-1.823715
0.606600,-1.798722
0.606700,-1.822742
0.606800,-1.810732
0.606900,-1.819171
0.607000,-1.813653
0.607100,-1.845462
0.607200,-1.865911
0.607300,-1.872727
0.607400,-1.987954
0.607500,-2.063907
0.607600,-2.112269
0.607700,-1.992174
0.607800,-1.931477
0.607900,-1.951601
0.608000,-2.089549
0.608100,-2.212241
0.608200,-2.273912
0.608300,-2.234637
0.608400,-2.169072
0.608500,-2.140508
0.608600,-2.209644
0.608700,-2.284299
0.608800,-2.346619
0.608900,-2.315459
0.609000,-2.305721
0.609100,-2.263850
0.609200,-2.276509
0.609300,-2.268069
0.609400,-2.289816
0.609500,-2.291439
0.609600,-2.264174
0.609700,-2.275535
0.609800,-2.302800
0.609900,-2.326170
0.610000,-2.308642
0.610100,-2.311239
0.610200,-2.330065
0.610300,-2.357979
0.610400,-2.346619
0.610500,-2.276184
0.610600,-2.177835
0.610700,-2.171344
0.610800,-2.233988
0.610900,-2.327468
0.611000,-2.310265
0.611100,-2.233014
0.611200,-2.137262
0.611300,-2.078188
0.611400,-2.133367
0.611500,-2.208022
0.611600,-2.256060
0.611700,-2.236585
0.611800,-2.173291
0.611900,-2.108699
0.612000,-2.077539
0.612100,-2.059038
0.612200,-2.074942
0.612300,-2.051897
0.612400,-2.031773
0.612500,-1.980813
0.612600,-1.923687
0.612700,-1.851305
0.612800,-1.803916
0.612900,-1.762369
0.613000,-1.746789
0.613100,-1.721147
0.613200,-1.746140
0.613300,-1.723095
0.613400,-1.645195
0.613500,-1.632211
0.613600,-1.622474
0.613700,-1.619877
0.613800,-1.568593
0.613900,-1.548794
0.614000,-1.506598
0.614100,-1.471543
0.614200,-1.422856
0.614300,-1.413767
0.614400,-1.416364
0.614500,-1.439085
0.614600,-1.445901
0.614700,-1.477710
0.614800,-1.471219
0.614900,-1.499782
0.615000,-1.491018
0.615100,-1.520880
0.615200,-1.501080
0.615300,-1.552689
0.615400,-1.576059
0.615500,-1.642274
0.615600,-1.594235
0.615700,-1.557233
0.615800,-1.400784
0.615900,-1.387476
0.616000,-1.500431
0.616100,-1.612087
0.616200,-1.623123
0.616300,-1.558856
0.616400,-1.461157
0.616500,-1.353395
0.616600,-1.359887
0.616700,-1.419285
0.616800,-1.446550
0.616900,-1.406951
0.617000,-1.318989
0.617100,-1.238168
0.617200,-1.208956
0.617300,-1.230703
0.617400,-1.244335
0.617500,-1.263810
0.617600,-1.262188
0.617700,-1.240441
0.617800,-1.237519
0.617900,-1.235896
0.618000,-1.261538
0.618100,-1.243686
0.618200,-1.295619
0.618300,-1.336517
0.618400,-1.425128
0.618500,-1.377414
0.618600,-1.374493
0.618700,-1.366054
0.618800,-1.384880
0.618900,-1.545223
0.619000,-1.608842
0.619100,-1.610789
0.619200,-1.512116
0.619300,-1.513414
0.619400,-1.548145
0.619500,-1.682197
0.619600,-1.777300
0.619700,-1.785415
0.619800,-1.712383
0.619900,-1.663047
0.620000,-1.670188
0.620100,-1.728937
0.620200,-1.770159
0.620300,-1.769510
0.620400,-1.801968
0.620500,-1.796775
0.620600,-1.812030
0.620700,-1.793204
0.620800,-1.799696
0.620900,-1.785090
0.621000,-1.785739
0.621100,-1.829233
0.621200,-1.882465
0.621300,-1.895773
0.621400,-1.871429
0.621500,-1.874350
0.621600,-1.866236
0.621700,-1.944460
0.621800,-1.985682
0.621900,-1.994121
0.622000,-1.987954
0.622100,-1.983085
0.622200,-2.006455
0.622300,-1.986656
0.622400,-1.937319
0.622500,-1.936346
0.622600,-1.913625
0.622700,-1.892202
0.622800,-1.912326
0.622900,-1.896746
0.623000,-1.924661
0.623100,-1.903238
0.623200,-1.926608
0.623300,-1.933100
0.623400,-1.942188
0.623500,-1.929205
0.623600,-1.921415
0.623700,-1.942188
0.623800,-1.954522
0.623900,-1.961014
0.624000,-2.010026
0.624100,-2.140184
0.624200,-2.242752
0.624300,-2.189520
0.624400,-2.117138
0.624500,-2.035019
0.624600,-2.106102
0.624700,-2.267745
0.624800,-2.342724
0.624900,-2.359277
0.625000,-2.285597
0.625100,-2.254112
0.625200,-2.257683
0.625300,-2.340451
0.625400,-2.388814
0.625500,-2.413158
0.625600,-2.369339
0.625700,-2.371287
0.625800,-2.343048
0.625900,-2.322599
0.626000,-2.305396
0.626100,-2.312537
0.626200,-2.272289
0.626300,-2.272614
0.626400,-2.276833
0.626500,-2.314809
0.626600,-2.280079
0.626700,-2.271315
0.626800,-2.301177
0.626900,-2.308967
0.627000,-2.331363
0.627100,-2.268394
0.627200,-2.176537
0.627300,-2.129797
0.627400,-2.181730
0.627500,-2.297282
0.627600,-2.341101
0.627700,-2.276184
0.627800,-2.202504
0.627900,-2.129472
0.628000,-2.124928
0.628100,-2.173291
0.628200,-2.255735
0.628300,-2.296633
0.628400,-2.265797
0.628500,-2.188222
0.628600,-2.135964
0.628700,-2.115515
0.628800,-2.120059
0.628900,-2.103506
0.629000,-2.094093
0.629100,-2.063582
0.629200,-2.017167
0.629300,-1.948680
0.629400,-1.872727
0.629500,-1.815276
0.629600,-1.761071
0.629700,-1.745815
0.629800,-1.749061
0.629900,-1.754904
0.630000,-1.690961
0.630100,-1.621500
0.630200,-1.590665
0.630300,-1.591314
0.630400,-1.560154
0.630500,-1.536135
0.630600,-1.483228
0.630700,-1.430970
0.630800,-1.395591
0.630900,-1.361510
0.631000,-1.354044
0.631100,-1.347228
0.631200,-1.363133
0.631300,-1.341386
0.631400,-1.378063
0.631500,-1.354693
