0.000100,-2.546237
0.000200,-2.627383
0.000300,-2.752997
0.000400,-2.727355
0.000500,-2.696195
0.000600,-2.703011
0.000700,-2.765331
0.000800,-2.813045
0.000900,-2.829924
0.001000,-2.625436
0.001100,-2.477101
0.001200,-2.561168
0.001300,-2.756568
0.001400,-2.984750
0.001500,-3.025972
0.001600,-2.786105
0.001700,-2.581942
0.001800,-2.564414
0.001900,-2.783508
0.002000,-3.021753
0.002100,-3.170737
0.002200,-3.108092
0.002300,-2.967547
0.002400,-2.919184
0.002500,-2.974039
0.002600,-3.061352
0.002700,-3.067844
0.002800,-3.032789
0.002900,-2.988321
0.003000,-2.915614
0.003100,-2.880883
0.003200,-2.765331
0.003300,-2.589082
0.003400,-2.449836
0.003500,-2.371936
0.003600,-2.348891
0.003700,-2.316108
0.003800,-2.179134
0.003900,-1.961663
0.004000,-1.777949
0.004100,-1.551715
0.004200,-1.530617
0.004300,-1.473166
0.004400,-1.371572
0.004500,-1.233624
0.004600,-1.096651
0.004700,-0.913262
0.004800,-0.839257
0.004900,-0.784727
0.005000,-0.772069
0.005100,-0.740259
0.005200,-0.683782
0.005300,-0.673720
0.005400,-0.589329
0.005500,-0.623085
0.005600,-0.516947
0.005700,-0.591926
0.005800,-0.561090
0.005900,-0.615620
0.006000,-0.587057
0.006100,-0.482217
0.006200,-0.216060
0.006300,0.084178
0.006400,0.000436
0.006500,-0.308241
0.006600,-0.599716
0.006700,-0.488059
0.006800,-0.078113
0.006900,0.009849
0.007000,0.168894
0.007100,-0.104404
0.007200,-0.219630
0.007300,-0.295258
0.007400,-0.120308
0.007500,0.118908
0.007600,0.198431
0.007700,0.193238
0.007800,0.122479
0.007900,0.034842
0.008000,-0.031373
0.008100,0.038088
0.008200,0.051395
0.008300,0.050097
0.008400,0.010174
0.008500,-0.008977
0.008600,-0.138809
0.008700,-0.212489
0.008800,-0.231964
0.008900,-0.365367
0.009000,-0.390360
0.009100,-0.388088
0.009200,-0.340699
0.009300,-0.469883
0.009400,-0.696116
0.009500,-0.867171
0.009600,-0.797061
0.009700,-0.604909
0.009800,-0.408212
0.009900,-0.549405
0.010000,-0.786999
0.010100,-0.997004
0.010200,-0.905147
0.010300,-0.741558
0.010400,-0.585109
0.010500,-0.612699
0.010600,-0.739610
0.010700,-0.819782
0.010800,-0.834713
0.010900,-0.875935
0.011000,-0.804202
0.011100,-0.895410
0.011200,-0.940202
0.011300,-0.960326
0.011400,-0.946369
0.011500,-0.948317
0.011600,-0.983047
0.011700,-1.040173
0.011800,-1.030111
0.011900,-0.997004
0.012000,-0.951562
0.012100,-0.989214
0.012200,-1.148259
0.012300,-1.201815
0.012400,-1.214799
0.012500,-1.234923
0.012600,-1.144689
0.012700,-1.221615
0.012800,-1.239142
0.012900,-1.257319
0.013000,-1.264135
0.013100,-1.289452
0.013200,-1.299514
0.013300,-1.302760
0.013400,-1.349500
0.013500,-1.335868
0.013600,-1.344956
0.013700,-1.367028
0.013800,-1.332946
0.013900,-1.358264
0.014000,-1.323858
0.014100,-1.368001
0.014200,-1.335219
0.014300,-1.413118
0.014400,-1.450770
0.014500,-1.686092
0.014600,-1.997043
0.014700,-2.104479
0.014800,-1.868508
0.014900,-1.614035
0.015000,-1.574436
0.015100,-1.820145
0.015200,-2.196986
0.015300,-2.325521
0.015400,-2.294036
0.015500,-2.089873
0.015600,-1.999315
0.015700,-2.132718
0.015800,-2.319678
0.015900,-2.510858
0.016000,-2.531956
0.016100,-2.503392
0.016200,-2.453406
0.016300,-2.480347
0.016400,-2.524815
0.016500,-2.567011
0.016600,-2.609531
0.016700,-2.620567
0.016800,-2.644911
0.016900,-2.708205
0.017000,-2.737417
0.017100,-2.730601
0.017200,-2.733522
0.017300,-2.763384
0.017400,-2.852644
0.017500,-2.867900
0.017600,-2.816940
0.017700,-2.619593
0.017800,-2.558572
0.017900,-2.655297
0.018000,-2.869198
0.018100,-3.063624
0.018200,-2.992216
0.018300,-2.756568
0.018400,-2.606610
0.018500,-2.636147
0.018600,-2.809799
0.018700,-3.003576
0.018800,-3.073362
0.018900,-2.980206
0.019000,-2.837064
0.019100,-2.771174
0.019200,-2.773446
0.019300,-2.777016
0.019400,-2.808501
0.019500,-2.791298
0.019600,-2.799737
0.019700,-2.731899
0.019800,-2.628357
0.019900,-2.507937
0.020000,-2.340127
0.020100,-2.260279
0.020200,-2.241129
0.020300,-2.193415
0.020400,-2.174914
0.020500,-1.986656
0.020600,-1.849357
0.020700,-1.596183
0.020800,-1.527047
0.020900,-1.536135
0.021000,-1.441357
0.021100,-1.346903
0.021200,-1.231677
0.021300,-1.066464
0.021400,-1.013882
0.021500,-0.915534
0.021600,-0.885997
0.021700,-0.838932
0.021800,-0.826274
0.021900,-0.823352
0.022000,-0.799983
0.022100,-0.729548
0.022200,-0.701634
0.022300,-0.659114
0.022400,-0.688976
0.022500,-0.698388
0.022600,-0.817185
0.022700,-0.663009
0.022800,-0.557195
0.022900,-0.156986
0.023000,-0.106027
0.023100,-0.197559
0.023200,-0.682159
0.023300,-0.716565
0.023400,-0.458522
0.023500,-0.156337
0.023600,0.044255
0.023700,-0.005406
0.023800,-0.225148
0.023900,-0.363420
0.024000,-0.360823
0.024100,-0.204699
0.024200,-0.022285
0.024300,-0.023583
0.024400,-0.061234
0.024500,-0.113817
0.024600,-0.107974
0.024700,-0.167048
0.024800,-0.122256
0.024900,-0.154065
0.025000,-0.184900
0.025100,-0.242676
0.025200,-0.225797
0.025300,-0.350437
0.025400,-0.458522
0.025500,-0.516947
0.025600,-0.563687
0.025700,-0.526360
0.025800,-0.410484
0.025900,-0.436775
0.026000,-0.562713
0.026100,-0.921052
0.026200,-0.894761
0.026300,-0.797386
0.026400,-0.515973
0.026500,-0.513377
0.026600,-0.681510
0.026700,-0.992784
0.026800,-1.022646
0.026900,-0.928192
0.027000,-0.688976
0.027100,-0.631849
0.027200,-0.753567
0.027300,-0.887620
0.027400,-0.884049
0.027500,-0.850293
0.027600,-0.854512
0.027700,-0.860679
0.027800,-0.933386
0.027900,-0.994083
0.028000,-0.978503
0.028100,-0.917157
0.028200,-0.941825
0.028300,-0.997653
0.028400,-1.039524
0.028500,-0.986293
0.028600,-0.938255
0.028700,-0.873987
0.028800,-0.932412
0.028900,-1.069386
0.029000,-1.075553
0.029100,-1.061596
0.029200,-0.997978
0.029300,-0.889892
0.029400,-0.931438
0.029500,-0.876909
0.029600,-0.866846
0.029700,-0.828870
0.029800,-0.789596
0.029900,-0.764279
0.030000,-0.752918
0.030100,-0.735715
0.030200,-0.765901
0.030300,-0.744479
0.030400,-0.795763
0.030500,-0.810045
0.030600,-0.841204
0.030700,-0.859056
0.030800,-0.885997
0.030900,-1.004145
0.031000,-1.057701
0.031100,-1.215772
0.031200,-1.503677
0.031300,-1.863639
0.031400,-1.886360
0.031500,-1.663696
0.031600,-1.501729
0.031700,-1.602674
0.031800,-1.922388
0.031900,-2.297606
0.032000,-2.365769
0.032100,-2.233339
0.032200,-2.022685
0.032300,-2.020412
0.032400,-2.219057
0.032500,-2.443669
0.032600,-2.511182
0.032700,-2.471583
0.032800,-2.384595
0.032900,-2.412834
0.033000,-2.483917
0.033100,-2.551106
0.033200,-2.551755
0.033300,-2.494953
0.033400,-2.472881
0.033500,-2.473855
0.033600,-2.597197
0.033700,-2.618944
0.033800,-2.570581
0.033900,-2.514428
0.034000,-2.545588
0.034100,-2.600118
0.034200,-2.623488
0.034300,-2.470609
0.034400,-2.293387
0.034500,-2.228146
0.034600,-2.407640
0.034700,-2.629331
0.034800,-2.748778
0.034900,-2.565388
0.035000,-2.305072
0.035100,-2.174265
0.035200,-2.306370
0.035300,-2.533254
0.035400,-2.743260
0.035500,-2.711775
0.035600,-2.529034
0.035700,-2.406991
0.035800,-2.404719
0.035900,-2.496252
0.036000,-2.538447
0.036100,-2.534877
0.036200,-2.494304
0.036300,-2.453731
0.036400,-2.430686
0.036500,-2.390437
0.036600,-2.306370
0.036700,-2.195687
0.036800,-2.120384
0.036900,-2.128499
0.037000,-2.144403
0.037100,-2.123954
0.037200,-1.929529
0.037300,-1.815601
0.037400,-1.528020
0.037500,-1.518932
0.037600,-1.498483
0.037700,-1.453691
0.037800,-1.318016
0.037900,-1.204412
0.038000,-1.026865
0.038100,-0.950913
0.038200,-0.915534
0.038300,-0.881453
0.038400,-0.900603
0.038500,-0.787324
0.038600,-0.840231
0.038700,-0.701959
0.038800,-0.676317
0.038900,-0.598093
0.039000,-0.582188
0.039100,-0.568880
0.039200,-0.548107
0.039300,-0.602637
0.039400,-0.466637
0.039500,-0.256957
0.039600,0.086450
0.039700,0.232512
0.039800,-0.083955
0.039900,-0.284871
0.040000,-0.338103
0.040100,-0.008652
0.040200,0.127672
0.040300,0.309113
0.040400,0.160455
0.040500,-0.035917
0.040600,-0.097263
0.040700,-0.019688
0.040800,0.258479
0.040900,0.351633
0.041000,0.408435
0.041100,0.279901
0.041200,0.231214
0.041300,0.181877
0.041400,0.233810
0.041500,0.262698
0.041600,0.262698
0.041700,0.215634
0.041800,0.230889
0.041900,0.126049
0.042000,0.107873
0.042100,-0.059611
0.042200,-0.048576
0.042300,-0.152117
0.042400,-0.074218
0.042500,-0.034943
0.042600,-0.046628
0.042700,-0.275134
0.042800,-0.497472
0.042900,-0.482217
0.043000,-0.339076
0.043100,-0.126151
0.043200,-0.212489
0.043300,-0.415353
0.043400,-0.716890
0.043500,-0.722732
0.043600,-0.591926
0.043700,-0.403993
0.043800,-0.388413
0.043900,-0.536422
0.044000,-0.672422
0.044100,-0.675668
0.044200,-0.705205
0.044300,-0.631849
0.044400,-0.683133
0.044500,-0.725978
0.044600,-0.821405
0.044700,-0.849319
0.044800,-0.815563
0.044900,-0.830493
0.045000,-0.871066
0.045100,-0.882426
0.045200,-0.860030
0.045300,-0.837959
0.045400,-0.853214
0.045500,-1.020374
0.045600,-1.131056
0.045700,-1.153777
0.045800,-1.149882
0.045900,-1.074904
0.046000,-1.117748
0.046100,-1.138522
0.046200,-1.156374
0.046300,-1.146636
0.046400,-1.114503
0.046500,-1.109634
0.046600,-1.096001
0.046700,-1.114503
0.046800,-1.109634
0.046900,-1.097624
0.047000,-1.102818
0.047100,-1.083992
0.047200,-1.101519
0.047300,-1.128460
0.047400,-1.135925
0.047500,-1.192402
0.047600,-1.241739
0.047700,-1.329376
0.047800,-1.449472
0.047900,-1.841892
0.048000,-2.057415
0.048100,-1.935372
0.048200,-1.670837
0.048300,-1.565997
0.048400,-1.748412
0.048500,-2.159983
0.048600,-2.423220
0.048700,-2.418676
0.048800,-2.279430
0.048900,-2.136613
0.049000,-2.229769
0.049100,-2.435554
0.049200,-2.644262
0.049300,-2.712749
0.049400,-2.676071
0.049500,-2.656271
0.049600,-2.693923
0.049700,-2.735145
0.049800,-2.775393
0.049900,-2.772472
0.050000,-2.767603
0.050100,-2.789026
0.050200,-2.831871
0.050300,-2.873742
0.050400,-2.854592
0.050500,-2.767603
0.050600,-2.730601
0.050700,-2.743260
0.050800,-2.750401
0.050900,-2.709828
0.051000,-2.483917
0.051100,-2.314809
0.051200,-2.392709
0.051300,-2.544939
0.051400,-2.752348
0.051500,-2.737417
0.051600,-2.502094
0.051700,-2.262876
0.051800,-2.214513
0.051900,-2.403096
0.052000,-2.646858
0.052100,-2.756892
0.052200,-2.620892
0.052300,-2.444643
0.052400,-2.357979
0.052500,-2.365444
0.052600,-2.426141
0.052700,-2.444967
0.052800,-2.395306
0.052900,-2.376805
0.053000,-2.316757
0.053100,-2.255735
0.053200,-2.161931
0.053300,-2.010026
0.053400,-1.894474
0.053500,-1.834426
0.053600,-1.814627
0.053700,-1.785739
0.053800,-1.656880
0.053900,-1.423505
0.054000,-1.211877
0.054100,-1.028488
0.054200,-1.021672
0.054300,-0.957405
0.054400,-0.852889
0.054500,-0.707152
0.054600,-0.557844
0.054700,-0.430608
0.054800,-0.376728
0.054900,-0.314408
0.055000,-0.368289
0.055100,-0.329014
0.055200,-0.346866
0.055300,-0.312136
0.055400,-0.287792
0.055500,-0.256308
0.055600,-0.252738
0.055700,-0.209568
0.055800,-0.265721
0.055900,-0.256633
0.056000,-0.264747
0.056100,-0.163153
0.056200,0.121830
0.056300,0.346116
0.056400,0.323395
0.056500,-0.052146
0.056600,-0.249816
0.056700,-0.142055
0.056800,0.154937
0.056900,0.373056
0.057000,0.372407
0.057100,0.206870
0.057200,-0.013845
0.057300,0.004980
0.057400,0.125725
0.057500,0.321772
0.057600,0.339624
0.057700,0.313657
0.057800,0.206545
0.057900,0.209791
0.058000,0.214011
0.058100,0.212713
0.058200,0.248092
0.058300,0.239977
0.058400,0.191615
0.058500,0.240951
0.058600,0.126698
0.058700,0.084503
0.058800,0.006279
0.058900,-0.042084
0.059000,-0.062533
0.059100,0.010174
0.059200,0.011147
0.059300,-0.064156
0.059400,-0.433205
0.059500,-0.571152
0.059600,-0.553300
0.059700,-0.262475
0.059800,-0.180356
0.059900,-0.270590
0.060000,-0.588355
0.060100,-0.795763
0.060200,-0.752918
0.060300,-0.518245
0.060400,-0.360174
0.060500,-0.414704
0.060600,-0.594847
0.060700,-0.695792
0.060800,-0.689949
0.060900,-0.694169
0.061000,-0.609128
0.061100,-0.723057
0.061200,-0.794465
0.061300,-0.870417
0.061400,-0.857434
0.061500,-0.853863
0.061600,-0.925920
0.061700,-0.993758
0.061800,-0.997978
0.061900,-0.975906
0.062000,-0.949290
0.062100,-0.978503
0.062200,-1.150207
0.062300,-1.219343
0.062400,-1.234273
0.062500,-1.230703
0.062600,-1.125538
0.062700,-1.219992
0.062800,-1.223562
0.062900,-1.233949
0.063000,-1.247906
0.063100,-1.275495
0.063200,-1.281662
0.063300,-1.291075
0.063400,-1.318016
0.063500,-1.327429
0.063600,-1.368651
0.063700,-1.363133
0.063800,-1.386178
0.063900,-1.355667
0.064000,-1.400135
0.064100,-1.383257
0.064200,-1.476736
0.064300,-1.492641
0.064400,-1.542627
0.064500,-1.741596
0.064600,-2.091821
0.064700,-2.137912
0.064800,-1.882140
0.064900,-1.613386
0.065000,-1.533538
0.065100,-1.845462
0.065200,-2.166475
0.065300,-2.314485
0.065400,-2.207697
0.065500,-1.981787
0.065600,-1.877596
0.065700,-2.000613
0.065800,-2.217110
0.065900,-2.383296
0.066000,-2.402447
0.066100,-2.310590
0.066200,-2.303774
0.066300,-2.329416
0.066400,-2.368690
0.066500,-2.431010
0.066600,-2.463793
0.066700,-2.477426
0.066800,-2.480996
0.066900,-2.573827
0.067000,-2.569283
0.067100,-2.582915
0.067200,-2.558572
0.067300,-2.586161
0.067400,-2.643937
0.067500,-2.664061
0.067600,-2.614725
0.067700,-2.379401
0.067800,-2.276509
0.067900,-2.406017
0.068000,-2.632901
0.068100,-2.827976
0.068200,-2.704310
0.068300,-2.459898
0.068400,-2.262551
0.068500,-2.276184
0.068600,-2.502094
0.068700,-2.759813
0.068800,-2.823432
0.068900,-2.664061
0.069000,-2.496576
0.069100,-2.435879
0.069200,-2.458275
0.069300,-2.492681
0.069400,-2.505015
0.069500,-2.482619
0.069600,-2.431984
0.069700,-2.330065
0.069800,-2.250542
0.069900,-2.137912
0.070000,-1.975295
0.070100,-1.906484
0.070200,-1.856823
0.070300,-1.808784
0.070400,-1.787687
0.070500,-1.601376
0.070600,-1.416364
0.070700,-1.141768
0.070800,-1.094054
0.070900,-1.086913
0.071000,-1.024593
0.071100,-0.944422
0.071200,-0.809395
0.071300,-0.647429
0.071400,-0.528957
0.071500,-0.465339
0.071600,-0.457224
0.071700,-0.477348
0.071800,-0.427687
0.071900,-0.488059
0.072000,-0.395878
0.072100,-0.444890
0.072200,-0.320251
0.072300,-0.461444
0.072400,-0.380623
0.072500,-0.533176
0.072600,-0.516298
0.072700,-0.509806
0.072800,-0.273511
0.072900,-0.012547
0.073000,0.181553
0.073100,-0.006380
0.073200,-0.401721
0.073300,-0.500718
0.073400,-0.224174
0.073500,0.060159
0.073600,0.335729
0.073700,0.235433
0.073800,0.053343
0.073900,-0.142055
0.074000,-0.087525
0.074100,0.140655
0.074200,0.306841
0.074300,0.420769
0.074400,0.344168
0.074500,0.318202
0.074600,0.269514
0.074700,0.266268
0.074800,0.313008
0.074900,0.322421
0.075000,0.318526
0.075100,0.294507
0.075200,0.351309
0.075300,0.184798
0.075400,0.111118
0.075500,-0.016767
0.075600,-0.007678
0.075700,-0.013521
0.075800,0.055615
0.075900,-0.003459
0.076000,-0.101483
0.076100,-0.467611
0.076200,-0.478322
0.076300,-0.380298
0.076400,-0.103105
0.076500,-0.105053
0.076600,-0.277406
0.076700,-0.614322
0.076800,-0.699687
0.076900,-0.619190
0.077000,-0.395554
0.077100,-0.334532
0.077200,-0.479296
0.077300,-0.632823
0.077400,-0.696116
0.077500,-0.714293
0.077600,-0.746751
0.077700,-0.742207
0.077800,-0.827247
0.077900,-0.881128
0.078000,-0.902550
0.078100,-0.903524
0.078200,-0.907095
0.078300,-0.986942
0.078400,-0.988240
0.078500,-0.951562
0.078600,-0.885672
0.078700,-0.856460
0.078800,-0.928192
0.078900,-1.079123
0.079000,-1.117424
0.079100,-1.120345
0.079200,-1.096651
0.079300,-1.018426
0.079400,-1.058674
0.079500,-1.051534
0.079600,-1.069386
0.079700,-1.052832
0.079800,-1.061596
0.079900,-1.063543
0.080000,-1.060622
0.080100,-1.108336
0.080200,-1.107037
0.080300,-1.100870
0.080400,-1.104116
0.080500,-1.113529
0.080600,-1.131705
0.080700,-1.134951
0.080800,-1.209930
0.080900,-1.249529
0.081000,-1.285882
0.081100,-1.401109
0.081200,-1.685118
0.081300,-1.990551
0.081400,-1.953224
0.081500,-1.687066
0.081600,-1.532240
0.081700,-1.572164
0.081800,-1.952250
0.081900,-2.246971
0.082000,-2.335907
0.082100,-2.153816
0.082200,-1.947381
0.082300,-1.917195
0.082400,-2.050599
0.082500,-2.265148
0.082600,-2.355058
0.082700,-2.306046
0.082800,-2.194714
0.082900,-2.227821
0.083000,-2.253463
0.083100,-2.307019
0.083200,-2.310265
0.083300,-2.306695
0.083400,-2.317731
0.083500,-2.329091
0.083600,-2.411860
0.083700,-2.425817
0.083800,-2.394332
0.083900,-2.351487
0.084000,-2.365444
0.084100,-2.449187
0.084200,-2.438800
0.084300,-2.290466
0.084400,-2.061310
0.084500,-2.030475
0.084600,-2.203802
0.084700,-2.434256
0.084800,-2.567984
0.084900,-2.395631
0.085000,-2.127849
0.085100,-1.985358
0.085200,-2.077864
0.085300,-2.341101
0.085400,-2.549483
0.085500,-2.522218
0.085600,-2.359602
0.085700,-2.201854
0.085800,-2.191792
0.085900,-2.252814
0.086000,-2.291764
0.086100,-2.285272
0.086200,-2.273912
0.086300,-2.238532
0.086400,-2.172317
0.086500,-2.106102
0.086600,-1.974646
0.086700,-1.845138
0.086800,-1.776326
0.086900,-1.761720
0.087000,-1.766913
0.087100,-1.772107
0.087200,-1.547171
0.087300,-1.452068
0.087400,-1.145662
0.087500,-1.150856
0.087600,-1.155725
0.087700,-1.098273
0.087800,-1.010961
0.087900,-0.917481
0.088000,-0.758761
0.088100,-0.735715
0.088200,-0.697739
0.088300,-0.758761
0.088400,-0.745453
0.088500,-0.765577
0.088600,-0.796412
0.088700,-0.772718
0.088800,-0.762331
0.088900,-0.701634
0.089000,-0.717214
0.089100,-0.774016
0.089200,-0.808097
0.089300,-0.875935
0.089400,-0.757138
0.089500,-0.593873
0.089600,-0.200805
0.089700,-0.231964
0.089800,-0.449434
0.089900,-0.919104
0.090000,-0.845749
0.090100,-0.668851
0.090200,-0.374780
0.090300,-0.283897
0.090400,-0.316031
0.090500,-0.608479
0.090600,-0.699687
0.090700,-0.571477
0.090800,-0.402694
0.090900,-0.250790
0.091000,-0.199182
0.091100,-0.222876
0.091200,-0.279029
0.091300,-0.259229
0.091400,-0.233587
0.091500,-0.178733
0.091600,-0.171268
0.091700,-0.162828
0.091800,-0.146275
0.091900,-0.161206
0.092000,-0.208594
0.092100,-0.348489
0.092200,-0.288117
0.092300,-0.420871
0.092400,-0.226122
0.092500,-0.232289
0.092600,-0.226122
0.092700,-0.458198
0.092800,-0.674045
0.092900,-0.617892
0.093000,-0.466637
0.093100,-0.157635
0.093200,-0.231315
0.093300,-0.405940
0.093400,-0.706828
0.093500,-0.720785
0.093600,-0.565634
0.093700,-0.361797
0.093800,-0.307916
0.093900,-0.456575
0.094000,-0.584136
0.094100,-0.589329
0.094200,-0.640613
0.094300,-0.575047
0.094400,-0.600689
0.094500,-0.642236
0.094600,-0.712995
0.094700,-0.693520
0.094800,-0.689949
0.094900,-0.739935
0.095000,-0.783753
0.095100,-0.821730
0.095200,-0.783104
0.095300,-0.777586
0.095400,-0.752918
0.095500,-0.901252
0.095600,-1.032383
0.095700,-1.047963
0.095800,-1.063543
0.095900,-0.966818
0.096000,-0.981749
0.096100,-0.997653
0.096200,-1.003171
0.096300,-1.015180
0.096400,-1.002846
0.096500,-1.007390
0.096600,-1.012584
0.096700,-1.048937
0.096800,-1.027190
0.096900,-1.061596
0.097000,-1.080421
0.097100,-1.130407
0.097200,-1.106063
0.097300,-1.141443
0.097400,-1.141768
0.097500,-1.173577
0.097600,-1.240765
0.097700,-1.278417
0.097800,-1.446550
0.097900,-1.745815
0.098000,-1.961338
0.098100,-1.830532
0.098200,-1.532565
0.098300,-1.464078
0.098400,-1.613710
0.098500,-2.028527
0.098600,-2.244050
0.098700,-2.274561
0.098800,-2.096689
0.098900,-1.926933
0.099000,-1.983735
0.099100,-2.201205
0.099200,-2.404070
0.099300,-2.458924
0.099400,-2.429063
0.099500,-2.358953
0.099600,-2.381349
0.099700,-2.384595
0.099800,-2.434581
0.099900,-2.452433
0.100000,-2.469311
0.100100,-2.486189
0.100200,-2.534228
0.100300,-2.565712
0.100400,-2.576424
0.100500,-2.500471
0.100600,-2.531956
0.100700,-2.561168
0.100800,-2.645235
0.100900,-2.633550
0.101000,-2.451134
0.101100,-2.278131
0.101200,-2.341750
0.101300,-2.555326
0.101400,-2.797790
0.101500,-2.800386
0.101600,-2.588109
0.101700,-2.347592
0.101800,-2.303774
0.101900,-2.461521
0.102000,-2.730601
0.102100,-2.863031
0.102200,-2.779938
0.102300,-2.612777
0.102400,-2.514104
0.102500,-2.516700
0.102600,-2.541369
0.102700,-2.531307
0.102800,-2.503717
0.102900,-2.443994
0.103000,-2.361549
0.103100,-2.298580
0.103200,-2.205425
0.103300,-2.039563
0.103400,-1.900641
0.103500,-1.839295
0.103600,-1.802942
0.103700,-1.776326
0.103800,-1.672460
0.103900,-1.450445
0.104000,-1.277443
0.104100,-1.082369
0.104200,-1.110283
0.104300,-1.057052
0.104400,-0.986293
0.104500,-0.877233
0.104600,-0.771744
0.104700,-0.620489
0.104800,-0.577319
0.104900,-0.526360
0.105000,-0.502016
0.105100,-0.482541
0.105200,-0.470207
0.105300,-0.445864
0.105400,-0.376728
0.105500,-0.331936
0.105600,-0.284222
0.105700,-0.280652
0.105800,-0.285520
0.105900,-0.339076
0.106000,-0.281625
0.106100,-0.167373
0.106200,0.109496
0.106300,0.459395
0.106400,0.311385
0.106500,0.014393
0.106600,-0.330962
0.106700,-0.030075
0.106800,0.069897
0.106900,0.477896
0.107000,0.463614
0.107100,0.279576
0.107200,0.133839
0.107300,0.026078
0.107400,0.240951
0.107500,0.305867
0.107600,0.449982
0.107700,0.391557
0.107800,0.353256
0.107900,0.321772
0.108000,0.300674
0.108100,0.303595
0.108200,0.288665
0.108300,0.296455
0.108400,0.287042
0.108500,0.307166
0.108600,0.294507
0.108700,0.122479
0.108800,0.106574
0.108900,-0.004757
0.109000,0.044255
0.109100,0.052045
0.109200,0.065352
0.109300,-0.029101
0.109400,-0.358551
0.109500,-0.437425
0.109600,-0.406914
0.109700,-0.179707
0.109800,-0.046304
0.109900,-0.183277
0.110000,-0.428661
0.110100,-0.638016
0.110200,-0.591601
0.110300,-0.419248
0.110400,-0.294284
0.110500,-0.379649
0.110600,-0.551028
0.110700,-0.648727
0.110800,-0.625033
0.110900,-0.657491
0.111000,-0.605558
0.111100,-0.697090
0.111200,-0.763954
0.111300,-0.800956
0.111400,-0.795114
0.111500,-0.811018
0.111600,-0.895085
0.111700,-0.967142
0.111800,-0.983696
0.111900,-0.940202
0.112000,-0.920402
0.112100,-0.968765
0.112200,-1.132679
0.112300,-1.220316
0.112400,-1.241739
0.112500,-1.220966
0.112600,-1.163515
0.112700,-1.195324
0.112800,-1.214799
0.112900,-1.224861
0.113000,-1.223887
0.113100,-1.264135
0.113200,-1.252775
0.113300,-1.317367
0.113400,-1.308603
0.113500,-1.315094
0.113600,-1.337815
0.113700,-1.367028
0.113800,-1.412794
0.113900,-1.445252
0.114000,-1.460832
0.114100,-1.504001
0.114200,-1.585147
0.114300,-1.677978
0.114400,-1.759123
0.114500,-2.024307
0.114600,-2.363172
0.114700,-2.525139
0.114800,-2.300528
0.114900,-2.087601
0.115000,-2.070723
0.115100,-2.315459
0.115200,-2.669579
0.115300,-2.798439
0.115400,-2.715995
0.115500,-2.502094
0.115600,-2.433282
0.115700,-2.535526
0.115800,-2.759489
0.115900,-2.890621
0.116000,-2.878611
0.116100,-2.785456
0.116200,-2.794869
0.116300,-2.809475
0.116400,-2.853943
0.116500,-2.875365
0.116600,-2.870497
0.116700,-2.881857
0.116800,-2.859785
0.116900,-2.889647
0.117000,-2.922105
0.117100,-2.936063
0.117200,-2.876015
0.117300,-2.867251
0.117400,-2.886726
0.117500,-2.906850
0.117600,-2.786105
0.117700,-2.585187
0.117800,-2.520271
0.117900,-2.618944
0.118000,-2.806554
0.118100,-2.979881
0.118200,-2.876988
0.118300,-2.643937
0.118400,-2.469636
0.118500,-2.494629
0.118600,-2.717293
0.118700,-2.927623
0.118800,-2.981504
0.118900,-2.826029
0.119000,-2.693923
0.119100,-2.670228
0.119200,-2.707231
0.119300,-2.768902
0.119400,-2.791623
0.119500,-2.740014
0.119600,-2.692300
0.119700,-2.626734
0.119800,-2.556299
0.119900,-2.429063
0.120000,-2.275210
0.120100,-2.193091
0.120200,-2.161282
0.120300,-2.140508
0.120400,-2.108374
0.120500,-1.904536
0.120600,-1.759772
0.120700,-1.557557
0.120800,-1.461806
0.120900,-1.472517
0.121000,-1.395915
0.121100,-1.308927
0.121200,-1.194350
0.121300,-1.067438
0.121400,-0.959352
0.121500,-0.925271
0.121600,-0.913911
0.121700,-0.896059
0.121800,-0.880803
0.121900,-0.895410
0.122000,-0.834064
0.122100,-0.804202
0.122200,-0.707152
0.122300,-0.775314
0.122400,-0.700336
0.122500,-0.850942
0.122600,-0.791543
0.122700,-0.781806
0.122800,-0.515324
0.122900,-0.181979
0.123000,-0.050199
0.123100,-0.172566
0.123200,-0.613997
0.123300,-0.629902
0.123400,-0.498771
0.123500,-0.089798
0.123600,0.021209
0.123700,0.046527
0.123800,-0.175487
0.123900,-0.296556
0.124000,-0.182303
0.124100,0.003682
0.124200,0.187071
0.124300,0.204598
0.124400,0.213037
0.124500,0.184149
0.124600,0.165648
0.124700,0.235109
0.124800,0.270813
0.124900,0.274058
0.125000,0.262373
0.125100,0.303595
0.125200,0.338975
0.125300,0.305543
0.125400,0.193562
0.125500,0.135138
0.125600,0.078336
0.125700,0.168245
0.125800,0.180904
0.125900,0.204273
0.126000,0.060159
0.126100,-0.218981
0.126200,-0.210542
0.126300,-0.077463
0.126400,0.154288
0.126500,0.207195
0.126600,-0.016118
0.126700,-0.333883
0.126800,-0.442942
0.126900,-0.329339
0.127000,-0.103105
0.127100,-0.038189
0.127200,-0.192041
0.127300,-0.359525
0.127400,-0.406265
0.127500,-0.366990
0.127600,-0.347840
0.127700,-0.351735
0.127800,-0.431258
0.127900,-0.528308
0.128000,-0.586408
0.128100,-0.573100
0.128200,-0.578293
0.128300,-0.670799
0.128400,-0.708450
0.128500,-0.683782
0.128600,-0.659114
0.128700,-0.650675
0.128800,-0.706503
0.128900,-0.811992
0.129000,-0.861329
0.129100,-0.886321
0.129200,-0.903524
0.129300,-0.853214
0.129400,-0.914560
0.129500,-0.910990
0.129600,-0.933386
0.129700,-0.919104
0.129800,-0.930140
0.129900,-0.942799
0.130000,-0.966169
0.130100,-0.957405
0.130200,-0.967142
0.130300,-0.987591
0.130400,-1.023295
0.130500,-0.996679
0.130600,-1.019400
0.130700,-1.030760
0.130800,-1.058350
0.130900,-1.134627
0.131000,-1.170006
0.131100,-1.287180
0.131200,-1.561777
0.131300,-1.858121
0.131400,-1.795801
0.131500,-1.571190
0.131600,-1.392670
0.131700,-1.552364
0.131800,-1.877596
0.131900,-2.224900
0.132000,-2.279754
0.132100,-2.134017
0.132200,-1.941214
0.132300,-1.976918
0.132400,-2.172967
0.132500,-2.420624
0.132600,-2.511832
0.132700,-2.489111
0.132800,-2.442371
0.132900,-2.434581
0.133000,-2.481321
0.133100,-2.546887
0.133200,-2.539746
0.133300,-2.531956
0.133400,-2.512156
0.133500,-2.555975
0.133600,-2.602066
0.133700,-2.662763
0.133800,-2.624787
0.133900,-2.564414
0.134000,-2.581617
0.134100,-2.620892
0.134200,-2.686458
0.134300,-2.549808
0.134400,-2.359926
0.134500,-2.335258
0.134600,-2.488137
0.134700,-2.696844
0.134800,-2.829924
0.134900,-2.636147
0.135000,-2.370638
0.135100,-2.226523
0.135200,-2.344022
0.135300,-2.597522
0.135400,-2.759164
0.135500,-2.701388
0.135600,-2.506963
0.135700,-2.375506
0.135800,-2.372261
0.135900,-2.403745
0.136000,-2.427764
0.136100,-2.386542
0.136200,-2.343048
0.136300,-2.290466
0.136400,-2.247945
0.136500,-2.151544
0.136600,-2.005482
0.136700,-1.864288
0.136800,-1.789309
0.136900,-1.766589
0.137000,-1.754255
0.137100,-1.704918
0.137200,-1.480631
0.137300,-1.380660
0.137400,-1.092106
0.137500,-1.107686
0.137600,-1.069061
0.137700,-1.009663
0.137800,-0.911963
0.137900,-0.794465
0.138000,-0.617892
0.138100,-0.580890
0.138200,-0.515973
0.138300,-0.575372
0.138400,-0.586083
0.138500,-0.521167
0.138600,-0.583486
0.138700,-0.466962
0.138800,-0.542914
0.138900,-0.426389
0.139000,-0.520193
0.139100,-0.442293
0.139200,-0.587381
0.139300,-0.545835
0.139400,-0.490007
0.139500,-0.282275
0.139600,0.030622
0.139700,0.048474
0.139800,-0.159583
0.139900,-0.553300
0.140000,-0.476374
0.140100,-0.141406
0.140200,0.072169
0.140300,0.181877
0.140400,0.054966
0.140500,-0.106676
0.140600,-0.219955
0.140700,-0.086227
0.140800,0.179281
0.140900,0.290612
0.141000,0.338001
0.141100,0.240627
0.141200,0.265295
0.141300,0.229591
0.141400,0.257829
0.141500,0.329237
0.141600,0.351309
0.141700,0.344493
0.141800,0.369485
0.141900,0.358774
0.142000,0.305218
0.142100,0.257829
0.142200,0.262698
0.142300,0.237381
0.142400,0.370135
0.142500,0.384416
0.142600,0.468158
0.142700,0.215309
0.142800,0.025429
0.142900,0.106899
0.143000,0.280875
0.143100,0.585008
0.143200,0.555795
0.143300,0.358450
0.143400,0.121505
0.143500,0.140980
0.143600,0.328588
0.143700,0.539891
0.143800,0.619089
0.143900,0.508406
0.144000,0.415901
0.144100,0.435375
0.144200,0.431805
0.144300,0.502564
0.144400,0.484712
0.144500,0.454526
0.144600,0.429533
0.144700,0.421094
0.144800,0.438297
0.144900,0.387337
0.145000,0.330536
0.145100,0.338001
0.145200,0.376626
0.145300,0.397724
0.145400,0.417199
0.145500,0.298077
0.145600,0.188693
0.145700,0.172140
0.145800,0.203300
0.145900,0.365915
0.146000,0.317228
0.146100,0.304245
0.146200,0.314631
0.146300,0.305218
0.146400,0.307815
0.146500,0.316903
0.146600,0.318202
0.146700,0.276331
0.146800,0.271786
0.146900,0.270163
0.147000,0.257505
0.147100,0.233161
0.147200,0.200378
0.147300,0.169219
0.147400,0.135787
0.147500,0.098460
0.147600,0.002384
0.147700,-0.046628
0.147800,-0.278055
0.147900,-0.624059
0.148000,-0.853863
0.148100,-0.723057
0.148200,-0.547458
0.148300,-0.429959
0.148400,-0.655544
0.148500,-1.094703
0.148600,-1.345930
0.148700,-1.399810
0.148800,-1.228431
0.148900,-1.148908
0.149000,-1.243037
0.149100,-1.522178
0.149200,-1.807486
0.149300,-1.904212
0.149400,-1.903563
0.149500,-1.899018
0.149600,-1.970102
0.149700,-2.068775
0.149800,-2.188222
0.149900,-2.285272
0.150000,-2.389139
0.150100,-2.443994
0.150200,-2.563440
0.150300,-2.717293
0.150400,-2.760787
0.150500,-2.783184
0.150600,-2.848100
0.150700,-2.944177
0.150800,-3.030841
0.150900,-3.039605
0.151000,-2.935089
0.151100,-2.825704
0.151200,-2.980855
0.151300,-3.215205
0.151400,-3.472601
0.151500,-3.529079
0.151600,-3.356075
0.151700,-3.170737
0.151800,-3.162947
0.151900,-3.337249
0.152000,-3.623533
0.152100,-3.755639
0.152200,-3.686502
0.152300,-3.537193
0.152400,-3.447932
0.152500,-3.454424
0.152600,-3.483961
0.152700,-3.506682
0.152800,-3.520315
0.152900,-3.494023
0.153000,-3.413526
0.153100,-3.345688
0.153200,-3.250585
0.153300,-3.113286
0.153400,-2.965275
0.153500,-2.922105
0.153600,-2.875365
0.153700,-2.844530
0.153800,-2.718916
0.153900,-2.481321
0.154000,-2.268394
0.154100,-2.082083
0.154200,-2.114866
0.154300,-2.082083
0.154400,-1.980164
0.154500,-1.845787
0.154600,-1.679601
0.154700,-1.527047
0.154800,-1.437787
0.154900,-1.392345
0.155000,-1.398188
0.155100,-1.386503
0.155200,-1.343658
0.155300,-1.372221
0.155400,-1.209930
0.155500,-1.201491
0.155600,-1.088211
0.155700,-1.162541
0.155800,-1.152154
0.155900,-1.216097
0.156000,-1.122617
0.156100,-1.025243
0.156200,-0.670150
0.156300,-0.411783
0.156400,-0.419897
0.156500,-0.797061
0.156600,-1.014531
0.156700,-0.823677
0.156800,-0.536422
0.156900,-0.241053
0.157000,-0.325119
0.157100,-0.439048
0.157200,-0.665930
0.157300,-0.632498
0.157400,-0.532852
0.157500,-0.307916
0.157600,-0.238781
0.157700,-0.278055
0.157800,-0.281950
0.157900,-0.352060
0.158000,-0.320575
0.158100,-0.329339
0.158200,-0.303697
0.158300,-0.312785
0.158400,-0.277730
0.158500,-0.269616
0.158600,-0.347515
0.158700,-0.396852
0.158800,-0.479620
0.158900,-0.440670
0.159000,-0.512728
0.159100,-0.390685
0.159200,-0.395554
0.159300,-0.445864
0.159400,-0.756164
0.159500,-0.797710
0.159600,-0.721109
0.159700,-0.473778
0.159800,-0.286494
0.159900,-0.413406
0.160000,-0.654894
0.160100,-0.810694
0.160200,-0.747725
0.160300,-0.552002
0.160400,-0.380298
0.160500,-0.403344
0.160600,-0.504938
0.160700,-0.586083
0.160800,-0.541615
0.160900,-0.580890
0.161000,-0.521491
0.161100,-0.588031
0.161200,-0.599391
0.161300,-0.594198
0.161400,-0.566933
0.161500,-0.580565
0.161600,-0.634121
0.161700,-0.682159
0.161800,-0.662684
0.161900,-0.588355
0.162000,-0.545186
0.162100,-0.546809
0.162200,-0.663334
0.162300,-0.741233
0.162400,-0.737338
0.162500,-0.726302
0.162600,-0.644832
0.162700,-0.648727
0.162800,-0.646455
0.162900,-0.635420
0.163000,-0.627954
0.163100,-0.605558
0.163200,-0.610427
0.163300,-0.623085
0.163400,-0.620813
0.163500,-0.624384
0.163600,-0.631525
0.163700,-0.592899
0.163800,-0.623085
0.163900,-0.588355
0.164000,-0.645157
0.164100,-0.648727
0.164200,-0.703582
0.164300,-0.751944
0.164400,-0.824326
0.164500,-1.069386
0.164600,-1.417338
0.164700,-1.508221
0.164800,-1.254398
0.164900,-1.003820
0.165000,-0.951887
0.165100,-1.268030
0.165200,-1.598455
0.165300,-1.821119
0.165400,-1.705892
0.165500,-1.502703
0.165600,-1.405328
0.165700,-1.570541
0.165800,-1.805214
0.165900,-1.967505
0.166000,-1.955171
0.166100,-1.884412
0.166200,-1.844489
0.166300,-1.894474
0.166400,-1.946408
0.166500,-1.985358
0.166600,-2.012622
0.166700,-2.017491
0.166800,-2.049625
0.166900,-2.081759
0.167000,-2.160957
0.167100,-2.133043
0.167200,-2.079811
0.167300,-2.126876
0.167400,-2.172642
0.167500,-2.272289
0.167600,-2.211916
0.167700,-2.044756
0.167800,-1.987630
0.167900,-2.114866
0.168000,-2.372585
0.168100,-2.595574
0.168200,-2.545264
0.168300,-2.351163
0.168400,-2.176212
0.168500,-2.244699
0.168600,-2.469636
0.168700,-2.708529
0.168800,-2.794544
0.168900,-2.679641
0.169000,-2.581942
0.169100,-2.552080
0.169200,-2.593951
0.169300,-2.660815
0.169400,-2.672500
0.169500,-2.688730
0.169600,-2.693923
0.169700,-2.662763
0.169800,-2.610505
0.169900,-2.508910
0.170000,-2.370638
0.170100,-2.288843
0.170200,-2.287869
0.170300,-2.287544
0.170400,-2.288194
0.170500,-2.108699
0.170600,-1.964909
0.170700,-1.765615
0.170800,-1.677004
0.170900,-1.676355
0.171000,-1.657854
0.171100,-1.558856
0.171200,-1.437462
0.171300,-1.299839
0.171400,-1.219667
0.171500,-1.176822
0.171600,-1.153128
0.171700,-1.131705
0.171800,-1.101844
0.171900,-1.112880
0.172000,-1.058025
0.172100,-1.014207
0.172200,-0.956756
0.172300,-0.907419
0.172400,-0.947343
0.172500,-0.929815
0.172600,-1.020698
0.172700,-0.815887
0.172800,-0.739935
0.172900,-0.267993
0.173000,-0.192041
0.173100,-0.243000
0.173200,-0.762980
0.173300,-0.803228
0.173400,-0.539992
0.173500,-0.269940
0.173600,0.055615
0.173700,-0.068700
0.173800,-0.243974
0.173900,-0.404966
0.174000,-0.284222
0.174100,-0.192041
0.174200,0.038088
0.174300,0.046851
0.174400,0.000761
0.174500,-0.056041
0.174600,-0.051497
0.174700,-0.068700
0.174800,-0.080709
0.174900,-0.086552
0.175000,-0.124852
0.175100,-0.081034
0.175200,-0.064156
0.175300,-0.218657
0.175400,-0.259554
0.175500,-0.370236
0.175600,-0.351735
0.175700,-0.346542
0.175800,-0.237482
0.175900,-0.292986
0.176000,-0.324795
0.176100,-0.685081
0.176200,-0.624059
0.176300,-0.512078
0.176400,-0.242026
0.176500,-0.232289
0.176600,-0.371535
0.176700,-0.627954
0.176800,-0.659763
0.176900,-0.515324
0.177000,-0.286819
0.177100,-0.163153
0.177200,-0.269291
0.177300,-0.379649
0.177400,-0.398150
0.177500,-0.352060
0.177600,-0.344594
0.177700,-0.339076
0.177800,-0.435477
0.177900,-0.462742
0.178000,-0.503639
0.178100,-0.455926
0.178200,-0.455601
0.178300,-0.525062
0.178400,-0.533176
0.178500,-0.478971
0.178600,-0.420222
0.178700,-0.355955
0.178800,-0.444565
0.178900,-0.578618
0.179000,-0.631525
0.179100,-0.604260
0.179200,-0.419897
0.179300,-0.458198
0.179400,-0.492604
0.179500,-0.493253
0.179600,-0.490007
0.179700,-0.475725
0.179800,-0.487735
0.179900,-0.479945
0.180000,-0.501692
0.180100,-0.499095
0.180200,-0.506561
0.180300,-0.510780
0.180400,-0.525062
0.180500,-0.517272
0.180600,-0.531878
0.180700,-0.527334
0.180800,-0.578293
0.180900,-0.600040
0.181000,-0.679563
0.181100,-0.741558
0.181200,-1.051858
0.181300,-1.319639
0.181400,-1.272250
0.181500,-0.996679
0.181600,-0.884374
0.181700,-0.942149
0.181800,-1.313472
0.181900,-1.631887
0.182000,-1.729262
0.182100,-1.578006
0.182200,-1.437787
0.182300,-1.424154
0.182400,-1.645195
0.182500,-1.860393
0.182600,-1.955171
0.182700,-1.942837
0.182800,-1.920116
0.182900,-1.961014
0.183000,-2.026255
0.183100,-2.051897
0.183200,-2.074942
0.183300,-2.099611
0.183400,-2.109673
0.183500,-2.155439
0.183600,-2.241129
0.183700,-2.283649
0.183800,-2.279105
0.183900,-2.296957
0.184000,-2.339478
0.184100,-2.438476
0.184200,-2.470609
0.184300,-2.370962
0.184400,-2.173940
0.184500,-2.214513
0.184600,-2.393034
0.184700,-2.629006
0.184800,-2.762086
0.184900,-2.605636
0.185000,-2.403745
0.185100,-2.316757
0.185200,-2.419974
0.185300,-2.682238
0.185400,-2.854917
0.185500,-2.813045
0.185600,-2.667956
0.185700,-2.584214
0.185800,-2.590056
0.185900,-2.612452
0.186000,-2.655947
0.186100,-2.617646
0.186200,-2.578371
0.186300,-2.543316
0.186400,-2.470609
0.186500,-2.347268
0.186600,-2.167773
0.186700,-2.012947
0.186800,-1.953224
0.186900,-1.916221
0.187000,-1.873052
0.187100,-1.801319
0.187200,-1.540679
0.187300,-1.418312
0.187400,-1.329376
0.187500,-1.177796
0.187600,-1.098273
0.187700,-1.014856
0.187800,-0.886321
0.187900,-0.771744
0.188000,-0.563038
0.188100,-0.509482
0.188200,-0.433205
0.188300,-0.476374
0.188400,-0.427363
0.188500,-0.431907
0.188600,-0.374780
0.188700,-0.393281
0.188800,-0.253062
0.188900,-0.264098
0.189000,-0.212165
0.189100,-0.274485
0.189200,-0.280652
0.189300,-0.287143
0.189400,-0.254685
0.189500,0.005629
0.189600,0.206545
0.189700,0.402268
0.189800,-0.008328
0.189900,-0.335506
0.190000,-0.227420
0.190100,-0.011249
0.190200,0.323395
0.190300,0.405839
0.190400,0.288015
0.190500,0.042956
0.190600,-0.074867
0.190700,0.082880
0.190800,0.284120
0.190900,0.421094
0.191000,0.343519
0.191100,0.314956
0.191200,0.278278
0.191300,0.261400
0.191400,0.237056
0.191500,0.240951
0.191600,0.218555
0.191700,0.218880
0.191800,0.168569
0.191900,0.204923
0.192000,0.002059
0.192100,0.085152
0.192200,-0.091096
0.192300,-0.025530
0.192400,-0.008328
0.192500,0.021209
0.192600,0.050746
0.192700,-0.241053
0.192800,-0.393931
0.192900,-0.403668
0.193000,-0.260852
0.193100,-0.004433
0.193200,-0.116089
0.193300,-0.328690
0.193400,-0.608155
0.193500,-0.612374
0.193600,-0.481568
0.193700,-0.312461
0.193800,-0.304671
0.193900,-0.478322
0.194000,-0.633147
0.194100,-0.620813
0.194200,-0.650999
0.194300,-0.619190
0.194400,-0.687028
0.194500,-0.780183
0.194600,-0.872040
0.194700,-0.884374
0.194800,-0.868145
0.194900,-0.927219
0.195000,-0.997004
0.195100,-1.019725
0.195200,-0.971037
0.195300,-0.977854
0.195400,-0.998302
0.195500,-1.141443
0.195600,-1.255371
0.195700,-1.280040
0.195800,-1.270302
0.195900,-1.127161
0.196000,-1.215448
0.196100,-1.223238
0.196200,-1.214149
0.196300,-1.205710
0.196400,-1.207658
0.196500,-1.193051
0.196600,-1.177147
0.196700,-1.173577
0.196800,-1.154426
0.196900,-1.150856
0.197000,-1.174550
0.197100,-1.169357
0.197200,-1.155075
0.197300,-1.180068
0.197400,-1.177147
0.197500,-1.214799
0.197600,-1.231677
0.197700,-1.265433
0.197800,-1.410197
0.197900,-1.760422
0.198000,-1.961988
0.198100,-1.821119
0.198200,-1.570865
0.198300,-1.448498
0.198400,-1.623123
0.198500,-1.966856
0.198600,-2.219057
0.198700,-2.196337
0.198800,-2.006455
0.198900,-1.834751
0.199000,-1.926933
0.199100,-2.097988
0.199200,-2.313511
0.199300,-2.328117
0.199400,-2.284299
0.199500,-2.263850
0.199600,-2.244699
0.199700,-2.294036
0.199800,-2.332337
0.199900,-2.348891
0.200000,-2.368690
0.200100,-2.365769
0.200200,-2.401149
0.200300,-2.507612
0.200400,-2.502419
0.200500,-2.456003
0.200600,-2.442371
0.200700,-2.471583
0.200800,-2.528710
0.200900,-2.490084
0.201000,-2.315783
0.201100,-2.164527
0.201200,-2.241129
0.201300,-2.457626
0.201400,-2.688730
0.201500,-2.709828
0.201600,-2.509559
0.201700,-2.276833
0.201800,-2.227172
0.201900,-2.399850
0.202000,-2.670553
0.202100,-2.798764
0.202200,-2.692949
0.202300,-2.499822
0.202400,-2.411211
0.202500,-2.424194
0.202600,-2.485865
0.202700,-2.493655
0.202800,-2.478724
0.202900,-2.428089
0.203000,-2.348241
0.203100,-2.270017
0.203200,-2.154465
0.203300,-2.014895
0.203400,-1.864288
0.203500,-1.818847
0.203600,-1.786388
0.203700,-1.763343
0.203800,-1.625395
0.203900,-1.415066
0.204000,-1.255371
0.204100,-1.066464
0.204200,-1.065491
0.204300,-1.015180
0.204400,-0.919753
0.204500,-0.811343
0.204600,-0.675343
0.204700,-0.480594
0.204800,-0.437749
0.204900,-0.376728
0.205000,-0.440346
0.205100,-0.360823
0.205200,-0.382895
0.205300,-0.297205
0.205400,-0.276757
0.205500,-0.207945
0.205600,-0.201778
0.205700,-0.234886
0.205800,-0.230341
0.205900,-0.323821
0.206000,-0.281301
0.206100,-0.182303
0.206200,0.157534
0.206300,0.435375
0.206400,0.318851
0.206500,-0.028452
0.206600,-0.354981
0.206700,-0.039163
0.206800,0.042307
0.206900,0.371757
0.207000,0.360722
0.207100,0.177009
0.207200,0.003682
0.207300,-0.016767
0.207400,0.169219
0.207500,0.274383
0.207600,0.394803
0.207700,0.355204
0.207800,0.285743
0.207900,0.291910
0.208000,0.289963
0.208100,0.337352
0.208200,0.338001
0.208300,0.346440
0.208400,0.347414
0.208500,0.333457
0.208600,0.236407
0.208700,0.191615
0.208800,0.153639
0.208900,0.103329
0.209000,0.059510
0.209100,0.203949
0.209200,0.192913
0.209300,0.147472
0.209400,-0.241702
0.209500,-0.320900
0.209600,-0.259554
0.209700,-0.021635
0.209800,0.118259
0.209900,-0.040461
0.210000,-0.292661
0.210100,-0.506561
0.210200,-0.421196
0.210300,-0.257931
0.210400,-0.119984
0.210500,-0.173215
0.210600,-0.337778
0.210700,-0.420546
0.210800,-0.382895
0.210900,-0.419248
0.211000,-0.385816
0.211100,-0.473129
0.211200,-0.522465
0.211300,-0.552327
0.211400,-0.527334
0.211500,-0.558818
0.211600,-0.630875
0.211700,-0.679887
0.211800,-0.669176
0.211900,-0.643859
0.212000,-0.622436
0.212100,-0.646131
0.212200,-0.802904
0.212300,-0.851916
0.212400,-0.845099
0.212500,-0.852565
0.212600,-0.749348
0.212700,-0.804527
0.212800,-0.796088
0.212900,-0.796088
0.213000,-0.794789
0.213100,-0.777262
0.213200,-0.748699
0.213300,-0.762331
0.213400,-0.776288
0.213500,-0.780183
0.213600,-0.793166
0.213700,-0.807448
0.213800,-0.817185
0.213900,-0.824651
0.214000,-0.882426
0.214100,-0.890541
0.214200,-0.979152
0.214300,-1.016479
0.214400,-1.061920
0.214500,-1.345930
0.214600,-1.664670
0.214700,-1.805214
0.214800,-1.535161
0.214900,-1.369949
0.215000,-1.327104
0.215100,-1.697777
0.215200,-2.035992
0.215300,-2.233664
0.215400,-2.138885
0.215500,-1.949653
0.215600,-1.880842
0.215700,-2.011649
0.215800,-2.294685
0.215900,-2.433931
0.216000,-2.494304
0.216100,-2.413807
0.216200,-2.400824
0.216300,-2.414456
0.216400,-2.434581
0.216500,-2.485865
0.216600,-2.485540
0.216700,-2.478399
0.216800,-2.510209
0.216900,-2.536500
0.217000,-2.566686
0.217100,-2.532280
0.217200,-2.455679
0.217300,-2.469636
0.217400,-2.520920
0.217500,-2.526762
0.217600,-2.458275
0.217700,-2.246647
0.217800,-2.167449
0.217900,-2.305721
0.218000,-2.574801
0.218100,-2.764358
0.218200,-2.674773
0.218300,-2.470934
0.218400,-2.311564
0.218500,-2.402447
0.218600,-2.655622
0.218700,-2.930869
0.218800,-2.964951
0.218900,-2.822134
0.219000,-2.733847
0.219100,-2.700090
0.219200,-2.744233
0.219300,-2.808826
0.219400,-2.816291
0.219500,-2.804931
0.219600,-2.789351
0.219700,-2.731250
0.219800,-2.643937
0.219900,-2.533903
0.220000,-2.398876
0.220100,-2.300528
0.220200,-2.268719
0.220300,-2.238208
0.220400,-2.220680
0.220500,-2.015544
0.220600,-1.834426
0.220700,-1.578655
0.220800,-1.507896
0.220900,-1.513739
0.221000,-1.459534
0.221100,-1.367352
0.221200,-1.244335
0.221300,-1.062894
0.221400,-0.976231
0.221500,-0.919429
0.221600,-0.903849
0.221700,-0.844126
0.221800,-0.847696
0.221900,-0.803553
0.222000,-0.773367
0.222100,-0.639315
0.222200,-0.602961
0.222300,-0.525062
0.222400,-0.495849
0.222500,-0.516623
0.222600,-0.542265
0.222700,-0.399449
0.222800,-0.292337
0.222900,0.141954
0.223000,0.184149
0.223100,0.091644
0.223200,-0.328690
0.223300,-0.370561
0.223400,-0.102132
0.223500,0.149744
0.223600,0.375977
0.223700,0.299376
0.223800,0.112417
0.223900,0.018288
0.224000,0.055615
0.224100,0.267567
0.224200,0.435375
0.224300,0.469132
0.224400,0.461991
0.224500,0.435700
0.224600,0.417199
0.224700,0.471404
0.224800,0.510354
0.224900,0.506134
0.225000,0.487309
0.225100,0.503213
0.225200,0.532750
0.225300,0.356178
0.225400,0.332808
0.225500,0.180254
0.225600,0.212063
0.225700,0.220178
0.225800,0.279252
0.225900,0.267567
0.226000,0.095539
0.226100,-0.247220
0.226200,-0.253711
0.226300,-0.118361
0.226400,0.149744
0.226500,0.173438
0.226600,-0.000538
0.226700,-0.324795
0.226800,-0.379000
0.226900,-0.245272
0.227000,-0.036566
0.227100,0.028999
0.227200,-0.104079
0.227300,-0.218657
0.227400,-0.265721
0.227500,-0.213139
0.227600,-0.163802
0.227700,-0.115440
0.227800,-0.197883
0.227900,-0.240403
0.228000,-0.231964
0.228100,-0.149196
0.228200,-0.154389
0.228300,-0.194637
0.228400,-0.191392
0.228500,-0.130695
0.228600,-0.055067
0.228700,0.031271
0.228800,-0.002810
0.228900,-0.117712
0.229000,-0.130695
0.229100,-0.072919
0.229200,0.135787
0.229300,0.151042
0.229400,0.160779
0.229500,0.190966
0.229600,0.234135
0.229700,0.255233
0.229800,0.278278
0.229900,0.281524
0.230000,0.303920
0.230100,0.296455
0.230200,0.329237
0.230300,0.307490
0.230400,0.285094
0.230500,0.288665
0.230600,0.256856
0.230700,0.225047
0.230800,0.171815
0.230900,0.137734
0.231000,0.036465
0.231100,-0.062857
0.231200,-0.365692
0.231300,-0.689625
0.231400,-0.659114
0.231500,-0.456575
0.231600,-0.222876
0.231700,-0.343296
0.231800,-0.711696
0.231900,-1.083667
0.232000,-1.196622
0.232100,-1.062894
0.232200,-0.868794
0.232300,-0.873663
0.232400,-1.102493
0.232500,-1.393319
0.232600,-1.503352
0.232700,-1.565023
0.232800,-1.513414
0.232900,-1.535161
0.233000,-1.593262
0.233100,-1.679601
0.233200,-1.778274
0.233300,-1.802942
0.233400,-1.833777
0.233500,-1.891553
0.233600,-1.982761
0.233700,-2.058389
0.233800,-2.068451
0.233900,-2.048002
0.234000,-2.093768
0.234100,-2.171993
0.234200,-2.196337
0.234300,-2.061310
0.234400,-1.856823
0.234500,-1.899018
0.234600,-2.054818
0.234700,-2.297931
0.234800,-2.438800
0.234900,-2.285272
0.235000,-2.022360
0.235100,-1.892527
0.235200,-2.023658
0.235300,-2.238532
0.235400,-2.412184
0.235500,-2.388165
0.235600,-2.211916
0.235700,-2.068126
0.235800,-2.036966
0.235900,-2.043133
0.236000,-2.064556
0.236100,-2.014245
0.236200,-1.972374
0.236300,-1.886360
0.236400,-1.801319
0.236500,-1.695181
0.236600,-1.504326
0.236700,-1.379037
0.236800,-1.285233
0.236900,-1.260889
0.237000,-1.281987
0.237100,-1.224536
0.237200,-1.014856
0.237300,-0.903200
0.237400,-0.686703
0.237500,-0.651649
0.237600,-0.625357
0.237700,-0.543887
0.237800,-0.429635
0.237900,-0.324146
0.238000,-0.157635
0.238100,-0.093368
0.238200,-0.044681
0.238300,-0.100184
0.238400,-0.060910
0.238500,-0.072919
0.238600,-0.092070
0.238700,-0.038189
0.238800,-0.029101
0.238900,0.022183
0.239000,-0.048251
0.239100,0.006279
0.239200,-0.074218
0.239300,-0.038189
0.239400,0.018288
0.239500,0.269839
0.239600,0.554497
0.239700,0.646029
0.239800,0.287691
0.239900,0.001085
0.240000,-0.009626
0.240100,0.290937
0.240200,0.557094
0.240300,0.708024
0.240400,0.532425
0.240500,0.357800
0.240600,0.275032
0.240700,0.340598
0.240800,0.540864
0.240900,0.630774
0.241000,0.657065
0.241100,0.508731
0.241200,0.501590
0.241300,0.438297
0.241400,0.473352
0.241500,0.474325
0.241600,0.469457
0.241700,0.432779
0.241800,0.413953
0.241900,0.440569
0.242000,0.273085
0.242100,0.236082
0.242200,0.105925
0.242300,0.118908
0.242400,0.142927
0.242500,0.175710
0.242600,0.177658
0.242700,-0.100184
0.242800,-0.286170
0.242900,-0.299802
0.243000,-0.094991
0.243100,0.116636
0.243200,0.058212
0.243300,-0.175812
0.243400,-0.427363
0.243500,-0.453329
0.243600,-0.330313
0.243700,-0.132967
0.243800,-0.102456
0.243900,-0.247869
0.244000,-0.399773
0.244100,-0.388088
0.244200,-0.409835
0.244300,-0.383544
0.244400,-0.452355
0.244500,-0.511105
0.244600,-0.582513
0.244700,-0.601988
0.244800,-0.594847
0.244900,-0.653921
0.245000,-0.735066
0.245100,-0.748699
0.245200,-0.728899
0.245300,-0.716565
0.245400,-0.728899
0.245500,-0.908393
0.245600,-1.017453
0.245700,-1.062894
0.245800,-0.997004
0.245900,-0.897682
0.246000,-0.978503
0.246100,-1.007390
0.246200,-1.028488
0.246300,-1.021023
0.246400,-1.023944
0.246500,-1.048612
0.246600,-1.063543
0.246700,-1.085615
0.246800,-1.080097
0.246900,-1.119696
0.247000,-1.112555
0.247100,-1.144689
0.247200,-1.107686
0.247300,-1.142092
0.247400,-1.157997
0.247500,-1.225834
0.247600,-1.249853
0.247700,-1.273223
0.247800,-1.462779
0.247900,-1.801968
0.248000,-1.999639
0.248100,-1.890904
0.248200,-1.615333
0.248300,-1.502054
0.248400,-1.635782
0.248500,-2.048002
0.248600,-2.299229
0.248700,-2.285597
0.248800,-2.118761
0.248900,-1.939591
0.249000,-2.007754
0.249100,-2.198284
0.249200,-2.398227
0.249300,-2.410237
0.249400,-2.376156
0.249500,-2.328442
0.249600,-2.305721
0.249700,-2.361874
0.249800,-2.366418
0.249900,-2.382323
0.250000,-2.390762
0.250100,-2.371287
0.250200,-2.419974
0.250300,-2.440748
0.250400,-2.461846
0.250500,-2.427440
0.250600,-2.431659
0.250700,-2.459574
0.250800,-2.566362
0.250900,-2.505989
0.251000,-2.329740
0.251100,-2.173616
0.251200,-2.247296
0.251300,-2.459574
0.251400,-2.690353
0.251500,-2.721837
0.251600,-2.495602
0.251700,-2.287544
0.251800,-2.244699
0.251900,-2.431984
0.252000,-2.701713
0.252100,-2.790000
0.252200,-2.713073
0.252300,-2.569932
0.252400,-2.490409
0.252500,-2.528061
0.252600,-2.543316
0.252700,-2.525789
0.252800,-2.504691
0.252900,-2.459898
0.253000,-2.397903
0.253100,-2.307993
0.253200,-2.196986
0.253300,-2.003210
0.253400,-1.890579
0.253500,-1.837997
0.253600,-1.810083
0.253700,-1.807811
0.253800,-1.671811
0.253900,-1.455963
0.254000,-1.399810
0.254100,-1.132030
0.254200,-1.147610
0.254300,-1.074904
0.254400,-0.964870
0.254500,-0.884698
0.254600,-0.733443
0.254700,-0.598742
0.254800,-0.514350
0.254900,-0.481892
0.255000,-0.451057
0.255100,-0.478646
0.255200,-0.409835
0.255300,-0.438723
0.255400,-0.292337
0.255500,-0.327716
0.255600,-0.239754
0.255700,-0.323496
0.255800,-0.341348
0.255900,-0.376403
0.256000,-0.335506
0.256100,-0.244948
0.256200,0.041658
0.256300,0.268865
0.256400,0.280875
0.256500,-0.275783
0.256600,-0.398475
0.256700,-0.304671
0.256800,0.043605
0.256900,0.269839
0.257000,0.152989
0.257100,0.072493
0.257200,-0.185549
0.257300,-0.130370
0.257400,-0.004433
0.257500,0.168894
0.257600,0.253934
0.257700,0.152989
0.257800,0.185123
0.257900,0.152989
0.258000,0.167271
0.258100,0.223099
0.258200,0.224397
0.258300,0.239653
0.258400,0.214335
0.258500,0.335729
0.258600,0.244846
0.258700,0.231538
0.258800,0.153639
0.258900,0.105601
0.259000,0.058861
0.259100,0.214985
0.259200,0.233486
0.259300,0.205896
0.259400,-0.094991
0.259500,-0.202427
0.259600,-0.110571
0.259700,0.108846
0.259800,0.261400
0.259900,0.125725
0.260000,-0.143029
0.260100,-0.325768
0.260200,-0.280652
0.260300,-0.064156
0.260400,0.074765
0.260500,0.028026
0.260600,-0.144003
0.260700,-0.270265
0.260800,-0.255983
0.260900,-0.281950
0.261000,-0.250466
0.261100,-0.335831
0.261200,-0.446837
0.261300,-0.525062
0.261400,-0.530580
0.261500,-0.533825
0.261600,-0.602312
0.261700,-0.639639
0.261800,-0.624059
0.261900,-0.585434
0.262000,-0.585109
0.262100,-0.581864
0.262200,-0.725653
0.262300,-0.766551
0.262400,-0.746427
0.262500,-0.563687
0.262600,-0.580890
0.262700,-0.661386
0.262800,-0.688976
0.262900,-0.686054
0.263000,-0.712021
0.263100,-0.733119
0.263200,-0.767524
0.263300,-0.808097
0.263400,-0.826274
0.263500,-0.845749
0.263600,-0.872364
0.263700,-0.904173
0.263800,-0.933061
0.263900,-0.946694
0.264000,-0.985968
0.264100,-1.020374
0.264200,-1.091133
0.264300,-1.176498
0.264400,-1.226808
0.264500,-1.504001
0.264600,-1.868832
0.264700,-1.973997
0.264800,-1.776651
0.264900,-1.543925
0.265000,-1.561452
0.265100,-1.897396
0.265200,-2.261253
0.265300,-2.437826
0.265400,-2.366094
0.265500,-2.191468
0.265600,-2.113892
0.265700,-2.283649
0.265800,-2.524166
0.265900,-2.690677
0.266000,-2.738391
0.266100,-2.693274
0.266200,-2.673799
0.266300,-2.678343
0.266400,-2.718916
0.266500,-2.744883
0.266600,-2.767603
0.266700,-2.745856
0.266800,-2.738391
0.266900,-2.757541
0.267000,-2.786754
0.267100,-2.726381
0.267200,-2.675422
0.267300,-2.650104
0.267400,-2.664061
0.267500,-2.667632
0.267600,-2.568634
0.267700,-2.320976
0.267800,-2.221005
0.267900,-2.272614
0.268000,-2.491383
0.268100,-2.636147
0.268200,-2.532605
0.268300,-2.230418
0.268400,-1.995744
0.268500,-1.953224
0.268600,-2.113243
0.268700,-2.266446
0.268800,-2.240804
0.268900,-2.008727
0.269000,-1.822417
0.269100,-1.716278
0.269200,-1.686741
0.269300,-1.675381
0.269400,-1.647142
0.269500,-1.613710
0.269600,-1.544250
0.269700,-1.470245
0.269800,-1.363457
0.269900,-1.194674
0.270000,-1.051209
0.270100,-0.961624
0.270200,-0.947018
0.270300,-0.906445
0.270400,-0.861329
0.270500,-0.679887
0.270600,-0.472479
0.270700,-0.387114
0.270800,-0.129721
0.270900,-0.077139
0.271000,0.049773
0.271100,0.187395
0.271200,0.316579
0.271300,0.521390
0.271400,0.645704
0.271500,0.705427
0.271600,0.742754
0.271700,0.746325
0.271800,0.801503
0.271900,0.777809
0.272000,0.861551
0.272100,0.894658
0.272200,0.962821
0.272300,0.952109
0.272400,0.959250
0.272500,0.976778
0.272600,0.915432
0.272700,1.078696
0.272800,1.203011
0.272900,1.656127
0.273000,1.758370
0.273100,1.641196
0.273200,1.220538
0.273300,1.245531
0.273400,1.454237
0.273500,1.763239
0.273600,1.948251
0.273700,1.850876
0.273800,1.731755
0.273900,1.567841
0.274000,1.620098
0.274100,1.751879
0.274200,1.954742
0.274300,1.918389
0.274400,1.863210
0.274500,1.789530
0.274600,1.701893
0.274700,1.686962
0.274800,1.656127
0.274900,1.632433
0.275000,1.549664
0.275100,1.490915
0.275200,1.413989
0.275300,1.310447
0.275400,1.116997
0.275500,0.906668
0.275600,0.826172
0.275700,0.658688
0.275800,0.673294
0.275900,0.486010
0.276000,0.313657
0.276100,-0.183277
0.276200,-0.247220
0.276300,-0.246895
0.276400,-0.056690
0.276500,-0.201454
0.276600,-0.442293
0.276700,-0.822703
0.276800,-0.958379
0.276900,-0.879505
0.277000,-0.716890
0.277100,-0.683458
0.277200,-0.859381
0.277300,-1.014531
0.277400,-1.055753
0.277500,-1.051209
0.277600,-1.039524
0.277700,-1.097300
0.277800,-1.174875
0.277900,-1.241739
0.278000,-1.294321
0.278100,-1.269328
0.278200,-1.316717
0.278300,-1.382283
0.278400,-1.405653
0.278500,-1.376116
0.278600,-1.364756
0.278700,-1.352097
0.278800,-1.437137
0.278900,-1.599753
0.279000,-1.642923
0.279100,-1.639677
0.279200,-1.486799
0.279300,-1.560803
0.279400,-1.600078
0.279500,-1.598130
0.279600,-1.587095
0.279700,-1.588393
0.279800,-1.603648
0.279900,-1.600727
0.280000,-1.626694
0.280100,-1.636756
0.280200,-1.624097
0.280300,-1.651037
0.280400,-1.613386
0.280500,-1.619877
0.280600,-1.578006
0.280700,-1.587744
0.280800,-1.549768
0.280900,-1.530617
0.281000,-1.553338
0.281100,-1.577682
0.281200,-1.833128
0.281300,-2.032097
0.281400,-1.899018
0.281500,-1.574436
0.281600,-1.343658
0.281700,-1.349500
0.281800,-1.622474
0.281900,-1.911677
0.282000,-1.939591
0.282100,-1.751982
0.282200,-1.569242
0.282300,-1.528994
0.282400,-1.723095
0.282500,-1.924336
0.282600,-2.037291
0.282700,-1.983735
0.282800,-2.001911
0.282900,-1.964909
0.283000,-2.038914
0.283100,-2.088575
0.283200,-2.113892
0.283300,-2.130771
0.283400,-2.113892
0.283500,-2.186599
0.283600,-2.251516
0.283700,-2.271964
0.283800,-2.205100
0.283900,-2.190494
0.284000,-2.219057
0.284100,-2.295984
0.284200,-2.324222
0.284300,-2.185301
0.284400,-1.949329
0.284500,-1.917520
0.284600,-2.006131
0.284700,-2.222303
0.284800,-2.323249
0.284900,-2.100909
0.285000,-1.811381
0.285100,-1.656880
0.285200,-1.771782
0.285300,-2.025281
0.285400,-2.168422
0.285500,-2.136289
0.285600,-1.971076
0.285700,-1.882789
0.285800,-1.927257
0.285900,-2.017491
0.286000,-2.072670
0.286100,-2.059687
0.286200,-2.051572
0.286300,-2.031124
0.286400,-2.007105
0.286500,-1.971076
0.286600,-1.877596
0.286700,-1.758474
0.286800,-1.714006
0.286900,-1.706216
0.287000,-1.737376
0.287100,-1.700049
0.287200,-1.458884
0.287300,-1.337815
0.287400,-1.178445
0.287500,-1.205386
0.287600,-1.219992
0.287700,-1.183639
0.287800,-1.111257
0.287900,-1.003820
0.288000,-0.872689
0.288100,-0.825300
0.288200,-0.800632
0.288300,-0.838608
0.288400,-0.816861
0.288500,-0.790245
0.288600,-0.831792
0.288700,-0.776288
0.288800,-0.772069
0.288900,-0.724030
0.289000,-0.753567
0.289100,-0.768823
0.289200,-0.773042
0.289300,-0.759410
0.289400,-0.682159
0.289500,-0.428985
0.289600,-0.062208
0.289700,0.051071
0.289800,-0.319277
0.289900,-0.531553
0.290000,-0.421845
0.290100,-0.135239
0.290200,0.079959
0.290300,0.248741
0.290400,0.127997
0.290500,-0.063831
0.290600,-0.151793
0.290700,0.094889
0.290800,0.281199
0.290900,0.429208
0.291000,0.450955
0.291100,0.423691
0.291200,0.433753
0.291300,0.459395
0.291400,0.550277
0.291500,0.569752
0.291600,0.595070
0.291700,0.577867
0.291800,0.642783
0.291900,0.610974
0.292000,0.633046
0.292100,0.548979
0.292200,0.533075
0.292300,0.479843
0.292400,0.605781
0.292500,0.636291
0.292600,0.647327
0.292700,0.414927
0.292800,0.230889
0.292900,0.241600
0.293000,0.418497
0.293100,0.645704
0.293200,0.567156
0.293300,0.310087
0.293400,0.019911
0.293500,-0.025206
0.293600,0.109171
0.293700,0.307166
0.293800,0.326641
0.293900,0.150068
0.294000,-0.038838
0.294100,-0.092394
0.294200,-0.137511
0.294300,-0.088175
0.294400,-0.165425
0.294500,-0.238456
0.294600,-0.328365
0.294700,-0.368613
0.294800,-0.366666
0.294900,-0.391334
0.295000,-0.434503
0.295100,-0.441320
0.295200,-0.410484
0.295300,-0.405616
0.295400,-0.402694
0.295500,-0.548432
0.295600,-0.697090
0.295700,-0.741882
0.295800,-0.753567
0.295900,-0.632823
0.296000,-0.732470
0.296100,-0.784403
0.296200,-0.822379
0.296300,-0.846398
0.296400,-0.861004
0.296500,-0.885348
0.296600,-0.903849
0.296700,-0.922025
0.296800,-0.958703
0.296900,-0.953185
0.297000,-1.042445
0.297100,-1.059648
0.297200,-1.103142
0.297300,-1.122293
0.297400,-1.166436
0.297500,-1.184288
0.297600,-1.215123
0.297700,-1.287830
0.297800,-1.461157
0.297900,-1.786064
0.298000,-1.962637
0.298100,-1.810083
0.298200,-1.568918
0.298300,-1.404355
0.298400,-1.596183
0.298500,-1.934398
0.298600,-2.168422
0.298700,-2.131744
0.298800,-1.916221
0.298900,-1.739973
0.299000,-1.762369
0.299100,-1.955820
0.299200,-2.110647
0.299300,-2.153167
0.299400,-2.085005
0.299500,-2.049625
0.299600,-2.019763
0.299700,-2.067152
0.299800,-2.114542
0.299900,-2.143754
0.300000,-2.161931
0.300100,-2.182704
0.300200,-2.238857
0.300300,-2.291764
0.300400,-2.295984
0.300500,-2.295334
0.300600,-2.318380
0.300700,-2.425817
0.300800,-2.524490
0.300900,-2.518972
0.301000,-2.364795
0.301100,-2.228795
0.301200,-2.305721
0.301300,-2.497225
0.301400,-2.744233
0.301500,-2.797790
0.301600,-2.567984
0.301700,-2.329416
0.301800,-2.250542
0.301900,-2.407965
0.302000,-2.663087
0.302100,-2.797141
0.302200,-2.722162
0.302300,-2.556299
0.302400,-2.450161
0.302500,-2.415106
0.302600,-2.423545
0.302700,-2.432633
0.302800,-2.422246
0.302900,-2.377129
0.303000,-2.274236
0.303100,-2.161606
0.303200,-1.983085
0.303300,-1.812355
0.303400,-1.721796
0.303500,-1.676355
0.303600,-1.638379
0.303700,-1.627667
0.303800,-1.476412
0.303900,-1.275171
0.304000,-1.199868
0.304100,-1.014531
0.304200,-0.975581
0.304300,-0.927219
0.304400,-0.873663
0.304500,-0.769147
0.304600,-0.621463
0.304700,-0.486761
0.304800,-0.410809
0.304900,-0.383219
0.305000,-0.396203
0.305100,-0.368938
0.305200,-0.381921
0.305300,-0.398799
0.305400,-0.289091
0.305500,-0.274485
0.305600,-0.182628
0.305700,-0.272537
0.305800,-0.258905
0.305900,-0.350112
0.306000,-0.327067
0.306100,-0.237807
0.306200,0.022508
0.306300,0.272760
0.306400,0.158507
0.306500,-0.263773
0.306600,-0.455926
0.306700,-0.422818
0.306800,-0.069998
0.306900,0.071520
0.307000,0.120531
0.307100,-0.112194
0.307200,-0.299477
0.307300,-0.324470
0.307400,-0.213139
0.307500,-0.032022
0.307600,0.053992
0.307700,0.012446
0.307800,-0.088499
0.307900,-0.032347
0.308000,-0.043058
0.308100,-0.067401
0.308200,-0.090122
0.308300,-0.091420
0.308400,-0.089798
0.308500,-0.105702
0.308600,-0.188146
0.308700,-0.297205
0.308800,-0.337453
0.308900,-0.398475
0.309000,-0.378351
0.309100,-0.315057
0.309200,-0.285845
0.309300,-0.336804
0.309400,-0.644183
0.309500,-0.735066
0.309600,-0.669501
0.309700,-0.416327
0.309800,-0.298504
0.309900,-0.406265
0.310000,-0.637367
0.310100,-0.797710
0.310200,-0.733119
0.310300,-0.506236
0.310400,-0.310838
0.310500,-0.361797
0.310600,-0.486112
0.310700,-0.534799
0.310800,-0.519219
0.310900,-0.509482
0.311000,-0.464365
0.311100,-0.513701
0.311200,-0.556546
0.311300,-0.571801
0.311400,-0.532852
0.311500,-0.522790
0.311600,-0.569529
0.311700,-0.606856
0.311800,-0.556222
0.311900,-0.504613
0.312000,-0.448136
0.312100,-0.470207
0.312200,-0.615295
0.312300,-0.683782
0.312400,-0.678589
0.312500,-0.592899
0.312600,-0.531229
0.312700,-0.606856
0.312800,-0.616269
0.312900,-0.609778
0.313000,-0.609128
0.313100,-0.645806
0.313200,-0.663334
0.313300,-0.688976
0.313400,-0.695792
0.313500,-0.717539
0.313600,-0.735391
0.313700,-0.777262
0.313800,-0.808097
0.313900,-0.799983
0.314000,-0.865873
0.314100,-0.850293
0.314200,-0.939553
0.314300,-0.934684
0.314400,-1.060622
0.314500,-1.285557
0.314600,-1.616956
0.314700,-1.739324
0.314800,-1.488421
0.314900,-1.285882
0.315000,-1.208956
0.315100,-1.513414
0.315200,-1.876622
0.315300,-2.035019
0.315400,-1.943486
0.315500,-1.727639
0.315600,-1.656555
0.315700,-1.782169
0.315800,-2.047677
0.315900,-2.220680
0.316000,-2.256709
0.316100,-2.220680
0.316200,-2.217110
0.316300,-2.251516
0.316400,-2.293062
0.316500,-2.357654
0.316600,-2.353435
0.316700,-2.371287
0.316800,-2.397578
0.316900,-2.505989
0.317000,-2.538772
0.317100,-2.451784
0.317200,-2.434581
0.317300,-2.412834
0.317400,-2.465091
0.317500,-2.509884
0.317600,-2.399850
0.317700,-2.198284
0.317800,-2.078513
0.317900,-2.180107
0.318000,-2.366094
0.318100,-2.535526
0.318200,-2.437502
0.318300,-2.177835
0.318400,-1.966207
0.318500,-1.978541
0.318600,-2.174589
0.318700,-2.375831
0.318800,-2.388814
0.318900,-2.228795
0.319000,-2.054818
0.319100,-1.974322
0.319200,-1.967830
0.319300,-1.949978
0.319400,-1.935047
0.319500,-1.907133
0.319600,-1.868508
0.319700,-1.795152
0.319800,-1.711085
0.319900,-1.588717
0.320000,-1.392020
0.320100,-1.277118
0.320200,-1.268030
0.320300,-1.228106
0.320400,-1.208631
0.320500,-1.024593
0.320600,-0.853539
0.320700,-0.588355
0.320800,-0.508833
0.320900,-0.502341
0.321000,-0.441969
0.321100,-0.350112
0.321200,-0.253387
0.321300,-0.067726
0.321400,0.031271
0.321500,0.083529
0.321600,0.089047
0.321700,0.039386
0.321800,0.115338
0.321900,0.006928
0.322000,0.100407
0.322100,0.086450
0.322200,0.141305
0.322300,0.139032
0.322400,0.030947
0.322500,0.062107
0.322600,-0.124528
0.322700,0.043930
0.322800,0.090670
0.322900,0.534697
0.323000,0.606105
0.323100,0.438621
0.323200,-0.028127
0.323300,-0.169320
0.323400,0.068598
0.323500,0.270163
0.323600,0.467184
0.323700,0.363318
0.323800,0.134488
0.323900,-0.043707
0.324000,-0.060261
0.324100,0.095863
0.324200,0.154288
0.324300,0.195834
0.324400,0.078336
0.324500,0.035166
0.324600,-0.019688
0.324700,-0.062533
0.324800,-0.088824
0.324900,-0.153416
0.325000,-0.205349
0.325100,-0.249167
0.325200,-0.260203
0.325300,-0.422169
0.325400,-0.538370
0.325500,-0.599066
0.325600,-0.727601
0.325700,-0.691572
0.325800,-0.714618
0.325900,-0.655868
0.326000,-0.902875
0.326100,-1.185262
0.326200,-1.199543
0.326300,-1.067438
0.326400,-0.744479
0.326500,-0.735066
0.326600,-0.853539
0.326700,-1.152803
0.326800,-1.174875
0.326900,-1.065815
0.327000,-0.849644
0.327100,-0.714293
0.327200,-0.801605
0.327300,-0.881128
0.327400,-0.880154
0.327500,-0.852889
0.327600,-0.773367
0.327700,-0.771419
0.327800,-0.783104
0.327900,-0.783104
0.328000,-0.772393
0.328100,-0.702283
0.328200,-0.699687
0.328300,-0.688651
0.328400,-0.679887
0.328500,-0.601988
0.328600,-0.533501
0.328700,-0.465988
0.328800,-0.497148
0.328900,-0.607505
0.329000,-0.572451
0.329100,-0.541615
0.329200,-0.356928
0.329300,-0.332260
0.329400,-0.327391
0.329500,-0.273511
0.329600,-0.213463
0.329700,-0.184575
0.329800,-0.150819
0.329900,-0.144003
0.330000,-0.119659
0.330100,-0.106676
0.330200,-0.111869
0.330300,-0.101807
0.330400,-0.091745
0.330500,-0.064156
0.330600,-0.080709
0.330700,-0.098561
0.330800,-0.132318
0.330900,-0.132642
0.331000,-0.209568
0.331100,-0.255659
0.331200,-0.601338
0.331300,-0.861978
0.331400,-0.859056
0.331500,-0.646131
0.331600,-0.468260
0.331700,-0.626007
0.331800,-0.966818
0.331900,-1.347877
0.332000,-1.444603
0.332100,-1.339114
0.332200,-1.236546
0.332300,-1.298865
0.332400,-1.544899
0.332500,-1.783792
0.332600,-1.956145
0.332700,-1.969453
0.332800,-1.997692
0.332900,-2.086952
0.333000,-2.212241
0.333100,-2.319029
0.333200,-2.391411
0.333300,-2.433282
0.333400,-2.469311
0.333500,-2.556949
0.333600,-2.664386
0.333700,-2.779288
0.333800,-2.779613
0.333900,-2.813694
0.334000,-2.879910
0.334100,-2.994488
0.334200,-3.067195
0.334300,-2.930220
0.334400,-2.760787
0.334500,-2.819212
0.334600,-3.007796
0.334700,-3.272332
0.334800,-3.422939
0.334900,-3.267463
0.335000,-3.024025
0.335100,-2.924053
0.335200,-3.067195
0.335300,-3.322318
0.335400,-3.471302
0.335500,-3.404438
0.335600,-3.216828
0.335700,-3.125295
0.335800,-3.123672
0.335900,-3.167167
0.336000,-3.181773
0.336100,-3.134708
0.336200,-3.112636
0.336300,-3.057132
0.336400,-3.016235
0.336500,-2.911070
0.336600,-2.730276
0.336700,-2.587784
0.336800,-2.508586
0.336900,-2.490409
0.337000,-2.458275
0.337100,-2.373884
0.337200,-2.146351
0.337300,-2.032422
0.337400,-1.793204
0.337500,-1.738675
0.337600,-1.681873
0.337700,-1.605596
0.337800,-1.499457
0.337900,-1.354693
0.338000,-1.174550
0.338100,-1.115476
0.338200,-1.080421
0.338300,-1.091133
0.338400,-1.052507
0.338500,-1.017777
0.338600,-1.032383
0.338700,-0.972011
0.338800,-0.987266
0.338900,-0.894111
0.339000,-0.998951
0.339100,-0.909042
0.339200,-1.070035
0.339300,-0.918780
0.339400,-0.990837
0.339500,-0.676641
0.339600,-0.381921
0.339700,-0.307592
0.339800,-0.603286
0.339900,-0.988889
0.340000,-0.809720
0.340100,-0.690923
0.340200,-0.316356
0.340300,-0.271563
0.340400,-0.417950
0.340500,-0.605883
0.340600,-0.735715
0.340700,-0.608479
0.340800,-0.390685
0.340900,-0.279353
0.341000,-0.227420
0.341100,-0.321873
0.341200,-0.354981
0.341300,-0.373807
0.341400,-0.296556
0.341500,-0.268967
0.341600,-0.252413
0.341700,-0.303048
0.341800,-0.312785
0.341900,-0.342322
0.342000,-0.488059
0.342100,-0.433205
0.342200,-0.515324
0.342300,-0.535773
0.342400,-0.460794
0.342500,-0.426389
0.342600,-0.381272
0.342700,-0.744479
0.342800,-0.864899
0.342900,-0.836336
0.343000,-0.663334
0.343100,-0.415028
0.343200,-0.527334
0.343300,-0.742207
0.343400,-1.011610
0.343500,-1.017128
0.343600,-0.867171
0.343700,-0.679563
0.343800,-0.667229
0.343900,-0.840231
0.344000,-1.003496
0.344100,-1.005443
0.344200,-1.046016
0.344300,-0.961300
0.344400,-1.041147
0.344500,-1.115152
0.344600,-1.232651
0.344700,-1.282961
0.344800,-1.276469
0.344900,-1.315419
0.345000,-1.350149
0.345100,-1.332946
0.345200,-1.310550
0.345300,-1.290751
0.345400,-1.271925
0.345500,-1.408574
0.345600,-1.534188
0.345700,-1.543925
0.345800,-1.469596
0.345900,-1.408250
0.346000,-1.474464
0.346100,-1.519257
0.346200,-1.525748
0.346300,-1.516336
0.346400,-1.513090
0.346500,-1.503352
0.346600,-1.507247
0.346700,-1.518283
0.346800,-1.503028
0.346900,-1.519906
0.347000,-1.477710
0.347100,-1.480631
0.347200,-1.451094
0.347300,-1.474789
0.347400,-1.470894
0.347500,-1.472841
0.347600,-1.516985
0.347700,-1.542627
0.347800,-1.741920
0.347900,-1.995420
0.348000,-2.214513
0.348100,-2.036966
0.348200,-1.793854
0.348300,-1.660126
0.348400,-1.857472
0.348500,-2.202504
0.348600,-2.468013
0.348700,-2.445292
0.348800,-2.269043
0.348900,-2.124928
0.349000,-2.216785
0.349100,-2.428738
0.349200,-2.667307
0.349300,-2.700415
0.349400,-2.697818
0.349500,-2.652701
0.349600,-2.649130
0.349700,-2.704310
0.349800,-2.783184
0.349900,-2.824730
0.350000,-2.837714
0.350100,-2.820186
0.350200,-2.895814
0.350300,-2.907175
0.350400,-2.964626
0.350500,-2.938335
0.350600,-2.919833
0.350700,-3.002927
0.350800,-2.995137
0.350900,-2.986373
0.351000,-2.797465
0.351100,-2.683212
0.351200,-2.736119
0.351300,-2.898735
0.351400,-3.124971
0.351500,-3.134708
0.351600,-2.901657
0.351700,-2.678343
0.351800,-2.636796
0.351900,-2.827651
0.352000,-3.063300
0.352100,-3.163272
0.352200,-3.072713
0.352300,-2.918210
0.352400,-2.847776
0.352500,-2.852644
0.352600,-2.893867
0.352700,-2.933466
0.352800,-2.933141
0.352900,-2.909771
0.353000,-2.855566
0.353100,-2.787079
0.353200,-2.666009
0.353300,-2.512805
0.353400,-2.413807
0.353500,-2.394332
0.353600,-2.363821
0.353700,-2.346294
0.353800,-2.232690
0.353900,-2.028852
0.354000,-1.975295
0.354100,-1.698426
0.354200,-1.708164
0.354300,-1.639352
0.354400,-1.563725
0.354500,-1.424803
0.354600,-1.283935
0.354700,-1.128135
0.354800,-1.062245
0.354900,-1.026541
0.355000,-1.044393
0.355100,-0.993433
0.355200,-0.975906
0.355300,-0.954808
0.355400,-0.904173
0.355500,-0.849968
0.355600,-0.829195
0.355700,-0.825300
0.355800,-0.891515
0.355900,-0.850942
0.356000,-0.898655
0.356100,-0.684107
0.356200,-0.462742
0.356300,-0.149196
0.356400,-0.229043
0.356500,-0.589004
0.356600,-0.814589
0.356700,-0.567906
0.356800,-0.294933
0.356900,-0.082981
0.357000,-0.005406
0.357100,-0.204375
0.357200,-0.316031
0.357300,-0.384518
0.357400,-0.176136
0.357500,-0.079736
0.357600,0.071520
0.357700,0.013419
0.357800,-0.010924
0.357900,0.010823
0.358000,0.014718
0.358100,0.053992
0.358200,0.028350
0.358300,0.042307
0.358400,0.015042
0.358500,0.075414
0.358600,-0.003134
0.358700,-0.054418
0.358800,-0.131344
0.358900,-0.206647
0.359000,-0.205024
0.359100,-0.076490
0.359200,-0.125502
0.359300,-0.113817
0.359400,-0.432880
0.359500,-0.530580
0.359600,-0.466312
0.359700,-0.268642
0.359800,-0.127774
0.359900,-0.279353
0.360000,-0.546809
0.360100,-0.676317
0.360200,-0.632498
0.360300,-0.460470
0.360400,-0.339725
0.360500,-0.434179
0.360600,-0.596145
0.360700,-0.672422
0.360800,-0.692871
0.360900,-0.734742
0.361000,-0.707801
0.361100,-0.800307
0.361200,-0.858407
0.361300,-0.933061
0.361400,-0.965519
0.361500,-1.010636
0.361600,-1.082694
0.361700,-1.162541
0.361800,-1.147285
0.361900,-1.142741
0.362000,-1.132679
0.362100,-1.170655
0.362200,-1.366054
0.362300,-1.450770
0.362400,-1.464078
0.362500,-1.333920
0.362600,-1.363782
0.362700,-1.466999
0.362800,-1.507572
0.362900,-1.541328
0.363000,-1.552040
0.363100,-1.583200
0.363200,-1.608842
0.363300,-1.627667
0.363400,-1.668889
0.363500,-1.718226
0.363600,-1.727963
0.363700,-1.772431
0.363800,-1.798073
0.363900,-1.777625
0.364000,-1.832804
0.364100,-1.857472
0.364200,-1.928880
0.364300,-2.003859
0.364400,-2.090198
0.364500,-2.349215
0.364600,-2.666982
0.364700,-2.771823
0.364800,-2.473531
0.364900,-2.293711
0.365000,-2.257683
0.365100,-2.621865
0.365200,-2.994163
0.365300,-3.165219
0.365400,-3.046746
0.365500,-2.812071
0.365600,-2.752023
0.365700,-2.899385
0.365800,-3.146069
0.365900,-3.269411
0.366000,-3.300895
0.366100,-3.192484
0.366200,-3.170737
0.366300,-3.196055
0.366400,-3.261945
0.366500,-3.297974
0.366600,-3.300246
0.366700,-3.284991
0.366800,-3.268112
0.366900,-3.333354
0.367000,-3.374252
0.367100,-3.350881
0.367200,-3.310308
0.367300,-3.329134
0.367400,-3.395999
0.367500,-3.401841
0.367600,-3.337573
0.367700,-3.100951
0.367800,-3.008120
0.367900,-3.146393
0.368000,-3.364839
0.368100,-3.530701
0.368200,-3.433975
0.368300,-3.178202
0.368400,-2.978259
0.368500,-3.040254
0.368600,-3.273306
0.368700,-3.504735
0.368800,-3.550177
0.368900,-3.398595
0.369000,-3.234680
0.369100,-3.150937
0.369200,-3.187615
0.369300,-3.222021
0.369400,-3.219100
0.369500,-3.194756
0.369600,-3.126269
0.369700,-3.038956
0.369800,-2.953590
0.369900,-2.782210
0.370000,-2.631603
0.370100,-2.519297
0.370200,-2.486839
0.370300,-2.446915
0.370400,-2.401798
0.370500,-2.201205
0.370600,-2.029501
0.370700,-1.907458
0.370800,-1.712059
0.370900,-1.722445
0.371000,-1.671811
0.371100,-1.586445
0.371200,-1.440383
0.371300,-1.246932
0.371400,-1.156698
0.371500,-1.136250
0.371600,-1.107037
0.371700,-1.121968
0.371800,-1.075877
0.371900,-1.136899
0.372000,-1.073605
0.372100,-1.043744
0.372200,-1.023620
0.372300,-1.032383
0.372400,-1.106388
0.372500,-1.082044
0.372600,-1.193376
0.372700,-1.073281
0.372800,-1.013882
0.372900,-0.638665
0.373000,-0.577969
0.373100,-0.756489
0.373200,-1.211553
0.373300,-1.243037
0.373400,-1.054130
0.373500,-0.755839
0.373600,-0.604584
0.373700,-0.705529
0.373800,-0.932737
0.373900,-1.065166
0.374000,-0.987591
0.374100,-0.734092
0.374200,-0.637367
0.374300,-0.572451
0.374400,-0.634770
0.374500,-0.689300
0.374600,-0.688326
0.374700,-0.667878
0.374800,-0.634770
0.374900,-0.625682
0.375000,-0.653272
0.375100,-0.641911
0.375200,-0.640613
0.375300,-0.773042
0.375400,-0.899629
0.375500,-0.915858
0.375600,-0.905796
0.375700,-0.914235
0.375800,-0.829844
0.375900,-0.791543
0.376000,-0.944746
0.376100,-1.262512
0.376200,-1.212526
0.376300,-1.088861
0.376400,-0.790570
0.376500,-0.771419
0.376600,-0.907744
0.376700,-1.197596
0.376800,-1.292374
0.376900,-1.222588
0.377000,-0.991161
0.377100,-0.887295
0.377200,-1.000250
0.377300,-1.143066
0.377400,-1.211877
0.377500,-1.278092
0.377600,-1.232326
0.377700,-1.244011
0.377800,-1.275495
0.377900,-1.334569
0.378000,-1.385853
0.378100,-1.392020
0.378200,-1.423180
0.378300,-1.437787
0.378400,-1.426426
0.378500,-1.363782
0.378600,-1.326455
0.378700,-1.296269
0.378800,-1.383906
0.378900,-1.541328
0.379000,-1.579305
0.379100,-1.536460
0.379200,-1.372870
0.379300,-1.421557
0.379400,-1.491018
0.379500,-1.472517
0.379600,-1.486149
0.379700,-1.493290
0.379800,-1.537109
0.379900,-1.564698
0.380000,-1.601052
0.380100,-1.600078
0.380200,-1.635133
0.380300,-1.676679
0.380400,-1.654608
0.380500,-1.683496
0.380600,-1.693233
0.380700,-1.694856
0.380800,-1.727639
0.380900,-1.728288
0.381000,-1.823066
0.381100,-1.893501
0.381200,-2.231067
0.381300,-2.500471
0.381400,-2.446915
0.381500,-2.207048
0.381600,-1.920441
0.381700,-2.041835
0.381800,-2.350189
0.381900,-2.685159
0.382000,-2.750725
0.382100,-2.593302
0.382200,-2.368690
0.382300,-2.334934
0.382400,-2.492032
0.382500,-2.698792
0.382600,-2.795518
0.382700,-2.798764
0.382800,-2.739040
0.382900,-2.740988
0.383000,-2.736768
0.383100,-2.794869
0.383200,-2.808501
0.383300,-2.845179
0.383400,-2.883155
0.383500,-2.957161
0.383600,-3.014612
0.383700,-3.017858
0.383800,-2.978259
0.383900,-2.952292
0.384000,-3.063624
0.384100,-3.110040
0.384200,-3.136980
0.384300,-3.016559
0.384400,-2.840635
0.384500,-2.833819
0.384600,-3.015586
0.384700,-3.247988
0.384800,-3.372629
0.384900,-3.226241
0.385000,-2.977285
0.385100,-2.858162
0.385200,-2.988970
0.385300,-3.244418
0.385400,-3.401192
0.385500,-3.351855
0.385600,-3.203520
0.385700,-3.112312
0.385800,-3.078230
0.385900,-3.111987
0.386000,-3.143796
0.386100,-3.111987
0.386200,-3.092837
0.386300,-3.071739
0.386400,-3.034412
0.386500,-2.939633
0.386600,-2.741312
0.386700,-2.601417
0.386800,-2.542992
0.386900,-2.540070
0.387000,-2.541693
0.387100,-2.472881
0.387200,-2.253463
0.387300,-2.156413
0.387400,-1.924011
0.387500,-1.905510
0.387600,-1.863314
0.387700,-1.804889
0.387800,-1.699400
0.387900,-1.590665
0.388000,-1.390722
0.388100,-1.343658
0.388200,-1.295944
0.388300,-1.247581
0.388400,-1.278092
0.388500,-1.165137
0.388600,-1.250178
0.388700,-1.098923
0.388800,-1.112555
0.388900,-1.034980
0.389000,-1.028813
0.389100,-1.076851
0.389200,-1.057701
0.389300,-1.166111
0.389400,-0.973959
0.389500,-0.905147
0.389600,-0.394904
0.389700,-0.457549
0.389800,-0.742207
0.389900,-1.033682
0.390000,-1.072631
0.390100,-0.717214
0.390200,-0.537720
0.390300,-0.405291
0.390400,-0.543238
0.390500,-0.807773
0.390600,-0.801605
0.390700,-0.788622
0.390800,-0.486112
0.390900,-0.426389
0.391000,-0.383544
0.391100,-0.422169
0.391200,-0.442293
0.391300,-0.367964
0.391400,-0.387439
0.391500,-0.351086
0.391600,-0.359525
0.391700,-0.349788
0.391800,-0.310838
0.391900,-0.334208
0.392000,-0.356928
0.392100,-0.502341
0.392200,-0.512078
0.392300,-0.620813
0.392400,-0.497148
0.392500,-0.489358
0.392600,-0.394904
0.392700,-0.691248
0.392800,-0.919753
0.392900,-0.907744
0.393000,-0.741558
0.393100,-0.448136
0.393200,-0.541615
0.393300,-0.759410
0.393400,-1.078149
0.393500,-1.094703
0.393600,-0.958703
0.393700,-0.726627
0.393800,-0.718188
0.393900,-0.901252
0.394000,-1.055429
0.394100,-1.111581
0.394200,-1.129109
0.394300,-1.042445
0.394400,-1.122617
0.394500,-1.179094
0.394600,-1.262512
0.394700,-1.299514
0.394800,-1.252775
0.394900,-1.278741
0.395000,-1.287830
0.395100,-1.273548
0.395200,-1.218044
0.395300,-1.164488
0.395400,-1.105739
0.395500,-1.186884
0.395600,-1.248230
0.395700,-1.258293
0.395800,-1.219667
0.395900,-1.065166
0.396000,-1.080746
0.396100,-1.113529
0.396200,-1.069061
0.396300,-1.052183
0.396400,-1.052507
0.396500,-1.039524
0.396600,-1.021997
0.396700,-1.019725
0.396800,-1.016803
0.396900,-1.035305
0.397000,-1.027515
0.397100,-1.018102
0.397200,-1.018102
0.397300,-1.015830
0.397400,-1.023295
0.397500,-1.063868
0.397600,-1.079772
0.397700,-1.131056
0.397800,-1.222588
0.397900,-1.585796
0.398000,-1.729911
0.398100,-1.600727
0.398200,-1.286207
0.398300,-1.086589
0.398400,-1.273872
0.398500,-1.572813
0.398600,-1.869157
0.398700,-1.796450
0.398800,-1.584498
0.398900,-1.365080
0.399000,-1.424479
0.399100,-1.610789
0.399200,-1.794178
0.399300,-1.863314
0.399400,-1.827286
0.399500,-1.762369
0.399600,-1.771782
0.399700,-1.801968
0.399800,-1.877271
0.399900,-1.916871
0.400000,-1.924661
0.400100,-1.936346
0.400200,-2.012622
0.400300,-2.066503
0.400400,-2.124279
0.400500,-2.125902
0.400600,-2.127200
0.400700,-2.215487
0.400800,-2.272289
0.400900,-2.301826
0.401000,-2.168422
0.401100,-2.067802
0.401200,-2.135964
0.401300,-2.350838
0.401400,-2.644586
0.401500,-2.740988
0.401600,-2.575125
0.401700,-2.364471
0.401800,-2.323898
0.401900,-2.540395
0.402000,-2.851995
0.402100,-3.043500
0.402200,-3.010717
0.402300,-2.897112
0.402400,-2.814668
0.402500,-2.821809
0.402600,-2.889647
0.402700,-2.951643
0.402800,-2.980855
0.402900,-2.984426
0.403000,-2.924378
0.403100,-2.908798
0.403200,-2.822783
0.403300,-2.666982
0.403400,-2.584214
0.403500,-2.577073
0.403600,-2.605961
0.403700,-2.594276
0.403800,-2.516700
0.403900,-2.373559
0.404000,-2.317406
0.404100,-2.064231
0.404200,-2.087277
0.404300,-2.065854
0.404400,-2.035668
0.404500,-1.930828
0.404600,-1.874026
0.404700,-1.723419
0.404800,-1.694207
0.404900,-1.661424
0.405000,-1.661099
0.405100,-1.666617
0.405200,-1.671161
0.405300,-1.697453
0.405400,-1.608192
0.405500,-1.616956
0.405600,-1.521853
0.405700,-1.594560
0.405800,-1.549443
0.405900,-1.615333
0.406000,-1.582550
0.406100,-1.462130
0.406200,-1.130083
0.406300,-0.813615
0.406400,-0.870741
0.406500,-1.159944
0.406600,-1.381309
0.406700,-1.287180
0.406800,-0.958379
0.406900,-0.718512
0.407000,-0.633472
0.407100,-0.760384
0.407200,-0.902550
0.407300,-0.906445
0.407400,-0.754866
0.407500,-0.572775
0.407600,-0.477673
0.407700,-0.455601
0.407800,-0.511105
0.407900,-0.491305
0.408000,-0.421520
0.408100,-0.406914
0.408200,-0.406265
0.408300,-0.362771
0.408400,-0.353358
0.408500,-0.296232
0.408600,-0.386141
0.408700,-0.351735
0.408800,-0.477024
0.408900,-0.448460
0.409000,-0.492279
0.409100,-0.376403
0.409200,-0.350112
0.409300,-0.451706
0.409400,-0.734742
0.409500,-0.805176
0.409600,-0.747725
0.409700,-0.557844
0.409800,-0.430933
0.409900,-0.575372
0.410000,-0.802255
0.410100,-0.995056
0.410200,-0.968116
0.410300,-0.774016
0.410400,-0.667878
0.410500,-0.713319
0.410600,-0.860679
0.410700,-0.920727
0.410800,-0.908718
0.410900,-0.964221
0.411000,-0.947992
0.411100,-1.054130
0.411200,-1.083667
0.411300,-1.146636
0.411400,-1.181691
0.411500,-1.182016
0.411600,-1.262512
0.411700,-1.282312
0.411800,-1.288803
0.411900,-1.177472
0.412000,-1.099896
0.412100,-1.156374
0.412200,-1.369300
0.412300,-1.440059
0.412400,-1.486149
0.412500,-1.485176
0.412600,-1.492966
0.412700,-1.479982
0.412800,-1.472841
0.412900,-1.478035
0.413000,-1.451419
0.413100,-1.468946
0.413200,-1.462779
0.413300,-1.466999
0.413400,-1.477061
0.413500,-1.501405
0.413600,-1.541328
0.413700,-1.553013
0.413800,-1.562751
0.413900,-1.619228
0.414000,-1.643896
0.414100,-1.665643
0.414200,-1.710111
0.414300,-1.778274
0.414400,-1.841892
0.414500,-2.086303
0.414600,-2.436853
0.414700,-2.470934
0.414800,-2.319029
0.414900,-1.997043
0.415000,-1.999315
0.415100,-2.244699
0.415200,-2.662438
0.415300,-2.790649
0.415400,-2.738716
0.415500,-2.504366
0.415600,-2.435879
0.415700,-2.569283
0.415800,-2.805904
0.415900,-2.983127
0.416000,-2.959108
0.416100,-2.941905
0.416200,-2.925676
0.416300,-3.002602
0.416400,-3.071414
0.416500,-3.103548
0.416600,-3.092837
0.416700,-3.073362
0.416800,-3.161324
0.416900,-3.250585
0.417000,-3.339521
0.417100,-3.333678
0.417200,-3.308036
0.417300,-3.324915
0.417400,-3.459293
0.417500,-3.536544
0.417600,-3.521288
0.417700,-3.363540
0.417800,-3.267463
0.417900,-3.434300
0.418000,-3.670273
0.418100,-3.900080
0.418200,-3.825749
0.418300,-3.598215
0.418400,-3.444686
0.418500,-3.511226
0.418600,-3.769272
0.418700,-3.960453
0.418800,-3.976682
0.418900,-3.850743
0.419000,-3.715066
0.419100,-3.697214
0.419200,-3.724803
0.419300,-3.721233
0.419400,-3.703381
0.419500,-3.630674
0.419600,-3.591074
0.419700,-3.523561
0.419800,-3.455722
0.419900,-3.330433
0.420000,-3.146069
0.420100,-3.017533
0.420200,-2.946774
0.420300,-2.898086
0.420400,-2.888024
0.420500,-2.686458
0.420600,-2.529684
0.420700,-2.309941
0.420800,-2.156088
0.420900,-2.135639
0.421000,-2.083382
0.421100,-1.980164
0.421200,-1.818197
0.421300,-1.665643
0.421400,-1.600402
0.421500,-1.580927
0.421600,-1.538407
0.421700,-1.559180
0.421800,-1.498808
0.421900,-1.555935
0.422000,-1.453042
0.422100,-1.447199
0.422200,-1.414741
0.422300,-1.388775
0.422400,-1.468297
0.422500,-1.397538
0.422600,-1.540355
0.422700,-1.326130
0.422800,-1.312822
0.422900,-0.882102
0.423000,-0.761682
0.423100,-0.858407
0.423200,-1.362483
0.423300,-1.366378
0.423400,-1.128784
0.423500,-0.886321
0.423600,-0.620164
0.423700,-0.661711
0.423800,-0.914235
0.423900,-1.053806
0.424000,-0.963896
0.424100,-0.774016
0.424200,-0.559792
0.424300,-0.557844
0.424400,-0.607830
0.424500,-0.695467
0.424600,-0.650026
0.424700,-0.617892
0.424800,-0.554274
0.424900,-0.572451
0.425000,-0.558494
0.425100,-0.552002
0.425200,-0.563362
0.425300,-0.562713
0.425400,-0.653272
0.425500,-0.672097
0.425600,-0.733119
0.425700,-0.701634
0.425800,-0.592575
0.425900,-0.548756
0.426000,-0.664956
0.426100,-1.006741
0.426200,-0.965195
0.426300,-0.878531
0.426400,-0.591926
0.426500,-0.613997
0.426600,-0.761682
0.426700,-1.077825
0.426800,-1.149233
0.426900,-1.065815
0.427000,-0.812966
0.427100,-0.700985
0.427200,-0.839582
0.427300,-0.999601
0.427400,-1.065491
0.427500,-1.087238
0.427600,-1.038875
0.427700,-1.058999
0.427800,-1.120994
0.427900,-1.214799
0.428000,-1.169357
0.428100,-1.179744
0.428200,-1.209605
0.428300,-1.266407
0.428400,-1.294646
0.428500,-1.281662
0.428600,-1.268679
0.428700,-1.264784
0.428800,-1.349500
0.428900,-1.514388
0.429000,-1.553663
0.429100,-1.562426
0.429200,-1.550741
0.429300,-1.475763
0.429400,-1.530942
0.429500,-1.500756
0.429600,-1.534188
0.429700,-1.498159
0.429800,-1.496536
0.429900,-1.507572
0.430000,-1.528020
0.430100,-1.540030
0.430200,-1.548145
0.430300,-1.558531
0.430400,-1.562102
0.430500,-1.548145
0.430600,-1.568593
0.430700,-1.574111
0.430800,-1.626044
0.430900,-1.633510
0.431000,-1.714655
0.431100,-1.800021
0.431200,-2.061959
0.431300,-2.312213
0.431400,-2.253139
0.431500,-2.014570
0.431600,-1.803267
0.431700,-1.924661
0.431800,-2.261578
0.431900,-2.602066
0.432000,-2.673150
0.432100,-2.504691
0.432200,-2.313511
0.432300,-2.285921
0.432400,-2.440748
0.432500,-2.676071
0.432600,-2.804606
0.432700,-2.782534
0.432800,-2.721188
0.432900,-2.721188
0.433000,-2.730926
0.433100,-2.787403
0.433200,-2.851995
0.433300,-2.874067
0.433400,-2.876339
0.433500,-2.923079
0.433600,-2.978583
0.433700,-3.016559
0.433800,-2.974688
0.433900,-2.950020
0.434000,-2.987671
0.434100,-3.047720
0.434200,-3.053887
0.434300,-2.938984
0.434400,-2.730601
0.434500,-2.773771
0.434600,-2.940282
0.434700,-3.166193
0.434800,-3.284991
0.434900,-3.144446
0.435000,-2.913342
0.435100,-2.778964
0.435200,-2.881857
0.435300,-3.135357
0.435400,-3.315826
0.435500,-3.305115
0.435600,-3.176255
0.435700,-3.071739
0.435800,-3.052264
0.435900,-3.079204
0.436000,-3.117181
0.436100,-3.135033
0.436200,-3.139901
0.436300,-3.086994
0.436400,-3.038956
0.436500,-2.943203
0.436600,-2.754945
0.436700,-2.624462
0.436800,-2.548185
0.436900,-2.541369
0.437000,-2.505989
0.437100,-2.454705
0.437200,-2.205100
0.437300,-2.089224
0.437400,-1.801319
0.437500,-1.775677
0.437600,-1.730235
0.437700,-1.640001
0.437800,-1.525099
0.437900,-1.386503
0.438000,-1.198894
0.438100,-1.137548
0.438200,-1.056727
0.438300,-1.055429
0.438400,-1.013882
0.438500,-1.012259
0.438600,-0.971037
0.438700,-0.945395
0.438800,-0.815563
0.438900,-0.837959
0.439000,-0.812317
0.439100,-0.792517
0.439200,-0.869768
0.439300,-0.808097
0.439400,-0.816861
0.439500,-0.400747
0.439600,-0.218332
0.439700,-0.024232
0.439800,-0.397176
0.439900,-0.698388
0.440000,-0.632174
0.440100,-0.405291
0.440200,-0.084929
0.440300,-0.010924
0.440400,-0.154714
0.440500,-0.319926
0.440600,-0.433854
0.440700,-0.329988
0.440800,-0.176785
0.440900,-0.118036
0.441000,-0.217358
0.441100,-0.234886
0.441200,-0.304346
0.441300,-0.264747
0.441400,-0.314084
0.441500,-0.368289
0.441600,-0.427363
0.441700,-0.481243
0.441800,-0.499420
0.441900,-0.598093
0.442000,-0.678589
0.442100,-0.800956
0.442200,-0.920402
0.442300,-0.954159
0.442400,-0.934035
0.442500,-0.906770
0.442600,-0.998302
0.442700,-1.278741
0.442800,-1.498808
0.442900,-1.464727
0.443000,-1.248555
0.443100,-1.015180
0.443200,-1.093729
0.443300,-1.339763
0.443400,-1.587095
0.443500,-1.568593
0.443600,-1.378388
0.443700,-1.171629
0.443800,-1.137548
0.443900,-1.294970
0.444000,-1.417013
0.444100,-1.379686
0.444200,-1.360536
0.444300,-1.255696
0.444400,-1.325806
0.444500,-1.355343
0.444600,-1.421557
0.444700,-1.417338
0.444800,-1.331324
0.444900,-1.329051
0.445000,-1.351448
0.445100,-1.339114
0.445200,-1.222588
0.445300,-1.098923
0.445400,-1.085290
0.445500,-1.185262
0.445600,-1.299190
0.445700,-1.305357
0.445800,-1.254398
0.445900,-1.232651
0.446000,-1.124565
0.446100,-1.103791
0.446200,-1.031734
0.446300,-0.967142
0.446400,-0.941825
0.446500,-0.881777
0.446600,-0.845749
0.446700,-0.779858
0.446800,-0.722083
0.446900,-0.680536
0.447000,-0.663983
0.447100,-0.653921
0.447200,-0.657491
0.447300,-0.642560
0.447400,-0.624059
0.447500,-0.664956
0.447600,-0.688651
0.447700,-0.749023
0.447800,-0.919104
0.447900,-1.262188
0.448000,-1.445901
0.448100,-1.319314
0.448200,-1.110932
0.448300,-0.957729
0.448400,-1.216746
0.448500,-1.617930
0.448600,-1.866560
0.448700,-1.881166
0.448800,-1.651037
0.448900,-1.575085
0.449000,-1.676355
0.449100,-1.950952
0.449200,-2.218084
0.449300,-2.320976
0.449400,-2.333311
0.449500,-2.299554
0.449600,-2.415106
0.449700,-2.551431
0.449800,-2.688405
0.449900,-2.771498
0.450000,-2.814993
0.450100,-2.871795
0.450200,-2.975986
0.450300,-3.158078
0.450400,-3.223320
0.450500,-3.260647
0.450600,-3.292781
0.450700,-3.417421
0.450800,-3.502787
0.450900,-3.544334
0.451000,-3.436247
0.451100,-3.320046
0.451200,-3.420018
0.451300,-3.645280
0.451400,-3.953312
0.451500,-4.039976
0.451600,-3.815687
0.451700,-3.588478
0.451800,-3.568678
0.451900,-3.797835
0.452000,-4.077953
0.452100,-4.224666
0.452200,-4.158450
0.452300,-3.953636
0.452400,-3.822179
0.452500,-3.831917
0.452600,-3.880929
0.452700,-3.898457
0.452800,-3.866972
0.452900,-3.794589
0.453000,-3.664106
0.453100,-3.578740
0.453200,-3.461565
0.453300,-3.254480
0.453400,-3.098355
0.453500,-3.023700
0.453600,-2.961056
0.453700,-2.906525
0.453800,-2.715995
0.453900,-2.492681
0.454000,-2.379401
0.454100,-2.085654
0.454200,-2.061959
0.454300,-1.999639
0.454400,-1.934723
0.454500,-1.788336
0.454600,-1.614359
0.454700,-1.439085
0.454800,-1.357939
0.454900,-1.282312
0.455000,-1.302111
0.455100,-1.208631
0.455200,-1.244660
0.455300,-1.127810
0.455400,-1.099247
0.455500,-0.988889
0.455600,-1.029462
0.455700,-0.989538
0.455800,-0.993109
0.455900,-1.037577
0.456000,-0.942799
0.456100,-0.954808
0.456200,-0.529281
0.456300,-0.405291
0.456400,-0.334532
0.456500,-0.814589
0.456600,-1.050560
0.456700,-0.856460
0.456800,-0.543238
0.456900,-0.335181
0.457000,-0.308566
0.457100,-0.485787
0.457200,-0.663334
0.457300,-0.740259
0.457400,-0.550379
0.457500,-0.382895
0.457600,-0.265072
0.457700,-0.273511
0.457800,-0.346217
0.457900,-0.364069
0.458000,-0.464365
0.458100,-0.419897
0.458200,-0.413406
0.458300,-0.404642
0.458400,-0.466962
0.458500,-0.397176
0.458600,-0.497472
0.458700,-0.602961
0.458800,-0.616594
0.458900,-0.694493
0.459000,-0.728899
0.459100,-0.666255
0.459200,-0.657816
0.459300,-0.729224
0.459400,-1.102493
0.459500,-1.151505
0.459600,-1.158970
0.459700,-0.908718
0.459800,-0.817510
0.459900,-0.899954
0.460000,-1.206035
0.460100,-1.405328
0.460200,-1.400460
0.460300,-1.245958
0.460400,-1.116126
0.460500,-1.160593
0.460600,-1.332297
0.460700,-1.419285
0.460800,-1.466350
0.460900,-1.525748
0.461000,-1.500756
0.461100,-1.554636
0.461200,-1.542627
0.461300,-1.553987
0.461400,-1.571190
0.461500,-1.614035
0.461600,-1.669863
0.461700,-1.684794
0.461800,-1.663696
0.461900,-1.632536
0.462000,-1.597481
0.462100,-1.636106
0.462200,-1.822092
0.462300,-1.904861
0.462400,-1.898369
0.462500,-1.908107
0.462600,-1.799047
0.462700,-1.867209
0.462800,-1.865586
0.462900,-1.887658
0.463000,-1.882140
0.463100,-1.900641
0.463200,-1.914598
0.463300,-1.938293
0.463400,-1.927582
0.463500,-1.969778
0.463600,-1.961663
0.463700,-2.000613
0.463800,-1.960040
0.463900,-1.973023
0.464000,-2.000288
0.464100,-1.993148
0.464200,-2.035019
0.464300,-2.045405
0.464400,-2.097014
0.464500,-2.309616
0.464600,-2.618620
0.464700,-2.687756
0.464800,-2.415106
0.464900,-2.197959
0.465000,-2.147974
0.465100,-2.461196
0.465200,-2.792921
0.465300,-2.928922
0.465400,-2.817265
0.465500,-2.596872
0.465600,-2.522218
0.465700,-2.636472
0.465800,-2.817589
0.465900,-2.932168
0.466000,-2.982154
0.466100,-2.952941
0.466200,-2.939308
0.466300,-2.952616
0.466400,-3.000006
0.466500,-3.025972
0.466600,-3.036684
0.466700,-3.037657
0.466800,-3.107118
0.466900,-3.176580
0.467000,-3.222346
0.467100,-3.179501
0.467200,-3.167491
0.467300,-3.155157
0.467400,-3.245391
0.467500,-3.267139
0.467600,-3.235005
0.467700,-2.985075
0.467800,-2.916588
0.467900,-3.066221
0.468000,-3.308361
0.468100,-3.513498
0.468200,-3.451503
0.468300,-3.186317
0.468400,-3.035710
0.468500,-3.124971
0.468600,-3.340819
0.468700,-3.535895
0.468800,-3.546931
0.468900,-3.439818
0.469000,-3.333678
0.469100,-3.293755
0.469200,-3.302518
0.469300,-3.324915
0.469400,-3.305115
0.469500,-3.276876
0.469600,-3.270384
0.469700,-3.244418
0.469800,-3.177553
0.469900,-3.024674
0.470000,-2.831547
0.470100,-2.743260
0.470200,-2.711450
0.470300,-2.715345
0.470400,-2.704310
0.470500,-2.501769
0.470600,-2.338829
0.470700,-2.065854
0.470800,-2.013596
0.470900,-2.010675
0.471000,-1.961338
0.471100,-1.843839
0.471200,-1.721147
0.471300,-1.559830
0.471400,-1.514713
0.471500,-1.441682
0.471600,-1.450121
0.471700,-1.393319
0.471800,-1.409548
0.471900,-1.388450
0.472000,-1.394617
0.472100,-1.310226
0.472200,-1.288479
0.472300,-1.311199
0.472400,-1.285882
0.472500,-1.367028
0.472600,-1.346579
0.472700,-1.293997
0.472800,-1.118722
0.472900,-0.796412
0.473000,-0.643859
0.473100,-0.782455
0.473200,-1.205710
0.473300,-1.183314
0.473400,-1.099896
0.473500,-0.706178
0.473600,-0.586083
0.473700,-0.614322
0.473800,-0.781806
0.473900,-0.896708
0.474000,-0.832116
0.474100,-0.661711
0.474200,-0.477348
0.474300,-0.420871
0.474400,-0.499744
0.474500,-0.512078
0.474600,-0.481568
0.474700,-0.435802
0.474800,-0.432231
0.474900,-0.434828
0.475000,-0.466962
0.475100,-0.462742
0.475200,-0.450732
0.475300,-0.527983
0.475400,-0.621138
0.475500,-0.637042
0.475600,-0.737987
0.475700,-0.685730
0.475800,-0.640937
0.475900,-0.605558
0.476000,-0.773691
0.476100,-1.099247
0.476200,-1.093405
0.476300,-0.970388
0.476400,-0.661061
0.476500,-0.601988
0.476600,-0.765577
0.476700,-1.087562
0.476800,-1.162216
0.476900,-0.997328
0.477000,-0.765577
0.477100,-0.672746
0.477200,-0.843152
0.477300,-0.969414
0.477400,-0.945720
0.477500,-0.923973
0.477600,-0.887944
0.477700,-0.927219
0.477800,-0.983371
0.477900,-1.033682
0.478000,-1.045042
0.478100,-1.012908
0.478200,-1.016479
0.478300,-1.066464
0.478400,-1.087562
0.478500,-1.063219
0.478600,-1.032059
0.478700,-0.989214
0.478800,-1.084966
0.478900,-1.222588
0.479000,-1.254398
0.479100,-1.252125
0.479200,-1.095352
0.479300,-1.083667
0.479400,-1.112555
0.479500,-1.115801
0.479600,-1.098598
0.479700,-1.108336
0.479800,-1.098273
0.479900,-1.079448
0.480000,-1.067763
0.480100,-1.074579
0.480200,-1.076526
0.480300,-1.065166
0.480400,-1.059324
0.480500,-1.080097
0.480600,-1.062245
0.480700,-1.076851
0.480800,-1.051534
0.480900,-1.131056
0.481000,-1.172927
0.481100,-1.277767
0.481200,-1.588717
0.481300,-1.853577
0.481400,-1.785739
0.481500,-1.567295
0.481600,-1.408574
0.481700,-1.526722
0.481800,-1.853252
0.481900,-2.173940
0.482000,-2.267745
0.482100,-2.154141
0.482200,-1.945109
0.482300,-1.936995
0.482400,-2.105453
0.482500,-2.299554
0.482600,-2.484891
0.482700,-2.483917
0.482800,-2.441397
0.482900,-2.381024
0.483000,-2.424194
0.483100,-2.520271
0.483200,-2.603689
0.483300,-2.629655
0.483400,-2.636796
0.483500,-2.651402
0.483600,-2.745856
0.483700,-2.822134
0.483800,-2.826029
0.483900,-2.807852
0.484000,-2.851995
0.484100,-2.914315
0.484200,-2.986049
0.484300,-2.857189
0.484400,-2.704634
0.484500,-2.705283
0.484600,-2.919184
0.484700,-3.195405
0.484800,-3.291158
0.484900,-3.170412
0.485000,-2.912693
0.485100,-2.860434
0.485200,-3.000330
0.485300,-3.270060
0.485400,-3.472276
0.485500,-3.449231
0.485600,-3.308361
0.485700,-3.179501
0.485800,-3.164894
0.485900,-3.185343
0.486000,-3.231434
0.486100,-3.237926
0.486200,-3.170737
0.486300,-3.101925
0.486400,-3.005524
0.486500,-2.865952
0.486600,-2.723135
0.486700,-2.592328
0.486800,-2.521244
0.486900,-2.495927
0.487000,-2.453731
0.487100,-2.390762
0.487200,-2.174265
0.487300,-2.081110
0.487400,-1.927582
0.487500,-1.781195
0.487600,-1.747114
0.487700,-1.689013
0.487800,-1.553013
0.487900,-1.421233
0.488000,-1.207658
0.488100,-1.133004
0.488200,-1.019725
0.488300,-1.039849
0.488400,-0.982073
0.488500,-0.987266
0.488600,-0.951238
0.488700,-0.899629
0.488800,-0.808097
0.488900,-0.767524
0.489000,-0.738312
0.489100,-0.731496
0.489200,-0.687677
0.489300,-0.773367
0.489400,-0.601663
0.489500,-0.397176
0.489600,-0.061559
0.489700,-0.009950
0.489800,-0.280002
0.489900,-0.543887
0.490000,-0.428985
0.490100,-0.276757
0.490200,-0.029101
0.490300,0.133190
0.490400,0.038088
0.490500,-0.108623
0.490600,-0.177759
0.490700,-0.056366
0.490800,0.076713
0.490900,0.211414
0.491000,0.216283
0.491100,0.191290
0.491200,0.152989
0.491300,0.218555
0.491400,0.204273
0.491500,0.180904
0.491600,0.191939
0.491700,0.187395
0.491800,0.127997
0.491900,0.128321
0.492000,0.024780
0.492100,-0.053769
0.492200,-0.112843
0.492300,-0.207296
0.492400,-0.092070
0.492500,-0.097263
0.492600,-0.152766
0.492700,-0.481568
0.492800,-0.697415
0.492900,-0.654570
0.493000,-0.480919
0.493100,-0.334532
0.493200,-0.511754
0.493300,-0.688651
0.493400,-0.981749
0.493500,-0.982722
0.493600,-0.902226
0.493700,-0.766875
0.493800,-0.783104
0.493900,-0.961300
0.494000,-1.109634
0.494100,-1.147285
0.494200,-1.206035
0.494300,-1.219667
0.494400,-1.335543
0.494500,-1.388775
0.494600,-1.500756
0.494700,-1.545873
0.494800,-1.573787
0.494900,-1.639677
0.495000,-1.721472
0.495100,-1.761720
0.495200,-1.744192
0.495300,-1.735104
0.495400,-1.740622
0.495500,-1.880517
0.495600,-2.016517
0.495700,-2.028527
0.495800,-2.023658
0.495900,-1.874999
0.496000,-1.941214
0.496100,-1.980813
0.496200,-1.979190
0.496300,-1.983410
0.496400,-1.971725
0.496500,-1.986980
0.496600,-1.982112
0.496700,-1.982436
0.496800,-1.969778
0.496900,-1.969778
0.497000,-1.925959
0.497100,-1.944460
0.497200,-1.952250
0.497300,-1.949978
0.497400,-1.960040
0.497500,-1.952899
0.497600,-2.001262
0.497700,-2.004508
0.497800,-2.166150
0.497900,-2.458924
0.498000,-2.535526
0.498100,-2.455029
0.498200,-2.158360
0.498300,-2.077539
0.498400,-2.220356
0.498500,-2.524815
0.498600,-2.733847
0.498700,-2.716644
0.498800,-2.550782
0.498900,-2.418351
0.499000,-2.453082
0.499100,-2.623813
0.499200,-2.765656
0.499300,-2.840635
0.499400,-2.816616
0.499500,-2.765981
0.499600,-2.731899
0.499700,-2.774095
0.499800,-2.806878
0.499900,-2.836091
0.500000,-2.806554
0.500100,-2.793895
0.500200,-2.834468
0.500300,-2.918210
0.500400,-2.874067
0.500500,-2.738391
0.500600,-2.780262
0.500700,-2.820511
0.500800,-2.848425
0.500900,-2.773446
0.501000,-2.538772
0.501100,-2.413807
0.501200,-2.472881
0.501300,-2.709828
0.501400,-2.894840
0.501500,-2.853294
0.501600,-2.717618
0.501700,-2.492357
0.501800,-2.474504
0.501900,-2.641340
0.502000,-2.868224
0.502100,-2.994163
0.502200,-2.937361
0.502300,-2.807203
0.502400,-2.733522
0.502500,-2.779613
0.502600,-2.888998
0.502700,-2.925676
0.502800,-2.913017
0.502900,-2.918210
0.503000,-2.885752
0.503100,-2.877637
0.503200,-2.822134
0.503300,-2.691975
0.503400,-2.601417
0.503500,-2.565712
0.503600,-2.572204
0.503700,-2.583889
0.503800,-2.484242
0.503900,-2.303774
0.504000,-2.071372
0.504100,-1.947057
0.504200,-1.981138
0.504300,-1.968804
0.504400,-1.901940
0.504500,-1.766264
0.504600,-1.662722
0.504700,-1.509195
0.504800,-1.459534
0.504900,-1.460832
0.505000,-1.414417
0.505100,-1.429023
0.505200,-1.443304
0.505300,-1.421882
0.505400,-1.389099
0.505500,-1.345930
0.505600,-1.342684
0.505700,-1.370273
0.505800,-1.335543
0.505900,-1.486799
0.506000,-1.306331
0.506100,-1.335543
0.506200,-0.843801
0.506300,-0.720135
0.506400,-0.643209
0.506500,-1.087887
0.506600,-1.276794
0.506700,-1.017453
0.506800,-0.811343
0.506900,-0.505587
0.507000,-0.481568
0.507100,-0.607181
0.507200,-0.749023
0.507300,-0.817835
0.507400,-0.612699
0.507500,-0.436451
0.507600,-0.328365
0.507700,-0.307592
0.507800,-0.329988
0.507900,-0.315382
0.508000,-0.403668
0.508100,-0.372184
0.508200,-0.319601
0.508300,-0.286819
0.508400,-0.341024
0.508500,-0.345893
0.508600,-0.372833
0.508700,-0.493902
0.508800,-0.505911
0.508900,-0.567257
0.509000,-0.512078
0.509100,-0.488709
0.509200,-0.487735
0.509300,-0.548756
0.509400,-0.878207
0.509500,-0.877233
0.509600,-0.817510
0.509700,-0.532202
0.509800,-0.526685
0.509900,-0.611725
0.510000,-0.854188
0.510100,-1.035305
0.510200,-1.032383
0.510300,-0.889567
0.510400,-0.746751
0.510500,-0.724355
0.510600,-0.910990
0.510700,-1.023944
0.510800,-1.103467
0.510900,-1.119047
0.511000,-1.069061
0.511100,-1.144040
0.511200,-1.181691
0.511300,-1.259591
0.511400,-1.250503
0.511500,-1.289128
0.511600,-1.379037
0.511700,-1.415715
0.511800,-1.424803
0.511900,-1.415066
0.512000,-1.419610
0.512100,-1.472192
0.512200,-1.650713
0.512300,-1.749061
0.512400,-1.762045
0.512500,-1.754579
0.512600,-1.673758
0.512700,-1.745166
0.512800,-1.779247
0.512900,-1.801644
0.513000,-1.815276
0.513100,-1.854226
0.513200,-1.856823
0.513300,-1.913300
0.513400,-1.927582
0.513500,-1.942837
0.513600,-1.970102
0.513700,-2.001262
0.513800,-2.021711
0.513900,-2.003859
0.514000,-2.032097
0.514100,-2.020088
0.514200,-2.060985
0.514300,-2.096365
0.514400,-2.144079
0.514500,-2.360251
0.514600,-2.650104
0.514700,-2.668281
0.514800,-2.420624
0.514900,-2.149597
0.515000,-2.110971
0.515100,-2.307344
0.515200,-2.655947
0.515300,-2.687107
0.515400,-2.566686
0.515500,-2.321301
0.515600,-2.252489
0.515700,-2.262227
0.515800,-2.389464
0.515900,-2.504691
0.516000,-2.495927
0.516100,-2.451459
0.516200,-2.372910
0.516300,-2.340127
0.516400,-2.295334
0.516500,-2.327468
0.516600,-2.340451
0.516700,-2.298905
0.516800,-2.299554
0.516900,-2.367067
0.517000,-2.398552
0.517100,-2.313511
0.517200,-2.270017
0.517300,-2.318380
0.517400,-2.383621
0.517500,-2.369339
0.517600,-2.236585
0.517700,-2.069749
0.517800,-1.980489
0.517900,-2.116814
0.518000,-2.384919
0.518100,-2.493330
0.518200,-2.344022
0.518300,-2.170370
0.518400,-2.040861
0.518500,-2.057740
0.518600,-2.213215
0.518700,-2.367392
0.518800,-2.427440
0.518900,-2.397254
0.519000,-2.254112
0.519100,-2.179783
0.519200,-2.170694
0.519300,-2.257034
0.519400,-2.316757
0.519500,-2.302475
0.519600,-2.292738
0.519700,-2.262227
0.519800,-2.217759
0.519900,-2.169396
0.520000,-2.050923
0.520100,-2.039887
0.520200,-2.058713
0.520300,-2.090522
0.520400,-2.124928
0.520500,-1.955171
0.520600,-1.863639
0.520700,-1.622799
0.520800,-1.611438
0.520900,-1.660126
0.521000,-1.677653
0.521100,-1.630264
0.521200,-1.531915
0.521300,-1.468946
0.521400,-1.395266
0.521500,-1.387476
0.521600,-1.413118
0.521700,-1.461806
0.521800,-1.476736
0.521900,-1.545223
0.522000,-1.489720
0.522100,-1.473815
0.522200,-1.419285
0.522300,-1.467648
0.522400,-1.477061
0.522500,-1.517634
0.522600,-1.569242
0.522700,-1.478035
0.522800,-1.282312
0.522900,-0.972985
0.523000,-0.854512
0.523100,-1.109634
0.523200,-1.465701
0.523300,-1.499457
0.523400,-1.303085
0.523500,-0.985643
0.523600,-0.891839
0.523700,-0.922025
0.523800,-1.166436
0.523900,-1.261538
0.524000,-1.190455
0.524100,-1.054455
0.524200,-0.850617
0.524300,-0.758436
0.524400,-0.882102
0.524500,-0.890866
0.524600,-0.909367
0.524700,-0.822379
0.524800,-0.776288
0.524900,-0.767849
0.525000,-0.769796
0.525100,-0.805176
0.525200,-0.737663
0.525300,-0.782131
0.525400,-0.907419
0.525500,-0.970064
0.525600,-0.926570
0.525700,-0.856460
0.525800,-0.772393
0.525900,-0.776288
0.526000,-0.967791
0.526100,-1.244660
0.526200,-1.197596
0.526300,-1.064517
0.526400,-0.781157
0.526500,-0.838608
0.526600,-1.032708
0.526700,-1.229405
0.526800,-1.285233
0.526900,-1.223562
0.527000,-1.107362
0.527100,-1.032383
0.527200,-1.084641
0.527300,-1.177472
0.527400,-1.219018
0.527500,-1.225834
0.527600,-1.196946
0.527700,-1.187209
0.527800,-1.218693
0.527900,-1.263810
0.528000,-1.269653
0.528100,-1.241090
0.528200,-1.228756
0.528300,-1.252125
0.528400,-1.262837
0.528500,-1.203114
0.528600,-1.177147
0.528700,-1.147935
0.528800,-1.201491
0.528900,-1.322884
0.529000,-1.343333
0.529100,-1.334569
0.529200,-1.188183
0.529300,-1.190130
0.529400,-1.209930
0.529500,-1.178770
0.529600,-1.179094
0.529700,-1.177796
0.529800,-1.197596
0.529900,-1.185586
0.530000,-1.179094
0.530100,-1.177472
0.530200,-1.190779
0.530300,-1.185911
0.530400,-1.216097
0.530500,-1.227133
0.530600,-1.250827
0.530700,-1.247906
0.530800,-1.266732
0.530900,-1.311199
0.531000,-1.340087
0.531100,-1.452393
0.531200,-1.758474
0.531300,-2.010675
0.531400,-2.045730
0.531500,-1.790608
0.531600,-1.659152
0.531700,-1.717577
0.531800,-2.055467
0.531900,-2.387516
0.532000,-2.507937
0.532100,-2.420299
0.532200,-2.255086
0.532300,-2.281053
0.532400,-2.471908
0.532500,-2.714372
0.532600,-2.872120
0.532700,-2.901657
0.532800,-2.868224
0.532900,-2.849074
0.533000,-2.920807
0.533100,-3.035061
0.533200,-3.084398
0.533300,-3.083099
0.533400,-3.060054
0.533500,-3.130164
0.533600,-3.219425
0.533700,-3.203520
0.533800,-3.175281
0.533900,-3.229811
0.534000,-3.317449
0.534100,-3.364839
0.534200,-3.319397
0.534300,-3.141524
0.534400,-2.928922
0.534500,-2.950669
0.534600,-3.120751
0.534700,-3.396648
0.534800,-3.411254
0.534900,-3.223969
0.535000,-2.969819
0.535100,-2.886726
0.535200,-2.946449
0.535300,-3.101601
0.535400,-3.216828
0.535500,-3.216828
0.535600,-3.148990
0.535700,-2.980855
0.535800,-2.870821
0.535900,-2.841609
0.536000,-2.905227
0.536100,-2.912368
0.536200,-2.865628
0.536300,-2.766954
0.536400,-2.648806
0.536500,-2.513454
0.536600,-2.407316
0.536700,-2.245349
0.536800,-2.148947
0.536900,-2.038914
0.537000,-1.902589
0.537100,-1.775677
0.537200,-1.588393
0.537300,-1.486799
0.537400,-1.379362
0.537500,-1.145338
0.537600,-1.091457
0.537700,-1.011285
0.537800,-0.877233
0.537900,-0.723706
0.538000,-0.531553
0.538100,-0.403019
0.538200,-0.363420
0.538300,-0.348489
0.538400,-0.380623
0.538500,-0.339725
0.538600,-0.371535
0.538700,-0.257606
0.538800,-0.281625
0.538900,-0.248843
0.539000,-0.266370
0.539100,-0.316031
0.539200,-0.331611
0.539300,-0.382246
0.539400,-0.312785
0.539500,-0.042409
0.539600,0.126049
0.539700,0.254584
0.539800,-0.247220
0.539900,-0.448460
0.540000,-0.578618
0.540100,-0.283573
0.540200,-0.119335
0.540300,-0.114466
0.540400,-0.188470
0.540500,-0.507534
0.540600,-0.606532
0.540700,-0.635095
0.540800,-0.498446
0.540900,-0.413406
0.541000,-0.395229
0.541100,-0.482866
0.541200,-0.633797
0.541300,-0.702283
0.541400,-0.717539
0.541500,-0.707152
0.541600,-0.737338
0.541700,-0.789921
0.541800,-0.805500
0.541900,-0.901901
0.542000,-0.952861
0.542100,-1.168059
0.542200,-1.146636
0.542300,-1.165787
0.542400,-1.028813
0.542500,-1.000574
0.542600,-1.103467
0.542700,-1.388775
0.542800,-1.620202
0.542900,-1.521853
0.543000,-1.331324
0.543100,-1.177796
0.543200,-1.269004
0.543300,-1.478684
0.543400,-1.617281
0.543500,-1.630913
0.543600,-1.564374
0.543700,-1.471868
0.543800,-1.438111
0.543900,-1.449147
0.544000,-1.495238
0.544100,-1.556584
0.544200,-1.686741
0.544300,-1.656231
0.544400,-1.700698
0.544500,-1.698102
0.544600,-1.755228
0.544700,-1.808460
0.544800,-1.829558
0.544900,-1.885386
0.545000,-1.917844
0.545100,-1.906159
0.545200,-1.871104
0.545300,-1.861367
0.545400,-1.847734
0.545500,-1.969778
0.545600,-2.059687
0.545700,-2.058713
0.545800,-2.064556
0.545900,-1.932775
0.546000,-1.985358
0.546100,-1.998341
0.546200,-1.985682
0.546300,-1.983085
0.546400,-1.966856
0.546500,-1.946083
0.546600,-1.926933
0.546700,-1.894799
0.546800,-1.874675
0.546900,-1.851305
0.547000,-1.841567
0.547100,-1.800994
0.547200,-1.818522
0.547300,-1.828259
0.547400,-1.855524
0.547500,-1.862016
0.547600,-1.897396
0.547700,-1.936995
0.547800,-2.075592
0.547900,-2.400499
0.548000,-2.535202
0.548100,-2.400175
0.548200,-2.153816
0.548300,-2.041835
0.548400,-2.214838
0.548500,-2.481321
0.548600,-2.708854
0.548700,-2.681264
0.548800,-2.514753
0.548900,-2.371936
0.549000,-2.405693
0.549100,-2.527087
0.549200,-2.681913
0.549300,-2.763708
0.549400,-2.737742
0.549500,-2.686133
0.549600,-2.664061
0.549700,-2.719565
0.549800,-2.797141
0.549900,-2.779288
0.550000,-2.733198
0.550100,-2.757866
0.550200,-2.850372
0.550300,-2.977934
0.550400,-2.874067
0.550500,-2.861084
0.550600,-2.909447
0.550700,-2.992216
0.550800,-3.037333
0.550900,-3.010717
0.551000,-2.805255
0.551100,-2.660491
0.551200,-2.799413
0.551300,-2.989619
0.551400,-3.239549
0.551500,-3.199300
0.551600,-2.972741
0.551700,-2.854592
0.551800,-2.849074
0.551900,-2.981504
0.552000,-3.144446
0.552100,-3.206766
0.552200,-3.222021
0.552300,-3.130813
0.552400,-3.045123
0.552500,-2.991242
0.552600,-2.999032
0.552700,-3.038956
0.552800,-3.054211
0.552900,-3.023700
0.553000,-2.971118
0.553100,-2.921456
0.553200,-2.845828
0.553300,-2.694572
0.553400,-2.579669
0.553500,-2.526762
0.553600,-2.500471
0.553700,-2.481321
0.553800,-2.368690
0.553900,-2.178484
0.554000,-1.992174
0.554100,-1.794178
0.554200,-1.786713
0.554300,-1.749386
0.554400,-1.659152
0.554500,-1.510493
0.554600,-1.391371
0.554700,-1.262837
0.554800,-1.206359
0.554900,-1.192727
0.555000,-1.192078
0.555100,-1.161892
0.555200,-1.185586
0.555300,-1.168059
0.555400,-1.098598
0.555500,-1.129109
0.555600,-1.106713
0.555700,-1.121643
0.555800,-1.112880
0.555900,-1.176498
0.556000,-1.157347
0.556100,-1.050884
0.556200,-0.696116
0.556300,-0.533825
0.556400,-0.500393
0.556500,-0.904498
0.556600,-1.028488
0.556700,-0.983047
0.556800,-0.657491
0.556900,-0.444890
0.557000,-0.397176
0.557100,-0.441969
0.557200,-0.666255
0.557300,-0.688651
0.557400,-0.568880
0.557500,-0.323496
0.557600,-0.243325
0.557700,-0.193339
0.557800,-0.285845
0.557900,-0.318628
0.558000,-0.321873
0.558100,-0.286170
0.558200,-0.213139
0.558300,-0.229043
0.558400,-0.257282
0.558500,-0.199182
0.558600,-0.255334
0.558700,-0.399773
0.558800,-0.488709
0.558900,-0.452355
0.559000,-0.484814
0.559100,-0.340050
0.559200,-0.390685
0.559300,-0.486112
0.559400,-0.751295
0.559500,-0.802579
0.559600,-0.733768
0.559700,-0.518245
0.559800,-0.446837
0.559900,-0.635420
0.560000,-0.799009
0.560100,-0.940527
0.560200,-0.924297
0.560300,-0.800632
0.560400,-0.688002
0.560500,-0.685405
0.560600,-0.784078
0.560700,-0.876584
0.560800,-0.951238
0.560900,-0.977854
0.561000,-0.929166
0.561100,-0.963247
0.561200,-1.008364
0.561300,-1.109309
0.561400,-1.112880
0.561500,-1.110283
0.561600,-1.157997
0.561700,-1.170980
0.561800,-1.191429
0.561900,-1.185262
0.562000,-1.189481
0.562100,-1.200517
0.562200,-1.359238
0.562300,-1.446875
0.562400,-1.469271
0.562500,-1.419935
0.562600,-1.355343
0.562700,-1.397538
0.562800,-1.429672
0.562900,-1.439409
0.563000,-1.442655
0.563100,-1.462130
0.563200,-1.457911
0.563300,-1.464402
0.563400,-1.485176
0.563500,-1.497834
0.563600,-1.502054
0.563700,-1.521853
0.563800,-1.535810
0.563900,-1.588068
0.564000,-1.593586
0.564100,-1.650388
0.564200,-1.686741
0.564300,-1.793854
0.564400,-1.851954
0.564500,-2.107725
0.564600,-2.456977
0.564700,-2.536175
0.564800,-2.341425
0.564900,-2.149597
0.565000,-2.071697
0.565100,-2.325521
0.565200,-2.661465
0.565300,-2.834143
0.565400,-2.785456
0.565500,-2.615698
0.565600,-2.500147
0.565700,-2.558896
0.565800,-2.759489
0.565900,-2.885752
0.566000,-3.015586
0.566100,-2.957161
0.566200,-2.928922
0.566300,-2.934115
0.566400,-2.979232
0.566500,-3.080178
0.566600,-3.086345
0.566700,-3.060703
0.566800,-3.101276
0.566900,-3.210985
0.567000,-3.228513
0.567100,-3.182422
0.567200,-3.162298
0.567300,-3.235005
0.567400,-3.305764
0.567500,-3.288561
0.567600,-3.213258
0.567700,-2.984101
0.567800,-2.976960
0.567900,-3.090240
0.568000,-3.346986
0.568100,-3.434624
0.568200,-3.297650
0.568300,-3.134708
0.568400,-3.043500
0.568500,-3.067844
0.568600,-3.204494
0.568700,-3.341144
0.568800,-3.421641
0.568900,-3.389832
0.569000,-3.285965
0.569100,-3.185343
0.569200,-3.140875
0.569300,-3.190537
0.569400,-3.235329
0.569500,-3.245067
0.569600,-3.191835
0.569700,-3.123023
0.569800,-3.004874
0.569900,-2.823756
0.570000,-2.682238
0.570100,-2.640042
0.570200,-2.625760
0.570300,-2.610180
0.570400,-2.577073
0.570500,-2.434581
0.570600,-2.279754
0.570700,-2.234637
0.570800,-1.990875
0.570900,-2.001587
0.571000,-1.941863
0.571100,-1.824364
0.571200,-1.708813
0.571300,-1.592612
0.571400,-1.469596
0.571500,-1.429997
0.571600,-1.416364
0.571700,-1.391371
0.571800,-1.405653
0.571900,-1.411171
0.572000,-1.380660
0.572100,-1.326779
0.572200,-1.307304
0.572300,-1.248230
0.572400,-1.320288
0.572500,-1.288803
0.572600,-1.339763
0.572700,-1.292049
0.572800,-1.055753
0.572900,-0.803878
0.573000,-0.515324
0.573100,-0.772069
0.573200,-1.003171
0.573300,-1.099247
0.573400,-0.836336
0.573500,-0.640288
0.573600,-0.452031
0.573700,-0.456575
0.573800,-0.583162
0.573900,-0.675019
0.574000,-0.616918
0.574100,-0.408212
0.574200,-0.320900
0.574300,-0.272212
0.574400,-0.272212
0.574500,-0.234236
0.574600,-0.265721
0.574700,-0.254360
0.574800,-0.235535
0.574900,-0.207621
0.575000,-0.224174
0.575100,-0.195287
0.575200,-0.165101
0.575300,-0.167373
0.575400,-0.392957
0.575500,-0.451382
0.575600,-0.494226
0.575700,-0.373157
0.575800,-0.341998
0.575900,-0.404966
0.576000,-0.659114
0.576100,-0.956756
0.576200,-0.932737
0.576300,-0.825300
0.576400,-0.561415
0.576500,-0.702283
0.576600,-0.912613
0.576700,-1.123915
0.576800,-1.214149
0.576900,-1.127161
0.577000,-1.030111
0.577100,-0.978178
0.577200,-1.088536
0.577300,-1.240441
0.577400,-1.291075
0.577500,-1.327429
0.577600,-1.301137
0.577700,-1.322560
0.577800,-1.416040
0.577900,-1.483877
0.578000,-1.546197
0.578100,-1.510168
0.578200,-1.506273
0.578300,-1.571190
0.578400,-1.603648
0.578500,-1.587744
0.578600,-1.529968
0.578700,-1.475763
0.578800,-1.534837
0.578900,-1.658827
0.579000,-1.684469
0.579100,-1.659801
0.579200,-1.498808
0.579300,-1.512765
0.579400,-1.513090
0.579500,-1.490694
0.579600,-1.462779
0.579700,-1.435514
0.579800,-1.429997
0.579900,-1.389099
0.580000,-1.379362
0.580100,-1.342359
0.580200,-1.347877
0.580300,-1.326130
0.580400,-1.302436
0.580500,-1.286531
0.580600,-1.265433
0.580700,-1.264784
0.580800,-1.263161
0.580900,-1.303409
0.581000,-1.355667
0.581100,-1.424479
0.581200,-1.704269
0.581300,-1.966856
0.581400,-1.884412
0.581500,-1.600402
0.581600,-1.447524
0.581700,-1.524450
0.581800,-1.908756
0.581900,-2.190819
0.582000,-2.277482
0.582100,-2.136938
0.582200,-1.951601
0.582300,-2.000613
0.582400,-2.163878
0.582500,-2.407316
0.582600,-2.471908
0.582700,-2.500796
0.582800,-2.462495
0.582900,-2.464118
0.583000,-2.529034
0.583100,-2.598495
0.583200,-2.670228
0.583300,-2.660166
0.583400,-2.655297
0.583500,-2.711450
0.583600,-2.816940
0.583700,-2.839012
0.583800,-2.830248
0.583900,-2.815642
0.584000,-2.922755
0.584100,-2.948721
0.584200,-2.973714
0.584300,-2.833819
0.584400,-2.647832
0.584500,-2.640042
0.584600,-2.807852
0.584700,-3.080178
0.584800,-3.107118
0.584900,-2.947748
0.585000,-2.725083
0.585100,-2.603040
0.585200,-2.717618
0.585300,-2.976311
0.585400,-3.126269
0.585500,-3.157754
0.585600,-2.967547
0.585700,-2.821809
0.585800,-2.819861
0.585900,-2.910745
0.586000,-2.958783
0.586100,-2.948721
0.586200,-2.908798
0.586300,-2.847127
0.586400,-2.800386
0.586500,-2.677045
0.586600,-2.510209
0.586700,-2.418676
0.586800,-2.364146
0.586900,-2.311564
0.587000,-2.299879
0.587100,-2.232365
0.587200,-2.037291
0.587300,-1.927257
0.587400,-1.729262
0.587500,-1.593586
0.587600,-1.560479
0.587700,-1.511142
0.587800,-1.408250
0.587900,-1.245958
0.588000,-1.124240
0.588100,-1.001873
0.588200,-0.978178
0.588300,-0.983047
0.588400,-0.970064
0.588500,-0.945071
0.588600,-0.953510
0.588700,-0.888918
0.588800,-0.854512
0.588900,-0.809395
0.589000,-0.874961
0.589100,-0.805825
0.589200,-0.955133
0.589300,-0.860679
0.589400,-0.901577
0.589500,-0.518895
0.589600,-0.355955
0.589700,-0.190742
0.589800,-0.586083
0.589900,-0.918455
0.590000,-0.828546
0.590100,-0.650675
0.590200,-0.324470
0.590300,-0.252088
0.590400,-0.305644
0.590500,-0.501692
0.590600,-0.614646
0.590700,-0.503964
0.590800,-0.345893
0.590900,-0.224174
0.591000,-0.226122
0.591100,-0.193339
0.591200,-0.255659
0.591300,-0.354981
0.591400,-0.378675
0.591500,-0.339076
0.591600,-0.289091
0.591700,-0.318628
0.591800,-0.428661
0.591900,-0.397176
0.592000,-0.603611
0.592100,-0.670150
0.592200,-0.724680
0.592300,-0.728575
0.592400,-0.691897
0.592500,-0.747076
0.592600,-0.769147
0.592700,-1.048937
0.592800,-1.197271
0.592900,-1.164488
0.593000,-0.996030
0.593100,-0.812317
0.593200,-0.938579
0.593300,-1.086264
0.593400,-1.362159
0.593500,-1.414092
0.593600,-1.300164
0.593700,-1.136899
0.593800,-1.066140
0.593900,-1.194025
0.594000,-1.326779
0.594100,-1.339114
0.594200,-1.411171
0.594300,-1.360536
0.594400,-1.367352
0.594500,-1.374818
0.594600,-1.428374
0.594700,-1.411171
0.594800,-1.432269
0.594900,-1.468946
0.595000,-1.491343
0.595100,-1.451419
0.595200,-1.412794
0.595300,-1.392020
0.595400,-1.350798
0.595500,-1.476087
0.595600,-1.574111
0.595700,-1.577032
0.595800,-1.558531
0.595900,-1.404679
0.596000,-1.474789
0.596100,-1.462455
0.596200,-1.444927
0.596300,-1.480631
0.596400,-1.477386
0.596500,-1.491343
0.596600,-1.465376
0.596700,-1.483877
0.596800,-1.495887
0.596900,-1.494264
0.597000,-1.516011
0.597100,-1.541004
0.597200,-1.528994
0.597300,-1.542951
0.597400,-1.562751
0.597500,-1.582226
0.597600,-1.643896
0.597700,-1.694856
0.597800,-1.864288
0.597900,-2.186599
0.598000,-2.368690
0.598100,-2.215162
0.598200,-1.985358
0.598300,-1.933749
0.598400,-2.118112
0.598500,-2.449187
0.598600,-2.708529
0.598700,-2.660491
0.598800,-2.538123
0.598900,-2.405693
0.599000,-2.449836
0.599100,-2.607908
0.599200,-2.780587
0.599300,-2.890945
0.599400,-2.873093
0.599500,-2.836091
0.599600,-2.827651
0.599700,-2.829274
0.599800,-2.850372
0.599900,-2.899060
0.600000,-2.910745
0.600100,-2.889647
0.600200,-2.922430
0.600300,-3.055510
0.600400,-2.988321
0.600500,-2.950344
0.600600,-2.939633
0.600700,-2.997084
0.600800,-3.028894
0.600900,-2.986698
0.601000,-2.787403
0.601100,-2.686133
0.601200,-2.742935
0.601300,-3.000979
0.601400,-3.206117
0.601500,-3.172360
0.601600,-3.027920
0.601700,-2.807203
0.601800,-2.794544
0.601900,-2.943853
0.602000,-3.179825
0.602100,-3.318748
0.602200,-3.248313
0.602300,-3.112961
0.602400,-3.025648
0.602500,-3.018182
0.602600,-3.021753
0.602700,-3.023051
0.602800,-3.020454
0.602900,-3.016559
0.603000,-2.961705
0.603100,-2.906525
0.603200,-2.785780
0.603300,-2.539097
0.603400,-2.417378
0.603500,-2.395955
0.603600,-2.365769
0.603700,-2.335583
0.603800,-2.209644
0.603900,-2.027878
0.604000,-1.951601
0.604100,-1.729911
0.604200,-1.676679
0.604300,-1.630589
0.604400,-1.533214
0.604500,-1.389099
0.604600,-1.292698
0.604700,-1.145013
0.604800,-1.100546
0.604900,-1.018426
0.605000,-1.089185
0.605100,-1.002846
0.605200,-1.061596
0.605300,-1.024918
0.605400,-0.978178
0.605500,-0.995056
0.605600,-0.916832
0.605700,-0.965844
0.605800,-0.918455
0.605900,-1.002846
0.606000,-0.976555
0.606100,-0.888593
0.606200,-0.666579
0.606300,-0.283248
0.606400,-0.464365
0.606500,-0.700011
0.606600,-0.966818
0.606700,-0.814264
0.606800,-0.554599
0.606900,-0.403019
0.607000,-0.328690
0.607100,-0.530580
0.607200,-0.642236
0.607300,-0.667553
0.607400,-0.543238
0.607500,-0.347515
0.607600,-0.325768
0.607700,-0.309864
0.607800,-0.422494
0.607900,-0.362771
0.608000,-0.397176
0.608100,-0.396527
0.608200,-0.390685
0.608300,-0.385492
0.608400,-0.434503
0.608500,-0.465014
0.608600,-0.457224
0.608700,-0.588031
0.608800,-0.601988
0.608900,-0.710398
0.609000,-0.739286
0.609100,-0.617892
0.609200,-0.621463
0.609300,-0.653272
0.609400,-1.030436
0.609500,-1.104441
0.609600,-1.036603
0.609700,-0.709749
0.609800,-0.684107
0.609900,-0.727925
0.610000,-1.046665
0.610100,-1.247581
0.610200,-1.204736
0.610300,-1.025892
0.610400,-0.841204
0.610500,-0.918780
0.610600,-1.068412
0.610700,-1.166111
0.610800,-1.171629
0.610900,-1.194350
0.611000,-1.161892
0.611100,-1.217720
0.611200,-1.246608
0.611300,-1.298216
0.611400,-1.303085
0.611500,-1.319314
0.611600,-1.377090
0.611700,-1.406951
0.611800,-1.407276
0.611900,-1.351448
0.612000,-1.336841
0.612100,-1.370923
0.612200,-1.517958
0.612300,-1.583524
0.612400,-1.597806
0.612500,-1.562426
0.612600,-1.476412
0.612700,-1.521529
0.612800,-1.534837
0.612900,-1.512441
0.613000,-1.517634
0.613100,-1.502378
0.613200,-1.480307
0.613300,-1.501729
0.613400,-1.509519
0.613500,-1.523152
0.613600,-1.537758
0.613700,-1.532565
0.613800,-1.566646
0.613900,-1.574760
0.614000,-1.611763
0.614100,-1.642598
0.614200,-1.686417
0.614300,-1.757176
0.614400,-1.791906
0.614500,-2.063582
0.614600,-2.357330
0.614700,-2.464767
0.614800,-2.265148
0.614900,-2.011324
0.615000,-1.997367
0.615100,-2.212566
0.615200,-2.591354
0.615300,-2.739040
0.615400,-2.663087
0.615500,-2.505989
0.615600,-2.383296
0.615700,-2.457626
0.615800,-2.685159
0.615900,-2.887700
0.616000,-2.912043
0.616100,-2.829924
0.616200,-2.760463
0.616300,-2.797790
0.616400,-2.869847
0.616500,-2.905552
0.616600,-2.924378
0.616700,-2.912043
0.616800,-2.900683
0.616900,-2.904253
0.617000,-3.080827
0.617100,-3.010392
0.617200,-2.963652
0.617300,-2.951967
0.617400,-3.002602
0.617500,-3.056483
0.617600,-2.959108
0.617700,-2.736119
0.617800,-2.621541
0.617900,-2.736119
0.618000,-3.000655
0.618100,-3.119777
0.618200,-3.057132
0.618300,-2.788377
0.618400,-2.574801
0.618500,-2.623488
0.618600,-2.804931
0.618700,-3.022727
0.618800,-3.086670
0.618900,-2.988645
0.619000,-2.851671
0.619100,-2.751699
0.619200,-2.735470
0.619300,-2.790000
0.619400,-2.810124
0.619500,-2.827651
0.619600,-2.785131
0.619700,-2.715021
0.619800,-2.618295
0.619900,-2.508586
0.620000,-2.369015
0.620100,-2.297931
0.620200,-2.252814
0.620300,-2.246971
0.620400,-2.221005
0.620500,-2.038589
0.620600,-1.889930
0.620700,-1.618579
0.620800,-1.523152
0.620900,-1.526398
0.621000,-1.494588
0.621100,-1.429023
0.621200,-1.304383
0.621300,-1.169357
0.621400,-1.107362
0.621500,-1.026216
0.621600,-1.075228
0.621700,-1.035629
0.621800,-1.057701
0.621900,-1.094379
0.622000,-1.046340
0.622100,-0.978503
0.622200,-0.927543
0.622300,-0.912613
0.622400,-0.928517
0.622500,-0.968765
0.622600,-1.020374
0.622700,-0.983047
0.622800,-0.814913
0.622900,-0.417625
0.623000,-0.348814
0.623100,-0.394904
0.623200,-0.862951
0.623300,-0.881453
0.623400,-0.782131
0.623500,-0.449759
0.623600,-0.319601
0.623700,-0.261826
0.623800,-0.426064
0.623900,-0.568880
0.624000,-0.518895
0.624100,-0.402694
0.624200,-0.257606
0.624300,-0.188795
0.624400,-0.182303
0.624500,-0.195611
0.624600,-0.218007
0.624700,-0.209893
0.624800,-0.239105
0.624900,-0.242026
0.625000,-0.234236
0.625100,-0.210217
0.625200,-0.212165
0.625300,-0.278380
0.625400,-0.340375
0.625500,-0.488059
0.625600,-0.457549
0.625700,-0.434503
0.625800,-0.299477
0.625900,-0.408537
0.626000,-0.558494
0.626100,-0.876909
0.626200,-0.845424
0.626300,-0.668527
0.626400,-0.484814
0.626500,-0.508183
0.626600,-0.636393
0.626700,-0.945071
0.626800,-1.012908
0.626900,-0.913911
0.627000,-0.735391
0.627100,-0.710723
0.627200,-0.813940
0.627300,-0.934360
0.627400,-0.950913
0.627500,-0.978503
0.627600,-0.976555
0.627700,-0.978503
0.627800,-1.037901
0.627900,-1.076526
0.628000,-1.062894
0.628100,-1.030760
0.628200,-1.057701
0.628300,-1.109634
0.628400,-1.146636
0.628500,-1.102168
0.628600,-1.062569
0.628700,-1.004794
0.628800,-1.060947
0.628900,-1.190130
0.629000,-1.221290
0.629100,-1.226159
0.629200,-1.179744
0.629300,-1.090808
0.629400,-1.120345
0.629500,-1.096651
0.629600,-1.108011
0.629700,-1.094054
0.629800,-1.080746
0.629900,-1.069061
0.630000,-1.063219
0.630100,-1.086589
0.630200,-1.066140
0.630300,-1.085290
0.630400,-1.048612
0.630500,-1.072631
0.630600,-1.063868
0.630700,-1.093405
0.630800,-1.071658
0.630900,-1.164813
0.631000,-1.177147
0.631100,-1.293023
0.631200,-1.535486
0.631300,-1.869481
0.631400,-1.813329
0.631500,-1.588717
0.631600,-1.379037
0.631700,-1.460832
0.631800,-1.819820
0.631900,-2.111945
0.632000,-2.245349
0.632100,-2.144079
0.632200,-1.984708
0.632300,-1.991849
0.632400,-2.211267
0.632500,-2.430686
0.632600,-2.566037
0.632700,-2.561168
0.632800,-2.560519
0.632900,-2.592977
0.633000,-2.673474
0.633100,-2.746506
0.633200,-2.776692
0.633300,-2.778315
0.633400,-2.836740
0.633500,-2.901007
0.633600,-2.972741
0.633700,-3.063949
0.633800,-3.057782
0.633900,-3.006173
0.634000,-3.057782
0.634100,-3.080503
0.634200,-3.134708
0.634300,-3.003251
