LabVIEW Measurement	
Writer_Version	2
Reader_Version	2
Separator	Tab
Decimal_Separator	.
Multi_Headings	Yes
X_Columns	One
Time_Pref	Relative
Operator	as989
Description	Time Domain Data
Date	1903/12/31
Time	19:00:00
***End_of_Header***	
	
Channels	1	
Samples	15000	
Date	1903/12/31	
Time	19:00:00	
X_Dimension	Time	
X0	0.0000000000000000E+0	
Delta_X	0.000100	
***End_of_Header***		
X_Value	Untitled	Comment
0.000000	-1.368651	Tare Values:0.000000, 0.000000, 0.000000, 0.000000\0D\0A
0.000100	-1.534512
0.000200	-1.657529
0.000300	-1.732183
0.000400	-1.629939
0.000500	-1.520880
0.000600	-1.445577
0.000700	-1.510493
0.000800	-1.637729
0.000900	-1.698751
0.001000	-1.676030
0.001100	-1.606245
0.001200	-1.545873
0.001300	-1.549443
0.001400	-1.572164
0.001500	-1.623123
0.001600	-1.643896
0.001700	-1.627343
0.001800	-1.615333
0.001900	-1.627343
0.002000	-1.628641
0.002100	-1.608842
0.002200	-1.637405
0.002300	-1.654283
0.002400	-1.701023
0.002500	-1.688040
0.002600	-1.698102
0.002700	-1.659152
0.002800	-1.639677
0.002900	-1.652660
0.003000	-1.770159
0.003100	-1.841243
0.003200	-1.825663
0.003300	-1.739324
0.003400	-1.623123
0.003500	-1.652985
0.003600	-1.771133
0.003700	-1.878894
0.003800	-1.856498
0.003900	-1.768212
0.004000	-1.691286
0.004100	-1.703944
0.004200	-1.767887
0.004300	-1.840594
0.004400	-1.858121
0.004500	-1.883439
0.004600	-1.836374
0.004700	-1.854226
0.004800	-1.867209
0.004900	-1.869481
0.005000	-1.859419
0.005100	-1.872403
0.005200	-1.883763
0.005300	-1.925959
0.005400	-1.926608
0.005500	-1.929205
0.005600	-1.920441
0.005700	-1.934073
0.005800	-2.024632
0.005900	-2.079162
0.006000	-2.115515
0.006100	-2.123630
0.006200	-2.146351
0.006300	-2.202828
0.006400	-2.201854
0.006500	-2.199907
0.006600	-2.199907
0.006700	-2.195038
0.006800	-2.199907
0.006900	-2.192442
0.007000	-2.207048
0.007100	-2.202179
0.007200	-2.215811
0.007300	-2.217110
0.007400	-2.230742
0.007500	-2.233988
0.007600	-2.218408
0.007700	-2.208995
0.007800	-2.232365
0.007900	-2.232365
0.008000	-2.253788
0.008100	-2.293711
0.008200	-2.424843
0.008300	-2.510858
0.008400	-2.476127
0.008500	-2.336556
0.008600	-2.274561
0.008700	-2.306695
0.008800	-2.474829
0.008900	-2.591679
0.009000	-2.595250
0.009100	-2.505340
0.009200	-2.453082
0.009300	-2.463469
0.009400	-2.561817
0.009500	-2.623164
0.009600	-2.691975
0.009700	-2.655297
0.009800	-2.654324
0.009900	-2.641016
0.010000	-2.648806
0.010100	-2.665360
0.010200	-2.676071
0.010300	-2.672176
0.010400	-2.694897
0.010500	-2.710801
0.010600	-2.716319
0.010700	-2.757866
0.010800	-2.749102
0.010900	-2.751699
0.011000	-2.784157
0.011100	-2.793246
0.011200	-2.768577
0.011300	-2.711775
0.011400	-2.626085
0.011500	-2.649780
0.011600	-2.726381
0.011700	-2.790324
0.011800	-2.784157
0.011900	-2.662438
0.012000	-2.569607
0.012100	-2.563116
0.012200	-2.641665
0.012300	-2.722162
0.012400	-2.729952
0.012500	-2.669579
0.012600	-2.597197
0.012700	-2.555975
0.012800	-2.572204
0.012900	-2.586161
0.013000	-2.585837
0.013100	-2.563116
0.013200	-2.549159
0.013300	-2.539746
0.013400	-2.506314
0.013500	-2.458600
0.013600	-2.406666
0.013700	-2.394332
0.013800	-2.422246
0.013900	-2.433607
0.014000	-2.446266
0.014100	-2.406017
0.014200	-2.334934
0.014300	-2.313186
0.014400	-2.332012
0.014500	-2.327468
0.014600	-2.269043
0.014700	-2.207048
0.014800	-2.179134
0.014900	-2.104804
0.015000	-2.054818
0.015100	-2.027553
0.015200	-2.007429
0.015300	-2.003859
0.015400	-1.985358
0.015500	-1.985033
0.015600	-1.976918
0.015700	-1.937644
0.015800	-1.955496
0.015900	-1.887983
0.016000	-1.899018
0.016100	-1.864288
0.016200	-1.873701
0.016300	-1.844489
0.016400	-1.790608
0.016500	-1.659476
0.016600	-1.492641
0.016700	-1.492316
0.016800	-1.627343
0.016900	-1.719849
0.017000	-1.702321
0.017100	-1.568269
0.017200	-1.423505
0.017300	-1.373195
0.017400	-1.435514
0.017500	-1.506598
0.017600	-1.491992
0.017700	-1.407925
0.017800	-1.342684
0.017900	-1.277767
0.018000	-1.287830
0.018100	-1.319639
0.018200	-1.330674
0.018300	-1.330674
0.018400	-1.322884
0.018500	-1.330674
0.018600	-1.352746
0.018700	-1.375467
0.018800	-1.375791
0.018900	-1.396240
0.019000	-1.469920
0.019100	-1.488421
0.019200	-1.527047
0.019300	-1.526722
0.019400	-1.503677
0.019500	-1.507896
0.019600	-1.576059
0.019700	-1.713682
0.019800	-1.771457
0.019900	-1.725042
0.020000	-1.611763
0.020100	-1.554636
0.020200	-1.608517
0.020300	-1.751333
0.020400	-1.803267
0.020500	-1.715954
0.020600	-1.601701
0.020700	-1.528020
0.020800	-1.566646
0.020900	-1.651686
0.021000	-1.676030
0.021100	-1.664670
0.021200	-1.660126
0.021300	-1.671811
0.021400	-1.716928
0.021500	-1.743868
0.021600	-1.742570
0.021700	-1.726016
0.021800	-1.754579
0.021900	-1.803267
0.022000	-1.859744
0.022100	-1.882465
0.022200	-1.877596
0.022300	-1.893501
0.022400	-1.901940
0.022500	-1.983085
0.022600	-2.026580
0.022700	-2.029825
0.022800	-2.041510
0.022900	-2.050274
0.023000	-2.070398
0.023100	-2.016193
0.023200	-1.963610
0.023300	-1.946083
0.023400	-1.918493
0.023500	-1.893176
0.023600	-1.858770
0.023700	-1.825014
0.023800	-1.813653
0.023900	-1.763667
0.024000	-1.734780
0.024100	-1.717901
0.024200	-1.691610
0.024300	-1.677653
0.024400	-1.666617
0.024500	-1.685768
0.024600	-1.695505
0.024700	-1.689987
0.024800	-1.777300
0.024900	-1.919792
0.025000	-1.985358
0.025100	-1.911028
0.025200	-1.805863
0.025300	-1.782818
0.025400	-1.891878
0.025500	-2.068775
0.025600	-2.176212
0.025700	-2.162580
0.025800	-2.082083
0.025900	-2.044107
0.026000	-2.091821
0.026100	-2.209644
0.026200	-2.277807
0.026300	-2.298905
0.026400	-2.250217
0.026500	-2.249893
0.026600	-2.243401
0.026700	-2.264824
0.026800	-2.293387
0.026900	-2.289492
0.027000	-2.291764
0.027100	-2.277158
0.027200	-2.321301
0.027300	-2.371936
0.027400	-2.379077
0.027500	-2.340127
0.027600	-2.330389
0.027700	-2.330065
0.027800	-2.351163
0.027900	-2.304098
0.028000	-2.186274
0.028100	-2.134666
0.028200	-2.141482
0.028300	-2.224575
0.028400	-2.289816
0.028500	-2.244375
0.028600	-2.117787
0.028700	-2.023334
0.028800	-2.058389
0.028900	-2.123630
0.029000	-2.216785
0.029100	-2.209320
0.029200	-2.099611
0.029300	-2.006780
0.029400	-1.978217
0.029500	-2.003534
0.029600	-1.997043
0.029700	-1.958417
0.029800	-1.936995
0.029900	-1.890255
0.030000	-1.849357
0.030100	-1.797749
0.030200	-1.730885
0.030300	-1.700374
0.030400	-1.648116
0.030500	-1.650713
0.030600	-1.653309
0.030700	-1.663371
0.030800	-1.600402
0.030900	-1.546197
0.031000	-1.541978
0.031100	-1.555935
0.031200	-1.527047
0.031300	-1.508870
0.031400	-1.489071
0.031500	-1.466674
0.031600	-1.417662
0.031700	-1.422531
0.031800	-1.402407
0.031900	-1.463104
0.032000	-1.489720
0.032100	-1.492966
0.032200	-1.517958
0.032300	-1.528020
0.032400	-1.540030
0.032500	-1.573787
0.032600	-1.567295
0.032700	-1.616307
0.032800	-1.633510
0.032900	-1.673109
0.033000	-1.657529
0.033100	-1.613710
0.033200	-1.527371
0.033300	-1.405653
0.033400	-1.515686
0.033500	-1.681223
0.033600	-1.768861
0.033700	-1.769185
0.033800	-1.643247
0.033900	-1.526398
0.034000	-1.523152
0.034100	-1.638703
0.034200	-1.706216
0.034300	-1.697777
0.034400	-1.621500
0.034500	-1.545548
0.034600	-1.509195
0.034700	-1.526398
0.034800	-1.550417
0.034900	-1.566646
0.035000	-1.582226
0.035100	-1.583849
0.035200	-1.598455
0.035300	-1.628316
0.035400	-1.643572
0.035500	-1.683496
0.035600	-1.698751
0.035700	-1.742894
0.035800	-1.738350
0.035900	-1.772107
0.036000	-1.752307
0.036100	-1.739648
0.036200	-1.694207
0.036300	-1.789634
0.036400	-1.911353
0.036500	-1.937319
0.036600	-1.889606
0.036700	-1.768536
0.036800	-1.768861
0.036900	-1.847410
0.037000	-1.975620
0.037100	-1.993797
0.037200	-1.923038
0.037300	-1.808784
0.037400	-1.758150
0.037500	-1.797099
0.037600	-1.863314
0.037700	-1.868508
0.037800	-1.892202
0.037900	-1.861691
0.038000	-1.864288
0.038100	-1.856498
0.038200	-1.831505
0.038300	-1.810407
0.038400	-1.796126
0.038500	-1.804889
0.038600	-1.835076
0.038700	-1.828909
0.038800	-1.827286
0.038900	-1.818847
0.039000	-1.847410
0.039100	-1.913949
0.039200	-1.994770
0.039300	-2.024957
0.039400	-2.047028
0.039500	-2.086952
0.039600	-2.142456
0.039700	-2.163554
0.039800	-2.169721
0.039900	-2.176862
0.040000	-2.195038
0.040100	-2.202828
0.040200	-2.221005
0.040300	-2.252489
0.040400	-2.276833
0.040500	-2.314485
0.040600	-2.338179
0.040700	-2.356681
0.040800	-2.407640
0.040900	-2.428089
0.041000	-2.450810
0.041100	-2.489435
0.041200	-2.489111
0.041300	-2.520920
0.041400	-2.519297
0.041500	-2.617321
0.041600	-2.709828
0.041700	-2.722162
0.041800	-2.601092
0.041900	-2.473855
0.042000	-2.439774
0.042100	-2.564739
0.042200	-2.671851
0.042300	-2.688405
0.042400	-2.562467
0.042500	-2.433607
0.042600	-2.349864
0.042700	-2.386867
0.042800	-2.429387
0.042900	-2.433282
0.043000	-2.395955
0.043100	-2.301177
0.043200	-2.234962
0.043300	-2.211916
0.043400	-2.204451
0.043500	-2.179783
0.043600	-2.171668
0.043700	-2.130771
0.043800	-2.141807
0.043900	-2.145377
0.044000	-2.182055
0.044100	-2.161931
0.044200	-2.136613
0.044300	-2.163554
0.044400	-2.176212
0.044500	-2.175239
0.044600	-2.116164
0.044700	-2.035668
0.044800	-2.047028
0.044900	-2.121358
0.045000	-2.205100
0.045100	-2.260929
0.045200	-2.218408
0.045300	-2.130446
0.045400	-2.091496
0.045500	-2.168747
0.045600	-2.304423
0.045700	-2.395631
0.045800	-2.400175
0.045900	-2.357330
0.046000	-2.328442
0.046100	-2.336556
0.046200	-2.367392
0.046300	-2.392385
0.046400	-2.387841
0.046500	-2.419974
0.046600	-2.440748
0.046700	-2.387516
0.046800	-2.346294
0.046900	-2.315134
0.047000	-2.293711
0.047100	-2.294036
0.047200	-2.290466
0.047300	-2.318380
0.047400	-2.306046
0.047500	-2.225874
0.047600	-2.192117
0.047700	-2.178160
0.047800	-2.195363
0.047900	-2.123305
0.048000	-2.094742
0.048100	-2.043458
0.048200	-1.999315
0.048300	-1.940241
0.048400	-1.913300
0.048500	-1.910379
0.048600	-1.913300
0.048700	-1.898369
0.048800	-1.895773
0.048900	-1.897720
0.049000	-1.897720
0.049100	-1.886035
0.049200	-1.877271
0.049300	-1.837348
0.049400	-1.841892
0.049500	-1.822092
0.049600	-1.842216
0.049700	-1.777300
0.049800	-1.704269
0.049900	-1.534512
0.050000	-1.455314
0.050100	-1.533863
0.050200	-1.687066
0.050300	-1.702646
0.050400	-1.645519
0.050500	-1.505300
0.050600	-1.444603
0.050700	-1.456288
0.050800	-1.545223
0.050900	-1.626044
0.051000	-1.605920
0.051100	-1.493939
0.051200	-1.410197
0.051300	-1.402407
0.051400	-1.408899
0.051500	-1.447199
0.051600	-1.440708
0.051700	-1.420259
0.051800	-1.375791
0.051900	-1.372221
0.052000	-1.391696
0.052100	-1.382608
0.052200	-1.349825
0.052300	-1.392020
0.052400	-1.418312
0.052500	-1.453367
0.052600	-1.466674
0.052700	-1.446226
0.052800	-1.439085
0.052900	-1.414092
0.053000	-1.542302
0.053100	-1.612737
0.053200	-1.582226
0.053300	-1.495887
0.053400	-1.343333
0.053500	-1.368651
0.053600	-1.439085
0.053700	-1.523801
0.053800	-1.508546
0.053900	-1.421882
0.054000	-1.302111
0.054100	-1.257319
0.054200	-1.298216
0.054300	-1.355343
0.054400	-1.340412
0.054500	-1.367352
0.054600	-1.314121
0.054700	-1.315744
0.054800	-1.315094
0.054900	-1.320288
0.055000	-1.319639
0.055100	-1.325481
0.055200	-1.350474
0.055300	-1.377090
0.055400	-1.382608
0.055500	-1.382932
0.055600	-1.374168
0.055700	-1.371572
0.055800	-1.428374
0.055900	-1.477710
0.056000	-1.502378
0.056100	-1.478684
0.056200	-1.457586
0.056300	-1.477710
0.056400	-1.459534
0.056500	-1.417013
0.056600	-1.374168
0.056700	-1.345281
0.056800	-1.339763
0.056900	-1.333920
0.057000	-1.346254
0.057100	-1.351123
0.057200	-1.376116
0.057300	-1.412794
0.057400	-1.468622
0.057500	-1.494264
0.057600	-1.511142
0.057700	-1.539056
0.057800	-1.555935
0.057900	-1.593911
0.058000	-1.622474
0.058100	-1.670512
0.058200	-1.820469
0.058300	-1.900966
0.058400	-1.932126
0.058500	-1.781520
0.058600	-1.738999
0.058700	-1.749710
0.058800	-1.939591
0.058900	-2.070398
0.059000	-2.094742
0.059100	-2.014895
0.059200	-1.936346
0.059300	-1.914923
0.059400	-2.023658
0.059500	-2.107725
0.059600	-2.146351
0.059700	-2.096365
0.059800	-2.080460
0.059900	-2.055467
0.060000	-2.064231
0.060100	-2.090522
0.060200	-2.104804
0.060300	-2.107401
0.060400	-2.098962
0.060500	-2.133692
0.060600	-2.176212
0.060700	-2.229119
0.060800	-2.207372
0.060900	-2.218408
0.061000	-2.217110
0.061100	-2.257034
0.061200	-2.244699
0.061300	-2.174589
0.061400	-2.104155
0.061500	-2.134017
0.061600	-2.215811
0.061700	-2.312537
0.061800	-2.345320
0.061900	-2.246322
0.062000	-2.163229
0.062100	-2.148623
0.062200	-2.224575
0.062300	-2.351163
0.062400	-2.414456
0.062500	-2.386218
0.062600	-2.309941
0.062700	-2.250217
0.062800	-2.261253
0.062900	-2.257358
0.063000	-2.280728
0.063100	-2.283974
0.063200	-2.277807
0.063300	-2.253139
0.063400	-2.213215
0.063500	-2.157387
0.063600	-2.117138
0.063700	-2.074942
0.063800	-2.073320
0.063900	-2.085654
0.064000	-2.101234
0.064100	-2.030475
0.064200	-1.947706
0.064300	-1.921415
0.064400	-1.912326
0.064500	-1.919143
0.064600	-1.837997
0.064700	-1.809758
0.064800	-1.774379
0.064900	-1.715954
0.065000	-1.678951
0.065100	-1.646818
0.065200	-1.653959
0.065300	-1.674083
0.065400	-1.681873
0.065500	-1.700374
0.065600	-1.702646
0.065700	-1.709787
0.065800	-1.674083
0.065900	-1.670188
0.066000	-1.685443
0.066100	-1.701023
0.066200	-1.729586
0.066300	-1.714331
0.066400	-1.728288
0.066500	-1.603324
0.066600	-1.499457
0.066700	-1.480956
0.066800	-1.622474
0.066900	-1.783467
0.067000	-1.780546
0.067100	-1.719524
0.067200	-1.568593
0.067300	-1.535486
0.067400	-1.596183
0.067500	-1.693233
0.067600	-1.737376
0.067700	-1.683496
0.067800	-1.603324
0.067900	-1.549443
0.068000	-1.557233
0.068100	-1.611438
0.068200	-1.621176
0.068300	-1.642274
0.068400	-1.630264
0.068500	-1.644870
0.068600	-1.652660
0.068700	-1.650064
0.068800	-1.637729
0.068900	-1.664021
0.069000	-1.696479
0.069100	-1.681873
0.069200	-1.722121
0.069300	-1.706541
0.069400	-1.670837
0.069500	-1.672460
0.069600	-1.699076
0.069700	-1.825663
0.069800	-1.872078
0.069900	-1.844813
0.070000	-1.762045
0.070100	-1.690961
0.070200	-1.755553
0.070300	-1.908756
0.070400	-1.999964
0.070500	-2.008727
0.070600	-1.931152
0.070700	-1.885061
0.070800	-1.897396
0.070900	-1.994446
0.071000	-2.048002
0.071100	-2.054169
0.071200	-2.089224
0.071300	-2.088900
0.071400	-2.131420
0.071500	-2.124279
0.071600	-2.119086
0.071700	-2.125577
0.071800	-2.148623
0.071900	-2.206723
0.072000	-2.278456
0.072100	-2.309616
0.072200	-2.308642
0.072300	-2.315459
0.072400	-2.353435
0.072500	-2.434905
0.072600	-2.501120
0.072700	-2.539421
0.072800	-2.533903
0.072900	-2.534552
0.073000	-2.549483
0.073100	-2.524166
0.073200	-2.471259
0.073300	-2.431010
0.073400	-2.380375
0.073500	-2.349215
0.073600	-2.315783
0.073700	-2.282676
0.073800	-2.207372
0.073900	-2.171993
0.074000	-2.153492
0.074100	-2.121682
0.074200	-2.081759
0.074300	-2.047028
0.074400	-2.021711
0.074500	-1.999315
0.074600	-1.990551
0.074700	-1.984384
0.074800	-2.003210
0.074900	-2.163554
0.075000	-2.225224
0.075100	-2.167773
0.075200	-2.029176
0.075300	-1.980164
0.075400	-2.046704
0.075500	-2.224251
0.075600	-2.305396
0.075700	-2.278131
0.075800	-2.138561
0.075900	-2.035992
0.076000	-2.033071
0.076100	-2.101558
0.076200	-2.157711
0.076300	-2.102857
0.076400	-2.045405
0.076500	-1.974646
0.076600	-1.943811
0.076700	-1.906159
0.076800	-1.887983
0.076900	-1.846436
0.077000	-1.831181
0.077100	-1.842216
0.077200	-1.829882
0.077300	-1.872078
0.077400	-1.854875
0.077500	-1.853252
0.077600	-1.860718
0.077700	-1.908431
0.077800	-1.917195
0.077900	-1.892527
0.078000	-1.790283
0.078100	-1.751658
0.078200	-1.792880
0.078300	-1.883114
0.078400	-1.971076
0.078500	-1.939591
0.078600	-1.834426
0.078700	-1.756202
0.078800	-1.768861
0.078900	-1.883763
0.079000	-2.002885
0.079100	-2.046704
0.079200	-2.033071
0.079300	-1.991525
0.079400	-2.023983
0.079500	-2.066828
0.079600	-2.111945
0.079700	-2.132718
0.079800	-2.171019
0.079900	-2.218733
0.080000	-2.244375
0.080100	-2.246647
0.080200	-2.238857
0.080300	-2.200232
0.080400	-2.180107
0.080500	-2.190169
0.080600	-2.195038
0.080700	-2.215487
0.080800	-2.138885
0.080900	-2.070074
0.081000	-2.034694
0.081100	-2.006131
0.081200	-1.962312
0.081300	-1.881491
0.081400	-1.807811
0.081500	-1.751009
0.081600	-1.649739
0.081700	-1.600727
0.081800	-1.555285
0.081900	-1.527371
0.082000	-1.533214
0.082100	-1.496211
0.082200	-1.511142
0.082300	-1.476412
0.082400	-1.468297
0.082500	-1.404679
0.082600	-1.383581
0.082700	-1.345930
0.082800	-1.325156
0.082900	-1.303085
0.083000	-1.278417
0.083100	-1.238818
0.083200	-1.145013
0.083300	-0.999925
0.083400	-1.015505
0.083500	-1.122942
0.083600	-1.235247
0.083700	-1.162865
0.083800	-1.046665
0.083900	-0.918130
0.084000	-0.891839
0.084100	-0.961300
0.084200	-1.035629
0.084300	-1.047639
0.084400	-0.963572
0.084500	-0.868145
0.084600	-0.859706
0.084700	-0.890866
0.084800	-0.943448
0.084900	-0.946694
0.085000	-0.942799
0.085100	-0.935009
0.085200	-0.973309
0.085300	-1.017128
0.085400	-1.051209
0.085500	-1.068412
0.085600	-1.088861
0.085700	-1.145013
0.085800	-1.162865
0.085900	-1.230703
0.086000	-1.238493
0.086100	-1.227782
0.086200	-1.198245
0.086300	-1.276145
0.086400	-1.433242
0.086500	-1.468622
0.086600	-1.438111
0.086700	-1.329376
0.086800	-1.291075
0.086900	-1.355343
0.087000	-1.484851
0.087100	-1.541328
0.087200	-1.480631
0.087300	-1.365080
0.087400	-1.288154
0.087500	-1.332622
0.087600	-1.398837
0.087700	-1.441032
0.087800	-1.430321
0.087900	-1.403381
0.088000	-1.402083
0.088100	-1.408899
0.088200	-1.404030
0.088300	-1.404679
0.088400	-1.395591
0.088500	-1.393643
0.088600	-1.401433
0.088700	-1.431619
0.088800	-1.424803
0.088900	-1.421882
0.089000	-1.433892
0.089100	-1.465051
0.089200	-1.540030
0.089300	-1.570865
0.089400	-1.570865
0.089500	-1.591314
0.089600	-1.627018
0.089700	-1.666293
0.089800	-1.651037
0.089900	-1.644221
0.090000	-1.667916
0.090100	-1.695505
0.090200	-1.724393
0.090300	-1.750360
0.090400	-1.760097
0.090500	-1.787687
0.090600	-1.811057
0.090700	-1.819820
0.090800	-1.837023
0.090900	-1.816574
0.091000	-1.865262
0.091100	-1.849033
0.091200	-1.875649
0.091300	-1.869806
0.091400	-1.875324
0.091500	-1.982112
0.091600	-2.115840
0.091700	-2.174589
0.091800	-2.069425
0.091900	-1.928880
0.092000	-1.863314
0.092100	-1.987305
0.092200	-2.126551
0.092300	-2.196337
0.092400	-2.124928
0.092500	-2.018465
0.092600	-1.927906
0.092700	-1.989902
0.092800	-2.072995
0.092900	-2.143105
0.093000	-2.121682
0.093100	-2.058064
0.093200	-2.038589
0.093300	-2.023983
0.093400	-2.037615
0.093500	-2.060985
0.093600	-2.060985
0.093700	-2.048002
0.093800	-2.038914
0.093900	-2.060985
0.094000	-2.099286
0.094100	-2.102532
0.094200	-2.079162
0.094300	-2.091496
0.094400	-2.121033
0.094500	-2.132394
0.094600	-2.091172
0.094700	-2.003534
0.094800	-1.989577
0.094900	-2.029825
0.095000	-2.120059
0.095100	-2.204127
0.095200	-2.155114
0.095300	-2.057415
0.095400	-1.987954
0.095500	-2.031773
0.095600	-2.154465
0.095700	-2.280728
0.095800	-2.286246
0.095900	-2.225224
0.096000	-2.176862
0.096100	-2.164203
0.096200	-2.174914
0.096300	-2.208995
0.096400	-2.217434
0.096500	-2.206399
0.096600	-2.170370
0.096700	-2.114542
0.096800	-2.054818
0.096900	-1.997692
0.097000	-1.954198
0.097100	-1.917844
0.097200	-1.901615
0.097300	-1.883439
0.097400	-1.855524
0.097500	-1.783142
0.097600	-1.732508
0.097700	-1.726340
0.097800	-1.713682
0.097900	-1.664345
0.098000	-1.636106
0.098100	-1.591314
0.098200	-1.545223
0.098300	-1.488421
0.098400	-1.461481
0.098500	-1.455963
0.098600	-1.454340
0.098700	-1.464727
0.098800	-1.449147
0.098900	-1.479982
0.099000	-1.476087
0.099100	-1.474789
0.099200	-1.487123
0.099300	-1.483553
0.099400	-1.528994
0.099500	-1.512765
0.099600	-1.592937
0.099700	-1.514388
0.099800	-1.518608
0.099900	-1.371896
0.100000	-1.314121
0.100100	-1.417987
0.100200	-1.589042
0.100300	-1.677978
0.100400	-1.637080
0.100500	-1.553338
0.100600	-1.463104
0.100700	-1.504651
0.100800	-1.606245
0.100900	-1.685768
0.101000	-1.691610
0.101100	-1.586770
0.101200	-1.533214
0.101300	-1.488097
0.101400	-1.545548
0.101500	-1.587095
0.101600	-1.594235
0.101700	-1.601052
0.101800	-1.570541
0.101900	-1.561128
0.102000	-1.572164
0.102100	-1.550741
0.102200	-1.538732
0.102300	-1.586770
0.102400	-1.595534
0.102500	-1.653634
0.102600	-1.664021
0.102700	-1.618579
0.102800	-1.617281
0.102900	-1.565347
0.103000	-1.672460
0.103100	-1.739973
0.103200	-1.741271
0.103300	-1.671486
0.103400	-1.512116
0.103500	-1.514063
0.103600	-1.585472
0.103700	-1.679925
0.103800	-1.693233
0.103900	-1.592288
0.104000	-1.490694
0.104100	-1.435190
0.104200	-1.481930
0.104300	-1.547495
0.104400	-1.561777
0.104500	-1.568918
0.104600	-1.562426
0.104700	-1.568918
0.104800	-1.587744
0.104900	-1.571515
0.105000	-1.573462
0.105100	-1.580927
0.105200	-1.602350
0.105300	-1.656880
0.105400	-1.689338
0.105500	-1.710436
0.105600	-1.710111
0.105700	-1.707839
0.105800	-1.765940
0.105900	-1.843515
0.106000	-1.883439
0.106100	-1.884088
0.106200	-1.872727
0.106300	-1.909081
0.106400	-1.900317
0.106500	-1.841243
0.106600	-1.823066
0.106700	-1.811381
0.106800	-1.788985
0.106900	-1.784116
0.107000	-1.788336
0.107100	-1.777300
0.107200	-1.787037
0.107300	-1.761395
0.107400	-1.784765
0.107500	-1.776651
0.107600	-1.788011
0.107700	-1.790283
0.107800	-1.786713
0.107900	-1.803267
0.108000	-1.827286
0.108100	-1.870131
0.108200	-1.999315
0.108300	-2.161931
0.108400	-2.149272
0.108500	-2.059687
0.108600	-1.949978
0.108700	-1.964909
0.108800	-2.139859
0.108900	-2.270017
0.109000	-2.329416
0.109100	-2.236260
0.109200	-2.139534
0.109300	-2.111620
0.109400	-2.176537
0.109500	-2.251516
0.109600	-2.305396
0.109700	-2.258332
0.109800	-2.211916
0.109900	-2.174265
0.110000	-2.176862
0.110100	-2.175563
0.110200	-2.184652
0.110300	-2.171019
0.110400	-2.168747
0.110500	-2.167773
0.110600	-2.205749
0.110700	-2.239506
0.110800	-2.208346
0.110900	-2.193740
0.111000	-2.233664
0.111100	-2.279105
0.111200	-2.269043
0.111300	-2.221979
0.111400	-2.139210
0.111500	-2.130446
0.111600	-2.195687
0.111700	-2.298905
0.111800	-2.313186
0.111900	-2.230093
0.112000	-2.133043
0.112100	-2.104804
0.112200	-2.181081
0.112300	-2.289492
0.112400	-2.348891
0.112500	-2.295984
0.112600	-2.217759
0.112700	-2.154465
0.112800	-2.150246
0.112900	-2.158685
0.113000	-2.170045
0.113100	-2.150570
0.113200	-2.131095
0.113300	-2.076565
0.113400	-2.007429
0.113500	-1.933100
0.113600	-1.877271
0.113700	-1.807162
0.113800	-1.769510
0.113900	-1.763018
0.114000	-1.766913
0.114100	-1.708164
0.114200	-1.614035
0.114300	-1.553987
0.114400	-1.539381
0.114500	-1.531266
0.114600	-1.448822
0.114700	-1.402083
0.114800	-1.351772
0.114900	-1.290426
0.115000	-1.220316
0.115100	-1.202464
0.115200	-1.218044
0.115300	-1.217071
0.115400	-1.230703
0.115500	-1.256670
0.115600	-1.258617
0.115700	-1.293347
0.115800	-1.278417
0.115900	-1.282312
0.116000	-1.281987
0.116100	-1.320937
0.116200	-1.360211
0.116300	-1.376765
0.116400	-1.392670
0.116500	-1.305357
0.116600	-1.193051
0.116700	-1.099572
0.116800	-1.274846
0.116900	-1.409548
0.117000	-1.445577
0.117100	-1.406951
0.117200	-1.253099
0.117300	-1.198894
0.117400	-1.236870
0.117500	-1.345605
0.117600	-1.378713
0.117700	-1.340087
0.117800	-1.233624
0.117900	-1.167085
0.118000	-1.167734
0.118100	-1.196946
0.118200	-1.229405
0.118300	-1.222913
0.118400	-1.192727
0.118500	-1.190455
0.118600	-1.214149
0.118700	-1.228756
0.118800	-1.234923
0.118900	-1.249853
0.119000	-1.306980
0.119100	-1.363782
0.119200	-1.399810
0.119300	-1.465701
0.119400	-1.435514
0.119500	-1.464078
0.119600	-1.482254
0.119700	-1.651037
0.119800	-1.749386
0.119900	-1.763018
0.120000	-1.703620
0.120100	-1.600727
0.120200	-1.660450
0.120300	-1.777625
0.120400	-1.890904
0.120500	-1.887333
0.120600	-1.787687
0.120700	-1.702646
0.120800	-1.710436
0.120900	-1.770484
0.121000	-1.857147
0.121100	-1.862665
0.121200	-1.872727
0.121300	-1.843190
0.121400	-1.842216
0.121500	-1.860718
0.121600	-1.866560
0.121700	-1.874350
0.121800	-1.869806
0.121900	-1.878570
0.122000	-1.912651
0.122100	-1.919792
0.122200	-1.902589
0.122300	-1.891228
0.122400	-1.861367
0.122500	-1.923687
0.122600	-1.938618
0.122700	-1.942837
0.122800	-1.907133
0.122900	-1.881491
0.123000	-1.857472
0.123100	-1.836374
0.123200	-1.768861
0.123300	-1.716603
0.123400	-1.668565
0.123500	-1.652336
0.123600	-1.618254
0.123700	-1.579629
0.123800	-1.546197
0.123900	-1.494913
0.124000	-1.490694
0.124100	-1.453367
0.124200	-1.432918
0.124300	-1.417987
0.124400	-1.400460
0.124500	-1.390073
0.124600	-1.377090
0.124700	-1.395915
0.124800	-1.420259
0.124900	-1.556584
0.125000	-1.670188
0.125100	-1.601376
0.125200	-1.493615
0.125300	-1.389099
0.125400	-1.459534
0.125500	-1.635457
0.125600	-1.752956
0.125700	-1.777949
0.125800	-1.684145
0.125900	-1.583849
0.126000	-1.619877
0.126100	-1.717577
0.126200	-1.832154
0.126300	-1.841243
0.126400	-1.814302
0.126500	-1.779572
0.126600	-1.766264
0.126700	-1.800994
0.126800	-1.829558
0.126900	-1.848059
0.127000	-1.863964
0.127100	-1.858770
0.127200	-1.890579
0.127300	-1.924661
0.127400	-1.957443
0.127500	-1.956794
0.127600	-1.956470
0.127700	-2.008403
0.127800	-2.030799
0.127900	-2.017816
0.128000	-1.966856
0.128100	-1.894474
0.128200	-1.938618
0.128300	-2.020088
0.128400	-2.112594
0.128500	-2.106102
0.128600	-2.015219
0.128700	-1.894150
0.128800	-1.861691
0.128900	-1.944135
0.129000	-2.071372
0.129100	-2.131420
0.129200	-2.090198
0.129300	-2.019439
0.129400	-1.971400
0.129500	-1.967830
0.129600	-2.003859
0.129700	-2.016842
0.129800	-2.012622
0.129900	-2.011649
0.130000	-1.990551
0.130100	-1.936021
0.130200	-1.886684
0.130300	-1.841243
0.130400	-1.828909
0.130500	-1.833453
0.130600	-1.824689
0.130700	-1.858121
0.130800	-1.811381
0.130900	-1.705892
0.131000	-1.686092
0.131100	-1.657529
0.131200	-1.638379
0.131300	-1.571190
0.131400	-1.518283
0.131500	-1.486474
0.131600	-1.409872
0.131700	-1.350474
0.131800	-1.327429
0.131900	-1.324507
0.132000	-1.333596
0.132100	-1.341710
0.132200	-1.351772
0.132300	-1.359562
0.132400	-1.327429
0.132500	-1.364756
0.132600	-1.345281
0.132700	-1.358588
0.132800	-1.373519
0.132900	-1.417662
0.133000	-1.440708
0.133100	-1.424154
0.133200	-1.351772
0.133300	-1.225510
0.133400	-1.236546
0.133500	-1.413118
0.133600	-1.525748
0.133700	-1.547495
0.133800	-1.440708
0.133900	-1.323209
0.134000	-1.279390
0.134100	-1.360211
0.134200	-1.468946
0.134300	-1.494264
0.134400	-1.436488
0.134500	-1.346579
0.134600	-1.288479
0.134700	-1.288154
0.134800	-1.316393
0.134900	-1.316393
0.135000	-1.318016
0.135100	-1.304708
0.135200	-1.269977
0.135300	-1.256994
0.135400	-1.252450
0.135500	-1.238493
0.135600	-1.272250
0.135700	-1.321911
0.135800	-1.339114
0.135900	-1.345281
0.136000	-1.364756
0.136100	-1.342035
0.136200	-1.337166
0.136300	-1.391047
0.136400	-1.567944
0.136500	-1.624422
0.136600	-1.577357
0.136700	-1.479982
0.136800	-1.367028
0.136900	-1.441682
0.137000	-1.552689
0.137100	-1.649090
0.137200	-1.617605
0.137300	-1.511142
0.137400	-1.420584
0.137500	-1.429347
0.137600	-1.500106
0.137700	-1.571190
0.137800	-1.563725
0.137900	-1.581252
0.138000	-1.554312
0.138100	-1.598455
0.138200	-1.610140
0.138300	-1.619877
0.138400	-1.627343
0.138500	-1.648116
0.138600	-1.686092
0.138700	-1.714655
0.138800	-1.743868
0.138900	-1.737701
0.139000	-1.770808
0.139100	-1.806837
0.139200	-1.919467
0.139300	-1.999315
0.139400	-2.038914
0.139500	-2.038589
0.139600	-2.072995
0.139700	-2.126551
0.139800	-2.097988
0.139900	-2.071047
0.140000	-2.067802
0.140100	-2.070723
0.140200	-2.070074
0.140300	-2.086952
0.140400	-2.072346
0.140500	-2.073969
0.140600	-2.068451
0.140700	-2.079811
0.140800	-2.091821
0.140900	-2.066179
0.141000	-2.082083
0.141100	-2.107401
0.141200	-2.103830
0.141300	-2.138885
0.141400	-2.151219
0.141500	-2.222952
0.141600	-2.333311
0.141700	-2.434905
0.141800	-2.340776
0.141900	-2.222303
0.142000	-2.131420
0.142100	-2.236585
0.142200	-2.417378
0.142300	-2.501120
0.142400	-2.450161
0.142500	-2.317731
0.142600	-2.235611
0.142700	-2.254437
0.142800	-2.344996
0.142900	-2.419325
0.143000	-2.410237
0.143100	-2.351163
0.143200	-2.324222
0.143300	-2.285597
0.143400	-2.289492
0.143500	-2.309941
0.143600	-2.328117
0.143700	-2.318380
0.143800	-2.309291
0.143900	-2.340127
0.144000	-2.351487
0.144100	-2.345969
0.144200	-2.321950
0.144300	-2.332986
0.144400	-2.334609
0.144500	-2.321301
0.144600	-2.268719
0.144700	-2.149597
0.144800	-2.092794
0.144900	-2.134341
0.145000	-2.225549
0.145100	-2.283325
0.145200	-2.221654
0.145300	-2.094417
0.145400	-1.980164
0.145500	-1.999315
0.145600	-2.100584
0.145700	-2.210294
0.145800	-2.237559
0.145900	-2.160957
0.146000	-2.066828
0.146100	-2.028527
0.146200	-2.034045
0.146300	-2.044756
0.146400	-2.054169
0.146500	-2.035343
0.146600	-2.003534
0.146700	-1.951925
0.146800	-1.908107
0.146900	-1.852279
0.147000	-1.798073
0.147100	-1.776002
0.147200	-1.760746
0.147300	-1.764966
0.147400	-1.769835
0.147500	-1.694856
0.147600	-1.642274
0.147700	-1.616632
0.147800	-1.622799
0.147900	-1.605271
0.148000	-1.571515
0.148100	-1.538732
0.148200	-1.487448
0.148300	-1.421882
0.148400	-1.393319
0.148500	-1.387476
0.148600	-1.417987
0.148700	-1.426426
0.148800	-1.432593
0.148900	-1.457586
0.149000	-1.471219
0.149100	-1.460832
0.149200	-1.454340
0.149300	-1.465376
0.149400	-1.466350
0.149500	-1.504001
0.149600	-1.482254
0.149700	-1.538083
0.149800	-1.457911
0.149900	-1.397863
0.150000	-1.244660
0.150100	-1.334894
0.150200	-1.493290
0.150300	-1.593262
0.150400	-1.538732
0.150500	-1.436488
0.150600	-1.318989
0.150700	-1.328078
0.150800	-1.405004
0.150900	-1.483553
0.151000	-1.500106
0.151100	-1.419610
0.151200	-1.335543
0.151300	-1.300813
0.151400	-1.333271
0.151500	-1.377414
0.151600	-1.412145
0.151700	-1.391371
0.151800	-1.372870
0.151900	-1.357290
0.152000	-1.355667
0.152100	-1.358588
0.152200	-1.344307
0.152300	-1.376440
0.152400	-1.378388
0.152500	-1.448498
0.152600	-1.438436
0.152700	-1.465376
0.152800	-1.423180
0.152900	-1.423830
0.153000	-1.501080
0.153100	-1.660126
0.153200	-1.698102
0.153300	-1.675706
0.153400	-1.548469
0.153500	-1.527047
0.153600	-1.605271
0.153700	-1.734780
0.153800	-1.796450
0.153900	-1.738350
0.154000	-1.628316
0.154100	-1.547171
0.154200	-1.574436
0.154300	-1.651037
0.154400	-1.683496
0.154500	-1.681223
0.154600	-1.650388
0.154700	-1.624746
0.154800	-1.613061
0.154900	-1.594560
0.155000	-1.584822
0.155100	-1.562102
0.155200	-1.579305
0.155300	-1.585796
0.155400	-1.608842
0.155500	-1.594235
0.155600	-1.586770
0.155700	-1.587419
0.155800	-1.618579
0.155900	-1.688364
0.156000	-1.720498
0.156100	-1.720823
0.156200	-1.724718
0.156300	-1.748412
0.156400	-1.782169
0.156500	-1.742245
0.156600	-1.727639
0.156700	-1.722121
0.156800	-1.718550
0.156900	-1.727639
0.157000	-1.707515
0.157100	-1.699725
0.157200	-1.685443
0.157300	-1.692584
0.157400	-1.677978
0.157500	-1.681873
0.157600	-1.685443
0.157700	-1.692908
0.157800	-1.684469
0.157900	-1.695830
0.158000	-1.688364
0.158100	-1.715629
0.158200	-1.791257
0.158300	-1.961663
0.158400	-1.976918
0.158500	-1.892851
0.158600	-1.759448
0.158700	-1.741596
0.158800	-1.882465
0.158900	-2.037291
0.159000	-2.098962
0.159100	-2.057415
0.159200	-1.976594
0.159300	-1.934723
0.159400	-1.988928
0.159500	-2.080785
0.159600	-2.134990
0.159700	-2.136613
0.159800	-2.089873
0.159900	-2.067802
0.160000	-2.036317
0.160100	-2.044432
0.160200	-2.076565
0.160300	-2.104479
0.160400	-2.108050
0.160500	-2.122981
0.160600	-2.179134
0.160700	-2.187573
0.160800	-2.198284
0.160900	-2.178160
0.161000	-2.186274
0.161100	-2.205100
0.161200	-2.204127
0.161300	-2.130446
0.161400	-2.006780
0.161500	-1.990551
0.161600	-2.021711
0.161700	-2.100584
0.161800	-2.153492
0.161900	-2.089224
0.162000	-1.978217
0.162100	-1.917520
0.162200	-1.954198
0.162300	-2.044432
0.162400	-2.115515
0.162500	-2.098312
0.162600	-2.023009
0.162700	-1.974971
0.162800	-1.949329
0.162900	-1.963935
0.163000	-1.961338
0.163100	-1.951276
0.163200	-1.936670
0.163300	-1.900317
0.163400	-1.843190
0.163500	-1.790283
0.163600	-1.713357
0.163700	-1.681223
0.163800	-1.633834
0.163900	-1.632861
0.164000	-1.642274
0.164100	-1.620202
0.164200	-1.526073
0.164300	-1.474464
0.164400	-1.457911
0.164500	-1.445252
0.164600	-1.379686
0.164700	-1.345281
0.164800	-1.295619
0.164900	-1.255696
0.165000	-1.184937
0.165100	-1.176822
0.165200	-1.158970
0.165300	-1.162865
0.165400	-1.170006
0.165500	-1.157997
0.165600	-1.179094
0.165700	-1.167734
0.165800	-1.162865
0.165900	-1.152154
0.166000	-1.155400
0.166100	-1.154751
0.166200	-1.155075
0.166300	-1.176173
0.166400	-1.160269
0.166500	-1.107686
0.166600	-0.957405
0.166700	-0.880803
0.166800	-0.993433
0.166900	-1.110608
0.167000	-1.212526
0.167100	-1.102818
0.167200	-1.020049
0.167300	-0.924947
0.167400	-0.966493
0.167500	-1.050560
0.167600	-1.111581
0.167700	-1.088536
0.167800	-1.016803
0.167900	-0.973959
0.168000	-0.984994
0.168100	-1.009338
0.168200	-1.050884
0.168300	-1.051534
0.168400	-1.042445
0.168500	-1.040498
0.168600	-1.040822
0.168700	-1.056727
0.168800	-1.060622
0.168900	-1.076202
0.169000	-1.146961
0.169100	-1.156698
0.169200	-1.209605
0.169300	-1.251476
0.169400	-1.258942
0.169500	-1.258617
0.169600	-1.305682
0.169700	-1.449472
0.169800	-1.594235
0.169900	-1.609166
0.170000	-1.597157
0.170100	-1.501729
0.170200	-1.589042
0.170300	-1.701672
0.170400	-1.866885
0.170500	-1.877271
0.170600	-1.850656
0.170700	-1.783142
0.170800	-1.779897
0.170900	-1.858770
0.171000	-1.928556
0.171100	-1.925634
0.171200	-1.956470
0.171300	-1.912002
0.171400	-1.945109
0.171500	-1.926933
0.171600	-1.878245
0.171700	-1.850980
0.171800	-1.837023
0.171900	-1.859419
0.172000	-1.860069
0.172100	-1.846111
0.172200	-1.823391
0.172300	-1.794827
0.172400	-1.777949
0.172500	-1.798398
0.172600	-1.841567
0.172700	-1.872078
0.172800	-1.845138
0.172900	-1.828909
0.173000	-1.853901
0.173100	-1.858770
0.173200	-1.806837
0.173300	-1.798073
0.173400	-1.792231
0.173500	-1.771782
0.173600	-1.760422
0.173700	-1.759123
0.173800	-1.760746
0.173900	-1.773080
0.174000	-1.777300
0.174100	-1.770808
0.174200	-1.748412
0.174300	-1.759123
0.174400	-1.765940
0.174500	-1.766264
0.174600	-1.764966
0.174700	-1.778923
0.174800	-1.802942
0.174900	-1.889606
0.175000	-2.013921
0.175100	-2.003534
0.175200	-1.893825
0.175300	-1.793529
0.175400	-1.811706
0.175500	-1.993472
0.175600	-2.089873
0.175700	-2.103830
0.175800	-2.001911
0.175900	-1.919792
0.176000	-1.901940
0.176100	-1.994446
0.176200	-2.060985
0.176300	-2.077215
0.176400	-2.060661
0.176500	-2.006455
0.176600	-1.981138
0.176700	-1.994121
0.176800	-2.004508
0.176900	-1.991525
0.177000	-1.972699
0.177100	-1.952575
0.177200	-1.964260
0.177300	-1.999639
0.177400	-1.982761
0.177500	-1.929854
0.177600	-1.912976
0.177700	-1.934398
0.177800	-1.954847
0.177900	-1.933100
0.178000	-1.862341
0.178100	-1.761071
0.178200	-1.771782
0.178300	-1.826961
0.178400	-1.935047
0.178500	-1.940565
0.178600	-1.838971
0.178700	-1.733481
0.178800	-1.704918
0.178900	-1.766264
0.179000	-1.881491
0.179100	-1.929529
0.179200	-1.854551
0.179300	-1.759123
0.179400	-1.695830
0.179500	-1.676679
0.179600	-1.675381
0.179700	-1.680250
0.179800	-1.657204
0.179900	-1.597806
0.180000	-1.527696
0.180100	-1.471219
0.180200	-1.427075
0.180300	-1.349176
0.180400	-1.276794
0.180500	-1.259915
0.180600	-1.219018
0.180700	-1.239467
0.180800	-1.183314
0.180900	-1.108985
0.181000	-1.065815
0.181100	-1.067438
0.181200	-1.079123
0.181300	-1.013882
0.181400	-0.992135
0.181500	-0.963896
0.181600	-0.945720
0.181700	-0.892813
0.181800	-0.900928
0.181900	-0.945071
0.182000	-0.975906
0.182100	-1.015180
0.182200	-1.040173
0.182300	-1.067438
0.182400	-1.067763
0.182500	-1.077825
0.182600	-1.094379
0.182700	-1.140469
0.182800	-1.178770
0.182900	-1.184288
0.183000	-1.252775
0.183100	-1.211553
0.183200	-1.200517
0.183300	-1.042121
0.183400	-1.099572
0.183500	-1.272899
0.183600	-1.452717
0.183700	-1.524450
0.183800	-1.482579
0.183900	-1.402407
0.184000	-1.363133
0.184100	-1.433892
0.184200	-1.563075
0.184300	-1.640001
0.184400	-1.606569
0.184500	-1.506598
0.184600	-1.428374
0.184700	-1.445577
0.184800	-1.504326
0.184900	-1.542302
0.185000	-1.537433
0.185100	-1.532240
0.185200	-1.522503
0.185300	-1.520555
0.185400	-1.516660
0.185500	-1.508870
0.185600	-1.513090
0.185700	-1.565023
0.185800	-1.551390
0.185900	-1.557557
0.186000	-1.571190
0.186100	-1.528020
0.186200	-1.512441
0.186300	-1.515037
0.186400	-1.658178
0.186500	-1.708164
0.186600	-1.684145
0.186700	-1.574111
0.186800	-1.483877
0.186900	-1.533214
0.187000	-1.677653
0.187100	-1.766913
0.187200	-1.759123
0.187300	-1.674083
0.187400	-1.590989
0.187500	-1.561777
0.187600	-1.627992
0.187700	-1.690961
0.187800	-1.684145
0.187900	-1.668240
0.188000	-1.615009
0.188100	-1.630913
0.188200	-1.629615
0.188300	-1.620851
0.188400	-1.611438
0.188500	-1.613710
0.188600	-1.640651
0.188700	-1.660775
0.188800	-1.662398
0.188900	-1.657204
0.189000	-1.635457
0.189100	-1.622474
0.189200	-1.689663
0.189300	-1.730560
0.189400	-1.750360
0.189500	-1.734780
0.189600	-1.729586
0.189700	-1.788011
0.189800	-1.774703
0.189900	-1.733806
0.190000	-1.712708
0.190100	-1.729586
0.190200	-1.740622
0.190300	-1.756527
0.190400	-1.775028
0.190500	-1.794503
0.190600	-1.798398
0.190700	-1.827610
0.190800	-1.853901
0.190900	-1.867859
0.191000	-1.887333
0.191100	-1.922713
0.191200	-1.928231
0.191300	-1.971400
0.191400	-2.003210
0.191500	-2.054818
0.191600	-2.176537
0.191700	-2.250542
0.191800	-2.209320
0.191900	-2.066828
0.192000	-2.007429
0.192100	-2.044107
0.192200	-2.209969
0.192300	-2.322924
0.192400	-2.282351
0.192500	-2.168422
0.192600	-2.073644
0.192700	-2.090198
0.192800	-2.157711
0.192900	-2.190494
0.193000	-2.231391
0.193100	-2.169072
0.193200	-2.141482
0.193300	-2.129148
0.193400	-2.128499
0.193500	-2.139210
0.193600	-2.145052
0.193700	-2.166799
0.193800	-2.163229
0.193900	-2.209320
0.194000	-2.245998
0.194100	-2.290141
0.194200	-2.302151
0.194300	-2.319029
0.194400	-2.362848
0.194500	-2.373234
0.194600	-2.354733
0.194700	-2.278781
0.194800	-2.243726
0.194900	-2.264174
0.195000	-2.372910
0.195100	-2.448862
0.195200	-2.451784
0.195300	-2.329091
0.195400	-2.208022
0.195500	-2.179458
0.195600	-2.285921
0.195700	-2.360900
0.195800	-2.369015
0.195900	-2.310590
0.196000	-2.220031
0.196100	-2.163229
0.196200	-2.170694
0.196300	-2.172317
0.196400	-2.183029
0.196500	-2.172642
0.196600	-2.147000
0.196700	-2.116164
0.196800	-2.055143
0.196900	-2.000288
0.197000	-1.944460
0.197100	-1.905835
0.197200	-1.917520
0.197300	-1.926933
0.197400	-1.927257
0.197500	-1.882140
0.197600	-1.802942
0.197700	-1.805539
0.197800	-1.795801
0.197900	-1.788985
0.198000	-1.742570
0.198100	-1.724718
0.198200	-1.683820
0.198300	-1.647467
0.198400	-1.596832
0.198500	-1.600078
0.198600	-1.603324
0.198700	-1.614684
0.198800	-1.598779
0.198900	-1.635133
0.199000	-1.621500
0.199100	-1.627992
0.199200	-1.590340
0.199300	-1.608517
0.199400	-1.623123
0.199500	-1.580603
0.199600	-1.639677
0.199700	-1.591963
0.199800	-1.598455
0.199900	-1.433892
0.200000	-1.358264
0.200100	-1.363133
0.200200	-1.523152
0.200300	-1.630264
0.200400	-1.593911
0.200500	-1.508546
0.200600	-1.371896
0.200700	-1.335219
0.200800	-1.402732
0.200900	-1.487448
0.201000	-1.502703
0.201100	-1.412794
0.201200	-1.330999
0.201300	-1.291075
0.201400	-1.310226
0.201500	-1.337166
0.201600	-1.349825
0.201700	-1.343658
0.201800	-1.346579
0.201900	-1.331973
0.202000	-1.348202
0.202100	-1.309577
0.202200	-1.304708
0.202300	-1.363457
0.202400	-1.382608
0.202500	-1.368975
0.202600	-1.375467
0.202700	-1.374818
0.202800	-1.332946
0.202900	-1.364106
0.203000	-1.412469
0.203100	-1.566970
0.203200	-1.576708
0.203300	-1.527371
0.203400	-1.410522
0.203500	-1.354693
0.203600	-1.434541
0.203700	-1.570216
0.203800	-1.640975
0.203900	-1.594884
0.204000	-1.472517
0.204100	-1.387152
0.204200	-1.422856
0.204300	-1.504651
0.204400	-1.539381
0.204500	-1.519257
0.204600	-1.502054
0.204700	-1.505624
0.204800	-1.528994
0.204900	-1.513090
0.205000	-1.488746
0.205100	-1.463104
0.205200	-1.493615
0.205300	-1.528020
0.205400	-1.563725
0.205500	-1.565997
0.205600	-1.559180
0.205700	-1.558856
0.205800	-1.592937
0.205900	-1.674407
0.206000	-1.710436
0.206100	-1.711085
0.206200	-1.698426
0.206300	-1.722770
0.206400	-1.738025
0.206500	-1.692908
0.206600	-1.673433
0.206700	-1.657204
0.206800	-1.654283
0.206900	-1.646169
0.207000	-1.650713
0.207100	-1.645844
0.207200	-1.664345
0.207300	-1.674732
0.207400	-1.692584
0.207500	-1.689013
0.207600	-1.710760
0.207700	-1.727314
0.207800	-1.760746
0.207900	-1.777625
0.208000	-1.812030
0.208100	-1.845138
0.208200	-1.916546
0.208300	-2.085978
0.208400	-2.134017
0.208500	-2.058713
0.208600	-1.954198
0.208700	-1.889930
0.208800	-1.999639
0.208900	-2.172642
0.209000	-2.215487
0.209100	-2.197635
0.209200	-2.086952
0.209300	-2.044107
0.209400	-2.078513
0.209500	-2.163554
0.209600	-2.237559
0.209700	-2.233988
0.209800	-2.211592
0.209900	-2.154790
0.210000	-2.143105
0.210100	-2.145702
0.210200	-2.155114
0.210300	-2.167773
0.210400	-2.152193
0.210500	-2.160632
0.210600	-2.162255
0.210700	-2.190819
0.210800	-2.202504
0.210900	-2.208671
0.211000	-2.187897
0.211100	-2.214838
0.211200	-2.202179
0.211300	-2.171993
0.211400	-2.074942
0.211500	-2.018465
0.211600	-2.069100
0.211700	-2.183029
0.211800	-2.236260
0.211900	-2.181730
0.212000	-2.044107
0.212100	-1.959391
0.212200	-1.981138
0.212300	-2.099935
0.212400	-2.178809
0.212500	-2.174914
0.212600	-2.106427
0.212700	-2.038265
0.212800	-2.015544
0.212900	-2.028527
0.213000	-2.044756
0.213100	-2.031448
0.213200	-2.011324
0.213300	-2.009052
0.213400	-1.970427
0.213500	-1.925634
0.213600	-1.868832
0.213700	-1.815925
0.213800	-1.786713
0.213900	-1.788985
0.214000	-1.788660
0.214100	-1.761720
0.214200	-1.680250
0.214300	-1.627667
0.214400	-1.605596
0.214500	-1.572488
0.214600	-1.528345
0.214700	-1.485176
0.214800	-1.443954
0.214900	-1.378388
0.215000	-1.326130
0.215100	-1.293997
0.215200	-1.279066
0.215300	-1.287505
0.215400	-1.300488
0.215500	-1.316068
0.215600	-1.354044
0.215700	-1.343658
0.215800	-1.331324
0.215900	-1.354369
0.216000	-1.328727
0.216100	-1.346254
0.216200	-1.343009
0.216300	-1.379686
0.216400	-1.376765
0.216500	-1.304708
0.216600	-1.223562
0.216700	-1.119696
0.216800	-1.188507
0.216900	-1.355992
0.217000	-1.331973
0.217100	-1.323534
0.217200	-1.198245
0.217300	-1.108336
0.217400	-1.091133
0.217500	-1.164488
0.217600	-1.235247
0.217700	-1.224536
0.217800	-1.154751
0.217900	-1.082369
0.218000	-1.063219
0.218100	-1.079772
0.218200	-1.112555
0.218300	-1.138522
0.218400	-1.145338
0.218500	-1.154426
0.218600	-1.139171
0.218700	-1.142741
0.218800	-1.152803
0.218900	-1.195973
0.219000	-1.247906
0.219100	-1.250178
0.219200	-1.293997
0.219300	-1.318016
0.219400	-1.325806
0.219500	-1.316393
0.219600	-1.330674
0.219700	-1.422207
0.219800	-1.570865
0.219900	-1.578006
0.220000	-1.510168
0.220100	-1.408574
0.220200	-1.409548
0.220300	-1.485825
0.220400	-1.618254
0.220500	-1.620851
0.220600	-1.542627
0.220700	-1.402732
0.220800	-1.362483
0.220900	-1.417987
0.221000	-1.469596
0.221100	-1.455314
0.221200	-1.451419
0.221300	-1.434541
0.221400	-1.451744
0.221500	-1.456937
0.221600	-1.436164
0.221700	-1.419610
0.221800	-1.399486
0.221900	-1.403056
0.222000	-1.444278
0.222100	-1.448822
0.222200	-1.444927
0.222300	-1.449147
0.222400	-1.442980
0.222500	-1.493615
0.222600	-1.573137
0.222700	-1.617930
0.222800	-1.633185
0.222900	-1.655581
0.223000	-1.699725
0.223100	-1.736078
0.223200	-1.715954
0.223300	-1.746465
0.223400	-1.756851
0.223500	-1.795152
0.223600	-1.819171
0.223700	-1.838321
0.223800	-1.848059
0.223900	-1.871754
0.224000	-1.885711
0.224100	-1.881816
0.224200	-1.902264
0.224300	-1.913949
0.224400	-1.938618
0.224500	-1.960689
0.224600	-1.957768
0.224700	-1.983735
0.224800	-2.015868
0.224900	-2.127525
0.225000	-2.275859
0.225100	-2.283974
0.225200	-2.197959
0.225300	-2.086303
0.225400	-2.069749
0.225500	-2.214838
0.225600	-2.351163
0.225700	-2.382647
0.225800	-2.295010
0.225900	-2.194389
0.226000	-2.151219
0.226100	-2.197959
0.226200	-2.244699
0.226300	-2.304423
0.226400	-2.251191
0.226500	-2.198284
0.226600	-2.145702
0.226700	-2.120384
0.226800	-2.098637
0.226900	-2.090522
0.227000	-2.069425
0.227100	-2.052871
0.227200	-2.054494
0.227300	-2.049625
0.227400	-2.075916
0.227500	-2.074942
0.227600	-2.058064
0.227700	-2.058064
0.227800	-2.072995
0.227900	-2.064556
0.228000	-2.023983
0.228100	-1.924336
0.228200	-1.897071
0.228300	-1.981787
0.228400	-2.085978
0.228500	-2.109024
0.228600	-2.011649
0.228700	-1.887009
0.228800	-1.855200
0.228900	-1.920441
0.229000	-2.034045
0.229100	-2.087277
0.229200	-2.058064
0.229300	-1.966856
0.229400	-1.917195
0.229500	-1.920441
0.229600	-1.924985
0.229700	-1.927257
0.229800	-1.897071
0.229900	-1.884412
0.230000	-1.868508
0.230100	-1.846111
0.230200	-1.805214
0.230300	-1.732832
0.230400	-1.696479
0.230500	-1.676030
0.230600	-1.682197
0.230700	-1.709462
0.230800	-1.687066
0.230900	-1.611763
0.231000	-1.570216
0.231100	-1.557233
0.231200	-1.555610
0.231300	-1.507896
0.231400	-1.470245
0.231500	-1.422207
0.231600	-1.399486
0.231700	-1.346903
0.231800	-1.331324
0.231900	-1.340412
0.232000	-1.365405
0.232100	-1.369624
0.232200	-1.397538
0.232300	-1.404679
0.232400	-1.444927
0.232500	-1.399161
0.232600	-1.428049
0.232700	-1.411495
0.232800	-1.451094
0.232900	-1.451744
0.233000	-1.496536
0.233100	-1.501080
0.233200	-1.390398
0.233300	-1.269977
0.233400	-1.217395
0.233500	-1.315419
0.233600	-1.469271
0.233700	-1.475114
0.233800	-1.439734
0.233900	-1.292374
0.234000	-1.228431
0.234100	-1.252125
0.234200	-1.352746
0.234300	-1.401109
0.234400	-1.373844
0.234500	-1.307954
0.234600	-1.235896
0.234700	-1.244985
0.234800	-1.272250
0.234900	-1.311524
0.235000	-1.330350
0.235100	-1.338464
0.235200	-1.335868
0.235300	-1.353720
0.235400	-1.369300
0.235500	-1.375791
0.235600	-1.409872
0.235700	-1.411820
0.235800	-1.463753
0.235900	-1.466674
0.236000	-1.507896
0.236100	-1.471868
0.236200	-1.417662
0.236300	-1.415066
0.236400	-1.512765
0.236500	-1.607868
0.236600	-1.608192
0.236700	-1.489071
0.236800	-1.371247
0.236900	-1.386178
0.237000	-1.484526
0.237100	-1.601376
0.237200	-1.597481
0.237300	-1.495238
0.237400	-1.405653
0.237500	-1.394617
0.237600	-1.490369
0.237700	-1.562102
0.237800	-1.551390
0.237900	-1.572164
0.238000	-1.571839
0.238100	-1.622474
0.238200	-1.650064
0.238300	-1.654283
0.238400	-1.678302
0.238500	-1.684145
0.238600	-1.733481
0.238700	-1.772431
0.238800	-1.813978
0.238900	-1.825338
0.239000	-1.839295
0.239100	-1.865586
0.239200	-1.943486
0.239300	-1.997692
0.239400	-2.048002
0.239500	-2.043133
0.239600	-2.030150
0.239700	-2.049950
0.239800	-2.052871
0.239900	-2.016517
0.240000	-1.991525
0.240100	-1.975945
0.240200	-1.970102
0.240300	-1.949329
0.240400	-1.934723
0.240500	-1.948680
0.240600	-1.943162
0.240700	-1.942837
0.240800	-1.919792
0.240900	-1.921739
0.241000	-1.912326
0.241100	-1.885386
0.241200	-1.878894
0.241300	-1.902913
0.241400	-1.907133
0.241500	-1.940565
0.241600	-2.084031
0.241700	-2.178809
0.241800	-2.147000
0.241900	-2.035992
0.242000	-1.919467
0.242100	-1.942188
0.242200	-2.125902
0.242300	-2.226523
0.242400	-2.260929
0.242500	-2.157387
0.242600	-2.078188
0.242700	-2.075916
0.242800	-2.144403
0.242900	-2.212890
0.243000	-2.244375
0.243100	-2.213539
0.243200	-2.161606
0.243300	-2.133043
0.243400	-2.141807
0.243500	-2.136938
0.243600	-2.152193
0.243700	-2.149272
0.243800	-2.149597
0.243900	-2.153492
0.244000	-2.170694
0.244100	-2.206723
0.244200	-2.212241
0.244300	-2.217110
0.244400	-2.242103
0.244500	-2.275535
0.244600	-2.278131
0.244700	-2.215162
0.244800	-2.124604
0.244900	-2.133367
0.245000	-2.211592
0.245100	-2.297282
0.245200	-2.314160
0.245300	-2.182704
0.245400	-2.072670
0.245500	-2.066828
0.245600	-2.154141
0.245700	-2.257358
0.245800	-2.297606
0.245900	-2.226523
0.246000	-2.144403
0.246100	-2.080460
0.246200	-2.069749
0.246300	-2.083382
0.246400	-2.066503
0.246500	-2.007754
0.246600	-1.979190
0.246700	-1.918493
0.246800	-1.876622
0.246900	-1.812679
0.247000	-1.738675
0.247100	-1.672784
0.247200	-1.628966
0.247300	-1.627343
0.247400	-1.638379
0.247500	-1.576383
0.247600	-1.494913
0.247700	-1.457586
0.247800	-1.442006
0.247900	-1.417662
0.248000	-1.345281
0.248100	-1.326130
0.248200	-1.288154
0.248300	-1.238493
0.248400	-1.203438
0.248500	-1.179419
0.248600	-1.177472
0.248700	-1.208631
0.248800	-1.212526
0.248900	-1.258942
0.249000	-1.247906
0.249100	-1.258617
0.249200	-1.236870
0.249300	-1.236870
0.249400	-1.220966
0.249500	-1.221939
0.249600	-1.257319
0.249700	-1.243037
0.249800	-1.231677
0.249900	-1.145662
0.250000	-1.022646
0.250100	-0.997328
0.250200	-1.147610
0.250300	-1.234273
0.250400	-1.224861
0.250500	-1.171629
0.250600	-1.058999
0.250700	-0.979152
0.250800	-1.039849
0.250900	-1.137223
0.251000	-1.188507
0.251100	-1.141768
0.251200	-1.061596
0.251300	-1.022970
0.251400	-1.043095
0.251500	-1.071982
0.251600	-1.121643
0.251700	-1.121968
0.251800	-1.109958
0.251900	-1.106388
0.252000	-1.124889
0.252100	-1.133653
0.252200	-1.161892
0.252300	-1.177472
0.252400	-1.260889
0.252500	-1.230378
0.252600	-1.268030
0.252700	-1.296593
0.252800	-1.264135
0.252900	-1.278741
0.253000	-1.306331
0.253100	-1.454665
0.253200	-1.503677
0.253300	-1.466674
0.253400	-1.366378
0.253500	-1.306006
0.253600	-1.345281
0.253700	-1.470245
0.253800	-1.546522
0.253900	-1.516985
0.254000	-1.406627
0.254100	-1.361185
0.254200	-1.375142
0.254300	-1.452393
0.254400	-1.480307
0.254500	-1.461806
0.254600	-1.454340
0.254700	-1.446550
0.254800	-1.478035
0.254900	-1.482254
0.255000	-1.454989
0.255100	-1.448822
0.255200	-1.442006
0.255300	-1.459534
0.255400	-1.472192
0.255500	-1.473491
0.255600	-1.469920
0.255700	-1.443629
0.255800	-1.462130
0.255900	-1.536460
0.256000	-1.582226
0.256100	-1.602999
0.256200	-1.597157
0.256300	-1.612412
0.256400	-1.657529
0.256500	-1.642274
0.256600	-1.612737
0.256700	-1.612087
0.256800	-1.605596
0.256900	-1.614035
0.257000	-1.607219
0.257100	-1.607868
0.257200	-1.582550
0.257300	-1.597481
0.257400	-1.620527
0.257500	-1.603973
0.257600	-1.611438
0.257700	-1.614359
0.257800	-1.597157
0.257900	-1.609815
0.258000	-1.618904
0.258100	-1.652660
0.258200	-1.704918
0.258300	-1.844164
0.258400	-1.932775
0.258500	-1.866560
0.258600	-1.763018
0.258700	-1.697128
0.258800	-1.755553
0.258900	-1.902913
0.259000	-1.994446
0.259100	-1.958417
0.259200	-1.856174
0.259300	-1.777949
0.259400	-1.813978
0.259500	-1.882465
0.259600	-1.961663
0.259700	-1.954198
0.259800	-1.918493
0.259900	-1.895448
0.260000	-1.874999
0.260100	-1.887983
0.260200	-1.909730
0.260300	-1.920441
0.260400	-1.917520
0.260500	-1.933100
0.260600	-1.967830
0.260700	-1.975620
0.260800	-2.003859
0.260900	-2.013272
0.261000	-2.015868
0.261100	-2.023334
0.261200	-2.020088
0.261300	-2.013921
0.261400	-1.947381
0.261500	-1.874999
0.261600	-1.928231
0.261700	-2.050923
0.261800	-2.124604
0.261900	-2.136938
0.262000	-2.032422
0.262100	-1.958417
0.262200	-1.979840
0.262300	-2.118437
0.262400	-2.223926
0.262500	-2.217759
0.262600	-2.131095
0.262700	-2.052546
0.262800	-2.031448
0.262900	-2.041186
0.263000	-2.047677
0.263100	-2.041186
0.263200	-2.014570
0.263300	-1.985682
0.263400	-1.967181
0.263500	-1.913625
0.263600	-1.837348
0.263700	-1.753281
0.263800	-1.726990
0.263900	-1.741596
0.264000	-1.741271
0.264100	-1.731209
0.264200	-1.675706
0.264300	-1.589691
0.264400	-1.564698
0.264500	-1.557557
0.264600	-1.534512
0.264700	-1.477710
0.264800	-1.420584
0.264900	-1.377414
0.265000	-1.330025
0.265100	-1.300488
0.265200	-1.296269
0.265300	-1.286531
0.265400	-1.296593
0.265500	-1.310226
0.265600	-1.321586
0.265700	-1.338140
0.265800	-1.321586
0.265900	-1.330999
0.266000	-1.314770
0.266100	-1.329376
0.266200	-1.362159
0.266300	-1.369949
0.266400	-1.428698
0.266500	-1.340412
0.266600	-1.254073
0.266700	-1.106388
0.266800	-1.191104
0.266900	-1.304708
0.267000	-1.450770
0.267100	-1.405977
0.267200	-1.319314
0.267300	-1.208307
0.267400	-1.198569
0.267500	-1.256020
0.267600	-1.360211
0.267700	-1.362159
0.267800	-1.286856
0.267900	-1.216097
0.268000	-1.171304
0.268100	-1.193376
0.268200	-1.199219
0.268300	-1.210254
0.268400	-1.209605
0.268500	-1.196946
0.268600	-1.149233
0.268700	-1.146636
0.268800	-1.130407
0.268900	-1.149557
0.269000	-1.169682
0.269100	-1.184937
0.269200	-1.202140
0.269300	-1.230378
0.269400	-1.245958
0.269500	-1.220966
0.269600	-1.234923
0.269700	-1.271925
0.269800	-1.434541
0.269900	-1.500431
0.270000	-1.455314
0.270100	-1.346903
0.270200	-1.353071
0.270300	-1.421882
0.270400	-1.593262
0.270500	-1.647142
0.270600	-1.591314
0.270700	-1.471543
0.270800	-1.428374
0.270900	-1.495238
0.271000	-1.594235
0.271100	-1.626044
0.271200	-1.616632
0.271300	-1.582875
0.271400	-1.586121
0.271500	-1.596183
0.271600	-1.591963
0.271700	-1.566321
0.271800	-1.550417
0.271900	-1.547495
0.272000	-1.579629
0.272100	-1.598130
0.272200	-1.587419
0.272300	-1.566321
0.272400	-1.559830
0.272500	-1.590989
0.272600	-1.648765
0.272700	-1.692259
0.272800	-1.700374
0.272900	-1.695505
0.273000	-1.720173
0.273100	-1.746789
0.273200	-1.713033
0.273300	-1.689987
0.273400	-1.682522
0.273500	-1.680250
0.273600	-1.676355
0.273700	-1.663047
0.273800	-1.684469
0.273900	-1.672460
0.274000	-1.684145
0.274100	-1.690636
0.274200	-1.687391
0.274300	-1.683171
0.274400	-1.697777
0.274500	-1.697128
0.274600	-1.709787
0.274700	-1.727314
0.274800	-1.750360
0.274900	-1.863964
0.275000	-1.998665
0.275100	-2.051248
0.275200	-1.970102
0.275300	-1.844489
0.275400	-1.825663
0.275500	-1.961988
0.275600	-2.129148
0.275700	-2.214838
0.275800	-2.159009
0.275900	-2.074293
0.276000	-2.057740
0.276100	-2.113243
0.276200	-2.215811
0.276300	-2.263850
0.276400	-2.264499
0.276500	-2.221654
0.276600	-2.192766
0.276700	-2.194064
0.276800	-2.205100
0.276900	-2.227172
0.277000	-2.225549
0.277100	-2.235936
0.277200	-2.221329
0.277300	-2.227172
0.277400	-2.232041
0.277500	-2.252814
0.277600	-2.255411
0.277700	-2.244699
0.277800	-2.265148
0.277900	-2.267096
0.278000	-2.214513
0.278100	-2.109348
0.278200	-2.061635
0.278300	-2.110971
0.278400	-2.214838
0.278500	-2.272938
0.278600	-2.215162
0.278700	-2.078837
0.278800	-1.998341
0.278900	-2.050599
0.279000	-2.174589
0.279100	-2.279105
0.279200	-2.250217
0.279300	-2.158360
0.279400	-2.093444
0.279500	-2.084031
0.279600	-2.107725
0.279700	-2.118437
0.279800	-2.115515
0.279900	-2.106102
0.280000	-2.103181
0.280100	-2.074942
0.280200	-2.034045
0.280300	-1.972699
0.280400	-1.926283
0.280500	-1.898045
0.280600	-1.909730
0.280700	-1.897720
0.280800	-1.867859
0.280900	-1.788660
0.281000	-1.731858
0.281100	-1.691610
0.281200	-1.686092
0.281300	-1.629290
0.281400	-1.592288
0.281500	-1.527371
0.281600	-1.469920
0.281700	-1.408250
0.281800	-1.361510
0.281900	-1.352421
0.282000	-1.346903
0.282100	-1.376116
0.282200	-1.374818
0.282300	-1.424154
0.282400	-1.392345
0.282500	-1.417987
0.282600	-1.396565
0.282700	-1.428049
0.282800	-1.422207
0.282900	-1.466350
0.283000	-1.511142
0.283100	-1.512765
0.283200	-1.451094
0.283300	-1.320612
0.283400	-1.265433
0.283500	-1.391371
0.283600	-1.537758
0.283700	-1.616632
0.283800	-1.544250
0.283900	-1.472517
0.284000	-1.350474
0.284100	-1.381309
0.284200	-1.474789
0.284300	-1.573787
0.284400	-1.568593
0.284500	-1.484202
0.284600	-1.431619
0.284700	-1.417013
0.284800	-1.425128
0.284900	-1.471543
0.285000	-1.483228
0.285100	-1.492641
0.285200	-1.487448
0.285300	-1.480307
0.285400	-1.448498
0.285500	-1.448173
0.285600	-1.453691
0.285700	-1.476087
0.285800	-1.509844
0.285900	-1.506598
0.286000	-1.546197
0.286100	-1.491667
0.286200	-1.479333
0.286300	-1.443954
0.286400	-1.543276
0.286500	-1.668565
0.286600	-1.674083
0.286700	-1.589042
0.286800	-1.472517
0.286900	-1.467324
0.287000	-1.566646
0.287100	-1.690636
0.287200	-1.704918
0.287300	-1.597481
0.287400	-1.483877
0.287500	-1.444603
0.287600	-1.500106
0.287700	-1.568269
0.287800	-1.542627
0.287900	-1.528994
0.288000	-1.511467
0.288100	-1.527371
0.288200	-1.520880
0.288300	-1.499133
0.288400	-1.492641
0.288500	-1.488097
0.288600	-1.496536
0.288700	-1.523152
0.288800	-1.529319
0.288900	-1.527371
0.289000	-1.508546
0.289100	-1.493290
0.289200	-1.559830
0.289300	-1.637729
0.289400	-1.672460
0.289500	-1.660126
0.289600	-1.648116
0.289700	-1.675381
0.289800	-1.698102
0.289900	-1.652336
0.290000	-1.661749
0.290100	-1.658827
0.290200	-1.656555
0.290300	-1.635457
0.290400	-1.649414
0.290500	-1.651362
0.290600	-1.653634
0.290700	-1.667916
0.290800	-1.641624
0.290900	-1.648765
0.291000	-1.635457
0.291100	-1.663047
0.291200	-1.638379
0.291300	-1.664345
0.291400	-1.668240
0.291500	-1.691935
0.291600	-1.803267
0.291700	-1.910703
0.291800	-1.924985
0.291900	-1.789959
0.292000	-1.721472
0.292100	-1.705243
0.292200	-1.878245
0.292300	-2.028527
0.292400	-2.072021
0.292500	-2.013272
0.292600	-1.903238
0.292700	-1.884412
0.292800	-1.934073
0.292900	-2.020737
0.293000	-2.087277
0.293100	-2.086627
0.293200	-2.033071
0.293300	-1.997367
0.293400	-1.975620
0.293500	-1.996069
0.293600	-2.001911
0.293700	-2.000288
0.293800	-2.009377
0.293900	-2.030799
0.294000	-2.028852
0.294100	-2.046055
0.294200	-2.035019
0.294300	-2.041510
0.294400	-2.043458
0.294500	-2.048002
0.294600	-2.045730
0.294700	-1.952575
0.294800	-1.871754
0.294900	-1.834426
0.295000	-1.938618
0.295100	-2.040861
0.295200	-2.069100
0.295300	-1.968479
0.295400	-1.833777
0.295500	-1.777300
0.295600	-1.848059
0.295700	-1.965883
0.295800	-2.016842
0.295900	-1.986331
0.296000	-1.891878
0.296100	-1.826637
0.296200	-1.827935
0.296300	-1.850980
0.296400	-1.872078
0.296500	-1.852603
0.296600	-1.829558
0.296700	-1.804565
0.296800	-1.768861
0.296900	-1.711410
0.297000	-1.647791
0.297100	-1.590665
0.297200	-1.578331
0.297300	-1.575734
0.297400	-1.587419
0.297500	-1.550741
0.297600	-1.472841
0.297700	-1.429672
0.297800	-1.410846
0.297900	-1.397214
0.298000	-1.337166
0.298100	-1.315744
0.298200	-1.264135
0.298300	-1.194674
0.298400	-1.131056
0.298500	-1.131705
0.298600	-1.099896
0.298700	-1.112231
0.298800	-1.104765
0.298900	-1.139171
0.299000	-1.130407
0.299100	-1.136899
0.299200	-1.120670
0.299300	-1.118722
0.299400	-1.134302
0.299500	-1.135600
0.299600	-1.175849
0.299700	-1.170655
0.299800	-1.167085
0.299900	-1.060297
0.300000	-0.938579
0.300100	-0.913911
0.300200	-1.000899
0.300300	-1.181367
0.300400	-1.149882
0.300500	-1.149882
0.300600	-1.003496
0.300700	-0.931114
0.300800	-0.945720
0.300900	-1.057701
0.301000	-1.143390
0.301100	-1.113529
0.301200	-1.033357
0.301300	-0.968441
0.301400	-0.979801
0.301500	-1.001548
0.301600	-1.034980
0.301700	-1.059973
0.301800	-1.060622
0.301900	-1.039200
0.302000	-1.036603
0.302100	-1.039200
0.302200	-1.046016
0.302300	-1.071009
0.302400	-1.092756
0.302500	-1.102168
0.302600	-1.122617
0.302700	-1.168383
0.302800	-1.142417
0.302900	-1.141768
0.303000	-1.139820
0.303100	-1.293023
0.303200	-1.366703
0.303300	-1.361834
0.303400	-1.265758
0.303500	-1.170980
0.303600	-1.206359
0.303700	-1.326779
0.303800	-1.428049
0.303900	-1.449796
0.304000	-1.356641
0.304100	-1.260565
0.304200	-1.251476
0.304300	-1.339438
0.304400	-1.391696
0.304500	-1.418636
0.304600	-1.442331
0.304700	-1.419285
0.304800	-1.435514
0.304900	-1.437137
0.305000	-1.429997
0.305100	-1.437787
0.305200	-1.437787
0.305300	-1.467648
0.305400	-1.505300
0.305500	-1.529643
0.305600	-1.534512
0.305700	-1.542951
0.305800	-1.524125
0.305900	-1.608192
0.306000	-1.672135
0.306100	-1.694531
0.306200	-1.672784
0.306300	-1.670512
0.306400	-1.708488
0.306500	-1.694531
0.306600	-1.637405
0.306700	-1.624097
0.306800	-1.634159
0.306900	-1.623772
0.307000	-1.630913
0.307100	-1.608517
0.307200	-1.624746
0.307300	-1.621825
0.307400	-1.642598
0.307500	-1.647142
0.307600	-1.648116
0.307700	-1.653634
0.307800	-1.629615
0.307900	-1.681223
0.308000	-1.683171
0.308100	-1.717901
0.308200	-1.761395
0.308300	-1.934073
0.308400	-2.025281
0.308500	-2.018465
0.308600	-1.913949
0.308700	-1.837023
0.308800	-1.898369
0.308900	-2.087277
0.309000	-2.192117
0.309100	-2.219057
0.309200	-2.131420
0.309300	-2.050599
0.309400	-2.061310
0.309500	-2.091172
0.309600	-2.176212
0.309700	-2.174265
0.309800	-2.155439
0.309900	-2.101234
0.310000	-2.083057
0.310100	-2.082732
0.310200	-2.113243
0.310300	-2.126876
0.310400	-2.129797
0.310500	-2.154465
0.310600	-2.139859
0.310700	-2.142131
0.310800	-2.163229
0.310900	-2.146675
0.311000	-2.146351
0.311100	-2.156413
0.311200	-2.152842
0.311300	-2.146351
0.311400	-2.080136
0.311500	-1.981463
0.311600	-2.005482
0.311700	-2.111296
0.311800	-2.195363
0.311900	-2.187573
0.312000	-2.076565
0.312100	-1.973673
0.312200	-1.959391
0.312300	-2.047677
0.312400	-2.173291
0.312500	-2.198933
0.312600	-2.155114
0.312700	-2.077864
0.312800	-2.051248
0.312900	-2.074942
0.313000	-2.088900
0.313100	-2.089224
0.313200	-2.072670
0.313300	-2.075916
0.313400	-2.044432
0.313500	-2.013921
0.313600	-1.972050
0.313700	-1.905835
0.313800	-1.866885
0.313900	-1.871429
0.314000	-1.882789
0.314100	-1.878894
0.314200	-1.836374
0.314300	-1.773730
0.314400	-1.740622
0.314500	-1.728613
0.314600	-1.690636
0.314700	-1.638379
0.314800	-1.592288
0.314900	-1.549118
0.315000	-1.504326
0.315100	-1.449796
0.315200	-1.432269
0.315300	-1.388450
0.315400	-1.390398
0.315500	-1.386827
0.315600	-1.416040
0.315700	-1.414092
0.315800	-1.402732
0.315900	-1.382932
0.316000	-1.383906
0.316100	-1.368975
0.316200	-1.380985
0.316300	-1.381309
0.316400	-1.450445
0.316500	-1.378388
0.316600	-1.285882
0.316700	-1.157347
0.316800	-1.121968
0.316900	-1.306331
0.317000	-1.393319
0.317100	-1.438436
0.317200	-1.365405
0.317300	-1.260240
0.317400	-1.215123
0.317500	-1.296918
0.317600	-1.406627
0.317700	-1.437787
0.317800	-1.406302
0.317900	-1.334894
0.318000	-1.322560
0.318100	-1.336192
0.318200	-1.386827
0.318300	-1.407925
0.318400	-1.428374
0.318500	-1.442655
0.318600	-1.442980
0.318700	-1.439085
0.318800	-1.429672
0.318900	-1.429347
0.319000	-1.470245
0.319100	-1.516660
0.319200	-1.537758
0.319300	-1.598130
0.319400	-1.602674
0.319500	-1.572813
0.319600	-1.579629
0.319700	-1.615009
0.319800	-1.782818
0.319900	-1.836049
0.320000	-1.792555
0.320100	-1.693233
0.320200	-1.645195
0.320300	-1.698102
0.320400	-1.827610
0.320500	-1.875649
0.320600	-1.843190
0.320700	-1.706865
0.320800	-1.650064
0.320900	-1.695181
0.321000	-1.778598
0.321100	-1.830207
0.321200	-1.786713
0.321300	-1.797749
0.321400	-1.796450
0.321500	-1.831181
0.321600	-1.804889
0.321700	-1.804565
0.321800	-1.777625
0.321900	-1.783467
0.322000	-1.817873
0.322100	-1.847410
0.322200	-1.843190
0.322300	-1.834102
0.322400	-1.822417
0.322500	-1.835725
0.322600	-1.903887
0.322700	-1.946732
0.322800	-1.962637
0.322900	-1.955171
0.323000	-1.968155
0.323100	-2.009052
0.323200	-1.950303
0.323300	-1.915572
0.323400	-1.899992
0.323500	-1.890904
0.323600	-1.874999
0.323700	-1.850980
0.323800	-1.840594
0.323900	-1.813329
0.324000	-1.774703
0.324100	-1.753281
0.324200	-1.720823
0.324300	-1.704593
0.324400	-1.671161
0.324500	-1.661424
0.324600	-1.663371
0.324700	-1.661424
0.324800	-1.656231
0.324900	-1.710436
0.325000	-1.827286
0.325100	-1.889930
0.325200	-1.806837
0.325300	-1.702321
0.325400	-1.670837
0.325500	-1.774054
0.325600	-1.938942
0.325700	-2.023009
0.325800	-2.011973
0.325900	-1.913625
0.326000	-1.874026
0.326100	-1.897720
0.326200	-1.994446
0.326300	-2.069749
0.326400	-2.091821
0.326500	-2.046055
0.326600	-2.032097
0.326700	-2.053195
0.326800	-2.065530
0.326900	-2.092470
0.327000	-2.088250
0.327100	-2.110322
0.327200	-2.124928
0.327300	-2.134341
0.327400	-2.165826
0.327500	-2.188547
0.327600	-2.200556
0.327700	-2.161282
0.327800	-2.185301
0.327900	-2.190169
0.328000	-2.166150
0.328100	-2.100909
0.328200	-2.055467
0.328300	-2.090522
0.328400	-2.214513
0.328500	-2.285921
0.328600	-2.246322
0.328700	-2.094417
0.328800	-1.987305
0.328900	-1.994770
0.329000	-2.081759
0.329100	-2.162580
0.329200	-2.128174
0.329300	-2.030150
0.329400	-1.934398
0.329500	-1.905510
0.329600	-1.916871
0.329700	-1.924011
0.329800	-1.902264
0.329900	-1.870455
0.330000	-1.850656
0.330100	-1.831830
0.330200	-1.791257
0.330300	-1.750360
0.330400	-1.684794
0.330500	-1.656231
0.330600	-1.664994
0.330700	-1.659476
0.330800	-1.650388
0.330900	-1.593911
0.331000	-1.537758
0.331100	-1.527696
0.331200	-1.524450
0.331300	-1.498483
0.331400	-1.467324
0.331500	-1.431619
0.331600	-1.396565
0.331700	-1.363457
0.331800	-1.368651
0.331900	-1.352097
0.332000	-1.369949
0.332100	-1.405328
0.332200	-1.419935
0.332300	-1.435190
0.332400	-1.443954
0.332500	-1.442980
0.332600	-1.455639
0.332700	-1.463753
0.332800	-1.477710
0.332900	-1.510818
0.333000	-1.536784
0.333100	-1.562102
0.333200	-1.526073
0.333300	-1.434216
0.333400	-1.356641
0.333500	-1.386178
0.333600	-1.565347
0.333700	-1.625395
0.333800	-1.620527
0.333900	-1.552364
0.334000	-1.431619
0.334100	-1.421557
0.334200	-1.507896
0.334300	-1.592288
0.334400	-1.606894
0.334500	-1.543925
0.334600	-1.480956
0.334700	-1.448173
0.334800	-1.485176
0.334900	-1.516660
0.335000	-1.532565
0.335100	-1.539381
0.335200	-1.524125
0.335300	-1.518932
0.335400	-1.530293
0.335500	-1.526398
0.335600	-1.546197
0.335700	-1.581901
0.335800	-1.564698
0.335900	-1.561452
0.336000	-1.582875
0.336100	-1.565023
0.336200	-1.553013
0.336300	-1.536784
0.336400	-1.640651
0.336500	-1.749061
0.336600	-1.788011
0.336700	-1.707190
0.336800	-1.599429
0.336900	-1.546846
0.337000	-1.613386
0.337100	-1.749061
0.337200	-1.773405
0.337300	-1.689013
0.337400	-1.531591
0.337500	-1.450445
0.337600	-1.504326
0.337700	-1.561128
0.337800	-1.582875
0.337900	-1.543276
0.338000	-1.522503
0.338100	-1.510168
0.338200	-1.507572
0.338300	-1.504975
0.338400	-1.487123
0.338500	-1.493615
0.338600	-1.509519
0.338700	-1.556908
0.338800	-1.597806
0.338900	-1.597157
0.339000	-1.602025
0.339100	-1.606245
0.339200	-1.664994
0.339300	-1.743219
0.339400	-1.776326
0.339500	-1.797099
0.339600	-1.827610
0.339700	-1.866560
0.339800	-1.905835
0.339900	-1.847734
0.340000	-1.839295
0.340100	-1.818197
0.340200	-1.818522
0.340300	-1.828259
0.340400	-1.813004
0.340500	-1.791257
0.340600	-1.796126
0.340700	-1.784441
0.340800	-1.772756
0.340900	-1.752307
0.341000	-1.737376
0.341100	-1.725691
0.341200	-1.702970
0.341300	-1.706541
0.341400	-1.668240
0.341500	-1.693882
0.341600	-1.768536
0.341700	-1.891553
0.341800	-1.894474
0.341900	-1.784765
0.342000	-1.657854
0.342100	-1.622474
0.342200	-1.743219
0.342300	-1.858121
0.342400	-1.883114
0.342500	-1.821119
0.342600	-1.705892
0.342700	-1.642923
0.342800	-1.693233
0.342900	-1.778923
0.343000	-1.837997
0.343100	-1.837997
0.343200	-1.815925
0.343300	-1.783792
0.343400	-1.795152
0.343500	-1.810407
0.343600	-1.865262
0.343700	-1.872078
0.343800	-1.912326
0.343900	-1.926608
0.344000	-1.939591
0.344100	-1.994770
0.344200	-2.023658
0.344300	-2.053520
0.344400	-2.055792
0.344500	-2.087926
0.344600	-2.121358
0.344700	-2.083057
0.344800	-2.018140
0.344900	-1.985033
0.345000	-2.061310
0.345100	-2.176212
0.345200	-2.206074
0.345300	-2.124279
0.345400	-1.997367
0.345500	-1.928231
0.345600	-1.983735
0.345700	-2.115840
0.345800	-2.192117
0.345900	-2.159334
0.346000	-2.079487
0.346100	-2.004183
0.346200	-1.980489
0.346300	-2.004183
0.346400	-2.006780
0.346500	-1.976918
0.346600	-1.958742
0.346700	-1.924011
0.346800	-1.892527
0.346900	-1.825338
0.347000	-1.741271
0.347100	-1.691935
0.347200	-1.656880
0.347300	-1.658178
0.347400	-1.641624
0.347500	-1.610140
0.347600	-1.525748
0.347700	-1.464078
0.347800	-1.437462
0.347900	-1.425452
0.348000	-1.345605
0.348100	-1.310550
0.348200	-1.255047
0.348300	-1.213825
0.348400	-1.141768
0.348500	-1.096975
0.348600	-1.071333
0.348700	-1.091782
0.348800	-1.103467
0.348900	-1.096651
0.349000	-1.118398
0.349100	-1.103467
0.349200	-1.132355
0.349300	-1.107686
0.349400	-1.149882
0.349500	-1.135276
0.349600	-1.188832
0.349700	-1.198569
0.349800	-1.209605
0.349900	-1.135276
0.350000	-1.041472
0.350100	-0.977854
0.350200	-1.103467
0.350300	-1.239791
0.350400	-1.299839
0.350500	-1.251801
0.350600	-1.168708
0.350700	-1.082694
0.350800	-1.114503
0.350900	-1.222588
0.351000	-1.289777
0.351100	-1.277443
0.351200	-1.191104
0.351300	-1.133653
0.351400	-1.133328
0.351500	-1.148584
0.351600	-1.182340
0.351700	-1.182016
0.351800	-1.193376
0.351900	-1.180068
0.352000	-1.169032
0.352100	-1.177472
0.352200	-1.173901
0.352300	-1.191753
0.352400	-1.247581
0.352500	-1.238493
0.352600	-1.246283
0.352700	-1.265109
0.352800	-1.246283
0.352900	-1.221615
0.353000	-1.225834
0.353100	-1.318665
0.353200	-1.426751
0.353300	-1.431944
0.353400	-1.331973
0.353500	-1.212851
0.353600	-1.249204
0.353700	-1.343658
0.353800	-1.482254
0.353900	-1.479009
0.354000	-1.395266
0.354100	-1.292374
0.354200	-1.257319
0.354300	-1.352421
0.354400	-1.437462
0.354500	-1.455639
0.354600	-1.483877
0.354700	-1.482904
0.354800	-1.517309
0.354900	-1.522503
0.355000	-1.524125
0.355100	-1.523476
0.355200	-1.514063
0.355300	-1.544899
0.355400	-1.598779
0.355500	-1.594560
0.355600	-1.597157
0.355700	-1.594560
0.355800	-1.585796
0.355900	-1.652011
0.356000	-1.701023
0.356100	-1.729586
0.356200	-1.714006
0.356300	-1.715629
0.356400	-1.743868
0.356500	-1.752307
0.356600	-1.684469
0.356700	-1.676355
0.356800	-1.671161
0.356900	-1.666617
0.357000	-1.655906
0.357100	-1.682197
0.357200	-1.673433
0.357300	-1.680574
0.357400	-1.676355
0.357500	-1.680250
0.357600	-1.689013
0.357700	-1.660775
0.357800	-1.679925
0.357900	-1.651362
0.358000	-1.702321
0.358100	-1.707515
0.358200	-1.726990
0.358300	-1.856174
0.358400	-1.957119
0.358500	-1.960689
0.358600	-1.833777
0.358700	-1.761071
0.358800	-1.777300
0.358900	-1.928556
0.359000	-2.078188
0.359100	-2.101234
0.359200	-2.035019
0.359300	-1.931152
0.359400	-1.920441
0.359500	-1.984059
0.359600	-2.097988
0.359700	-2.129797
0.359800	-2.134666
0.359900	-2.094742
0.360000	-2.121358
0.360100	-2.152842
0.360200	-2.181730
0.360300	-2.229119
0.360400	-2.262551
0.360500	-2.287544
0.360600	-2.301826
0.360700	-2.346619
0.360800	-2.389464
0.360900	-2.415430
0.361000	-2.430686
0.361100	-2.468986
0.361200	-2.460547
0.361300	-2.498524
0.361400	-2.444967
0.361500	-2.373559
0.361600	-2.356031
0.361700	-2.463144
0.361800	-2.566037
0.361900	-2.592653
0.362000	-2.482944
0.362100	-2.385244
0.362200	-2.340776
0.362300	-2.421597
0.362400	-2.535202
0.362500	-2.598495
0.362600	-2.552729
0.362700	-2.449836
0.362800	-2.374533
0.362900	-2.376805
0.363000	-2.375831
0.363100	-2.390113
0.363200	-2.385569
0.363300	-2.375831
0.363400	-2.326170
0.363500	-2.272289
0.363600	-2.200881
0.363700	-2.124604
0.363800	-2.081759
0.363900	-2.054169
0.364000	-2.043782
0.364100	-2.026255
0.364200	-1.962312
0.364300	-1.871429
0.364400	-1.825338
0.364500	-1.786388
0.364600	-1.785090
0.364700	-1.702321
0.364800	-1.676030
0.364900	-1.617930
0.365000	-1.555610
0.365100	-1.499133
0.365200	-1.467973
0.365300	-1.453691
0.365400	-1.444278
0.365500	-1.448822
0.365600	-1.466350
0.365700	-1.479982
0.365800	-1.497834
0.365900	-1.492316
0.366000	-1.499782
0.366100	-1.500756
0.366200	-1.546197
0.366300	-1.544250
0.366400	-1.583524
0.366500	-1.577682
0.366600	-1.479009
0.366700	-1.403056
0.366800	-1.304383
0.366900	-1.479658
0.367000	-1.575085
0.367100	-1.631238
0.367200	-1.550417
0.367300	-1.437462
0.367400	-1.345281
0.367500	-1.379362
0.367600	-1.488097
0.367700	-1.523476
0.367800	-1.477061
0.367900	-1.377739
0.368000	-1.301137
0.368100	-1.282961
0.368200	-1.281987
0.368300	-1.303085
0.368400	-1.310226
0.368500	-1.277443
0.368600	-1.256670
0.368700	-1.257968
0.368800	-1.244660
0.368900	-1.258942
0.369000	-1.254722
0.369100	-1.297242
0.369200	-1.287180
0.369300	-1.313147
0.369400	-1.305357
0.369500	-1.269653
0.369600	-1.264460
0.369700	-1.283610
0.369800	-1.371572
0.369900	-1.423180
0.370000	-1.380335
0.370100	-1.266083
0.370200	-1.151180
0.370300	-1.189806
0.370400	-1.284908
0.370500	-1.359562
0.370600	-1.308603
0.370700	-1.179744
0.370800	-1.082694
0.370900	-1.075553
0.371000	-1.131705
0.371100	-1.155075
0.371200	-1.127810
0.371300	-1.151830
0.371400	-1.123266
0.371500	-1.148584
0.371600	-1.122293
0.371700	-1.121319
0.371800	-1.036927
0.371900	-1.017777
0.372000	-1.125214
0.372100	-1.189806
0.372200	-1.195324
0.372300	-1.128784
0.372400	-1.075228
0.372500	-1.153128
0.372600	-1.301137
0.372700	-1.341061
0.372800	-1.366378
0.372900	-1.366054
0.373000	-1.392994
0.373100	-1.427075
0.373200	-1.434541
0.373300	-1.412794
0.373400	-1.423180
0.373500	-1.442980
0.373600	-1.471219
0.373700	-1.480956
0.373800	-1.501080
0.373900	-1.528345
0.374000	-1.543600
0.374100	-1.571515
0.374200	-1.591639
0.374300	-1.649090
0.374400	-1.669863
0.374500	-1.685768
0.374600	-1.716603
0.374700	-1.739648
0.374800	-1.805539
0.374900	-1.874999
0.375000	-2.028202
0.375100	-2.131420
0.375200	-2.117138
0.375300	-2.010026
0.375400	-1.982436
0.375500	-2.066503
0.375600	-2.205749
0.375700	-2.330065
0.375800	-2.357330
0.375900	-2.284299
0.376000	-2.218733
0.376100	-2.239506
0.376200	-2.314809
0.376300	-2.398227
0.376400	-2.411211
0.376500	-2.378428
0.376600	-2.335583
0.376700	-2.357979
0.376800	-2.353759
0.376900	-2.378752
0.377000	-2.376480
0.377100	-2.364146
0.377200	-2.380051
0.377300	-2.362199
0.377400	-2.360576
0.377500	-2.362848
0.377600	-2.362199
0.377700	-2.327468
0.377800	-2.332661
0.377900	-2.322599
0.378000	-2.288194
0.378100	-2.167449
0.378200	-2.079162
0.378300	-2.075916
0.378400	-2.174265
0.378500	-2.221654
0.378600	-2.202828
0.378700	-2.059362
0.378800	-1.953224
0.378900	-1.952575
0.379000	-2.029501
0.379100	-2.109673
0.379200	-2.111620
0.379300	-2.035343
0.379400	-1.950627
0.379500	-1.922713
0.379600	-1.946083
0.379700	-1.946408
0.379800	-1.909730
0.379900	-1.856823
0.380000	-1.840918
0.380100	-1.792555
0.380200	-1.733806
0.380300	-1.656555
0.380400	-1.570541
0.380500	-1.525748
0.380600	-1.528020
0.380700	-1.516336
0.380800	-1.516660
0.380900	-1.442006
0.381000	-1.375791
0.381100	-1.352746
0.381200	-1.342684
0.381300	-1.328727
0.381400	-1.278741
0.381500	-1.225834
0.381600	-1.172927
0.381700	-1.139495
0.381800	-1.089185
0.381900	-1.096326
0.382000	-1.083018
0.382100	-1.110932
0.382200	-1.115801
0.382300	-1.155075
0.382400	-1.145338
0.382500	-1.151830
0.382600	-1.150531
0.382700	-1.130407
0.382800	-1.135600
0.382900	-1.132679
0.383000	-1.180068
0.383100	-1.157997
0.383200	-1.129109
0.383300	-1.023295
0.383400	-0.881128
0.383500	-0.928517
0.383600	-1.034980
0.383700	-1.144689
0.383800	-1.117099
0.383900	-1.078149
0.384000	-0.963247
0.384100	-0.935333
0.384200	-1.028813
0.384300	-1.142092
0.384400	-1.170980
0.384500	-1.122293
0.384600	-1.070035
0.384700	-1.053806
0.384800	-1.083018
0.384900	-1.153777
0.385000	-1.204736
0.385100	-1.235572
0.385200	-1.240116
0.385300	-1.272574
0.385400	-1.297892
0.385500	-1.315094
0.385600	-1.347228
0.385700	-1.380660
0.385800	-1.443629
0.385900	-1.461481
0.386000	-1.479009
0.386100	-1.539381
0.386200	-1.491343
0.386300	-1.516660
0.386400	-1.549118
0.386500	-1.737701
0.386600	-1.773405
0.386700	-1.716278
0.386800	-1.630913
0.386900	-1.601376
0.387000	-1.676030
0.387100	-1.819171
0.387200	-1.877271
0.387300	-1.814627
0.387400	-1.693233
0.387500	-1.645195
0.387600	-1.689663
0.387700	-1.756851
0.387800	-1.770808
0.387900	-1.731858
0.388000	-1.703620
0.388100	-1.693558
0.388200	-1.721472
0.388300	-1.713682
0.388400	-1.707190
0.388500	-1.684469
0.388600	-1.696154
0.388700	-1.750684
0.388800	-1.804565
0.388900	-1.818847
0.389000	-1.825663
0.389100	-1.836374
0.389200	-1.885711
0.389300	-1.981463
0.389400	-2.027878
0.389500	-2.047677
0.389600	-2.051572
0.389700	-2.085329
0.389800	-2.121358
0.389900	-2.094093
0.390000	-2.076565
0.390100	-2.044107
0.390200	-2.036642
0.390300	-2.038589
0.390400	-2.039563
0.390500	-2.046704
0.390600	-2.019439
0.390700	-2.023983
0.390800	-2.020737
0.390900	-2.012947
0.391000	-2.001587
0.391100	-1.973673
0.391200	-1.960365
0.391300	-1.959066
0.391400	-1.966207
0.391500	-1.962637
0.391600	-2.040537
0.391700	-2.161931
0.391800	-2.193091
0.391900	-2.120384
0.392000	-1.964260
0.392100	-1.894150
0.392200	-1.968479
0.392300	-2.130122
0.392400	-2.204127
0.392500	-2.172642
0.392600	-2.079162
0.392700	-2.001587
0.392800	-2.047353
0.392900	-2.149921
0.393000	-2.206723
0.393100	-2.179783
0.393200	-2.132718
0.393300	-2.077215
0.393400	-2.052222
0.393500	-2.042484
0.393600	-2.042160
0.393700	-2.011000
0.393800	-1.972050
0.393900	-1.907782
0.394000	-1.882140
0.394100	-1.876622
0.394200	-1.887009
0.394300	-1.837023
0.394400	-1.804889
0.394500	-1.781195
0.394600	-1.799696
0.394700	-1.736403
0.394800	-1.652011
0.394900	-1.597481
0.395000	-1.647142
0.395100	-1.756202
0.395200	-1.814627
0.395300	-1.805863
0.395400	-1.693882
0.395500	-1.642923
0.395600	-1.684794
0.395700	-1.823715
0.395800	-1.950303
0.395900	-1.986007
0.396000	-1.926933
0.396100	-1.884088
0.396200	-1.897071
0.396300	-1.945758
0.396400	-1.996069
0.396500	-2.028852
0.396600	-2.031124
0.396700	-2.038589
0.396800	-2.038914
0.396900	-2.030475
0.397000	-1.996393
0.397100	-1.969778
0.397200	-1.959391
0.397300	-1.977568
0.397400	-1.990551
0.397500	-2.010350
0.397600	-1.934723
0.397700	-1.896097
0.397800	-1.883114
0.397900	-1.895448
0.398000	-1.844813
0.398100	-1.791257
0.398200	-1.747438
0.398300	-1.719200
0.398400	-1.664021
0.398500	-1.624746
0.398600	-1.597157
0.398700	-1.613061
0.398800	-1.631562
0.398900	-1.603973
0.399000	-1.640326
0.399100	-1.582226
0.399200	-1.589691
0.399300	-1.548469
0.399400	-1.573137
0.399500	-1.542627
0.399600	-1.531266
0.399700	-1.517634
0.399800	-1.488421
0.399900	-1.417013
0.400000	-1.298865
0.400100	-1.168708
0.400200	-1.241414
0.400300	-1.348202
0.400400	-1.423505
0.400500	-1.334569
0.400600	-1.242063
0.400700	-1.096326
0.400800	-1.075228
0.400900	-1.136250
0.401000	-1.221615
0.401100	-1.195973
0.401200	-1.115476
0.401300	-1.043095
0.401400	-1.017777
0.401500	-1.048288
0.401600	-1.087562
0.401700	-1.127486
0.401800	-1.131381
0.401900	-1.128460
0.402000	-1.123915
0.402100	-1.143066
0.402200	-1.162865
0.402300	-1.199543
0.402400	-1.269653
0.402500	-1.236546
0.402600	-1.289452
0.402700	-1.326455
0.402800	-1.334894
0.402900	-1.355992
0.403000	-1.334569
0.403100	-1.406627
0.403200	-1.540355
0.403300	-1.601701
0.403400	-1.530942
0.403500	-1.435839
0.403600	-1.423505
0.403700	-1.515037
0.403800	-1.649414
0.403900	-1.664021
0.404000	-1.599429
0.404100	-1.489071
0.404200	-1.463429
0.404300	-1.532565
0.404400	-1.619228
0.404500	-1.633185
0.404600	-1.615009
0.404700	-1.596183
0.404800	-1.601376
0.404900	-1.611114
0.405000	-1.608192
0.405100	-1.582875
0.405200	-1.568269
0.405300	-1.591314
0.405400	-1.641300
0.405500	-1.682522
0.405600	-1.668565
0.405700	-1.682197
0.405800	-1.698751
0.405900	-1.751658
0.406000	-1.830856
0.406100	-1.843515
0.406200	-1.852928
0.406300	-1.866236
0.406400	-1.899668
0.406500	-1.899668
0.406600	-1.838646
0.406700	-1.817873
0.406800	-1.799372
0.406900	-1.788336
0.407000	-1.752307
0.407100	-1.720498
0.407200	-1.684145
0.407300	-1.698426
0.407400	-1.662722
0.407500	-1.658503
0.407600	-1.659152
0.407700	-1.672784
0.407800	-1.671486
0.407900	-1.692908
0.408000	-1.714331
0.408100	-1.732183
0.408200	-1.791257
0.408300	-1.916546
0.408400	-2.068451
0.408500	-2.080460
0.408600	-2.031773
0.408700	-1.923362
0.408800	-1.951601
0.408900	-2.105129
0.409000	-2.265797
0.409100	-2.312862
0.409200	-2.275535
0.409300	-2.169721
0.409400	-2.154790
0.409500	-2.208995
0.409600	-2.285597
0.409700	-2.312537
0.409800	-2.298256
0.409900	-2.235611
0.410000	-2.181081
0.410100	-2.160308
0.410200	-2.146026
0.410300	-2.149272
0.410400	-2.137912
0.410500	-2.137262
0.410600	-2.134666
0.410700	-2.116164
0.410800	-2.132394
0.410900	-2.136613
0.411000	-2.116164
0.411100	-2.107725
0.411200	-2.104804
0.411300	-2.115840
0.411400	-2.044432
0.411500	-1.939591
0.411600	-1.923038
0.411700	-1.984059
0.411800	-2.083706
0.411900	-2.109673
0.412000	-2.025930
0.412100	-1.909081
0.412200	-1.855200
0.412300	-1.927906
0.412400	-2.020088
0.412500	-2.080785
0.412600	-2.047028
0.412700	-1.966532
0.412800	-1.914923
0.412900	-1.919792
0.413000	-1.931477
0.413100	-1.925959
0.413200	-1.914923
0.413300	-1.899668
0.413400	-1.855524
0.413500	-1.826312
0.413600	-1.768861
0.413700	-1.721796
0.413800	-1.679276
0.413900	-1.672460
0.414000	-1.700698
0.414100	-1.696803
0.414200	-1.698102
0.414300	-1.650713
0.414400	-1.599104
0.414500	-1.590989
0.414600	-1.596832
0.414700	-1.535486
0.414800	-1.515686
0.414900	-1.458560
0.415000	-1.441032
0.415100	-1.395266
0.415200	-1.395915
0.415300	-1.412794
0.415400	-1.466350
0.415500	-1.487772
0.415600	-1.532565
0.415700	-1.570865
0.415800	-1.587744
0.415900	-1.612412
0.416000	-1.627018
0.416100	-1.639352
0.416200	-1.694856
0.416300	-1.733806
0.416400	-1.818522
0.416500	-1.792231
0.416600	-1.773080
0.416700	-1.623772
0.416800	-1.584498
0.416900	-1.713682
0.417000	-1.918493
0.417100	-1.982436
0.417200	-1.908107
0.417300	-1.828909
0.417400	-1.747438
0.417500	-1.801319
0.417600	-1.910379
0.417700	-1.968155
0.417800	-1.948680
0.417900	-1.846436
0.418000	-1.798722
0.418100	-1.797099
0.418200	-1.815925
0.418300	-1.865262
0.418400	-1.885061
0.418500	-1.874026
0.418600	-1.844813
0.418700	-1.856498
0.418800	-1.867209
0.418900	-1.862341
0.419000	-1.869157
0.419100	-1.898694
0.419200	-1.900966
0.419300	-1.940565
0.419400	-1.964909
0.419500	-1.931801
0.419600	-1.932451
0.419700	-1.911028
0.419800	-2.046379
0.419900	-2.134990
0.420000	-2.136613
0.420100	-2.035019
0.420200	-1.943162
0.420300	-1.958417
0.420400	-2.055143
0.420500	-2.197635
0.420600	-2.135639
0.420700	-2.031773
0.420800	-1.927257
0.420900	-1.887333
0.421000	-1.936346
0.421100	-1.941863
0.421200	-1.883114
0.421300	-1.855849
0.421400	-1.789634
0.421500	-1.781520
0.421600	-1.743868
0.421700	-1.716603
0.421800	-1.701997
0.421900	-1.676679
0.422000	-1.685443
0.422100	-1.689338
0.422200	-1.670512
0.422300	-1.631238
0.422400	-1.580603
0.422500	-1.561452
0.422600	-1.611763
0.422700	-1.636431
0.422800	-1.639352
0.422900	-1.621825
0.423000	-1.623772
0.423100	-1.640651
0.423200	-1.639677
0.423300	-1.590016
0.423400	-1.568593
0.423500	-1.572488
0.423600	-1.550417
0.423700	-1.549118
0.423800	-1.566646
0.423900	-1.556584
0.424000	-1.555935
0.424100	-1.560803
0.424200	-1.559830
0.424300	-1.568918
0.424400	-1.543276
0.424500	-1.562751
0.424600	-1.555935
0.424700	-1.577032
0.424800	-1.585147
0.424900	-1.651686
0.425000	-1.774379
0.425100	-1.894150
0.425200	-1.888307
0.425300	-1.762045
0.425400	-1.687715
0.425500	-1.741271
0.425600	-1.889281
0.425700	-2.022360
0.425800	-2.048976
0.425900	-1.962637
0.426000	-1.863639
0.426100	-1.844489
0.426200	-1.905186
0.426300	-1.980489
0.426400	-2.018790
0.426500	-1.968804
0.426600	-1.917844
0.426700	-1.887333
0.426800	-1.861691
0.426900	-1.866885
0.427000	-1.865911
0.427100	-1.862341
0.427200	-1.839620
0.427300	-1.845138
0.427400	-1.862990
0.427500	-1.908431
0.427600	-1.911028
0.427700	-1.920441
0.427800	-1.933424
0.427900	-1.931801
0.428000	-1.927257
0.428100	-1.876622
0.428200	-1.807811
0.428300	-1.819171
0.428400	-1.914274
0.428500	-2.001262
0.428600	-1.996718
0.428700	-1.884088
0.428800	-1.784441
0.428900	-1.751658
0.429000	-1.832154
0.429100	-1.940565
0.429200	-1.945758
0.429300	-1.902589
0.429400	-1.795477
0.429500	-1.730235
0.429600	-1.701023
0.429700	-1.697128
0.429800	-1.685118
0.429900	-1.653309
0.430000	-1.621825
0.430100	-1.570541
0.430200	-1.497185
0.430300	-1.419935
0.430400	-1.360211
0.430500	-1.318665
0.430600	-1.296918
0.430700	-1.305032
0.430800	-1.323209
0.430900	-1.312498
0.431000	-1.244660
0.431100	-1.234273
0.431200	-1.250827
0.431300	-1.276794
0.431400	-1.241739
0.431500	-1.226483
0.431600	-1.210579
0.431700	-1.186884
0.431800	-1.170980
0.431900	-1.204087
0.432000	-1.230378
0.432100	-1.277443
0.432200	-1.290426
0.432300	-1.335219
0.432400	-1.333271
0.432500	-1.364431
0.432600	-1.371896
0.432700	-1.353395
0.432800	-1.388125
0.432900	-1.389748
0.433000	-1.432269
0.433100	-1.405328
0.433200	-1.421233
0.433300	-1.343009
0.433400	-1.218693
0.433500	-1.198245
0.433600	-1.318665
0.433700	-1.457586
0.433800	-1.434865
0.433900	-1.377414
0.434000	-1.234598
0.434100	-1.157672
0.434200	-1.203114
0.434300	-1.305682
0.434400	-1.335219
0.434500	-1.254722
0.434600	-1.163190
0.434700	-1.089834
0.434800	-1.083992
0.434900	-1.096326
0.435000	-1.114827
0.435100	-1.137873
0.435200	-1.122293
0.435300	-1.108336
0.435400	-1.117099
0.435500	-1.116775
0.435600	-1.136899
0.435700	-1.146636
0.435800	-1.226159
0.435900	-1.205061
0.436000	-1.236546
0.436100	-1.226483
0.436200	-1.213500
0.436300	-1.191753
0.436400	-1.219018
0.436500	-1.388125
0.436600	-1.466350
0.436700	-1.430646
0.436800	-1.345605
0.436900	-1.258293
0.437000	-1.321586
0.437100	-1.468297
0.437200	-1.553663
0.437300	-1.498483
0.437400	-1.350149
0.437500	-1.288803
0.437600	-1.311524
0.437700	-1.389099
0.437800	-1.419610
0.437900	-1.420259
0.438000	-1.416689
0.438100	-1.384555
0.438200	-1.398188
0.438300	-1.392670
0.438400	-1.375467
0.438500	-1.376440
0.438600	-1.397214
0.438700	-1.443304
0.438800	-1.496536
0.438900	-1.511791
0.439000	-1.514063
0.439100	-1.528345
0.439200	-1.587744
0.439300	-1.700049
0.439400	-1.762045
0.439500	-1.806188
0.439600	-1.798722
0.439700	-1.812679
0.439800	-1.840594
0.439900	-1.801319
0.440000	-1.761071
0.440100	-1.719200
0.440200	-1.693233
0.440300	-1.668565
0.440400	-1.651686
0.440500	-1.644870
0.440600	-1.628966
0.440700	-1.602350
0.440800	-1.602674
0.440900	-1.620527
0.441000	-1.614359
0.441100	-1.603973
0.441200	-1.605596
0.441300	-1.639352
0.441400	-1.655581
0.441500	-1.711410
0.441600	-1.791906
0.441700	-1.932126
0.441800	-2.014895
0.441900	-1.970751
0.442000	-1.870455
0.442100	-1.773405
0.442200	-1.869157
0.442300	-2.097663
0.442400	-2.195363
0.442500	-2.222303
0.442600	-2.128823
0.442700	-2.054818
0.442800	-2.092470
0.442900	-2.180432
0.443000	-2.276509
0.443100	-2.271640
0.443200	-2.221654
0.443300	-2.190819
0.443400	-2.158685
0.443500	-2.159334
0.443600	-2.173940
0.443700	-2.171993
0.443800	-2.167773
0.443900	-2.168422
0.444000	-2.170045
0.444100	-2.178809
0.444200	-2.165177
0.444300	-2.135315
0.444400	-2.105778
0.444500	-2.122981
0.444600	-2.129797
0.444700	-2.113892
0.444800	-2.046055
0.444900	-1.960365
0.445000	-2.000613
0.445100	-2.150246
0.445200	-2.236909
0.445300	-2.237559
0.445400	-2.137262
0.445500	-2.072995
0.445600	-2.091496
0.445700	-2.197635
0.445800	-2.310914
0.445900	-2.342074
0.446000	-2.260279
0.446100	-2.170045
0.446200	-2.115191
0.446300	-2.121682
0.446400	-2.119086
0.446500	-2.099286
0.446600	-2.053195
0.446700	-2.028852
0.446800	-1.973997
0.446900	-1.909081
0.447000	-1.853577
0.447100	-1.783792
0.447200	-1.745166
0.447300	-1.743868
0.447400	-1.761720
0.447500	-1.766913
0.447600	-1.718226
0.447700	-1.654932
0.447800	-1.640651
0.447900	-1.647142
0.448000	-1.651362
0.448100	-1.631562
0.448200	-1.596507
0.448300	-1.587419
0.448400	-1.560803
0.448500	-1.540679
0.448600	-1.551066
0.448700	-1.569892
0.448800	-1.616956
0.448900	-1.626694
0.449000	-1.695505
0.449100	-1.720498
0.449200	-1.734455
0.449300	-1.780221
0.449400	-1.765615
0.449500	-1.819820
0.449600	-1.796126
0.449700	-1.819171
0.449800	-1.793204
0.449900	-1.775352
0.450000	-1.678951
0.450100	-1.513739
0.450200	-1.558856
0.450300	-1.652011
0.450400	-1.763992
0.450500	-1.710436
0.450600	-1.632211
0.450700	-1.487772
0.450800	-1.447524
0.450900	-1.516336
0.451000	-1.584173
0.451100	-1.584822
0.451200	-1.506598
0.451300	-1.435839
0.451400	-1.399161
0.451500	-1.435514
0.451600	-1.478359
0.451700	-1.486149
0.451800	-1.497185
0.451900	-1.471868
0.452000	-1.447524
0.452100	-1.455314
0.452200	-1.439409
0.452300	-1.439409
0.452400	-1.443954
0.452500	-1.490369
0.452600	-1.462130
0.452700	-1.453367
0.452800	-1.474140
0.452900	-1.424479
0.453000	-1.436488
0.453100	-1.439734
0.453200	-1.602674
0.453300	-1.617930
0.453400	-1.578655
0.453500	-1.431619
0.453600	-1.405653
0.453700	-1.462130
0.453800	-1.622474
0.453900	-1.635133
0.454000	-1.576383
0.454100	-1.436164
0.454200	-1.370923
0.454300	-1.382932
0.454400	-1.446550
0.454500	-1.447849
0.454600	-1.435190
0.454700	-1.411820
0.454800	-1.411820
0.454900	-1.431295
0.455000	-1.429347
0.455100	-1.436164
0.455200	-1.431619
0.455300	-1.461806
0.455400	-1.511142
0.455500	-1.564049
0.455600	-1.555285
0.455700	-1.572813
0.455800	-1.589367
0.455900	-1.627667
0.456000	-1.724393
0.456100	-1.746140
0.456200	-1.764641
0.456300	-1.774054
0.456400	-1.794503
0.456500	-1.826312
0.456600	-1.784765
0.456700	-1.774379
0.456800	-1.758150
0.456900	-1.753281
0.457000	-1.737376
0.457100	-1.723419
0.457200	-1.721147
0.457300	-1.699076
0.457400	-1.697777
0.457500	-1.695181
0.457600	-1.698751
0.457700	-1.689987
0.457800	-1.708488
0.457900	-1.716928
0.458000	-1.711410
0.458100	-1.743543
0.458200	-1.765940
0.458300	-1.887333
0.458400	-2.035343
0.458500	-2.082732
0.458600	-1.999964
0.458700	-1.892527
0.458800	-1.853901
0.458900	-1.971076
0.459000	-2.139859
0.459100	-2.220356
0.459200	-2.169396
0.459300	-2.067802
0.459400	-2.004508
0.459500	-2.030799
0.459600	-2.121682
0.459700	-2.169072
0.459800	-2.183678
0.459900	-2.112919
0.460000	-2.088900
0.460100	-2.049950
0.460200	-2.062284
0.460300	-2.065205
0.460400	-2.070723
0.460500	-2.062608
0.460600	-2.037291
0.460700	-2.029501
0.460800	-2.037940
0.460900	-2.043133
0.461000	-2.016517
0.461100	-1.972374
0.461200	-1.990226
0.461300	-1.995095
0.461400	-1.939591
0.461500	-1.853901
0.461600	-1.809758
0.461700	-1.870780
0.461800	-1.959715
0.461900	-2.015219
0.462000	-1.965233
0.462100	-1.835400
0.462200	-1.748412
0.462300	-1.786388
0.462400	-1.900641
0.462500	-1.979515
0.462600	-1.980164
0.462700	-1.897396
0.462800	-1.828259
0.462900	-1.823715
0.463000	-1.845138
0.463100	-1.848059
0.463200	-1.827935
0.463300	-1.813329
0.463400	-1.813329
0.463500	-1.784441
0.463600	-1.736403
0.463700	-1.685118
0.463800	-1.639677
0.463900	-1.635782
0.464000	-1.647142
0.464100	-1.672135
0.464200	-1.649739
0.464300	-1.580927
0.464400	-1.523801
0.464500	-1.503028
0.464600	-1.482904
0.464700	-1.409872
0.464800	-1.368001
0.464900	-1.305032
0.465000	-1.252125
0.465100	-1.195324
0.465200	-1.168059
0.465300	-1.153452
0.465400	-1.149882
0.465500	-1.160269
0.465600	-1.151505
0.465700	-1.158970
0.465800	-1.188832
0.465900	-1.192727
0.466000	-1.223887
0.466100	-1.222588
0.466200	-1.262837
0.466300	-1.288803
0.466400	-1.325806
0.466500	-1.361510
0.466600	-1.283935
0.466700	-1.226808
0.466800	-1.074254
0.466900	-1.214799
0.467000	-1.352746
0.467100	-1.462455
0.467200	-1.403056
0.467300	-1.306331
0.467400	-1.210254
0.467500	-1.216421
0.467600	-1.324183
0.467700	-1.397538
0.467800	-1.392020
0.467900	-1.332297
0.468000	-1.246932
0.468100	-1.226808
0.468200	-1.239142
0.468300	-1.276145
0.468400	-1.292374
0.468500	-1.319639
0.468600	-1.283935
0.468700	-1.271925
0.468800	-1.260565
0.468900	-1.252775
0.469000	-1.241414
0.469100	-1.269653
0.469200	-1.349500
0.469300	-1.345930
0.469400	-1.379686
0.469500	-1.375467
0.469600	-1.329051
0.469700	-1.320612
0.469800	-1.395591
0.469900	-1.562426
0.470000	-1.547495
0.470100	-1.461157
0.470200	-1.332297
0.470300	-1.329376
0.470400	-1.409872
0.470500	-1.522503
0.470600	-1.517958
0.470700	-1.415066
0.470800	-1.307304
0.470900	-1.286207
0.471000	-1.338789
0.471100	-1.401109
0.471200	-1.391371
0.471300	-1.419610
0.471400	-1.406302
0.471500	-1.453042
0.471600	-1.477710
0.471700	-1.487123
0.471800	-1.486149
0.471900	-1.503352
0.472000	-1.572164
0.472100	-1.627343
0.472200	-1.673109
0.472300	-1.687391
0.472400	-1.689663
0.472500	-1.710436
0.472600	-1.779572
0.472700	-1.846436
0.472800	-1.882789
0.472900	-1.898369
0.473000	-1.904212
0.473100	-1.945758
0.473200	-1.973023
0.473300	-1.939916
0.473400	-1.946732
0.473500	-1.956470
0.473600	-1.936346
0.473700	-1.949004
0.473800	-1.973348
0.473900	-1.971076
0.474000	-1.994121
0.474100	-2.017167
0.474200	-2.028202
0.474300	-2.049625
0.474400	-2.051572
0.474500	-2.065530
0.474600	-2.078513
0.474700	-2.092794
0.474800	-2.095391
0.474900	-2.095067
0.475000	-2.207048
0.475100	-2.321626
0.475200	-2.319029
0.475300	-2.190494
0.475400	-2.071372
0.475500	-2.083382
0.475600	-2.239181
0.475700	-2.350838
0.475800	-2.373884
0.475900	-2.283974
0.476000	-2.190494
0.476100	-2.144403
0.476200	-2.197310
0.476300	-2.257683
0.476400	-2.254112
0.476500	-2.186599
0.476600	-2.132069
0.476700	-2.097988
0.476800	-2.063907
0.476900	-2.042160
0.477000	-2.026255
0.477100	-1.995420
0.477200	-1.990226
0.477300	-1.985682
0.477400	-1.989253
0.477500	-2.025281
0.477600	-1.992174
0.477700	-1.966207
0.477800	-1.965233
0.477900	-1.987630
0.478000	-2.015219
0.478100	-1.949329
0.478200	-1.883439
0.478300	-1.881491
0.478400	-1.985358
0.478500	-2.107725
0.478600	-2.144403
0.478700	-2.074942
0.478800	-1.961663
0.478900	-1.964260
0.479000	-2.079162
0.479100	-2.234313
0.479200	-2.295010
0.479300	-2.253788
0.479400	-2.173291
0.479500	-2.153492
0.479600	-2.186274
0.479700	-2.206074
0.479800	-2.205100
0.479900	-2.191143
0.480000	-2.183678
0.480100	-2.158685
0.480200	-2.143105
0.480300	-2.096365
0.480400	-2.022035
0.480500	-1.994770
0.480600	-1.973997
0.480700	-1.972374
0.480800	-1.989577
0.480900	-1.963935
0.481000	-1.889606
0.481100	-1.841892
0.481200	-1.832804
0.481300	-1.846436
0.481400	-1.796450
0.481500	-1.772107
0.481600	-1.752307
0.481700	-1.711410
0.481800	-1.674407
0.481900	-1.683171
0.482000	-1.721472
0.482100	-1.757176
0.482200	-1.763992
0.482300	-1.789959
0.482400	-1.835076
0.482500	-1.841892
0.482600	-1.853252
0.482700	-1.825338
0.482800	-1.840594
0.482900	-1.829882
0.483000	-1.839944
0.483100	-1.840918
0.483200	-1.783792
0.483300	-1.711734
0.483400	-1.526398
0.483500	-1.454340
0.483600	-1.576383
0.483700	-1.704269
0.483800	-1.722770
0.483900	-1.643247
0.484000	-1.499457
0.484100	-1.428374
0.484200	-1.473815
0.484300	-1.568918
0.484400	-1.647791
0.484500	-1.622149
0.484600	-1.540679
0.484700	-1.494264
0.484800	-1.510168
0.484900	-1.555935
0.485000	-1.616632
0.485100	-1.635133
0.485200	-1.629290
0.485300	-1.602025
0.485400	-1.610464
0.485500	-1.617605
0.485600	-1.619553
0.485700	-1.601701
0.485800	-1.634808
0.485900	-1.600078
0.486000	-1.654932
0.486100	-1.662398
0.486200	-1.649414
0.486300	-1.620202
0.486400	-1.584173
0.486500	-1.744192
0.486600	-1.828909
0.486700	-1.825338
0.486800	-1.741920
0.486900	-1.642598
0.487000	-1.710111
0.487100	-1.819820
0.487200	-1.965558
0.487300	-1.956794
0.487400	-1.853577
0.487500	-1.778598
0.487600	-1.774703
0.487700	-1.858446
0.487800	-1.896422
0.487900	-1.863314
0.488000	-1.827286
0.488100	-1.775677
0.488200	-1.782169
0.488300	-1.765290
0.488400	-1.753930
0.488500	-1.742245
0.488600	-1.715629
0.488700	-1.721796
0.488800	-1.717577
0.488900	-1.699725
0.489000	-1.678951
0.489100	-1.654608
0.489200	-1.649414
0.489300	-1.706541
0.489400	-1.731858
0.489500	-1.738675
0.489600	-1.722770
0.489700	-1.734455
0.489800	-1.769185
0.489900	-1.761720
0.490000	-1.727963
0.490100	-1.718226
0.490200	-1.723744
0.490300	-1.687715
0.490400	-1.682522
0.490500	-1.703620
0.490600	-1.716278
0.490700	-1.717252
0.490800	-1.728613
0.490900	-1.750360
0.491000	-1.764966
0.491100	-1.798722
0.491200	-1.796775
0.491300	-1.828584
0.491400	-1.842216
0.491500	-1.889281
0.491600	-1.939916
0.491700	-2.079162
0.491800	-2.174589
0.491900	-2.119735
0.492000	-2.014245
0.492100	-1.903887
0.492200	-1.950952
0.492300	-2.101558
0.492400	-2.185301
0.492500	-2.201205
0.492600	-2.068126
0.492700	-1.994770
0.492800	-1.950303
0.492900	-2.029501
0.493000	-2.097014
0.493100	-2.124604
0.493200	-2.097663
0.493300	-2.074293
0.493400	-2.058064
0.493500	-2.074942
0.493600	-2.115191
0.493700	-2.179458
0.493800	-2.195038
0.493900	-2.240804
0.494000	-2.275859
0.494100	-2.343697
0.494200	-2.425817
0.494300	-2.426466
0.494400	-2.481970
0.494500	-2.516376
0.494600	-2.558896
0.494700	-2.569607
0.494800	-2.488137
0.494900	-2.432958
0.495000	-2.470609
0.495100	-2.569607
0.495200	-2.672176
0.495300	-2.673150
0.495400	-2.571879
0.495500	-2.459898
0.495600	-2.441397
0.495700	-2.517025
0.495800	-2.611479
0.495900	-2.591030
0.496000	-2.503392
0.496100	-2.357654
0.496200	-2.275535
0.496300	-2.226198
0.496400	-2.154141
0.496500	-2.071047
0.496600	-1.990226
0.496700	-1.915572
0.496800	-1.824689
0.496900	-1.726665
0.497000	-1.654608
0.497100	-1.569242
0.497200	-1.509519
0.497300	-1.490044
0.497400	-1.508870
0.497500	-1.521853
0.497600	-1.474140
0.497700	-1.418636
0.497800	-1.388125
0.497900	-1.406627
0.498000	-1.419610
0.498100	-1.376440
0.498200	-1.364106
0.498300	-1.318665
0.498400	-1.259591
0.498500	-1.207658
0.498600	-1.170006
0.498700	-1.184612
0.498800	-1.173252
0.498900	-1.180068
0.499000	-1.160918
0.499100	-1.176173
0.499200	-1.139495
0.499300	-1.130083
0.499400	-1.134302
0.499500	-1.136574
0.499600	-1.171629
0.499700	-1.135925
0.499800	-1.163190
0.499900	-1.065815
0.500000	-0.979476
0.500100	-0.816536
0.500200	-0.748374
0.500300	-0.879830
0.500400	-0.905147
0.500500	-0.942149
0.500600	-0.789271
0.500700	-0.615295
0.500800	-0.501367
0.500900	-0.531229
0.501000	-0.598742
0.501100	-0.589329
0.501200	-0.507534
0.501300	-0.409186
0.501400	-0.342647
0.501500	-0.349138
0.501600	-0.384518
0.501700	-0.430608
0.501800	-0.443267
0.501900	-0.425090
0.502000	-0.443267
0.502100	-0.477997
0.502200	-0.493577
0.502300	-0.521167
0.502400	-0.538694
0.502500	-0.664307
0.502600	-0.682484
0.502700	-0.787324
0.502800	-0.805500
0.502900	-0.861653
0.503000	-0.875286
0.503100	-0.984670
0.503200	-1.164813
0.503300	-1.280040
0.503400	-1.286856
0.503500	-1.259591
0.503600	-1.264135
0.503700	-1.409223
0.503800	-1.600078
0.503900	-1.735753
0.504000	-1.748087
0.504100	-1.669863
0.504200	-1.661099
0.504300	-1.728288
0.504400	-1.836374
0.504500	-1.928556
0.504600	-1.924661
0.504700	-1.956470
0.504800	-1.963286
0.504900	-2.010675
0.505000	-2.008078
0.505100	-2.008403
0.505200	-2.006455
0.505300	-2.031773
0.505400	-2.033720
0.505500	-2.064231
0.505600	-2.050923
0.505700	-2.016842
0.505800	-1.982112
0.505900	-2.003534
0.506000	-2.062933
0.506100	-2.091172
0.506200	-2.107401
0.506300	-2.098637
0.506400	-2.109673
0.506500	-2.147974
0.506600	-2.120709
0.506700	-2.127849
0.506800	-2.105778
0.506900	-2.094742
0.507000	-2.097014
0.507100	-2.091172
0.507200	-2.087601
0.507300	-2.099611
0.507400	-2.093119
0.507500	-2.084680
0.507600	-2.060336
0.507700	-2.070398
0.507800	-2.068451
0.507900	-2.064556
0.508000	-2.085654
0.508100	-2.068775
0.508200	-2.086303
0.508300	-2.113568
0.508400	-2.221329
0.508500	-2.239831
0.508600	-2.141807
0.508700	-2.034370
0.508800	-1.938618
0.508900	-2.007429
0.509000	-2.164852
0.509100	-2.222303
0.509200	-2.187573
0.509300	-2.064556
0.509400	-1.991849
0.509500	-2.046704
0.509600	-2.135639
0.509700	-2.220031
0.509800	-2.175239
0.509900	-2.165501
0.510000	-2.124928
0.510100	-2.122656
0.510200	-2.138561
0.510300	-2.135964
0.510400	-2.132718
0.510500	-2.118761
0.510600	-2.132718
0.510700	-2.117138
0.510800	-2.131744
0.510900	-2.136938
0.511000	-2.121682
0.511100	-2.099286
0.511200	-2.131420
0.511300	-2.134341
0.511400	-2.094742
0.511500	-2.008078
0.511600	-1.984059
0.511700	-2.023983
0.511800	-2.121033
0.511900	-2.187897
0.512000	-2.173616
0.512100	-2.040212
0.512200	-1.937644
0.512300	-1.939591
0.512400	-2.052871
0.512500	-2.157711
0.512600	-2.137912
0.512700	-2.068451
0.512800	-1.964909
0.512900	-1.904212
0.513000	-1.895448
0.513100	-1.924985
0.513200	-1.914923
0.513300	-1.902913
0.513400	-1.859419
0.513500	-1.814627
0.513600	-1.759123
0.513700	-1.708164
0.513800	-1.646493
0.513900	-1.602025
0.514000	-1.572813
0.514100	-1.550092
0.514200	-1.526398
0.514300	-1.427400
0.514400	-1.360211
0.514500	-1.333271
0.514600	-1.315419
0.514700	-1.278417
0.514800	-1.250827
0.514900	-1.215123
0.515000	-1.198245
0.515100	-1.155725
0.515200	-1.168708
0.515300	-1.212851
0.515400	-1.282636
0.515500	-1.362808
0.515600	-1.409548
0.515700	-1.497185
0.515800	-1.506923
0.515900	-1.600078
0.516000	-1.618904
0.516100	-1.695830
0.516200	-1.738350
0.516300	-1.813004
0.516400	-1.886360
0.516500	-1.906484
0.516600	-1.908107
0.516700	-1.824364
0.516800	-1.718550
0.516900	-1.777625
0.517000	-1.942513
0.517100	-2.070398
0.517200	-2.003210
0.517300	-1.922388
0.517400	-1.784441
0.517500	-1.781195
0.517600	-1.851629
0.517700	-1.920441
0.517800	-1.909730
0.517900	-1.802942
0.518000	-1.698751
0.518100	-1.635457
0.518200	-1.642598
0.518300	-1.661099
0.518400	-1.670188
0.518500	-1.614359
0.518600	-1.543600
0.518700	-1.508870
0.518800	-1.472517
0.518900	-1.452393
0.519000	-1.417338
0.519100	-1.448822
0.519200	-1.429672
0.519300	-1.469920
0.519400	-1.441357
0.519500	-1.454016
0.519600	-1.435839
0.519700	-1.393968
0.519800	-1.464402
0.519900	-1.578980
0.520000	-1.590016
0.520100	-1.541653
0.520200	-1.410197
0.520300	-1.377739
0.520400	-1.447524
0.520500	-1.573787
0.520600	-1.585796
0.520700	-1.524125
0.520800	-1.422856
0.520900	-1.382608
0.521000	-1.431619
0.521100	-1.506598
0.521200	-1.543276
0.521300	-1.565672
0.521400	-1.572164
0.521500	-1.583524
0.521600	-1.622799
0.521700	-1.647791
0.521800	-1.650388
0.521900	-1.653634
0.522000	-1.679601
0.522100	-1.733806
0.522200	-1.767238
0.522300	-1.778923
0.522400	-1.782493
0.522500	-1.799696
0.522600	-1.857147
0.522700	-1.938293
0.522800	-1.972374
0.522900	-1.982112
0.523000	-1.999639
0.523100	-2.039887
0.523200	-2.051248
0.523300	-2.021386
0.523400	-2.028527
0.523500	-2.019763
0.523600	-1.992823
0.523700	-1.988928
0.523800	-1.986331
0.523900	-1.990551
0.524000	-1.976269
0.524100	-1.975620
0.524200	-1.979840
0.524300	-1.973997
0.524400	-1.947057
0.524500	-1.930828
0.524600	-1.916221
0.524700	-1.910379
0.524800	-1.894474
0.524900	-1.865262
0.525000	-1.920441
0.525100	-2.025930
0.525200	-2.036966
0.525300	-1.921739
0.525400	-1.783142
0.525500	-1.699400
0.525600	-1.837023
0.525700	-1.970427
0.525800	-1.988928
0.525900	-1.914923
0.526000	-1.764966
0.526100	-1.689663
0.526200	-1.723095
0.526300	-1.771133
0.526400	-1.764966
0.526500	-1.671811
0.526600	-1.578331
0.526700	-1.505300
0.526800	-1.441682
0.526900	-1.401433
0.527000	-1.358264
0.527100	-1.331648
0.527200	-1.258293
0.527300	-1.231677
0.527400	-1.219667
0.527500	-1.235572
0.527600	-1.206359
0.527700	-1.184288
0.527800	-1.180068
0.527900	-1.199219
0.528000	-1.223238
0.528100	-1.166760
0.528200	-1.108011
0.528300	-1.124565
0.528400	-1.188832
0.528500	-1.283285
0.528600	-1.365405
0.528700	-1.307629
0.528800	-1.203114
0.528900	-1.184288
0.529000	-1.235247
0.529100	-1.338140
0.529200	-1.392670
0.529300	-1.392670
0.529400	-1.330350
0.529500	-1.305357
0.529600	-1.327753
0.529700	-1.367352
0.529800	-1.407600
0.529900	-1.440383
0.530000	-1.486474
0.530100	-1.491343
0.530200	-1.499782
0.530300	-1.491018
0.530400	-1.457911
0.530500	-1.444927
0.530600	-1.479658
0.530700	-1.562751
0.530800	-1.612737
0.530900	-1.660450
0.531000	-1.650388
0.531100	-1.673109
0.531200	-1.719200
0.531300	-1.801319
0.531400	-1.782818
0.531500	-1.812030
0.531600	-1.825987
0.531700	-1.855849
0.531800	-1.840594
0.531900	-1.834426
0.532000	-1.866885
0.532100	-1.929205
0.532200	-1.978866
0.532300	-2.059362
0.532400	-2.091172
0.532500	-2.156413
0.532600	-2.153492
0.532700	-2.204127
0.532800	-2.208346
0.532900	-2.258007
0.533000	-2.307669
0.533100	-2.304098
0.533200	-2.314809
0.533300	-2.282351
0.533400	-2.108050
0.533500	-2.065530
0.533600	-2.103506
0.533700	-2.308318
0.533800	-2.330714
0.533900	-2.312537
0.534000	-2.097339
0.534100	-1.970751
0.534200	-1.949004
0.534300	-1.993472
0.534400	-2.000938
0.534500	-1.906808
0.534600	-1.740947
0.534700	-1.599104
0.534800	-1.505624
0.534900	-1.457262
0.535000	-1.388125
0.535100	-1.312822
0.535200	-1.232975
0.535300	-1.156049
0.535400	-1.101195
0.535500	-1.058025
0.535600	-1.028488
0.535700	-0.993109
0.535800	-0.971362
0.535900	-1.008040
0.536000	-1.039849
0.536100	-1.071982
0.536200	-1.040173
0.536300	-1.008040
0.536400	-0.972011
0.536500	-1.091457
0.536600	-1.180393
0.536700	-1.188183
0.536800	-1.125214
0.536900	-0.978178
0.537000	-1.008040
0.537100	-1.131056
0.537200	-1.271925
0.537300	-1.275495
0.537400	-1.236221
0.537500	-1.177147
0.537600	-1.195324
0.537700	-1.306006
0.537800	-1.414092
0.537900	-1.441032
0.538000	-1.473166
0.538100	-1.493615
0.538200	-1.563725
0.538300	-1.594560
0.538400	-1.612087
0.538500	-1.630589
0.538600	-1.638703
0.538700	-1.689987
0.538800	-1.747438
0.538900	-1.781844
0.539000	-1.781844
0.539100	-1.780870
0.539200	-1.807811
0.539300	-1.883439
0.539400	-1.939591
0.539500	-1.960365
0.539600	-1.961663
0.539700	-1.963935
0.539800	-2.000288
0.539900	-2.022685
0.540000	-1.980164
0.540100	-1.977243
0.540200	-1.963286
0.540300	-1.950303
0.540400	-1.976594
0.540500	-1.992498
0.540600	-2.031124
0.540700	-2.041835
0.540800	-2.075592
0.540900	-2.089224
0.541000	-2.113243
0.541100	-2.119735
0.541200	-2.130122
0.541300	-2.142456
0.541400	-2.153816
0.541500	-2.152193
0.541600	-2.184327
0.541700	-2.289167
0.541800	-2.421922
0.541900	-2.385244
0.542000	-2.277158
0.542100	-2.164527
0.542200	-2.190169
0.542300	-2.340451
0.542400	-2.479049
0.542500	-2.502743
0.542600	-2.410237
0.542700	-2.306370
0.542800	-2.303124
0.542900	-2.361874
0.543000	-2.441072
0.543100	-2.454705
0.543200	-2.394981
0.543300	-2.315783
0.543400	-2.267420
0.543500	-2.277482
0.543600	-2.305396
0.543700	-2.297282
0.543800	-2.295010
0.543900	-2.255086
0.544000	-2.264824
0.544100	-2.289816
0.544200	-2.327793
0.544300	-2.317406
0.544400	-2.302151
0.544500	-2.315134
0.544600	-2.327468
0.544700	-2.322924
0.544800	-2.255086
0.544900	-2.147974
0.545000	-2.137587
0.545100	-2.188222
0.545200	-2.273912
0.545300	-2.283000
0.545400	-2.173616
0.545500	-2.035668
0.545600	-2.010026
0.545700	-2.072021
0.545800	-2.179458
0.545900	-2.215487
0.546000	-2.155764
0.546100	-2.080136
0.546200	-2.025281
0.546300	-2.033071
0.546400	-2.048327
0.546500	-2.066828
0.546600	-2.057090
0.546700	-2.046704
0.546800	-2.013272
0.546900	-1.969778
0.547000	-1.941539
0.547100	-1.919792
0.547200	-1.881491
0.547300	-1.878570
0.547400	-1.907133
0.547500	-1.933749
0.547600	-1.913625
0.547700	-1.871104
0.547800	-1.865586
0.547900	-1.854226
0.548000	-1.861367
0.548100	-1.797749
0.548200	-1.782493
0.548300	-1.734130
0.548400	-1.673758
0.548500	-1.619877
0.548600	-1.597806
0.548700	-1.582875
0.548800	-1.585147
0.548900	-1.583849
0.549000	-1.569567
0.549100	-1.548145
0.549200	-1.539381
0.549300	-1.525424
0.549400	-1.486799
0.549500	-1.464402
0.549600	-1.454016
0.549700	-1.433567
0.549800	-1.419935
0.549900	-1.373519
0.550000	-1.271925
0.550100	-1.067763
0.550200	-1.031410
0.550300	-1.103791
0.550400	-1.227133
0.550500	-1.181367
0.550600	-1.098923
0.550700	-0.929166
0.550800	-0.830493
0.550900	-0.869443
0.551000	-0.957405
0.551100	-0.999925
0.551200	-0.919104
0.551300	-0.812641
0.551400	-0.756164
0.551500	-0.749997
0.551600	-0.813290
0.551700	-0.866197
0.551800	-0.887944
0.551900	-0.894761
0.552000	-0.917806
0.552100	-0.941825
0.552200	-0.988889
0.552300	-1.015505
0.552400	-1.067763
0.552500	-1.138197
0.552600	-1.120994
0.552700	-1.165462
0.552800	-1.184288
0.552900	-1.174875
0.553000	-1.160918
0.553100	-1.174226
0.553200	-1.343333
0.553300	-1.401758
0.553400	-1.389424
0.553500	-1.327429
0.553600	-1.241090
0.553700	-1.311199
0.553800	-1.401758
0.553900	-1.504975
0.554000	-1.468622
0.554100	-1.363782
0.554200	-1.262837
0.554300	-1.262512
0.554400	-1.327429
0.554500	-1.384230
0.554600	-1.384555
0.554700	-1.388450
0.554800	-1.339114
0.554900	-1.354693
0.555000	-1.338140
0.555100	-1.330674
0.555200	-1.325806
0.555300	-1.332297
0.555400	-1.365729
0.555500	-1.386827
0.555600	-1.392994
0.555700	-1.400135
0.555800	-1.399161
0.555900	-1.418312
0.556000	-1.482254
0.556100	-1.548469
0.556200	-1.568918
0.556300	-1.576708
0.556400	-1.582550
0.556500	-1.629290
0.556600	-1.615982
0.556700	-1.582550
0.556800	-1.578006
0.556900	-1.557557
0.557000	-1.561128
0.557100	-1.552364
0.557200	-1.557233
0.557300	-1.568918
0.557400	-1.561452
0.557500	-1.565997
0.557600	-1.573462
0.557700	-1.578655
0.557800	-1.587095
0.557900	-1.594560
0.558000	-1.595534
0.558100	-1.603648
0.558200	-1.604297
0.558300	-1.647142
0.558400	-1.796450
0.558500	-1.874999
0.558600	-1.862665
0.558700	-1.727314
0.558800	-1.670188
0.558900	-1.750360
0.559000	-1.922388
0.559100	-2.028202
0.559200	-2.036642
0.559300	-1.945434
0.559400	-1.883763
0.559500	-1.900317
0.559600	-1.973997
0.559700	-2.067802
0.559800	-2.041510
0.559900	-2.022360
0.560000	-1.976269
0.560100	-1.969453
0.560200	-1.967181
0.560300	-2.008078
0.560400	-2.024957
0.560500	-2.022685
0.560600	-2.041510
0.560700	-2.077539
0.560800	-2.143105
0.560900	-2.170694
0.561000	-2.183678
0.561100	-2.199582
0.561200	-2.244699
0.561300	-2.263525
0.561400	-2.249244
0.561500	-2.143429
0.561600	-2.075592
0.561700	-2.107725
0.561800	-2.197310
0.561900	-2.276184
0.562000	-2.270666
0.562100	-2.168422
0.562200	-2.113243
0.562300	-2.116814
0.562400	-2.235936
0.562500	-2.344346
0.562600	-2.378428
0.562700	-2.349540
0.562800	-2.291764
0.562900	-2.276833
0.563000	-2.283974
0.563100	-2.294036
0.563200	-2.300203
0.563300	-2.295659
0.563400	-2.270341
0.563500	-2.223277
0.563600	-2.195363
0.563700	-2.145377
0.563800	-2.088575
0.563900	-2.060012
0.564000	-2.036642
0.564100	-2.041835
0.564200	-2.056117
0.564300	-2.002560
0.564400	-1.936670
0.564500	-1.902264
0.564600	-1.889281
0.564700	-1.880193
0.564800	-1.800994
0.564900	-1.760746
0.565000	-1.705892
0.565100	-1.650713
0.565200	-1.622799
0.565300	-1.600078
0.565400	-1.604947
0.565500	-1.599104
0.565600	-1.595534
0.565700	-1.636756
0.565800	-1.612737
0.565900	-1.638703
0.566000	-1.592288
0.566100	-1.602999
0.566200	-1.578006
0.566300	-1.591314
0.566400	-1.586445
0.566500	-1.608842
0.566600	-1.540030
0.566700	-1.436488
0.566800	-1.266407
0.566900	-1.275171
0.567000	-1.407600
0.567100	-1.484202
0.567200	-1.445577
0.567300	-1.322560
0.567400	-1.177147
0.567500	-1.108660
0.567600	-1.152154
0.567700	-1.216746
0.567800	-1.212202
0.567900	-1.121968
0.568000	-1.003171
0.568100	-0.951887
0.568200	-0.964221
0.568300	-0.984670
0.568400	-0.992784
0.568500	-0.984670
0.568600	-0.980126
0.568700	-0.971362
0.568800	-0.981749
0.568900	-0.994407
0.569000	-0.977204
0.569100	-1.000899
0.569200	-1.019725
0.569300	-1.061596
0.569400	-1.070035
0.569500	-1.068737
0.569600	-1.056727
0.569700	-1.070684
0.569800	-1.138197
0.569900	-1.320612
0.570000	-1.356641
0.570100	-1.318989
0.570200	-1.210579
0.570300	-1.188507
0.570400	-1.262188
0.570500	-1.407925
0.570600	-1.464727
0.570700	-1.431619
0.570800	-1.329701
0.570900	-1.285557
0.571000	-1.308278
0.571100	-1.408899
0.571200	-1.463104
0.571300	-1.487772
0.571400	-1.496536
0.571500	-1.511142
0.571600	-1.587095
0.571700	-1.629290
0.571800	-1.668565
0.571900	-1.716928
0.572000	-1.772431
0.572100	-1.879544
0.572200	-1.973023
0.572300	-2.004833
0.572400	-2.023009
0.572500	-2.046379
0.572600	-2.105453
0.572700	-2.220031
0.572800	-2.288843
0.572900	-2.327144
0.573000	-2.326494
0.573100	-2.368690
0.573200	-2.426466
0.573300	-2.427115
0.573400	-2.418351
0.573500	-2.418027
0.573600	-2.413483
0.573700	-2.407316
0.573800	-2.398552
0.573900	-2.394981
0.574000	-2.379401
0.574100	-2.376156
0.574200	-2.375506
0.574300	-2.376480
0.574400	-2.356356
0.574500	-2.357654
0.574600	-2.347268
0.574700	-2.341101
0.574800	-2.345320
0.574900	-2.366743
0.575000	-2.450810
0.575100	-2.579020
0.575200	-2.658868
0.575300	-2.574152
0.575400	-2.446915
0.575500	-2.407316
0.575600	-2.524490
0.575700	-2.681589
0.575800	-2.776692
0.575900	-2.689703
0.576000	-2.577073
0.576100	-2.499173
0.576200	-2.580319
0.576300	-2.669579
0.576400	-2.741637
0.576500	-2.723785
0.576600	-2.651402
0.576700	-2.605636
0.576800	-2.573827
0.576900	-2.590056
0.577000	-2.600118
0.577100	-2.592653
0.577200	-2.560844
0.577300	-2.546562
0.577400	-2.606935
0.577500	-2.631278
0.577600	-2.629331
0.577700	-2.606610
0.577800	-2.610505
0.577900	-2.638744
0.578000	-2.647832
0.578100	-2.606610
0.578200	-2.496901
0.578300	-2.451784
0.578400	-2.504691
0.578500	-2.610505
0.578600	-2.679641
0.578700	-2.652052
0.578800	-2.524815
0.578900	-2.445292
0.579000	-2.475154
0.579100	-2.579669
0.579200	-2.696844
0.579300	-2.698467
0.579400	-2.612128
0.579500	-2.517999
0.579600	-2.471908
0.579700	-2.481645
0.579800	-2.468337
0.579900	-2.457626
0.580000	-2.404070
0.580100	-2.334609
0.580200	-2.250217
0.580300	-2.175239
0.580400	-2.085329
0.580500	-1.972374
0.580600	-1.909730
0.580700	-1.899668
0.580800	-1.888956
0.580900	-1.859744
0.581000	-1.748412
0.581100	-1.700698
0.581200	-1.677004
0.581300	-1.648116
0.581400	-1.591963
0.581500	-1.521853
0.581600	-1.455314
0.581700	-1.383581
0.581800	-1.305032
0.581900	-1.251476
0.582000	-1.223238
0.582100	-1.233949
0.582200	-1.224536
0.582300	-1.218044
0.582400	-1.235572
0.582500	-1.232975
0.582600	-1.254722
0.582700	-1.224536
0.582800	-1.269328
0.582900	-1.269653
0.583000	-1.284584
0.583100	-1.304059
0.583200	-1.317367
0.583300	-1.305032
0.583400	-1.189157
0.583500	-1.119371
0.583600	-1.149557
0.583700	-1.385204
0.583800	-1.437462
0.583900	-1.428698
0.584000	-1.325481
0.584100	-1.221290
0.584200	-1.248230
0.584300	-1.350474
0.584400	-1.469920
0.584500	-1.466999
0.584600	-1.386827
0.584700	-1.312173
0.584800	-1.302760
0.584900	-1.350798
0.585000	-1.405004
0.585100	-1.446226
0.585200	-1.451094
0.585300	-1.447524
0.585400	-1.446226
0.585500	-1.458235
0.585600	-1.462455
0.585700	-1.472192
0.585800	-1.497185
0.585900	-1.535810
0.586000	-1.556584
0.586100	-1.587744
0.586200	-1.614684
0.586300	-1.578006
0.586400	-1.592937
0.586500	-1.669863
0.586600	-1.777949
0.586700	-1.772756
0.586800	-1.701023
0.586900	-1.557557
0.587000	-1.520555
0.587100	-1.584173
0.587200	-1.672135
0.587300	-1.669863
0.587400	-1.564049
0.587500	-1.403705
0.587600	-1.321911
0.587700	-1.336517
0.587800	-1.383581
0.587900	-1.384880
0.588000	-1.355992
0.588100	-1.303734
0.588200	-1.301137
0.588300	-1.306331
0.588400	-1.291400
0.588500	-1.269004
0.588600	-1.245958
0.588700	-1.255371
0.588800	-1.257968
0.588900	-1.262188
0.589000	-1.223238
0.589100	-1.098923
0.589200	-0.834388
0.589300	-0.930140
0.589400	-1.255696
0.589500	-1.263810
0.589600	-1.250503
0.589700	-1.142417
0.589800	-1.405977
0.589900	-1.276145
0.590000	-1.076526
0.590100	-1.034655
0.590200	-0.976880
0.590300	-0.805176
0.590400	-0.876259
0.590500	-0.766551
0.590600	-0.708126
0.590700	-0.811992
0.590800	-0.927868
0.590900	-0.932087
0.591000	-0.986293
0.591100	-0.954159
0.591200	-1.255371
0.591300	-1.206359
0.591400	-1.333920
0.591500	-1.320612
0.591600	-1.344307
0.591700	-1.472841
0.591800	-1.617605
0.591900	-1.673758
0.592000	-1.581901
0.592100	-1.507247
0.592200	-1.526722
0.592300	-1.722445
0.592400	-1.907782
0.592500	-2.002885
0.592600	-1.966856
0.592700	-1.899668
0.592800	-1.912002
0.592900	-2.053195
0.593000	-2.198284
0.593100	-2.289167
0.593200	-2.331688
0.593300	-2.327468
0.593400	-2.340451
0.593500	-2.362848
0.593600	-2.417378
0.593700	-2.463469
0.593800	-2.505989
0.593900	-2.521244
0.594000	-2.585837
0.594100	-2.623488
0.594200	-2.671527
0.594300	-2.709828
0.594400	-2.736768
0.594500	-2.763384
0.594600	-2.792272
0.594700	-2.810773
0.594800	-2.744233
0.594900	-2.664061
0.595000	-2.660166
0.595100	-2.728329
0.595200	-2.822458
0.595300	-2.867575
0.595400	-2.784157
0.595500	-2.680290
0.595600	-2.617321
0.595700	-2.673799
0.595800	-2.790324
0.595900	-2.851995
0.596000	-2.812396
0.596100	-2.726057
0.596200	-2.670878
0.596300	-2.638419
0.596400	-2.660815
0.596500	-2.656271
0.596600	-2.634524
0.596700	-2.614725
0.596800	-2.592004
0.596900	-2.532280
0.597000	-2.484891
0.597100	-2.418351
0.597200	-2.369664
0.597300	-2.332986
0.597400	-2.344022
