LabVIEW Measurement	
Writer_Version	2
Reader_Version	2
Separator	Tab
Decimal_Separator	.
Multi_Headings	Yes
X_Columns	One
Time_Pref	Relative
Operator	as989
Description	Time Domain Data
Date	2021/11/24
Time	13:31:58.1513438224792480469
***End_of_Header***	
	
Channels	1	
Samples	15000	
Date	1903/12/31	
Time	19:00:00	
X_Dimension	Time	
X0	0.0000000000000000E+0	
Delta_X	0.000100	
***End_of_Header***		
X_Value	Untitled	Comment
0.000000	-1.418961	Tare Values:0.000000, 0.000000, 0.000000, 0.000000\0D\0A
0.000100	-1.326779
0.000200	-1.120020
0.000300	-1.051858
0.000400	-1.207009
0.000500	-1.410522
0.000600	-1.497185
0.000700	-1.359562
0.000800	-1.153777
0.000900	-1.118722
0.001000	-1.177472
0.001100	-1.309577
0.001200	-1.302760
0.001300	-1.280040
0.001400	-1.258942
0.001500	-1.247581
0.001600	-1.308927
0.001700	-1.324507
0.001800	-1.320288
0.001900	-1.296593
0.002000	-1.289128
0.002100	-1.316717
0.002200	-1.338464
0.002300	-1.306655
0.002400	-1.268679
0.002500	-1.228756
0.002600	-1.294321
0.002700	-1.393643
0.002800	-1.426751
0.002900	-1.440383
0.003000	-1.393319
0.003100	-1.339114
0.003200	-1.363457
0.003300	-1.336841
0.003400	-1.375467
0.003500	-1.364431
0.003600	-1.346254
0.003700	-1.371896
0.003800	-1.367352
0.003900	-1.401433
0.004000	-1.382932
0.004100	-1.405004
0.004200	-1.405977
0.004300	-1.411495
0.004400	-1.429347
0.004500	-1.452068
0.004600	-1.485176
0.004700	-1.482254
0.004800	-1.560803
0.004900	-1.577032
0.005000	-1.804889
0.005100	-2.053195
0.005200	-2.117787
0.005300	-1.929205
0.005400	-1.740622
0.005500	-1.787362
0.005600	-2.039887
0.005700	-2.303449
0.005800	-2.384919
0.005900	-2.344346
0.006000	-2.227821
0.006100	-2.200556
0.006200	-2.288194
0.006300	-2.426466
0.006400	-2.581942
0.006500	-2.517999
0.006600	-2.504691
0.006700	-2.483593
0.006800	-2.537474
0.006900	-2.586486
0.007000	-2.595899
0.007100	-2.610505
0.007200	-2.655947
0.007300	-2.655297
0.007400	-2.691326
0.007500	-2.835766
0.007600	-2.832845
0.007700	-2.780262
0.007800	-2.797790
0.007900	-2.865952
0.008000	-2.917237
0.008100	-2.837389
0.008200	-2.676720
0.008300	-2.641990
0.008400	-2.783833
0.008500	-3.019481
0.008600	-3.081801
0.008700	-2.989294
0.008800	-2.782859
0.008900	-2.714047
0.009000	-2.816940
0.009100	-3.027920
0.009200	-3.171386
0.009300	-3.132111
0.009400	-3.024349
0.009500	-2.920807
0.009600	-2.908148
0.009700	-2.952292
0.009800	-2.995137
0.009900	-2.981180
0.010000	-2.926000
0.010100	-2.886726
0.010200	-2.850048
0.010300	-2.816616
0.010400	-2.753971
0.010500	-2.622515
0.010600	-2.568309
0.010700	-2.480672
0.010800	-2.466390
0.010900	-2.465416
0.011000	-2.309941
0.011100	-2.178484
0.011200	-1.918493
0.011300	-1.940241
0.011400	-1.910379
0.011500	-1.858770
0.011600	-1.772756
0.011700	-1.669863
0.011800	-1.516660
0.011900	-1.491018
0.012000	-1.415390
0.012100	-1.460507
0.012200	-1.410522
0.012300	-1.416040
0.012400	-1.408899
0.012500	-1.406951
0.012600	-1.388450
0.012700	-1.363782
0.012800	-1.338140
0.012900	-1.353720
0.013000	-1.354693
0.013100	-1.391047
0.013200	-1.338789
0.013300	-1.200192
0.013400	-0.985643
0.013500	-0.803878
0.013600	-1.059973
0.013700	-1.233949
0.013800	-1.294321
0.013900	-1.113529
0.014000	-0.919104
0.014100	-0.743830
0.014200	-0.764603
0.014300	-0.921376
0.014400	-1.059973
0.014500	-0.937930
0.014600	-0.825300
0.014700	-0.673071
0.014800	-0.616918
0.014900	-0.615295
0.015000	-0.704231
0.015100	-0.686379
0.015200	-0.656193
0.015300	-0.628928
0.015400	-0.631200
0.015500	-0.636069
0.015600	-0.714293
0.015700	-0.660412
0.015800	-0.663983
0.015900	-0.760708
0.016000	-0.794465
0.016100	-0.835362
0.016200	-0.758761
0.016300	-0.726952
0.016400	-0.702283
0.016500	-0.960651
0.016600	-1.183639
0.016700	-1.141118
0.016800	-0.986617
0.016900	-0.766551
0.017000	-0.819782
0.017100	-0.981099
0.017200	-1.204736
0.017300	-1.212851
0.017400	-1.076526
0.017500	-0.840231
0.017600	-0.819457
0.017700	-0.903849
0.017800	-0.983371
0.017900	-0.995381
0.018000	-1.024918
0.018100	-0.931763
0.018200	-0.954484
0.018300	-0.951238
0.018400	-1.040822
0.018500	-1.051209
0.018600	-1.019400
0.018700	-1.005443
0.018800	-1.021997
0.018900	-1.042121
0.019000	-1.009013
0.019100	-1.001873
0.019200	-0.975906
0.019300	-1.067438
0.019400	-1.158970
0.019500	-1.189806
0.019600	-1.203438
0.019700	-1.075553
0.019800	-1.126188
0.019900	-1.150207
0.020000	-1.132030
0.020100	-1.156049
0.020200	-1.163839
0.020300	-1.157672
0.020400	-1.172278
0.020500	-1.171954
0.020600	-1.187858
0.020700	-1.182665
0.020800	-1.189481
0.020900	-1.225834
0.021000	-1.266083
0.021100	-1.247257
0.021200	-1.245309
0.021300	-1.309901
0.021400	-1.348526
0.021500	-1.374493
0.021600	-1.450770
0.021700	-1.720823
0.021800	-1.890904
0.021900	-1.858446
0.022000	-1.720173
0.022100	-1.555935
0.022200	-1.658827
0.022300	-1.924661
0.022400	-2.191143
0.022500	-2.264174
0.022600	-2.180757
0.022700	-2.033396
0.022800	-1.980813
0.022900	-2.137262
0.023000	-2.262227
0.023100	-2.435554
0.023200	-2.423545
0.023300	-2.346294
0.023400	-2.371936
0.023500	-2.407965
0.023600	-2.423869
0.023700	-2.441397
0.023800	-2.462495
0.023900	-2.506314
0.024000	-2.554677
0.024100	-2.629006
0.024200	-2.676720
0.024300	-2.678992
0.024400	-2.672500
0.024500	-2.762086
0.024600	-2.774095
0.024700	-2.799088
0.024800	-2.639717
0.024900	-2.500471
0.025000	-2.570906
0.025100	-2.791947
0.025200	-2.970468
0.025300	-2.989944
0.025400	-2.862057
0.025500	-2.667632
0.025600	-2.669904
0.025700	-2.813694
0.025800	-2.994163
0.025900	-3.140226
0.026000	-3.084398
0.026100	-2.964626
0.026200	-2.889647
0.026300	-2.876988
0.026400	-2.942554
0.026500	-2.956511
0.026600	-2.970144
0.026700	-2.973714
0.026800	-2.920158
0.026900	-2.884454
0.027000	-2.829924
0.027100	-2.745532
0.027200	-2.650429
0.027300	-2.593302
0.027400	-2.564739
0.027500	-2.534552
0.027600	-2.460223
0.027700	-2.289816
0.027800	-2.090198
0.027900	-1.921090
0.028000	-1.933749
0.028100	-1.893825
0.028200	-1.807811
0.028300	-1.708813
0.028400	-1.593911
0.028500	-1.520231
0.028600	-1.425777
0.028700	-1.431944
0.028800	-1.434541
0.028900	-1.450770
0.029000	-1.434865
0.029100	-1.442006
0.029200	-1.417013
0.029300	-1.409872
0.029400	-1.330350
0.029500	-1.382283
0.029600	-1.356966
0.029700	-1.394617
0.029800	-1.330350
0.029900	-1.326779
0.030000	-1.145338
0.030100	-0.843477
0.030200	-0.861004
0.030300	-1.113204
0.030400	-1.229729
0.030500	-1.222588
0.030600	-1.034655
0.030700	-0.899629
0.030800	-0.716240
0.030900	-0.909042
0.031000	-0.980126
0.031100	-1.018751
0.031200	-0.885997
0.031300	-0.750971
0.031400	-0.649701
0.031500	-0.683458
0.031600	-0.765252
0.031700	-0.786999
0.031800	-0.762331
0.031900	-0.727925
0.032000	-0.678264
0.032100	-0.712670
0.032200	-0.682808
0.032300	-0.642885
0.032400	-0.687353
0.032500	-0.786675
0.032600	-0.796412
0.032700	-0.885023
0.032800	-0.880803
0.032900	-0.758111
0.033000	-0.765577
0.033100	-0.797710
0.033200	-1.088536
0.033300	-1.194999
0.033400	-1.126188
0.033500	-0.922025
0.033600	-0.827247
0.033700	-0.885672
0.033800	-1.096326
0.033900	-1.280689
0.034000	-1.211553
0.034100	-1.044068
0.034200	-0.875286
0.034300	-0.885997
0.034400	-0.983371
0.034500	-1.062245
0.034600	-1.066464
0.034700	-1.077176
0.034800	-0.986293
0.034900	-1.025243
0.035000	-1.043744
0.035100	-1.110932
0.035200	-1.077500
0.035300	-1.068412
0.035400	-1.050884
0.035500	-1.106713
0.035600	-1.117099
0.035700	-1.070035
0.035800	-1.021023
0.035900	-1.036927
0.036000	-1.177472
0.036100	-1.245958
0.036200	-1.251476
0.036300	-1.225185
0.036400	-1.127486
0.036500	-1.180068
0.036600	-1.178445
0.036700	-1.187534
0.036800	-1.180717
0.036900	-1.167085
0.037000	-1.174550
0.037100	-1.189481
0.037200	-1.174875
0.037300	-1.167409
0.037400	-1.179094
0.037500	-1.184612
0.037600	-1.207333
0.037700	-1.215123
0.037800	-1.225185
0.037900	-1.221290
0.038000	-1.230378
0.038100	-1.295619
0.038200	-1.334245
0.038300	-1.448498
0.038400	-1.718875
0.038500	-1.844164
0.038600	-1.736403
0.038700	-1.494264
0.038800	-1.415390
0.038900	-1.594235
0.039000	-1.951276
0.039100	-2.155764
0.039200	-2.153492
0.039300	-1.984384
0.039400	-1.888956
0.039500	-1.906159
0.039600	-2.144403
0.039700	-2.249244
0.039800	-2.337206
0.039900	-2.332337
0.040000	-2.303124
0.040100	-2.315783
0.040200	-2.400824
0.040300	-2.433931
0.040400	-2.449836
0.040500	-2.465741
0.040600	-2.498199
0.040700	-2.542992
0.040800	-2.591030
0.040900	-2.631603
0.041000	-2.656596
0.041100	-2.642639
0.041200	-2.684185
0.041300	-2.699116
0.041400	-2.689054
0.041500	-2.443344
0.041600	-2.417053
0.041700	-2.519622
0.041800	-2.753322
0.041900	-2.859136
0.042000	-2.844530
0.042100	-2.667632
0.042200	-2.480022
0.042300	-2.504691
0.042400	-2.690353
0.042500	-2.931843
0.042600	-2.974688
0.042700	-2.902306
0.042800	-2.742935
0.042900	-2.679966
0.043000	-2.709178
0.043100	-2.767279
0.043200	-2.805580
0.043300	-2.782859
0.043400	-2.758515
0.043500	-2.718916
0.043600	-2.686133
0.043700	-2.585512
0.043800	-2.485865
0.043900	-2.418676
0.044000	-2.365444
0.044100	-2.365769
0.044200	-2.384270
0.044300	-2.254761
0.044400	-2.104155
0.044500	-2.044107
0.044600	-1.842216
0.044700	-1.877596
0.044800	-1.825014
0.044900	-1.735753
0.045000	-1.665319
0.045100	-1.518608
0.045200	-1.463429
0.045300	-1.406627
0.045400	-1.394293
0.045500	-1.409872
0.045600	-1.398188
0.045700	-1.404030
0.045800	-1.403705
0.045900	-1.307629
0.046000	-1.355992
0.046100	-1.272574
0.046200	-1.363133
0.046300	-1.299514
0.046400	-1.416364
0.046500	-1.306655
0.046600	-1.285557
0.046700	-1.012584
0.046800	-0.806474
0.046900	-0.834713
0.047000	-1.136250
0.047100	-1.270302
0.047200	-1.257643
0.047300	-0.963572
0.047400	-0.796412
0.047500	-0.657167
0.047600	-0.825949
0.047700	-1.005443
0.047800	-1.002522
0.047900	-0.886646
0.048000	-0.704555
0.048100	-0.649377
0.048200	-0.597119
0.048300	-0.722407
0.048400	-0.762980
0.048500	-0.759734
0.048600	-0.689300
0.048700	-0.653272
0.048800	-0.643209
0.048900	-0.595496
0.049000	-0.667878
0.049100	-0.604584
0.049200	-0.749348
0.049300	-0.696116
0.049400	-0.803553
0.049500	-0.718837
0.049600	-0.721434
0.049700	-0.604584
0.049800	-0.742856
0.049900	-0.978827
0.050000	-1.035305
0.050100	-0.934035
0.050200	-0.766551
0.050300	-0.719811
0.050400	-0.812966
0.050500	-1.079448
0.050600	-1.182016
0.050700	-1.090808
0.050800	-0.878531
0.050900	-0.785701
0.051000	-0.821405
0.051100	-0.957080
0.051200	-0.997328
0.051300	-1.033682
0.051400	-1.010312
0.051500	-0.940527
0.051600	-0.976231
0.051700	-1.020374
0.051800	-1.074254
0.051900	-1.023620
0.052000	-1.016479
0.052100	-1.015830
0.052200	-1.023295
0.052300	-0.995056
0.052400	-0.955133
0.052500	-0.894111
0.052600	-0.957729
0.052700	-1.069061
0.052800	-1.073930
0.052900	-1.096001
0.053000	-0.946694
0.053100	-0.979152
0.053200	-1.008689
0.053300	-0.971362
0.053400	-0.994083
0.053500	-0.984994
0.053600	-1.005768
0.053700	-0.983371
0.053800	-1.009338
0.053900	-1.005768
0.054000	-1.000574
0.054100	-1.003820
0.054200	-1.017453
0.054300	-1.050884
0.054400	-1.020698
0.054500	-1.046990
0.054600	-1.075877
0.054700	-1.111257
0.054800	-1.157672
0.054900	-1.200517
0.055000	-1.425777
0.055100	-1.641300
0.055200	-1.735104
0.055300	-1.560803
0.055400	-1.388775
0.055500	-1.379037
0.055600	-1.638379
0.055700	-1.897720
0.055800	-2.041510
0.055900	-1.985358
0.056000	-1.854551
0.056100	-1.857147
0.056200	-1.934073
0.056300	-2.154465
0.056400	-2.259955
0.056500	-2.302800
0.056600	-2.236585
0.056700	-2.237234
0.056800	-2.232365
0.056900	-2.299229
0.057000	-2.317081
0.057100	-2.367067
0.057200	-2.414132
0.057300	-2.450810
0.057400	-2.486189
0.057500	-2.582915
0.057600	-2.552404
0.057700	-2.535851
0.057800	-2.573827
0.057900	-2.656596
0.058000	-2.718267
0.058100	-2.648157
0.058200	-2.483268
0.058300	-2.447564
0.058400	-2.573178
0.058500	-2.833169
0.058600	-2.914315
0.058700	-2.842582
0.058800	-2.640691
0.058900	-2.561168
0.059000	-2.650753
0.059100	-2.850372
0.059200	-3.036359
0.059300	-3.051615
0.059400	-2.950344
0.059500	-2.861733
0.059600	-2.839337
0.059700	-2.870172
0.059800	-2.900358
0.059900	-2.896139
0.060000	-2.867251
0.060100	-2.841284
0.060200	-2.806229
0.060300	-2.761436
0.060400	-2.629006
0.060500	-2.505664
0.060600	-2.437177
0.060700	-2.405044
0.060800	-2.401798
0.060900	-2.390437
0.061000	-2.225224
0.061100	-2.118437
0.061200	-2.016193
0.061300	-1.896422
0.061400	-1.859095
0.061500	-1.803591
0.061600	-1.721472
0.061700	-1.657854
0.061800	-1.522827
0.061900	-1.468622
0.062000	-1.433892
0.062100	-1.426751
0.062200	-1.418636
0.062300	-1.352421
0.062400	-1.446550
0.062500	-1.354693
0.062600	-1.399161
0.062700	-1.338464
0.062800	-1.331648
0.062900	-1.320937
0.063000	-1.327753
0.063100	-1.420908
0.063200	-1.317042
0.063300	-1.232001
0.063400	-0.888918
0.063500	-0.824326
0.063600	-0.964221
0.063700	-1.232001
0.063800	-1.324183
0.063900	-1.266083
0.064000	-0.994083
0.064100	-0.892813
0.064200	-0.872689
0.064300	-1.082694
0.064400	-1.137223
0.064500	-1.085939
0.064600	-0.978503
0.064700	-0.917481
0.064800	-0.864899
0.064900	-0.900278
0.065000	-0.952212
0.065100	-0.994732
0.065200	-0.884698
0.065300	-0.882426
0.065400	-0.873014
0.065500	-0.828546
0.065600	-0.832116
0.065700	-0.829844
0.065800	-0.928842
0.065900	-0.908718
0.066000	-0.971037
0.066100	-0.987916
0.066200	-0.942799
0.066300	-0.879505
0.066400	-0.882426
0.066500	-1.048612
0.066600	-1.287180
0.066700	-1.260565
0.066800	-1.100221
0.066900	-0.864899
0.067000	-0.897357
0.067100	-1.082044
0.067200	-1.334245
0.067300	-1.356966
0.067400	-1.221615
0.067500	-1.047639
0.067600	-1.005443
0.067700	-1.096975
0.067800	-1.235896
0.067900	-1.216421
0.068000	-1.234273
0.068100	-1.151180
0.068200	-1.176498
0.068300	-1.211228
0.068400	-1.256994
0.068500	-1.309252
0.068600	-1.273548
0.068700	-1.267381
0.068800	-1.303409
0.068900	-1.305357
0.069000	-1.290102
0.069100	-1.268030
0.069200	-1.239791
0.069300	-1.354693
0.069400	-1.441357
0.069500	-1.504975
0.069600	-1.512765
0.069700	-1.382608
0.069800	-1.456937
0.069900	-1.463753
0.070000	-1.437462
0.070100	-1.450445
0.070200	-1.454340
0.070300	-1.450445
0.070400	-1.408250
0.070500	-1.439085
0.070600	-1.428698
0.070700	-1.436488
0.070800	-1.430970
0.070900	-1.426102
0.071000	-1.414741
0.071100	-1.433242
0.071200	-1.438111
0.071300	-1.483228
0.071400	-1.548469
0.071500	-1.557882
0.071600	-1.639028
0.071700	-1.848059
0.071800	-2.074942
0.071900	-2.049300
0.072000	-1.821443
0.072100	-1.699076
0.072200	-1.795801
0.072300	-2.087601
0.072400	-2.360251
0.072500	-2.385569
0.072600	-2.271315
0.072700	-2.081759
0.072800	-2.123630
0.072900	-2.267096
0.073000	-2.457301
0.073100	-2.604338
0.073200	-2.602066
0.073300	-2.561817
0.073400	-2.551431
0.073500	-2.619918
0.073600	-2.708529
0.073700	-2.689379
0.073800	-2.722811
0.073900	-2.725408
0.074000	-2.796167
0.074100	-2.838687
0.074200	-2.939633
0.074300	-2.901007
0.074400	-2.913991
0.074500	-2.964301
0.074600	-3.064273
0.074700	-3.079529
0.074800	-2.917886
0.074900	-2.785131
0.075000	-2.781885
0.075100	-2.988321
0.075200	-3.160026
0.075300	-3.207415
0.075400	-3.041228
0.075500	-2.830573
0.075600	-2.816940
0.075700	-2.959108
0.075800	-3.202871
0.075900	-3.305440
0.076000	-3.248313
0.076100	-3.124971
0.076200	-3.041552
0.076300	-3.081476
0.076400	-3.145095
0.076500	-3.186642
0.076600	-3.166842
0.076700	-3.128541
0.076800	-3.120426
0.076900	-3.076932
0.077000	-3.007796
0.077100	-2.913017
0.077200	-2.799737
0.077300	-2.747155
0.077400	-2.707555
0.077500	-2.716319
0.077600	-2.671851
0.077700	-2.509884
0.077800	-2.438800
0.077900	-2.197635
0.078000	-2.211267
0.078100	-2.164203
0.078200	-2.084031
0.078300	-2.026255
0.078400	-1.899343
0.078500	-1.792231
0.078600	-1.758799
0.078700	-1.768861
0.078800	-1.751982
0.078900	-1.768536
0.079000	-1.734130
0.079100	-1.771457
0.079200	-1.717901
0.079300	-1.713682
0.079400	-1.678951
0.079500	-1.640651
0.079600	-1.670837
0.079700	-1.697777
0.079800	-1.728613
0.079900	-1.648116
0.080000	-1.437462
0.080100	-1.186884
0.080200	-1.046016
0.080300	-1.412794
0.080400	-1.502703
0.080500	-1.582875
0.080600	-1.339114
0.080700	-1.205061
0.080800	-1.011935
0.080900	-1.083343
0.081000	-1.212202
0.081100	-1.280689
0.081200	-1.163839
0.081300	-1.087887
0.081400	-0.955133
0.081500	-0.915209
0.081600	-0.995056
0.081700	-1.071658
0.081800	-1.033682
0.081900	-0.981099
0.082000	-0.949615
0.082100	-0.967467
0.082200	-0.958703
0.082300	-1.013558
0.082400	-1.019075
0.082500	-1.036927
0.082600	-1.083343
0.082700	-1.074904
0.082800	-1.123266
0.082900	-1.047639
0.083000	-0.994407
0.083100	-1.049262
0.083200	-1.314121
0.083300	-1.488097
0.083400	-1.401758
0.083500	-1.228431
0.083600	-1.045042
0.083700	-1.158321
0.083800	-1.356966
0.083900	-1.566321
0.084000	-1.489720
0.084100	-1.312822
0.084200	-1.102818
0.084300	-1.140794
0.084400	-1.289777
0.084500	-1.370923
0.084600	-1.368326
0.084700	-1.336517
0.084800	-1.243037
0.084900	-1.295295
0.085000	-1.338789
0.085100	-1.428698
0.085200	-1.425128
0.085300	-1.378063
0.085400	-1.381309
0.085500	-1.405328
0.085600	-1.416689
0.085700	-1.376440
0.085800	-1.351123
0.085900	-1.324183
0.086000	-1.432593
0.086100	-1.507247
0.086200	-1.545223
0.086300	-1.422856
0.086400	-1.376440
0.086500	-1.425777
0.086600	-1.428698
0.086700	-1.417338
0.086800	-1.430970
0.086900	-1.411820
0.087000	-1.417662
0.087100	-1.437137
0.087200	-1.438760
0.087300	-1.440708
0.087400	-1.462779
0.087500	-1.449472
0.087600	-1.503677
0.087700	-1.493615
0.087800	-1.530942
0.087900	-1.554312
0.088000	-1.566321
0.088100	-1.647142
0.088200	-1.654608
0.088300	-1.843839
0.088400	-2.055792
0.088500	-2.235286
0.088600	-2.124604
0.088700	-1.930828
0.088800	-1.905835
0.088900	-1.997043
0.089000	-2.324871
0.089100	-2.477426
0.089200	-2.528385
0.089300	-2.383296
0.089400	-2.284299
0.089500	-2.320976
0.089600	-2.520271
0.089700	-2.612452
0.089800	-2.659842
0.089900	-2.651402
0.090000	-2.623813
0.090100	-2.635173
0.090200	-2.645885
0.090300	-2.720539
0.090400	-2.754620
0.090500	-2.783833
0.090600	-2.817589
0.090700	-2.815642
0.090800	-2.942230
0.090900	-2.933790
0.091000	-2.933141
0.091100	-2.947423
0.091200	-2.973390
0.091300	-3.028569
0.091400	-2.995461
0.091500	-2.843556
0.091600	-2.758515
0.091700	-2.864654
0.091800	-3.122049
0.091900	-3.246690
0.092000	-3.240198
0.092100	-3.081801
0.092200	-2.920483
0.092300	-2.980531
0.092400	-3.155806
0.092500	-3.395674
0.092600	-3.483961
0.092700	-3.362242
0.092800	-3.260971
0.092900	-3.238900
0.093000	-3.285965
0.093100	-3.360619
0.093200	-3.356075
0.093300	-3.317125
0.093400	-3.297000
0.093500	-3.277850
0.093600	-3.246365
0.093700	-3.099328
0.093800	-2.988321
0.093900	-2.895165
0.094000	-2.867251
0.094100	-2.842907
0.094200	-2.830897
0.094300	-2.716319
0.094400	-2.544290
0.094500	-2.471259
0.094600	-2.262227
0.094700	-2.289492
0.094800	-2.210943
0.094900	-2.123954
0.095000	-2.020412
0.095100	-1.895123
0.095200	-1.808460
0.095300	-1.729262
0.095400	-1.738350
0.095500	-1.715305
0.095600	-1.684145
0.095700	-1.746789
0.095800	-1.712708
0.095900	-1.737701
0.096000	-1.710760
0.096100	-1.658178
0.096200	-1.709787
0.096300	-1.670188
0.096400	-1.796450
0.096500	-1.697777
0.096600	-1.716278
0.096700	-1.413767
0.096800	-1.269977
0.096900	-1.377090
0.097000	-1.583849
0.097100	-1.831181
0.097200	-1.673433
0.097300	-1.523476
0.097400	-1.282636
0.097500	-1.284259
0.097600	-1.477386
0.097700	-1.568269
0.097800	-1.682522
0.097900	-1.486149
0.098000	-1.399161
0.098100	-1.310226
0.098200	-1.228106
0.098300	-1.350474
0.098400	-1.307629
0.098500	-1.349825
0.098600	-1.322235
0.098700	-1.302760
0.098800	-1.311524
0.098900	-1.316068
0.099000	-1.293672
0.099100	-1.292374
0.099200	-1.347228
0.099300	-1.349176
0.099400	-1.445252
0.099500	-1.376440
0.099600	-1.381309
0.099700	-1.299190
0.099800	-1.420584
0.099900	-1.614359
0.100000	-1.694531
0.100100	-1.585147
0.100200	-1.349500
0.100300	-1.309901
0.100400	-1.395915
0.100500	-1.690312
0.100600	-1.759448
0.100700	-1.671486
0.100800	-1.434541
0.100900	-1.342035
0.101000	-1.380985
0.101100	-1.536784
0.101200	-1.555610
0.101300	-1.569892
0.101400	-1.515686
0.101500	-1.490044
0.101600	-1.566321
0.101700	-1.604947
0.101800	-1.653959
0.101900	-1.608192
0.102000	-1.590665
0.102100	-1.626694
0.102200	-1.660450
0.102300	-1.648441
0.102400	-1.593262
0.102500	-1.569892
0.102600	-1.618579
0.102700	-1.734455
0.102800	-1.788336
0.102900	-1.757500
0.103000	-1.658178
0.103100	-1.653309
0.103200	-1.677653
0.103300	-1.690312
0.103400	-1.667591
0.103500	-1.671161
0.103600	-1.659476
0.103700	-1.681223
0.103800	-1.697777
0.103900	-1.711410
0.104000	-1.678951
0.104100	-1.690961
0.104200	-1.680574
0.104300	-1.724068
0.104400	-1.705892
0.104500	-1.739648
0.104600	-1.751333
0.104700	-1.829233
0.104800	-1.835725
0.104900	-1.878570
0.105000	-2.071047
0.105100	-2.340451
0.105200	-2.406017
0.105300	-2.307669
0.105400	-2.118437
0.105500	-2.138885
0.105600	-2.318380
0.105700	-2.634524
0.105800	-2.742935
0.105900	-2.673474
0.106000	-2.458924
0.106100	-2.482944
0.106200	-2.557598
0.106300	-2.755594
0.106400	-2.887700
0.106500	-2.898411
0.106600	-2.827651
0.106700	-2.790649
0.106800	-2.838363
0.106900	-2.866926
0.107000	-2.890296
0.107100	-2.942879
0.107200	-3.004550
0.107300	-3.034736
0.107400	-3.054860
0.107500	-3.139577
0.107600	-3.152236
0.107700	-3.146393
0.107800	-3.215530
0.107900	-3.236303
0.108000	-3.288561
0.108100	-3.252208
0.108200	-3.099004
0.108300	-3.037008
0.108400	-3.160999
0.108500	-3.395025
0.108600	-3.494673
0.108700	-3.430729
0.108800	-3.204169
0.108900	-3.108741
0.109000	-3.198327
0.109100	-3.433001
0.109200	-3.626779
0.109300	-3.644955
0.109400	-3.503112
0.109500	-3.371330
0.109600	-3.399245
0.109700	-3.463837
0.109800	-3.519016
0.109900	-3.514148
0.110000	-3.455722
0.110100	-3.464811
0.110200	-3.443713
0.110300	-3.410605
0.110400	-3.286289
0.110500	-3.149314
0.110600	-3.093486
0.110700	-3.075958
0.110800	-3.099978
0.110900	-3.081476
0.111000	-2.913017
0.111100	-2.810449
0.111200	-2.656920
0.111300	-2.585512
0.111400	-2.569607
0.111500	-2.500147
0.111600	-2.408939
0.111700	-2.312537
0.111800	-2.163554
0.111900	-2.075592
0.112000	-2.026580
0.112100	-2.023983
0.112200	-2.038914
0.112300	-1.999639
0.112400	-2.018790
0.112500	-1.954198
0.112600	-1.940565
0.112700	-1.922713
0.112800	-1.880193
0.112900	-1.893176
0.113000	-1.924661
0.113100	-1.873052
0.113200	-1.873376
0.113300	-1.664345
0.113400	-1.516985
0.113500	-1.240116
0.113600	-1.613386
0.113700	-1.754904
0.113800	-1.850656
0.113900	-1.648765
0.114000	-1.392994
0.114100	-1.201815
0.114200	-1.238493
0.114300	-1.480956
0.114400	-1.580927
0.114500	-1.530617
0.114600	-1.372221
0.114700	-1.270951
0.114800	-1.175849
0.114900	-1.156049
0.115000	-1.219992
0.115100	-1.287180
0.115200	-1.326455
0.115300	-1.303734
0.115400	-1.299839
0.115500	-1.278741
0.115600	-1.234273
0.115700	-1.212526
0.115800	-1.261863
0.115900	-1.404030
0.116000	-1.380660
0.116100	-1.458560
0.116200	-1.406302
0.116300	-1.412145
0.116400	-1.291075
0.116500	-1.482904
0.116600	-1.739973
0.116700	-1.765615
0.116800	-1.623448
0.116900	-1.423830
0.117000	-1.433242
0.117100	-1.631238
0.117200	-1.863964
0.117300	-1.874026
0.117400	-1.742570
0.117500	-1.524450
0.117600	-1.504326
0.117700	-1.616307
0.117800	-1.766913
0.117900	-1.770808
0.118000	-1.790608
0.118100	-1.723095
0.118200	-1.774703
0.118300	-1.826312
0.118400	-1.878245
0.118500	-1.908756
0.118600	-1.872078
0.118700	-1.895123
0.118800	-1.953873
0.118900	-1.956470
0.119000	-1.923038
0.119100	-1.904536
0.119200	-1.883439
0.119300	-2.003210
0.119400	-2.110322
0.119500	-2.120709
0.119600	-2.109673
0.119700	-1.975945
0.119800	-2.026255
0.119900	-2.031124
0.120000	-2.019114
0.120100	-2.029501
0.120200	-2.023009
0.120300	-2.041186
0.120400	-2.019763
0.120500	-2.017167
0.120600	-2.007754
0.120700	-2.013596
0.120800	-2.044432
0.120900	-2.017491
0.121000	-2.021062
0.121100	-1.999964
0.121200	-2.032422
0.121300	-2.042160
0.121400	-2.096689
0.121500	-2.109024
0.121600	-2.133367
0.121700	-2.435554
0.121800	-2.641340
0.121900	-2.666658
0.122000	-2.431984
0.122100	-2.296308
0.122200	-2.381998
0.122300	-2.665684
0.122400	-2.913342
0.122500	-2.980531
0.122600	-2.921132
0.122700	-2.738716
0.122800	-2.762086
0.122900	-2.916912
0.123000	-3.067195
0.123100	-3.162622
0.123200	-3.147367
0.123300	-3.144446
0.123400	-3.073362
0.123500	-3.088942
0.123600	-3.136006
0.123700	-3.161649
0.123800	-3.226241
0.123900	-3.272657
0.124000	-3.275253
0.124100	-3.285965
0.124200	-3.344065
0.124300	-3.365488
0.124400	-3.407035
0.124500	-3.430080
0.124600	-3.500190
0.124700	-3.531026
0.124800	-3.433001
0.124900	-3.250909
0.125000	-3.299272
0.125100	-3.521613
0.125200	-3.726426
0.125300	-3.810819
0.125400	-3.636192
0.125500	-3.435273
0.125600	-3.383015
0.125700	-3.544334
0.125800	-3.790370
0.125900	-3.890342
0.126000	-3.829969
0.126100	-3.695266
0.126200	-3.636841
0.126300	-3.655667
0.126400	-3.685204
0.126500	-3.687801
0.126600	-3.642034
0.126700	-3.637165
0.126800	-3.623208
0.126900	-3.595618
0.127000	-3.503761
0.127100	-3.358022
0.127200	-3.266165
0.127300	-3.220723
0.127400	-3.189238
0.127500	-3.184370
0.127600	-3.136331
0.127700	-2.959757
0.127800	-2.895814
0.127900	-2.632901
0.128000	-2.678668
0.128100	-2.633226
0.128200	-2.571555
0.128300	-2.503068
0.128400	-2.385244
0.128500	-2.249568
0.128600	-2.215162
0.128700	-2.160632
0.128800	-2.202828
0.128900	-2.177511
0.129000	-2.196012
0.129100	-2.185301
0.129200	-2.176537
0.129300	-2.118437
0.129400	-2.060336
0.129500	-2.057090
0.129600	-1.960365
0.129700	-2.070723
0.129800	-2.007105
0.129900	-2.024632
0.130000	-1.771133
0.130100	-1.616307
0.130200	-1.494264
0.130300	-1.772107
0.130400	-1.958093
0.130500	-1.969128
0.130600	-1.754255
0.130700	-1.570541
0.130800	-1.421233
0.130900	-1.595534
0.131000	-1.707515
0.131100	-1.813329
0.131200	-1.636756
0.131300	-1.541328
0.131400	-1.378388
0.131500	-1.461481
0.131600	-1.451419
0.131700	-1.506923
0.131800	-1.546846
0.131900	-1.480631
0.132000	-1.463753
0.132100	-1.468946
0.132200	-1.463104
0.132300	-1.494913
0.132400	-1.476412
0.132500	-1.581252
0.132600	-1.551390
0.132700	-1.615982
0.132800	-1.661424
0.132900	-1.561452
0.133000	-1.460832
0.133100	-1.489720
0.133200	-1.761071
0.133300	-1.905835
0.133400	-1.862341
0.133500	-1.634808
0.133600	-1.490369
0.133700	-1.547495
0.133800	-1.797749
0.133900	-1.946083
0.134000	-1.909405
0.134100	-1.692259
0.134200	-1.542627
0.134300	-1.564049
0.134400	-1.716603
0.134500	-1.786064
0.134600	-1.743868
0.134700	-1.749710
0.134800	-1.670837
0.134900	-1.745815
0.135000	-1.790608
0.135100	-1.837023
0.135200	-1.858446
0.135300	-1.832804
0.135400	-1.866236
0.135500	-1.899018
0.135600	-1.901291
0.135700	-1.871429
0.135800	-1.857147
0.135900	-1.861367
0.136000	-1.996069
0.136100	-2.051572
0.136200	-2.059362
0.136300	-1.948355
0.136400	-1.915897
0.136500	-1.985358
0.136600	-1.967830
0.136700	-1.961988
0.136800	-1.985358
0.136900	-1.989253
0.137000	-1.969778
0.137100	-1.999964
0.137200	-1.981787
0.137300	-2.022035
0.137400	-1.985682
0.137500	-2.037940
0.137600	-2.029825
0.137700	-2.059687
0.137800	-2.010026
0.137900	-2.052546
0.138000	-2.072995
0.138100	-2.095067
0.138200	-2.148298
0.138300	-2.266446
0.138400	-2.576099
0.138500	-2.668930
0.138600	-2.663087
0.138700	-2.419650
0.138800	-2.357979
0.138900	-2.486189
0.139000	-2.785780
0.139100	-3.030517
0.139200	-3.023376
0.139300	-2.904902
0.139400	-2.730601
0.139500	-2.801036
0.139600	-2.976311
0.139700	-3.110689
0.139800	-3.202546
0.139900	-3.154832
0.140000	-3.132436
0.140100	-3.099978
0.140200	-3.148016
0.140300	-3.235005
0.140400	-3.293430
0.140500	-3.311931
0.140600	-3.346337
0.140700	-3.372304
0.140800	-3.495971
0.140900	-3.508954
0.141000	-3.488830
0.141100	-3.501164
0.141200	-3.543360
0.141300	-3.612497
0.141400	-3.619962
0.141500	-3.487856
0.141600	-3.364514
0.141700	-3.417421
0.141800	-3.686502
0.141900	-3.823477
0.142000	-3.828995
0.142100	-3.630998
0.142200	-3.463837
0.142300	-3.498892
0.142400	-3.689748
0.142500	-3.911440
0.142600	-3.989990
0.142700	-3.889368
0.142800	-3.768622
0.142900	-3.759209
0.143000	-3.791019
0.143100	-3.813740
0.143200	-3.828995
0.143300	-3.817635
0.143400	-3.801081
0.143500	-3.771219
0.143600	-3.738761
0.143700	-3.632621
0.143800	-3.515771
0.143900	-3.426834
0.144000	-3.399894
0.144100	-3.360944
0.144200	-3.361917
0.144300	-3.227215
0.144400	-3.074985
0.144500	-3.007471
0.144600	-2.770525
0.144700	-2.810124
0.144800	-2.749751
0.144900	-2.650104
0.145000	-2.567335
0.145100	-2.449511
0.145200	-2.314160
0.145300	-2.307344
0.145400	-2.299554
0.145500	-2.324547
0.145600	-2.245349
0.145700	-2.311564
0.145800	-2.275210
0.145900	-2.293387
0.146000	-2.228470
0.146100	-2.277158
0.146200	-2.201530
0.146300	-2.357005
0.146400	-2.296957
0.146500	-2.304747
0.146600	-2.184976
0.146700	-2.027229
0.146800	-1.652336
0.146900	-1.825014
0.147000	-2.119410
0.147100	-2.231716
0.147200	-2.194064
0.147300	-1.931152
0.147400	-1.782818
0.147500	-1.658827
0.147600	-1.828259
0.147700	-1.882789
0.147800	-1.942837
0.147900	-1.822742
0.148000	-1.647791
0.148100	-1.572164
0.148200	-1.603324
0.148300	-1.645844
0.148400	-1.680250
0.148500	-1.673758
0.148600	-1.645195
0.148700	-1.603973
0.148800	-1.606569
0.148900	-1.575085
0.149000	-1.641624
0.149100	-1.585796
0.149200	-1.739324
0.149300	-1.648441
0.149400	-1.798722
0.149500	-1.704918
0.149600	-1.702646
0.149700	-1.604947
0.149800	-1.700049
0.149900	-1.974971
0.150000	-2.036642
0.150100	-1.967505
0.150200	-1.745166
0.150300	-1.740298
0.150400	-1.829882
0.150500	-2.102532
0.150600	-2.180757
0.150700	-2.099611
0.150800	-1.942837
0.150900	-1.872078
0.151000	-1.915248
0.151100	-2.055467
0.151200	-2.060661
0.151300	-2.055143
0.151400	-2.043458
0.151500	-2.044756
0.151600	-2.093119
0.151700	-2.117787
0.151800	-2.143429
0.151900	-2.121358
0.152000	-2.104155
0.152100	-2.134990
0.152200	-2.165177
0.152300	-2.140184
0.152400	-2.090198
0.152500	-2.078188
0.152600	-2.123630
0.152700	-2.255086
0.152800	-2.284623
0.152900	-2.307019
0.153000	-2.157711
0.153100	-2.175888
0.153200	-2.174914
0.153300	-2.198284
0.153400	-2.194064
0.153500	-2.172317
0.153600	-2.175563
0.153700	-2.183678
0.153800	-2.176212
0.153900	-2.183029
0.154000	-2.206723
0.154100	-2.190819
0.154200	-2.201530
0.154300	-2.247621
0.154400	-2.243076
0.154500	-2.246971
0.154600	-2.261902
0.154700	-2.302151
0.154800	-2.353435
0.154900	-2.358304
0.155000	-2.576424
0.155100	-2.802659
0.155200	-2.894516
0.155300	-2.718591
0.155400	-2.568309
0.155500	-2.598495
0.155600	-2.786105
0.155700	-3.047720
0.155800	-3.221697
0.155900	-3.169439
0.156000	-3.007796
0.156100	-2.922430
0.156200	-3.064922
0.156300	-3.263244
0.156400	-3.359970
0.156500	-3.401841
0.156600	-3.354127
0.156700	-3.361268
0.156800	-3.417746
0.156900	-3.420992
0.157000	-3.476171
0.157100	-3.477470
0.157200	-3.514472
0.157300	-3.571924
0.157400	-3.604382
0.157500	-3.690073
0.157600	-3.686178
0.157700	-3.690397
0.157800	-3.728374
0.157900	-3.811792
0.158000	-3.870867
0.158100	-3.793291
0.158200	-3.639762
0.158300	-3.651123
0.158400	-3.800756
0.158500	-4.012711
0.158600	-4.114955
0.158700	-4.040950
0.158800	-3.876709
0.158900	-3.777711
0.159000	-3.876060
0.159100	-4.116578
0.159200	-4.257449
0.159300	-4.257449
0.159400	-4.101972
0.159500	-4.004272
0.159600	-4.008816
0.159700	-4.070163
0.159800	-4.087041
0.159900	-4.031537
0.160000	-4.050038
0.160100	-4.043546
0.160200	-4.014658
0.160300	-3.974734
0.160400	-3.888070
0.160500	-3.792317
0.160600	-3.705328
0.160700	-3.686502
0.160800	-3.682607
0.160900	-3.666703
0.161000	-3.495971
0.161100	-3.351855
0.161200	-3.076932
0.161300	-3.093161
0.161400	-3.056159
0.161500	-3.005848
0.161600	-2.910096
0.161700	-2.822134
0.161800	-2.724109
0.161900	-2.651078
0.162000	-2.612777
0.162100	-2.637770
0.162200	-2.597522
0.162300	-2.574152
0.162400	-2.623488
0.162500	-2.579345
0.162600	-2.575450
0.162700	-2.538447
0.162800	-2.536500
0.162900	-2.470285
0.163000	-2.550132
0.163100	-2.599794
0.163200	-2.492032
0.163300	-2.476127
0.163400	-2.132718
0.163500	-2.054818
0.163600	-2.114217
0.163700	-2.537149
0.163800	-2.416404
0.163900	-2.367716
0.164000	-2.095391
0.164100	-1.898694
0.164200	-1.986656
0.164300	-2.097988
0.164400	-2.272614
0.164500	-2.095716
0.164600	-2.011324
0.164700	-1.844164
0.164800	-1.829882
0.164900	-1.933100
0.165000	-1.967830
0.165100	-1.967505
0.165200	-1.901615
0.165300	-1.911028
0.165400	-1.884412
0.165500	-1.896422
0.165600	-1.892527
0.165700	-1.825014
0.165800	-1.920441
0.165900	-1.939591
0.166000	-2.035343
0.166100	-2.024307
0.166200	-1.982112
0.166300	-1.982761
0.166400	-1.871429
0.166500	-2.103506
0.166600	-2.307019
0.166700	-2.329091
0.166800	-2.216461
0.166900	-2.046055
0.167000	-1.996718
0.167100	-2.210618
0.167200	-2.409912
0.167300	-2.457626
0.167400	-2.285597
0.167500	-2.105778
0.167600	-2.073644
0.167700	-2.187573
0.167800	-2.332661
0.167900	-2.305721
0.168000	-2.312213
0.168100	-2.231391
0.168200	-2.272614
0.168300	-2.344346
0.168400	-2.379077
0.168500	-2.358953
0.168600	-2.307993
0.168700	-2.325196
0.168800	-2.369989
0.168900	-2.368366
0.169000	-2.332337
0.169100	-2.293062
0.169200	-2.280404
0.169300	-2.378103
0.169400	-2.460872
0.169500	-2.496252
0.169600	-2.493006
0.169700	-2.415755
0.169800	-2.433607
0.169900	-2.406666
0.170000	-2.391736
0.170100	-2.409588
0.170200	-2.366094
0.170300	-2.384270
0.170400	-2.358953
0.170500	-2.382323
0.170600	-2.344996
0.170700	-2.335583
0.170800	-2.370962
0.170900	-2.379401
0.171000	-2.372261
0.171100	-2.379077
0.171200	-2.372585
0.171300	-2.412834
0.171400	-2.462170
0.171500	-2.474504
0.171600	-2.542018
0.171700	-2.780262
0.171800	-3.044149
0.171900	-3.026297
0.172000	-2.877313
0.172100	-2.726706
0.172200	-2.746830
0.172300	-3.029867
0.172400	-3.294728
0.172500	-3.410280
0.172600	-3.263244
0.172700	-3.133734
0.172800	-3.112312
0.172900	-3.253831
0.173000	-3.515121
0.173100	-3.578740
0.173200	-3.569327
0.173300	-3.555045
0.173400	-3.552124
0.173500	-3.568678
0.173600	-3.569327
0.173700	-3.654368
0.173800	-3.666053
0.173900	-3.699810
0.174000	-3.730646
0.174100	-3.760183
0.174200	-3.826074
0.174300	-3.879955
0.174400	-3.856261
0.174500	-3.908194
0.174600	-3.950066
0.174700	-3.981551
0.174800	-3.873788
0.174900	-3.785501
0.175000	-3.793615
0.175100	-3.958830
0.175200	-4.149686
0.175300	-4.231157
0.175400	-4.084444
0.175500	-3.899106
0.175600	-3.842303
0.175700	-3.990964
0.175800	-4.252580
0.175900	-4.373651
0.176000	-4.301917
0.176100	-4.166565
0.176200	-4.100998
0.176300	-4.139299
0.176400	-4.163319
0.176500	-4.184417
0.176600	-4.157801
0.176700	-4.131834
0.176800	-4.117877
0.176900	-4.065294
0.177000	-4.025694
0.177100	-3.908194
0.177200	-3.817959
0.177300	-3.766026
0.177400	-3.725453
0.177500	-3.723180
0.177600	-3.660536
0.177700	-3.468706
0.177800	-3.378147
0.177900	-3.133085
0.178000	-3.178202
0.178100	-3.138279
0.178200	-3.049342
0.178300	-2.986049
0.178400	-2.860110
0.178500	-2.744883
0.178600	-2.655947
0.178700	-2.630954
0.178800	-2.641340
0.178900	-2.645560
0.179000	-2.610180
0.179100	-2.672825
0.179200	-2.568309
0.179300	-2.622515
0.179400	-2.562467
0.179500	-2.578696
0.179600	-2.572853
0.179700	-2.607908
0.179800	-2.610830
0.179900	-2.599469
0.180000	-2.406342
0.180100	-2.185625
0.180200	-2.063582
0.180300	-2.430036
0.180400	-2.570581
0.180500	-2.595250
0.180600	-2.338829
0.180700	-2.109024
0.180800	-2.082408
0.180900	-2.122656
0.181000	-2.343373
0.181100	-2.410237
0.181200	-2.268069
0.181300	-2.060985
0.181400	-1.957119
0.181500	-1.994121
0.181600	-1.999964
0.181700	-2.058713
0.181800	-2.117787
0.181900	-2.035992
0.182000	-2.019763
0.182100	-2.002885
0.182200	-1.971400
0.182300	-1.935047
0.182400	-2.010026
0.182500	-1.984384
0.182600	-2.113892
0.182700	-2.048651
0.182800	-2.176537
0.182900	-2.090198
0.183000	-2.047028
0.183100	-2.051897
0.183200	-2.285272
0.183300	-2.486839
0.183400	-2.429063
0.183500	-2.245673
0.183600	-2.074618
0.183700	-2.146351
0.183800	-2.426141
0.183900	-2.602390
0.184000	-2.557922
0.184100	-2.368366
0.184200	-2.215811
0.184300	-2.243076
0.184400	-2.375506
0.184500	-2.489435
0.184600	-2.393359
0.184700	-2.388165
0.184800	-2.333311
0.184900	-2.398227
0.185000	-2.449511
0.185100	-2.476776
0.185200	-2.449836
0.185300	-2.432958
0.185400	-2.473531
0.185500	-2.526762
0.185600	-2.514104
0.185700	-2.453406
0.185800	-2.439774
0.185900	-2.452433
0.186000	-2.582915
0.186100	-2.660815
0.186200	-2.662438
0.186300	-2.669904
0.186400	-2.540395
0.186500	-2.629980
0.186600	-2.610505
0.186700	-2.598820
0.186800	-2.598820
0.186900	-2.584863
0.187000	-2.610505
0.187100	-2.600443
0.187200	-2.607259
0.187300	-2.604662
0.187400	-2.610505
0.187500	-2.631278
0.187600	-2.624462
0.187700	-2.633226
0.187800	-2.620892
0.187900	-2.665360
0.188000	-2.668930
0.188100	-2.759813
0.188200	-2.748128
0.188300	-2.905227
0.188400	-3.169439
0.188500	-3.320695
0.188600	-3.237277
0.188700	-2.989944
0.188800	-2.929571
0.188900	-3.063300
0.189000	-3.422615
0.189100	-3.664755
0.189200	-3.704355
0.189300	-3.538167
0.189400	-3.393402
0.189500	-3.421316
0.189600	-3.610874
0.189700	-3.810494
0.189800	-3.855611
0.189900	-3.833540
0.190000	-3.796537
0.190100	-3.802704
0.190200	-3.808222
0.190300	-3.876060
0.190400	-3.920853
0.190500	-3.923450
0.190600	-3.974085
0.190700	-3.953961
0.190800	-4.089962
0.190900	-4.164292
0.191000	-4.137352
0.191100	-4.118850
0.191200	-4.137027
0.191300	-4.187663
0.191400	-4.176627
0.191500	-4.036730
0.191600	-3.983823
0.191700	-3.999078
0.191800	-4.222069
0.191900	-4.356123
0.192000	-4.389880
0.192100	-4.189286
0.192200	-3.989341
0.192300	-4.017580
0.192400	-4.226613
0.192500	-4.446683
0.192600	-4.515495
0.192700	-4.416172
0.192800	-4.287960
0.192900	-4.240895
0.193000	-4.265563
0.193100	-4.303540
0.193200	-4.286661
0.193300	-4.305163
0.193400	-4.298996
0.193500	-4.267186
0.193600	-4.217849
0.193700	-4.098726
0.193800	-3.968243
0.193900	-3.878657
0.194000	-3.868270
0.194100	-3.857234
0.194200	-3.841979
0.194300	-3.702407
0.194400	-3.550177
0.194500	-3.503761
0.194600	-3.275902
0.194700	-3.299597
0.194800	-3.254480
0.194900	-3.190212
0.195000	-3.120426
0.195100	-2.976636
0.195200	-2.865303
0.195300	-2.862057
0.195400	-2.862382
0.195500	-2.857838
0.195600	-2.853618
0.195700	-2.902955
0.195800	-2.861408
0.195900	-2.884778
0.196000	-2.847451
0.196100	-2.843881
0.196200	-2.835442
0.196300	-2.833494
0.196400	-2.879910
0.196500	-2.839337
0.196600	-2.796167
0.196700	-2.572529
0.196800	-2.266771
0.196900	-2.335258
0.197000	-2.685808
0.197100	-2.799737
0.197200	-2.756568
0.197300	-2.490734
0.197400	-2.327144
0.197500	-2.236585
0.197600	-2.350838
0.197700	-2.518648
0.197800	-2.508910
0.197900	-2.395955
0.198000	-2.184002
0.198100	-2.126876
0.198200	-2.118437
0.198300	-2.176212
0.198400	-2.181730
0.198500	-2.268394
0.198600	-2.174914
0.198700	-2.154141
0.198800	-2.114866
0.198900	-2.081110
0.199000	-2.093119
0.199100	-2.178809
0.199200	-2.165826
0.199300	-2.188547
0.199400	-2.192117
0.199500	-2.255086
0.199600	-2.132069
0.199700	-2.055467
0.199800	-2.126551
0.199900	-2.417053
0.200000	-2.551431
0.200100	-2.421273
0.200200	-2.204451
0.200300	-2.094093
0.200400	-2.203153
0.200500	-2.505989
0.200600	-2.585837
0.200700	-2.503717
0.200800	-2.289492
0.200900	-2.179458
0.201000	-2.258007
0.201100	-2.411211
0.201200	-2.445292
0.201300	-2.460872
0.201400	-2.446266
0.201500	-2.429387
0.201600	-2.492032
0.201700	-2.516051
0.201800	-2.540719
0.201900	-2.510209
0.202000	-2.531307
0.202100	-2.554352
0.202200	-2.530982
0.202300	-2.528385
0.202400	-2.511182
0.202500	-2.473531
0.202600	-2.531956
0.202700	-2.656596
0.202800	-2.710801
0.202900	-2.711775
0.203000	-2.633226
0.203100	-2.596872
0.203200	-2.621865
0.203300	-2.613426
0.203400	-2.611154
0.203500	-2.602066
0.203600	-2.587135
0.203700	-2.591030
0.203800	-2.605961
0.203900	-2.593627
0.204000	-2.623164
0.204100	-2.654973
0.204200	-2.630629
0.204300	-2.619918
0.204400	-2.629980
0.204500	-2.623488
0.204600	-2.667956
0.204700	-2.691326
0.204800	-2.766630
0.204900	-2.766305
0.205000	-3.007796
0.205100	-3.201248
0.205200	-3.372629
0.205300	-3.200274
0.205400	-3.023051
0.205500	-2.982478
0.205600	-3.154508
0.205700	-3.479092
0.205800	-3.673519
0.205900	-3.661509
0.206000	-3.446959
0.206100	-3.358347
0.206200	-3.456047
0.206300	-3.628726
0.206400	-3.754341
0.206500	-3.825425
0.206600	-3.779983
0.206700	-3.747200
0.206800	-3.721882
0.206900	-3.753042
0.207000	-3.834513
0.207100	-3.861778
0.207200	-3.894886
0.207300	-3.928968
0.207400	-3.953636
0.207500	-3.945522
0.207600	-4.022448
0.207700	-4.020501
0.207800	-4.057504
0.207900	-4.132158
0.208000	-4.159424
0.208100	-4.102621
0.208200	-3.903325
0.208300	-3.858857
0.208400	-3.985770
0.208500	-4.233429
0.208600	-4.317497
0.208700	-4.268485
0.208800	-4.047766
0.208900	-3.919555
0.209000	-3.993560
0.209100	-4.240570
0.209200	-4.409680
0.209300	-4.376572
0.209400	-4.277898
0.209500	-4.196102
0.209600	-4.175978
0.209700	-4.194154
0.209800	-4.213305
0.209900	-4.212656
0.210000	-4.210384
0.210100	-4.209085
0.210200	-4.180197
0.210300	-4.110087
0.210400	-3.981226
0.210500	-3.842303
0.210600	-3.774465
0.210700	-3.754341
0.210800	-3.732593
0.210900	-3.722207
0.211000	-3.544659
0.211100	-3.413851
0.211200	-3.302518
0.211300	-3.157104
0.211400	-3.114908
0.211500	-3.037008
0.211600	-2.983776
0.211700	-2.907499
0.211800	-2.735145
0.211900	-2.644911
0.212000	-2.636147
0.212100	-2.621216
0.212200	-2.639717
0.212300	-2.584214
0.212400	-2.661465
0.212500	-2.598495
0.212600	-2.590056
0.212700	-2.547860
0.212800	-2.481645
0.212900	-2.583240
0.213000	-2.526762
0.213100	-2.695870
0.213200	-2.476776
0.213300	-2.452433
0.213400	-2.141482
0.213500	-1.968479
0.213600	-2.172642
0.213700	-2.468013
0.213800	-2.644586
0.213900	-2.405693
0.214000	-2.221979
0.214100	-2.032422
0.214200	-1.922064
0.214300	-2.173291
0.214400	-2.243401
0.214500	-2.312537
0.214600	-2.120709
0.214700	-2.011324
0.214800	-1.954522
0.214900	-1.988603
0.215000	-2.052222
0.215100	-2.100260
0.215200	-2.021711
0.215300	-2.001262
0.215400	-1.989902
0.215500	-1.978217
0.215600	-1.932451
0.215700	-1.943486
0.215800	-2.005157
0.215900	-2.104804
0.216000	-2.108699
0.216100	-2.163554
0.216200	-2.108699
0.216300	-2.032747
0.216400	-1.963610
0.216500	-2.121033
0.216600	-2.373884
0.216700	-2.426791
0.216800	-2.247296
0.216900	-2.027878
0.217000	-2.034370
0.217100	-2.197959
0.217200	-2.455029
0.217300	-2.493006
0.217400	-2.385244
0.217500	-2.178809
0.217600	-2.148623
0.217700	-2.260604
0.217800	-2.380700
0.217900	-2.369664
0.218000	-2.387841
0.218100	-2.348566
0.218200	-2.384595
0.218300	-2.435879
0.218400	-2.468337
0.218500	-2.505664
0.218600	-2.452433
0.218700	-2.468013
0.218800	-2.472232
0.218900	-2.417702
0.219000	-2.400499
0.219100	-2.381674
0.219200	-2.346294
0.219300	-2.425817
0.219400	-2.539421
0.219500	-2.577397
0.219600	-2.609207
0.219700	-2.573827
0.219800	-2.530333
0.219900	-2.528385
0.220000	-2.522218
0.220100	-2.536500
0.220200	-2.510858
0.220300	-2.532280
0.220400	-2.522218
0.220500	-2.559545
0.220600	-2.526438
0.220700	-2.529034
0.220800	-2.527736
0.220900	-2.523517
0.221000	-2.555650
0.221100	-2.544290
0.221200	-2.608882
0.221300	-2.652052
0.221400	-2.673474
0.221500	-2.709828
0.221600	-2.718591
0.221700	-3.007796
0.221800	-3.208389
0.221900	-3.257726
0.222000	-3.107443
0.222100	-2.887700
0.222200	-2.951967
0.222300	-3.135033
0.222400	-3.486882
0.222500	-3.616717
0.222600	-3.511226
0.222700	-3.399894
0.222800	-3.340170
0.222900	-3.474224
0.223000	-3.642683
0.223100	-3.787773
0.223200	-3.760832
0.223300	-3.746875
0.223400	-3.789071
0.223500	-3.812117
0.223600	-3.841654
0.223700	-3.889368
0.223800	-3.909493
0.223900	-3.937407
0.224000	-3.972787
0.224100	-4.005570
0.224200	-4.124693
0.224300	-4.083146
0.224400	-4.107490
0.224500	-4.138650
0.224600	-4.190259
0.224700	-4.237649
0.224800	-4.130536
0.224900	-4.000701
0.225000	-3.989990
0.225100	-4.168512
0.225200	-4.405136
0.225300	-4.490826
0.225400	-4.343789
0.225500	-4.113982
0.225600	-4.075680
0.225700	-4.226613
0.225800	-4.495371
0.225900	-4.620337
0.226000	-4.561911
0.226100	-4.405785
0.226200	-4.344113
0.226300	-4.383064
0.226400	-4.427532
0.226500	-4.434024
0.226600	-4.400267
0.226700	-4.391178
0.226800	-4.381116
0.226900	-4.373975
0.227000	-4.275950
0.227100	-4.172083
0.227200	-4.060100
0.227300	-4.005895
0.227400	-3.983498
0.227500	-3.993560
0.227600	-3.938381
0.227700	-3.775439
0.227800	-3.661185
0.227900	-3.413202
0.228000	-3.428457
0.228100	-3.399569
0.228200	-3.320695
0.228300	-3.253181
0.228400	-3.142174
0.228500	-3.003251
0.228600	-2.939958
0.228700	-2.932492
0.228800	-2.915614
0.228900	-2.914640
0.229000	-2.888024
0.229100	-2.936387
0.229200	-2.895165
0.229300	-2.927623
0.229400	-2.840635
0.229500	-2.897437
0.229600	-2.858812
0.229700	-2.944502
0.229800	-2.910745
0.229900	-2.872120
0.230000	-2.754945
0.230100	-2.399201
0.230200	-2.350838
0.230300	-2.579020
0.230400	-2.863680
0.230500	-2.859136
0.230600	-2.813045
0.230700	-2.463469
0.230800	-2.389788
0.230900	-2.356681
0.231000	-2.584538
0.231100	-2.620242
0.231200	-2.559870
0.231300	-2.432309
0.231400	-2.270341
0.231500	-2.274236
0.231600	-2.238532
0.231700	-2.380700
0.231800	-2.323898
0.231900	-2.342399
0.232000	-2.293062
0.232100	-2.320976
0.232200	-2.271964
0.232300	-2.236585
0.232400	-2.261253
0.232500	-2.279105
0.232600	-2.322599
0.232700	-2.337855
0.232800	-2.410237
0.232900	-2.338504
0.233000	-2.366418
0.233100	-2.308967
0.233200	-2.562142
0.233300	-2.767279
0.233400	-2.715995
0.233500	-2.589082
0.233600	-2.359926
0.233700	-2.463144
0.233800	-2.676071
0.233900	-2.869198
0.234000	-2.867251
0.234100	-2.646534
0.234200	-2.533903
0.234300	-2.494953
0.234400	-2.639717
0.234500	-2.746506
0.234600	-2.719890
0.234700	-2.701064
0.234800	-2.627059
0.234900	-2.681589
0.235000	-2.713073
0.235100	-2.726706
0.235200	-2.702038
0.235300	-2.652701
0.235400	-2.688405
0.235500	-2.734821
0.235600	-2.729952
0.235700	-2.701388
0.235800	-2.681913
0.235900	-2.657894
0.236000	-2.790000
0.236100	-2.875690
0.236200	-2.919184
0.236300	-2.900683
0.236400	-2.851995
0.236500	-2.837389
0.236600	-2.844530
0.236700	-2.847776
0.236800	-2.827976
0.236900	-2.799088
0.237000	-2.837714
0.237100	-2.808501
0.237200	-2.821484
0.237300	-2.812396
0.237400	-2.811747
0.237500	-2.851022
0.237600	-2.830897
0.237700	-2.875365
0.237800	-2.835117
0.237900	-2.877313
0.238000	-2.888349
0.238100	-2.963328
0.238200	-2.994488
0.238300	-3.135357
0.238400	-3.357373
0.238500	-3.560239
0.238600	-3.474224
0.238700	-3.287912
0.238800	-3.145095
0.238900	-3.242795
0.239000	-3.592697
0.239100	-3.830618
0.239200	-3.893263
0.239300	-3.769921
0.239400	-3.623857
0.239500	-3.702407
0.239600	-3.828995
0.239700	-4.019527
0.239800	-4.104569
0.239900	-4.061399
0.240000	-3.999078
0.240100	-3.987718
0.240200	-4.059127
0.240300	-4.102297
0.240400	-4.158450
0.240500	-4.207462
0.240600	-4.265888
0.240700	-4.296075
0.240800	-4.336972
0.240900	-4.380792
0.241000	-4.417470
0.241100	-4.382090
0.241200	-4.453824
0.241300	-4.471351
0.241400	-4.504135
0.241500	-4.343789
0.241600	-4.273029
0.241700	-4.301592
0.241800	-4.494072
0.241900	-4.644031
0.242000	-4.698887
0.242100	-4.498292
0.242200	-4.311655
0.242300	-4.309383
0.242400	-4.501862
0.242500	-4.738811
0.242600	-4.790745
0.242700	-4.698238
0.242800	-4.560613
0.242900	-4.534646
0.243000	-4.586580
0.243100	-4.624881
0.243200	-4.621960
0.243300	-4.614819
0.243400	-4.576193
0.243500	-4.575868
0.243600	-4.529128
0.243700	-4.472974
0.243800	-4.345736
0.243900	-4.237000
0.244000	-4.193830
0.244100	-4.170460
0.244200	-4.176951
0.244300	-4.011412
0.244400	-3.845874
0.244500	-3.746875
0.244600	-3.565432
0.244700	-3.547580
0.244800	-3.508954
0.244900	-3.420018
0.245000	-3.354776
0.245100	-3.227539
0.245200	-3.129190
0.245300	-3.099004
0.245400	-3.076932
0.245500	-3.081152
0.245600	-3.032464
0.245700	-3.092188
0.245800	-3.035710
0.245900	-3.033438
0.246000	-2.995786
0.246100	-2.939308
0.246200	-3.006822
0.246300	-2.949371
0.246400	-3.100951
0.246500	-2.959108
0.246600	-3.045447
0.246700	-2.708205
0.246800	-2.544939
0.246900	-2.422571
0.247000	-2.868874
0.247100	-3.007796
0.247200	-2.929246
0.247300	-2.773121
0.247400	-2.504691
0.247500	-2.459249
0.247600	-2.491058
0.247700	-2.687107
0.247800	-2.627059
0.247900	-2.505340
0.248000	-2.300203
0.248100	-2.283000
0.248200	-2.283325
0.248300	-2.295334
0.248400	-2.328442
0.248500	-2.343048
0.248600	-2.300203
0.248700	-2.286895
0.248800	-2.260604
0.248900	-2.203153
0.249000	-2.199907
0.249100	-2.332012
0.249200	-2.319678
0.249300	-2.398227
0.249400	-2.369015
0.249500	-2.380375
0.249600	-2.269692
0.249700	-2.211592
0.249800	-2.224251
0.249900	-2.497874
0.250000	-2.619269
0.250100	-2.512805
0.250200	-2.287220
0.250300	-2.193415
0.250400	-2.298580
0.250500	-2.609856
0.250600	-2.683536
0.250700	-2.598820
0.250800	-2.344346
0.250900	-2.276833
0.251000	-2.335258
0.251100	-2.477426
0.251200	-2.541693
0.251300	-2.514104
0.251400	-2.483268
0.251500	-2.452433
0.251600	-2.532605
0.251700	-2.589082
0.251800	-2.564414
0.251900	-2.498524
0.252000	-2.502743
0.252100	-2.554677
0.252200	-2.592977
0.252300	-2.579345
0.252400	-2.553378
0.252500	-2.544939
0.252600	-2.563116
0.252700	-2.737742
0.252800	-2.755594
0.252900	-2.779613
0.253000	-2.772797
0.253100	-2.708205
0.253200	-2.719890
0.253300	-2.683861
0.253400	-2.668930
0.253500	-2.686133
0.253600	-2.650429
0.253700	-2.658543
0.253800	-2.634849
0.253900	-2.647183
0.254000	-2.627059
0.254100	-2.644262
0.254200	-2.639717
0.254300	-2.663087
0.254400	-2.608882
0.254500	-2.675097
0.254600	-2.681589
0.254700	-2.740663
0.254800	-2.729627
0.254900	-2.775069
0.255000	-3.000006
0.255100	-3.245067
0.255200	-3.371006
0.255300	-3.211310
0.255400	-2.988645
0.255500	-2.911394
0.255600	-3.136006
0.255700	-3.388209
0.255800	-3.563160
0.255900	-3.523561
0.256000	-3.385612
0.256100	-3.244093
0.256200	-3.336924
0.256300	-3.506033
0.256400	-3.639437
0.256500	-3.643008
0.256600	-3.600487
0.256700	-3.596268
0.256800	-3.616392
0.256900	-3.637815
0.257000	-3.716040
0.257100	-3.743305
0.257200	-3.756937
0.257300	-3.767324
0.257400	-3.802055
0.257500	-3.834513
0.257600	-3.891965
0.257700	-3.908194
0.257800	-3.932863
0.257900	-3.989665
0.258000	-4.003298
0.258100	-3.969541
0.258200	-3.814714
0.258300	-3.709223
0.258400	-3.844900
0.258500	-4.099051
0.258600	-4.212980
0.258700	-4.160073
0.258800	-3.944872
0.258900	-3.764403
0.259000	-3.864051
0.259100	-4.120473
0.259200	-4.316848
0.259300	-4.293802
0.259400	-4.128913
0.259500	-4.050038
0.259600	-4.040625
0.259700	-4.076979
0.259800	-4.104569
0.259900	-4.096779
0.260000	-4.093208
0.260100	-4.070812
0.260200	-4.049714
0.260300	-3.993560
0.260400	-3.891316
0.260500	-3.766026
0.260600	-3.694292
0.260700	-3.668650
0.260800	-3.655018
0.260900	-3.617366
0.261000	-3.457021
0.261100	-3.337249
0.261200	-3.122374
0.261300	-3.089591
0.261400	-3.049018
0.261500	-2.992540
0.261600	-2.932492
0.261700	-2.847451
0.261800	-2.713073
0.261900	-2.611154
0.262000	-2.579345
0.262100	-2.613426
0.262200	-2.576099
0.262300	-2.561817
0.262400	-2.605636
0.262500	-2.587459
0.262600	-2.571230
0.262700	-2.520920
0.262800	-2.538447
0.262900	-2.528061
0.263000	-2.548834
0.263100	-2.583564
0.263200	-2.509559
0.263300	-2.429387
0.263400	-2.090522
0.263500	-1.970102
0.263600	-2.108699
0.263700	-2.386542
0.263800	-2.503392
0.263900	-2.305721
0.264000	-2.172967
0.264100	-1.968804
0.264200	-2.008078
0.264300	-2.129472
0.264400	-2.265148
0.264500	-2.137587
0.264600	-1.972050
0.264700	-1.874675
0.264800	-1.843839
0.264900	-1.789634
0.265000	-1.824689
0.265100	-1.837023
0.265200	-1.856823
0.265300	-1.821768
0.265400	-1.773405
0.265500	-1.780221
0.265600	-1.734130
0.265700	-1.775677
0.265800	-1.815925
0.265900	-1.874999
0.266000	-1.850656
0.266100	-1.900641
0.266200	-1.890904
0.266300	-1.834102
0.266400	-1.777949
0.266500	-1.911353
0.266600	-2.189520
0.266700	-2.231391
0.266800	-2.093768
0.266900	-1.862016
0.267000	-1.891228
0.267100	-2.049300
0.267200	-2.313186
0.267300	-2.327468
0.267400	-2.216785
0.267500	-2.012947
0.267600	-1.950952
0.267700	-2.078188
0.267800	-2.212241
0.267900	-2.186599
0.268000	-2.209969
0.268100	-2.159334
0.268200	-2.202828
0.268300	-2.240480
0.268400	-2.247945
0.268500	-2.251516
0.268600	-2.200232
0.268700	-2.243726
0.268800	-2.281702
0.268900	-2.272938
0.269000	-2.253788
0.269100	-2.220356
0.269200	-2.221005
0.269300	-2.277482
0.269400	-2.382323
0.269500	-2.416404
0.269600	-2.455354
0.269700	-2.364795
0.269800	-2.362199
0.269900	-2.347592
0.270000	-2.344022
0.270100	-2.328766
0.270200	-2.345969
0.270300	-2.328442
0.270400	-2.324547
0.270500	-2.324871
0.270600	-2.343373
0.270700	-2.339478
0.270800	-2.343373
0.270900	-2.340127
0.271000	-2.363172
0.271100	-2.362199
0.271200	-2.359602
0.271300	-2.422246
0.271400	-2.404070
0.271500	-2.480672
0.271600	-2.505340
0.271700	-2.761112
0.271800	-2.974039
0.271900	-2.942554
0.272000	-2.812071
0.272100	-2.643937
0.272200	-2.704959
0.272300	-2.968521
0.272400	-3.267463
0.272500	-3.367435
0.272600	-3.260322
0.272700	-3.127243
0.272800	-3.069791
0.272900	-3.235005
0.273000	-3.383340
0.273100	-3.472925
0.273200	-3.511551
0.273300	-3.435923
0.273400	-3.418720
0.273500	-3.418720
0.273600	-3.463512
0.273700	-3.524210
0.273800	-3.560563
0.273900	-3.598215
0.274000	-3.623857
0.274100	-3.658913
0.274200	-3.730321
0.274300	-3.767973
0.274400	-3.765052
0.274500	-3.790045
0.274600	-3.844575
0.274700	-3.850743
0.274800	-3.711171
0.274900	-3.572248
0.275000	-3.573547
0.275100	-3.775439
0.275200	-3.980901
0.275300	-4.045494
0.275400	-3.902676
0.275500	-3.683581
0.275600	-3.626129
0.275700	-3.780957
0.275800	-4.031212
0.275900	-4.147089
0.276000	-4.088339
0.276100	-3.963374
0.276200	-3.889368
0.276300	-3.902027
0.276400	-3.915984
0.276500	-3.946495
0.276600	-3.911115
0.276700	-3.919555
0.276800	-3.883526
0.276900	-3.853339
0.277000	-3.812117
0.277100	-3.698512
0.277200	-3.583609
0.277300	-3.546282
0.277400	-3.514797
0.277500	-3.525508
0.277600	-3.442414
0.277700	-3.253181
0.277800	-3.140551
0.277900	-2.874067
0.278000	-2.913991
0.278100	-2.870497
0.278200	-2.836415
0.278300	-2.765007
0.278400	-2.641016
0.278500	-2.530982
0.278600	-2.466714
0.278700	-2.457301
0.278800	-2.438476
0.278900	-2.408289
0.279000	-2.417378
0.279100	-2.402122
0.279200	-2.384595
0.279300	-2.353759
0.279400	-2.285272
0.279500	-2.262551
0.279600	-2.247296
0.279700	-2.249893
0.279800	-2.346943
0.279900	-2.186924
0.280000	-2.152842
0.280100	-1.778923
0.280200	-1.760097
0.280300	-1.977243
0.280400	-2.268069
0.280500	-2.259955
0.280600	-2.046379
0.280700	-1.853577
0.280800	-1.661749
0.280900	-1.861691
0.281000	-1.960689
0.281100	-2.114217
0.281200	-1.982436
0.281300	-1.885061
0.281400	-1.714655
0.281500	-1.661749
0.281600	-1.743219
0.281700	-1.789309
0.281800	-1.804240
0.281900	-1.740622
0.282000	-1.737376
0.282100	-1.739973
0.282200	-1.712383
0.282300	-1.685443
0.282400	-1.746465
0.282500	-1.751009
0.282600	-1.730560
0.282700	-1.797749
0.282800	-1.891878
0.282900	-1.820145
0.283000	-1.740622
0.283100	-1.705567
0.283200	-1.925310
0.283300	-2.129797
0.283400	-2.053845
0.283500	-1.886035
0.283600	-1.704593
0.283700	-1.764641
0.283800	-1.993148
0.283900	-2.180432
0.284000	-2.166799
0.284100	-1.990551
0.284200	-1.859744
0.284300	-1.862990
0.284400	-1.986980
0.284500	-2.104804
0.284600	-2.097014
0.284700	-2.117787
0.284800	-2.042484
0.284900	-2.114542
0.285000	-2.147324
0.285100	-2.200556
0.285200	-2.157062
0.285300	-2.124604
0.285400	-2.131420
0.285500	-2.167773
0.285600	-2.188222
0.285700	-2.169721
0.285800	-2.139859
0.285900	-2.113892
0.286000	-2.223277
0.286100	-2.321626
0.286200	-2.359602
0.286300	-2.357330
0.286400	-2.246971
0.286500	-2.294685
0.286600	-2.304747
0.286700	-2.291115
0.286800	-2.293062
0.286900	-2.293387
0.287000	-2.275210
0.287100	-2.328442
0.287200	-2.303774
0.287300	-2.322924
0.287400	-2.339478
0.287500	-2.350189
0.287600	-2.343373
0.287700	-2.329091
0.287800	-2.348241
0.287900	-2.330065
0.288000	-2.369989
0.288100	-2.378103
0.288200	-2.458924
0.288300	-2.528061
0.288400	-2.775718
0.288500	-2.949695
0.288600	-2.908148
0.288700	-2.690353
0.288800	-2.673799
0.288900	-2.763708
0.289000	-3.042202
0.289100	-3.246365
0.289200	-3.253831
0.289300	-3.144121
0.289400	-2.953915
0.289500	-3.056808
0.289600	-3.203845
0.289700	-3.391130
0.289800	-3.433651
0.289900	-3.464486
0.290000	-3.402490
0.290100	-3.373927
0.290200	-3.400867
0.290300	-3.477145
0.290400	-3.492076
0.290500	-3.513174
0.290600	-3.528754
0.290700	-3.563485
0.290800	-3.652096
0.290900	-3.683581
0.291000	-3.698512
0.291100	-3.701758
0.291200	-3.753367
0.291300	-3.821530
0.291400	-3.798160
0.291500	-3.680984
0.291600	-3.545957
0.291700	-3.617041
0.291800	-3.845549
0.291900	-3.963049
0.292000	-4.021799
0.292100	-3.823153
0.292200	-3.657939
0.292300	-3.655667
0.292400	-3.835487
0.292500	-4.078602
0.292600	-4.159424
0.292700	-4.056530
0.292800	-3.927020
0.292900	-3.892939
0.293000	-3.923774
0.293100	-3.975059
0.293200	-3.993560
0.293300	-3.957531
0.293400	-3.918906
0.293500	-3.896185
0.293600	-3.861454
0.293700	-3.807897
0.293800	-3.675142
0.293900	-3.557642
0.294000	-3.510253
0.294100	-3.494023
0.294200	-3.506682
0.294300	-3.362242
0.294400	-3.190861
0.294500	-3.008445
0.294600	-2.852320
0.294700	-2.887375
0.294800	-2.820511
0.294900	-2.754945
0.295000	-2.679317
0.295100	-2.522543
0.295200	-2.447239
0.295300	-2.372261
0.295400	-2.382323
0.295500	-2.360900
0.295600	-2.347268
0.295700	-2.349540
0.295800	-2.377454
0.295900	-2.309616
0.296000	-2.335583
0.296100	-2.243401
0.296200	-2.295010
0.296300	-2.237559
0.296400	-2.291764
0.296500	-2.297282
0.296600	-2.148947
0.296700	-2.076565
0.296800	-1.732508
0.296900	-1.806512
0.297000	-2.063907
0.297100	-2.276184
0.297200	-2.197310
0.297300	-1.995420
0.297400	-1.749710
0.297500	-1.699076
0.297600	-1.788011
0.297700	-1.939916
0.297800	-1.955496
0.297900	-1.874026
0.298000	-1.718875
0.298100	-1.621176
0.298200	-1.562426
0.298300	-1.671486
0.298400	-1.627667
0.298500	-1.666293
0.298600	-1.588393
0.298700	-1.563400
0.298800	-1.532889
0.298900	-1.512765
0.299000	-1.515362
0.299100	-1.593911
0.299200	-1.549768
0.299300	-1.624746
0.299400	-1.614035
0.299500	-1.612737
0.299600	-1.558856
0.299700	-1.502378
0.299800	-1.571839
0.299900	-1.874026
0.300000	-1.953224
0.300100	-1.848059
0.300200	-1.678627
0.300300	-1.560154
0.300400	-1.704918
0.300500	-1.928231
0.300600	-2.069100
0.300700	-1.998341
0.300800	-1.801644
0.300900	-1.674732
0.301000	-1.706541
0.301100	-1.847085
0.301200	-1.891553
0.301300	-1.870455
0.301400	-1.862016
0.301500	-1.827286
0.301600	-1.872403
0.301700	-1.926933
0.301800	-1.961014
0.301900	-1.951276
0.302000	-1.940241
0.302100	-1.961663
0.302200	-1.985358
0.302300	-1.965558
0.302400	-1.925310
0.302500	-1.885711
0.302600	-1.885711
0.302700	-2.026904
0.302800	-2.051897
0.302900	-2.051572
0.303000	-1.979515
0.303100	-1.926608
0.303200	-1.986980
0.303300	-1.973673
0.303400	-1.974646
0.303500	-1.956470
0.303600	-1.971400
0.303700	-1.970427
0.303800	-1.981138
0.303900	-1.996069
0.304000	-1.976918
0.304100	-1.998665
0.304200	-1.993148
0.304300	-1.991200
0.304400	-1.997043
0.304500	-2.054818
0.304600	-2.048976
0.304700	-2.113568
0.304800	-2.104479
0.304900	-2.163554
0.305000	-2.257358
0.305100	-2.546887
0.305200	-2.645560
0.305300	-2.557598
0.305400	-2.338829
0.305500	-2.315134
0.305600	-2.558247
0.305700	-2.841609
0.305800	-2.976636
0.305900	-2.975013
0.306000	-2.800062
0.306100	-2.732224
0.306200	-2.838363
0.306300	-3.028569
0.306400	-3.185992
0.306500	-3.200274
0.306600	-3.165544
0.306700	-3.157754
0.306800	-3.151911
0.306900	-3.161324
0.307000	-3.213258
0.307100	-3.239224
0.307200	-3.297974
0.307300	-3.313554
0.307400	-3.357049
0.307500	-3.408982
0.307600	-3.466109
0.307700	-3.456371
0.307800	-3.497594
0.307900	-3.541737
0.308000	-3.569652
0.308100	-3.487207
0.308200	-3.385612
0.308300	-3.307063
0.308400	-3.401517
0.308500	-3.618989
0.308600	-3.751744
0.308700	-3.703056
0.308800	-3.473899
0.308900	-3.363540
0.309000	-3.442739
0.309100	-3.658913
0.309200	-3.815687
0.309300	-3.833540
0.309400	-3.720908
0.309500	-3.641385
0.309600	-3.635542
0.309700	-3.680984
0.309800	-3.670598
0.309900	-3.671247
0.310000	-3.659562
0.310100	-3.639437
0.310200	-3.606330
0.310300	-3.569652
0.310400	-3.479417
0.310500	-3.351206
0.310600	-3.275902
0.310700	-3.276876
0.310800	-3.232408
0.310900	-3.202871
0.311000	-3.037333
0.311100	-2.948072
0.311200	-2.778315
0.311300	-2.717293
0.311400	-2.684185
0.311500	-2.620567
0.311600	-2.548834
0.311700	-2.476776
0.311800	-2.328117
0.311900	-2.242103
0.312000	-2.181730
0.312100	-2.162904
0.312200	-2.154465
0.312300	-2.131420
0.312400	-2.189196
0.312500	-2.138236
0.312600	-2.153167
0.312700	-2.094742
0.312800	-2.091172
0.312900	-2.102857
0.313000	-2.063907
0.313100	-2.143105
0.313200	-2.011324
0.313300	-2.065530
0.313400	-1.774703
0.313500	-1.650064
0.313600	-1.684794
0.313700	-2.072021
0.313800	-2.048327
0.313900	-2.087926
0.314000	-1.678302
0.314100	-1.626694
0.314200	-1.566646
0.314300	-1.721472
0.314400	-1.832804
0.314500	-1.759448
0.314600	-1.690312
0.314700	-1.504651
0.314800	-1.465051
0.314900	-1.479658
0.315000	-1.568918
0.315100	-1.508870
0.315200	-1.538083
0.315300	-1.482904
0.315400	-1.484202
0.315500	-1.476087
0.315600	-1.409872
0.315700	-1.435514
0.315800	-1.517634
0.315900	-1.520880
0.316000	-1.542627
0.316100	-1.569242
0.316200	-1.558531
0.316300	-1.523801
0.316400	-1.442980
0.316500	-1.624746
0.316600	-1.897396
0.316700	-1.901940
0.316800	-1.783467
0.316900	-1.559830
0.317000	-1.566321
0.317100	-1.694856
0.317200	-1.985682
0.317300	-1.990551
0.317400	-1.852603
0.317500	-1.682846
0.317600	-1.638703
0.317700	-1.736727
0.317800	-1.846761
0.317900	-1.861367
0.318000	-1.878245
0.318100	-1.797749
0.318200	-1.837672
0.318300	-1.886684
0.318400	-1.923038
0.318500	-1.918818
0.318600	-1.876622
0.318700	-1.913625
0.318800	-1.931477
0.318900	-1.935696
0.319000	-1.929854
0.319100	-1.886035
0.319200	-1.841892
0.319300	-1.938293
0.319400	-2.048002
0.319500	-2.068126
0.319600	-2.082408
0.319700	-2.077864
0.319800	-2.028202
0.319900	-2.050599
0.320000	-2.018465
0.320100	-2.008727
0.320200	-2.010026
0.320300	-2.017167
0.320400	-2.024307
0.320500	-1.997692
0.320600	-1.997043
0.320700	-2.037291
0.320800	-2.019114
0.320900	-2.039887
0.321000	-2.030475
0.321100	-2.029501
0.321200	-2.050274
0.321300	-2.057415
0.321400	-2.064880
0.321500	-2.090522
0.321600	-2.147324
0.321700	-2.345320
0.321800	-2.633550
0.321900	-2.615049
0.322000	-2.469960
0.322100	-2.229119
0.322200	-2.312537
0.322300	-2.527087
0.322400	-2.822783
0.322500	-2.926325
0.322600	-2.853294
0.322700	-2.691002
0.322800	-2.699441
0.322900	-2.859785
0.323000	-3.012989
0.323100	-3.093161
0.323200	-3.110040
0.323300	-3.006497
0.323400	-3.011691
0.323500	-3.051615
0.323600	-3.117505
0.323700	-3.176580
0.323800	-3.181448
0.323900	-3.222346
0.324000	-3.257726
0.324100	-3.301220
0.324200	-3.332056
0.324300	-3.396972
0.324400	-3.358347
0.324500	-3.382042
0.324600	-3.419044
0.324700	-3.474548
0.324800	-3.360944
0.324900	-3.252208
0.325000	-3.250585
0.325100	-3.387884
0.325200	-3.564783
0.325300	-3.674493
0.325400	-3.563160
0.325500	-3.341144
0.325600	-3.284342
0.325700	-3.493699
0.325800	-3.695915
0.325900	-3.851392
0.326000	-3.790045
0.326100	-3.677739
0.326200	-3.608602
0.326300	-3.595943
0.326400	-3.674817
0.326500	-3.700784
0.326600	-3.667676
0.326700	-3.639113
0.326800	-3.594969
0.326900	-3.602759
0.327000	-3.548878
0.327100	-3.456371
0.327200	-3.330757
0.327300	-3.251883
0.327400	-3.245716
0.327500	-3.227539
0.327600	-3.173983
0.327700	-2.999356
0.327800	-2.899709
0.327900	-2.653025
0.328000	-2.678668
0.328100	-2.625111
0.328200	-2.568309
0.328300	-2.497874
0.328400	-2.393683
0.328500	-2.267420
0.328600	-2.210294
0.328700	-2.200232
0.328800	-2.202179
0.328900	-2.175888
0.329000	-2.143754
0.329100	-2.161606
0.329200	-2.096040
0.329300	-2.131744
0.329400	-2.036317
0.329500	-2.094093
0.329600	-1.972699
0.329700	-2.118761
0.329800	-2.064556
0.329900	-2.039563
0.330000	-1.882140
0.330100	-1.551715
0.330200	-1.555285
0.330300	-1.677004
0.330400	-2.046379
0.330500	-1.962961
0.330600	-1.816899
0.330700	-1.590016
0.330800	-1.420584
0.330900	-1.612412
0.331000	-1.720498
0.331100	-1.832479
0.331200	-1.742570
0.331300	-1.529643
0.331400	-1.481605
0.331500	-1.325481
0.331600	-1.463429
0.331700	-1.485176
0.331800	-1.541978
0.331900	-1.461806
0.332000	-1.449472
0.332100	-1.402083
0.332200	-1.417338
0.332300	-1.397538
0.332400	-1.366054
0.332500	-1.503677
0.332600	-1.445577
0.332700	-1.581577
0.332800	-1.573137
0.332900	-1.541978
0.333000	-1.465051
0.333100	-1.410522
0.333200	-1.692908
0.333300	-1.852279
0.333400	-1.837997
0.333500	-1.738350
0.333600	-1.528020
0.333700	-1.652336
0.333800	-1.836374
0.333900	-2.054494
0.334000	-1.999315
0.334100	-1.833453
0.334200	-1.708813
0.334300	-1.736403
0.334400	-1.860718
0.334500	-1.967505
0.334600	-1.935047
0.334700	-1.975945
0.334800	-1.897071
0.334900	-1.963286
0.335000	-2.007429
0.335100	-2.076890
0.335200	-2.044756
0.335300	-2.009052
0.335400	-2.038914
0.335500	-2.067802
0.335600	-2.061959
0.335700	-2.060661
0.335800	-2.053845
0.335900	-2.028527
0.336000	-2.131420
0.336100	-2.216461
0.336200	-2.253788
0.336300	-2.229119
0.336400	-2.114217
0.336500	-2.182704
0.336600	-2.145702
0.336700	-2.147974
0.336800	-2.143754
0.336900	-2.123630
0.337000	-2.121358
0.337100	-2.107725
0.337200	-2.125902
0.337300	-2.114866
0.337400	-2.131420
0.337500	-2.144079
0.337600	-2.140508
0.337700	-2.157062
0.337800	-2.143429
0.337900	-2.187248
0.338000	-2.188222
0.338100	-2.259306
0.338200	-2.311888
0.338300	-2.409588
0.338400	-2.628032
0.338500	-2.790649
0.338600	-2.737417
0.338700	-2.561168
0.338800	-2.420948
0.338900	-2.561493
0.339000	-2.841609
0.339100	-3.043175
0.339200	-3.090565
0.339300	-2.962029
0.339400	-2.835766
0.339500	-2.891595
0.339600	-3.060703
0.339700	-3.286289
0.339800	-3.316475
0.339900	-3.340495
0.340000	-3.276552
0.340100	-3.238575
0.340200	-3.310958
0.340300	-3.377497
0.340400	-3.433326
0.340500	-3.438519
0.340600	-3.406710
0.340700	-3.520639
0.340800	-3.598540
0.340900	-3.617366
0.341000	-3.631323
0.341100	-3.624831
0.341200	-3.692020
0.341300	-3.733567
0.341400	-3.743629
0.341500	-3.555370
0.341600	-3.501164
0.341700	-3.547580
0.341800	-3.732269
0.341900	-3.915984
0.342000	-3.931240
0.342100	-3.743305
0.342200	-3.574845
0.342300	-3.573871
0.342400	-3.781281
0.342500	-3.978954
0.342600	-4.040950
0.342700	-3.941627
0.342800	-3.811143
0.342900	-3.768298
0.343000	-3.799133
0.343100	-3.847821
0.343200	-3.878981
0.343300	-3.851392
0.343400	-3.816986
0.343500	-3.763429
0.343600	-3.721882
0.343700	-3.691371
0.343800	-3.549527
0.343900	-3.478443
0.344000	-3.402490
0.344100	-3.378471
0.344200	-3.380094
0.344300	-3.246365
0.344400	-3.069142
0.344500	-2.861733
0.344600	-2.685484
0.344700	-2.734171
0.344800	-2.668605
0.344900	-2.605636
0.345000	-2.504366
0.345100	-2.337530
0.345200	-2.229769
0.345300	-2.142780
0.345400	-2.178160
0.345500	-2.125253
0.345600	-2.122332
0.345700	-2.129797
0.345800	-2.118112
0.345900	-2.109673
0.346000	-2.046055
0.346100	-2.072021
0.346200	-1.983410
0.346300	-2.065530
0.346400	-1.996718
0.346500	-2.045405
0.346600	-1.975295
0.346700	-1.830532
0.346800	-1.519906
0.346900	-1.563075
0.347000	-1.863639
0.347100	-2.057415
0.347200	-1.890579
0.347300	-1.831505
0.347400	-1.454016
0.347500	-1.508221
0.347600	-1.531591
0.347700	-1.756851
0.347800	-1.794178
0.347900	-1.621825
0.348000	-1.495887
0.348100	-1.308927
0.348200	-1.422207
0.348300	-1.407276
0.348400	-1.567295
0.348500	-1.499782
0.348600	-1.419935
0.348700	-1.429997
0.348800	-1.427400
0.348900	-1.450770
0.349000	-1.460183
0.349100	-1.512441
0.349200	-1.562102
0.349300	-1.538407
0.349400	-1.640975
0.349500	-1.555610
0.349600	-1.537758
0.349700	-1.437787
0.349800	-1.548469
0.349900	-1.800994
0.350000	-1.902913
0.350100	-1.844813
0.350200	-1.638379
0.350300	-1.504326
0.350400	-1.603648
0.350500	-1.869806
0.350600	-1.982436
0.350700	-1.910703
0.350800	-1.719200
0.350900	-1.588393
0.351000	-1.599104
0.351100	-1.732183
0.351200	-1.810083
0.351300	-1.808135
0.351400	-1.775352
0.351500	-1.696803
0.351600	-1.761071
0.351700	-1.805214
0.351800	-1.849033
0.351900	-1.819820
0.352000	-1.789959
0.352100	-1.791257
0.352200	-1.810407
0.352300	-1.796775
0.352400	-1.775028
0.352500	-1.730560
0.352600	-1.730885
0.352700	-1.872078
0.352800	-1.933749
0.352900	-1.953548
0.353000	-1.919143
0.353100	-1.801319
0.353200	-1.869806
0.353300	-1.847734
0.353400	-1.858770
0.353500	-1.838646
0.353600	-1.843190
0.353700	-1.856174
0.353800	-1.853252
0.353900	-1.843839
0.354000	-1.851954
0.354100	-1.832479
0.354200	-1.854551
0.354300	-1.871754
0.354400	-1.873701
0.354500	-1.904536
0.354600	-1.850980
0.354700	-1.938618
0.354800	-1.916871
0.354900	-2.014245
0.355000	-2.144079
0.355100	-2.425168
0.355200	-2.530333
0.355300	-2.403745
0.355400	-2.290466
0.355500	-2.159659
0.355600	-2.391736
0.355700	-2.708205
0.355800	-2.913666
0.355900	-2.850372
0.356000	-2.681589
0.356100	-2.579994
0.356200	-2.619593
0.356300	-2.874392
0.356400	-2.990593
0.356500	-3.062650
0.356600	-3.012989
0.356700	-2.938335
0.356800	-2.919833
0.356900	-2.963652
0.357000	-3.036684
0.357100	-3.084398
0.357200	-3.066221
0.357300	-3.091214
0.357400	-3.173658
0.357500	-3.220398
0.357600	-3.214231
0.357700	-3.208389
0.357800	-3.238251
0.357900	-3.293755
0.358000	-3.334003
0.358100	-3.262270
0.358200	-3.121076
0.358300	-3.074335
0.358400	-3.191186
0.358500	-3.408333
0.358600	-3.576468
0.358700	-3.530701
0.358800	-3.315177
0.358900	-3.203195
0.359000	-3.266165
0.359100	-3.451503
0.359200	-3.639437
0.359300	-3.690722
0.359400	-3.590101
0.359500	-3.482987
0.359600	-3.407359
0.359700	-3.445336
0.359800	-3.489155
0.359900	-3.515121
0.360000	-3.510253
0.360100	-3.493374
0.360200	-3.440142
0.360300	-3.383015
0.360400	-3.275578
0.360500	-3.170737
0.360600	-3.091863
0.360700	-3.074985
0.360800	-3.083099
0.360900	-3.062975
0.361000	-2.919509
0.361100	-2.790649
0.361200	-2.752023
0.361300	-2.562791
0.361400	-2.570906
0.361500	-2.528061
0.361600	-2.454705
0.361700	-2.369339
0.361800	-2.246647
0.361900	-2.147649
0.362000	-2.086303
0.362100	-2.079162
0.362200	-2.045730
0.362300	-2.030475
0.362400	-2.068451
0.362500	-2.053195
0.362600	-1.986007
0.362700	-1.974322
0.362800	-1.946408
0.362900	-1.952575
0.363000	-2.046704
0.363100	-2.018140
0.363200	-2.028852
0.363300	-1.886035
0.363400	-1.649739
0.363500	-1.412145
0.363600	-1.516011
0.363700	-1.890904
0.363800	-1.982436
0.363900	-1.924985
0.364000	-1.666617
0.364100	-1.414741
0.364200	-1.464078
0.364300	-1.578980
0.364400	-1.813004
0.364500	-1.761071
0.364600	-1.641949
0.364700	-1.462779
0.364800	-1.338789
0.364900	-1.434865
0.365000	-1.361834
0.365100	-1.477710
0.365200	-1.429997
0.365300	-1.416364
0.365400	-1.396565
0.365500	-1.370598
0.365600	-1.343333
0.365700	-1.344307
0.365800	-1.404679
0.365900	-1.522503
0.366000	-1.499133
0.366100	-1.565347
0.366200	-1.463104
0.366300	-1.438111
0.366400	-1.349176
0.366500	-1.550092
0.366600	-1.763667
0.366700	-1.779897
0.366800	-1.678627
0.366900	-1.428049
0.367000	-1.429997
0.367100	-1.544899
0.367200	-1.823715
0.367300	-1.853577
0.367400	-1.739648
0.367500	-1.538083
0.367600	-1.463104
0.367700	-1.536784
0.367800	-1.687391
0.367900	-1.704269
0.368000	-1.733157
0.368100	-1.684145
0.368200	-1.709138
0.368300	-1.763018
0.368400	-1.777625
0.368500	-1.807486
0.368600	-1.773405
0.368700	-1.807162
0.368800	-1.818847
0.368900	-1.863964
0.369000	-1.826312
0.369100	-1.817873
0.369200	-1.757176
0.369300	-1.825987
0.369400	-1.940241
0.369500	-1.984384
0.369600	-1.964909
0.369700	-1.824040
0.369800	-1.875324
0.369900	-1.885061
0.370000	-1.865911
0.370100	-1.862990
0.370200	-1.857796
0.370300	-1.878894
0.370400	-1.903563
0.370500	-1.913949
0.370600	-1.881816
0.370700	-1.899343
0.370800	-1.901940
0.370900	-1.924985
0.371000	-1.904212
0.371100	-1.959715
0.371200	-1.927906
0.371300	-1.993148
0.371400	-1.980813
0.371500	-2.048327
0.371600	-2.125253
0.371700	-2.340776
0.371800	-2.579669
0.371900	-2.636796
0.372000	-2.456003
0.372100	-2.238857
0.372200	-2.264824
0.372300	-2.580643
0.372400	-2.885752
0.372500	-3.011042
0.372600	-2.897437
0.372700	-2.707231
0.372800	-2.688730
0.372900	-2.799413
0.373000	-3.005524
0.373100	-3.087643
0.373200	-3.097381
0.373300	-3.074660
0.373400	-3.056159
0.373500	-3.096732
0.373600	-3.116856
0.373700	-3.140226
0.373800	-3.169763
0.373900	-3.181124
0.374000	-3.251883
0.374100	-3.331406
0.374200	-3.384314
0.374300	-3.339196
0.374400	-3.386586
0.374500	-3.359321
0.374600	-3.440791
0.374700	-3.431054
0.374800	-3.354452
0.374900	-3.196704
0.375000	-3.205468
0.375100	-3.372629
0.375200	-3.593022
0.375300	-3.716040
0.375400	-3.569002
0.375500	-3.364189
0.375600	-3.282069
0.375700	-3.383989
0.375800	-3.646578
0.375900	-3.787124
0.376000	-3.761482
0.376100	-3.648526
0.376200	-3.565757
0.376300	-3.560563
0.376400	-3.612821
0.376500	-3.660536
0.376600	-3.662158
0.376700	-3.620287
0.376800	-3.611523
0.376900	-3.598540
0.377000	-3.541088
0.377100	-3.417421
0.377200	-3.312580
0.377300	-3.269735
0.377400	-3.261296
0.377500	-3.265191
0.377600	-3.220398
0.377700	-3.036034
0.377800	-2.955862
0.377900	-2.853294
0.378000	-2.764358
0.378100	-2.705933
0.378200	-2.627059
0.378300	-2.556299
0.378400	-2.453731
0.378500	-2.309941
0.378600	-2.240480
0.378700	-2.240155
0.378800	-2.210294
0.378900	-2.233664
0.379000	-2.174914
0.379100	-2.267745
0.379200	-2.169721
0.379300	-2.227496
0.379400	-2.167773
0.379500	-2.155439
0.379600	-2.131095
0.379700	-2.138885
0.379800	-2.194064
0.379900	-2.101883
0.380000	-2.023334
0.380100	-1.636431
0.380200	-1.586445
0.380300	-1.755228
0.380400	-2.092794
0.380500	-2.075916
0.380600	-1.986007
0.380700	-1.585796
0.380800	-1.528020
0.380900	-1.528345
0.381000	-1.705567
0.381100	-1.795152
0.381200	-1.717901
0.381300	-1.580603
0.381400	-1.370598
0.381500	-1.429023
0.381600	-1.436813
0.381700	-1.517309
0.381800	-1.506273
0.381900	-1.492316
0.382000	-1.454665
0.382100	-1.424154
0.382200	-1.426426
0.382300	-1.372221
0.382400	-1.444278
0.382500	-1.383257
0.382600	-1.553663
0.382700	-1.510818
0.382800	-1.635457
0.382900	-1.527696
0.383000	-1.472192
0.383100	-1.473166
0.383200	-1.711734
0.383300	-1.938618
0.383400	-1.932126
0.383500	-1.788336
0.383600	-1.558856
0.383700	-1.668889
0.383800	-1.845462
0.383900	-2.069100
0.384000	-2.080460
0.384100	-1.905510
0.384200	-1.743219
0.384300	-1.698426
0.384400	-1.828584
0.384500	-1.956470
0.384600	-1.950627
0.384700	-1.960365
0.384800	-1.862341
0.384900	-1.911677
0.385000	-1.937968
0.385100	-1.985358
0.385200	-2.000938
0.385300	-1.931152
0.385400	-1.943162
0.385500	-1.972699
0.385600	-1.966856
0.385700	-1.945109
0.385800	-1.924336
0.385900	-1.892527
0.386000	-1.986007
0.386100	-2.076565
0.386200	-2.111296
0.386300	-2.078188
0.386400	-1.936346
0.386500	-2.039238
0.386600	-2.045405
0.386700	-2.000938
0.386800	-2.022685
0.386900	-2.020737
0.387000	-2.037291
0.387100	-2.032097
0.387200	-2.010026
0.387300	-2.021062
0.387400	-2.006455
0.387500	-2.017491
0.387600	-2.036642
0.387700	-2.024632
0.387800	-2.025930
0.387900	-2.043782
0.388000	-2.074942
0.388100	-2.073969
0.388200	-2.104479
0.388300	-2.164852
0.388400	-2.431659
0.388500	-2.582266
0.388600	-2.600118
0.388700	-2.424843
0.388800	-2.266122
0.388900	-2.363497
0.389000	-2.646534
0.389100	-2.921132
0.389200	-2.952941
0.389300	-2.845504
0.389400	-2.688730
0.389500	-2.756243
0.389600	-2.890621
0.389700	-3.079204
0.389800	-3.142823
0.389900	-3.058755
0.390000	-3.064273
0.390100	-3.015910
0.390200	-3.060703
0.390300	-3.120751
0.390400	-3.196055
0.390500	-3.215530
0.390600	-3.211959
0.390700	-3.252532
0.390800	-3.310958
0.390900	-3.381392
0.391000	-3.360944
0.391100	-3.393402
0.391200	-3.419369
0.391300	-3.487207
0.391400	-3.463512
0.391500	-3.340495
0.391600	-3.219100
0.391700	-3.316800
0.391800	-3.477145
0.391900	-3.719935
0.392000	-3.720259
0.392100	-3.556668
0.392200	-3.383015
0.392300	-3.369707
0.392400	-3.547255
0.392500	-3.769596
0.392600	-3.880280
0.392700	-3.804976
0.392800	-3.683906
0.392900	-3.638464
0.393000	-3.655018
0.393100	-3.723505
0.393200	-3.726751
0.393300	-3.714741
0.393400	-3.673519
0.393500	-3.633595
0.393600	-3.620287
0.393700	-3.543036
0.393800	-3.370681
0.393900	-3.292132
0.394000	-3.248637
0.394100	-3.235978
0.394200	-3.217153
0.394300	-3.115233
0.394400	-2.951643
0.394500	-2.900034
0.394600	-2.667632
0.394700	-2.689054
0.394800	-2.635173
0.394900	-2.564414
0.395000	-2.478075
0.395100	-2.340776
0.395200	-2.243076
0.395300	-2.195363
0.395400	-2.184327
0.395500	-2.174914
0.395600	-2.153167
0.395700	-2.173291
0.395800	-2.148623
0.395900	-2.160632
0.396000	-2.105778
0.396100	-2.138236
0.396200	-2.111620
0.396300	-2.088575
0.396400	-2.144728
0.396500	-2.060661
0.396600	-2.114542
0.396700	-1.814302
0.396800	-1.637405
0.396900	-1.490694
0.397000	-1.959391
0.397100	-2.042484
0.397200	-1.995420
0.397300	-1.832479
0.397400	-1.618254
0.397500	-1.457586
0.397600	-1.633185
0.397700	-1.774703
0.397800	-1.745815
0.397900	-1.650388
0.398000	-1.404679
0.398100	-1.351123
0.398200	-1.318340
0.398300	-1.380660
0.398400	-1.468622
0.398500	-1.453691
0.398600	-1.413767
0.398700	-1.375142
0.398800	-1.354044
0.398900	-1.358264
0.399000	-1.281987
0.399100	-1.364106
0.399200	-1.364756
0.399300	-1.466025
0.399400	-1.457586
0.399500	-1.521529
0.399600	-1.380985
0.399700	-1.387476
0.399800	-1.385204
0.399900	-1.751658
0.400000	-1.738999
0.400100	-1.727314
0.400200	-1.479333
0.400300	-1.372870
0.400400	-1.482254
0.400500	-1.698751
0.400600	-1.852279
0.400700	-1.745166
0.400800	-1.563400
0.400900	-1.433567
0.401000	-1.466999
0.401100	-1.619877
0.401200	-1.671811
0.401300	-1.644870
0.401400	-1.627018
0.401500	-1.595209
0.401600	-1.663047
0.401700	-1.689663
0.401800	-1.726990
0.401900	-1.715629
0.402000	-1.689013
0.402100	-1.710436
0.402200	-1.736727
0.402300	-1.741596
0.402400	-1.722770
0.402500	-1.694856
0.402600	-1.719524
0.402700	-1.848384
0.402800	-1.922064
0.402900	-1.943811
0.403000	-1.847085
0.403100	-1.798722
0.403200	-1.821768
0.403300	-1.830856
0.403400	-1.824040
0.403500	-1.819171
0.403600	-1.805214
0.403700	-1.823391
0.403800	-1.821119
0.403900	-1.829558
0.404000	-1.834751
0.404100	-1.849357
0.404200	-1.854551
0.404300	-1.831830
0.404400	-1.864937
0.404500	-1.865911
0.404600	-1.891878
0.404700	-1.903563
0.404800	-1.973023
0.404900	-1.976594
0.405000	-2.116814
0.405100	-2.385569
0.405200	-2.489760
0.405300	-2.368366
0.405400	-2.213539
0.405500	-2.145377
0.405600	-2.328442
0.405700	-2.641340
0.405800	-2.812721
0.405900	-2.827976
0.406000	-2.625760
0.406100	-2.572529
0.406200	-2.683212
0.406300	-2.864329
0.406400	-3.025972
0.406500	-3.007796
0.406600	-3.015261
0.406700	-2.927623
0.406800	-2.946774
0.406900	-3.039280
0.407000	-3.074011
0.407100	-3.105820
0.407200	-3.107768
0.407300	-3.120751
0.407400	-3.248313
0.407500	-3.251234
0.407600	-3.308361
0.407700	-3.284666
0.407800	-3.303817
0.407900	-3.397297
0.408000	-3.430729
0.408100	-3.408982
0.408200	-3.245391
0.408300	-3.161649
0.408400	-3.279797
0.408500	-3.445660
0.408600	-3.624507
0.408700	-3.560239
0.408800	-3.344714
0.408900	-3.212933
0.409000	-3.287263
0.409100	-3.499866
0.409200	-3.670922
0.409300	-3.689748
0.409400	-3.609576
0.409500	-3.501164
0.409600	-3.468381
0.409700	-3.490128
0.409800	-3.534272
0.409900	-3.555370
0.410000	-3.517069
0.410100	-3.507007
0.410200	-3.468381
0.410300	-3.430729
0.410400	-3.344714
0.410500	-3.221697
0.410600	-3.158078
0.410700	-3.131787
0.410800	-3.096083
0.410900	-3.091214
0.411000	-2.935413
0.411100	-2.812396
0.411200	-2.723135
0.411300	-2.552404
0.411400	-2.517025
0.411500	-2.507937
0.411600	-2.461846
0.411700	-2.339478
0.411800	-2.179458
0.411900	-2.155114
0.412000	-2.094093
0.412100	-2.109024
0.412200	-2.081759
0.412300	-2.049300
0.412400	-2.113568
0.412500	-2.029825
0.412600	-2.064880
0.412700	-1.984059
0.412800	-1.988279
0.412900	-2.008727
0.413000	-2.030799
0.413100	-2.029176
0.413200	-1.988279
0.413300	-1.872727
0.413400	-1.641300
0.413500	-1.409548
0.413600	-1.591963
0.413700	-1.832804
0.413800	-2.002560
0.413900	-1.871754
0.414000	-1.626044
0.414100	-1.369624
0.414200	-1.405328
0.414300	-1.430970
0.414400	-1.704918
0.414500	-1.646169
0.414600	-1.562426
0.414700	-1.357939
0.414800	-1.285557
0.414900	-1.303409
0.415000	-1.238818
0.415100	-1.375142
0.415200	-1.280364
0.415300	-1.270951
0.415400	-1.269328
0.415500	-1.243037
0.415600	-1.264460
0.415700	-1.234923
0.415800	-1.293023
0.415900	-1.322560
0.416000	-1.360861
0.416100	-1.373195
0.416200	-1.358588
0.416300	-1.282312
0.416400	-1.271276
0.416500	-1.404355
0.416600	-1.733481
0.416700	-1.701997
0.416800	-1.594235
0.416900	-1.381958
0.417000	-1.370923
0.417100	-1.498483
0.417200	-1.713357
0.417300	-1.785739
0.417400	-1.709462
0.417500	-1.484526
0.417600	-1.419285
0.417700	-1.475438
0.417800	-1.624746
0.417900	-1.646493
0.418000	-1.662722
0.418100	-1.611114
0.418200	-1.582875
0.418300	-1.623448
0.418400	-1.647467
0.418500	-1.656231
0.418600	-1.623123
0.418700	-1.643896
0.418800	-1.680250
0.418900	-1.684794
0.419000	-1.666617
0.419100	-1.659476
0.419200	-1.614684
0.419300	-1.659801
0.419400	-1.814627
0.419500	-1.850980
0.419600	-1.877271
0.419700	-1.855849
0.419800	-1.825338
0.419900	-1.837672
0.420000	-1.812679
0.420100	-1.834751
0.420200	-1.809758
0.420300	-1.813004
0.420400	-1.824040
0.420500	-1.841243
0.420600	-1.854551
0.420700	-1.850980
0.420800	-1.844164
0.420900	-1.868832
0.421000	-1.851305
0.421100	-1.894474
0.421200	-1.917844
0.421300	-1.910054
0.421400	-1.949329
0.421500	-1.990226
0.421600	-2.043133
0.421700	-2.241129
0.421800	-2.510209
0.421900	-2.566037
0.422000	-2.410561
0.422100	-2.200881
0.422200	-2.200881
0.422300	-2.511182
0.422400	-2.790324
0.422500	-2.922430
0.422600	-2.819212
0.422700	-2.673799
0.422800	-2.602390
0.422900	-2.739365
0.423000	-2.922105
0.423100	-3.064922
0.423200	-3.038956
0.423300	-2.998058
0.423400	-2.968196
0.423500	-2.956836
0.423600	-3.026622
0.423700	-3.054211
0.423800	-3.082125
0.423900	-3.086994
0.424000	-3.139252
0.424100	-3.227864
0.424200	-3.265840
0.424300	-3.246365
0.424400	-3.273955
0.424500	-3.313230
0.424600	-3.361268
0.424700	-3.394051
0.424800	-3.258699
0.424900	-3.179176
0.425000	-3.173334
0.425100	-3.319072
0.425200	-3.501164
0.425300	-3.575494
0.425400	-3.491427
0.425500	-3.324590
0.425600	-3.273955
0.425700	-3.402815
0.425800	-3.582310
0.425900	-3.734216
0.426000	-3.701433
0.426100	-3.607628
0.426200	-3.534272
0.426300	-3.522262
0.426400	-3.561212
0.426500	-3.583284
0.426600	-3.587828
0.426700	-3.554072
0.426800	-3.521288
0.426900	-3.510577
0.427000	-3.440467
0.427100	-3.352504
0.427200	-3.236628
0.427300	-3.177878
0.427400	-3.173009
0.427500	-3.151911
0.427600	-3.097381
0.427700	-2.891270
0.427800	-2.807852
0.427900	-2.562467
0.428000	-2.583564
0.428100	-2.538123
0.428200	-2.468337
0.428300	-2.381349
0.428400	-2.281053
0.428500	-2.152193
0.428600	-2.072021
0.428700	-2.059362
0.428800	-2.050923
0.428900	-2.056441
0.429000	-2.026255
0.429100	-2.090522
0.429200	-2.020737
0.429300	-2.031773
0.429400	-1.949329
0.429500	-1.959391
0.429600	-1.935047
0.429700	-1.939267
0.429800	-1.980164
0.429900	-1.925634
0.430000	-1.904861
0.430100	-1.503028
0.430200	-1.491992
0.430300	-1.571839
0.430400	-1.945434
0.430500	-1.857472
0.430600	-1.748737
0.430700	-1.488421
0.430800	-1.351123
0.430900	-1.460832
0.431000	-1.608192
0.431100	-1.762369
0.431200	-1.609166
0.431300	-1.396240
0.431400	-1.316393
0.431500	-1.217395
0.431600	-1.306006
0.431700	-1.305682
0.431800	-1.308603
0.431900	-1.320612
0.432000	-1.292698
0.432100	-1.263810
0.432200	-1.241414
0.432300	-1.222588
0.432400	-1.160269
0.432500	-1.270302
0.432600	-1.323858
0.432700	-1.355992
0.432800	-1.389099
0.432900	-1.252125
0.433000	-1.221939
0.433100	-1.212202
0.433200	-1.515037
0.433300	-1.647467
0.433400	-1.662073
0.433500	-1.509195
0.433600	-1.320612
0.433700	-1.373519
0.433800	-1.568593
0.433900	-1.801968
0.434000	-1.779572
0.434100	-1.650064
0.434200	-1.469920
0.434300	-1.445577
0.434400	-1.584498
0.434500	-1.711734
0.434600	-1.685443
0.434700	-1.693882
0.434800	-1.615333
0.434900	-1.694531
0.435000	-1.742894
0.435100	-1.781520
0.435200	-1.761720
0.435300	-1.718226
0.435400	-1.733481
0.435500	-1.786388
0.435600	-1.798722
0.435700	-1.777300
0.435800	-1.736078
0.435900	-1.722121
0.436000	-1.813978
0.436100	-1.931477
0.436200	-1.932126
0.436300	-1.932775
0.436400	-1.899018
0.436500	-1.871104
0.436600	-1.860393
0.436700	-1.848059
0.436800	-1.811057
0.436900	-1.799047
0.437000	-1.814627
0.437100	-1.791906
0.437200	-1.770808
0.437300	-1.763667
0.437400	-1.770808
0.437500	-1.764641
0.437600	-1.775028
0.437700	-1.787037
0.437800	-1.749710
0.437900	-1.782818
0.438000	-1.801968
0.438100	-1.863314
0.438200	-1.841567
0.438300	-1.970751
0.438400	-2.140508
0.438500	-2.391411
0.438600	-2.343697
0.438700	-2.192117
0.438800	-2.017491
0.438900	-2.144403
0.439000	-2.453731
0.439100	-2.740988
0.439200	-2.729627
0.439300	-2.580968
0.439400	-2.449511
0.439500	-2.447239
0.439600	-2.647507
0.439700	-2.824406
0.439800	-2.917886
0.439900	-2.874067
0.440000	-2.796816
0.440100	-2.785456
0.440200	-2.857189
0.440300	-2.901981
0.440400	-2.909447
0.440500	-2.913991
0.440600	-2.908798
0.440700	-3.010717
0.440800	-3.076608
0.440900	-3.125620
0.441000	-3.063300
0.441100	-3.086994
0.441200	-3.173983
0.441300	-3.200599
0.441400	-3.214880
0.441500	-3.066221
0.441600	-3.018182
0.441700	-3.048044
0.441800	-3.211310
0.441900	-3.420018
0.442000	-3.486233
0.442100	-3.306089
0.442200	-3.129839
0.442300	-3.111987
0.442400	-3.320695
0.442500	-3.509279
0.442600	-3.604382
0.442700	-3.523236
0.442800	-3.389507
0.442900	-3.318423
0.443000	-3.323292
0.443100	-3.422290
0.443200	-3.443388
0.443300	-3.406385
0.443400	-3.379445
0.443500	-3.339196
0.443600	-3.323292
0.443700	-3.286289
0.443800	-3.135033
0.443900	-3.028244
0.444000	-2.974688
0.444100	-2.952292
0.444200	-2.956511
0.444300	-2.841284
0.444400	-2.686782
0.444500	-2.612128
0.444600	-2.371936
0.444700	-2.378428
0.444800	-2.341750
0.444900	-2.250217
0.445000	-2.151219
0.445100	-2.030150
0.445200	-1.924661
0.445300	-1.856174
0.445400	-1.848708
0.445500	-1.796126
0.445600	-1.839620
0.445700	-1.793204
0.445800	-1.837023
0.445900	-1.756851
0.446000	-1.782169
0.446100	-1.713033
0.446200	-1.722121
0.446300	-1.742245
0.446400	-1.687066
0.446500	-1.770159
0.446600	-1.726990
0.446700	-1.530617
0.446800	-1.232975
0.446900	-1.218369
0.447000	-1.476087
0.447100	-1.650064
0.447200	-1.670512
0.447300	-1.411820
0.447400	-1.250827
0.447500	-1.121968
0.447600	-1.267381
0.447700	-1.343009
0.447800	-1.402732
0.447900	-1.235896
0.448000	-1.121968
0.448100	-0.960975
0.448200	-1.021348
0.448300	-1.043744
0.448400	-1.064842
0.448500	-1.082369
0.448600	-1.081071
0.448700	-1.039524
0.448800	-1.031734
0.448900	-1.029137
0.449000	-1.033032
0.449100	-1.058350
0.449200	-1.083343
0.449300	-1.115152
0.449400	-1.184937
0.449500	-1.176498
0.449600	-1.142741
0.449700	-1.059324
0.449800	-1.111257
0.449900	-1.311524
0.450000	-1.466025
0.450100	-1.421882
0.450200	-1.268030
0.450300	-1.072956
0.450400	-1.175199
0.450500	-1.390073
0.450600	-1.545548
0.450700	-1.471543
0.450800	-1.277767
0.450900	-1.151830
0.451000	-1.199868
0.451100	-1.312498
0.451200	-1.383257
0.451300	-1.375467
0.451400	-1.383581
0.451500	-1.333596
0.451600	-1.394617
0.451700	-1.418636
0.451800	-1.431295
0.451900	-1.416689
0.452000	-1.425777
0.452100	-1.451744
0.452200	-1.488097
0.452300	-1.474789
0.452400	-1.435190
0.452500	-1.426102
0.452600	-1.442331
0.452700	-1.567295
0.452800	-1.633185
0.452900	-1.632536
0.453000	-1.627667
0.453100	-1.554312
0.453200	-1.597806
0.453300	-1.574111
0.453400	-1.595858
0.453500	-1.597806
0.453600	-1.603324
0.453700	-1.600727
0.453800	-1.617930
0.453900	-1.592612
0.454000	-1.634159
0.454100	-1.639352
0.454200	-1.641949
0.454300	-1.622149
0.454400	-1.640651
0.454500	-1.634808
0.454600	-1.686741
0.454700	-1.645519
0.454800	-1.732832
0.454900	-1.761395
0.455000	-1.920766
0.455100	-2.170370
0.455200	-2.305721
0.455300	-2.203153
0.455400	-1.984059
0.455500	-1.991849
0.455600	-2.149921
0.455700	-2.456328
0.455800	-2.627059
0.455900	-2.612128
0.456000	-2.455354
0.456100	-2.385244
0.456200	-2.425492
0.456300	-2.666982
0.456400	-2.786754
0.456500	-2.845504
0.456600	-2.853294
0.456700	-2.827327
0.456800	-2.811747
0.456900	-2.857513
0.457000	-2.861408
0.457100	-2.931194
0.457200	-2.903280
0.457300	-2.972741
0.457400	-3.026297
0.457500	-3.024349
0.457600	-3.092837
0.457700	-3.078555
0.457800	-3.156780
0.457900	-3.147042
0.458000	-3.212608
0.458100	-3.145744
0.458200	-3.012664
0.458300	-2.966249
0.458400	-3.049342
0.458500	-3.265191
0.458600	-3.428457
0.458700	-3.418070
0.458800	-3.231759
0.458900	-3.108741
0.459000	-3.140875
0.459100	-3.370681
0.459200	-3.523236
0.459300	-3.538167
0.459400	-3.462539
0.459500	-3.362566
0.459600	-3.337573
0.459700	-3.335301
0.459800	-3.373278
0.459900	-3.382691
0.460000	-3.359321
0.460100	-3.331406
0.460200	-3.300571
0.460300	-3.261621
0.460400	-3.173983
0.460500	-3.052588
0.460600	-2.982478
0.460700	-2.947098
0.460800	-2.901007
0.460900	-2.915289
0.461000	-2.747804
0.461100	-2.649130
0.461200	-2.429387
0.461300	-2.327468
0.461400	-2.319029
0.461500	-2.263525
0.461600	-2.176212
0.461700	-2.104479
0.461800	-1.935047
0.461900	-1.867534
0.462000	-1.806837
0.462100	-1.802942
0.462200	-1.756202
0.462300	-1.791582
0.462400	-1.783142
0.462500	-1.797749
0.462600	-1.779897
0.462700	-1.740298
0.462800	-1.775352
0.462900	-1.673433
0.463000	-1.799696
0.463100	-1.793529
0.463200	-1.800021
0.463300	-1.662073
0.463400	-1.479009
0.463500	-1.214149
0.463600	-1.318989
0.463700	-1.627018
0.463800	-1.623123
0.463900	-1.649739
0.464000	-1.303085
0.464100	-1.225834
0.464200	-1.221290
0.464300	-1.363133
0.464400	-1.442980
0.464500	-1.469920
0.464600	-1.313472
0.464700	-1.150856
0.464800	-1.115476
0.464900	-1.164164
0.465000	-1.209281
0.465100	-1.219992
0.465200	-1.196297
0.465300	-1.137548
0.465400	-1.148259
0.465500	-1.145013
0.465600	-1.174875
0.465700	-1.147610
0.465800	-1.235896
0.465900	-1.231677
0.466000	-1.298865
0.466100	-1.308927
0.466200	-1.268679
0.466300	-1.220641
0.466400	-1.149233
0.466500	-1.291075
0.466600	-1.533538
0.466700	-1.583200
0.466800	-1.482579
0.466900	-1.313147
0.467000	-1.232001
0.467100	-1.418961
0.467200	-1.622799
0.467300	-1.675056
0.467400	-1.565672
0.467500	-1.377414
0.467600	-1.310550
0.467700	-1.408899
0.467800	-1.534512
0.467900	-1.543925
0.468000	-1.538407
0.468100	-1.496536
0.468200	-1.528020
0.468300	-1.579954
0.468400	-1.624097
0.468500	-1.591639
0.468600	-1.548794
0.468700	-1.543276
0.468800	-1.590989
0.468900	-1.618254
0.469000	-1.592612
0.469100	-1.580927
0.469200	-1.555285
0.469300	-1.611438
0.469400	-1.729911
0.469500	-1.769835
0.469600	-1.800021
0.469700	-1.798073
0.469800	-1.742894
0.469900	-1.786388
0.470000	-1.753605
0.470100	-1.773080
0.470200	-1.773730
0.470300	-1.792880
0.470400	-1.778274
0.470500	-1.791582
0.470600	-1.794178
0.470700	-1.810732
0.470800	-1.804565
0.470900	-1.828584
0.471000	-1.840918
0.471100	-1.885386
0.471200	-1.858446
0.471300	-1.924985
0.471400	-1.901940
0.471500	-1.975295
0.471600	-1.997043
0.471700	-2.226523
0.471800	-2.437502
0.471900	-2.515727
0.472000	-2.333311
0.472100	-2.157062
0.472200	-2.144403
0.472300	-2.418027
0.472400	-2.680615
0.472500	-2.827976
0.472600	-2.702038
0.472700	-2.564089
0.472800	-2.513130
0.472900	-2.645885
0.473000	-2.839012
0.473100	-2.962354
0.473200	-2.942879
0.473300	-2.904253
0.473400	-2.870172
0.473500	-2.888349
0.473600	-2.995137
0.473700	-3.031490
0.473800	-3.057457
0.473900	-3.053887
0.474000	-3.098355
0.474100	-3.183071
0.474200	-3.249611
0.474300	-3.307712
0.474400	-3.239224
0.474500	-3.279473
0.474600	-3.346662
0.474700	-3.391130
0.474800	-3.309010
0.474900	-3.205468
0.475000	-3.199300
0.475100	-3.288886
0.475200	-3.480715
0.475300	-3.630998
0.475400	-3.507331
0.475500	-3.303492
0.475600	-3.249286
0.475700	-3.352504
0.475800	-3.560239
0.475900	-3.692994
0.476000	-3.674817
0.476100	-3.546282
0.476200	-3.447608
0.476300	-3.453450
0.476400	-3.483961
0.476500	-3.512525
0.476600	-3.526482
0.476700	-3.487856
0.476800	-3.460267
0.476900	-3.422939
0.477000	-3.375874
0.477100	-3.301545
0.477200	-3.173334
0.477300	-3.121076
0.477400	-3.086994
0.477500	-3.056159
0.477600	-3.029218
0.477700	-2.839986
0.477800	-2.746830
0.477900	-2.486514
0.478000	-2.491383
0.478100	-2.494304
0.478200	-2.428738
0.478300	-2.341101
0.478400	-2.234313
0.478500	-2.090198
0.478600	-2.056766
0.478700	-2.005482
0.478800	-2.036317
0.478900	-1.980813
0.479000	-1.981787
0.479100	-1.964909
0.479200	-1.944785
0.479300	-1.940241
0.479400	-1.906484
0.479500	-1.910379
0.479600	-1.906159
0.479700	-1.938942
0.479800	-1.947381
0.479900	-1.874026
0.480000	-1.769835
0.480100	-1.495238
0.480200	-1.344631
0.480300	-1.553013
0.480400	-1.834751
0.480500	-1.799372
0.480600	-1.671811
0.480700	-1.494264
0.480800	-1.294970
0.480900	-1.381958
0.481000	-1.525424
0.481100	-1.632861
0.481200	-1.571190
0.481300	-1.398837
0.481400	-1.282636
0.481500	-1.175524
0.481600	-1.376765
0.481700	-1.307954
0.481800	-1.423180
0.481900	-1.344307
0.482000	-1.355343
0.482100	-1.319314
0.482200	-1.312173
0.482300	-1.293672
0.482400	-1.316393
0.482500	-1.361834
0.482600	-1.384880
0.482700	-1.425128
0.482800	-1.447849
0.482900	-1.426751
0.483000	-1.349176
0.483100	-1.350474
0.483200	-1.556259
0.483300	-1.738025
0.483400	-1.756851
0.483500	-1.640326
0.483600	-1.403381
0.483700	-1.474464
0.483800	-1.645195
0.483900	-1.854551
0.484000	-1.865586
0.484100	-1.730560
0.484200	-1.539381
0.484300	-1.512441
0.484400	-1.610140
0.484500	-1.696479
0.484600	-1.680250
0.484700	-1.676679
0.484800	-1.609166
0.484900	-1.657204
0.485000	-1.696154
0.485100	-1.751009
0.485200	-1.731858
0.485300	-1.710111
0.485400	-1.710760
0.485500	-1.734130
0.485600	-1.756202
0.485700	-1.720498
0.485800	-1.695830
0.485900	-1.684145
0.486000	-1.781520
0.486100	-1.895448
0.486200	-1.908431
0.486300	-1.908107
0.486400	-1.796775
0.486500	-1.849357
0.486600	-1.864288
0.486700	-1.830856
0.486800	-1.845787
0.486900	-1.835725
0.487000	-1.827286
0.487100	-1.825014
0.487200	-1.811057
0.487300	-1.842866
0.487400	-1.828909
0.487500	-1.844164
0.487600	-1.850006
0.487700	-1.875324
0.487800	-1.878245
0.487900	-1.876622
0.488000	-1.918493
0.488100	-1.958742
0.488200	-2.023009
0.488300	-2.074618
0.488400	-2.316108
0.488500	-2.558572
0.488600	-2.503392
0.488700	-2.365444
0.488800	-2.194714
0.488900	-2.278781
0.489000	-2.573178
0.489100	-2.848425
0.489200	-2.912043
0.489300	-2.776692
0.489400	-2.641016
0.489500	-2.631603
0.489600	-2.861408
0.489700	-2.976960
0.489800	-3.086994
0.489900	-3.027595
0.490000	-3.012989
0.490100	-2.974039
0.490200	-3.021428
0.490300	-3.079529
0.490400	-3.095109
0.490500	-3.081801
0.490600	-3.137629
0.490700	-3.193458
0.490800	-3.235978
0.490900	-3.272332
0.491000	-3.247664
0.491100	-3.275578
0.491200	-3.301220
0.491300	-3.361593
0.491400	-3.344065
0.491500	-3.219100
0.491600	-3.088942
0.491700	-3.167816
0.491800	-3.345363
0.491900	-3.523561
0.492000	-3.558616
0.492100	-3.395999
0.492200	-3.224618
0.492300	-3.218775
0.492400	-3.367111
0.492500	-3.564134
0.492600	-3.671571
0.492700	-3.601786
0.492800	-3.503761
0.492900	-3.417097
0.493000	-3.450854
0.493100	-3.535895
0.493200	-3.530701
0.493300	-3.504410
0.493400	-3.468381
0.493500	-3.457021
0.493600	-3.453775
0.493700	-3.349908
0.493800	-3.218126
0.493900	-3.100951
0.494000	-3.056808
0.494100	-3.059729
0.494200	-3.060703
0.494300	-2.993189
0.494400	-2.777990
0.494500	-2.706906
0.494600	-2.511507
0.494700	-2.524490
0.494800	-2.480347
0.494900	-2.367716
0.495000	-2.264499
0.495100	-2.179783
0.495200	-2.051572
0.495300	-1.990551
0.495400	-1.964260
0.495500	-1.958093
0.495600	-1.926283
0.495700	-1.968479
0.495800	-1.922713
0.495900	-1.920766
0.496000	-1.858446
0.496100	-1.868508
0.496200	-1.813653
0.496300	-1.858121
0.496400	-1.899343
0.496500	-1.858446
0.496600	-1.890255
0.496700	-1.584822
0.496800	-1.397214
0.496900	-1.308603
0.497000	-1.676030
0.497100	-1.824364
0.497200	-1.861367
0.497300	-1.628966
0.497400	-1.347228
0.497500	-1.221939
0.497600	-1.371896
0.497700	-1.514063
0.497800	-1.636106
0.497900	-1.514713
0.498000	-1.312498
0.498100	-1.266407
0.498200	-1.229080
0.498300	-1.331648
0.498400	-1.270302
0.498500	-1.356966
0.498600	-1.258942
0.498700	-1.273223
0.498800	-1.235572
0.498900	-1.275820
0.499000	-1.247581
0.499100	-1.222264
0.499200	-1.304383
0.499300	-1.341710
0.499400	-1.390073
0.499500	-1.379037
0.499600	-1.327429
0.499700	-1.261863
0.499800	-1.322560
0.499900	-1.590340
0.500000	-1.718550
0.500100	-1.675706
0.500200	-1.501405
0.500300	-1.308278
0.500400	-1.436164
0.500500	-1.624746
0.500600	-1.841892
0.500700	-1.758799
0.500800	-1.572488
0.500900	-1.406951
0.501000	-1.412145
0.501100	-1.580603
0.501200	-1.664021
0.501300	-1.666942
0.501400	-1.646169
0.501500	-1.545223
0.501600	-1.623772
0.501700	-1.685768
0.501800	-1.754255
0.501900	-1.734455
0.502000	-1.692259
0.502100	-1.698102
0.502200	-1.714006
0.502300	-1.740622
0.502400	-1.705892
0.502500	-1.674083
0.502600	-1.677328
0.502700	-1.822417
0.502800	-1.912002
0.502900	-1.904212
0.503000	-1.809434
0.503100	-1.760097
0.503200	-1.828584
0.503300	-1.831830
0.503400	-1.808135
0.503500	-1.808135
0.503600	-1.823066
0.503700	-1.814952
0.503800	-1.828584
0.503900	-1.815601
0.504000	-1.814627
0.504100	-1.813004
0.504200	-1.839620
0.504300	-1.855200
0.504400	-1.875973
0.504500	-1.893501
0.504600	-1.890579
0.504700	-1.913625
0.504800	-1.913625
0.504900	-1.988603
0.505000	-2.111620
0.505100	-2.399850
0.505200	-2.536824
0.505300	-2.443020
0.505400	-2.243076
0.505500	-2.081434
0.505600	-2.344346
0.505700	-2.659192
0.505800	-2.896139
0.505900	-2.889972
0.506000	-2.708854
0.506100	-2.614400
0.506200	-2.655297
0.506300	-2.910420
0.506400	-3.068493
0.506500	-3.137954
0.506600	-3.159701
0.506700	-3.056808
0.506800	-3.082125
0.506900	-3.112312
0.507000	-3.180475
0.507100	-3.194756
0.507200	-3.226241
0.507300	-3.269735
0.507400	-3.323616
0.507500	-3.374576
0.507600	-3.406710
0.507700	-3.410280
0.507800	-3.423588
0.507900	-3.493699
0.508000	-3.516095
0.508100	-3.500840
0.508200	-3.334328
0.508300	-3.291482
0.508400	-3.363216
0.508500	-3.554072
0.508600	-3.740059
0.508700	-3.699161
0.508800	-3.512849
0.508900	-3.371979
0.509000	-3.423588
0.509100	-3.629375
0.509200	-3.841005
0.509300	-3.915984
0.509400	-3.817959
0.509500	-3.686827
0.509600	-3.638139
0.509700	-3.655342
0.509800	-3.724154
0.509900	-3.738436
0.510000	-3.700135
0.510100	-3.680011
0.510200	-3.615743
0.510300	-3.583609
0.510400	-3.464486
0.510500	-3.341468
0.510600	-3.282719
0.510700	-3.272981
0.510800	-3.223969
0.510900	-3.211635
0.511000	-3.060378
0.511100	-2.920483
0.511200	-2.853943
0.511300	-2.638419
0.511400	-2.653350
0.511500	-2.587135
0.511600	-2.517349
0.511700	-2.409912
0.511800	-2.273263
0.511900	-2.212890
0.512000	-2.123305
0.512100	-2.127525
0.512200	-2.109673
0.512300	-2.101234
0.512400	-2.113243
0.512500	-2.124604
0.512600	-2.082083
0.512700	-2.094417
0.512800	-2.062608
0.512900	-2.053520
0.513000	-2.070398
0.513100	-2.047677
0.513200	-2.094742
0.513300	-1.953548
0.513400	-1.820145
0.513500	-1.484202
0.513600	-1.631887
0.513700	-1.864288
0.513800	-2.010675
0.513900	-1.927582
0.514000	-1.690636
0.514100	-1.535810
0.514200	-1.479982
0.514300	-1.630264
0.514400	-1.828259
0.514500	-1.680574
0.514600	-1.646169
0.514700	-1.452393
0.514800	-1.470245
0.514900	-1.432593
0.515000	-1.452068
0.515100	-1.516985
0.515200	-1.521853
0.515300	-1.485500
0.515400	-1.445577
0.515500	-1.403705
0.515600	-1.398188
0.515700	-1.385204
0.515800	-1.429672
0.515900	-1.462455
0.516000	-1.491667
0.516100	-1.553987
0.516200	-1.520231
0.516300	-1.461806
0.516400	-1.418961
0.516500	-1.528020
0.516600	-1.773080
0.516700	-1.796775
0.516800	-1.732508
0.516900	-1.521529
0.517000	-1.469596
0.517100	-1.598130
0.517200	-1.834102
0.517300	-1.897720
0.517400	-1.809109
0.517500	-1.598455
0.517600	-1.512441
0.517700	-1.569567
0.517800	-1.705243
0.517900	-1.697453
0.518000	-1.680899
0.518100	-1.654932
0.518200	-1.655906
0.518300	-1.709462
0.518400	-1.721147
0.518500	-1.747763
0.518600	-1.724393
0.518700	-1.733481
0.518800	-1.779897
0.518900	-1.787362
0.519000	-1.762369
0.519100	-1.732183
0.519200	-1.694856
0.519300	-1.771133
0.519400	-1.919467
0.519500	-1.945434
0.519600	-1.930178
0.519700	-1.819171
0.519800	-1.866236
0.519900	-1.874675
0.520000	-1.860069
0.520100	-1.872403
0.520200	-1.879219
0.520300	-1.876298
0.520400	-1.888632
0.520500	-1.875324
0.520600	-1.882465
0.520700	-1.910054
0.520800	-1.908431
0.520900	-1.936021
0.521000	-1.931152
0.521100	-1.970427
0.521200	-1.964909
0.521300	-1.961014
0.521400	-2.013921
0.521500	-1.992823
0.521600	-2.052222
0.521700	-2.258981
0.521800	-2.552080
0.521900	-2.576099
0.522000	-2.399201
0.522100	-2.217434
0.522200	-2.176212
0.522300	-2.490734
0.522400	-2.798764
0.522500	-2.940282
0.522600	-2.862057
0.522700	-2.694572
0.522800	-2.651727
0.522900	-2.728978
0.523000	-2.927948
0.523100	-3.056159
0.523200	-3.043825
0.523300	-3.046097
0.523400	-2.975986
0.523500	-3.027595
0.523600	-3.100951
0.523700	-3.140551
0.523800	-3.185668
0.523900	-3.204494
0.524000	-3.262919
0.524100	-3.324590
0.524200	-3.305440
0.524300	-3.313879
0.524400	-3.320370
0.524500	-3.381068
0.524600	-3.469355
0.524700	-3.494673
0.524800	-3.432352
0.524900	-3.284666
0.525000	-3.251559
0.525100	-3.377822
0.525200	-3.599838
0.525300	-3.732593
0.525400	-3.617366
0.525500	-3.391779
0.525600	-3.320370
0.525700	-3.429431
0.525800	-3.640411
0.525900	-3.782580
0.526000	-3.785825
0.526100	-3.672221
0.526200	-3.598215
0.526300	-3.599189
0.526400	-3.651447
0.526500	-3.687476
0.526600	-3.650473
0.526700	-3.628726
0.526800	-3.624507
0.526900	-3.610874
0.527000	-3.546282
0.527100	-3.454749
0.527200	-3.311282
0.527300	-3.245391
0.527400	-3.238251
0.527500	-3.220074
0.527600	-3.183071
0.527700	-2.999032
0.527800	-2.883155
0.527900	-2.608233
0.528000	-2.635498
0.528100	-2.617970
0.528200	-2.550782
0.528300	-2.453731
0.528400	-2.314485
0.528500	-2.192766
0.528600	-2.106427
0.528700	-2.070398
0.528800	-2.095716
0.528900	-2.054818
0.529000	-2.049625
0.529100	-2.058389
0.529200	-2.036317
0.529300	-1.985033
0.529400	-1.991200
0.529500	-1.958417
0.529600	-1.948355
0.529700	-1.977243
0.529800	-1.991200
0.529900	-1.967505
0.530000	-1.721796
0.530100	-1.591639
0.530200	-1.250827
0.530300	-1.662398
0.530400	-1.818197
0.530500	-1.916546
0.530600	-1.676679
0.530700	-1.435839
0.530800	-1.318016
0.530900	-1.318340
0.531000	-1.604947
0.531100	-1.714980
0.531200	-1.566321
0.531300	-1.385529
0.531400	-1.164813
0.531500	-1.182016
0.531600	-1.248880
0.531700	-1.317367
0.531800	-1.380011
0.531900	-1.324832
0.532000	-1.264460
0.532100	-1.228106
0.532200	-1.244660
0.532300	-1.215123
0.532400	-1.232975
0.532500	-1.245958
0.532600	-1.337491
0.532700	-1.359562
0.532800	-1.344956
0.532900	-1.304059
0.533000	-1.266732
0.533100	-1.195324
0.533200	-1.503352
0.533300	-1.671161
0.533400	-1.659152
0.533500	-1.505949
0.533600	-1.254398
0.533700	-1.308603
0.533800	-1.492316
0.533900	-1.733481
0.534000	-1.738350
0.534100	-1.596183
0.534200	-1.380335
0.534300	-1.357615
0.534400	-1.462130
0.534500	-1.609491
0.534600	-1.588393
0.534700	-1.612412
0.534800	-1.513090
0.534900	-1.549443
0.535000	-1.585147
0.535100	-1.664021
0.535200	-1.633834
0.535300	-1.606569
0.535400	-1.636756
0.535500	-1.629939
0.535600	-1.697453
0.535700	-1.694856
0.535800	-1.666942
0.535900	-1.626044
0.536000	-1.742570
0.536100	-1.858446
0.536200	-1.885711
0.536300	-1.871104
0.536400	-1.812679
0.536500	-1.845138
0.536600	-1.825987
0.536700	-1.813329
0.536800	-1.840594
0.536900	-1.842216
0.537000	-1.828909
0.537100	-1.820794
0.537200	-1.828259
0.537300	-1.846111
0.537400	-1.840594
0.537500	-1.862665
0.537600	-1.838321
0.537700	-1.856823
0.537800	-1.874350
0.537900	-1.857147
0.538000	-1.888632
0.538100	-1.932451
0.538200	-1.981138
0.538300	-2.038265
0.538400	-2.301177
0.538500	-2.474180
0.538600	-2.445292
0.538700	-2.223926
0.538800	-2.078837
0.538900	-2.184327
0.539000	-2.497225
0.539100	-2.732548
0.539200	-2.789351
0.539300	-2.653025
0.539400	-2.547536
0.539500	-2.564414
0.539600	-2.715021
0.539700	-2.925351
0.539800	-2.982478
0.539900	-2.967223
0.540000	-2.911719
0.540100	-2.905876
0.540200	-2.932817
0.540300	-3.003576
0.540400	-3.049992
0.540500	-3.046097
0.540600	-3.055834
0.540700	-3.092837
0.540800	-3.178202
0.540900	-3.245391
0.541000	-3.213907
0.541100	-3.247014
0.541200	-3.276876
0.541300	-3.339196
0.541400	-3.318748
0.541500	-3.223969
0.541600	-3.037333
0.541700	-3.085047
0.541800	-3.265840
0.541900	-3.471302
0.542000	-3.528429
0.542100	-3.349908
0.542200	-3.141524
0.542300	-3.099978
0.542400	-3.245716
0.542500	-3.465460
0.542600	-3.602435
0.542700	-3.537518
0.542800	-3.417746
0.542900	-3.336924
0.543000	-3.345039
0.543100	-3.394700
0.543200	-3.404113
0.543300	-3.389832
0.543400	-3.361593
0.543500	-3.341793
0.543600	-3.306738
0.543700	-3.185992
0.543800	-3.064273
0.543900	-2.976960
0.544000	-2.935413
0.544100	-2.912693
0.544200	-2.923079
0.544300	-2.851995
0.544400	-2.683861
0.544500	-2.616023
0.544600	-2.422896
0.544700	-2.382972
0.544800	-2.341425
0.544900	-2.255086
0.545000	-2.157062
0.545100	-2.024632
0.545200	-1.930828
0.545300	-1.834426
0.545400	-1.863639
0.545500	-1.829233
0.545600	-1.862016
0.545700	-1.825663
0.545800	-1.870455
0.545900	-1.825338
0.546000	-1.835725
0.546100	-1.775352
0.546200	-1.784441
0.546300	-1.770159
0.546400	-1.843839
0.546500	-1.833777
0.546600	-1.762694
0.546700	-1.549443
0.546800	-1.281013
0.546900	-1.268030
0.547000	-1.539381
0.547100	-1.739973
0.547200	-1.749061
0.547300	-1.559505
0.547400	-1.250178
0.547500	-1.106713
0.547600	-1.215123
0.547700	-1.316717
0.547800	-1.450121
0.547900	-1.355343
0.548000	-1.151830
0.548100	-1.112555
0.548200	-1.012259
0.548300	-1.111906
0.548400	-1.063219
0.548500	-1.173901
0.548600	-1.094054
0.548700	-1.092756
0.548800	-1.050560
0.548900	-1.053806
0.549000	-1.066140
0.549100	-1.030760
0.549200	-1.203438
0.549300	-1.171629
0.549400	-1.261214
0.549500	-1.257319
0.549600	-1.159620
0.549700	-1.152803
0.549800	-1.105414
0.549900	-1.464402
0.550000	-1.524775
0.550100	-1.534837
0.550200	-1.363457
0.550300	-1.237844
0.550400	-1.318989
0.550500	-1.543925
0.550600	-1.710111
0.550700	-1.657529
0.550800	-1.501729
0.550900	-1.361834
0.551000	-1.399810
0.551100	-1.516336
0.551200	-1.565997
0.551300	-1.547495
0.551400	-1.563075
0.551500	-1.526073
0.551600	-1.588393
0.551700	-1.614035
0.551800	-1.680250
0.551900	-1.651037
0.552000	-1.614684
0.552100	-1.642923
0.552200	-1.674083
0.552300	-1.675706
0.552400	-1.642274
0.552500	-1.620851
0.552600	-1.603324
0.552700	-1.753605
0.552800	-1.820469
0.552900	-1.820794
0.553000	-1.792555
0.553100	-1.704918
0.553200	-1.735429
0.553300	-1.760746
0.553400	-1.717252
0.553500	-1.734130
0.553600	-1.727314
0.553700	-1.726665
0.553800	-1.739324
0.553900	-1.768861
0.554000	-1.761395
0.554100	-1.763667
0.554200	-1.728288
0.554300	-1.791257
0.554400	-1.788336
0.554500	-1.807486
0.554600	-1.806512
0.554700	-1.832479
0.554800	-1.922064
0.554900	-1.915572
0.555000	-2.082083
0.555100	-2.330065
0.555200	-2.459898
0.555300	-2.399526
0.555400	-2.137912
0.555500	-2.086303
0.555600	-2.223926
0.555700	-2.563765
0.555800	-2.766630
0.555900	-2.770849
0.556000	-2.630629
0.556100	-2.537149
0.556200	-2.578047
0.556300	-2.697818
0.556400	-2.904253
0.556500	-2.896463
0.556600	-2.924053
0.556700	-2.890621
0.556800	-2.952616
0.556900	-2.973065
0.557000	-3.022402
0.557100	-3.034736
0.557200	-3.055510
0.557300	-3.089591
0.557400	-3.137629
0.557500	-3.209038
0.557600	-3.254804
0.557700	-3.199625
0.557800	-3.271683
0.557900	-3.297325
0.558000	-3.353154
0.558100	-3.303492
0.558200	-3.186966
0.558300	-3.101925
0.558400	-3.176580
0.558500	-3.417746
0.558600	-3.610874
0.558700	-3.553098
0.558800	-3.364189
0.558900	-3.231759
0.559000	-3.299272
0.559100	-3.491427
0.559200	-3.680335
0.559300	-3.742656
0.559400	-3.634569
0.559500	-3.523885
0.559600	-3.488830
0.559700	-3.536869
0.559800	-3.610549
0.559900	-3.600487
0.560000	-3.576468
0.560100	-3.544334
0.560200	-3.516744
0.560300	-3.443713
0.560400	-3.340819
0.560500	-3.233382
0.560600	-3.126269
0.560700	-3.098030
0.560800	-3.085047
0.560900	-3.080827
0.561000	-2.953915
0.561100	-2.811098
0.561200	-2.748128
0.561300	-2.552404
0.561400	-2.562467
0.561500	-2.505664
0.561600	-2.408939
0.561700	-2.298905
0.561800	-2.204451
0.561900	-2.133043
0.562000	-2.049300
0.562100	-2.057740
0.562200	-2.018140
0.562300	-2.036966
0.562400	-2.030799
0.562500	-2.040212
0.562600	-2.016842
0.562700	-1.950952
0.562800	-1.939916
0.562900	-1.979515
0.563000	-1.951276
0.563100	-2.047677
0.563200	-1.932775
0.563300	-1.953873
0.563400	-1.574436
0.563500	-1.419935
0.563600	-1.485825
0.563700	-1.779897
0.563800	-1.962961
0.563900	-1.876622
0.564000	-1.659801
0.564100	-1.368001
0.564200	-1.323534
0.564300	-1.565672
0.564400	-1.612737
0.564500	-1.686741
0.564600	-1.458560
0.564700	-1.310226
0.564800	-1.266083
0.564900	-1.212851
0.565000	-1.364106
0.565100	-1.333920
0.565200	-1.315744
0.565300	-1.247906
0.565400	-1.252775
0.565500	-1.210579
0.565600	-1.201491
0.565700	-1.201166
0.565800	-1.213176
0.565900	-1.291400
0.566000	-1.283610
0.566100	-1.332622
0.566200	-1.273223
0.566300	-1.266407
0.566400	-1.187858
0.566500	-1.281013
0.566600	-1.632211
0.566700	-1.621825
0.566800	-1.578980
0.566900	-1.337815
0.567000	-1.280364
0.567100	-1.391371
0.567200	-1.645519
0.567300	-1.762045
0.567400	-1.630913
0.567500	-1.441357
0.567600	-1.319314
0.567700	-1.370923
0.567800	-1.548145
0.567900	-1.592937
0.568000	-1.616632
0.568100	-1.563725
0.568200	-1.528670
0.568300	-1.620851
0.568400	-1.640001
0.568500	-1.688040
0.568600	-1.636756
0.568700	-1.631887
0.568800	-1.663696
0.568900	-1.664670
0.569000	-1.678951
0.569100	-1.636756
0.569200	-1.586770
0.569300	-1.658178
0.569400	-1.784765
0.569500	-1.809758
0.569600	-1.800021
0.569700	-1.660775
0.569800	-1.706865
0.569900	-1.698426
0.570000	-1.709138
0.570100	-1.680899
0.570200	-1.684469
0.570300	-1.700374
0.570400	-1.686092
0.570500	-1.702970
0.570600	-1.716278
0.570700	-1.695505
0.570800	-1.746465
0.570900	-1.704918
0.571000	-1.779572
0.571100	-1.761071
0.571200	-1.776651
0.571300	-1.790283
0.571400	-1.798073
0.571500	-1.835725
0.571600	-1.859744
0.571700	-2.060985
0.571800	-2.355058
0.571900	-2.423869
0.572000	-2.299229
0.572100	-2.059362
0.572200	-2.069425
0.572300	-2.291115
0.572400	-2.537474
0.572500	-2.691326
0.572600	-2.625111
0.572700	-2.467039
0.572800	-2.394332
0.572900	-2.546237
0.573000	-2.712749
0.573100	-2.860110
0.573200	-2.835766
0.573300	-2.782534
0.573400	-2.734496
0.573500	-2.777016
0.573600	-2.837714
0.573700	-2.890296
0.573800	-2.918860
0.573900	-2.926000
0.574000	-2.963003
0.574100	-2.990268
0.574200	-3.030517
0.574300	-3.080827
0.574400	-3.052913
0.574500	-3.111663
0.574600	-3.153209
0.574700	-3.168140
0.574800	-3.087319
0.574900	-2.936063
0.575000	-2.910420
0.575100	-3.022402
0.575200	-3.234680
0.575300	-3.374901
0.575400	-3.252857
0.575500	-3.077257
0.575600	-2.964951
0.575700	-3.050641
0.575800	-3.290509
0.575900	-3.453775
0.576000	-3.473899
0.576100	-3.343416
0.576200	-3.226566
0.576300	-3.207090
0.576400	-3.249611
0.576500	-3.320695
0.576600	-3.325239
0.576700	-3.296676
0.576800	-3.282069
0.576900	-3.246690
0.577000	-3.174307
0.577100	-3.059405
0.577200	-2.956836
0.577300	-2.919833
0.577400	-2.883805
0.577500	-2.884129
0.577600	-2.842582
0.577700	-2.671527
0.577800	-2.560519
0.577900	-2.506963
0.578000	-2.354409
0.578100	-2.346619
0.578200	-2.252165
0.578300	-2.207048
0.578400	-2.099286
0.578500	-1.964584
0.578600	-1.908431
0.578700	-1.870131
0.578800	-1.890904
0.578900	-1.857147
0.579000	-1.894150
0.579100	-1.882789
0.579200	-1.871104
0.579300	-1.800994
0.579400	-1.856174
0.579500	-1.750684
0.579600	-1.837997
0.579700	-1.744842
0.579800	-1.855524
0.579900	-1.738025
0.580000	-1.606245
0.580100	-1.420584
0.580200	-1.170006
0.580300	-1.524125
0.580400	-1.640326
0.580500	-1.842541
0.580600	-1.497834
0.580700	-1.340087
0.580800	-1.134951
0.580900	-1.194999
0.581000	-1.363133
0.581100	-1.500756
0.581200	-1.444603
0.581300	-1.246283
0.581400	-1.164164
0.581500	-1.118398
0.581600	-1.102818
0.581700	-1.190130
0.581800	-1.198569
0.581900	-1.203114
0.582000	-1.133004
0.582100	-1.127810
0.582200	-1.090159
0.582300	-1.104116
0.582400	-1.046665
0.582500	-1.081720
0.582600	-1.178770
0.582700	-1.134302
0.582800	-1.204412
0.582900	-1.101844
0.583000	-1.061271
0.583100	-1.014856
0.583200	-1.259266
0.583300	-1.449796
0.583400	-1.423180
0.583500	-1.310550
0.583600	-1.058999
0.583700	-1.111257
0.583800	-1.281987
0.583900	-1.509519
0.584000	-1.512441
0.584100	-1.386178
0.584200	-1.182989
0.584300	-1.184937
0.584400	-1.299514
0.584500	-1.442331
0.584600	-1.399161
0.584700	-1.422207
0.584800	-1.356316
0.584900	-1.380011
0.585000	-1.454016
0.585100	-1.479333
0.585200	-1.504326
0.585300	-1.473815
0.585400	-1.479009
0.585500	-1.535486
0.585600	-1.527371
0.585700	-1.491667
0.585800	-1.471868
0.585900	-1.447199
0.586000	-1.576383
0.586100	-1.678951
0.586200	-1.688364
0.586300	-1.672460
0.586400	-1.529643
0.586500	-1.628316
0.586600	-1.616307
0.586700	-1.586770
0.586800	-1.616632
0.586900	-1.618579
0.587000	-1.615658
0.587100	-1.607868
0.587200	-1.616307
0.587300	-1.648116
0.587400	-1.636756
0.587500	-1.670188
0.587600	-1.667916
0.587700	-1.644221
0.587800	-1.652660
0.587900	-1.667916
0.588000	-1.675381
0.588100	-1.678951
0.588200	-1.746465
0.588300	-1.811381
0.588400	-2.071047
0.588500	-2.307344
0.588600	-2.292738
0.588700	-2.065854
0.588800	-1.931477
0.588900	-1.995095
0.589000	-2.286571
0.589100	-2.587459
0.589200	-2.609207
0.589300	-2.504691
0.589400	-2.375182
0.589500	-2.387516
0.589600	-2.524490
0.589700	-2.726706
0.589800	-2.776692
0.589900	-2.747479
0.590000	-2.719240
0.590100	-2.687756
0.590200	-2.741312
0.590300	-2.795518
0.590400	-2.824406
0.590500	-2.838363
0.590600	-2.844530
0.590700	-2.856864
0.590800	-2.936063
0.590900	-2.965600
0.591000	-2.950344
0.591100	-2.979881
0.591200	-3.021104
0.591300	-3.054536
0.591400	-3.081152
0.591500	-2.970793
0.591600	-2.834468
0.591700	-2.865303
0.591800	-3.041552
0.591900	-3.259024
0.592000	-3.312256
0.592100	-3.142498
0.592200	-2.929571
0.592300	-2.926650
0.592400	-3.084722
0.592500	-3.327836
0.592600	-3.443388
0.592700	-3.379120
0.592800	-3.237601
0.592900	-3.157104
0.593000	-3.194107
0.593100	-3.257401
0.593200	-3.282719
0.593300	-3.250909
0.593400	-3.226566
0.593500	-3.220398
0.593600	-3.201573
0.593700	-3.078230
0.593800	-2.946449
0.593900	-2.834468
0.594000	-2.808826
0.594100	-2.799413
0.594200	-2.784157
0.594300	-2.722811
0.594400	-2.540395
0.594500	-2.482619
0.594600	-2.288518
0.594700	-2.293711
0.594800	-2.255411
0.594900	-2.163229
0.595000	-2.100909
0.595100	-1.977892
0.595200	-1.853901
0.595300	-1.774703
0.595400	-1.751009
0.595500	-1.793204
0.595600	-1.791257
0.595700	-1.737376
0.595800	-1.803916
0.595900	-1.721472
0.596000	-1.731209
0.596100	-1.714006
0.596200	-1.677653
0.596300	-1.713357
0.596400	-1.720173
0.596500	-1.755553
0.596600	-1.649090
0.596700	-1.507572
0.596800	-1.201166
0.596900	-1.239142
0.597000	-1.494913
0.597100	-1.697777
0.597200	-1.656555
0.597300	-1.464078
