LabVIEW Measurement	
Writer_Version	2
Reader_Version	2
Separator	Tab
Decimal_Separator	.
Multi_Headings	Yes
X_Columns	One
Time_Pref	Relative
Operator	as989
Description	Time Domain Data
Date	2021/11/24
Time	13:31:58.1513438224792480469
***End_of_Header***	
	
Channels	1	
Samples	15000	
Date	1903/12/31	
Time	19:00:00	
X_Dimension	Time	
X0	0.0000000000000000E+0	
Delta_X	0.000100	
***End_of_Header***		
X_Value	Untitled	Comment
0.000000	-0.975906	Tare Values:0.000000, 0.000000, 0.000000, 0.000000\0D\0A
0.000100	-0.913262
0.000200	-0.957729
0.000300	-0.870417
0.000400	-1.005768
0.000500	-0.889567
0.000600	-0.881453
0.000700	-0.737987
0.000800	-0.476699
0.000900	-0.374456
0.001000	-0.584460
0.001100	-0.897357
0.001200	-0.822379
0.001300	-0.676966
0.001400	-0.465014
0.001500	-0.277406
0.001600	-0.367964
0.001700	-0.525711
0.001800	-0.649052
0.001900	-0.543563
0.002000	-0.413081
0.002100	-0.372184
0.002200	-0.259554
0.002300	-0.413406
0.002400	-0.404317
0.002500	-0.528308
0.002600	-0.463391
0.002700	-0.456250
0.002800	-0.452355
0.002900	-0.468584
0.003000	-0.476374
0.003100	-0.520842
0.003200	-0.555897
0.003300	-0.574398
0.003400	-0.619190
0.003500	-0.655544
0.003600	-0.620164
0.003700	-0.647754
0.003800	-0.606856
0.003900	-0.911639
0.004000	-1.033682
0.004100	-1.063219
0.004200	-0.960651
0.004300	-0.766551
0.004400	-0.844775
0.004500	-0.998627
0.004600	-1.212851
0.004700	-1.198894
0.004800	-1.095677
0.004900	-0.963572
0.005000	-0.987916
0.005100	-1.072956
0.005200	-1.202464
0.005300	-1.168059
0.005400	-1.217395
0.005500	-1.164164
0.005600	-1.225834
0.005700	-1.270627
0.005800	-1.319963
0.005900	-1.291400
0.006000	-1.289128
0.006100	-1.328402
0.006200	-1.371247
0.006300	-1.383906
0.006400	-1.366054
0.006500	-1.372221
0.006600	-1.347553
0.006700	-1.456288
0.006800	-1.571190
0.006900	-1.577032
0.007000	-1.579305
0.007100	-1.468622
0.007200	-1.534512
0.007300	-1.535161
0.007400	-1.516336
0.007500	-1.537109
0.007600	-1.509519
0.007700	-1.491018
0.007800	-1.500106
0.007900	-1.490044
0.008000	-1.518608
0.008100	-1.505624
0.008200	-1.513739
0.008300	-1.500756
0.008400	-1.500756
0.008500	-1.499133
0.008600	-1.523152
0.008700	-1.546522
0.008800	-1.578331
0.008900	-1.635133
0.009000	-1.688040
0.009100	-1.962312
0.009200	-2.141482
0.009300	-2.087926
0.009400	-1.933424
0.009500	-1.790608
0.009600	-1.890904
0.009700	-2.126876
0.009800	-2.377129
0.009900	-2.399526
0.010000	-2.242103
0.010100	-2.156088
0.010200	-2.152518
0.010300	-2.356681
0.010400	-2.442695
0.010500	-2.547536
0.010600	-2.470934
0.010700	-2.473855
0.010800	-2.477101
0.010900	-2.467364
0.011000	-2.514428
0.011100	-2.536824
0.011200	-2.537474
0.011300	-2.563116
0.011400	-2.649780
0.011500	-2.674773
0.011600	-2.681589
0.011700	-2.674448
0.011800	-2.678668
0.011900	-2.714372
0.012000	-2.715670
0.012100	-2.695870
0.012200	-2.540070
0.012300	-2.469311
0.012400	-2.505015
0.012500	-2.670553
0.012600	-2.819861
0.012700	-2.831222
0.012800	-2.679317
0.012900	-2.493655
0.013000	-2.510533
0.013100	-2.680940
0.013200	-2.862707
0.013300	-2.931843
0.013400	-2.833819
0.013500	-2.714372
0.013600	-2.674773
0.013700	-2.678018
0.013800	-2.740988
0.013900	-2.722162
0.014000	-2.701388
0.014100	-2.643288
0.014200	-2.587135
0.014300	-2.579020
0.014400	-2.504042
0.014500	-2.370638
0.014600	-2.245349
0.014700	-2.181081
0.014800	-2.157711
0.014900	-2.143429
0.015000	-2.044107
0.015100	-1.863314
0.015200	-1.662398
0.015300	-1.539705
0.015400	-1.557882
0.015500	-1.500431
0.015600	-1.415715
0.015700	-1.317042
0.015800	-1.205710
0.015900	-1.074904
0.016000	-1.074579
0.016100	-1.066140
0.016200	-1.046016
0.016300	-1.003496
0.016400	-1.026216
0.016500	-0.978178
0.016600	-0.946694
0.016700	-0.930140
0.016800	-0.897357
0.016900	-0.922999
0.017000	-0.830493
0.017100	-0.935658
0.017200	-0.841854
0.017300	-0.850293
0.017400	-0.640937
0.017500	-0.472479
0.017600	-0.417950
0.017700	-0.690274
0.017800	-0.820107
0.017900	-0.751944
0.018000	-0.537396
0.018100	-0.439372
0.018200	-0.326418
0.018300	-0.467286
0.018400	-0.630551
0.018500	-0.606207
0.018600	-0.520193
0.018700	-0.338752
0.018800	-0.300776
0.018900	-0.277081
0.019000	-0.307916
0.019100	-0.402694
0.019200	-0.385816
0.019300	-0.373807
0.019400	-0.379000
0.019500	-0.415353
0.019600	-0.399449
0.019700	-0.354656
0.019800	-0.440995
0.019900	-0.424766
0.020000	-0.593548
0.020100	-0.549405
0.020200	-0.695467
0.020300	-0.553949
0.020400	-0.565310
0.020500	-0.591276
0.020600	-0.958054
0.020700	-1.029462
0.020800	-0.996030
0.020900	-0.827572
0.021000	-0.711047
0.021100	-0.826598
0.021200	-1.079448
0.021300	-1.227782
0.021400	-1.177472
0.021500	-1.022970
0.021600	-0.901252
0.021700	-0.953185
0.021800	-1.116450
0.021900	-1.212202
0.022000	-1.144689
0.022100	-1.164813
0.022200	-1.084316
0.022300	-1.193376
0.022400	-1.224861
0.022500	-1.287830
0.022600	-1.266083
0.022700	-1.258617
0.022800	-1.312822
0.022900	-1.360211
0.023000	-1.377739
0.023100	-1.357939
0.023200	-1.342035
0.023300	-1.392020
0.023400	-1.508221
0.023500	-1.583524
0.023600	-1.588393
0.023700	-1.541978
0.023800	-1.456288
0.023900	-1.512765
0.024000	-1.530293
0.024100	-1.527696
0.024200	-1.508221
0.024300	-1.548469
0.024400	-1.522503
0.024500	-1.536460
0.024600	-1.508870
0.024700	-1.538732
0.024800	-1.548794
0.024900	-1.524775
0.025000	-1.544574
0.025100	-1.514388
0.025200	-1.560154
0.025300	-1.557233
0.025400	-1.596507
0.025500	-1.597806
0.025600	-1.652660
0.025700	-1.780546
0.025800	-2.073644
0.025900	-2.133367
0.026000	-2.095391
0.026100	-1.869806
0.026200	-1.798073
0.026300	-1.985033
0.026400	-2.296957
0.026500	-2.471908
0.026600	-2.410237
0.026700	-2.236260
0.026800	-2.157062
0.026900	-2.220680
0.027000	-2.423869
0.027100	-2.546887
0.027200	-2.573502
0.027300	-2.499822
0.027400	-2.442695
0.027500	-2.432958
0.027600	-2.463469
0.027700	-2.515727
0.027800	-2.538772
0.027900	-2.531307
0.028000	-2.544614
0.028100	-2.606285
0.028200	-2.666009
0.028300	-2.703336
0.028400	-2.613751
0.028500	-2.668281
0.028600	-2.685808
0.028700	-2.719565
0.028800	-2.673474
0.028900	-2.526762
0.029000	-2.495927
0.029100	-2.527087
0.029200	-2.708854
0.029300	-2.853618
0.029400	-2.796167
0.029500	-2.581942
0.029600	-2.454380
0.029700	-2.500471
0.029800	-2.699765
0.029900	-2.869198
0.030000	-2.909771
0.030100	-2.772148
0.030200	-2.631603
0.030300	-2.597522
0.030400	-2.617321
0.030500	-2.694248
0.030600	-2.691975
0.030700	-2.655947
0.030800	-2.610505
0.030900	-2.561493
0.031000	-2.543965
0.031100	-2.464118
0.031200	-2.358628
0.031300	-2.298256
0.031400	-2.238857
0.031500	-2.207048
0.031600	-2.170370
0.031700	-1.972699
0.031800	-1.852279
0.031900	-1.596507
0.032000	-1.542951
0.032100	-1.546846
0.032200	-1.460507
0.032300	-1.391047
0.032400	-1.278417
0.032500	-1.151180
0.032600	-1.067438
0.032700	-1.023295
0.032800	-1.029462
0.032900	-1.008364
0.033000	-0.985968
0.033100	-1.021672
0.033200	-0.902226
0.033300	-0.932737
0.033400	-0.843152
0.033500	-0.908068
0.033600	-0.849319
0.033700	-0.896383
0.033800	-0.874312
0.033900	-0.831467
0.034000	-0.723706
0.034100	-0.507859
0.034200	-0.317005
0.034300	-0.529281
0.034400	-0.755515
0.034500	-0.838608
0.034600	-0.730847
0.034700	-0.439697
0.034800	-0.318628
0.034900	-0.320251
0.035000	-0.514026
0.035100	-0.650026
0.035200	-0.582513
0.035300	-0.506561
0.035400	-0.346217
0.035500	-0.290714
0.035600	-0.393606
0.035700	-0.361148
0.035800	-0.517921
0.035900	-0.478322
0.036000	-0.507210
0.036100	-0.431907
0.036200	-0.420222
0.036300	-0.437749
0.036400	-0.378675
0.036500	-0.561090
0.036600	-0.522790
0.036700	-0.622761
0.036800	-0.615295
0.036900	-0.597443
0.037000	-0.533501
0.037100	-0.535124
0.037200	-0.712995
0.037300	-0.974608
0.037400	-0.994407
0.037500	-0.918130
0.037600	-0.707801
0.037700	-0.743830
0.037800	-0.885023
0.037900	-1.098923
0.038000	-1.192727
0.038100	-1.089510
0.038200	-0.920727
0.038300	-0.880154
0.038400	-0.952536
0.038500	-1.110283
0.038600	-1.138846
0.038700	-1.156374
0.038800	-1.155400
0.038900	-1.158321
0.039000	-1.235247
0.039100	-1.272250
0.039200	-1.296593
0.039300	-1.272250
0.039400	-1.323534
0.039500	-1.378063
0.039600	-1.387801
0.039700	-1.364756
0.039800	-1.351448
0.039900	-1.321586
0.040000	-1.438111
0.040100	-1.536784
0.040200	-1.571839
0.040300	-1.569242
0.040400	-1.477386
0.040500	-1.512116
0.040600	-1.529968
0.040700	-1.504326
0.040800	-1.492316
0.040900	-1.498808
0.041000	-1.535161
0.041100	-1.508546
0.041200	-1.498808
0.041300	-1.513090
0.041400	-1.490369
0.041500	-1.531915
0.041600	-1.516985
0.041700	-1.543925
0.041800	-1.569892
0.041900	-1.571515
0.042000	-1.587744
0.042100	-1.572488
0.042200	-1.641624
0.042300	-1.708813
0.042400	-1.895123
0.042500	-2.164527
0.042600	-2.160308
0.042700	-1.990551
0.042800	-1.804565
0.042900	-1.826312
0.043000	-2.094742
0.043100	-2.350514
0.043200	-2.428738
0.043300	-2.309291
0.043400	-2.204776
0.043500	-2.163554
0.043600	-2.324222
0.043700	-2.481645
0.043800	-2.548185
0.043900	-2.510209
0.044000	-2.526113
0.044100	-2.478399
0.044200	-2.477101
0.044300	-2.542018
0.044400	-2.560519
0.044500	-2.578371
0.044600	-2.592328
0.044700	-2.619593
0.044800	-2.643288
0.044900	-2.684185
0.045000	-2.667307
0.045100	-2.696195
0.045200	-2.728004
0.045300	-2.782534
0.045400	-2.756568
0.045500	-2.661465
0.045600	-2.517025
0.045700	-2.515727
0.045800	-2.641990
0.045900	-2.798114
0.046000	-2.866277
0.046100	-2.708854
0.046200	-2.550782
0.046300	-2.476776
0.046400	-2.580643
0.046500	-2.800711
0.046600	-2.901332
0.046700	-2.853618
0.046800	-2.752673
0.046900	-2.672825
0.047000	-2.647183
0.047100	-2.684510
0.047200	-2.707231
0.047300	-2.695221
0.047400	-2.648157
0.047500	-2.620567
0.047600	-2.591030
0.047700	-2.473855
0.047800	-2.332986
0.047900	-2.225874
0.048000	-2.176537
0.048100	-2.165501
0.048200	-2.143105
0.048300	-2.053520
0.048400	-1.888307
0.048500	-1.826312
0.048600	-1.667266
0.048700	-1.623448
0.048800	-1.560154
0.048900	-1.464402
0.049000	-1.401758
0.049100	-1.286531
0.049200	-1.121968
0.049300	-1.102168
0.049400	-1.063543
0.049500	-1.070359
0.049600	-1.017453
0.049700	-1.030436
0.049800	-1.018426
0.049900	-0.978503
0.050000	-0.957405
0.050100	-0.888918
0.050200	-0.863276
0.050300	-0.883076
0.050400	-0.861329
0.050500	-0.956431
0.050600	-0.845749
0.050700	-0.775639
0.050800	-0.435802
0.050900	-0.457549
0.051000	-0.665281
0.051100	-0.800307
0.051200	-0.870417
0.051300	-0.642885
0.051400	-0.514675
0.051500	-0.397826
0.051600	-0.535448
0.051700	-0.663983
0.051800	-0.693520
0.051900	-0.598417
0.052000	-0.392308
0.052100	-0.377052
0.052200	-0.294284
0.052300	-0.469234
0.052400	-0.413730
0.052500	-0.496823
0.052600	-0.451057
0.052700	-0.433530
0.052800	-0.411783
0.052900	-0.476050
0.053000	-0.441320
0.053100	-0.413730
0.053200	-0.469234
0.053300	-0.469883
0.053400	-0.561415
0.053500	-0.642885
0.053600	-0.589978
0.053700	-0.569205
0.053800	-0.577969
0.053900	-0.824326
0.054000	-0.957405
0.054100	-0.972985
0.054200	-0.847372
0.054300	-0.669176
0.054400	-0.800632
0.054500	-0.969090
0.054600	-1.166436
0.054700	-1.162216
0.054800	-1.007390
0.054900	-0.863276
0.055000	-0.881453
0.055100	-0.997004
0.055200	-1.121968
0.055300	-1.080421
0.055400	-1.148908
0.055500	-1.104765
0.055600	-1.172603
0.055700	-1.209605
0.055800	-1.266083
0.055900	-1.272250
0.056000	-1.264784
0.056100	-1.305357
0.056200	-1.348526
0.056300	-1.333920
0.056400	-1.316068
0.056500	-1.310550
0.056600	-1.289128
0.056700	-1.416689
0.056800	-1.500106
0.056900	-1.544250
0.057000	-1.529643
0.057100	-1.422531
0.057200	-1.488097
0.057300	-1.493939
0.057400	-1.476412
0.057500	-1.518283
0.057600	-1.512441
0.057700	-1.519906
0.057800	-1.492641
0.057900	-1.500431
0.058000	-1.501080
0.058100	-1.532889
0.058200	-1.502378
0.058300	-1.544899
0.058400	-1.516011
0.058500	-1.524125
0.058600	-1.512765
0.058700	-1.546846
0.058800	-1.539705
0.058900	-1.619877
0.059000	-1.693233
0.059100	-1.972699
0.059200	-2.121358
0.059300	-2.061310
0.059400	-1.878245
0.059500	-1.756202
0.059600	-1.872403
0.059700	-2.155764
0.059800	-2.390437
0.059900	-2.378428
0.060000	-2.246647
0.060100	-2.097014
0.060200	-2.149272
0.060300	-2.322275
0.060400	-2.545264
0.060500	-2.547211
0.060600	-2.533579
0.060700	-2.469636
0.060800	-2.452433
0.060900	-2.520271
0.061000	-2.570581
0.061100	-2.595574
0.061200	-2.603364
0.061300	-2.616672
0.061400	-2.655297
0.061500	-2.762735
0.061600	-2.742286
0.061700	-2.681264
0.061800	-2.690677
0.061900	-2.728004
0.062000	-2.770849
0.062100	-2.728978
0.062200	-2.587135
0.062300	-2.528061
0.062400	-2.558572
0.062500	-2.693274
0.062600	-2.863356
0.062700	-2.839012
0.062800	-2.653350
0.062900	-2.488137
0.063000	-2.490734
0.063100	-2.651078
0.063200	-2.830897
0.063300	-2.887375
0.063400	-2.815966
0.063500	-2.689703
0.063600	-2.632252
0.063700	-2.620567
0.063800	-2.655297
0.063900	-2.675746
0.064000	-2.669904
0.064100	-2.638744
0.064200	-2.587135
0.064300	-2.546562
0.064400	-2.484891
0.064500	-2.354084
0.064600	-2.261902
0.064700	-2.202828
0.064800	-2.173616
0.064900	-2.147000
0.065000	-2.055792
0.065100	-1.900641
0.065200	-1.831830
0.065300	-1.597481
0.065400	-1.605920
0.065500	-1.559180
0.065600	-1.462130
0.065700	-1.343658
0.065800	-1.209605
0.065900	-1.116450
0.066000	-1.072956
0.066100	-1.010961
0.066200	-0.989863
0.066300	-0.935333
0.066400	-0.956107
0.066500	-0.916832
0.066600	-0.893787
0.066700	-0.864250
0.066800	-0.824975
0.066900	-0.895085
0.067000	-0.843477
0.067100	-0.939228
0.067200	-0.811018
0.067300	-0.874312
0.067400	-0.523439
0.067500	-0.420222
0.067600	-0.329014
0.067700	-0.681510
0.067800	-0.784078
0.067900	-0.685730
0.068000	-0.552327
0.068100	-0.290714
0.068200	-0.298504
0.068300	-0.436451
0.068400	-0.620164
0.068500	-0.590303
0.068600	-0.532852
0.068700	-0.280652
0.068800	-0.348489
0.068900	-0.359850
0.069000	-0.455277
0.069100	-0.474752
0.069200	-0.452355
0.069300	-0.425740
0.069400	-0.411133
0.069500	-0.443267
0.069600	-0.404642
0.069700	-0.458522
0.069800	-0.447811
0.069900	-0.540642
0.070000	-0.613348
0.070100	-0.647104
0.070200	-0.667229
0.070300	-0.590952
0.070400	-0.527009
0.070500	-0.651973
0.070600	-0.913262
0.070700	-0.960651
0.070800	-0.933386
0.070900	-0.772069
0.071000	-0.711696
0.071100	-0.829520
0.071200	-1.039200
0.071300	-1.144040
0.071400	-1.073930
0.071500	-0.945071
0.071600	-0.849644
0.071700	-0.930789
0.071800	-1.063219
0.071900	-1.115476
0.072000	-1.130732
0.072100	-1.117424
0.072200	-1.102818
0.072300	-1.206684
0.072400	-1.236870
0.072500	-1.296918
0.072600	-1.311849
0.072700	-1.329376
0.072800	-1.367677
0.072900	-1.410197
0.073000	-1.430970
0.073100	-1.383581
0.073200	-1.352421
0.073300	-1.407925
0.073400	-1.557557
0.073500	-1.610789
0.073600	-1.631238
0.073700	-1.456288
0.073800	-1.482579
0.073900	-1.514063
0.074000	-1.509519
0.074100	-1.513414
0.074200	-1.503677
0.074300	-1.504651
0.074400	-1.498808
0.074500	-1.532565
0.074600	-1.520555
0.074700	-1.538732
0.074800	-1.551715
0.074900	-1.566970
0.075000	-1.568918
0.075100	-1.568593
0.075200	-1.564698
0.075300	-1.567620
0.075400	-1.596832
0.075500	-1.597157
0.075600	-1.645844
0.075700	-1.805539
0.075800	-2.033720
0.075900	-2.184652
0.076000	-2.001587
0.076100	-1.808460
0.076200	-1.761395
0.076300	-1.964909
0.076400	-2.188222
0.076500	-2.377454
0.076600	-2.293711
0.076700	-2.164203
0.076800	-2.104155
0.076900	-2.213539
0.077000	-2.403096
0.077100	-2.472557
0.077200	-2.493330
0.077300	-2.451459
0.077400	-2.437502
0.077500	-2.436853
0.077600	-2.477426
0.077700	-2.522218
0.077800	-2.536175
0.077900	-2.535851
0.078000	-2.574476
0.078100	-2.648157
0.078200	-2.699116
0.078300	-2.662438
0.078400	-2.674123
0.078500	-2.668281
0.078600	-2.726381
0.078700	-2.760463
0.078800	-2.701388
0.078900	-2.509884
0.079000	-2.506963
0.079100	-2.606610
0.079200	-2.755918
0.079300	-2.851346
0.079400	-2.746506
0.079500	-2.575774
0.079600	-2.481321
0.079700	-2.563765
0.079800	-2.732548
0.079900	-2.864329
0.080000	-2.838038
0.080100	-2.720214
0.080200	-2.659192
0.080300	-2.623488
0.080400	-2.657894
0.080500	-2.684185
0.080600	-2.676395
0.080700	-2.624137
0.080800	-2.571230
0.080900	-2.552080
0.081000	-2.507287
0.081100	-2.373559
0.081200	-2.247621
0.081300	-2.178160
0.081400	-2.162255
0.081500	-2.162580
0.081600	-2.134341
0.081700	-1.960689
0.081800	-1.847085
0.081900	-1.710760
0.082000	-1.619553
0.082100	-1.578980
0.082200	-1.492966
0.082300	-1.388775
0.082400	-1.287505
0.082500	-1.157023
0.082600	-1.110283
0.082700	-1.097949
0.082800	-1.035305
0.082900	-1.040822
0.083000	-1.000574
0.083100	-1.007715
0.083200	-0.963572
0.083300	-0.917157
0.083400	-0.882426
0.083500	-0.885672
0.083600	-0.869768
0.083700	-0.880479
0.083800	-0.865548
0.083900	-0.900928
0.084000	-0.746427
0.084100	-0.590627
0.084200	-0.349788
0.084300	-0.615945
0.084400	-0.746751
0.084500	-0.833739
0.084600	-0.673720
0.084700	-0.437749
0.084800	-0.387114
0.084900	-0.311487
0.085000	-0.576670
0.085100	-0.631849
0.085200	-0.634446
0.085300	-0.400747
0.085400	-0.323172
0.085500	-0.343296
0.085600	-0.362122
0.085700	-0.462742
0.085800	-0.431907
0.085900	-0.452355
0.086000	-0.395554
0.086100	-0.407238
0.086200	-0.461444
0.086300	-0.427687
0.086400	-0.453329
0.086500	-0.409511
0.086600	-0.603611
0.086700	-0.566933
0.086800	-0.655219
0.086900	-0.573424
0.087000	-0.583486
0.087100	-0.552976
0.087200	-0.762331
0.087300	-1.044717
0.087400	-1.032383
0.087500	-0.937930
0.087600	-0.751620
0.087700	-0.800307
0.087800	-0.948317
0.087900	-1.183314
0.088000	-1.256020
0.088100	-1.170331
0.088200	-0.979801
0.088300	-0.951238
0.088400	-1.041796
0.088500	-1.218044
0.088600	-1.216421
0.088700	-1.237844
0.088800	-1.180393
0.088900	-1.217720
0.089000	-1.284584
0.089100	-1.355992
0.089200	-1.406951
0.089300	-1.370923
0.089400	-1.393968
0.089500	-1.422207
0.089600	-1.416364
0.089700	-1.413767
0.089800	-1.369624
0.089900	-1.349176
0.090000	-1.422531
0.090100	-1.533214
0.090200	-1.560479
0.090300	-1.530293
0.090400	-1.367677
0.090500	-1.433242
0.090600	-1.434216
0.090700	-1.432269
0.090800	-1.438760
0.090900	-1.446550
0.091000	-1.469271
0.091100	-1.466350
0.091200	-1.465701
0.091300	-1.457262
0.091400	-1.443954
0.091500	-1.471219
0.091600	-1.468622
0.091700	-1.470894
0.091800	-1.479658
0.091900	-1.499457
0.092000	-1.524125
0.092100	-1.520555
0.092200	-1.583524
0.092300	-1.616956
0.092400	-1.846111
0.092500	-2.058389
0.092600	-2.084355
0.092700	-1.961014
0.092800	-1.799372
0.092900	-1.787362
0.093000	-2.092145
0.093100	-2.345320
0.093200	-2.381998
0.093300	-2.269043
0.093400	-2.160957
0.093500	-2.147324
0.093600	-2.294036
0.093700	-2.479049
0.093800	-2.533579
0.093900	-2.471583
0.094000	-2.459574
0.094100	-2.417378
0.094200	-2.438800
0.094300	-2.489111
0.094400	-2.512805
0.094500	-2.556624
0.094600	-2.560194
0.094700	-2.603040
0.094800	-2.637445
0.094900	-2.670228
0.095000	-2.662438
0.095100	-2.675097
0.095200	-2.754296
0.095300	-2.759813
0.095400	-2.747479
0.095500	-2.662763
0.095600	-2.508261
0.095700	-2.498848
0.095800	-2.601417
0.095900	-2.774420
0.096000	-2.839986
0.096100	-2.689703
0.096200	-2.508261
0.096300	-2.462170
0.096400	-2.596872
0.096500	-2.803632
0.096600	-2.898086
0.096700	-2.855241
0.096800	-2.706257
0.096900	-2.615374
0.097000	-2.625436
0.097100	-2.653350
0.097200	-2.688080
0.097300	-2.674123
0.097400	-2.608233
0.097500	-2.557598
0.097600	-2.514753
0.097700	-2.478075
0.097800	-2.370638
0.097900	-2.270341
0.098000	-2.236909
0.098100	-2.168422
0.098200	-2.125902
0.098300	-2.007754
0.098400	-1.855200
0.098500	-1.820145
0.098600	-1.670188
0.098700	-1.635457
0.098800	-1.572488
0.098900	-1.471219
0.099000	-1.420584
0.099100	-1.287830
0.099200	-1.148908
0.099300	-1.124240
0.099400	-1.048612
0.099500	-1.058025
0.099600	-1.010312
0.099700	-1.030436
0.099800	-1.002197
0.099900	-0.945720
0.100000	-0.937281
0.100100	-0.916508
0.100200	-0.930465
0.100300	-0.910340
0.100400	-0.928517
0.100500	-0.928517
0.100600	-0.895410
0.100700	-0.676641
0.100800	-0.445215
0.100900	-0.398150
0.101000	-0.586408
0.101100	-0.777911
0.101200	-0.702283
0.101300	-0.560441
0.101400	-0.299802
0.101500	-0.302723
0.101600	-0.394580
0.101700	-0.550054
0.101800	-0.624708
0.101900	-0.529930
0.102000	-0.412107
0.102100	-0.270265
0.102200	-0.364069
0.102300	-0.352709
0.102400	-0.467611
0.102500	-0.414055
0.102600	-0.427687
0.102700	-0.426713
0.102800	-0.428336
0.102900	-0.420222
0.103000	-0.497148
0.103100	-0.441969
0.103200	-0.511754
0.103300	-0.558169
0.103400	-0.651324
0.103500	-0.666255
0.103600	-0.659763
0.103700	-0.580565
0.103800	-0.669825
0.103900	-0.891190
0.104000	-1.033357
0.104100	-0.980450
0.104200	-0.888269
0.104300	-0.718188
0.104400	-0.838932
0.104500	-1.038226
0.104600	-1.217071
0.104700	-1.178121
0.104800	-1.014531
0.104900	-0.881128
0.105000	-0.932087
0.105100	-1.048288
0.105200	-1.168383
0.105300	-1.143066
0.105400	-1.152479
0.105500	-1.138197
0.105600	-1.227457
0.105700	-1.258293
0.105800	-1.279390
0.105900	-1.270951
0.106000	-1.287505
0.106100	-1.291075
0.106200	-1.350798
0.106300	-1.339114
0.106400	-1.308927
0.106500	-1.318340
0.106600	-1.318665
0.106700	-1.462779
0.106800	-1.518932
0.106900	-1.521204
0.107000	-1.521204
0.107100	-1.384555
0.107200	-1.481281
0.107300	-1.470245
0.107400	-1.466025
0.107500	-1.493939
0.107600	-1.521204
0.107700	-1.526073
0.107800	-1.523801
0.107900	-1.499133
0.108000	-1.539056
0.108100	-1.537758
0.108200	-1.528994
0.108300	-1.526722
0.108400	-1.561452
0.108500	-1.573462
0.108600	-1.568918
0.108700	-1.563400
0.108800	-1.628641
0.108900	-1.618579
0.109000	-1.729911
0.109100	-1.989577
0.109200	-2.152193
0.109300	-2.020088
0.109400	-1.850331
0.109500	-1.798073
0.109600	-1.939267
0.109700	-2.262227
0.109800	-2.435230
0.109900	-2.375182
0.110000	-2.225224
0.110100	-2.120709
0.110200	-2.184652
0.110300	-2.388490
0.110400	-2.468013
0.110500	-2.530982
0.110600	-2.477426
0.110700	-2.455354
0.110800	-2.440748
0.110900	-2.486514
0.111000	-2.538447
0.111100	-2.536500
0.111200	-2.527412
0.111300	-2.526438
0.111400	-2.598171
0.111500	-2.671202
0.111600	-2.684185
0.111700	-2.668281
0.111800	-2.669255
0.111900	-2.691975
0.112000	-2.764682
0.112100	-2.674123
0.112200	-2.578047
0.112300	-2.476127
0.112400	-2.537474
0.112500	-2.707231
0.112600	-2.875041
0.112700	-2.855890
0.112800	-2.646534
0.112900	-2.475478
0.113000	-2.505015
0.113100	-2.678668
0.113200	-2.869523
0.113300	-2.916263
0.113400	-2.780911
0.113500	-2.691002
0.113600	-2.604662
0.113700	-2.653999
0.113800	-2.688080
0.113900	-2.685484
0.114000	-2.646858
0.114100	-2.629655
0.114200	-2.557273
0.114300	-2.512156
0.114400	-2.386867
0.114500	-2.271640
0.114600	-2.180107
0.114700	-2.180757
0.114800	-2.142131
0.114900	-2.123305
0.115000	-1.997692
0.115100	-1.832804
0.115200	-1.799047
0.115300	-1.580927
0.115400	-1.584173
0.115500	-1.540030
0.115600	-1.470894
0.115700	-1.355343
0.115800	-1.229080
0.115900	-1.145338
0.116000	-1.100221
0.116100	-1.078474
0.116200	-1.047963
0.116300	-1.014207
0.116400	-1.023620
0.116500	-1.012908
0.116600	-0.994083
0.116700	-0.969090
0.116800	-0.922999
0.116900	-0.908068
0.117000	-0.932087
0.117100	-0.943448
0.117200	-0.897682
0.117300	-0.834064
0.117400	-0.599391
0.117500	-0.335506
0.117600	-0.462093
0.117700	-0.691897
0.117800	-0.898980
0.117900	-0.726952
0.118000	-0.613997
0.118100	-0.341024
0.118200	-0.379324
0.118300	-0.467611
0.118400	-0.675343
0.118500	-0.578293
0.118600	-0.459821
0.118700	-0.326093
0.118800	-0.240728
0.118900	-0.377702
0.119000	-0.381921
0.119100	-0.455277
0.119200	-0.428985
0.119300	-0.427687
0.119400	-0.409835
0.119500	-0.434179
0.119600	-0.441644
0.119700	-0.502666
0.119800	-0.555572
0.119900	-0.580890
0.120000	-0.597768
0.120100	-0.652947
0.120200	-0.653596
0.120300	-0.601663
0.120400	-0.571477
0.120500	-0.678589
0.120600	-0.984670
0.120700	-1.008364
0.120800	-0.943123
0.120900	-0.754866
0.121000	-0.714942
0.121100	-0.809395
0.121200	-1.081395
0.121300	-1.183314
0.121400	-1.123591
0.121500	-0.937281
0.121600	-0.840880
0.121700	-0.928517
0.121800	-1.107037
0.121900	-1.168708
0.122000	-1.210254
0.122100	-1.168059
0.122200	-1.154426
0.122300	-1.224211
0.122400	-1.282312
0.122500	-1.357290
0.122600	-1.360536
0.122700	-1.370923
0.122800	-1.409548
0.122900	-1.413118
0.123000	-1.421882
0.123100	-1.407600
0.123200	-1.368326
0.123300	-1.416364
0.123400	-1.548794
0.123500	-1.604297
0.123600	-1.603973
0.123700	-1.449796
0.123800	-1.503028
0.123900	-1.535161
0.124000	-1.522178
0.124100	-1.531266
0.124200	-1.529643
0.124300	-1.539705
0.124400	-1.542302
0.124500	-1.564698
0.124600	-1.540030
0.124700	-1.567620
0.124800	-1.562751
0.124900	-1.580927
0.125000	-1.573137
0.125100	-1.577682
0.125200	-1.587419
0.125300	-1.598130
0.125400	-1.577032
0.125500	-1.635457
0.125600	-1.685768
0.125700	-1.843839
0.125800	-2.062608
0.125900	-2.151219
0.126000	-1.978541
0.126100	-1.752307
0.126200	-1.727314
0.126300	-1.968155
0.126400	-2.271315
0.126500	-2.402447
0.126600	-2.295984
0.126700	-2.141482
0.126800	-2.080785
0.126900	-2.186924
0.127000	-2.376156
0.127100	-2.527412
0.127200	-2.530008
0.127300	-2.461521
0.127400	-2.404719
0.127500	-2.416079
0.127600	-2.468662
0.127700	-2.502743
0.127800	-2.549159
0.127900	-2.515727
0.128000	-2.590056
0.128100	-2.631278
0.128200	-2.693274
0.128300	-2.626410
0.128400	-2.628682
0.128500	-2.658543
0.128600	-2.720539
0.128700	-2.725408
0.128800	-2.653025
0.128900	-2.499497
0.129000	-2.442695
0.129100	-2.549808
0.129200	-2.722811
0.129300	-2.848100
0.129400	-2.726057
0.129500	-2.543316
0.129600	-2.426791
0.129700	-2.519946
0.129800	-2.721837
0.129900	-2.883805
0.130000	-2.879585
0.130100	-2.761436
0.130200	-2.674448
0.130300	-2.639393
0.130400	-2.653025
0.130500	-2.705283
0.130600	-2.712749
0.130700	-2.677369
0.130800	-2.630954
0.130900	-2.591354
0.131000	-2.530333
0.131100	-2.406342
0.131200	-2.311564
0.131300	-2.243076
0.131400	-2.209969
0.131500	-2.191468
0.131600	-2.159334
0.131700	-1.982112
0.131800	-1.861367
0.131900	-1.667266
0.132000	-1.621500
0.132100	-1.580927
0.132200	-1.523476
0.132300	-1.451094
0.132400	-1.330350
0.132500	-1.172927
0.132600	-1.094054
0.132700	-1.069061
0.132800	-1.017453
0.132900	-0.994083
0.133000	-0.966169
0.133100	-1.007390
0.133200	-0.951562
0.133300	-0.928842
0.133400	-0.874636
0.133500	-0.908718
0.133600	-0.822054
0.133700	-0.914235
0.133800	-0.867171
0.133900	-0.905796
0.134000	-0.702283
0.134100	-0.527334
0.134200	-0.297530
0.134300	-0.580241
0.134400	-0.837959
0.134500	-0.791543
0.134600	-0.747076
0.134700	-0.426064
0.134800	-0.387764
0.134900	-0.318628
0.135000	-0.481892
0.135100	-0.629902
0.135200	-0.521816
0.135300	-0.429635
0.135400	-0.304346
0.135500	-0.357577
0.135600	-0.362446
0.135700	-0.453005
0.135800	-0.515973
0.135900	-0.437425
0.136000	-0.478971
0.136100	-0.459172
0.136200	-0.471506
0.136300	-0.436451
0.136400	-0.489033
0.136500	-0.455601
0.136600	-0.621463
0.136700	-0.583811
0.136800	-0.622112
0.136900	-0.569854
0.137000	-0.581214
0.137100	-0.568880
0.137200	-0.841854
0.137300	-1.009663
0.137400	-0.979801
0.137500	-0.858732
0.137600	-0.670474
0.137700	-0.705529
0.137800	-0.890216
0.137900	-1.126188
0.138000	-1.166760
0.138100	-1.075553
0.138200	-0.909367
0.138300	-0.873014
0.138400	-0.960651
0.138500	-1.114503
0.138600	-1.097624
0.138700	-1.173252
0.138800	-1.123591
0.138900	-1.172603
0.139000	-1.203438
0.139100	-1.272574
0.139200	-1.328402
0.139300	-1.305682
0.139400	-1.319314
0.139500	-1.366054
0.139600	-1.391696
0.139700	-1.401433
0.139800	-1.378713
0.139900	-1.337815
0.140000	-1.438760
0.140100	-1.564049
0.140200	-1.615982
0.140300	-1.566970
0.140400	-1.430646
0.140500	-1.498808
0.140600	-1.529968
0.140700	-1.503352
0.140800	-1.495562
0.140900	-1.487448
0.141000	-1.499782
0.141100	-1.489720
0.141200	-1.489720
0.141300	-1.482254
0.141400	-1.508870
0.141500	-1.516985
0.141600	-1.517309
0.141700	-1.516336
0.141800	-1.503028
0.141900	-1.469271
0.142000	-1.519581
0.142100	-1.533863
0.142200	-1.623772
0.142300	-1.694207
0.142400	-1.895123
0.142500	-2.077215
0.142600	-2.059687
0.142700	-1.878245
0.142800	-1.689013
0.142900	-1.763992
0.143000	-2.044107
0.143100	-2.308642
0.143200	-2.391736
0.143300	-2.258656
0.143400	-2.163878
0.143500	-2.151544
0.143600	-2.309941
0.143700	-2.478075
0.143800	-2.547860
0.143900	-2.505989
0.144000	-2.470934
0.144100	-2.432958
0.144200	-2.440423
0.144300	-2.493006
0.144400	-2.514428
0.144500	-2.499173
0.144600	-2.508261
0.144700	-2.581292
0.144800	-2.573502
0.144900	-2.637770
0.145000	-2.603364
0.145100	-2.626085
0.145200	-2.657245
0.145300	-2.703011
0.145400	-2.663087
0.145500	-2.539746
0.145600	-2.390437
0.145700	-2.468337
0.145800	-2.591354
0.145900	-2.791947
0.146000	-2.833494
0.146100	-2.651402
0.146200	-2.486839
0.146300	-2.438476
0.146400	-2.579994
0.146500	-2.787079
0.146600	-2.890296
0.146700	-2.829924
0.146800	-2.707231
0.146900	-2.634849
0.147000	-2.646534
0.147100	-2.684510
0.147200	-2.698143
0.147300	-2.671527
0.147400	-2.619269
0.147500	-2.576099
0.147600	-2.535526
0.147700	-2.456328
0.147800	-2.316432
0.147900	-2.199258
0.148000	-2.133043
0.148100	-2.132069
0.148200	-2.100584
0.148300	-2.007429
0.148400	-1.847410
0.148500	-1.793204
0.148600	-1.553663
0.148700	-1.589367
0.148800	-1.556584
0.148900	-1.483228
0.149000	-1.395591
0.149100	-1.297242
0.149200	-1.159295
0.149300	-1.149882
0.149400	-1.091457
0.149500	-1.099247
0.149600	-1.047963
0.149700	-1.067763
0.149800	-1.014207
0.149900	-0.982398
0.150000	-0.987916
0.150100	-0.901252
0.150200	-1.022970
0.150300	-0.897357
0.150400	-1.033032
0.150500	-0.890541
0.150600	-0.939553
0.150700	-0.691572
0.150800	-0.433205
0.150900	-0.468909
0.151000	-0.614971
0.151100	-0.947667
0.151200	-0.755839
0.151300	-0.672422
0.151400	-0.424117
0.151500	-0.382895
0.151600	-0.500718
0.151700	-0.648403
0.151800	-0.701310
0.151900	-0.526685
0.152000	-0.372508
0.152100	-0.317005
0.152200	-0.336155
0.152300	-0.473129
0.152400	-0.515000
0.152500	-0.529930
0.152600	-0.488709
0.152700	-0.454952
0.152800	-0.461444
0.152900	-0.484814
0.153000	-0.522140
0.153100	-0.534475
0.153200	-0.594198
0.153300	-0.621787
0.153400	-0.645806
0.153500	-0.690923
0.153600	-0.568231
0.153700	-0.626331
0.153800	-0.586408
0.153900	-0.931438
0.154000	-0.956756
0.154100	-0.933061
0.154200	-0.771419
0.154300	-0.536422
0.154400	-0.679238
0.154500	-0.805500
0.154600	-1.019725
0.154700	-0.967467
0.154800	-0.812641
0.154900	-0.679238
0.155000	-0.660412
0.155100	-0.791543
0.155200	-0.858407
0.155300	-0.860030
0.155400	-0.876584
0.155500	-0.834064
0.155600	-0.912613
0.155700	-0.928842
0.155800	-0.973959
0.155900	-0.979152
0.156000	-0.947018
0.156100	-0.935333
0.156200	-0.896383
0.156300	-0.885672
0.156400	-0.867171
0.156500	-0.841854
0.156600	-0.844450
0.156700	-0.986293
0.156800	-1.070684
0.156900	-1.075553
0.157000	-1.060622
0.157100	-1.027515
0.157200	-1.044393
0.157300	-1.038226
0.157400	-1.031734
0.157500	-1.019725
0.157600	-1.028488
0.157700	-1.034980
0.157800	-1.034980
0.157900	-1.058350
0.158000	-1.059648
0.158100	-1.065166
0.158200	-1.093729
0.158300	-1.065491
0.158400	-1.110608
0.158500	-1.100221
0.158600	-1.152479
0.158700	-1.161567
0.158800	-1.221615
0.158900	-1.297892
0.159000	-1.348526
0.159100	-1.637405
0.159200	-1.759448
0.159300	-1.721147
0.159400	-1.469271
0.159500	-1.414417
0.159600	-1.624746
0.159700	-1.892527
0.159800	-2.068451
0.159900	-2.012622
0.160000	-1.865911
0.160100	-1.773405
0.160200	-1.823066
0.160300	-2.039238
0.160400	-2.135639
0.160500	-2.195363
0.160600	-2.106102
0.160700	-2.110647
0.160800	-2.088575
0.160900	-2.129472
0.161000	-2.205425
0.161100	-2.250866
0.161200	-2.255086
0.161300	-2.292738
0.161400	-2.358628
0.161500	-2.414132
0.161600	-2.462819
0.161700	-2.457626
0.161800	-2.499822
0.161900	-2.566037
0.162000	-2.591030
0.162100	-2.535526
0.162200	-2.375506
0.162300	-2.284948
0.162400	-2.386867
0.162500	-2.555975
0.162600	-2.718267
0.162700	-2.686133
0.162800	-2.524490
0.162900	-2.390437
0.163000	-2.438476
0.163100	-2.600118
0.163200	-2.800386
0.163300	-2.827002
0.163400	-2.728978
0.163500	-2.626410
0.163600	-2.592653
0.163700	-2.611803
0.163800	-2.655297
0.163900	-2.677045
0.164000	-2.654973
0.164100	-2.610505
0.164200	-2.599145
0.164300	-2.569607
0.164400	-2.485216
0.164500	-2.365120
0.164600	-2.269043
0.164700	-2.252165
0.164800	-2.246322
0.164900	-2.229119
0.165000	-2.090522
0.165100	-1.934073
0.165200	-1.775352
0.165300	-1.669863
0.165400	-1.663696
0.165500	-1.597806
0.165600	-1.494913
0.165700	-1.409223
0.165800	-1.255696
0.165900	-1.160269
0.166000	-1.122942
0.166100	-1.083343
0.166200	-1.081720
0.166300	-1.075553
0.166400	-1.108660
0.166500	-1.078474
0.166600	-1.033682
0.166700	-1.086913
0.166800	-1.026216
0.166900	-1.069386
0.167000	-1.067438
0.167100	-1.098923
0.167200	-1.106063
0.167300	-0.985643
0.167400	-0.819133
0.167500	-0.512403
0.167600	-0.628928
0.167700	-0.972660
0.167800	-0.976555
0.167900	-0.958703
0.168000	-0.677940
0.168100	-0.546809
0.168200	-0.490981
0.168300	-0.634446
0.168400	-0.821080
0.168500	-0.721434
0.168600	-0.689300
0.168700	-0.460470
0.168800	-0.479620
0.168900	-0.434503
0.169000	-0.467935
0.169100	-0.442942
0.169200	-0.490981
0.169300	-0.455601
0.169400	-0.450083
0.169500	-0.430608
0.169600	-0.449759
0.169700	-0.421196
0.169800	-0.459496
0.169900	-0.428661
0.170000	-0.581864
0.170100	-0.510780
0.170200	-0.561739
0.170300	-0.431582
0.170400	-0.463391
0.170500	-0.531878
0.170600	-0.770770
0.170700	-0.825625
0.170800	-0.720460
0.170900	-0.505262
0.171000	-0.496174
0.171100	-0.622761
0.171200	-0.861978
0.171300	-0.928842
0.171400	-0.824326
0.171500	-0.617243
0.171600	-0.555572
0.171700	-0.653272
0.171800	-0.800307
0.171900	-0.819782
0.172000	-0.783104
0.172100	-0.716240
0.172200	-0.692221
0.172300	-0.757462
0.172400	-0.815563
0.172500	-0.808746
0.172600	-0.745128
0.172700	-0.774665
0.172800	-0.796737
0.172900	-0.829195
0.173000	-0.798360
0.173100	-0.781481
0.173200	-0.747076
0.173300	-0.801605
0.173400	-0.935333
0.173500	-0.985319
0.173600	-0.967467
0.173700	-0.947018
0.173800	-0.895085
0.173900	-0.926570
0.174000	-0.890216
0.174100	-0.916832
0.174200	-0.918780
0.174300	-0.924297
0.174400	-0.932087
0.174500	-0.891515
0.174600	-0.913911
0.174700	-0.913586
0.174800	-0.944097
0.174900	-0.940527
0.175000	-0.942149
0.175100	-0.936632
0.175200	-0.939228
0.175300	-0.989863
0.175400	-0.991811
0.175500	-1.059973
0.175600	-1.073605
0.175700	-1.276794
0.175800	-1.523801
0.175900	-1.539056
0.176000	-1.430646
0.176100	-1.254398
0.176200	-1.277767
0.176300	-1.563075
0.176400	-1.836374
0.176500	-1.964909
0.176600	-1.812355
0.176700	-1.713357
0.176800	-1.677328
0.176900	-1.833453
0.177000	-2.021711
0.177100	-2.093768
0.177200	-2.123630
0.177300	-1.981787
0.177400	-2.035343
0.177500	-2.021711
0.177600	-2.100260
0.177700	-2.155764
0.177800	-2.131420
0.177900	-2.158360
0.178000	-2.133692
0.178100	-2.225874
0.178200	-2.266446
0.178300	-2.275535
0.178400	-2.288518
0.178500	-2.314485
0.178600	-2.385569
0.178700	-2.405368
0.178800	-2.303124
0.178900	-2.162580
0.179000	-2.158360
0.179100	-2.248594
0.179200	-2.477750
0.179300	-2.580319
0.179400	-2.456328
0.179500	-2.253788
0.179600	-2.144403
0.179700	-2.278131
0.179800	-2.497550
0.179900	-2.675422
0.180000	-2.647507
0.180100	-2.489760
0.180200	-2.409588
0.180300	-2.399526
0.180400	-2.466390
0.180500	-2.523517
0.180600	-2.520595
0.180700	-2.526762
0.180800	-2.459898
0.180900	-2.456003
0.181000	-2.423545
0.181100	-2.341425
0.181200	-2.252489
0.181300	-2.173940
0.181400	-2.184976
0.181500	-2.165177
0.181600	-2.110322
0.181700	-1.936670
0.181800	-1.804889
0.181900	-1.570216
0.182000	-1.599753
0.182100	-1.577357
0.182200	-1.501729
0.182300	-1.422531
0.182400	-1.318016
0.182500	-1.184937
0.182600	-1.101195
0.182700	-1.115476
0.182800	-1.083018
0.182900	-1.095028
0.183000	-1.058999
0.183100	-1.065491
0.183200	-1.061271
0.183300	-1.005443
0.183400	-1.011610
0.183500	-0.986617
0.183600	-0.955133
0.183700	-0.983047
0.183800	-0.994732
0.183900	-0.944746
0.184000	-0.801930
0.184100	-0.644183
0.184200	-0.370236
0.184300	-0.643209
0.184400	-0.809720
0.184500	-0.864574
0.184600	-0.686379
0.184700	-0.496174
0.184800	-0.326742
0.184900	-0.405940
0.185000	-0.556546
0.185100	-0.587057
0.185200	-0.524737
0.185300	-0.373157
0.185400	-0.199506
0.185500	-0.233912
0.185600	-0.265072
0.185700	-0.299477
0.185800	-0.276757
0.185900	-0.296556
0.186000	-0.240079
0.186100	-0.212165
0.186200	-0.208594
0.186300	-0.222876
0.186400	-0.249492
0.186500	-0.253387
0.186600	-0.269616
0.186700	-0.376079
0.186800	-0.316356
0.186900	-0.307592
0.187000	-0.255983
0.187100	-0.292337
0.187200	-0.524737
0.187300	-0.715267
0.187400	-0.688002
0.187500	-0.580890
0.187600	-0.335831
0.187700	-0.420546
0.187800	-0.531553
0.187900	-0.768823
0.188000	-0.762980
0.188100	-0.633472
0.188200	-0.441644
0.188300	-0.403993
0.188400	-0.481568
0.188500	-0.620164
0.188600	-0.599391
0.188700	-0.656842
0.188800	-0.569854
0.188900	-0.601014
0.189000	-0.630875
0.189100	-0.692871
0.189200	-0.743505
0.189300	-0.712995
0.189400	-0.744154
0.189500	-0.760708
0.189600	-0.746751
0.189700	-0.749023
0.189800	-0.700985
0.189900	-0.704555
0.190000	-0.799658
0.190100	-0.882426
0.190200	-0.931763
0.190300	-0.909691
0.190400	-0.780832
0.190500	-0.845749
0.190600	-0.853863
0.190700	-0.838608
0.190800	-0.835362
0.190900	-0.845099
0.191000	-0.834064
0.191100	-0.811343
0.191200	-0.813940
0.191300	-0.808746
0.191400	-0.837309
0.191500	-0.837959
0.191600	-0.832441
0.191700	-0.859056
0.191800	-0.873663
0.191900	-0.861653
0.192000	-0.889243
0.192100	-0.864899
0.192200	-0.939553
0.192300	-0.986942
0.192400	-1.265758
0.192500	-1.448498
0.192600	-1.424154
0.192700	-1.246283
0.192800	-1.154426
0.192900	-1.212202
0.193000	-1.555610
0.193100	-1.744842
0.193200	-1.804889
0.193300	-1.618904
0.193400	-1.535161
0.193500	-1.585472
0.193600	-1.778598
0.193700	-1.930503
0.193800	-2.015868
0.193900	-1.952899
0.194000	-1.882465
0.194100	-1.917520
0.194200	-1.975295
0.194300	-2.052546
0.194400	-2.092470
0.194500	-2.122656
0.194600	-2.148947
0.194700	-2.226847
0.194800	-2.289492
0.194900	-2.362848
0.195000	-2.357330
0.195100	-2.318704
0.195200	-2.404719
0.195300	-2.406342
0.195400	-2.428414
0.195500	-2.297931
0.195600	-2.170045
0.195700	-2.239831
0.195800	-2.377779
0.195900	-2.566686
0.196000	-2.579345
0.196100	-2.433607
0.196200	-2.270666
0.196300	-2.253788
0.196400	-2.412184
0.196500	-2.618295
0.196600	-2.691002
0.196700	-2.640691
0.196800	-2.526438
0.196900	-2.466065
0.197000	-2.467364
0.197100	-2.507937
0.197200	-2.557598
0.197300	-2.533254
0.197400	-2.541369
0.197500	-2.518648
0.197600	-2.459249
0.197700	-2.374857
0.197800	-2.238532
0.197900	-2.170694
0.198000	-2.139534
0.198100	-2.120384
0.198200	-2.137912
0.198300	-2.012298
0.198400	-1.872727
0.198500	-1.801644
0.198600	-1.569892
0.198700	-1.582226
0.198800	-1.540679
0.198900	-1.484526
0.199000	-1.387801
0.199100	-1.250503
0.199200	-1.176173
0.199300	-1.140794
0.199400	-1.129109
0.199500	-1.147610
0.199600	-1.102168
0.199700	-1.165787
0.199800	-1.116775
0.199900	-1.089185
0.200000	-1.042770
0.200100	-1.002522
0.200200	-1.020374
0.200300	-1.016479
0.200400	-1.092756
0.200500	-1.044068
0.200600	-0.998627
0.200700	-0.768174
0.200800	-0.481243
0.200900	-0.498771
0.201000	-0.722407
0.201100	-0.906770
0.201200	-0.870092
0.201300	-0.682159
0.201400	-0.451382
0.201500	-0.461768
0.201600	-0.511429
0.201700	-0.671773
0.201800	-0.702933
0.201900	-0.580890
0.202000	-0.365692
0.202100	-0.333558
0.202200	-0.284547
0.202300	-0.356604
0.202400	-0.309864
0.202500	-0.341348
0.202600	-0.335831
0.202700	-0.311487
0.202800	-0.301100
0.202900	-0.310513
0.203000	-0.268642
0.203100	-0.210867
0.203200	-0.362122
0.203300	-0.372833
0.203400	-0.458522
0.203500	-0.484814
0.203600	-0.392957
0.203700	-0.390360
0.203800	-0.418274
0.203900	-0.700336
0.204000	-0.772393
0.204100	-0.685405
0.204200	-0.574398
0.204300	-0.391983
0.204400	-0.528957
0.204500	-0.706503
0.204600	-0.838608
0.204700	-0.773367
0.204800	-0.575696
0.204900	-0.467935
0.205000	-0.479296
0.205100	-0.607830
0.205200	-0.649701
0.205300	-0.613997
0.205400	-0.673071
0.205500	-0.617243
0.205600	-0.676641
0.205700	-0.693844
0.205800	-0.718512
0.205900	-0.701959
0.206000	-0.693844
0.206100	-0.714293
0.206200	-0.743181
0.206300	-0.743505
0.206400	-0.705854
0.206500	-0.686379
0.206600	-0.686703
0.206700	-0.830818
0.206800	-0.894111
0.206900	-0.909042
0.207000	-0.763629
0.207100	-0.768498
0.207200	-0.829520
0.207300	-0.826598
0.207400	-0.830493
0.207500	-0.848021
0.207600	-0.846398
0.207700	-0.842503
0.207800	-0.824975
0.207900	-0.825300
0.208000	-0.832441
0.208100	-0.828221
0.208200	-0.825300
0.208300	-0.831467
0.208400	-0.843477
0.208500	-0.848994
0.208600	-0.869443
0.208700	-0.903524
0.208800	-0.938255
0.208900	-0.974283
0.209000	-1.154426
0.209100	-1.414092
0.209200	-1.503028
0.209300	-1.407276
0.209400	-1.226159
0.209500	-1.152803
0.209600	-1.352421
0.209700	-1.661099
0.209800	-1.790608
0.209900	-1.778274
0.210000	-1.603973
0.210100	-1.536460
0.210200	-1.647467
0.210300	-1.815925
0.210400	-1.964584
0.210500	-2.005157
0.210600	-1.919467
0.210700	-1.914923
0.210800	-1.932451
0.210900	-1.996393
0.211000	-2.042809
0.211100	-2.058064
0.211200	-2.072021
0.211300	-2.080460
0.211400	-2.169072
0.211500	-2.212241
0.211600	-2.189520
0.211700	-2.228795
0.211800	-2.275535
0.211900	-2.349540
0.212000	-2.377129
0.212100	-2.339802
0.212200	-2.153816
0.212300	-2.101234
0.212400	-2.208022
0.212500	-2.387841
0.212600	-2.539097
0.212700	-2.463793
0.212800	-2.307344
0.212900	-2.186599
0.213000	-2.246971
0.213100	-2.436528
0.213200	-2.621865
0.213300	-2.672500
0.213400	-2.574476
0.213500	-2.478724
0.213600	-2.422571
0.213700	-2.433931
0.213800	-2.477750
0.213900	-2.509235
0.214000	-2.503392
0.214100	-2.449187
0.214200	-2.413483
0.214300	-2.383946
0.214400	-2.294685
0.214500	-2.177835
0.214600	-2.097663
0.214700	-2.061635
0.214800	-2.020412
0.214900	-2.025930
0.215000	-1.893501
0.215100	-1.755228
0.215200	-1.573462
0.215300	-1.495887
0.215400	-1.475438
0.215500	-1.429672
0.215600	-1.337166
0.215700	-1.259591
0.215800	-1.131056
0.215900	-1.062245
0.216000	-1.044717
0.216100	-1.051534
0.216200	-1.027839
0.216300	-1.049586
0.216400	-1.069710
0.216500	-1.055429
0.216600	-0.995381
0.216700	-0.994407
0.216800	-0.969739
0.216900	-0.962598
0.217000	-0.989863
0.217100	-0.977204
0.217200	-1.024593
0.217300	-0.775639
0.217400	-0.668202
0.217500	-0.352060
0.217600	-0.548432
0.217700	-0.718837
0.217800	-0.873338
0.217900	-0.771744
0.218000	-0.538694
0.218100	-0.346542
0.218200	-0.316031
0.218300	-0.507534
0.218400	-0.618866
0.218500	-0.522790
0.218600	-0.473129
0.218700	-0.260852
0.218800	-0.246895
0.218900	-0.243649
0.219000	-0.347191
0.219100	-0.349138
0.219200	-0.306943
0.219300	-0.285520
0.219400	-0.287143
0.219500	-0.233587
0.219600	-0.254685
0.219700	-0.206322
0.219800	-0.204050
0.219900	-0.307916
0.220000	-0.340699
0.220100	-0.323821
0.220200	-0.289091
0.220300	-0.203077
0.220400	-0.198208
0.220500	-0.344919
0.220600	-0.605558
0.220700	-0.587381
0.220800	-0.514026
0.220900	-0.274160
0.221000	-0.292337
0.221100	-0.417301
0.221200	-0.619840
0.221300	-0.687353
0.221400	-0.585109
0.221500	-0.380298
0.221600	-0.303372
0.221700	-0.376728
0.221800	-0.505911
0.221900	-0.492604
0.222000	-0.490331
0.222100	-0.465988
0.222200	-0.485787
0.222300	-0.544537
0.222400	-0.564985
0.222500	-0.553300
0.222600	-0.515649
0.222700	-0.517272
0.222800	-0.573749
0.222900	-0.580890
0.223000	-0.564985
0.223100	-0.526685
0.223200	-0.480269
0.223300	-0.561090
0.223400	-0.698713
0.223500	-0.757462
0.223600	-0.763954
0.223700	-0.733119
0.223800	-0.687353
0.223900	-0.693844
0.224000	-0.687028
0.224100	-0.658789
0.224200	-0.653596
0.224300	-0.678264
0.224400	-0.676317
0.224500	-0.671448
0.224600	-0.675019
0.224700	-0.693520
0.224800	-0.696441
0.224900	-0.695467
0.225000	-0.713319
0.225100	-0.703582
0.225200	-0.686379
0.225300	-0.732794
0.225400	-0.728250
0.225500	-0.809720
0.225600	-0.820107
0.225700	-1.044717
0.225800	-1.330350
0.225900	-1.347877
0.226000	-1.224211
0.226100	-1.042445
0.226200	-1.056078
0.226300	-1.300164
0.226400	-1.612087
0.226500	-1.688040
0.226600	-1.567944
0.226700	-1.416040
0.226800	-1.417338
0.226900	-1.590340
0.227000	-1.781195
0.227100	-1.909730
0.227200	-1.890904
0.227300	-1.847734
0.227400	-1.826312
0.227500	-1.893176
0.227600	-1.929205
0.227700	-1.966207
0.227800	-1.967830
0.227900	-1.995420
0.228000	-2.080785
0.228100	-2.118437
0.228200	-2.145377
0.228300	-2.164203
0.228400	-2.162904
0.228500	-2.238532
0.228600	-2.288843
0.228700	-2.301826
0.228800	-2.217110
0.228900	-2.044107
0.229000	-2.054818
0.229100	-2.186274
0.229200	-2.390762
0.229300	-2.485216
0.229400	-2.351812
0.229500	-2.161606
0.229600	-2.098962
0.229700	-2.235936
0.229800	-2.430036
0.229900	-2.572853
0.230000	-2.543641
0.230100	-2.434256
0.230200	-2.335583
0.230300	-2.329091
0.230400	-2.378103
0.230500	-2.400824
0.230600	-2.387841
0.230700	-2.361549
0.230800	-2.351487
0.230900	-2.333311
0.231000	-2.272614
0.231100	-2.168422
0.231200	-2.026904
0.231300	-1.985682
0.231400	-1.974322
0.231500	-1.961338
0.231600	-1.893176
0.231700	-1.716603
0.231800	-1.640651
0.231900	-1.405977
0.232000	-1.419610
0.232100	-1.390398
0.232200	-1.330674
0.232300	-1.231677
0.232400	-1.122942
0.232500	-1.001873
0.232600	-0.962598
0.232700	-0.898331
0.232800	-0.953834
0.232900	-0.881453
0.233000	-0.903849
0.233100	-0.840880
0.233200	-0.877558
0.233300	-0.834388
0.233400	-0.808422
0.233500	-0.796088
0.233600	-0.767849
0.233700	-0.839257
0.233800	-0.842827
0.233900	-0.820107
0.234000	-0.618217
0.234100	-0.393281
0.234200	-0.223850
0.234300	-0.488384
0.234400	-0.780183
0.234500	-0.649701
0.234600	-0.591276
0.234700	-0.304995
0.234800	-0.213139
0.234900	-0.306943
0.235000	-0.469234
0.235100	-0.532527
0.235200	-0.432556
0.235300	-0.331936
0.235400	-0.179382
0.235500	-0.261826
0.235600	-0.274160
0.235700	-0.348489
0.235800	-0.285845
0.235900	-0.290714
0.236000	-0.233912
0.236100	-0.245921
0.236200	-0.219955
0.236300	-0.273511
0.236400	-0.250466
0.236500	-0.351086
0.236600	-0.359200
0.236700	-0.448136
0.236800	-0.508833
0.236900	-0.460145
0.237000	-0.361148
0.237100	-0.366666
0.237200	-0.633472
0.237300	-0.760059
0.237400	-0.776613
0.237500	-0.646455
0.237600	-0.463391
0.237700	-0.494876
0.237800	-0.697739
0.237900	-0.850942
0.238000	-0.868469
0.238100	-0.685081
0.238200	-0.519544
0.238300	-0.503964
0.238400	-0.645806
0.238500	-0.748699
0.238600	-0.722732
0.238700	-0.730197
0.238800	-0.644508
0.238900	-0.696116
0.239000	-0.733443
0.239100	-0.780508
0.239200	-0.766226
0.239300	-0.737987
0.239400	-0.752918
0.239500	-0.779534
0.239600	-0.799658
0.239700	-0.776288
0.239800	-0.749997
0.239900	-0.738637
0.240000	-0.890866
0.240100	-0.965195
0.240200	-0.966493
0.240300	-0.952861
0.240400	-0.824651
0.240500	-0.907744
0.240600	-0.882102
0.240700	-0.862627
0.240800	-0.847047
0.240900	-0.849319
0.241000	-0.836985
0.241100	-0.833415
0.241200	-0.841204
0.241300	-0.826923
0.241400	-0.821730
0.241500	-0.824326
0.241600	-0.816861
0.241700	-0.850617
0.241800	-0.821405
0.241900	-0.859056
0.242000	-0.901252
0.242100	-0.934684
0.242200	-1.007066
0.242300	-1.073281
0.242400	-1.336517
0.242500	-1.488097
0.242600	-1.480631
0.242700	-1.234923
0.242800	-1.182016
0.242900	-1.283610
0.243000	-1.584498
0.243100	-1.842216
0.243200	-1.849682
0.243300	-1.731858
0.243400	-1.611114
0.243500	-1.668240
0.243600	-1.855524
0.243700	-1.998990
0.243800	-2.062284
0.243900	-2.044107
0.244000	-2.003534
0.244100	-2.016193
0.244200	-2.026255
0.244300	-2.066179
0.244400	-2.113243
0.244500	-2.145377
0.244600	-2.146351
0.244700	-2.177186
0.244800	-2.238208
0.244900	-2.229769
0.245000	-2.270017
0.245100	-2.344671
0.245200	-2.349540
0.245300	-2.388490
0.245400	-2.356356
0.245500	-2.221005
0.245600	-2.079811
0.245700	-2.148298
0.245800	-2.313836
0.245900	-2.500471
0.246000	-2.479698
0.246100	-2.348891
0.246200	-2.173616
0.246300	-2.169396
0.246400	-2.364471
0.246500	-2.583564
0.246600	-2.655297
0.246700	-2.567984
0.246800	-2.452433
0.246900	-2.397578
0.247000	-2.407640
0.247100	-2.498524
0.247200	-2.522543
0.247300	-2.486514
0.247400	-2.462819
0.247500	-2.412509
0.247600	-2.381674
0.247700	-2.313186
0.247800	-2.216785
0.247900	-2.144403
0.248000	-2.116164
0.248100	-2.072670
0.248200	-2.017816
0.248300	-1.854226
0.248400	-1.715629
0.248500	-1.679601
0.248600	-1.492641
0.248700	-1.481605
0.248800	-1.447849
0.248900	-1.364106
0.249000	-1.272250
0.249100	-1.137548
0.249200	-1.026865
0.249300	-0.980775
0.249400	-0.982722
0.249500	-0.937605
0.249600	-0.974932
0.249700	-0.977529
0.249800	-0.960326
0.249900	-0.926894
0.250000	-0.905796
0.250100	-0.882102
0.250200	-0.855486
0.250300	-0.773042
0.250400	-0.915534
0.250500	-0.763305
0.250600	-0.788298
0.250700	-0.536097
0.250800	-0.350437
0.250900	-0.283248
0.251000	-0.674369
0.251100	-0.787324
0.251200	-0.674694
0.251300	-0.475076
0.251400	-0.245921
0.251500	-0.233912
0.251600	-0.273511
0.251700	-0.508833
0.251800	-0.414704
0.251900	-0.321873
0.252000	-0.126800
0.252100	-0.168996
0.252200	-0.104404
0.252300	-0.205349
0.252400	-0.195936
0.252500	-0.183926
0.252600	-0.171917
0.252700	-0.146275
0.252800	-0.117387
0.252900	-0.106027
0.253000	-0.138485
0.253100	-0.099210
0.253200	-0.179382
0.253300	-0.209568
0.253400	-0.259878
0.253500	-0.212814
0.253600	-0.178733
0.253700	-0.180680
0.253800	-0.208919
0.253900	-0.494876
0.254000	-0.518570
0.254100	-0.475725
0.254200	-0.254360
0.254300	-0.198857
0.254400	-0.313759
0.254500	-0.534475
0.254600	-0.643859
0.254700	-0.549405
0.254800	-0.364394
0.254900	-0.282599
0.255000	-0.341024
0.255100	-0.470532
0.255200	-0.525062
0.255300	-0.480594
0.255400	-0.521816
0.255500	-0.460470
0.255600	-0.527009
0.255700	-0.519868
0.255800	-0.560441
0.255900	-0.545510
0.256000	-0.525386
0.256100	-0.576346
0.256200	-0.589329
0.256300	-0.571477
0.256400	-0.567257
0.256500	-0.524737
0.256600	-0.579916
0.256700	-0.675343
0.256800	-0.749023
0.256900	-0.774016
0.257000	-0.702608
0.257100	-0.672422
0.257200	-0.680212
0.257300	-0.677291
0.257400	-0.681510
0.257500	-0.680861
0.257600	-0.684107
0.257700	-0.682808
0.257800	-0.671124
0.257900	-0.696766
0.258000	-0.703257
0.258100	-0.710723
0.258200	-0.694493
0.258300	-0.702933
0.258400	-0.750971
0.258500	-0.753243
0.258600	-0.778236
0.258700	-0.827247
0.258800	-0.821080
0.258900	-0.893462
0.259000	-1.019075
0.259100	-1.343982
0.259200	-1.353071
0.259300	-1.275495
0.259400	-1.074904
0.259500	-1.046665
0.259600	-1.308603
0.259700	-1.585147
0.259800	-1.713033
0.259900	-1.667266
0.260000	-1.524125
0.260100	-1.493290
0.260200	-1.593586
0.260300	-1.767887
0.260400	-1.906159
0.260500	-1.897071
0.260600	-1.805863
0.260700	-1.834751
0.260800	-1.854875
0.260900	-1.934723
0.261000	-1.949004
0.261100	-1.981787
0.261200	-1.981463
0.261300	-2.013272
0.261400	-2.095716
0.261500	-2.154465
0.261600	-2.148623
0.261700	-2.170694
0.261800	-2.175239
0.261900	-2.238857
0.262000	-2.248270
0.262100	-2.200881
0.262200	-2.055467
0.262300	-2.018465
0.262400	-2.128174
0.262500	-2.315134
0.262600	-2.470609
0.262700	-2.395955
0.262800	-2.206399
0.262900	-2.104155
0.263000	-2.184002
0.263100	-2.382647
0.263200	-2.564739
0.263300	-2.570581
0.263400	-2.467364
0.263500	-2.344346
0.263600	-2.346943
0.263700	-2.396604
0.263800	-2.460547
0.263900	-2.496576
0.264000	-2.420299
0.264100	-2.384919
0.264200	-2.329740
0.264300	-2.307344
0.264400	-2.276833
0.264500	-2.143754
0.264600	-2.075916
0.264700	-2.034370
0.264800	-2.011649
0.264900	-2.007754
0.265000	-1.851954
0.265100	-1.707190
0.265200	-1.425128
0.265300	-1.390398
0.265400	-1.389748
0.265500	-1.317042
0.265600	-1.239467
0.265700	-1.113529
0.265800	-0.985319
0.265900	-0.923648
0.266000	-0.859706
0.266100	-0.886646
0.266200	-0.879181
0.266300	-0.875286
0.266400	-0.923324
0.266500	-0.849968
0.266600	-0.885672
0.266700	-0.788298
0.266800	-0.836660
0.266900	-0.749997
0.267000	-0.879505
0.267100	-0.820107
0.267200	-0.874961
0.267300	-0.701634
0.267400	-0.530580
0.267500	-0.282924
0.267600	-0.502016
0.267700	-0.750322
0.267800	-0.752269
0.267900	-0.698064
0.268000	-0.440995
0.268100	-0.302074
0.268200	-0.261501
0.268300	-0.472804
0.268400	-0.566284
0.268500	-0.443592
0.268600	-0.297854
0.268700	-0.096938
0.268800	-0.086876
0.268900	-0.078437
0.269000	-0.241377
0.269100	-0.150494
0.269200	-0.153091
0.269300	-0.096614
0.269400	-0.135888
0.269500	-0.089798
0.269600	-0.174189
0.269700	-0.094666
0.269800	-0.136213
0.269900	-0.132642
0.270000	-0.166399
0.270100	-0.251439
0.270200	-0.157635
0.270300	-0.157960
0.270400	-0.121931
0.270500	-0.383869
0.270600	-0.538694
0.270700	-0.536747
0.270800	-0.445864
0.270900	-0.229692
0.271000	-0.235859
0.271100	-0.393606
0.271200	-0.608804
0.271300	-0.656842
0.271400	-0.547458
0.271500	-0.339725
0.271600	-0.300127
0.271700	-0.385816
0.271800	-0.537071
0.271900	-0.546809
0.272000	-0.558494
0.272100	-0.507210
0.272200	-0.501367
0.272300	-0.560441
0.272400	-0.593873
0.272500	-0.609453
0.272600	-0.589329
0.272700	-0.577319
0.272800	-0.590303
0.272900	-0.638990
0.273000	-0.602637
0.273100	-0.574398
0.273200	-0.537396
0.273300	-0.616594
0.273400	-0.733768
0.273500	-0.752269
0.273600	-0.753567
0.273700	-0.646131
0.273800	-0.651973
0.273900	-0.646455
0.274000	-0.621787
0.274100	-0.645806
0.274200	-0.613997
0.274300	-0.625357
0.274400	-0.629252
0.274500	-0.616918
0.274600	-0.649052
0.274700	-0.629577
0.274800	-0.664956
0.274900	-0.657491
0.275000	-0.686703
0.275100	-0.691897
0.275200	-0.691897
0.275300	-0.718837
0.275400	-0.762980
0.275500	-0.796412
0.275600	-0.840231
0.275700	-1.071658
0.275800	-1.272899
0.275900	-1.301787
0.276000	-1.140145
0.276100	-0.959028
0.276200	-1.041472
0.276300	-1.286207
0.276400	-1.583524
0.276500	-1.628641
0.276600	-1.550092
0.276700	-1.397214
0.276800	-1.378388
0.276900	-1.536460
0.277000	-1.718875
0.277100	-1.856498
0.277200	-1.798398
0.277300	-1.750360
0.277400	-1.707839
0.277500	-1.779572
0.277600	-1.846761
0.277700	-1.860393
0.277800	-1.870455
0.277900	-1.894150
0.278000	-1.935696
0.278100	-1.972699
0.278200	-2.037615
0.278300	-2.020412
0.278400	-2.051897
0.278500	-2.106752
0.278600	-2.164852
0.278700	-2.149272
0.278800	-2.007105
0.278900	-1.873376
0.279000	-1.905835
0.279100	-2.079162
0.279200	-2.285921
0.279300	-2.361874
0.279400	-2.216461
0.279500	-2.015219
0.279600	-1.972699
0.279700	-2.094742
0.279800	-2.324222
0.279900	-2.466714
0.280000	-2.417053
0.280100	-2.301501
0.280200	-2.187573
0.280300	-2.158360
0.280400	-2.216136
0.280500	-2.282351
0.280600	-2.272289
0.280700	-2.235611
0.280800	-2.191143
0.280900	-2.191143
0.281000	-2.127200
0.281100	-2.034045
0.281200	-1.914598
0.281300	-1.849682
0.281400	-1.828909
0.281500	-1.845138
0.281600	-1.755228
0.281700	-1.565023
0.281800	-1.416364
0.281900	-1.228756
0.282000	-1.256670
0.282100	-1.245309
0.282200	-1.158970
0.282300	-1.070684
0.282400	-0.946694
0.282500	-0.821080
0.282600	-0.805825
0.282700	-0.752269
0.282800	-0.737987
0.282900	-0.716565
0.283000	-0.755190
0.283100	-0.718837
0.283200	-0.698064
0.283300	-0.680536
0.283400	-0.633147
0.283500	-0.670799
0.283600	-0.618541
0.283700	-0.678914
0.283800	-0.632498
0.283900	-0.601663
0.284000	-0.477024
0.284100	-0.150170
0.284200	-0.135239
0.284300	-0.293959
0.284400	-0.615620
0.284500	-0.464365
0.284600	-0.407238
0.284700	-0.087201
0.284800	0.004980
0.284900	-0.071296
0.285000	-0.270914
0.285100	-0.371535
0.285200	-0.267344
0.285300	-0.074542
0.285400	0.026403
0.285500	-0.031373
0.285600	-0.057015
0.285700	-0.066103
0.285800	-0.128423
0.285900	-0.096938
0.286000	-0.069349
0.286100	-0.048251
0.286200	-0.042409
0.286300	-0.001836
0.286400	-0.039812
0.286500	-0.074542
0.286600	-0.160881
0.286700	-0.138809
0.286800	-0.181979
0.286900	-0.052146
0.287000	-0.051822
0.287100	-0.047602
0.287200	-0.309539
0.287300	-0.431907
0.287400	-0.394904
0.287500	-0.250790
0.287600	-0.089473
0.287700	-0.148222
0.287800	-0.310513
0.287900	-0.521167
0.288000	-0.518570
0.288100	-0.359200
0.288200	-0.181005
0.288300	-0.156986
0.288400	-0.279678
0.288500	-0.384193
0.288600	-0.383219
0.288700	-0.391983
0.288800	-0.316680
0.288900	-0.365367
0.289000	-0.381921
0.289100	-0.420871
0.289200	-0.414704
0.289300	-0.381597
0.289400	-0.432556
0.289500	-0.459821
0.289600	-0.485787
0.289700	-0.448460
0.289800	-0.422818
0.289900	-0.422169
0.290000	-0.577319
0.290100	-0.657816
0.290200	-0.701959
0.290300	-0.662035
0.290400	-0.623085
0.290500	-0.626980
0.290600	-0.612050
0.290700	-0.583486
0.290800	-0.574398
0.290900	-0.587057
0.291000	-0.556222
0.291100	-0.552002
0.291200	-0.536747
0.291300	-0.553300
0.291400	-0.530580
0.291500	-0.576995
0.291600	-0.542589
0.291700	-0.561415
0.291800	-0.526360
0.291900	-0.553625
0.292000	-0.560441
0.292100	-0.618217
0.292200	-0.646455
0.292300	-0.781806
0.292400	-1.006741
0.292500	-1.215448
0.292600	-1.139171
0.292700	-0.946694
0.292800	-0.791219
0.292900	-0.976555
0.293000	-1.292049
0.293100	-1.541653
0.293200	-1.546197
0.293300	-1.429672
0.293400	-1.345281
0.293500	-1.416040
0.293600	-1.601052
0.293700	-1.760746
0.293800	-1.803591
0.293900	-1.733481
0.294000	-1.705892
0.294100	-1.717252
0.294200	-1.749061
0.294300	-1.785415
0.294400	-1.787687
0.294500	-1.817873
0.294600	-1.849033
0.294700	-1.912976
0.294800	-1.954522
0.294900	-1.923687
0.295000	-1.922713
0.295100	-1.965558
0.295200	-2.014570
0.295300	-2.079487
0.295400	-2.035668
0.295500	-1.935696
0.295600	-1.833128
0.295700	-1.911677
0.295800	-2.073320
0.295900	-2.290141
0.296000	-2.230742
0.296100	-2.096689
0.296200	-1.913300
0.296300	-1.924985
0.296400	-2.083057
0.296500	-2.297282
0.296600	-2.388814
0.296700	-2.299879
0.296800	-2.181730
0.296900	-2.132069
0.297000	-2.159983
0.297100	-2.222303
0.297200	-2.252165
0.297300	-2.250542
0.297400	-2.245349
0.297500	-2.199258
0.297600	-2.188547
0.297700	-2.115840
0.297800	-1.979515
0.297900	-1.902913
0.298000	-1.877271
0.298100	-1.838971
0.298200	-1.857472
0.298300	-1.729262
0.298400	-1.581577
0.298500	-1.418636
0.298600	-1.261863
0.298700	-1.265109
0.298800	-1.214474
0.298900	-1.125538
0.299000	-1.038550
0.299100	-0.911963
0.299200	-0.785052
0.299300	-0.732145
0.299400	-0.700336
0.299500	-0.702283
0.299600	-0.688326
0.299700	-0.686379
0.299800	-0.713644
0.299900	-0.614646
0.300000	-0.661711
0.300100	-0.579267
0.300200	-0.649701
0.300300	-0.566608
0.300400	-0.686054
0.300500	-0.650026
0.300600	-0.558169
0.300700	-0.392632
0.300800	-0.071946
0.300900	-0.242026
0.301000	-0.497797
0.301100	-0.656842
0.301200	-0.550379
0.301300	-0.250790
0.301400	-0.109272
0.301500	0.022832
0.301600	-0.228069
0.301700	-0.285196
0.301800	-0.329339
0.301900	-0.123554
0.302000	0.023806
0.302100	0.085477
0.302200	0.069572
0.302300	0.048474
0.302400	0.123777
0.302500	0.040035
0.302600	0.093266
0.302700	0.104302
0.302800	0.133190
0.302900	0.088398
0.303000	0.112417
0.303100	0.066002
0.303200	0.055615
0.303300	0.058861
0.303400	-0.018390
0.303500	0.075414
0.303600	0.084503
0.303700	0.185448
0.303800	0.008875
0.303900	-0.144976
0.304000	-0.261826
0.304100	-0.179382
0.304200	0.010823
0.304300	0.144550
0.304400	0.008226
0.304500	-0.186847
0.304600	-0.317329
0.304700	-0.244623
0.304800	-0.042084
0.304900	0.082555
0.305000	0.019262
0.305100	-0.131669
0.305200	-0.158933
0.305300	-0.173540
0.305400	-0.155038
0.305500	-0.122580
0.305600	-0.190418
0.305700	-0.219630
0.305800	-0.248518
0.305900	-0.218657
0.306000	-0.220604
0.306100	-0.269616
0.306200	-0.293310
0.306300	-0.298828
0.306400	-0.255659
0.306500	-0.230341
0.306600	-0.273511
0.306700	-0.385816
0.306800	-0.433205
0.306900	-0.450083
0.307000	-0.434828
0.307100	-0.370561
0.307200	-0.394580
0.307300	-0.383219
0.307400	-0.366341
0.307500	-0.356928
0.307600	-0.377702
0.307700	-0.386141
0.307800	-0.370561
0.307900	-0.385167
0.308000	-0.378675
0.308100	-0.387439
0.308200	-0.381597
0.308300	-0.410160
0.308400	-0.415678
0.308500	-0.424117
0.308600	-0.442618
0.308700	-0.467286
0.308800	-0.516947
0.308900	-0.572775
0.309000	-0.756164
0.309100	-1.059648
0.309200	-1.104116
0.309300	-0.999276
0.309400	-0.771744
0.309500	-0.746751
0.309600	-0.972336
0.309700	-1.279066
0.309800	-1.430646
0.309900	-1.373519
0.310000	-1.226159
0.310100	-1.238818
0.310200	-1.333271
0.310300	-1.466350
0.310400	-1.586121
0.310500	-1.555285
0.310600	-1.530617
0.310700	-1.512765
0.310800	-1.531591
0.310900	-1.596832
0.311000	-1.614035
0.311100	-1.630589
0.311200	-1.652985
0.311300	-1.702970
0.311400	-1.700698
0.311500	-1.807486
0.311600	-1.832154
0.311700	-1.827610
0.311800	-1.891228
0.311900	-1.956794
0.312000	-2.035019
0.312100	-1.937319
0.312200	-1.789309
0.312300	-1.753930
0.312400	-1.869806
0.312500	-2.064880
0.312600	-2.215811
0.312700	-2.111296
0.312800	-1.944460
0.312900	-1.833453
0.313000	-1.932775
0.313100	-2.146675
0.313200	-2.312213
0.313300	-2.311888
0.313400	-2.198609
0.313500	-2.104804
0.313600	-2.098637
0.313700	-2.147649
0.313800	-2.201854
0.313900	-2.198933
0.314000	-2.186924
0.314100	-2.153492
0.314200	-2.147974
0.314300	-2.087601
0.314400	-2.014895
0.314500	-1.920766
0.314600	-1.844813
0.314700	-1.826312
0.314800	-1.827286
0.314900	-1.785090
0.315000	-1.626044
0.315100	-1.521853
0.315200	-1.268679
0.315300	-1.287830
0.315400	-1.262512
0.315500	-1.203763
0.315600	-1.125538
0.315700	-1.017128
0.315800	-0.909042
0.315900	-0.870092
0.316000	-0.807448
0.316100	-0.808422
0.316200	-0.802255
0.316300	-0.791868
0.316400	-0.806474
0.316500	-0.790245
0.316600	-0.762331
0.316700	-0.731820
0.316800	-0.706503
0.316900	-0.692871
0.317000	-0.751944
0.317100	-0.710398
0.317200	-0.747076
0.317300	-0.488384
0.317400	-0.362122
0.317500	-0.032996
0.317600	-0.327391
0.317700	-0.581214
0.317800	-0.588680
0.317900	-0.482541
0.318000	-0.236833
0.318100	-0.139459
0.318200	-0.126475
0.318300	-0.284871
0.318400	-0.424117
0.318500	-0.254360
0.318600	-0.080060
0.318700	0.020236
0.318800	0.009524
0.318900	-0.020013
0.319000	-0.084929
0.319100	-0.065779
0.319200	-0.016767
0.319300	0.048150
0.319400	0.056589
0.319500	0.038737
0.319600	0.076713
0.319700	0.137410
0.319800	0.018288
0.319900	0.016990
0.320000	-0.041435
0.320100	-0.080060
0.320200	-0.064805
0.320300	0.038737
0.320400	-0.005082
0.320500	-0.164451
0.320600	-0.397826
0.320700	-0.349463
0.320800	-0.250790
0.320900	-0.062208
0.321000	-0.118036
0.321100	-0.284871
0.321200	-0.467611
0.321300	-0.505262
0.321400	-0.335506
0.321500	-0.145626
0.321600	-0.141406
0.321700	-0.243974
0.321800	-0.359850
0.321900	-0.341673
0.322000	-0.346866
0.322100	-0.258255
0.322200	-0.299477
0.322300	-0.358227
0.322400	-0.427363
0.322500	-0.423143
0.322600	-0.391983
0.322700	-0.425740
0.322800	-0.466637
0.322900	-0.483191
0.323000	-0.456250
0.323100	-0.444241
0.323200	-0.414704
0.323300	-0.527658
0.323400	-0.629577
0.323500	-0.649377
0.323600	-0.628928
0.323700	-0.518570
0.323800	-0.573100
0.323900	-0.554923
0.324000	-0.542589
0.324100	-0.554923
0.324200	-0.547782
0.324300	-0.517272
0.324400	-0.528632
0.324500	-0.520842
0.324600	-0.532852
0.324700	-0.534799
0.324800	-0.536422
0.324900	-0.525062
0.325000	-0.530904
0.325100	-0.542265
0.325200	-0.568231
0.325300	-0.601663
0.325400	-0.648727
0.325500	-0.709424
0.325600	-0.750646
0.325700	-1.000250
0.325800	-1.215772
0.325900	-1.204087
0.326000	-1.058350
0.326100	-0.877882
0.326200	-0.960975
0.326300	-1.248880
0.326400	-1.474464
0.326500	-1.510493
0.326600	-1.463104
0.326700	-1.307629
0.326800	-1.328727
0.326900	-1.486799
0.327000	-1.655581
0.327100	-1.740947
0.327200	-1.669538
0.327300	-1.675381
0.327400	-1.690636
0.327500	-1.730885
0.327600	-1.792880
0.327700	-1.808135
0.327800	-1.825987
0.327900	-1.839295
0.328000	-1.867209
0.328100	-1.936021
0.328200	-1.990551
0.328300	-2.035019
0.328400	-2.015868
0.328500	-2.078188
0.328600	-2.124279
0.328700	-2.140508
0.328800	-2.037291
0.328900	-1.913300
0.329000	-1.923362
0.329100	-2.101234
0.329200	-2.297282
0.329300	-2.333635
0.329400	-2.174265
0.329500	-1.988603
0.329600	-1.983410
0.329700	-2.150895
0.329800	-2.386867
0.329900	-2.472232
0.330000	-2.417378
0.330100	-2.304423
0.330200	-2.221005
0.330300	-2.251840
0.330400	-2.323898
0.330500	-2.365769
0.330600	-2.367067
0.330700	-2.328442
0.330800	-2.316432
0.330900	-2.282351
0.331000	-2.185625
0.331100	-2.069749
0.331200	-1.989902
0.331300	-1.970751
0.331400	-1.935696
0.331500	-1.942837
0.331600	-1.869481
0.331700	-1.700049
0.331800	-1.627018
0.331900	-1.399486
0.332000	-1.437462
0.332100	-1.402732
0.332200	-1.311199
0.332300	-1.221615
0.332400	-1.105090
0.332500	-0.946369
0.332600	-0.929166
0.332700	-0.916183
0.332800	-0.885023
0.332900	-0.898006
0.333000	-0.830818
0.333100	-0.886321
0.333200	-0.762006
0.333300	-0.820431
0.333400	-0.727276
0.333500	-0.725978
0.333600	-0.772393
0.333700	-0.760059
0.333800	-0.781806
0.333900	-0.674369
0.334000	-0.549081
0.334100	-0.206972
0.334200	-0.203077
0.334300	-0.479296
0.334400	-0.575696
0.334500	-0.659114
0.334600	-0.311487
0.334700	-0.208594
0.334800	0.014393
0.334900	-0.186198
0.335000	-0.297854
0.335100	-0.386465
0.335200	-0.143029
0.335300	-0.053120
0.335400	0.112092
0.335500	0.047825
0.335600	-0.017091
0.335700	-0.056041
0.335800	-0.018714
0.335900	0.050097
0.336000	0.095863
0.336100	0.086775
0.336200	0.082231
0.336300	0.113715
0.336400	0.040035
0.336500	0.010174
0.336600	-0.052795
0.336700	-0.054743
0.336800	-0.121282
0.336900	-0.052146
0.337000	-0.001187
0.337100	-0.034294
0.337200	-0.252738
0.337300	-0.398799
0.337400	-0.322847
0.337500	-0.213788
0.337600	-0.001511
0.337700	-0.099860
0.337800	-0.259229
0.337900	-0.449434
0.338000	-0.389711
0.338100	-0.215086
0.338200	-0.047602
0.338300	-0.064480
0.338400	-0.177435
0.338500	-0.271239
0.338600	-0.269616
0.338700	-0.278380
0.338800	-0.197883
0.338900	-0.255983
0.339000	-0.275783
0.339100	-0.376728
0.339200	-0.385816
0.339300	-0.363095
0.339400	-0.395229
0.339500	-0.424766
0.339600	-0.429635
0.339700	-0.385816
0.339800	-0.377377
0.339900	-0.368938
0.340000	-0.491954
0.340100	-0.573100
0.340200	-0.592575
0.340300	-0.536422
0.340400	-0.461119
0.340500	-0.495525
0.340600	-0.489358
0.340700	-0.458522
0.340800	-0.475076
0.340900	-0.467611
0.341000	-0.461768
0.341100	-0.444565
0.341200	-0.452355
0.341300	-0.464040
0.341400	-0.461119
0.341500	-0.461768
0.341600	-0.501043
0.341700	-0.518245
0.341800	-0.519868
0.341900	-0.526035
0.342000	-0.554274
0.342100	-0.613348
0.342200	-0.650675
0.342300	-0.785052
0.342400	-1.058999
0.342500	-1.235247
0.342600	-1.147285
0.342700	-0.977529
0.342800	-0.927543
0.342900	-1.095352
0.343000	-1.380011
0.343100	-1.602350
0.343200	-1.549118
0.343300	-1.405328
0.343400	-1.306655
0.343500	-1.428049
0.343600	-1.590340
0.343700	-1.787362
0.343800	-1.831830
0.343900	-1.779897
0.344000	-1.755553
0.344100	-1.772107
0.344200	-1.804889
0.344300	-1.876298
0.344400	-1.934723
0.344500	-1.949004
0.344600	-1.995095
0.344700	-2.036966
0.344800	-2.064556
0.344900	-2.087926
0.345000	-2.067152
0.345100	-2.125577
0.345200	-2.169396
0.345300	-2.208022
0.345400	-2.189520
0.345500	-2.023983
0.345600	-2.008403
0.345700	-2.047677
0.345800	-2.227496
0.345900	-2.387841
0.346000	-2.319029
0.346100	-2.153167
0.346200	-2.024307
0.346300	-2.071697
0.346400	-2.238208
0.346500	-2.406666
0.346600	-2.462495
0.346700	-2.358304
0.346800	-2.233339
0.346900	-2.170694
0.347000	-2.195687
0.347100	-2.252814
0.347200	-2.250866
0.347300	-2.247945
0.347400	-2.222628
0.347500	-2.167773
0.347600	-2.140833
0.347700	-2.015544
0.347800	-1.934723
0.347900	-1.853901
0.348000	-1.824040
0.348100	-1.814952
0.348200	-1.790608
0.348300	-1.665319
0.348400	-1.532240
0.348500	-1.464078
0.348600	-1.271276
0.348700	-1.262837
0.348800	-1.221290
0.348900	-1.118398
0.349000	-1.010961
0.349100	-0.888269
0.349200	-0.846398
0.349300	-0.756813
0.349400	-0.747400
0.349500	-0.742207
0.349600	-0.766551
0.349700	-0.791543
0.349800	-0.769472
0.349900	-0.723381
0.350000	-0.691248
0.350100	-0.697415
0.350200	-0.721109
0.350300	-0.703257
0.350400	-0.803878
0.350500	-0.682484
0.350600	-0.675019
0.350700	-0.254685
0.350800	-0.193988
0.350900	-0.126475
0.351000	-0.561415
0.351100	-0.527334
0.351200	-0.515649
0.351300	-0.244948
0.351400	0.011147
0.351500	-0.035268
0.351600	-0.160556
0.351700	-0.326093
0.351800	-0.242351
0.351900	-0.107974
0.352000	0.112741
0.352100	0.089372
0.352200	0.144226
0.352300	0.088722
0.352400	0.059185
0.352500	0.062756
0.352600	0.095214
0.352700	0.117610
0.352800	0.130918
0.352900	0.175710
0.353000	0.239653
0.353100	0.192264
0.353200	0.156560
0.353300	0.081582
0.353400	0.098135
0.353500	0.074765
0.353600	0.180904
0.353700	0.147472
0.353800	0.067625
0.353900	-0.245272
0.354000	-0.163153
0.354100	-0.138485
0.354200	0.086775
0.354300	0.106250
0.354400	-0.014170
0.354500	-0.223850
0.354600	-0.301425
0.354700	-0.198208
0.354800	-0.022285
0.354900	0.067625
0.355000	0.028999
0.355100	-0.097588
0.355200	-0.093693
0.355300	-0.097588
0.355400	-0.060585
0.355500	-0.025855
0.355600	-0.073244
0.355700	-0.111869
0.355800	-0.187172
0.355900	-0.163802
0.356000	-0.163802
0.356100	-0.201778
0.356200	-0.202752
0.356300	-0.174513
0.356400	-0.113167
0.356500	-0.052471
0.356600	-0.136213
0.356700	-0.250790
0.356800	-0.280976
0.356900	-0.279029
0.357000	-0.092719
0.357100	-0.161206
0.357200	-0.159583
0.357300	-0.162504
0.357400	-0.163802
0.357500	-0.136537
0.357600	-0.161206
0.357700	-0.151793
0.357800	-0.177110
0.357900	-0.164776
0.358000	-0.164451
0.358100	-0.190093
0.358200	-0.177435
0.358300	-0.230991
0.358400	-0.174838
0.358500	-0.251439
0.358600	-0.222551
0.358700	-0.320251
0.358800	-0.372833
0.358900	-0.431907
0.359000	-0.604260
0.359100	-0.909367
0.359200	-0.914235
0.359300	-0.784403
0.359400	-0.638016
0.359500	-0.656193
0.359600	-0.937605
0.359700	-1.179744
0.359800	-1.293023
0.359900	-1.180068
0.360000	-1.036927
0.360100	-0.972336
0.360200	-1.138846
0.360300	-1.326130
0.360400	-1.468297
0.360500	-1.445901
0.360600	-1.408899
0.360700	-1.354693
0.360800	-1.419610
0.360900	-1.455639
0.361000	-1.488746
0.361100	-1.513414
0.361200	-1.539056
0.361300	-1.586770
0.361400	-1.596832
0.361500	-1.661099
0.361600	-1.700374
0.361700	-1.728613
0.361800	-1.793204
0.361900	-1.845462
0.362000	-1.860393
0.362100	-1.789959
0.362200	-1.614684
0.362300	-1.632861
0.362400	-1.730235
0.362500	-1.918169
0.362600	-2.021386
0.362700	-1.923038
0.362800	-1.741596
0.362900	-1.637729
0.363000	-1.727963
0.363100	-1.968479
0.363200	-2.117787
0.363300	-2.107401
0.363400	-1.987305
0.363500	-1.863964
0.363600	-1.817873
0.363700	-1.850006
0.363800	-1.924336
0.363900	-1.923687
0.364000	-1.869481
0.364100	-1.834751
0.364200	-1.803267
0.364300	-1.721147
0.364400	-1.578006
0.364500	-1.496861
0.364600	-1.444278
0.364700	-1.424479
0.364800	-1.427075
0.364900	-1.379362
0.365000	-1.211877
0.365100	-1.118722
0.365200	-1.007390
0.365300	-0.908068
0.365400	-0.858732
0.365500	-0.781157
0.365600	-0.700336
0.365700	-0.601988
0.365800	-0.471830
0.365900	-0.423143
0.366000	-0.427038
0.366100	-0.370885
0.366200	-0.417625
0.366300	-0.376403
0.366400	-0.439048
0.366500	-0.302074
0.366600	-0.352384
0.366700	-0.255010
0.366800	-0.301100
0.366900	-0.229043
0.367000	-0.312136
0.367100	-0.375105
0.367200	-0.257931
0.367300	-0.221578
0.367400	0.098784
0.367500	0.229915
0.367600	0.043281
0.367700	-0.242026
0.367800	-0.253387
0.367900	-0.086227
0.368000	0.149744
0.368100	0.327290
0.368200	0.250364
0.368300	0.186746
0.368400	0.009200
0.368500	0.177333
0.368600	0.272436
0.368700	0.449008
0.368800	0.367863
0.368900	0.429208
0.369000	0.303271
0.369100	0.304569
0.369200	0.328913
0.369300	0.354555
0.369400	0.395127
0.369500	0.400645
0.369600	0.378898
0.369700	0.415576
0.369800	0.418497
0.369900	0.345791
0.370000	0.288340
0.370100	0.246144
0.370200	0.341571
0.370300	0.342221
0.370400	0.344817
0.370500	0.139032
0.370600	0.000761
0.370700	-0.004757
0.370800	0.095863
0.370900	0.342221
0.371000	0.235109
0.371100	0.092293
0.371200	-0.133941
0.371300	-0.166074
0.371400	-0.032671
0.371500	0.148445
0.371600	0.141954
0.371700	0.053668
0.371800	-0.050523
0.371900	-0.032347
0.372000	-0.074542
0.372100	-0.000213
0.372200	-0.041759
0.372300	-0.067077
0.372400	-0.132642
0.372500	-0.106351
0.372600	-0.057015
0.372700	-0.088175
0.372800	-0.117062
0.372900	-0.147573
0.373000	-0.084929
0.373100	-0.063182
0.373200	-0.045330
0.373300	-0.167373
0.373400	-0.253711
0.373500	-0.277730
0.373600	-0.260203
0.373700	-0.125502
0.373800	-0.205024
0.373900	-0.195611
0.374000	-0.142704
0.374100	-0.140432
0.374200	-0.122256
0.374300	-0.117387
0.374400	-0.096938
0.374500	-0.107000
0.374600	-0.110571
0.374700	-0.071296
0.374800	-0.088175
0.374900	-0.102132
0.375000	-0.091096
0.375100	-0.077139
0.375200	-0.087525
0.375300	-0.111220
0.375400	-0.169645
0.375500	-0.192365
0.375600	-0.286494
0.375700	-0.503315
0.375800	-0.716890
0.375900	-0.689949
0.376000	-0.512078
0.376100	-0.354007
0.376200	-0.417950
0.376300	-0.809395
0.376400	-1.014531
0.376500	-1.043744
0.376600	-0.953834
0.376700	-0.788947
0.376800	-0.824002
0.376900	-0.973959
0.377000	-1.132355
0.377100	-1.166760
0.377200	-1.106713
0.377300	-1.034006
0.377400	-1.084641
0.377500	-1.128460
0.377600	-1.151505
0.377700	-1.184937
0.377800	-1.222588
0.377900	-1.235572
0.378000	-1.298216
0.378100	-1.349825
0.378200	-1.352097
0.378300	-1.358588
0.378400	-1.310226
0.378500	-1.391047
0.378600	-1.423505
0.378700	-1.443304
0.378800	-1.323534
0.378900	-1.234923
0.379000	-1.282961
0.379100	-1.432593
0.379200	-1.637405
0.379300	-1.651686
0.379400	-1.509844
0.379500	-1.363133
0.379600	-1.372870
0.379700	-1.544899
0.379800	-1.766589
0.379900	-1.879868
0.380000	-1.785415
0.380100	-1.668240
0.380200	-1.625395
0.380300	-1.635457
0.380400	-1.678951
0.380500	-1.677004
0.380600	-1.639352
0.380700	-1.607868
0.380800	-1.574436
0.380900	-1.561452
0.381000	-1.492641
0.381100	-1.358913
0.381200	-1.253424
0.381300	-1.184288
0.381400	-1.158970
0.381500	-1.156698
0.381600	-1.033682
0.381700	-0.871715
0.381800	-0.692871
0.381900	-0.530904
0.382000	-0.556871
0.382100	-0.510780
0.382200	-0.421520
0.382300	-0.341673
0.382400	-0.215086
0.382500	-0.096938
0.382600	-0.053444
0.382700	-0.067077
0.382800	-0.050523
0.382900	-0.046304
0.383000	-0.047927
0.383100	-0.033645
0.383200	-0.029425
0.383300	-0.008977
0.383400	-0.025530
0.383500	0.002059
0.383600	-0.053444
0.383700	0.003682
0.383800	-0.067077
0.383900	0.091968
0.384000	0.239977
0.384100	0.616167
0.384200	0.542487
0.384300	0.364292
0.384400	0.156884
0.384500	0.164674
0.384600	0.373380
0.384700	0.576893
0.384800	0.689523
0.384900	0.586630
0.385000	0.456473
0.385100	0.471404
0.385200	0.653819
0.385300	0.823575
0.385400	0.850515
0.385500	0.844024
0.385600	0.763527
0.385700	0.819680
0.385800	0.773589
0.385900	0.870639
0.386000	0.920300
0.386100	0.928415
0.386200	0.933608
0.386300	0.947241
0.386400	1.003393
0.386500	0.909914
0.386600	0.887193
0.386700	0.799881
0.386800	0.855384
0.386900	0.898878
0.387000	0.948214
0.387100	0.854410
0.387200	0.654793
0.387300	0.538592
0.387400	0.618115
0.387500	0.773914
0.387600	0.949513
0.387700	0.842076
0.387800	0.633046
0.387900	0.466860
0.388000	0.548330
0.388100	0.730745
0.388200	0.861227
0.388300	0.840453
0.388400	0.690821
0.388500	0.630449
0.388600	0.654793
0.388700	0.648301
0.388800	0.713217
0.388900	0.643432
0.389000	0.637590
0.389100	0.563585
0.389200	0.575270
0.389300	0.589227
0.389400	0.582086
0.389500	0.522688
0.389600	0.502239
0.389700	0.525609
0.389800	0.542163
0.389900	0.520416
0.390000	0.371108
0.390100	0.344493
0.390200	0.313333
0.390300	0.310736
0.390400	0.428235
0.390500	0.375328
0.390600	0.357476
0.390700	0.353256
0.390800	0.341247
0.390900	0.367213
0.391000	0.345791
0.391100	0.373380
0.391200	0.343519
0.391300	0.364941
0.391400	0.342221
0.391500	0.343519
0.391600	0.297104
0.391700	0.292235
0.391800	0.260101
0.391900	0.264646
0.392000	0.208493
0.392100	0.177982
0.392200	0.140331
0.392300	0.007577
0.392400	-0.292337
0.392500	-0.368289
0.392600	-0.270590
0.392700	-0.096614
0.392800	-0.070323
0.392900	-0.214437
0.393000	-0.539668
0.393100	-0.699038
0.393200	-0.667878
0.393300	-0.571801
0.393400	-0.513052
0.393500	-0.577969
0.393600	-0.780183
0.393700	-0.921701
0.393800	-0.953185
0.393900	-0.902550
0.394000	-0.869768
0.394100	-0.932412
0.394200	-0.998627
0.394300	-1.069710
0.394400	-1.109309
0.394500	-1.145662
0.394600	-1.171304
0.394700	-1.203438
0.394800	-1.271925
0.394900	-1.301462
0.395000	-1.321261
0.395100	-1.337815
0.395200	-1.418636
0.395300	-1.480631
0.395400	-1.446875
0.395500	-1.289452
0.395600	-1.224861
0.395700	-1.283610
0.395800	-1.446550
0.395900	-1.581901
0.396000	-1.517309
0.396100	-1.356316
0.396200	-1.228756
0.396300	-1.263161
0.396400	-1.448822
0.396500	-1.608192
0.396600	-1.673109
0.396700	-1.560479
0.396800	-1.445577
0.396900	-1.370598
0.397000	-1.403381
0.397100	-1.469271
0.397200	-1.479658
0.397300	-1.447199
0.397400	-1.402407
0.397500	-1.353071
0.397600	-1.268355
0.397700	-1.175199
0.397800	-1.073605
0.397900	-1.008364
0.398000	-0.956107
0.398100	-0.912288
0.398200	-0.902226
0.398300	-0.773042
0.398400	-0.634121
0.398500	-0.576346
0.398600	-0.349788
0.398700	-0.357902
0.398800	-0.315057
0.398900	-0.223850
0.399000	-0.098561
0.399100	0.032245
0.399200	0.104302
0.399300	0.154937
0.399400	0.170192
0.399500	0.174087
0.399600	0.201028
0.399700	0.198756
0.399800	0.237056
0.399900	0.278278
0.400000	0.268216
0.400100	0.336378
0.400200	0.317228
0.400300	0.342870
0.400400	0.297104
0.400500	0.380197
0.400600	0.503862
0.400700	0.645704
0.400800	0.957627
0.400900	0.731069
0.401000	0.545733
0.401100	0.435375
0.401200	0.583385
0.401300	0.715165
0.401400	0.918028
0.401500	0.950162
0.401600	0.824873
0.401700	0.756062
0.401800	0.807021
0.401900	0.984568
0.402000	1.104987
0.402100	1.078372
0.402200	1.078372
0.402300	1.025789
0.402400	1.039097
0.402500	1.028711
0.402600	1.052405
0.402700	1.095574
0.402800	1.068310
0.402900	1.109531
0.403000	1.067336
0.403100	1.098496
0.403200	0.969961
0.403300	0.978400
0.403400	0.976128
0.403500	0.986515
0.403600	1.102066
0.403700	1.047861
0.403800	0.972233
0.403900	0.663556
0.404000	0.719060
0.404100	0.769045
0.404200	1.012157
0.404300	0.987489
0.404400	0.893685
0.404500	0.687251
0.404600	0.624607
0.404700	0.708998
0.404800	0.910238
0.404900	0.974181
0.405000	0.879078
0.405100	0.782353
0.405200	0.753790
0.405300	0.730745
0.405400	0.751843
0.405500	0.783327
0.405600	0.757685
0.405700	0.702831
0.405800	0.677513
0.405900	0.728797
0.406000	0.706077
0.406100	0.693093
0.406200	0.659986
0.406300	0.671022
0.406400	0.662907
0.406500	0.691795
0.406600	0.617790
0.406700	0.492502
0.406800	0.448034
0.406900	0.449982
0.407000	0.545733
0.407100	0.519442
0.407200	0.508082
0.407300	0.511977
0.407400	0.484063
0.407500	0.463939
0.407600	0.481466
0.407700	0.474974
0.407800	0.477247
0.407900	0.488607
0.408000	0.485036
0.408100	0.480817
0.408200	0.461991
0.408300	0.474001
0.408400	0.459719
0.408500	0.461342
0.408600	0.449008
0.408700	0.419796
0.408800	0.412655
0.408900	0.339948
0.409000	0.157534
0.409100	-0.072919
0.409200	-0.086227
0.409300	0.095863
0.409400	0.253610
0.409500	0.230889
0.409600	0.013095
0.409700	-0.224824
0.409800	-0.345893
0.409900	-0.249816
0.410000	-0.135888
0.410100	-0.152117
0.410200	-0.287143
0.410300	-0.489033
0.410400	-0.564985
0.410500	-0.535124
0.410600	-0.470532
0.410700	-0.484164
0.410800	-0.574398
0.410900	-0.627305
0.411000	-0.668851
0.411100	-0.685730
0.411200	-0.696766
0.411300	-0.774016
0.411400	-0.824651
0.411500	-0.877882
0.411600	-0.879505
0.411700	-0.858083
0.411800	-0.865873
0.411900	-0.917806
0.412000	-0.946369
0.412100	-0.886971
0.412200	-0.696766
0.412300	-0.703257
0.412400	-0.817185
0.412500	-1.032383
0.412600	-1.099896
0.412700	-0.970064
0.412800	-0.823352
0.412900	-0.749672
0.413000	-0.864574
0.413100	-1.074254
0.413200	-1.218369
0.413300	-1.197271
0.413400	-1.054130
0.413500	-0.959352
0.413600	-0.950913
0.413700	-1.000899
0.413800	-1.048937
0.413900	-1.027515
0.414000	-1.003171
0.414100	-0.963896
0.414200	-0.922025
0.414300	-0.846722
0.414400	-0.708775
0.414500	-0.638016
0.414600	-0.566284
0.414700	-0.534150
0.414800	-0.530904
0.414900	-0.481892
0.415000	-0.334208
0.415100	-0.237807
0.415200	-0.141731
0.415300	-0.074542
0.415400	-0.055392
0.415500	0.015367
0.415600	0.104951
0.415700	0.217906
0.415800	0.351633
0.415900	0.399672
0.416000	0.419471
0.416100	0.422068
0.416200	0.460044
0.416300	0.437323
0.416400	0.491204
0.416500	0.514249
0.416600	0.562287
0.416700	0.613571
0.416800	0.578516
0.416900	0.657714
0.417000	0.531452
0.417100	0.616492
0.417200	0.584683
0.417300	0.827470
0.417400	0.962496
0.417500	1.217293
0.417600	0.929389
0.417700	0.705427
0.417800	0.740158
0.417900	0.896606
0.418000	1.110830
0.418100	1.302657
0.418200	1.227030
0.418300	1.031307
0.418400	0.971909
0.418500	1.137445
0.418600	1.318887
0.418700	1.502924
0.418800	1.483449
0.418900	1.474686
0.419000	1.353617
0.419100	1.406848
0.419200	1.400032
0.419300	1.442552
0.419400	1.455211
0.419500	1.471440
0.419600	1.468843
0.419700	1.471115
0.419800	1.438008
0.419900	1.385101
0.420000	1.286753
0.420100	1.290973
0.420200	1.311421
0.420300	1.351345
0.420400	1.260786
0.420500	1.067660
0.420600	0.882000
0.420700	0.916405
0.420800	1.015727
0.420900	1.270524
0.421000	1.185159
0.421100	1.035851
0.421200	0.837857
0.421300	0.825523
0.421400	0.989436
0.421500	1.160166
0.421600	1.192949
0.421700	1.074801
0.421800	0.954057
0.421900	0.988138
0.422000	0.960224
0.422100	1.077073
0.422200	1.037474
0.422300	0.993331
0.422400	0.945618
0.422500	0.935556
0.422600	0.985217
0.422700	0.972558
0.422800	0.924195
0.422900	0.921923
0.423000	0.940749
0.423100	0.960224
0.423200	0.974181
0.423300	0.856358
0.423400	0.771967
0.423500	0.734640
0.423600	0.756387
0.423700	0.879078
0.423800	0.797933
0.423900	0.802802
0.424000	0.810267
0.424100	0.817733
0.424200	0.790468
0.424300	0.761255
0.424400	0.790143
0.424500	0.780730
0.424600	0.768072
0.424700	0.792415
0.424800	0.786248
0.424900	0.791117
0.425000	0.784301
0.425100	0.781704
0.425200	0.788845
0.425300	0.730096
0.425400	0.733017
0.425500	0.699909
0.425600	0.638239
0.425700	0.426936
0.425800	0.230565
0.425900	0.293858
0.426000	0.466535
0.426100	0.631423
0.426200	0.474325
0.426300	0.170841
0.426400	-0.058962
0.426500	-0.091096
0.426600	0.071844
0.426700	0.209467
0.426800	0.197782
0.426900	0.038737
0.427000	-0.161530
0.427100	-0.204375
0.427200	-0.193015
0.427300	-0.079411
0.427400	-0.119659
0.427500	-0.154065
0.427600	-0.225473
0.427700	-0.249167
0.427800	-0.293635
0.427900	-0.305644
0.428000	-0.348814
0.428100	-0.437100
0.428200	-0.454952
0.428300	-0.516623
0.428400	-0.462742
0.428500	-0.538370
0.428600	-0.554274
0.428700	-0.545835
0.428800	-0.401071
0.428900	-0.301425
0.429000	-0.369912
0.429100	-0.515000
0.429200	-0.690923
0.429300	-0.700985
0.429400	-0.541940
0.429500	-0.373482
0.429600	-0.360174
0.429700	-0.516298
0.429800	-0.762980
0.429900	-0.851267
0.430000	-0.765577
0.430100	-0.617568
0.430200	-0.535124
0.430300	-0.571801
0.430400	-0.638990
0.430500	-0.673396
0.430600	-0.668527
0.430700	-0.645806
0.430800	-0.606532
0.430900	-0.550054
0.431000	-0.469883
0.431100	-0.341348
0.431200	-0.246895
0.431300	-0.230666
0.431400	-0.189120
0.431500	-0.192365
0.431600	-0.045330
0.431700	0.134488
0.431800	0.204598
0.431900	0.455500
0.432000	0.429208
0.432100	0.481466
0.432200	0.575595
0.432300	0.677513
0.432400	0.830391
0.432500	0.927441
0.432600	0.977427
0.432700	1.014104
0.432800	0.992682
0.432900	1.039422
0.433000	0.975804
0.433100	1.069608
0.433200	1.039097
0.433300	1.124138
0.433400	1.133226
0.433500	1.120892
0.433600	1.160491
0.433700	1.077722
0.433800	1.130305
0.433900	1.162114
0.434000	1.366276
0.434100	1.635354
0.434200	1.592509
0.434300	1.371144
0.434400	1.095574
0.434500	1.302982
0.434600	1.400681
0.434700	1.703191
0.434800	1.753502
0.434900	1.653855
0.435000	1.483774
0.435100	1.392891
0.435200	1.588614
0.435300	1.672356
0.435400	1.740843
0.435500	1.778494
0.435600	1.725587
0.435700	1.723640
0.435800	1.650609
0.435900	1.716175
0.436000	1.701568
0.436100	1.758046
0.436200	1.702542
0.436300	1.787258
0.436400	1.685015
0.436500	1.694752
0.436600	1.661969
0.436700	1.651258
0.436800	1.663917
0.436900	1.735000
0.437000	1.789855
0.437100	1.710981
0.437200	1.468843
0.437300	1.406848
0.437400	1.463001
0.437500	1.652557
0.437600	1.753826
0.437700	1.717473
0.437800	1.457483
0.437900	1.330896
0.438000	1.377960
0.438100	1.594132
0.438200	1.734351
0.438300	1.685015
0.438400	1.555831
0.438500	1.476633
0.438600	1.503898
0.438700	1.512013
0.438800	1.551612
0.438900	1.509416
0.439000	1.474686
0.439100	1.413340
0.439200	1.431192
0.439300	1.419182
0.439400	1.418209
0.439500	1.436710
0.439600	1.454886
0.439700	1.481177
0.439800	1.499679
0.439900	1.475984
0.440000	1.318237
0.440100	1.253321
0.440200	1.257541
0.440300	1.268901
0.440400	1.308825
0.440500	1.283183
0.440600	1.312720
0.440700	1.322782
0.440800	1.327001
0.440900	1.362705
0.441000	1.352318
0.441100	1.365951
0.441200	1.364977
0.441300	1.360433
0.441400	1.361082
0.441500	1.332194
0.441600	1.322782
0.441700	1.334142
0.441800	1.288700
0.441900	1.306552
0.442000	1.239039
0.442100	1.238390
0.442200	1.168930
0.442300	1.000472
0.442400	0.760606
0.442500	0.606755
0.442600	0.803451
0.442700	0.983918
0.442800	1.050458
0.442900	0.782029
0.443000	0.516845
0.443100	0.365590
0.443200	0.410707
0.443300	0.561962
0.443400	0.614220
0.443500	0.543786
0.443600	0.302946
0.443700	0.174736
0.443800	0.182851
0.443900	0.224073
0.444000	0.246144
0.444100	0.253285
0.444200	0.205896
0.444300	0.180904
0.444400	0.155586
0.444500	0.126049
0.444600	0.103978
0.444700	0.057887
0.444800	-0.022934
0.444900	-0.003134
0.445000	-0.069998
0.445100	-0.105377
0.445200	-0.167697
0.445300	-0.199831
0.445400	-0.134265
0.445500	0.000436
0.445600	0.088398
0.445700	-0.018390
0.445800	-0.243974
0.445900	-0.371535
0.446000	-0.316680
0.446100	-0.120957
0.446200	0.008875
0.446300	-0.052146
0.446400	-0.256633
0.446500	-0.458198
0.446600	-0.493253
0.446700	-0.341348
0.446800	-0.232614
0.446900	-0.190418
0.447000	-0.224824
0.447100	-0.270914
0.447200	-0.284871
0.447300	-0.253062
0.447400	-0.227096
0.447500	-0.206972
0.447600	-0.149196
0.447700	-0.047277
0.447800	0.056913
0.447900	0.119882
0.448000	0.151042
0.448100	0.175061
0.448200	0.181553
0.448300	0.328588
0.448400	0.459070
0.448500	0.657389
0.448600	0.699909
0.448700	0.721007
0.448800	0.766773
0.448900	0.850840
0.449000	0.911212
0.449100	1.070257
0.449200	1.110181
0.449300	1.162438
0.449400	1.113102
0.449500	1.143612
0.449600	1.151402
0.449700	1.139068
0.449800	1.191326
0.449900	1.182238
0.450000	1.237741
0.450100	1.219565
0.450200	1.281884
0.450300	1.218591
0.450400	1.196844
0.450500	1.299087
0.450600	1.336089
0.450700	1.613607
0.450800	1.774924
0.450900	1.690857
0.451000	1.329598
0.451100	1.307851
0.451200	1.431192
0.451300	1.636652
0.451400	1.863210
0.451500	1.776547
0.451600	1.666514
0.451700	1.451640
0.451800	1.539927
0.451900	1.688910
0.452000	1.762265
0.452100	1.806408
0.452200	1.775248
0.452300	1.685989
0.452400	1.703516
0.452500	1.759669
0.452600	1.816146
0.452700	1.846332
0.452800	1.838867
0.452900	1.826857
0.453000	1.836594
0.453100	1.772976
0.453200	1.745062
0.453300	1.687287
0.453400	1.685015
0.453500	1.653206
0.453600	1.684690
0.453700	1.718122
0.453800	1.578552
0.453900	1.378285
0.454000	1.343230
0.454100	1.427297
0.454200	1.653206
0.454300	1.611010
0.454400	1.507793
0.454500	1.258514
0.454600	1.221188
0.454700	1.329922
0.454800	1.512337
0.454900	1.608089
0.455000	1.511688
0.455100	1.387698
0.455200	1.383803
0.455300	1.361082
0.455400	1.410743
0.455500	1.421454
0.455600	1.386724
0.455700	1.367898
0.455800	1.367898
0.455900	1.409769
0.456000	1.386724
0.456100	1.355889
0.456200	1.339011
0.456300	1.372443
0.456400	1.406524
0.456500	1.440929
0.456600	1.364653
0.456700	1.274419
0.456800	1.241312
0.456900	1.243259
0.457000	1.269550
0.457100	1.306877
0.457200	1.318887
0.457300	1.346801
0.457400	1.334466
0.457500	1.337712
0.457600	1.331221
0.457700	1.340958
0.457800	1.302333
0.457900	1.273770
0.458000	1.265655
0.458100	1.234171
0.458200	1.232872
0.458300	1.211450
0.458400	1.216643
0.458500	1.167632
0.458600	1.123488
0.458700	1.126410
0.458800	1.047536
0.458900	1.001121
0.459000	0.758983
0.459100	0.524635
0.459200	0.499643
0.459300	0.681733
0.459400	0.855059
0.459500	0.776511
0.459600	0.562936
0.459700	0.303920
0.459800	0.221152
0.459900	0.300350
0.460000	0.470755
0.460100	0.474974
0.460200	0.390583
0.460300	0.187071
0.460400	0.123128
0.460500	0.117935
0.460600	0.162402
0.460700	0.213686
0.460800	0.153314
0.460900	0.106250
0.461000	0.070221
0.461100	0.044579
0.461200	0.021209
0.461300	-0.028127
0.461400	-0.058962
0.461500	-0.105377
0.461600	-0.122580
0.461700	-0.160556
0.461800	-0.233587
0.461900	-0.289415
0.462000	-0.310513
0.462100	-0.219955
0.462200	-0.086227
0.462300	-0.119335
0.462400	-0.303372
0.462500	-0.518570
0.462600	-0.603286
0.462700	-0.445215
0.462800	-0.287792
0.462900	-0.225148
0.463000	-0.366990
0.463100	-0.564661
0.463200	-0.697415
0.463300	-0.663009
0.463400	-0.548107
0.463500	-0.463391
0.463600	-0.445864
0.463700	-0.478646
0.463800	-0.498121
0.463900	-0.537396
0.464000	-0.533176
0.464100	-0.494876
0.464200	-0.435153
0.464300	-0.406265
0.464400	-0.307267
0.464500	-0.210542
0.464600	-0.178408
0.464700	-0.146599
0.464800	-0.148871
0.464900	-0.085903
0.465000	0.077362
0.465100	0.163052
0.465200	0.444139
0.465300	0.412655
0.465400	0.457447
0.465500	0.522688
0.465600	0.631098
0.465700	0.711594
0.465800	0.849866
0.465900	0.853112
0.466000	0.906343
0.466100	0.886868
0.466200	0.973532
0.466300	0.941074
0.466400	1.005016
0.466500	0.977102
0.466600	1.021894
0.466700	1.080968
0.466800	1.044940
0.466900	1.086162
0.467000	1.008587
0.467100	1.053379
0.467200	1.063441
0.467300	1.188080
0.467400	1.486695
0.467500	1.496108
0.467600	1.303307
0.467700	1.044940
0.467800	1.128682
0.467900	1.265980
0.468000	1.545120
0.468100	1.612958
0.468200	1.591860
0.468300	1.384452
0.468400	1.405874
0.468500	1.485722
0.468600	1.684690
0.468700	1.741492
0.468800	1.764213
0.468900	1.686962
0.469000	1.695077
0.469100	1.679497
0.469200	1.723640
0.469300	1.722017
0.469400	1.736299
0.469500	1.711630
0.469600	1.773626
0.469700	1.733702
0.469800	1.713578
0.469900	1.618475
0.470000	1.641521
0.470100	1.614256
0.470200	1.727210
0.470300	1.772327
0.470400	1.731105
0.470500	1.493836
0.470600	1.327326
0.470700	1.343879
0.470800	1.494485
0.470900	1.685015
0.471000	1.556805
0.471100	1.413015
0.471200	1.207555
0.471300	1.274094
0.471400	1.428920
0.471500	1.560051
0.471600	1.527593
0.471700	1.416910
0.471800	1.319860
0.471900	1.357836
0.472000	1.340634
0.472100	1.413664
0.472200	1.339984
0.472300	1.324404
0.472400	1.286753
0.472500	1.318237
0.472600	1.337712
0.472700	1.314342
0.472800	1.247803
0.472900	1.234495
0.473000	1.246829
0.473100	1.270524
0.473200	1.282533
0.473300	1.169904
0.473400	1.093952
0.473500	1.047212
0.473600	1.024166
0.473700	1.079345
0.473800	1.081942
0.473900	1.088434
0.474000	1.091355
0.474100	1.115049
0.474200	1.132252
0.474300	1.165359
0.474400	1.180615
0.474500	1.153675
0.474600	1.148481
0.474700	1.124138
0.474800	1.124138
0.474900	1.109531
0.475000	1.067011
0.475100	1.061169
0.475200	1.043641
0.475300	0.996252
0.475400	0.963794
0.475500	0.922248
0.475600	0.803451
0.475700	0.546058
0.475800	0.355853
0.475900	0.450955
0.476000	0.612922
0.476100	0.751193
0.476200	0.586955
0.476300	0.330211
0.476400	0.083854
0.476500	0.079634
0.476600	0.231863
0.476700	0.293858
0.476800	0.224397
0.476900	0.026727
0.477000	-0.087201
0.477100	-0.121931
0.477200	-0.054418
0.477300	-0.007354
0.477400	-0.060261
0.477500	-0.134914
0.477600	-0.199182
0.477700	-0.183926
0.477800	-0.188795
0.477900	-0.207621
0.478000	-0.262150
0.478100	-0.359525
0.478200	-0.363745
0.478300	-0.378351
0.478400	-0.379000
0.478500	-0.431907
0.478600	-0.511105
0.478700	-0.508183
0.478800	-0.393606
0.478900	-0.297530
0.479000	-0.360174
0.479100	-0.533825
0.479200	-0.706503
0.479300	-0.691897
0.479400	-0.520193
0.479500	-0.392308
0.479600	-0.417950
0.479700	-0.597119
0.479800	-0.799983
0.479900	-0.867171
0.480000	-0.768498
0.480100	-0.658789
0.480200	-0.614971
0.480300	-0.661061
0.480400	-0.724680
0.480500	-0.756489
0.480600	-0.707477
0.480700	-0.690923
0.480800	-0.659114
0.480900	-0.629902
0.481000	-0.571477
0.481100	-0.447487
0.481200	-0.376079
0.481300	-0.333558
0.481400	-0.312461
0.481500	-0.337453
0.481600	-0.210867
0.481700	-0.063182
0.481800	0.072493
0.481900	0.216607
0.482000	0.184798
0.482100	0.236082
0.482200	0.300999
0.482300	0.409734
0.482400	0.547681
0.482500	0.641160
0.482600	0.662258
0.482700	0.682057
0.482800	0.698611
0.482900	0.732043
0.483000	0.681084
0.483100	0.743079
0.483200	0.746649
0.483300	0.797933
0.483400	0.775537
0.483500	0.838181
0.483600	0.767747
0.483700	0.782353
0.483800	0.800205
0.483900	0.921599
0.484000	1.033579
0.484100	1.279937
0.484200	1.222810
0.484300	0.955680
0.484400	0.821628
0.484500	0.895957
0.484600	1.153675
0.484700	1.382505
0.484800	1.403602
0.484900	1.305254
0.485000	1.092978
0.485100	1.173799
0.485200	1.241961
0.485300	1.488643
0.485400	1.513636
0.485500	1.570762
0.485600	1.514609
0.485700	1.404252
0.485800	1.491239
0.485900	1.523373
0.486000	1.553559
0.486100	1.533760
0.486200	1.500977
0.486300	1.563621
0.486400	1.528891
0.486500	1.521750
0.486600	1.409769
0.486700	1.443851
0.486800	1.439631
0.486900	1.499679
0.487000	1.514285
0.487100	1.429569
0.487200	1.185159
0.487300	1.148157
0.487400	1.199765
0.487500	1.363679
0.487600	1.401006
0.487700	1.312395
0.487800	1.110830
0.487900	0.995928
0.488000	1.052405
0.488100	1.267603
0.488200	1.346801
0.488300	1.288051
0.488400	1.163087
0.488500	1.099794
0.488600	1.115698
0.488700	1.100119
0.488800	1.153025
0.488900	1.067985
0.489000	1.020921
0.489100	0.957952
0.489200	0.981322
0.489300	0.980023
0.489400	0.930687
0.489500	0.894658
0.489600	0.899852
0.489700	0.878754
0.489800	0.902773
0.489900	0.841427
0.490000	0.695690
0.490100	0.620387
0.490200	0.596368
0.490300	0.601237
0.490400	0.665504
0.490500	0.620712
0.490600	0.634669
0.490700	0.614869
0.490800	0.620712
0.490900	0.614220
0.491000	0.594096
0.491100	0.599614
0.491200	0.575595
0.491300	0.610650
0.491400	0.603184
0.491500	0.585981
0.491600	0.558716
0.491700	0.562936
0.491800	0.569752
0.491900	0.559041
0.492000	0.507433
0.492100	0.463939
0.492200	0.459719
0.492300	0.253610
0.492400	0.030622
0.492500	-0.047602
0.492600	0.039386
0.492700	0.226345
0.492800	0.240627
0.492900	0.082231
0.493000	-0.238131
0.493100	-0.301749
0.493200	-0.288442
0.493300	-0.149196
0.493400	-0.145626
0.493500	-0.221578
0.493600	-0.442618
0.493700	-0.577644
0.493800	-0.541940
0.493900	-0.510456
0.494000	-0.522465
0.494100	-0.543887
0.494200	-0.575696
0.494300	-0.637042
0.494400	-0.660088
0.494500	-0.687028
0.494600	-0.726302
0.494700	-0.793166
0.494800	-0.818484
0.494900	-0.832765
0.495000	-0.863925
0.495100	-0.871066
0.495200	-0.952861
0.495300	-0.971362
0.495400	-0.913911
0.495500	-0.766875
0.495600	-0.745777
0.495700	-0.862951
0.495800	-1.037901
0.495900	-1.151505
0.496000	-1.052832
0.496100	-0.877558
0.496200	-0.796088
0.496300	-0.859381
0.496400	-1.058025
0.496500	-1.262188
0.496600	-1.282961
0.496700	-1.166436
0.496800	-1.061920
0.496900	-1.043744
0.497000	-1.118722
0.497100	-1.158321
0.497200	-1.205710
0.497300	-1.192078
0.497400	-1.155400
0.497500	-1.138846
0.497600	-1.080746
0.497700	-1.010961
0.497800	-0.883400
0.497900	-0.815238
0.498000	-0.800632
0.498100	-0.741882
0.498200	-0.664307
0.498300	-0.491954
0.498400	-0.403019
0.498500	-0.337129
0.498600	-0.203401
0.498700	-0.185225
0.498800	-0.083631
0.498900	0.003357
0.499000	0.090021
0.499100	0.198106
0.499200	0.304245
0.499300	0.328913
0.499400	0.331509
0.499500	0.313982
0.499600	0.342545
0.499700	0.308789
0.499800	0.343194
0.499900	0.368187
0.500000	0.417523
0.500100	0.438946
0.500200	0.449332
0.500300	0.405514
0.500400	0.458745
0.500500	0.416550
0.500600	0.646354
0.500700	0.780730
0.500800	1.156596
0.500900	0.817408
0.501000	0.680759
0.501100	0.588253
0.501200	0.739184
0.501300	0.947565
0.501400	1.131928
0.501500	1.083565
0.501600	0.884921
0.501700	0.855059
0.501800	0.898553
0.501900	1.055002
0.502000	1.132577
0.502100	1.115698
0.502200	1.005990
0.502300	1.061818
0.502400	0.980023
0.502500	1.015727
0.502600	1.017675
0.502700	1.002095
0.502800	1.022219
0.502900	1.036825
0.503000	0.974181
0.503100	0.990410
0.503200	0.872587
0.503300	0.877780
0.503400	0.819355
0.503500	0.936205
0.503600	0.962171
0.503700	1.017675
0.503800	0.801503
0.503900	0.663556
0.504000	0.648950
0.504100	0.781704
0.504200	1.049159
0.504300	0.972558
0.504400	0.860577
0.504500	0.640511
0.504600	0.619738
0.504700	0.735289
0.504800	0.916405
0.504900	0.968338
0.505000	0.873236
0.505100	0.767422
0.505200	0.756387
0.505300	0.719384
0.505400	0.798582
0.505500	0.749570
0.505600	0.745675
0.505700	0.692444
0.505800	0.682707
0.505900	0.715165
0.506000	0.695365
0.506100	0.662583
0.506200	0.646029
0.506300	0.684005
0.506400	0.717437
0.506500	0.724253
0.506600	0.622334
0.506700	0.505485
0.506800	0.486010
0.506900	0.495748
0.507000	0.617790
0.507100	0.548330
0.507200	0.527232
0.507300	0.556444
0.507400	0.534697
0.507500	0.517819
0.507600	0.488282
0.507700	0.463614
0.507800	0.441867
0.507900	0.439270
0.508000	0.416550
0.508100	0.412330
0.508200	0.391882
0.508300	0.424340
0.508400	0.403891
0.508500	0.383118
0.508600	0.344168
0.508700	0.300674
0.508800	0.255557
0.508900	0.207195
0.509000	-0.057339
0.509100	-0.284871
0.509200	-0.236833
0.509300	-0.112843
0.509400	0.056589
0.509500	-0.069998
0.509600	-0.341998
0.509700	-0.602961
0.509800	-0.648727
0.509900	-0.512403
0.510000	-0.406589
0.510100	-0.423792
0.510200	-0.582837
0.510300	-0.806150
0.510400	-0.835687
0.510500	-0.847372
0.510600	-0.775314
0.510700	-0.762980
0.510800	-0.755839
0.510900	-0.790245
0.511000	-0.791219
0.511100	-0.790245
0.511200	-0.806474
0.511300	-0.830169
0.511400	-0.864250
0.511500	-0.900928
0.511600	-0.915534
0.511700	-0.932412
0.511800	-0.983371
0.511900	-1.029462
0.512000	-1.071982
0.512100	-0.922350
0.512200	-0.801281
0.512300	-0.845749
0.512400	-1.003820
0.512500	-1.202140
0.512600	-1.253748
0.512700	-1.134627
0.512800	-0.941176
0.512900	-0.924947
0.513000	-1.105090
0.513100	-1.295944
0.513200	-1.400135
0.513300	-1.334245
0.513400	-1.232326
0.513500	-1.151830
0.513600	-1.151180
0.513700	-1.227457
0.513800	-1.242063
0.513900	-1.228106
0.514000	-1.215123
0.514100	-1.209930
0.514200	-1.196297
0.514300	-1.120020
0.514400	-0.985968
0.514500	-0.906121
0.514600	-0.872689
0.514700	-0.881777
0.514800	-0.891515
0.514900	-0.826923
0.515000	-0.655868
0.515100	-0.589978
0.515200	-0.342971
0.515300	-0.347515
0.515400	-0.299802
0.515500	-0.214437
0.515600	-0.116413
0.515700	-0.002161
0.515800	0.133190
0.515900	0.240951
0.516000	0.242899
0.516100	0.302297
0.516200	0.268216
0.516300	0.361046
0.516400	0.317228
0.516500	0.382144
0.516600	0.389609
0.516700	0.409734
0.516800	0.449332
0.516900	0.391232
0.517000	0.366240
0.517100	0.350335
0.517200	0.439595
0.517300	0.643432
0.517400	0.826496
0.517500	1.001446
0.517600	0.556769
0.517700	0.523662
0.517800	0.407137
0.517900	0.786573
0.518000	0.848892
0.518100	1.073827
0.518200	0.915432
0.518300	0.818382
0.518400	0.816759
0.518500	0.879403
0.518600	1.059546
0.518700	1.068310
0.518800	1.146858
0.518900	1.016701
0.519000	0.978725
0.519100	0.982945
0.519200	1.045589
0.519300	1.077398
0.519400	1.079670
0.519500	1.070906
0.519600	1.069283
0.519700	1.085188
0.519800	0.983918
0.519900	1.002095
0.520000	0.901150
0.520100	0.947241
0.520200	0.955680
0.520300	1.007937
0.520400	1.052080
0.520500	0.744377
0.520600	0.686926
0.520700	0.696988
0.520800	0.878429
0.520900	1.039422
0.521000	0.969961
0.521100	0.783002
0.521200	0.607079
0.521300	0.690821
0.521400	0.904720
0.521500	1.009560
0.521600	0.969961
0.521700	0.874210
0.521800	0.818706
0.521900	0.830391
0.522000	0.777484
0.522100	0.857007
0.522200	0.773265
0.522300	0.787222
0.522400	0.734315
0.522500	0.727823
0.522600	0.749246
0.522700	0.703480
0.522800	0.693742
0.522900	0.720358
0.523000	0.739184
0.523100	0.769370
0.523200	0.759308
0.523300	0.598315
0.523400	0.564884
0.523500	0.546382
0.523600	0.681408
0.523700	0.707050
0.523800	0.654468
0.523900	0.677189
0.524000	0.663232
0.524100	0.651547
0.524200	0.658688
0.524300	0.656740
0.524400	0.655117
0.524500	0.640511
0.524600	0.657714
0.524700	0.637914
0.524800	0.600263
0.524900	0.612272
0.525000	0.583709
0.525100	0.572998
0.525200	0.541514
0.525300	0.527232
0.525400	0.521065
0.525500	0.462965
0.525600	0.351958
0.525700	0.067300
0.525800	-0.079736
0.525900	0.007252
0.526000	0.218230
0.526100	0.283147
0.526200	0.145524
0.526300	-0.122580
0.526400	-0.325119
0.526500	-0.338103
0.526600	-0.198532
0.526700	-0.085253
0.526800	-0.127774
0.526900	-0.294933
0.527000	-0.404966
0.527100	-0.484814
0.527200	-0.496174
0.527300	-0.446837
0.527400	-0.474427
0.527500	-0.482541
0.527600	-0.511754
0.527700	-0.568231
0.527800	-0.589004
0.527900	-0.642236
0.528000	-0.719486
0.528100	-0.765577
0.528200	-0.836011
0.528300	-0.814913
0.528400	-0.837634
0.528500	-0.896708
0.528600	-0.945395
0.528700	-0.963572
0.528800	-0.807123
0.528900	-0.716240
0.529000	-0.803228
0.529100	-1.011610
0.529200	-1.122617
0.529300	-1.107362
0.529400	-0.875610
0.529500	-0.745777
0.529600	-0.783104
0.529700	-1.001548
0.529800	-1.197920
0.529900	-1.220641
0.530000	-1.118722
0.530100	-1.029137
0.530200	-1.015180
0.530300	-1.020049
0.530400	-1.023944
0.530500	-1.003820
0.530600	-0.973634
0.530700	-0.959677
0.530800	-0.927543
0.530900	-0.863925
0.531000	-0.725978
0.531100	-0.574398
0.531200	-0.491630
0.531300	-0.427038
0.531400	-0.379000
0.531500	-0.368289
0.531600	-0.213788
0.531700	-0.080385
0.531800	0.030622
0.531900	0.230565
0.532000	0.204273
0.532100	0.293858
0.532200	0.381170
0.532300	0.485361
0.532400	0.633370
0.532500	0.739184
0.532600	0.825198
0.532700	0.829093
0.532800	0.881351
0.532900	0.916081
0.533000	0.917379
0.533100	0.910238
0.533200	0.982295
0.533300	0.975479
0.533400	1.083889
0.533500	1.031632
0.533600	1.037474
0.533700	0.904720
0.533800	1.003718
0.533900	0.970286
0.534000	1.268252
0.534100	1.431192
0.534200	1.383478
0.534300	0.999498
0.534400	1.029035
0.534500	0.917379
0.534600	1.168281
0.534700	1.304280
0.534800	1.341932
0.534900	1.176720
0.535000	1.085837
0.535100	1.061493
0.535200	1.230276
0.535300	1.338361
0.535400	1.337712
0.535500	1.355564
0.535600	1.240987
0.535700	1.174772
0.535800	1.197168
0.535900	1.197818
0.536000	1.229627
0.536100	1.220538
0.536200	1.190677
0.536300	1.197168
0.536400	1.206581
0.536500	1.138744
0.536600	1.042343
0.536700	1.010209
0.536800	1.015403
0.536900	1.082916
0.537000	1.065064
0.537100	1.001770
0.537200	0.701857
0.537300	0.672969
0.537400	0.770344
0.537500	0.962821
0.537600	0.997226
0.537700	0.857332
0.537800	0.598640
0.537900	0.531776
0.538000	0.619738
0.538100	0.810916
0.538200	0.862200
0.538300	0.768721
0.538400	0.634019
0.538500	0.607728
0.538600	0.592148
0.538700	0.613571
0.538800	0.597666
0.538900	0.575919
0.539000	0.511652
0.539100	0.492177
0.539200	0.505810
0.539300	0.512626
0.539400	0.486659
0.539500	0.436349
0.539600	0.475948
0.539700	0.486335
0.539800	0.538268
0.539900	0.491853
0.540000	0.352932
0.540100	0.299376
0.540200	0.261724
0.540300	0.412006
0.540400	0.350984
0.540500	0.313657
0.540600	0.312684
0.540700	0.269839
0.540800	0.264970
0.540900	0.233161
0.541000	0.207519
0.541100	0.170841
0.541200	0.139357
0.541300	0.133190
0.541400	0.100407
0.541500	0.078660
0.541600	0.053018
0.541700	0.034193
0.541800	0.024455
0.541900	-0.003134
0.542000	-0.005731
0.542100	-0.075516
0.542200	-0.095965
0.542300	-0.334532
0.542400	-0.610102
0.542500	-0.656517
0.542600	-0.582837
0.542700	-0.376403
0.542800	-0.437100
0.542900	-0.640613
0.543000	-0.964870
0.543100	-1.106713
0.543200	-1.098273
0.543300	-0.991486
0.543400	-0.951887
0.543500	-1.076202
0.543600	-1.235572
0.543700	-1.370598
0.543800	-1.357615
0.543900	-1.395591
0.544000	-1.368651
0.544100	-1.430646
0.544200	-1.498808
0.544300	-1.562102
0.544400	-1.623772
0.544500	-1.709787
0.544600	-1.751982
0.544700	-1.816574
0.544800	-1.944460
0.544900	-2.018140
0.545000	-2.048976
0.545100	-2.117787
0.545200	-2.207697
0.545300	-2.273263
0.545400	-2.199907
0.545500	-2.100584
0.545600	-2.044107
0.545700	-2.200556
0.545800	-2.434905
0.545900	-2.525789
0.546000	-2.394008
0.546100	-2.179134
0.546200	-2.059362
0.546300	-2.130446
0.546400	-2.336556
0.546500	-2.467364
0.546600	-2.439125
0.546700	-2.275535
0.546800	-2.165501
0.546900	-2.152842
0.547000	-2.168422
0.547100	-2.151544
0.547200	-2.118437
0.547300	-2.068775
0.547400	-2.030799
0.547500	-1.991849
0.547600	-1.918493
0.547700	-1.786388
0.547800	-1.662398
0.547900	-1.569567
0.548000	-1.542951
0.548100	-1.528670
0.548200	-1.504326
0.548300	-1.331648
0.548400	-1.235572
0.548500	-1.075553
0.548600	-0.998302
0.548700	-0.967467
0.548800	-0.909691
0.548900	-0.814589
0.549000	-0.717539
0.549100	-0.612699
0.549200	-0.527009
0.549300	-0.488384
0.549400	-0.498771
0.549500	-0.486112
0.549600	-0.481243
0.549700	-0.503964
0.549800	-0.465014
0.549900	-0.469883
0.550000	-0.454303
0.550100	-0.432231
0.550200	-0.468909
0.550300	-0.481892
0.550400	-0.484489
0.550500	-0.418274
0.550600	-0.333883
0.550700	-0.055716
0.550800	0.123777
0.550900	-0.041435
0.551000	-0.224174
0.551100	-0.183277
0.551200	-0.088499
0.551300	0.206221
0.551400	0.297753
0.551500	0.393829
0.551600	0.200703
0.551700	0.206545
0.551800	0.351309
0.551900	0.446087
0.552000	0.612597
0.552100	0.609027
0.552200	0.595394
0.552300	0.658363
0.552400	0.621685
0.552500	0.690821
0.552600	0.756387
0.552700	0.795661
0.552800	0.832014
0.552900	0.883623
0.553000	0.914458
0.553100	0.838181
0.553200	0.898229
0.553300	0.875184
0.553400	0.917704
0.553500	0.895957
0.553600	0.956653
0.553700	1.016052
0.553800	0.824224
0.553900	0.693418
0.554000	0.709647
0.554100	0.852463
0.554200	1.030334
0.554300	0.994305
0.554400	0.831040
0.554500	0.596043
0.554600	0.595719
0.554700	0.704129
0.554800	0.831690
0.554900	0.819355
0.555000	0.669399
0.555100	0.566506
0.555200	0.542487
0.555300	0.491853
0.555400	0.515872
0.555500	0.439920
0.555600	0.381495
0.555700	0.306517
0.555800	0.258154
0.555900	0.256531
0.556000	0.214011
0.556100	0.141305
0.556200	0.080283
0.556300	0.096512
0.556400	0.075414
0.556500	0.041658
0.556600	-0.079736
0.556700	-0.208270
0.556800	-0.247220
0.556900	-0.257931
0.557000	-0.166074
0.557100	-0.241377
0.557200	-0.243649
0.557300	-0.220279
0.557400	-0.189769
0.557500	-0.168671
0.557600	-0.146275
0.557700	-0.133941
0.557800	-0.086227
0.557900	-0.078113
0.558000	-0.039812
0.558100	-0.051497
0.558200	-0.038514
0.558300	-0.037865
0.558400	-0.038189
0.558500	-0.016442
0.558600	-0.042409
0.558700	-0.041759
0.558800	-0.074218
0.558900	-0.121607
0.559000	-0.343945
0.559100	-0.502990
0.559200	-0.427687
0.559300	-0.218007
0.559400	-0.032022
0.559500	-0.122905
0.559600	-0.319601
0.559700	-0.498121
0.559800	-0.508183
0.559900	-0.339401
0.560000	-0.183926
0.560100	-0.131019
0.560200	-0.255334
0.560300	-0.375429
0.560400	-0.416327
0.560500	-0.306294
0.560600	-0.253387
0.560700	-0.199831
0.560800	-0.167373
0.560900	-0.183602
0.561000	-0.133292
0.561100	-0.092394
0.561200	-0.090771
0.561300	-0.081034
0.561400	-0.089473
0.561500	-0.104079
0.561600	-0.061234
0.561700	-0.032022
0.561800	-0.013196
0.561900	-0.042409
0.562000	0.018288
0.562100	0.152340
0.562200	0.277304
0.562300	0.243872
0.562400	0.073467
0.562500	-0.067726
0.562600	-0.110246
0.562700	0.051395
0.562800	0.245171
0.562900	0.261075
0.563000	0.117935
0.563100	-0.089798
0.563200	-0.157960
0.563300	-0.029425
0.563400	0.095539
0.563500	0.153639
0.563600	0.141305
0.563700	0.117286
0.563800	0.161753
0.563900	0.229915
0.564000	0.251013
0.564100	0.289638
0.564200	0.309113
0.564300	0.405839
0.564400	0.516521
0.564500	0.655442
0.564600	0.714840
0.564700	0.758983
0.564800	0.761255
0.564900	0.867718
0.565000	1.067011
0.565100	1.269550
0.565200	1.354915
0.565300	1.293569
0.565400	1.331545
0.565500	1.395163
0.565600	1.462352
0.565700	1.522724
0.565800	1.607440
0.565900	1.579850
0.566000	1.514609
0.566100	1.499029
0.566200	1.415936
0.566300	1.405874
0.566400	1.304605
0.566500	1.320834
0.566600	1.191326
0.566700	1.220863
0.566800	1.098496
0.566900	1.061493
0.567000	0.941398
0.567100	0.917704
0.567200	0.869990
0.567300	1.005990
0.567400	1.152052
0.567500	1.111803
0.567600	0.708673
0.567700	0.514249
0.567800	0.400970
0.567900	0.636291
0.568000	0.740482
0.568100	0.867718
0.568200	0.602210
0.568300	0.490879
0.568400	0.329237
0.568500	0.352607
0.568600	0.489581
0.568700	0.430507
0.568800	0.355528
0.568900	0.262049
0.569000	0.242899
0.569100	0.123777
0.569200	0.121830
0.569300	0.090345
0.569400	0.011147
0.569500	-0.016767
0.569600	-0.075516
0.569700	-0.093693
0.569800	-0.275783
0.569900	-0.290389
0.570000	-0.370561
0.570100	-0.388088
0.570200	-0.431582
0.570300	-0.367964
0.570400	-0.480919
0.570500	-0.762980
0.570600	-0.963896
0.570700	-0.914885
0.570800	-0.744804
0.570900	-0.647104
0.571000	-0.791543
0.571100	-1.036927
0.571200	-1.232001
0.571300	-1.154426
0.571400	-0.931763
0.571500	-0.853863
0.571600	-0.926245
0.571700	-1.110608
0.571800	-1.149233
0.571900	-1.140145
0.572000	-1.148908
0.572100	-1.120345
0.572200	-1.220316
0.572300	-1.256345
0.572400	-1.311524
0.572500	-1.260889
0.572600	-1.276794
0.572700	-1.332622
0.572800	-1.365405
0.572900	-1.365729
0.573000	-1.313796
0.573100	-1.276145
0.573200	-1.294970
0.573300	-1.419610
0.573400	-1.490694
0.573500	-1.508546
0.573600	-1.470569
0.573700	-1.385204
0.573800	-1.424154
0.573900	-1.376440
0.574000	-1.352746
0.574100	-1.337491
0.574200	-1.349176
0.574300	-1.294646
0.574400	-1.292374
0.574500	-1.259266
0.574600	-1.230378
0.574700	-1.165137
0.574800	-1.188183
0.574900	-1.138522
0.575000	-1.135600
0.575100	-1.090159
0.575200	-1.134302
0.575300	-1.073605
0.575400	-1.123915
0.575500	-1.115152
0.575600	-1.219018
0.575700	-1.512116
0.575800	-1.600727
0.575900	-1.509195
0.576000	-1.329376
0.576100	-1.254398
0.576200	-1.424803
0.576300	-1.697128
0.576400	-1.894150
0.576500	-1.829558
0.576600	-1.743219
0.576700	-1.632211
0.576800	-1.717252
0.576900	-1.927906
0.577000	-2.118112
0.577100	-2.091821
0.577200	-2.072670
0.577300	-1.998665
0.577400	-2.035992
0.577500	-2.033396
0.577600	-2.064231
0.577700	-2.094742
0.577800	-2.079487
0.577900	-2.086952
0.578000	-2.101558
0.578100	-2.118761
0.578200	-2.230742
0.578300	-2.214189
0.578400	-2.269043
0.578500	-2.304098
0.578600	-2.358953
0.578700	-2.305721
0.578800	-2.165177
0.578900	-2.126876
0.579000	-2.187573
0.579100	-2.425492
0.579200	-2.562791
0.579300	-2.537474
0.579400	-2.335907
0.579500	-2.175888
0.579600	-2.206074
0.579700	-2.415430
0.579800	-2.627059
0.579900	-2.662438
0.580000	-2.504691
0.580100	-2.372261
0.580200	-2.329091
0.580300	-2.345645
0.580400	-2.369015
0.580500	-2.344996
0.580600	-2.298256
0.580700	-2.243076
0.580800	-2.164852
0.580900	-2.104155
0.581000	-1.959391
0.581100	-1.794178
0.581200	-1.728613
0.581300	-1.650064
0.581400	-1.596507
0.581500	-1.536784
0.581600	-1.341386
0.581700	-1.175199
0.581800	-1.053481
0.581900	-0.816861
0.582000	-0.745777
0.582100	-0.654245
0.582200	-0.506561
0.582300	-0.368613
0.582400	-0.169969
0.582500	-0.013196
0.582600	0.115013
0.582700	0.114040
0.582800	0.201677
0.582900	0.277304
0.583000	0.286717
0.583100	0.410058
0.583200	0.375977
0.583300	0.523662
0.583400	0.457447
0.583500	0.601886
0.583600	0.489256
0.583700	0.598315
0.583800	0.632721
0.583900	0.714516
0.584000	0.983918
0.584100	1.140691
0.584200	1.049808
0.584300	0.776511
0.584400	0.760282
0.584500	0.760606
0.584600	1.144262
0.584700	1.302008
0.584800	1.316290
0.584900	1.275393
0.585000	1.108233
0.585100	1.256242
0.585200	1.291297
0.585300	1.586017
0.585400	1.617826
0.585500	1.691182
0.585600	1.678523
0.585700	1.564270
0.585800	1.591211
0.585900	1.622695
0.586000	1.720070
0.586100	1.741817
0.586200	1.751229
0.586300	1.751554
0.586400	1.627564
0.586500	1.638924
0.586600	1.589912
0.586700	1.573034
0.586800	1.614905
0.586900	1.652557
0.587000	1.703840
0.587100	1.538628
0.587200	1.333168
0.587300	1.229951
0.587400	1.345827
0.587500	1.505846
0.587600	1.549340
0.587700	1.368548
0.587800	1.148481
0.587900	1.072205
0.588000	1.204958
0.588100	1.408471
0.588200	1.467545
0.588300	1.382505
0.588400	1.270199
0.588500	1.277989
0.588600	1.260786
0.588700	1.265655
0.588800	1.237092
0.588900	1.144911
0.589000	1.098171
0.589100	1.047212
0.589200	1.031632
0.589300	1.017026
0.589400	0.929389
0.589500	0.894334
0.589600	0.890763
0.589700	0.881675
0.589800	0.892386
0.589900	0.754764
0.590000	0.593771
0.590100	0.507433
0.590200	0.433428
0.590300	0.533724
0.590400	0.430182
0.590500	0.379872
0.590600	0.346440
0.590700	0.279901
0.590800	0.247767
0.590900	0.166297
0.591000	0.142603
0.591100	0.088722
0.591200	0.028675
0.591300	-0.049874
0.591400	-0.116413
0.591500	-0.183277
0.591600	-0.221253
0.591700	-0.289415
0.591800	-0.326742
0.591900	-0.390036
0.592000	-0.447811
0.592100	-0.516947
0.592200	-0.630551
0.592300	-0.844126
0.592400	-1.175849
0.592500	-1.209605
0.592600	-1.105414
0.592700	-0.971362
0.592800	-1.003171
0.592900	-1.269004
0.593000	-1.535810
0.593100	-1.732508
0.593200	-1.643247
0.593300	-1.528020
0.593400	-1.506273
0.593500	-1.618254
0.593600	-1.788011
0.593700	-1.944785
0.593800	-1.929205
0.593900	-1.877271
0.594000	-1.896422
0.594100	-1.866885
0.594200	-1.909405
0.594300	-1.945109
0.594400	-1.959715
0.594500	-2.002236
0.594600	-2.017816
0.594700	-2.041510
0.594800	-2.054494
0.594900	-2.134666
0.595000	-2.117787
0.595100	-2.145377
0.595200	-2.221329
0.595300	-2.251840
0.595400	-2.218408
0.595500	-2.058389
0.595600	-2.041510
0.595700	-2.237883
0.595800	-2.432309
0.595900	-2.543641
0.596000	-2.401473
0.596100	-2.167449
0.596200	-2.092794
0.596300	-2.216785
0.596400	-2.464442
0.596500	-2.591030
0.596600	-2.528061
0.596700	-2.394008
0.596800	-2.292738
0.596900	-2.285272
0.597000	-2.322599
0.597100	-2.317081
0.597200	-2.283000
0.597300	-2.264824
0.597400	-2.242103
0.597500	-2.185625
0.597600	-2.087926
0.597700	-1.976269
0.597800	-1.862016
0.597900	-1.813653
0.598000	-1.795801
0.598100	-1.764317
0.598200	-1.711734
0.598300	-1.498808
0.598400	-1.405004
0.598500	-1.166111
0.598600	-1.131381
0.598700	-1.089185
0.598800	-0.995056
0.598900	-0.901577
0.599000	-0.770770
0.599100	-0.634121
0.599200	-0.567257
0.599300	-0.476050
0.599400	-0.481243
0.599500	-0.396852
0.599600	-0.373482
0.599700	-0.384518
0.599800	-0.288766
0.599900	-0.310513
0.600000	-0.172241
0.600100	-0.128423
0.600200	-0.081034
0.600300	-0.076814
0.600400	-0.085903
0.600500	0.042632
0.600600	0.106574
0.600700	0.480492
0.600800	0.522363
0.600900	0.475299
0.601000	0.194211
0.601100	0.326316
0.601200	0.421094
0.601300	0.683031
0.601400	0.832339
0.601500	0.811566
0.601600	0.620062
0.601700	0.500292
0.601800	0.651871
0.601900	0.789494
0.602000	0.866095
0.602100	0.979050
0.602200	0.870315
0.602300	0.775212
0.602400	0.747948
0.602500	0.766449
0.602600	0.778783
0.602700	0.757036
0.602800	0.755413
0.602900	0.659012
0.603000	0.665179
0.603100	0.628826
0.603200	0.540540
0.603300	0.507433
0.603400	0.462965
0.603500	0.479194
0.603600	0.497371
0.603700	0.492177
0.603800	0.303920
0.603900	0.109820
0.604000	0.114040
0.604100	0.273409
0.604200	0.397724
0.604300	0.398698
0.604400	0.161104
0.604500	-0.032347
0.604600	-0.028452
0.604700	0.122154
