LabVIEW Measurement	
Writer_Version	2
Reader_Version	2
Separator	Tab
Decimal_Separator	.
Multi_Headings	Yes
X_Columns	One
Time_Pref	Relative
Operator	as989
Description	Time Domain Data
Date	1903/12/31
Time	19:00:00
***End_of_Header***	
	
Channels	1	
Samples	15000	
Date	1903/12/31	
Time	19:00:00	
X_Dimension	Time	
X0	0.0000000000000000E+0	
Delta_X	0.000100	
***End_of_Header***		
X_Value	Untitled	Comment
0.000000	-1.484851	Tare Values:0.000000, 0.000000, 0.000000, 0.000000\0D\0A
0.000100	-1.478035
0.000200	-1.483228
0.000300	-1.464727
0.000400	-1.483877
0.000500	-1.490044
0.000600	-1.483877
0.000700	-1.492316
0.000800	-1.488746
0.000900	-1.496536
0.001000	-1.494264
0.001100	-1.523152
0.001200	-1.500106
0.001300	-1.461157
0.001400	-1.356641
0.001500	-1.258617
0.001600	-1.266732
0.001700	-1.326455
0.001800	-1.415390
0.001900	-1.360211
0.002000	-1.282961
0.002100	-1.171304
0.002200	-1.134302
0.002300	-1.178770
0.002400	-1.222913
0.002500	-1.242388
0.002600	-1.167409
0.002700	-1.111906
0.002800	-1.095352
0.002900	-1.065166
0.003000	-1.100870
0.003100	-1.080746
0.003200	-1.075228
0.003300	-1.065815
0.003400	-1.041472
0.003500	-1.033357
0.003600	-1.047963
0.003700	-1.019400
0.003800	-1.033682
0.003900	-1.048288
0.004000	-1.060947
0.004100	-1.085290
0.004200	-1.079123
0.004300	-1.051209
0.004400	-1.058999
0.004500	-1.102168
0.004600	-1.198569
0.004700	-1.206035
0.004800	-1.195648
0.004900	-1.120020
0.005000	-1.107686
0.005100	-1.138846
0.005200	-1.237519
0.005300	-1.262188
0.005400	-1.214474
0.005500	-1.148259
0.005600	-1.091457
0.005700	-1.108660
0.005800	-1.159944
0.005900	-1.166111
0.006000	-1.145662
0.006100	-0.959028
0.006200	-0.810694
0.006300	-0.700985
0.006400	-0.749672
0.006500	-0.651649
0.006600	-0.597768
0.006700	-0.389711
0.006800	-0.326742
0.006900	-0.320900
0.007000	-0.203401
0.007100	-0.049874
0.007200	0.172464
0.007300	0.013744
0.007400	-0.241702
0.007500	-0.331936
0.007600	-0.269940
0.007700	0.146822
0.007800	0.111768
0.007900	0.142603
0.008000	0.074441
0.008100	0.152989
0.008200	0.226994
0.008300	0.158507
0.008400	0.195834
0.008500	0.183176
0.008600	0.166947
0.008700	0.052369
0.008800	0.016016
0.008900	-0.022285
0.009000	0.016665
0.009100	-0.050199
0.009200	-0.120633
0.009300	-0.244623
0.009400	-0.284547
0.009500	-0.522465
0.009600	-0.668527
0.009700	-1.332297
0.009800	-1.514063
0.009900	-1.575085
0.010000	-1.510493
0.010100	-1.451419
0.010200	-1.445577
0.010300	-1.543276
0.010400	-1.661099
0.010500	-1.738350
0.010600	-1.727314
0.010700	-1.670512
0.010800	-1.654932
0.010900	-1.705567
0.011000	-1.814627
0.011100	-1.860393
0.011200	-1.861367
0.011300	-1.846111
0.011400	-1.815276
0.011500	-1.813978
0.011600	-1.859095
0.011700	-1.890255
0.011800	-1.919467
0.011900	-1.933424
0.012000	-1.932775
0.012100	-1.956794
0.012200	-1.977243
0.012300	-1.983410
0.012400	-1.998665
0.012500	-2.019763
0.012600	-2.044756
0.012700	-2.060012
0.012800	-2.042809
0.012900	-1.981463
0.013000	-1.962961
0.013100	-2.012622
0.013200	-2.100909
0.013300	-2.163229
0.013400	-2.127525
0.013500	-2.060012
0.013600	-2.029825
0.013700	-2.079162
0.013800	-2.163554
0.013900	-2.230742
0.014000	-2.244699
0.014100	-2.209320
0.014200	-2.170370
0.014300	-2.162580
0.014400	-2.194389
0.014500	-2.221005
0.014600	-2.231716
0.014700	-2.213539
0.014800	-2.196012
0.014900	-2.190494
0.015000	-2.168422
0.015100	-2.157711
0.015200	-2.119410
0.015300	-2.091821
0.015400	-2.080136
0.015500	-2.081110
0.015600	-2.039887
0.015700	-1.968479
0.015800	-1.906159
0.015900	-1.822417
0.016000	-1.818522
0.016100	-1.788660
0.016200	-1.722121
0.016300	-1.694207
0.016400	-1.645519
0.016500	-1.594560
0.016600	-1.549443
0.016700	-1.533538
0.016800	-1.511142
0.016900	-1.503677
0.017000	-1.494264
0.017100	-1.493939
0.017200	-1.451419
0.017300	-1.437462
0.017400	-1.427725
0.017500	-1.453691
0.017600	-1.439734
0.017700	-1.435190
0.017800	-1.470245
0.017900	-1.434541
0.018000	-1.371247
0.018100	-1.269328
0.018200	-1.238168
0.018300	-1.301462
0.018400	-1.394942
0.018500	-1.419610
0.018600	-1.360861
0.018700	-1.268679
0.018800	-1.213825
0.018900	-1.199543
0.019000	-1.285557
0.019100	-1.315094
0.019200	-1.281013
0.019300	-1.227133
0.019400	-1.168383
0.019500	-1.159944
0.019600	-1.147935
0.019700	-1.151830
0.019800	-1.154751
0.019900	-1.135925
0.020000	-1.118398
0.020100	-1.100870
0.020200	-1.100221
0.020300	-1.085939
0.020400	-1.095677
0.020500	-1.100546
0.020600	-1.116775
0.020700	-1.121319
0.020800	-1.120994
0.020900	-1.072956
0.021000	-1.065491
0.021100	-1.037577
0.021200	-1.108660
0.021300	-1.173901
0.021400	-1.167085
0.021500	-1.113853
0.021600	-1.032059
0.021700	-1.042121
0.021800	-1.088211
0.021900	-1.163839
0.022000	-1.158970
0.022100	-1.100546
0.022200	-0.981424
0.022300	-0.606532
0.022400	-0.843152
0.022500	-0.864899
0.022600	-0.664956
0.022700	-0.631200
0.022800	-0.306618
0.022900	-0.301749
0.023000	-0.155688
0.023100	-0.077463
0.023200	0.059835
0.023300	0.109820
0.023400	0.163376
0.023500	0.133839
0.023600	0.208818
0.023700	0.434726
0.023800	0.570726
0.023900	0.768396
0.024000	0.494449
0.024100	0.326641
0.024200	0.235433
0.024300	0.371433
0.024400	0.532425
0.024500	0.479843
0.024600	0.535996
0.024700	0.634344
0.024800	0.686277
0.024900	0.573323
0.025000	0.565857
0.025100	0.629800
0.025200	0.670373
0.025300	0.675241
0.025400	0.712568
0.025500	0.774563
0.025600	0.779757
0.025700	0.748921
0.025800	0.745351
0.025900	0.575595
0.026000	0.477571
0.026100	0.393829
0.026200	0.212063
0.026300	-0.055392
0.026400	-0.917157
0.026500	-1.438436
0.026600	-1.420584
0.026700	-1.370273
0.026800	-1.140145
0.026900	-1.384880
0.027000	-1.424154
0.027100	-1.535810
0.027200	-1.565672
0.027300	-1.517634
0.027400	-1.488746
0.027500	-1.488746
0.027600	-1.539381
0.027700	-1.606569
0.027800	-1.666293
0.027900	-1.668240
0.028000	-1.659801
0.028100	-1.657204
0.028200	-1.692908
0.028300	-1.722770
0.028400	-1.754904
0.028500	-1.763343
0.028600	-1.778598
0.028700	-1.808135
0.028800	-1.822092
0.028900	-1.825014
0.029000	-1.840918
0.029100	-1.840594
0.029200	-1.871429
0.029300	-1.881816
0.029400	-1.895773
0.029500	-1.835076
0.029600	-1.790283
0.029700	-1.801319
0.029800	-1.875973
0.029900	-1.959066
0.030000	-1.999639
0.030100	-1.940565
0.030200	-1.877271
0.030300	-1.871754
0.030400	-1.930828
0.030500	-2.010350
0.030600	-2.064880
0.030700	-2.055467
0.030800	-1.994770
0.030900	-1.956145
0.031000	-1.949653
0.031100	-1.967505
0.031200	-1.984708
0.031300	-1.990875
0.031400	-1.981138
0.031500	-1.963610
0.031600	-1.956794
0.031700	-1.926283
0.031800	-1.881816
0.031900	-1.858121
0.032000	-1.854226
0.032100	-1.819171
0.032200	-1.815925
0.032300	-1.769835
0.032400	-1.707515
0.032500	-1.637080
0.032600	-1.580927
0.032700	-1.577357
0.032800	-1.558531
0.032900	-1.522503
0.033000	-1.479009
0.033100	-1.445252
0.033200	-1.408899
0.033300	-1.370273
0.033400	-1.378388
0.033500	-1.389424
0.033600	-1.390722
0.033700	-1.406627
0.033800	-1.368651
0.033900	-1.365080
0.034000	-1.351448
0.034100	-1.348851
0.034200	-1.361185
0.034300	-1.338789
0.034400	-1.329051
0.034500	-1.320288
0.034600	-1.292698
0.034700	-1.212202
0.034800	-1.081395
0.034900	-1.071009
0.035000	-1.136250
0.035100	-1.233300
0.035200	-1.200517
0.035300	-1.145662
0.035400	-1.009013
0.035500	-0.973634
0.035600	-1.020698
0.035700	-1.090808
0.035800	-1.107362
0.035900	-1.058999
0.036000	-0.974283
0.036100	-0.917157
0.036200	-0.892488
0.036300	-0.937930
0.036400	-0.947343
0.036500	-0.952861
0.036600	-0.925920
0.036700	-0.898006
0.036800	-0.879505
0.036900	-0.874961
0.037000	-0.883400
0.037100	-0.901577
0.037200	-0.911963
0.037300	-0.934035
0.037400	-0.959352
0.037500	-0.974283
0.037600	-0.946694
0.037700	-0.948317
0.037800	-0.959677
0.037900	-1.081720
0.038000	-1.101519
0.038100	-1.103791
0.038200	-1.027839
0.038300	-0.987916
0.038400	-1.015505
0.038500	-1.097949
0.038600	-1.157347
0.038700	-1.156374
0.038800	-1.065815
0.038900	-0.795763
0.039000	-0.670150
0.039100	-0.862627
0.039200	-1.026541
0.039300	-0.962598
0.039400	-0.744804
0.039500	-0.369262
0.039600	-0.247220
0.039700	-0.204375
0.039800	-0.191392
0.039900	-0.030399
0.040000	0.046851
0.040100	0.146498
0.040200	0.254259
0.040300	0.562611
0.040400	0.666478
0.040500	0.798907
0.040600	0.887193
0.040700	0.626229
0.040800	0.413304
0.040900	0.416225
0.041000	0.417848
0.041100	0.780081
0.041200	0.682382
0.041300	0.758983
0.041400	0.726201
0.041500	0.692769
0.041600	0.669723
0.041700	0.668425
0.041800	0.677189
0.041900	0.673943
0.042000	0.665504
0.042100	0.682707
0.042200	0.681084
0.042300	0.633370
0.042400	0.588903
0.042500	0.434077
0.042600	0.552225
0.042700	0.399996
0.042800	0.315929
0.042900	0.166297
0.043000	-0.316031
0.043100	-1.606569
0.043200	-1.417987
0.043300	-1.402407
0.043400	-1.156049
0.043500	-1.184612
0.043600	-1.390073
0.043700	-1.512116
0.043800	-1.595534
0.043900	-1.621825
0.044000	-1.568269
0.044100	-1.529643
0.044200	-1.567295
0.044300	-1.642274
0.044400	-1.755228
0.044500	-1.792555
0.044600	-1.774379
0.044700	-1.773080
0.044800	-1.784441
0.044900	-1.822417
0.045000	-1.847734
0.045100	-1.857472
0.045200	-1.869157
0.045300	-1.880517
0.045400	-1.910054
0.045500	-1.940565
0.045600	-1.952250
0.045700	-1.969778
0.045800	-1.992498
0.045900	-2.030150
0.046000	-2.053845
0.046100	-2.050923
0.046200	-1.985033
0.046300	-1.939591
0.046400	-1.960040
0.046500	-2.037615
0.046600	-2.121033
0.046700	-2.108699
0.046800	-2.057090
0.046900	-1.993148
0.047000	-1.988279
0.047100	-2.051897
0.047200	-2.136289
0.047300	-2.181730
0.047400	-2.148298
0.047500	-2.120709
0.047600	-2.108699
0.047700	-2.123954
0.047800	-2.166150
0.047900	-2.169072
0.048000	-2.162904
0.048100	-2.148947
0.048200	-2.143105
0.048300	-2.137587
0.048400	-2.115840
0.048500	-2.085654
0.048600	-2.053520
0.048700	-2.029176
0.048800	-2.023009
0.048900	-2.008078
0.049000	-1.943486
0.049100	-1.882465
0.049200	-1.788985
0.049300	-1.762694
0.049400	-1.753605
0.049500	-1.722121
0.049600	-1.689013
0.049700	-1.651037
0.049800	-1.599104
0.049900	-1.564698
0.050000	-1.542302
0.050100	-1.526722
0.050200	-1.523801
0.050300	-1.504001
0.050400	-1.517634
0.050500	-1.497185
0.050600	-1.496211
0.050700	-1.471868
0.050800	-1.489720
0.050900	-1.467973
0.051000	-1.499457
0.051100	-1.514388
0.051200	-1.504326
0.051300	-1.459534
0.051400	-1.367028
0.051500	-1.278417
0.051600	-1.281338
0.051700	-1.409872
0.051800	-1.468297
0.051900	-1.416689
0.052000	-1.318340
0.052100	-1.192727
0.052200	-1.202789
0.052300	-1.219667
0.052400	-1.284259
0.052500	-1.288154
0.052600	-1.260565
0.052700	-1.166111
0.052800	-1.108336
0.052900	-1.118398
0.053000	-1.124889
0.053100	-1.151180
0.053200	-1.133004
0.053300	-1.102168
0.053400	-1.071658
0.053500	-1.047639
0.053600	-1.038875
0.053700	-1.013882
0.053800	-1.010636
0.053900	-1.012584
0.054000	-1.058025
0.054100	-1.051534
0.054200	-1.045367
0.054300	-0.996355
0.054400	-0.979476
0.054500	-1.006092
0.054600	-1.126512
0.054700	-1.114827
0.054800	-1.059648
0.054900	-0.971362
0.055000	-0.954808
0.055100	-0.982722
0.055200	-1.069386
0.055300	-1.104441
0.055400	-1.057701
0.055500	-0.682484
0.055600	-0.318628
0.055700	-0.252088
0.055800	-0.481243
0.055900	-0.608479
0.056000	-0.598742
0.056100	-0.483840
0.056200	-0.261177
0.056300	-0.133616
0.056400	-0.232614
0.056500	-0.269616
0.056600	-0.133292
0.056700	0.001734
0.056800	-0.017740
0.056900	-0.034294
0.057000	0.048799
0.057100	0.303920
0.057200	0.378249
0.057300	0.290612
0.057400	-0.013196
0.057500	-0.107000
0.057600	-0.069674
0.057700	0.067625
0.057800	0.099109
0.057900	0.105925
0.058000	0.009200
0.058100	0.004331
0.058200	-0.052471
0.058300	0.052369
0.058400	0.241925
0.058500	0.336378
0.058600	0.379547
0.058700	0.363968
0.058800	0.408760
0.058900	0.585332
0.059000	0.449982
0.059100	0.481791
0.059200	0.462316
0.059300	0.451929
0.059400	0.331509
0.059500	0.292560
0.059600	0.053668
0.059700	-0.658465
0.059800	-1.390398
0.059900	-1.424803
0.060000	-1.366378
0.060100	-1.012259
0.060200	-1.161892
0.060300	-1.439085
0.060400	-1.577032
0.060500	-1.643572
0.060600	-1.625071
0.060700	-1.589691
0.060800	-1.572164
0.060900	-1.627018
0.061000	-1.732508
0.061100	-1.795477
0.061200	-1.793854
0.061300	-1.779247
0.061400	-1.768212
0.061500	-1.783467
0.061600	-1.801644
0.061700	-1.839295
0.061800	-1.837348
0.061900	-1.854226
0.062000	-1.864288
0.062100	-1.936670
0.062200	-1.942188
0.062300	-1.943811
0.062400	-1.955820
0.062500	-1.953548
0.062600	-1.986007
0.062700	-2.013921
0.062800	-2.002560
0.062900	-1.927906
0.063000	-1.936346
0.063100	-1.978541
0.063200	-2.071697
0.063300	-2.125902
0.063400	-2.075916
0.063500	-2.011324
0.063600	-1.970751
0.063700	-2.002236
0.063800	-2.093768
0.063900	-2.156413
0.064000	-2.174914
0.064100	-2.144728
0.064200	-2.112594
0.064300	-2.098312
0.064400	-2.128499
0.064500	-2.155114
0.064600	-2.153167
0.064700	-2.153816
0.064800	-2.143754
0.064900	-2.153167
0.065000	-2.122981
0.065100	-2.072995
0.065200	-2.037615
0.065300	-2.004833
0.065400	-1.988279
0.065500	-1.959391
0.065600	-1.933100
0.065700	-1.867534
0.065800	-1.821768
0.065900	-1.764966
0.066000	-1.743543
0.066100	-1.727314
0.066200	-1.701997
0.066300	-1.667916
0.066400	-1.609166
0.066500	-1.563725
0.066600	-1.515037
0.066700	-1.485500
0.066800	-1.485825
0.066900	-1.470569
0.067000	-1.450770
0.067100	-1.452393
0.067200	-1.417013
0.067300	-1.426751
0.067400	-1.404355
0.067500	-1.418636
0.067600	-1.401758
0.067700	-1.395266
0.067800	-1.437462
0.067900	-1.405328
0.068000	-1.402732
0.068100	-1.287180
0.068200	-1.251152
0.068300	-1.293023
0.068400	-1.383257
0.068500	-1.400784
0.068600	-1.327753
0.068700	-1.232651
0.068800	-1.160269
0.068900	-1.160269
0.069000	-1.232975
0.069100	-1.252450
0.069200	-1.249529
0.069300	-1.164164
0.069400	-1.120345
0.069500	-1.079448
0.069600	-1.106388
0.069700	-1.120994
0.069800	-1.145013
0.069900	-1.092106
0.070000	-1.072631
0.070100	-1.065166
0.070200	-1.067438
0.070300	-1.056078
0.070400	-1.059324
0.070500	-1.076526
0.070600	-1.086589
0.070700	-1.105414
0.070800	-1.109634
0.070900	-1.089185
0.071000	-1.085290
0.071100	-1.069386
0.071200	-1.166760
0.071300	-1.238493
0.071400	-1.257319
0.071500	-1.223562
0.071600	-1.142741
0.071700	-1.160918
0.071800	-1.207333
0.071900	-1.288479
0.072000	-1.305682
0.072100	-1.245958
0.072200	-1.170331
0.072300	-1.134302
0.072400	-1.171629
0.072500	-1.219018
0.072600	-1.224536
0.072700	-1.228756
0.072800	-1.187209
0.072900	-1.235572
0.073000	-1.113204
0.073100	-1.206035
0.073200	-1.267056
0.073300	-1.161892
0.073400	-1.116775
0.073500	-1.167734
0.073600	-1.158970
0.073700	-1.137873
0.073800	-0.890866
0.073900	-0.866522
0.074000	-1.046990
0.074100	-1.315094
0.074200	-1.362159
0.074300	-1.261214
0.074400	-0.988240
0.074500	-1.090808
0.074600	-1.008364
0.074700	-1.043419
0.074800	-1.071658
0.074900	-1.061271
0.075000	-1.107037
0.075100	-1.107037
0.075200	-1.057701
0.075300	-1.000250
0.075400	-0.903200
0.075500	-0.823352
0.075600	-0.901252
0.075700	-0.936632
0.075800	-0.935658
0.075900	-0.920078
0.076000	-1.043095
0.076100	-1.086913
0.076200	-1.200517
0.076300	-1.475114
0.076400	-1.552364
0.076500	-1.650064
0.076600	-1.643572
0.076700	-1.606894
0.076800	-1.547820
0.076900	-1.585147
0.077000	-1.698751
0.077100	-1.805539
0.077200	-1.854551
0.077300	-1.811706
0.077400	-1.779572
0.077500	-1.777625
0.077600	-1.843839
0.077700	-1.918169
0.077800	-1.972699
0.077900	-1.982436
0.078000	-1.947057
0.078100	-1.964909
0.078200	-1.971725
0.078300	-1.994121
0.078400	-2.008403
0.078500	-2.032747
0.078600	-2.055792
0.078700	-2.095716
0.078800	-2.143429
0.078900	-2.128823
0.079000	-2.151219
0.079100	-2.158360
0.079200	-2.187248
0.079300	-2.202828
0.079400	-2.213539
0.079500	-2.152193
0.079600	-2.111620
0.079700	-2.132069
0.079800	-2.203153
0.079900	-2.261902
0.080000	-2.288518
0.080100	-2.238857
0.080200	-2.162255
0.080300	-2.180757
0.080400	-2.235611
0.080500	-2.326170
0.080600	-2.375506
0.080700	-2.370962
0.080800	-2.320976
0.080900	-2.267745
0.081000	-2.270341
0.081100	-2.308967
0.081200	-2.332661
0.081300	-2.325521
0.081400	-2.295334
0.081500	-2.280079
0.081600	-2.271640
0.081700	-2.236585
0.081800	-2.189196
0.081900	-2.149597
0.082000	-2.135964
0.082100	-2.136613
0.082200	-2.147974
0.082300	-2.090522
0.082400	-2.008727
0.082500	-1.986980
0.082600	-1.913300
0.082700	-1.905835
0.082800	-1.874675
0.082900	-1.837997
0.083000	-1.770159
0.083100	-1.715954
0.083200	-1.697128
0.083300	-1.664345
0.083400	-1.663696
0.083500	-1.664021
0.083600	-1.666942
0.083700	-1.658827
0.083800	-1.641624
0.083900	-1.619553
0.084000	-1.620527
0.084100	-1.615333
0.084200	-1.598130
0.084300	-1.625395
0.084400	-1.632211
0.084500	-1.618904
0.084600	-1.619553
0.084700	-1.529968
0.084800	-1.452717
0.084900	-1.394617
0.085000	-1.545223
0.085100	-1.563400
0.085200	-1.589042
0.085300	-1.475438
0.085400	-1.360536
0.085500	-1.347553
0.085600	-1.372221
0.085700	-1.471543
0.085800	-1.478359
0.085900	-1.413443
0.086000	-1.350798
0.086100	-1.312822
0.086200	-1.311849
0.086300	-1.298865
0.086400	-1.344631
0.086500	-1.305032
0.086600	-1.306980
0.086700	-1.303734
0.086800	-1.277443
0.086900	-1.279066
0.087000	-1.269977
0.087100	-1.281662
0.087200	-1.307954
0.087300	-1.350474
0.087400	-1.364756
0.087500	-1.380985
0.087600	-1.340736
0.087700	-1.330999
0.087800	-1.344631
0.087900	-1.437462
0.088000	-1.471543
0.088100	-1.450445
0.088200	-1.392670
0.088300	-1.319314
0.088400	-1.363782
0.088500	-1.439734
0.088600	-1.499457
0.088700	-1.474789
0.088800	-1.406302
0.088900	-1.356641
0.089000	-1.372221
0.089100	-1.416689
0.089200	-1.467324
0.089300	-1.470894
0.089400	-1.457586
0.089500	-1.438111
0.089600	-1.455639
0.089700	-1.472192
0.089800	-1.496211
0.089900	-1.509195
0.090000	-1.508870
0.090100	-1.521204
0.090200	-1.540679
0.090300	-1.552364
0.090400	-1.544574
0.090500	-1.545223
0.090600	-1.566321
0.090700	-1.602999
0.090800	-1.652011
0.090900	-1.665643
0.091000	-1.620202
0.091100	-1.606894
0.091200	-1.615333
0.091300	-1.616956
0.091400	-1.605596
0.091500	-1.597806
0.091600	-1.584822
0.091700	-1.578655
0.091800	-1.567944
0.091900	-1.563400
0.092000	-1.557557
0.092100	-1.550741
0.092200	-1.553013
0.092300	-1.540030
0.092400	-1.534512
0.092500	-1.521853
0.092600	-1.538407
0.092700	-1.551715
0.092800	-1.556908
0.092900	-1.561452
0.093000	-1.623448
0.093100	-1.733157
0.093200	-1.778598
0.093300	-1.757825
0.093400	-1.672135
0.093500	-1.640651
0.093600	-1.699400
0.093700	-1.808460
0.093800	-1.903887
0.093900	-1.889281
0.094000	-1.846436
0.094100	-1.832804
0.094200	-1.860718
0.094300	-1.952899
0.094400	-2.027229
0.094500	-2.052222
0.094600	-2.042160
0.094700	-2.061310
0.094800	-2.071697
0.094900	-2.098312
0.095000	-2.127849
0.095100	-2.144079
0.095200	-2.165501
0.095300	-2.176862
0.095400	-2.208671
0.095500	-2.257683
0.095600	-2.254112
0.095700	-2.274561
0.095800	-2.292413
0.095900	-2.315459
0.096000	-2.340127
0.096100	-2.335258
0.096200	-2.261578
0.096300	-2.231716
0.096400	-2.264499
0.096500	-2.353435
0.096600	-2.426791
0.096700	-2.422896
0.096800	-2.345320
0.096900	-2.287544
0.097000	-2.302800
0.097100	-2.395306
0.097200	-2.482619
0.097300	-2.517349
0.097400	-2.482944
0.097500	-2.418351
0.097600	-2.412509
0.097700	-2.416404
0.097800	-2.437502
0.097900	-2.421273
0.098000	-2.409263
0.098100	-2.402122
0.098200	-2.382647
0.098300	-2.363821
0.098400	-2.303124
0.098500	-2.254437
0.098600	-2.235936
0.098700	-2.241778
0.098800	-2.231716
0.098900	-2.200881
0.099000	-2.154141
0.099100	-2.108374
0.099200	-2.062284
0.099300	-2.023009
0.099400	-1.999964
0.099500	-1.997043
0.099600	-1.962637
0.099700	-1.919792
0.099800	-1.855200
0.099900	-1.828259
0.100000	-1.799047
0.100100	-1.803591
0.100200	-1.820145
0.100300	-1.777949
0.100400	-1.800994
0.100500	-1.771782
0.100600	-1.769185
0.100700	-1.757825
0.100800	-1.758474
0.100900	-1.778274
0.101000	-1.770484
0.101100	-1.816574
0.101200	-1.775352
0.101300	-1.731209
0.101400	-1.622474
0.101500	-1.535161
0.101600	-1.592937
0.101700	-1.684469
0.101800	-1.766913
0.101900	-1.687715
0.102000	-1.585796
0.102100	-1.483877
0.102200	-1.485825
0.102300	-1.580278
0.102400	-1.628316
0.102500	-1.618904
0.102600	-1.565347
0.102700	-1.479009
0.102800	-1.464727
0.102900	-1.471868
0.103000	-1.525099
0.103100	-1.497834
0.103200	-1.500431
0.103300	-1.461481
0.103400	-1.443304
0.103500	-1.430646
0.103600	-1.427725
0.103700	-1.440708
0.103800	-1.402407
0.103900	-1.449147
0.104000	-1.421882
0.104100	-1.461157
0.104200	-1.427400
0.104300	-1.408250
0.104400	-1.371572
0.104500	-1.416040
0.104600	-1.503352
0.104700	-1.505624
0.104800	-1.464402
0.104900	-1.356966
0.105000	-1.357939
0.105100	-1.400460
0.105200	-1.494264
0.105300	-1.536784
0.105400	-1.501405
0.105500	-1.430321
0.105600	-1.377090
0.105700	-1.406302
0.105800	-1.463753
0.105900	-1.480956
0.106000	-1.482254
0.106100	-1.471868
0.106200	-1.457262
0.106300	-1.463753
0.106400	-1.475438
0.106500	-1.501405
0.106600	-1.480956
0.106700	-1.474789
0.106800	-1.478359
0.106900	-1.483228
0.107000	-1.477710
0.107100	-1.474789
0.107200	-1.467324
0.107300	-1.505624
0.107400	-1.551715
0.107500	-1.563725
0.107600	-1.570541
0.107700	-1.512441
0.107800	-1.538732
0.107900	-1.548794
0.108000	-1.563400
0.108100	-1.580278
0.108200	-1.583849
0.108300	-1.569242
0.108400	-1.558856
0.108500	-1.578006
0.108600	-1.578980
0.108700	-1.573462
0.108800	-1.585472
0.108900	-1.584822
0.109000	-1.595209
0.109100	-1.604297
0.109200	-1.595209
0.109300	-1.590340
0.109400	-1.591963
0.109500	-1.610140
0.109600	-1.651686
0.109700	-1.748087
0.109800	-1.884088
0.109900	-1.879544
0.110000	-1.830532
0.110100	-1.745491
0.110200	-1.774379
0.110300	-1.883439
0.110400	-2.010026
0.110500	-2.070074
0.110600	-2.042809
0.110700	-1.997692
0.110800	-1.972699
0.110900	-2.038914
0.111000	-2.110322
0.111100	-2.162904
0.111200	-2.166799
0.111300	-2.127849
0.111400	-2.122981
0.111500	-2.130122
0.111600	-2.144728
0.111700	-2.166475
0.111800	-2.182704
0.111900	-2.202179
0.112000	-2.223277
0.112100	-2.267745
0.112200	-2.316108
0.112300	-2.335907
0.112400	-2.352136
0.112500	-2.365769
0.112600	-2.400499
0.112700	-2.423220
0.112800	-2.390113
0.112900	-2.329091
0.113000	-2.337855
0.113100	-2.379077
0.113200	-2.472881
0.113300	-2.514104
0.113400	-2.493655
0.113500	-2.411535
0.113600	-2.372261
0.113700	-2.423869
0.113800	-2.504042
0.113900	-2.585512
0.114000	-2.569932
0.114100	-2.532605
0.114200	-2.496252
0.114300	-2.491707
0.114400	-2.530982
0.114500	-2.547536
0.114600	-2.547860
0.114700	-2.531631
0.114800	-2.517674
0.114900	-2.509235
0.115000	-2.468662
0.115100	-2.425168
0.115200	-2.383621
0.115300	-2.340451
0.115400	-2.341101
0.115500	-2.342399
0.115600	-2.315134
0.115700	-2.254112
0.115800	-2.223277
0.115900	-2.148298
0.116000	-2.148947
0.116100	-2.129472
0.116200	-2.116489
0.116300	-2.089549
0.116400	-2.036317
0.116500	-1.991200
0.116600	-1.944785
0.116700	-1.940890
0.116800	-1.918493
0.116900	-1.912326
0.117000	-1.903563
0.117100	-1.875649
0.117200	-1.872078
0.117300	-1.864937
0.117400	-1.841567
0.117500	-1.832804
0.117600	-1.848384
0.117700	-1.852603
0.117800	-1.868183
0.117900	-1.841892
0.118000	-1.759123
0.118100	-1.642598
0.118200	-1.589691
0.118300	-1.638054
0.118400	-1.732508
0.118500	-1.738025
0.118600	-1.660450
0.118700	-1.545548
0.118800	-1.461157
0.118900	-1.491992
0.119000	-1.529968
0.119100	-1.566970
0.119200	-1.526398
0.119300	-1.420259
0.119400	-1.380335
0.119500	-1.335219
0.119600	-1.348202
0.119700	-1.346903
0.119800	-1.353395
0.119900	-1.346579
0.120000	-1.333271
0.120100	-1.319963
0.120200	-1.309577
0.120300	-1.299839
0.120400	-1.277443
0.120500	-1.297567
0.120600	-1.301462
0.120700	-1.314445
0.120800	-1.306006
0.120900	-1.269328
0.121000	-1.232001
0.121100	-1.232651
0.121200	-1.311524
0.121300	-1.356966
0.121400	-1.380985
0.121500	-1.302760
0.121600	-1.223562
0.121700	-1.252125
0.121800	-1.312822
0.121900	-1.408899
0.122000	-1.413118
0.122100	-1.370923
0.122200	-1.301462
0.122300	-1.278417
0.122400	-1.321261
0.122500	-1.357615
0.122600	-1.365405
0.122700	-1.372546
0.122800	-1.327104
0.122900	-1.342035
0.123000	-1.349500
0.123100	-1.358588
0.123200	-1.369949
0.123300	-1.333271
0.123400	-1.258293
0.123500	-1.295944
0.123600	-1.119047
0.123700	-0.938904
0.123800	-0.554274
0.123900	-0.456900
0.124000	-0.670799
0.124100	-0.779209
0.124200	-0.806799
0.124300	-0.506236
0.124400	-0.148222
0.124500	-0.218981
0.124600	-0.233263
0.124700	-0.231640
0.124800	-0.220279
0.124900	-0.137836
0.125000	-0.054094
0.125100	0.018937
0.125200	-0.006380
0.125300	0.013095
0.125400	-0.041110
0.125500	-0.094991
0.125600	-0.152442
0.125700	-0.186198
0.125800	-0.225148
0.125900	-0.366990
0.126000	-0.404317
0.126100	-0.498446
0.126200	-0.584785
0.126300	-0.785376
0.126400	-1.425128
0.126500	-1.491992
0.126600	-1.479009
0.126700	-1.384555
0.126800	-1.185586
0.126900	-1.685768
0.127000	-1.490044
0.127100	-1.596183
0.127200	-1.627992
0.127300	-1.608517
0.127400	-1.574760
0.127500	-1.587744
0.127600	-1.647142
0.127700	-1.734130
0.127800	-1.747763
0.127900	-1.766264
0.128000	-1.746789
0.128100	-1.780546
0.128200	-1.812030
0.128300	-1.829558
0.128400	-1.870455
0.128500	-1.898369
0.128600	-1.921090
0.128700	-1.979840
0.128800	-2.009701
0.128900	-2.042484
0.129000	-2.068451
0.129100	-2.089549
0.129200	-2.144079
0.129300	-2.204127
0.129400	-2.232041
0.129500	-2.201530
0.129600	-2.174589
0.129700	-2.217434
0.129800	-2.306370
0.129900	-2.401473
0.130000	-2.416404
0.130100	-2.375831
0.130200	-2.327468
0.130300	-2.304423
0.130400	-2.377779
0.130500	-2.472232
0.130600	-2.524490
0.130700	-2.510858
0.130800	-2.471583
0.130900	-2.430686
0.131000	-2.431010
0.131100	-2.442371
0.131200	-2.449511
0.131300	-2.445616
0.131400	-2.439449
0.131500	-2.421273
0.131600	-2.388814
0.131700	-2.334284
0.131800	-2.274236
0.131900	-2.231067
0.132000	-2.214838
0.132100	-2.197310
0.132200	-2.178484
0.132300	-2.111296
0.132400	-2.048976
0.132500	-2.032422
0.132600	-1.967505
0.132700	-1.967181
0.132800	-1.951601
0.132900	-1.916871
0.133000	-1.873376
0.133100	-1.830532
0.133200	-1.796775
0.133300	-1.760746
0.133400	-1.769510
0.133500	-1.773730
0.133600	-1.785090
0.133700	-1.767238
0.133800	-1.771133
0.133900	-1.734780
0.134000	-1.727963
0.134100	-1.720173
0.134200	-1.737701
0.134300	-1.746140
0.134400	-1.723744
0.134500	-1.719200
0.134600	-1.676355
0.134700	-1.595209
0.134800	-1.465051
0.134900	-1.439085
0.135000	-1.538732
0.135100	-1.596507
0.135200	-1.599429
0.135300	-1.461481
0.135400	-1.368651
0.135500	-1.321261
0.135600	-1.351772
0.135700	-1.392345
0.135800	-1.400135
0.135900	-1.346254
0.136000	-1.249204
0.136100	-1.185911
0.136200	-1.165787
0.136300	-1.134302
0.136400	-1.166436
0.136500	-1.158970
0.136600	-1.128460
0.136700	-1.131381
0.136800	-1.137548
0.136900	-1.144364
0.137000	-1.122617
0.137100	-1.149557
0.137200	-1.171954
0.137300	-1.205386
0.137400	-1.209605
0.137500	-1.225185
0.137600	-1.207658
0.137700	-1.217720
0.137800	-1.252450
0.137900	-1.381958
0.138000	-1.403381
0.138100	-1.377739
0.138200	-1.337491
0.138300	-1.292374
0.138400	-1.341710
0.138500	-1.421557
0.138600	-1.472192
0.138700	-1.477061
0.138800	-1.415066
0.138900	-1.361510
0.139000	-1.369300
0.139100	-1.414741
0.139200	-1.414417
0.139300	-1.398188
0.139400	-1.389424
0.139500	-1.356966
0.139600	-1.346903
0.139700	-1.350474
0.139800	-1.338789
0.139900	-1.321586
0.140000	-1.235896
0.140100	-1.278741
0.140200	-1.185911
0.140300	-0.901901
0.140400	-0.641911
0.140500	-0.235535
0.140600	-0.112194
0.140700	-0.308566
0.140800	-0.138160
0.140900	0.024455
0.141000	0.493151
0.141100	0.528530
0.141200	0.752816
0.141300	0.908940
0.141400	1.123164
0.141500	1.299412
0.141600	1.463325
0.141700	1.503898
0.141800	1.456834
0.141900	1.487994
0.142000	1.479879
0.142100	1.466896
0.142200	1.316939
0.142300	1.252672
0.142400	1.174123
0.142500	1.204958
0.142600	1.097197
0.142700	0.911212
0.142800	0.889790
0.142900	0.584034
0.143000	0.079959
0.143100	-1.013558
0.143200	-1.378063
0.143300	-1.268030
0.143400	-0.804527
0.143500	-0.636718
0.143600	-1.204736
0.143700	-1.429997
0.143800	-1.507896
0.143900	-1.505949
0.144000	-1.460832
0.144100	-1.444603
0.144200	-1.493290
0.144300	-1.575085
0.144400	-1.640001
0.144500	-1.651686
0.144600	-1.640326
0.144700	-1.658503
0.144800	-1.683171
0.144900	-1.719524
0.145000	-1.770808
0.145100	-1.794178
0.145200	-1.837023
0.145300	-1.868183
0.145400	-1.944135
0.145500	-1.988928
0.145600	-2.042484
0.145700	-2.092794
0.145800	-2.126876
0.145900	-2.196012
0.146000	-2.223277
0.146100	-2.221979
0.146200	-2.178809
0.146300	-2.179783
0.146400	-2.236585
0.146500	-2.308642
0.146600	-2.387841
0.146700	-2.373559
0.146800	-2.310265
0.146900	-2.262227
0.147000	-2.252814
0.147100	-2.313836
0.147200	-2.356356
0.147300	-2.341750
0.147400	-2.275210
0.147500	-2.206074
0.147600	-2.174589
0.147700	-2.163229
0.147800	-2.147000
0.147900	-2.117787
0.148000	-2.083382
0.148100	-2.055792
0.148200	-2.025281
0.148300	-1.998990
0.148400	-1.950627
0.148500	-1.918493
0.148600	-1.901615
0.148700	-1.917195
0.148800	-1.922388
0.148900	-1.950627
0.149000	-1.899668
0.149100	-1.867534
0.149200	-1.832479
0.149300	-1.808135
0.149400	-1.820469
0.149500	-1.793854
0.149600	-1.788660
0.149700	-1.752956
0.149800	-1.721472
0.149900	-1.698426
0.150000	-1.688689
0.150100	-1.701672
0.150200	-1.714006
0.150300	-1.723419
0.150400	-1.758150
0.150500	-1.766589
0.150600	-1.761395
0.150700	-1.732832
0.150800	-1.735429
0.150900	-1.745491
0.151000	-1.723744
0.151100	-1.747114
0.151200	-1.723095
0.151300	-1.694856
0.151400	-1.570541
0.151500	-1.514713
0.151600	-1.503677
0.151700	-1.634808
0.151800	-1.640651
0.151900	-1.623772
0.152000	-1.490369
0.152100	-1.429672
0.152200	-1.423505
0.152300	-1.475438
0.152400	-1.501729
0.152500	-1.491018
0.152600	-1.419285
0.152700	-1.348526
0.152800	-1.323534
0.152900	-1.314770
0.153000	-1.333596
0.153100	-1.312822
0.153200	-1.282961
0.153300	-1.258293
0.153400	-1.216097
0.153500	-1.201815
0.153600	-1.160918
0.153700	-1.132679
0.153800	-1.088211
0.153900	-1.123266
0.154000	-1.075553
0.154100	-1.088536
0.154200	-1.045367
0.154300	-1.008040
0.154400	-0.973959
0.154500	-1.011935
0.154600	-1.103791
0.154700	-1.135276
0.154800	-1.110283
0.154900	-1.020374
0.155000	-1.010961
0.155100	-1.077176
0.155200	-1.186235
0.155300	-1.225185
0.155400	-1.197920
0.155500	-1.152803
0.155600	-1.148584
0.155700	-1.206359
0.155800	-1.293347
0.155900	-1.335868
0.156000	-1.368001
0.156100	-1.373195
0.156200	-1.393968
0.156300	-1.435190
0.156400	-1.468622
0.156500	-1.485825
0.156600	-1.467324
0.156700	-1.472192
0.156800	-1.487448
0.156900	-1.496536
0.157000	-1.486799
0.157100	-1.443629
0.157200	-1.422207
0.157300	-1.429672
0.157400	-1.461481
0.157500	-1.464402
0.157600	-1.432269
0.157700	-0.996355
0.157800	-1.002846
0.157900	-0.895734
0.158000	-0.720460
0.158100	-0.563362
0.158200	-0.484489
0.158300	-0.206322
0.158400	0.059510
0.158500	0.349037
0.158600	0.537943
0.158700	0.804749
0.158800	1.012157
0.158900	1.344529
0.159000	1.464299
0.159100	1.744413
0.159200	1.871000
0.159300	1.990446
0.159400	2.008298
0.159500	2.118332
0.159600	2.143324
0.159700	1.472738
0.159800	0.743079
0.159900	0.551251
0.160000	1.071880
0.160100	1.605817
0.160200	1.698323
0.160300	0.984568
0.160400	-0.017740
0.160500	-0.596145
0.160600	-0.538045
0.160700	-0.140432
0.160800	-0.177110
0.160900	-0.671448
0.161000	-1.129758
0.161100	-1.152803
0.161200	-1.173901
0.161300	-1.161892
0.161400	-1.189806
0.161500	-1.219343
0.161600	-1.264784
0.161700	-1.300488
0.161800	-1.339763
0.161900	-1.377090
0.162000	-1.413443
0.162100	-1.482254
0.162200	-1.514063
0.162300	-1.563075
0.162400	-1.557882
0.162500	-1.598455
0.162600	-1.628966
0.162700	-1.649090
0.162800	-1.622149
0.162900	-1.570865
0.163000	-1.560479
0.163100	-1.608517
0.163200	-1.690312
0.163300	-1.726340
0.163400	-1.661099
0.163500	-1.564374
0.163600	-1.506273
0.163700	-1.550417
0.163800	-1.626044
0.163900	-1.678951
0.164000	-1.650388
0.164100	-1.577357
0.164200	-1.507572
0.164300	-1.502378
0.164400	-1.508221
0.164500	-1.507896
0.164600	-1.465051
0.164700	-1.450121
0.164800	-1.412794
0.164900	-1.398188
0.165000	-1.364756
0.165100	-1.312822
0.165200	-1.278741
0.165300	-1.251152
0.165400	-1.255371
0.165500	-1.263486
0.165600	-1.244660
0.165700	-1.198569
0.165800	-1.163515
0.165900	-1.115152
0.166000	-1.120670
0.166100	-1.106063
0.166200	-1.091133
0.166300	-1.057376
0.166400	-1.028164
0.166500	-1.015830
0.166600	-0.994083
0.166700	-0.979152
0.166800	-1.016803
0.166900	-1.017128
0.167000	-1.045042
0.167100	-1.054455
0.167200	-1.065815
0.167300	-1.063543
0.167400	-1.066789
0.167500	-1.060622
0.167600	-1.061920
0.167700	-1.078474
0.167800	-1.079123
0.167900	-1.073605
0.168000	-1.005768
0.168100	-0.869119
0.168200	-0.819133
0.168300	-0.887295
0.168400	-0.950913
0.168500	-0.976880
0.168600	-0.898980
0.168700	-0.781806
0.168800	-0.702933
0.168900	-0.706828
0.169000	-0.749023
0.169100	-0.749997
0.169200	-0.685730
0.169300	-0.603611
0.169400	-0.554599
0.169500	-0.526685
0.169600	-0.551677
0.169700	-0.565959
0.169800	-0.574723
0.169900	-0.574723
0.170000	-0.595496
0.170100	-0.601988
0.170200	-0.640937
0.170300	-0.644508
0.170400	-0.680861
0.170500	-0.701634
0.170600	-0.732470
0.170700	-0.733119
0.170800	-0.764603
0.170900	-0.732794
0.171000	-0.729873
0.171100	-0.715267
0.171200	-0.813940
0.171300	-0.871715
0.171400	-0.866522
0.171500	-0.718837
0.171600	0.006928
0.171700	0.116312
0.171800	-0.118361
0.171900	-0.419573
0.172000	-0.174838
0.172100	0.684005
0.172200	1.489941
0.172300	1.832699
0.172400	1.776222
0.172500	1.583096
0.172600	1.706437
0.172700	1.908976
0.172800	2.149491
0.172900	2.253682
0.173000	2.423439
0.173100	2.380594
0.173200	2.575019
0.173300	2.759057
0.173400	2.716537
0.173500	2.737634
0.173600	2.945692
0.173700	3.097597
0.173800	3.279363
0.173900	3.419583
0.174000	3.206656
0.174100	2.985940
0.174200	2.974580
0.174300	3.314418
0.174400	3.577655
0.174500	3.708786
0.174600	3.883737
0.174700	4.010649
0.174800	4.437153
0.174900	4.620218
0.175000	4.943181
0.175100	5.103526
0.175200	5.276530
0.175300	5.435902
0.175400	5.567684
0.175500	5.670253
0.175600	5.754321
0.175700	5.816642
0.175800	5.835143
0.175900	5.751400
0.176000	5.696220
0.176100	5.535550
0.176200	5.397600
0.176300	4.963305
0.176400	4.146975
0.176500	3.394914
0.176600	3.254045
0.176700	3.597779
0.176800	3.843489
0.176900	3.250150
0.177000	1.990446
0.177100	0.922572
0.177200	0.451605
0.177300	0.532101
0.177400	0.653170
0.177500	0.180904
0.177600	-0.520193
0.177700	-1.094054
0.177800	-1.124889
0.177900	-1.134951
0.178000	-1.110283
0.178100	-1.124889
0.178200	-1.144364
0.178300	-1.192402
0.178400	-1.184612
0.178500	-1.204087
0.178600	-1.218693
0.178700	-1.230378
0.178800	-1.259266
0.178900	-1.252775
0.179000	-1.252125
0.179100	-1.281987
0.179200	-1.307954
0.179300	-1.360536
0.179400	-1.368326
0.179500	-1.321261
0.179600	-1.290426
0.179700	-1.310550
0.179800	-1.396565
0.179900	-1.484202
0.180000	-1.484202
0.180100	-1.420259
0.180200	-1.361510
0.180300	-1.359887
0.180400	-1.428374
0.180500	-1.533538
0.180600	-1.562102
0.180700	-1.549443
0.180800	-1.501080
0.180900	-1.488746
0.181000	-1.488097
0.181100	-1.493939
0.181200	-1.510818
0.181300	-1.486149
0.181400	-1.470245
0.181500	-1.442655
0.181600	-1.425452
0.181700	-1.373844
0.181800	-1.314445
0.181900	-1.269328
0.182000	-1.256345
0.182100	-1.231677
0.182200	-1.213176
0.182300	-1.169682
0.182400	-1.095677
0.182500	-1.076202
0.182600	-0.989863
0.182700	-1.005443
0.182800	-0.980450
0.182900	-0.953834
0.183000	-0.922999
0.183100	-0.864899
0.183200	-0.844450
0.183300	-0.795763
0.183400	-0.800632
0.183500	-0.790570
0.183600	-0.796737
0.183700	-0.818808
0.183800	-0.822703
0.183900	-0.818159
0.184000	-0.844775
0.184100	-0.841854
0.184200	-0.870417
0.184300	-0.902550
0.184400	-0.967142
0.184500	-0.961300
0.184600	-0.956756
0.184700	-0.874961
0.184800	-0.816861
0.184900	-0.810694
0.185000	-0.982073
0.185100	-1.064192
0.185200	-1.059973
0.185300	-0.970713
0.185400	-0.860030
0.185500	-0.828870
0.185600	-0.842178
0.185700	-0.872689
0.185800	-0.828870
0.185900	-0.749348
0.186000	-0.659114
0.186100	-0.607505
0.186200	-0.613997
0.186300	-0.600040
0.186400	-0.646455
0.186500	-0.629902
0.186600	-0.635744
0.186700	-0.627630
0.186800	-0.654570
0.186900	-0.663658
0.187000	-0.684756
0.187100	-0.693195
0.187200	-0.757462
0.187300	-0.801930
0.187400	-0.829195
0.187500	-0.824002
0.187600	-0.823677
0.187700	-0.834064
0.187800	-0.854512
0.187900	-0.957405
0.188000	-0.970064
0.188100	-0.951887
0.188200	-0.863925
0.188300	-0.641262
0.188400	-0.642885
0.188500	-0.927219
0.188600	-0.942149
0.188700	-0.701634
0.188800	0.226345
0.188900	0.917055
0.189000	1.149130
0.189100	0.952759
0.189200	0.876806
0.189300	1.004692
0.189400	1.413989
0.189500	1.719096
0.189600	1.873921
0.189700	1.942408
0.189800	2.052766
0.189900	2.254007
0.190000	2.456871
0.190100	2.519840
0.190200	2.526980
0.190300	2.630522
0.190400	2.944069
0.190500	3.212823
0.190600	3.146609
0.190700	2.851887
0.190800	2.637014
0.190900	2.662331
0.191000	2.935954
0.191100	2.859028
0.191200	2.800279
0.191300	2.812938
0.191400	2.765873
0.191500	2.699983
0.191600	2.631496
0.191700	2.549052
0.191800	2.472775
0.191900	2.414026
0.192000	2.361444
0.192100	2.202398
0.192200	2.182274
0.192300	2.133262
0.192400	2.073864
0.192500	1.974217
0.192600	1.821015
0.192700	1.622695
0.192800	1.349722
0.192900	1.060844
0.193000	0.509056
0.193100	-0.590627
0.193200	-1.169357
0.193300	-0.957729
0.193400	-0.451382
0.193500	-0.124528
0.193600	-0.782455
0.193700	-1.356641
0.193800	-1.414417
0.193900	-1.404030
0.194000	-1.320288
0.194100	-1.296593
0.194200	-1.328402
0.194300	-1.363133
0.194400	-1.399161
0.194500	-1.403056
0.194600	-1.348851
0.194700	-1.314770
0.194800	-1.301137
0.194900	-1.276794
0.195000	-1.271925
0.195100	-1.266407
0.195200	-1.255047
0.195300	-1.250827
0.195400	-1.253099
0.195500	-1.252450
0.195600	-1.277118
0.195700	-1.258942
0.195800	-1.258942
0.195900	-1.296593
0.196000	-1.296269
0.196100	-1.275171
0.196200	-1.220316
0.196300	-1.207009
0.196400	-1.249204
0.196500	-1.327104
0.196600	-1.390073
0.196700	-1.383906
0.196800	-1.318016
0.196900	-1.275171
0.197000	-1.308603
0.197100	-1.368651
0.197200	-1.472192
0.197300	-1.465051
0.197400	-1.427075
0.197500	-1.383906
0.197600	-1.356966
0.197700	-1.353395
0.197800	-1.363782
0.197900	-1.362808
0.198000	-1.363133
0.198100	-1.351123
0.198200	-1.329051
0.198300	-1.310875
0.198400	-1.266407
0.198500	-1.219992
0.198600	-1.199868
0.198700	-1.182340
0.198800	-1.201815
0.198900	-1.207333
0.199000	-1.162865
0.199100	-1.146636
0.199200	-1.100870
0.199300	-1.093729
0.199400	-1.107362
0.199500	-1.120670
0.199600	-1.121319
0.199700	-1.108660
0.199800	-1.090484
0.199900	-1.084316
0.200000	-1.096001
0.200100	-1.116775
0.200200	-1.139495
0.200300	-1.173252
0.200400	-1.196622
0.200500	-1.201815
0.200600	-1.181367
0.200700	-1.194025
0.200800	-1.200192
0.200900	-1.218369
0.201000	-1.245958
0.201100	-1.240441
0.201200	-1.237519
0.201300	-1.172278
0.201400	-1.050560
0.201500	-1.003820
0.201600	-1.015505
0.201700	-1.150531
0.201800	-1.151180
0.201900	-1.126512
0.202000	-0.967467
0.202100	-0.869768
0.202200	-0.841529
0.202300	-0.868145
0.202400	-0.892164
0.202500	-0.858732
0.202600	-0.757138
0.202700	-0.659439
0.202800	-0.600365
0.202900	-0.588355
0.203000	-0.609453
0.203100	-0.615295
0.203200	-0.605558
0.203300	-0.579591
0.203400	-0.573749
0.203500	-0.572126
0.203600	-0.564012
0.203700	-0.553625
0.203800	-0.615945
0.203900	-0.601338
0.204000	-0.651973
0.204100	-0.645482
0.204200	-0.650999
0.204300	-0.512403
0.204400	-0.500718
0.204500	-0.731496
0.204600	-0.813290
0.204700	-0.828870
0.204800	-0.742856
0.204900	-0.028452
0.205000	0.176359
0.205100	-0.118036
0.205200	-0.498771
0.205300	-0.405291
0.205400	0.272436
0.205500	1.152701
0.205600	1.689883
0.205700	1.767134
0.205800	1.674628
0.205900	1.748957
0.206000	1.906380
0.206100	2.175133
0.206200	2.381892
0.206300	2.409157
0.206400	2.483486
0.206500	2.496145
0.206600	2.571124
0.206700	2.656813
0.206800	2.715238
0.206900	2.794761
0.207000	3.060919
0.207100	3.259563
0.207200	3.553960
0.207300	3.367000
0.207400	3.142064
0.207500	3.127134
0.207600	3.382580
0.207700	3.652958
0.207800	3.569540
0.207900	3.563373
0.208000	3.688338
0.208100	3.651984
0.208200	3.773054
0.208300	3.874649
0.208400	3.993446
0.208500	4.133342
0.208600	4.299854
0.208700	4.343348
0.208800	4.426442
0.208900	4.571855
0.209000	4.628333
0.209100	4.718243
0.209200	4.738692
0.209300	4.816592
0.209400	4.835418
0.209500	4.819838
0.209600	4.583540
0.209700	3.853551
0.209800	2.886618
0.209900	2.635716
0.210000	2.981071
0.210100	3.434189
0.210200	3.295917
0.210300	2.453949
0.210400	1.289674
0.210500	0.646678
0.210600	0.563585
0.210700	0.836883
0.210800	0.633046
0.210900	0.032245
0.211000	-0.789596
0.211100	-1.037901
0.211200	-1.050235
0.211300	-1.008364
0.211400	-1.009013
0.211500	-1.026865
0.211600	-1.027515
0.211700	-1.042121
0.211800	-1.044717
0.211900	-1.052183
0.212000	-1.054779
0.212100	-1.082044
0.212200	-1.115476
0.212300	-1.103791
0.212400	-1.120994
0.212500	-1.133328
0.212600	-1.169032
0.212700	-1.149557
0.212800	-1.124240
0.212900	-1.042445
0.213000	-1.076526
0.213100	-1.138846
0.213200	-1.239467
0.213300	-1.279715
0.213400	-1.240765
0.213500	-1.182989
0.213600	-1.164488
0.213700	-1.240116
0.213800	-1.349176
0.213900	-1.440708
0.214000	-1.443954
0.214100	-1.411495
0.214200	-1.392020
0.214300	-1.397863
0.214400	-1.436164
0.214500	-1.447849
0.214600	-1.464402
0.214700	-1.458884
0.214800	-1.469271
0.214900	-1.443304
0.215000	-1.421233
0.215100	-1.404030
0.215200	-1.352421
0.215300	-1.324507
0.215400	-1.318340
0.215500	-1.330350
0.215600	-1.298216
0.215700	-1.235896
0.215800	-1.183963
0.215900	-1.125214
0.216000	-1.111257
0.216100	-1.083343
0.216200	-1.047639
0.216300	-1.004469
0.216400	-0.958054
0.216500	-0.929815
0.216600	-0.901901
0.216700	-0.893462
0.216800	-0.886321
0.216900	-0.885348
0.217000	-0.888918
0.217100	-0.897033
0.217200	-0.887295
0.217300	-0.888593
0.217400	-0.891839
0.217500	-0.899305
0.217600	-0.897682
0.217700	-0.897682
0.217800	-0.914885
0.217900	-0.886321
0.218000	-0.816212
0.218100	-0.682159
0.218200	-0.616269
0.218300	-0.676641
0.218400	-0.737014
0.218500	-0.715591
0.218600	-0.617568
0.218700	-0.499420
0.218800	-0.424117
0.218900	-0.409835
0.219000	-0.447811
0.219100	-0.436775
0.219200	-0.379649
0.219300	-0.239754
0.219400	-0.177435
0.219500	-0.124528
0.219600	-0.048251
0.219700	-0.095965
0.219800	-0.017416
0.219900	0.167596
0.220000	0.437648
0.220100	0.588903
0.220200	0.608702
0.220300	0.654793
0.220400	0.800530
0.220500	0.685303
0.220600	0.694716
0.220700	0.731069
0.220800	0.747298
0.220900	0.955680
0.221000	1.058897
0.221100	1.186782
0.221200	0.510678
0.221300	0.209467
0.221400	0.364617
0.221500	1.008262
0.221600	1.759344
0.221700	1.884308
0.221800	1.518180
0.221900	1.043641
0.222000	1.089732
0.222100	1.733053
0.222200	2.475372
0.222300	2.672393
0.222400	2.472775
0.222500	2.273806
0.222600	2.341319
0.222700	2.598713
0.222800	2.951534
0.222900	3.055725
0.223000	3.201138
0.223100	3.261186
0.223200	3.437759
0.223300	3.594533
0.223400	3.693856
0.223500	3.770782
0.223600	3.844787
0.223700	4.121332
0.223800	4.406642
0.223900	4.481621
0.224000	4.229419
0.224100	4.055766
0.224200	4.078487
0.224300	4.419625
0.224400	4.550757
0.224500	4.349840
0.224600	4.278106
0.224700	4.279729
0.224800	4.056740
0.224900	4.070697
0.225000	3.992148
0.225100	3.894773
0.225200	3.790906
0.225300	3.559803
0.225400	3.604920
0.225500	3.541951
0.225600	3.576681
0.225700	3.596156
0.225800	3.589664
0.225900	3.578629
0.226000	3.524748
0.226100	3.553960
0.226200	3.419258
0.226300	3.054752
0.226400	2.191363
0.226500	1.631459
0.226600	1.598027
0.226700	2.165396
0.226800	2.646427
0.226900	2.175133
0.227000	1.173474
0.227100	0.378898
0.227200	0.109171
0.227300	0.464263
0.227400	0.735613
0.227500	0.800854
0.227600	0.146498
0.227700	-0.366341
0.227800	-0.804851
0.227900	-0.894761
0.228000	-0.951238
0.228100	-1.013558
0.228200	-0.918780
0.228300	-0.957080
0.228400	-0.963896
0.228500	-0.974608
0.228600	-0.981424
0.228700	-0.997004
0.228800	-1.029462
0.228900	-1.030111
0.229000	-1.034655
0.229100	-1.026216
0.229200	-1.060622
0.229300	-1.073281
0.229400	-1.055429
0.229500	-1.026865
0.229600	-0.994083
0.229700	-1.032059
0.229800	-1.113204
0.229900	-1.205061
0.230000	-1.219343
0.230100	-1.203438
0.230200	-1.172603
0.230300	-1.187534
0.230400	-1.281662
0.230500	-1.394942
0.230600	-1.442980
0.230700	-1.439085
0.230800	-1.425128
0.230900	-1.413767
0.231000	-1.411495
0.231100	-1.442655
0.231200	-1.454989
0.231300	-1.451094
0.231400	-1.480307
0.231500	-1.485176
0.231600	-1.474464
0.231700	-1.436488
0.231800	-1.394293
0.231900	-1.360861
0.232000	-1.344307
0.232100	-1.321261
0.232200	-1.308927
0.232300	-1.258617
0.232400	-1.156698
0.232500	-1.086589
0.232600	-1.028488
0.232700	-1.009338
0.232800	-0.963572
0.232900	-0.945071
0.233000	-0.900928
0.233100	-0.836985
0.233200	-0.793816
0.233300	-0.761682
0.233400	-0.752918
0.233500	-0.740584
0.233600	-0.747725
0.233700	-0.751944
0.233800	-0.762656
0.233900	-0.752269
0.234000	-0.750971
0.234100	-0.761357
0.234200	-0.762656
0.234300	-0.781806
0.234400	-0.806150
0.234500	-0.800956
0.234600	-0.796737
0.234700	-0.682159
0.234800	-0.621787
0.234900	-0.619515
0.235000	-0.737663
0.235100	-0.800632
0.235200	-0.769147
0.235300	-0.691248
0.235400	-0.606207
0.235500	-0.599066
0.235600	-0.663983
0.235700	-0.683458
0.235800	-0.719486
0.235900	-0.620813
0.236000	-0.569205
0.236100	-0.508833
0.236200	-0.499420
0.236300	-0.527009
0.236400	-0.532852
0.236500	-0.532527
0.236600	-0.513701
0.236700	-0.531229
0.236800	-0.524413
0.236900	-0.550379
0.237000	-0.574074
0.237100	-0.599391
0.237200	-0.624708
0.237300	-0.640613
0.237400	-0.697415
0.237500	-0.699038
0.237600	-0.696441
0.237700	-0.536422
0.237800	-0.778885
0.237900	-0.789921
0.238000	-0.839582
0.238100	-0.806150
0.238200	-0.261501
0.238300	0.272760
0.238400	0.080283
0.238500	-0.455926
0.238600	-0.511754
0.238700	-0.140432
0.238800	0.633370
0.238900	1.153350
0.239000	1.307851
0.239100	1.172500
0.239200	1.356538
0.239300	1.581798
0.239400	1.870676
0.239500	2.091067
0.239600	2.187792
0.239700	2.209539
0.239800	2.320871
0.239900	2.554245
0.240000	2.703229
0.240100	2.723353
0.240200	2.739907
0.240300	2.841825
0.240400	3.000222
0.240500	3.225482
0.240600	3.188480
0.240700	2.943744
0.240800	2.845720
0.240900	2.878179
0.241000	3.315392
0.241100	3.280986
0.241200	3.369922
0.241300	3.376089
0.241400	3.397187
0.241500	3.512414
0.241600	3.597454
0.241700	3.569540
0.241800	3.801293
0.241900	3.840243
0.242000	3.944434
0.242100	3.943136
0.242200	3.874973
0.242300	3.770133
0.242400	3.724691
0.242500	3.547793
0.242600	3.451392
0.242700	3.429645
0.242800	3.248203
0.242900	3.011582
0.243000	2.232909
0.243100	1.142639
0.243200	0.638564
0.243300	0.795986
0.243400	1.264357
0.243500	1.161140
0.243600	0.432779
0.243700	-0.658789
0.243800	-1.234273
0.243900	-1.226159
0.244000	-1.060297
0.244100	-0.991486
0.244200	-1.174550
0.244300	-1.238168
0.244400	-1.267705
0.244500	-1.271925
0.244600	-1.239791
0.244700	-1.230378
0.244800	-1.232975
0.244900	-1.262188
0.245000	-1.277767
0.245100	-1.302760
0.245200	-1.301137
0.245300	-1.319314
0.245400	-1.335543
0.245500	-1.376440
0.245600	-1.401433
0.245700	-1.411820
0.245800	-1.424479
0.245900	-1.472517
0.246000	-1.514713
0.246100	-1.499457
0.246200	-1.421233
0.246300	-1.423505
0.246400	-1.458235
0.246500	-1.561128
0.246600	-1.627992
0.246700	-1.596832
0.246800	-1.522178
0.246900	-1.457911
0.247000	-1.466350
0.247100	-1.528670
0.247200	-1.591963
0.247300	-1.575085
0.247400	-1.516336
0.247500	-1.460507
0.247600	-1.435190
0.247700	-1.425452
0.247800	-1.434865
0.247900	-1.446226
0.248000	-1.441032
0.248100	-1.459534
0.248200	-1.462455
0.248300	-1.466999
0.248400	-1.450770
0.248500	-1.434216
0.248600	-1.417338
0.248700	-1.410522
0.248800	-1.412794
0.248900	-1.389748
0.249000	-1.331973
0.249100	-1.298541
0.249200	-1.221615
0.249300	-1.210904
0.249400	-1.190779
0.249500	-1.153128
0.249600	-1.131381
0.249700	-1.064842
0.249800	-1.002846
0.249900	-0.954484
0.250000	-0.942799
0.250100	-0.933061
0.250200	-0.928517
0.250300	-0.911314
0.250400	-0.912937
0.250500	-0.903200
0.250600	-0.896383
0.250700	-0.871066
0.250800	-0.865873
0.250900	-0.867496
0.251000	-0.879181
0.251100	-0.889567
0.251200	-0.856135
0.251300	-0.798360
0.251400	-0.705529
0.251500	-0.588680
0.251600	-0.667553
0.251700	-0.721758
0.251800	-0.785052
0.251900	-0.679238
0.252000	-0.596794
0.252100	-0.487410
0.252200	-0.468260
0.252300	-0.498446
0.252400	-0.532527
0.252500	-0.501692
0.252600	-0.407238
0.252700	-0.351410
0.252800	-0.291363
0.252900	-0.300776
0.253000	-0.288442
0.253100	-0.280976
0.253200	-0.234236
0.253300	0.090994
0.253400	0.377600
0.253500	0.563585
0.253600	0.535996
0.253700	0.904720
0.253800	0.956329
0.253900	1.304605
0.254000	1.456509
0.254100	1.450991
0.254200	1.738246
0.254300	1.918065
0.254400	2.138131
0.254500	1.622695
0.254600	0.999498
0.254700	0.960548
0.254800	1.399058
0.254900	2.290360
0.255000	2.498093
0.255100	2.271859
0.255200	1.613607
0.255300	1.557130
0.255400	2.185195
0.255500	3.053129
0.255600	3.633159
0.255700	3.603621
0.255800	3.426074
0.255900	3.514037
0.256000	3.736376
0.256100	4.146650
0.256200	4.300503
0.256300	4.418976
0.256400	4.452084
0.256500	4.524791
0.256600	4.685785
0.256700	4.677995
0.256800	4.694224
0.256900	4.730577
0.257000	4.838664
0.257100	4.967200
0.257200	4.953243
0.257300	4.730577
0.257400	4.385544
0.257500	4.130745
0.257600	4.110621
0.257700	4.207996
0.257800	4.145352
0.257900	4.148597
0.258000	4.022659
0.258100	4.132693
0.258200	4.091146
0.258300	4.114841
0.258400	4.086926
0.258500	3.907432
0.258600	3.811355
0.258700	3.785388
0.258800	3.738973
0.258900	3.711383
0.259000	3.605244
0.259100	3.516958
0.259200	3.318637
0.259300	3.174847
0.259400	2.995353
0.259500	2.879152
0.259600	2.408183
0.259700	1.550638
0.259800	0.617790
0.259900	0.414927
0.260000	0.895632
0.260100	1.313693
0.260200	1.144911
0.260300	0.089372
0.260400	-0.866197
0.260500	-1.226808
0.260600	-1.102818
0.260700	-0.747725
0.260800	-0.672746
0.260900	-1.221939
0.261000	-1.190130
0.261100	-1.215772
0.261200	-1.223562
0.261300	-1.185911
0.261400	-1.162865
0.261500	-1.168708
0.261600	-1.189157
0.261700	-1.206035
0.261800	-1.197271
0.261900	-1.194674
0.262000	-1.215448
0.262100	-1.240765
0.262200	-1.281013
0.262300	-1.266732
0.262400	-1.287505
0.262500	-1.313472
0.262600	-1.342035
0.262700	-1.330025
0.262800	-1.292374
0.262900	-1.235896
0.263000	-1.279066
0.263100	-1.377739
0.263200	-1.489720
0.263300	-1.536135
0.263400	-1.492966
0.263500	-1.431295
0.263600	-1.412145
0.263700	-1.464078
0.263800	-1.553338
0.263900	-1.595858
0.264000	-1.571190
0.264100	-1.523152
0.264200	-1.487772
0.264300	-1.477710
0.264400	-1.469271
0.264500	-1.496861
0.264600	-1.483553
0.264700	-1.474789
0.264800	-1.463104
0.264900	-1.458884
0.265000	-1.440059
0.265100	-1.387476
0.265200	-1.335543
0.265300	-1.307304
0.265400	-1.293023
0.265500	-1.285882
0.265600	-1.261863
0.265700	-1.180717
0.265800	-1.119371
0.265900	-1.045691
0.266000	-1.047963
0.266100	-1.029462
0.266200	-0.974932
0.266300	-0.945395
0.266400	-0.906445
0.266500	-0.872364
0.266600	-0.827897
0.266700	-0.837309
0.266800	-0.830818
0.266900	-0.825625
0.267000	-0.827247
0.267100	-0.834713
0.267200	-0.822054
0.267300	-0.801281
0.267400	-0.797386
0.267500	-0.772393
0.267600	-0.786350
0.267700	-0.782780
0.267800	-0.787973
0.267900	-0.753243
0.268000	-0.686379
0.268100	-0.600365
0.268200	-0.553625
0.268300	-0.654570
0.268400	-0.729873
0.268500	-0.752918
0.268600	-0.658789
0.268700	-0.563362
0.268800	-0.507534
0.268900	-0.533176
0.269000	-0.578293
0.269100	-0.602312
0.269200	-0.530255
0.269300	-0.456575
0.269400	-0.385167
0.269500	-0.360499
0.269600	-0.362446
0.269700	-0.383869
0.269800	-0.377052
0.269900	-0.364718
0.270000	-0.332585
0.270100	-0.332260
0.270200	-0.184575
0.270300	0.106899
0.270400	0.324693
0.270500	0.332159
0.270600	0.368187
0.270700	0.486010
0.270800	0.881351
0.270900	1.215994
0.271000	1.438657
0.271100	1.694428
0.271200	1.209178
0.271300	0.981971
0.271400	1.387049
0.271500	1.985253
0.271600	2.764575
0.271700	2.711343
0.271800	2.301071
0.271900	1.983630
0.272000	2.111840
0.272100	2.764575
0.272200	3.459182
0.272300	3.844138
0.272400	3.761369
0.272500	3.612385
0.272600	3.614008
0.272700	3.780844
0.272800	4.165151
0.272900	4.209295
0.273000	4.192416
0.273100	4.073294
0.273200	4.136912
0.273300	4.170669
0.273400	4.238183
0.273500	4.125227
0.273600	4.191443
0.273700	4.313811
0.273800	4.431959
0.273900	4.367367
0.274000	3.946382
0.274100	3.720796
0.274200	3.568891
0.274300	3.681846
0.274400	3.723393
0.274500	3.562075
0.274600	3.532538
0.274700	3.452041
0.274800	3.497483
0.274900	3.446523
0.275000	3.450418
0.275100	3.630886
0.275200	3.759746
0.275300	3.873350
0.275400	3.874649
0.275500	3.991499
0.275600	4.095690
0.275700	4.132368
0.275800	4.161905
0.275900	4.042783
0.276000	4.051547
0.276100	3.819469
0.276200	3.680872
0.276300	3.202761
0.276400	2.371830
0.276500	1.614905
0.276600	1.710008
0.276700	2.250112
0.276800	2.580861
0.276900	2.127095
0.277000	1.137770
0.277100	0.173438
0.277200	0.073467
0.277300	0.354555
0.277400	0.599938
0.277500	0.306517
0.277600	-0.399124
0.277700	-1.297242
0.277800	-1.098923
0.277900	-1.114827
0.278000	-1.104116
0.278100	-1.140145
0.278200	-1.165137
0.278300	-1.223238
0.278400	-1.245309
0.278500	-1.260889
0.278600	-1.296593
0.278700	-1.333271
0.278800	-1.386503
0.278900	-1.406627
0.279000	-1.401758
0.279100	-1.398512
0.279200	-1.419610
0.279300	-1.440059
0.279400	-1.439085
0.279500	-1.380985
0.279600	-1.361185
0.279700	-1.400135
0.279800	-1.475763
0.279900	-1.539381
0.280000	-1.526073
0.280100	-1.442006
0.280200	-1.358913
0.280300	-1.351772
0.280400	-1.417662
0.280500	-1.514713
0.280600	-1.560154
0.280700	-1.534188
0.280800	-1.476412
0.280900	-1.446550
0.281000	-1.450445
0.281100	-1.476087
0.281200	-1.484202
0.281300	-1.460507
0.281400	-1.451419
0.281500	-1.448498
0.281600	-1.443304
0.281700	-1.414092
0.281800	-1.402083
0.281900	-1.381958
0.282000	-1.377414
0.282100	-1.373519
0.282200	-1.343982
0.282300	-1.291725
0.282400	-1.237519
0.282500	-1.168708
0.282600	-1.135600
0.282700	-1.116775
0.282800	-1.107037
0.282900	-1.069386
0.283000	-1.035629
0.283100	-1.004469
0.283200	-0.996355
0.283300	-0.969090
0.283400	-1.002522
0.283500	-0.994407
0.283600	-1.016479
0.283700	-1.029462
0.283800	-1.031085
0.283900	-1.038226
0.284000	-1.035305
0.284100	-1.046665
0.284200	-1.040173
0.284300	-1.053481
0.284400	-1.088536
0.284500	-1.071658
0.284600	-1.071333
0.284700	-0.931438
0.284800	-0.869119
0.284900	-0.842827
0.285000	-0.926245
0.285100	-0.907419
0.285200	-0.839582
0.285300	-0.683133
0.285400	-0.508508
0.285500	-0.438398
0.285600	-0.433854
0.285700	-0.433530
0.285800	-0.363745
0.285900	-0.223525
0.286000	-0.109922
0.286100	0.445438
0.286200	0.939775
0.286300	1.230600
0.286400	1.309149
0.286500	1.848929
0.286600	2.355276
0.286700	2.818455
0.286800	3.207306
0.286900	3.658476
0.287000	4.136588
0.287100	4.467339
0.287200	4.718892
0.287300	5.266792
0.287400	5.730301
0.287500	6.397978
0.287600	6.974448
0.287700	7.703802
0.287800	7.740806
0.287900	7.576563
0.288000	7.942377
0.288100	8.576957
0.288200	9.511468
0.288300	10.093797
0.288400	10.101263
0.288500	9.928576
0.288600	9.819835
0.288700	10.322640
0.288800	10.654057
0.288900	10.654057
0.289000	10.654057
0.289100	10.654057
0.289200	10.654057
0.289300	10.654057
0.289400	10.654057
0.289500	10.654057
0.289600	10.654057
0.289700	10.654057
0.289800	10.654057
0.289900	10.654057
0.290000	10.654057
0.290100	10.654057
0.290200	10.654057
0.290300	10.654057
0.290400	10.654057
0.290500	10.654057
0.290600	10.654057
0.290700	10.654057
0.290800	10.427810
0.290900	10.160664
0.291000	10.017841
0.291100	9.897414
0.291200	9.696164
0.291300	9.498484
0.291400	9.388121
0.291500	9.303401
0.291600	9.183950
0.291700	9.088518
0.291800	9.044049
0.291900	9.043724
0.292000	8.906420
0.292100	8.782101
0.292200	8.675634
0.292300	8.599029
0.292400	8.469192
0.292500	8.430565
0.292600	8.353961
0.292700	8.339679
0.292800	8.153362
0.292900	8.024824
0.293000	7.440559
0.293100	6.381424
0.293200	5.862733
0.293300	5.982181
0.293400	6.290864
0.293500	6.187645
0.293600	5.210314
0.293700	4.010974
0.293800	3.263134
0.293900	3.119993
0.294000	3.354991
0.294100	3.248528
0.294200	2.764575
0.294300	2.118332
0.294400	1.571087
0.294500	1.300061
0.294600	1.208204
0.294700	1.166333
0.294800	0.896606
0.294900	0.669399
0.295000	0.298402
0.295100	-0.077139
0.295200	-0.373807
0.295300	-0.932737
0.295400	-0.758436
0.295500	-0.792842
0.295600	-0.839257
0.295700	-0.870417
0.295800	-0.919429
0.295900	-0.988565
0.296000	-1.038875
0.296100	-1.068737
0.296200	-1.038550
0.296300	-1.088536
0.296400	-1.185262
0.296500	-1.309901
0.296600	-1.392020
0.296700	-1.416364
0.296800	-1.410522
0.296900	-1.405977
0.297000	-1.464727
0.297100	-1.594560
0.297200	-1.698426
0.297300	-1.746465
0.297400	-1.732508
0.297500	-1.740947
0.297600	-1.742570
0.297700	-1.744517
0.297800	-1.774054
0.297900	-1.777625
0.298000	-1.771782
0.298100	-1.754904
0.298200	-1.722770
0.298300	-1.705243
0.298400	-1.612412
0.298500	-1.519906
0.298600	-1.467648
0.298700	-1.441682
0.298800	-1.423505
0.298900	-1.402407
0.299000	-1.316393
0.299100	-1.254398
0.299200	-1.180717
0.299300	-1.166111
0.299400	-1.132355
0.299500	-1.070035
0.299600	-0.987591
0.299700	-0.928842
0.299800	-0.846073
0.299900	-0.777911
0.300000	-0.720135
0.300100	-0.674694
0.300200	-0.636393
0.300300	-0.609453
0.300400	-0.586732
0.300500	-0.557520
0.300600	-0.516947
0.300700	-0.482217
0.300800	-0.454627
0.300900	-0.445539
0.301000	-0.426713
0.301100	-0.420222
0.301200	-0.389711
0.301300	-0.303048
0.301400	-0.200805
0.301500	-0.097588
0.301600	-0.124203
0.301700	-0.180680
0.301800	-0.167373
0.301900	-0.082657
0.302000	0.038737
0.302100	0.102355
0.302200	0.322421
0.302300	0.042632
0.302400	0.006279
0.302500	0.239653
0.302600	0.686926
0.302700	1.195870
0.302800	1.329598
0.302900	1.612958
0.303000	1.691506
0.303100	1.993368
0.303200	2.279649
0.303300	2.575992
0.303400	2.913558
0.303500	3.181988
0.303600	3.478332
0.303700	3.728911
0.303800	3.801942
0.303900	3.859069
0.304000	3.965532
0.304100	4.187223
0.304200	4.396904
0.304300	4.803284
0.304400	4.961357
0.304500	4.656572
0.304600	4.256684
0.304700	4.383596
0.304800	4.764659
0.304900	5.427787
0.305000	5.484590
0.305100	5.103850
0.305200	4.737394
0.305300	4.678644
0.305400	5.222649
0.305500	5.796193
0.305600	6.104875
0.305700	6.039958
0.305800	6.022105
0.305900	6.120131
0.306000	6.331437
0.306100	6.540472
0.306200	6.545016
0.306300	6.475554
0.306400	6.414856
0.306500	6.404145
0.306600	6.463545
0.306700	6.393434
0.306800	6.298654
0.306900	6.195435
0.307000	6.340526
0.307100	6.326568
0.307200	6.471335
0.307300	6.203225
0.307400	5.919536
0.307500	5.711475
0.307600	5.575474
0.307700	5.715046
0.307800	5.432980
0.307900	5.303795
0.308000	5.206744
0.308100	5.024651
0.308200	4.838015
0.308300	4.634825
0.308400	4.429363
0.308500	4.251491
0.308600	3.947680
0.308700	3.657502
0.308800	3.461454
0.308900	3.260213
0.309000	2.958675
0.309100	2.623706
0.309200	2.337749
0.309300	2.041081
0.309400	1.771029
0.309500	1.301035
0.309600	0.824873
0.309700	-0.108623
0.309800	-1.125863
0.309900	-1.446226
0.310000	-1.065491
0.310100	-0.668851
0.310200	-0.853214
0.310300	-1.415066
0.310400	-1.509195
0.310500	-1.561777
0.310600	-1.553663
0.310700	-1.519581
0.310800	-1.543600
0.310900	-1.626694
0.311000	-1.716278
0.311100	-1.774379
0.311200	-1.820145
0.311300	-1.804240
0.311400	-1.834751
0.311500	-1.869157
0.311600	-1.900641
0.311700	-1.921739
0.311800	-1.927906
0.311900	-1.908756
0.312000	-1.915572
0.312100	-1.950303
0.312200	-1.954522
0.312300	-1.950303
0.312400	-1.935372
0.312500	-1.948680
0.312600	-1.975945
0.312700	-1.963610
0.312800	-1.920116
0.312900	-1.877271
0.313000	-1.887983
0.313100	-1.968804
0.313200	-2.061959
0.313300	-2.096040
0.313400	-2.058713
0.313500	-1.986007
0.313600	-1.979840
0.313700	-2.066179
0.313800	-2.167773
0.313900	-2.210294
0.314000	-2.206723
0.314100	-2.167449
0.314200	-2.169072
0.314300	-2.216136
0.314400	-2.290466
0.314500	-2.344022
0.314600	-2.404070
0.314700	-2.465091
0.314800	-2.513779
0.314900	-2.568309
0.315000	-2.604662
0.315100	-2.620242
0.315200	-2.602390
0.315300	-2.605312
0.315400	-2.609856
0.315500	-2.616023
0.315600	-2.579345
0.315700	-2.517999
0.315800	-2.448862
0.315900	-2.394008
0.316000	-2.373559
0.316100	-2.349540
0.316200	-2.320327
0.316300	-2.279430
0.316400	-2.240155
0.316500	-2.203802
0.316600	-2.180432
0.316700	-2.153167
0.316800	-2.134341
0.316900	-2.113243
0.317000	-2.075592
0.317100	-2.048976
0.317200	-1.992498
0.317300	-1.923038
0.317400	-1.866560
0.317500	-1.781844
0.317600	-1.722445
0.317700	-1.642923
0.317800	-1.584173
0.317900	-1.481930
0.318000	-1.369624
0.318100	-1.183639
0.318200	-1.081720
0.318300	-1.130407
0.318400	-1.134627
0.318500	-1.090159
0.318600	-0.961624
0.318700	-0.805176
0.318800	-0.704231
0.318900	-0.651973
0.319000	-0.690923
0.319100	-0.634121
0.319200	-0.577969
0.319300	-0.454627
0.319400	-0.394255
0.319500	-0.342322
0.319600	-0.326742
0.319700	-0.326742
0.319800	-0.300127
0.319900	-0.184900
0.320000	0.107223
0.320100	0.547032
0.320200	0.702506
0.320300	1.092653
0.320400	1.366925
0.320500	1.457483
0.320600	1.603869
0.320700	1.878466
0.320800	2.028098
0.320900	2.408183
0.321000	3.001845
0.321100	3.168356
0.321200	3.110904
0.321300	3.147582
0.321400	3.620824
0.321500	4.440723
0.321600	5.318401
0.321700	5.356053
0.321800	5.186944
0.321900	5.050294
0.322000	5.290812
0.322100	6.018859
0.322200	6.709907
0.322300	6.969903
0.322400	6.783914
0.322500	6.506715
0.322600	6.537875
0.322700	6.743340
0.322800	7.015021
0.322900	7.088703
0.323000	7.246778
0.323100	7.207828
0.323200	7.343182
0.323300	7.468798
0.323400	7.583379
0.323500	7.600582
0.323600	7.746324
0.323700	8.007620
0.323800	8.253012
0.323900	8.218930
0.324000	7.995286
0.324100	7.730094
0.324200	7.687573
0.324300	7.749570
0.324400	7.985548
0.324500	7.854413
0.324600	7.879082
0.324700	7.772291
0.324800	7.727822
0.324900	7.750868
0.325000	7.615514
0.325100	7.546700
0.325200	7.396090
0.325300	7.292870
0.325400	7.188677
0.325500	6.954972
0.325600	6.660245
0.325700	6.335332
0.325800	5.965627
0.325900	5.688754
0.326000	5.461219
0.326100	5.045750
0.326200	4.663388
0.326300	4.042134
0.326400	3.009635
0.326500	2.160527
0.326600	1.999535
0.326700	2.156957
0.326800	2.017387
0.326900	1.110181
0.327000	-0.183926
0.327100	-1.540355
0.327200	-1.305357
0.327300	-1.284908
0.327400	-1.296269
0.327500	-1.367352
0.327600	-1.477710
0.327700	-1.575734
0.327800	-1.624422
0.327900	-1.676679
0.328000	-1.695505
0.328100	-1.734130
0.328200	-1.775028
0.328300	-1.828909
0.328400	-1.862665
0.328500	-1.877921
0.328600	-1.900966
0.328700	-1.945109
0.328800	-2.015219
0.328900	-2.037615
0.329000	-2.064231
0.329100	-2.133692
0.329200	-2.191792
0.329300	-2.258007
0.329400	-2.281377
0.329500	-2.248919
0.329600	-2.237559
0.329700	-2.327144
0.329800	-2.419325
0.329900	-2.525139
0.330000	-2.522218
0.330100	-2.481321
0.330200	-2.435879
0.330300	-2.467364
0.330400	-2.564739
0.330500	-2.651402
0.330600	-2.685484
0.330700	-2.656596
0.330800	-2.639068
0.330900	-2.634524
0.331000	-2.645560
0.331100	-2.664061
0.331200	-2.669579
0.331300	-2.664710
0.331400	-2.648481
0.331500	-2.624137
0.331600	-2.579020
0.331700	-2.524815
0.331800	-2.458275
0.331900	-2.395955
0.332000	-2.368041
0.332100	-2.335258
0.332200	-2.296633
0.332300	-2.210294
0.332400	-2.118437
0.332500	-2.001587
0.332600	-1.960689
0.332700	-1.903563
0.332800	-1.824040
0.332900	-1.778274
0.333000	-1.703944
0.333100	-1.629615
0.333200	-1.568269
0.333300	-1.535810
0.333400	-1.506923
0.333500	-1.479009
0.333600	-1.452717
0.333700	-1.450445
0.333800	-1.432593
0.333900	-1.408899
0.334000	-1.405977
0.334100	-1.396565
0.334200	-1.415390
0.334300	-1.395915
0.334400	-1.423505
0.334500	-1.417338
0.334600	-1.400784
0.334700	-1.295619
0.334800	-1.253748
0.334900	-1.275820
0.335000	-1.428374
0.335100	-1.493615
0.335200	-1.488746
0.335300	-1.398512
0.335400	-1.362483
0.335500	-1.394617
0.335600	-1.442006
0.335700	-1.531266
0.335800	-1.531266
0.335900	-1.499457
0.336000	-1.470569
0.336100	-1.421882
0.336200	-1.448173
0.336300	-1.441032
0.336400	-1.459858
0.336500	-1.433567
0.336600	-1.416040
0.336700	-1.397538
0.336800	-1.397214
0.336900	-1.416689
0.337000	-1.420908
0.337100	-1.436164
0.337200	-1.464727
0.337300	-1.506598
0.337400	-1.546197
0.337500	-1.588717
0.337600	-1.590016
0.337700	-1.595209
0.337800	-1.650388
0.337900	-1.763343
0.338000	-1.793854
0.338100	-1.761395
0.338200	-1.678951
0.338300	-1.668565
0.338400	-1.688689
0.338500	-1.764641
0.338600	-1.785090
0.338700	-1.754255
0.338800	-1.669214
0.338900	-1.637080
0.339000	-1.666293
0.339100	-1.714331
0.339200	-1.714655
0.339300	-1.730560
0.339400	-1.743219
0.339500	-1.757176
0.339600	-1.808784
0.339700	-1.860069
0.339800	-1.905510
0.339900	-1.933749
0.340000	-1.991525
0.340100	-2.065530
0.340200	-2.099611
0.340300	-2.123954
0.340400	-2.117138
0.340500	-2.128174
0.340600	-2.165826
0.340700	-2.235286
0.340800	-2.278781
0.340900	-2.286246
0.341000	-2.268394
0.341100	-2.275859
0.341200	-2.266446
0.341300	-2.269043
0.341400	-2.281377
0.341500	-2.276509
0.341600	-2.271640
0.341700	-2.269368
0.341800	-2.280404
0.341900	-2.256709
0.342000	-2.249893
0.342100	-2.266446
0.342200	-2.272614
0.342300	-2.251191
0.342400	-2.251840
0.342500	-2.263850
0.342600	-2.259630
0.342700	-2.274886
0.342800	-2.290466
0.342900	-2.311888
0.343000	-2.424843
0.343100	-2.534877
0.343200	-2.569283
0.343300	-2.525139
0.343400	-2.442695
0.343500	-2.446590
0.343600	-2.505015
0.343700	-2.629980
0.343800	-2.683536
0.343900	-2.632252
0.344000	-2.549483
0.344100	-2.516700
0.344200	-2.551755
0.344300	-2.611803
0.344400	-2.653025
0.344500	-2.654973
0.344600	-2.611479
0.344700	-2.590381
0.344800	-2.604338
0.344900	-2.624462
0.345000	-2.655947
0.345100	-2.669904
0.345200	-2.678668
0.345300	-2.691326
0.345400	-2.698467
0.345500	-2.738716
0.345600	-2.728329
0.345700	-2.704959
0.345800	-2.705283
0.345900	-2.709828
0.346000	-2.717293
0.346100	-2.694897
0.346200	-2.608882
0.346300	-2.592653
0.346400	-2.635822
0.346500	-2.706257
0.346600	-2.762735
0.346700	-2.706906
0.346800	-2.616347
0.346900	-2.538447
0.347000	-2.576424
0.347100	-2.636472
0.347200	-2.718267
0.347300	-2.736119
0.347400	-2.674773
0.347500	-2.621216
0.347600	-2.584214
0.347700	-2.583564
0.347800	-2.577073
0.347900	-2.572204
0.348000	-2.539097
0.348100	-2.488137
0.348200	-2.456328
0.348300	-2.406342
0.348400	-2.341101
0.348500	-2.270666
0.348600	-2.213864
0.348700	-2.178160
0.348800	-2.132394
0.348900	-2.079162
0.349000	-1.985358
0.349100	-1.905835
0.349200	-1.820469
0.349300	-1.807486
0.349400	-1.775352
0.349500	-1.738025
0.349600	-1.705567
0.349700	-1.669863
0.349800	-1.618254
0.349900	-1.577032
0.350000	-1.572813
0.350100	-1.580278
0.350200	-1.556259
0.350300	-1.566321
0.350400	-1.564698
0.350500	-1.548145
0.350600	-1.527371
0.350700	-1.512765
0.350800	-1.494264
0.350900	-1.490694
0.351000	-1.500106
0.351100	-1.509844
0.351200	-1.525424
0.351300	-1.486799
0.351400	-1.437462
0.351500	-1.389099
0.351600	-1.502703
0.351700	-1.595209
0.351800	-1.664994
0.351900	-1.609491
0.352000	-1.518932
0.352100	-1.460183
0.352200	-1.472192
0.352300	-1.541328
0.352400	-1.597481
0.352500	-1.589691
0.352600	-1.541653
0.352700	-1.517309
0.352800	-1.497185
0.352900	-1.538732
0.353000	-1.594235
0.353100	-1.584173
0.353200	-1.620851
0.353300	-1.622799
0.353400	-1.645195
0.353500	-1.644221
0.353600	-1.675056
0.353700	-1.674407
0.353800	-1.719524
0.353900	-1.745491
0.354000	-1.792880
0.354100	-1.791582
0.354200	-1.775677
0.354300	-1.763992
0.354400	-1.765290
0.354500	-1.863639
0.354600	-1.913949
0.354700	-1.901940
0.354800	-1.840594
0.354900	-1.748412
0.355000	-1.733157
0.355100	-1.803916
0.355200	-1.871104
0.355300	-1.886035
0.355400	-1.832154
0.355500	-1.749710
0.355600	-1.703295
0.355700	-1.736078
0.355800	-1.793854
0.355900	-1.804565
0.356000	-1.812355
0.356100	-1.798398
0.356200	-1.801968
0.356300	-1.805539
0.356400	-1.818522
0.356500	-1.811706
0.356600	-1.793204
0.356700	-1.780221
0.356800	-1.775352
0.356900	-1.772107
0.357000	-1.752956
0.357100	-1.745815
0.357200	-1.730235
0.357300	-1.785090
0.357400	-1.819496
0.357500	-1.821119
0.357600	-1.810083
0.357700	-1.758799
0.357800	-1.788660
0.357900	-1.786388
0.358000	-1.801968
0.358100	-1.820469
0.358200	-1.837023
0.358300	-1.877271
0.358400	-1.908431
0.358500	-1.934723
0.358600	-1.947057
0.358700	-1.987305
0.358800	-2.006131
0.358900	-2.028527
0.359000	-2.051897
0.359100	-2.070398
0.359200	-2.114217
0.359300	-2.167773
0.359400	-2.212241
0.359500	-2.258656
0.359600	-2.348566
0.359700	-2.477750
0.359800	-2.607584
0.359900	-2.605961
0.360000	-2.558896
0.360100	-2.511507
0.360200	-2.550782
0.360300	-2.689703
0.360400	-2.785780
0.360500	-2.836091
0.360600	-2.775718
0.360700	-2.729303
0.360800	-2.742611
0.360900	-2.809475
0.361000	-2.860434
0.361100	-2.888349
0.361200	-2.863031
0.361300	-2.842258
0.361400	-2.829924
0.361500	-2.827651
0.361600	-2.843232
0.361700	-2.855241
0.361800	-2.875690
0.361900	-2.905227
0.362000	-2.942879
0.362100	-3.014287
0.362200	-3.012989
0.362300	-3.029218
0.362400	-3.015910
0.362500	-3.046421
0.362600	-3.062001
0.362700	-3.072063
0.362800	-3.031490
0.362900	-2.987347
0.363000	-3.023376
0.363100	-3.086670
0.363200	-3.176904
0.363300	-3.219749
0.363400	-3.169439
0.363500	-3.083748
0.363600	-3.064273
0.363700	-3.138603
0.363800	-3.246041
0.363900	-3.286938
0.364000	-3.254480
0.364100	-3.186966
0.364200	-3.127892
0.364300	-3.094784
0.364400	-3.074335
0.364500	-3.066870
0.364600	-3.017209
0.364700	-2.983452
0.364800	-2.955538
0.364900	-2.921456
0.365000	-2.884129
0.365100	-2.843556
0.365200	-2.796167
0.365300	-2.769226
0.365400	-2.753971
0.365500	-2.760463
0.365600	-2.712100
0.365700	-2.643288
0.365800	-2.563765
0.365900	-2.522543
0.366000	-2.524166
0.366100	-2.500471
0.366200	-2.458924
0.366300	-2.435879
0.366400	-2.393359
0.366500	-2.350514
0.366600	-2.289492
0.366700	-2.254437
0.366800	-2.258332
0.366900	-2.234637
0.367000	-2.249244
0.367100	-2.235286
0.367200	-2.242103
0.367300	-2.265148
0.367400	-2.260929
0.367500	-2.286246
0.367600	-2.281702
0.367700	-2.333960
0.367800	-2.334609
0.367900	-2.335258
0.368000	-2.239831
0.368100	-2.148623
0.368200	-2.091172
0.368300	-2.198609
0.368400	-2.291439
0.368500	-2.281053
0.368600	-2.176537
0.368700	-2.109348
0.368800	-2.070074
0.368900	-2.143754
0.369000	-2.220680
0.369100	-2.263850
0.369200	-2.210294
0.369300	-2.146675
0.369400	-2.104155
0.369500	-2.106102
0.369600	-2.126551
0.369700	-2.150895
0.369800	-2.116814
0.369900	-2.053520
0.370000	-2.014245
0.370100	-1.954522
0.370200	-1.922388
0.370300	-1.899343
0.370400	-1.845138
0.370500	-1.866885
0.370600	-1.801968
0.370700	-1.766589
0.370800	-1.716603
0.370900	-1.649739
0.371000	-1.590665
0.371100	-1.567944
0.371200	-1.623772
0.371300	-1.621176
0.371400	-1.554961
0.371500	-1.465701
0.371600	-1.369624
0.371700	-1.375791
0.371800	-1.413118
0.371900	-1.449472
0.372000	-1.395266
0.372100	-1.302436
0.372200	-1.212526
0.372300	-1.188507
0.372400	-1.213176
0.372500	-1.217395
0.372600	-1.204736
0.372700	-1.197596
0.372800	-1.185262
0.372900	-1.198569
0.373000	-1.193051
0.373100	-1.183639
0.373200	-1.139171
0.373300	-1.108660
0.373400	-1.025892
0.373500	-0.830169
0.373600	-0.696766
0.373700	-0.399124
0.373800	-0.300127
0.373900	-0.352709
0.374000	-0.847372
0.374100	-1.113529
0.374200	-1.235896
0.374300	-1.263161
0.374400	-1.280689
0.374500	-1.311849
0.374600	-1.341386
0.374700	-1.376116
0.374800	-1.415715
0.374900	-1.461806
0.375000	-1.514388
0.375100	-1.571515
0.375200	-1.611438
0.375300	-1.686417
0.375400	-1.722121
0.375500	-1.776326
0.375600	-1.810732
0.375700	-1.852928
0.375800	-1.898045
0.375900	-1.936346
0.376000	-1.976918
0.376100	-2.013921
0.376200	-2.063582
0.376300	-2.168098
0.376400	-2.263525
0.376500	-2.357005
0.376600	-2.336556
0.376700	-2.284623
0.376800	-2.243401
0.376900	-2.347592
0.377000	-2.470934
0.377100	-2.575125
0.377200	-2.586161
0.377300	-2.540395
0.377400	-2.504691
0.377500	-2.559545
0.377600	-2.630305
0.377700	-2.711450
0.377800	-2.765981
0.377900	-2.766630
0.378000	-2.796816
0.378100	-2.818563
0.378200	-2.851022
0.378300	-2.919184
0.378400	-2.969170
0.378500	-3.015910
0.378600	-3.068168
0.378700	-3.114584
0.378800	-3.162622
0.378900	-3.203845
0.379000	-3.222021
0.379100	-3.246041
0.379200	-3.274604
0.379300	-3.301220
0.379400	-3.299272
0.379500	-3.261296
0.379600	-3.263568
0.379700	-3.315502
0.379800	-3.416772
0.379900	-3.494348
0.380000	-3.512849
0.380100	-3.470004
0.380200	-3.412877
0.380300	-3.436896
0.380400	-3.514797
0.380500	-3.601461
0.380600	-3.634569
0.380700	-3.592697
0.380800	-3.553747
0.380900	-3.531675
0.381000	-3.522587
0.381100	-3.546282
0.381200	-3.552773
0.381300	-3.556993
0.381400	-3.542387
0.381500	-3.540114
0.381600	-3.510577
0.381700	-3.490778
0.381800	-3.445011
0.381900	-3.387235
0.382000	-3.370681
0.382100	-3.343091
0.382200	-3.323292
0.382300	-3.264867
0.382400	-3.197353
0.382500	-3.126269
0.382600	-3.112961
0.382700	-3.099978
0.382800	-3.078555
0.382900	-3.047395
0.383000	-3.046746
0.383100	-3.017209
0.383200	-2.997409
0.383300	-3.003901
0.383400	-2.996760
0.383500	-3.006497
0.383600	-3.003251
0.383700	-3.004225
0.383800	-3.011042
0.383900	-2.975662
0.384000	-2.946449
0.384100	-2.934764
0.384200	-2.923728
0.384300	-2.924378
0.384400	-2.948397
0.384500	-2.940282
0.384600	-2.915614
0.384700	-2.822783
0.384800	-2.727680
0.384900	-2.774744
0.385000	-2.883805
0.385100	-2.915614
0.385200	-2.869198
0.385300	-2.754296
0.385400	-2.668930
0.385500	-2.591679
0.385600	-2.620242
0.385700	-2.652701
0.385800	-2.625436
0.385900	-2.536175
0.386000	-2.447239
0.386100	-2.396929
0.386200	-2.362523
0.386300	-2.395306
0.386400	-2.406342
0.386500	-2.431010
0.386600	-2.406017
0.386700	-2.413483
0.386800	-2.426141
0.386900	-2.420948
0.387000	-2.428738
0.387100	-2.461196
0.387200	-2.520920
0.387300	-2.525789
0.387400	-2.560519
0.387500	-2.526438
0.387600	-2.522218
0.387700	-2.480022
0.387800	-2.540719
0.387900	-2.651727
0.388000	-2.658543
0.388100	-2.646858
0.388200	-2.558572
0.388300	-2.554027
0.388400	-2.573827
0.388500	-2.664710
0.388600	-2.685808
0.388700	-2.643612
0.388800	-2.586161
0.388900	-2.544290
0.389000	-2.538772
0.389100	-2.575774
0.389200	-2.617646
0.389300	-2.623488
0.389400	-2.631927
0.389500	-2.641016
0.389600	-2.664710
0.389700	-2.676395
0.389800	-2.702038
0.389900	-2.710801
0.390000	-2.737742
0.390100	-2.740338
0.390200	-2.767928
0.390300	-2.755594
0.390400	-2.737742
0.390500	-2.734171
0.390600	-2.759489
0.390700	-2.816291
0.390800	-2.853294
0.390900	-2.867251
0.391000	-2.843556
0.391100	-2.867900
0.391200	-2.879910
0.391300	-2.900683
0.391400	-2.905227
0.391500	-2.894516
0.391600	-2.910420
0.391700	-2.899060
0.391800	-2.916588
0.391900	-2.919184
0.392000	-2.934115
0.392100	-2.949046
0.392200	-2.956511
0.392300	-2.954888
0.392400	-2.948397
0.392500	-2.962354
0.392600	-2.976311
0.392700	-2.968521
0.392800	-2.973714
0.392900	-2.987671
0.393000	-3.041552
0.393100	-3.143796
0.393200	-3.123023
0.393300	-3.080178
0.393400	-2.989294
0.393500	-3.012989
0.393600	-3.092512
0.393700	-3.185019
0.393800	-3.226566
0.393900	-3.185343
0.394000	-3.142498
0.394100	-3.132436
0.394200	-3.192160
0.394300	-3.289535
0.394400	-3.338547
0.394500	-3.338872
0.394600	-3.319397
0.394700	-3.332705
0.394800	-3.344714
0.394900	-3.377822
0.395000	-3.405087
0.395100	-3.423264
0.395200	-3.437546
0.395300	-3.483312
0.395400	-3.517069
0.395500	-3.535895
0.395600	-3.564134
0.395700	-3.565432
0.395800	-3.599189
0.395900	-3.635542
0.396000	-3.666378
0.396100	-3.630674
0.396200	-3.577766
0.396300	-3.597891
0.396400	-3.655991
0.396500	-3.748823
0.396600	-3.802379
0.396700	-3.782904
0.396800	-3.707276
0.396900	-3.669948
0.397000	-3.696240
0.397100	-3.776412
0.397200	-3.818933
0.397300	-3.821205
0.397400	-3.764403
0.397500	-3.717663
0.397600	-3.716364
0.397700	-3.726751
0.397800	-3.741033
0.397900	-3.760183
0.398000	-3.750121
0.398100	-3.743629
0.398200	-3.721233
0.398300	-3.701758
0.398400	-3.682932
0.398500	-3.641060
0.398600	-3.593346
0.398700	-3.588153
0.398800	-3.578415
0.398900	-3.539790
0.399000	-3.472601
0.399100	-3.404438
0.399200	-3.340170
0.399300	-3.350557
0.399400	-3.344390
0.399500	-3.308036
0.399600	-3.279148
0.399700	-3.237277
0.399800	-3.205143
0.399900	-3.174957
0.400000	-3.171062
0.400100	-3.165868
0.400200	-3.156780
0.400300	-3.129190
0.400400	-3.118154
0.400500	-3.088942
0.400600	-3.070116
0.400700	-3.025648
0.400800	-3.036034
0.400900	-3.023700
0.401000	-3.032464
0.401100	-3.029867
0.401200	-3.026622
0.401300	-2.970144
0.401400	-2.863680
0.401500	-2.833819
0.401600	-2.909122
0.401700	-2.988645
0.401800	-2.981180
0.401900	-2.930220
0.402000	-2.802009
0.402100	-2.751050
0.402200	-2.728978
0.402300	-2.785456
0.402400	-2.793895
0.402500	-2.734171
0.402600	-2.659517
0.402700	-2.591030
0.402800	-2.590381
0.402900	-2.604662
0.403000	-2.619269
0.403100	-2.621541
0.403200	-2.562791
0.403300	-2.539746
0.403400	-2.538772
0.403500	-2.540719
0.403600	-2.512481
0.403700	-2.519946
0.403800	-2.520920
0.403900	-2.521244
0.404000	-2.529359
0.404100	-2.528061
0.404200	-2.489760
0.404300	-2.469636
0.404400	-2.440099
0.404500	-2.510209
0.404600	-2.572529
0.404700	-2.560844
0.404800	-2.498199
0.404900	-2.407316
0.405000	-2.425817
0.405100	-2.507937
0.405200	-2.581292
0.405300	-2.579020
0.405400	-2.506963
0.405500	-2.433931
0.405600	-2.439125
0.405700	-2.468337
0.405800	-2.484242
0.405900	-2.485216
0.406000	-2.509559
0.406100	-2.486189
0.406200	-2.492357
0.406300	-2.530333
0.406400	-2.565388
0.406500	-2.573178
0.406600	-2.560519
0.406700	-2.566362
0.406800	-2.577073
0.406900	-2.578696
0.407000	-2.581292
0.407100	-2.562142
0.407200	-2.547536
0.407300	-2.586810
0.407400	-2.618295
0.407500	-2.631603
0.407600	-2.623813
0.407700	-2.595250
0.407800	-2.635822
0.407900	-2.649130
0.408000	-2.670878
0.408100	-2.693274
0.408200	-2.710801
0.408300	-2.741637
0.408400	-2.744558
0.408500	-2.756568
0.408600	-2.760138
0.408700	-2.768902
0.408800	-2.765981
0.408900	-2.747155
0.409000	-2.755269
0.409100	-2.749427
0.409200	-2.742935
0.409300	-2.751374
0.409400	-2.769226
0.409500	-2.781561
0.409600	-2.807852
0.409700	-2.937036
0.409800	-3.005524
0.409900	-3.010392
0.410000	-2.925676
0.410100	-2.865628
0.410200	-2.864654
0.410300	-2.983452
0.410400	-3.050641
0.410500	-3.081152
0.410600	-3.006822
0.410700	-2.922430
0.410800	-2.887375
0.410900	-2.948072
0.411000	-3.002278
0.411100	-2.995137
0.411200	-2.980206
0.411300	-2.937361
0.411400	-2.925676
0.411500	-2.938335
0.411600	-2.961705
0.411700	-2.981829
0.411800	-2.975662
0.411900	-2.987671
0.412000	-3.003901
0.412100	-3.015586
0.412200	-3.038956
0.412300	-3.052264
0.412400	-3.067519
0.412500	-3.072063
0.412600	-3.088617
0.412700	-3.070116
0.412800	-3.024349
0.412900	-2.995461
0.413000	-3.011042
0.413100	-3.104197
0.413200	-3.166193
0.413300	-3.198002
0.413400	-3.136980
0.413500	-3.047395
0.413600	-3.036359
0.413700	-3.111338
0.413800	-3.216179
0.413900	-3.229162
0.414000	-3.203195
0.414100	-3.137954
0.414200	-3.094784
0.414300	-3.066221
0.414400	-3.075309
0.414500	-3.052913
0.414600	-3.045123
0.414700	-3.010392
0.414800	-3.001304
0.414900	-2.967872
0.415000	-2.907824
0.415100	-2.847776
0.415200	-2.813694
0.415300	-2.783833
0.415400	-2.772148
0.415500	-2.746181
0.415600	-2.704634
0.415700	-2.642314
0.415800	-2.603364
0.415900	-2.524815
0.416000	-2.509559
0.416100	-2.475478
0.416200	-2.448862
0.416300	-2.408939
0.416400	-2.368690
0.416500	-2.354084
0.416600	-2.331688
0.416700	-2.365444
0.416800	-2.393359
0.416900	-2.402447
0.417000	-2.431984
0.417100	-2.433931
0.417200	-2.439449
0.417300	-2.439125
0.417400	-2.413807
0.417500	-2.449836
0.417600	-2.425168
0.417700	-2.461846
0.417800	-2.408939
0.417900	-2.387516
0.418000	-2.250217
0.418100	-2.157711
0.418200	-2.153167
0.418300	-2.256060
0.418400	-2.324871
0.418500	-2.285921
0.418600	-2.231067
0.418700	-2.125253
0.418800	-2.117463
0.418900	-2.142780
0.419000	-2.179134
0.419100	-2.197310
0.419200	-2.134341
0.419300	-2.087277
0.419400	-2.024307
0.419500	-2.032747
0.419600	-2.041835
0.419700	-2.033071
0.419800	-2.048327
0.419900	-2.016517
0.420000	-2.017167
0.420100	-1.998016
0.420200	-1.978217
0.420300	-1.951601
0.420400	-1.992498
0.420500	-1.997367
0.420600	-1.976269
0.420700	-1.993148
0.420800	-1.994121
0.420900	-1.982761
0.421000	-1.982436
0.421100	-2.021386
0.421200	-2.123630
0.421300	-2.167773
0.421400	-2.131744
0.421500	-2.058713
0.421600	-2.024307
0.421700	-2.068775
0.421800	-2.178809
0.421900	-2.244699
0.422000	-2.237559
0.422100	-2.164203
0.422200	-2.110971
0.422300	-2.094742
0.422400	-2.157387
0.422500	-2.195687
0.422600	-2.180757
0.422700	-2.162580
0.422800	-2.114542
0.422900	-2.139534
0.423000	-2.130771
0.423100	-2.137587
0.423200	-2.115840
0.423300	-2.106752
0.423400	-2.137912
0.423500	-2.139859
0.423600	-2.139210
0.423700	-2.134666
0.423800	-2.147324
0.423900	-2.160957
0.424000	-2.225874
0.424100	-2.261253
0.424200	-2.290790
0.424300	-2.249244
0.424400	-2.225224
0.424500	-2.231067
0.424600	-2.227172
0.424700	-2.218408
0.424800	-2.185625
0.424900	-2.163878
0.425000	-2.133043
0.425100	-2.113892
0.425200	-2.096040
0.425300	-2.075267
0.425400	-2.032747
0.425500	-2.027553
0.425600	-2.032747
0.425700	-2.026580
0.425800	-2.030799
0.425900	-2.049625
0.426000	-2.056117
0.426100	-2.044756
0.426200	-2.085978
0.426300	-2.146026
0.426400	-2.232365
0.426500	-2.264824
0.426600	-2.203802
0.426700	-2.114217
0.426800	-2.069425
0.426900	-2.147649
0.427000	-2.254112
0.427100	-2.314485
0.427200	-2.287869
0.427300	-2.229119
0.427400	-2.181081
0.427500	-2.228470
0.427600	-2.295334
0.427700	-2.365444
0.427800	-2.395306
0.427900	-2.373234
0.428000	-2.355382
0.428100	-2.366743
0.428200	-2.377454
0.428300	-2.399850
0.428400	-2.407640
0.428500	-2.430036
0.428600	-2.442046
0.428700	-2.461196
0.428800	-2.482619
0.428900	-2.491707
0.429000	-2.474504
0.429100	-2.474829
0.429200	-2.472881
0.429300	-2.468013
0.429400	-2.430361
0.429500	-2.350838
0.429600	-2.311239
0.429700	-2.354733
0.429800	-2.432633
0.429900	-2.491058
0.430000	-2.493979
0.430100	-2.434905
0.430200	-2.397578
0.430300	-2.434905
0.430400	-2.535202
0.430500	-2.651727
0.430600	-2.695221
0.430700	-2.658543
0.430800	-2.604338
0.430900	-2.605312
0.431000	-2.620242
0.431100	-2.647832
0.431200	-2.659517
0.431300	-2.650104
0.431400	-2.645885
0.431500	-2.657894
0.431600	-2.655947
0.431700	-2.660491
0.431800	-2.626410
0.431900	-2.615698
0.432000	-2.617970
0.432100	-2.625760
0.432200	-2.601741
0.432300	-2.532280
0.432400	-2.475154
0.432500	-2.434905
0.432600	-2.348566
0.432700	-2.312213
0.432800	-2.287544
0.432900	-2.210618
0.433000	-2.137262
0.433100	-2.076890
0.433200	-2.008727
0.433300	-1.952250
0.433400	-1.937644
0.433500	-1.906159
0.433600	-1.904212
0.433700	-1.872078
0.433800	-1.860069
0.433900	-1.813329
0.434000	-1.817548
0.434100	-1.780221
0.434200	-1.809109
0.434300	-1.793854
0.434400	-1.798073
0.434500	-1.786713
0.434600	-1.715954
0.434700	-1.661749
0.434800	-1.548145
0.434900	-1.609491
0.435000	-1.678302
0.435100	-1.733806
0.435200	-1.699725
0.435300	-1.581577
0.435400	-1.505300
0.435500	-1.505300
0.435600	-1.543600
0.435700	-1.596183
0.435800	-1.584498
0.435900	-1.539056
0.436000	-1.440059
0.436100	-1.432593
0.436200	-1.427075
0.436300	-1.464727
0.436400	-1.452393
0.436500	-1.439734
0.436600	-1.399161
0.436700	-1.388450
0.436800	-1.370273
0.436900	-1.347553
0.437000	-1.355667
0.437100	-1.347228
0.437200	-1.362159
0.437300	-1.372546
0.437400	-1.380335
0.437500	-1.354369
0.437600	-1.342359
0.437700	-1.331973
0.437800	-1.405004
0.437900	-1.493290
0.438000	-1.546197
0.438100	-1.506273
0.438200	-1.444927
0.438300	-1.441682
0.438400	-1.512116
0.438500	-1.582226
0.438600	-1.612737
0.438700	-1.559180
0.438800	-1.475763
0.438900	-1.419285
0.439000	-1.421557
0.439100	-1.450770
0.439200	-1.442006
0.439300	-1.441682
0.439400	-1.417987
0.439500	-1.418636
0.439600	-1.449147
0.439700	-1.464402
0.439800	-1.477061
0.439900	-1.442980
0.440000	-1.442980
0.440100	-1.436488
0.440200	-1.451094
0.440300	-1.448498
0.440400	-1.431944
0.440500	-1.438436
0.440600	-1.481605
0.440700	-1.513414
0.440800	-1.558856
0.440900	-1.580278
0.441000	-1.549443
0.441100	-1.554636
0.441200	-1.565023
0.441300	-1.553338
0.441400	-1.557882
0.441500	-1.546197
0.441600	-1.549118
0.441700	-1.547820
0.441800	-1.516660
0.441900	-1.533538
0.442000	-1.526398
0.442100	-1.514713
0.442200	-1.522178
0.442300	-1.517958
0.442400	-1.529643
0.442500	-1.516985
0.442600	-1.526398
0.442700	-1.532240
0.442800	-1.522178
0.442900	-1.523152
0.443000	-1.590016
0.443100	-1.705243
0.443200	-1.669863
0.443300	-1.624097
0.443400	-1.533214
0.443500	-1.535161
0.443600	-1.613386
0.443700	-1.728613
0.443800	-1.793854
0.443900	-1.751658
0.444000	-1.706865
0.444100	-1.705567
0.444200	-1.756202
0.444300	-1.822417
0.444400	-1.870780
0.444500	-1.892527
0.444600	-1.886035
0.444700	-1.892202
0.444800	-1.900317
0.444900	-1.920766
0.445000	-1.939591
0.445100	-1.941214
0.445200	-1.949978
0.445300	-1.965233
0.445400	-1.989902
0.445500	-2.012298
0.445600	-2.010350
0.445700	-2.001587
0.445800	-2.026255
0.445900	-2.042809
0.446000	-2.056441
0.446100	-1.999964
0.446200	-1.953548
0.446300	-1.937968
0.446400	-1.989253
0.446500	-2.056766
0.446600	-2.091172
0.446700	-2.058713
0.446800	-1.996718
0.446900	-1.952250
0.447000	-2.019439
0.447100	-2.123630
0.447200	-2.193415
0.447300	-2.202504
0.447400	-2.172642
0.447500	-2.155114
0.447600	-2.154790
0.447700	-2.170045
0.447800	-2.178809
0.447900	-2.190169
0.448000	-2.195038
0.448100	-2.185301
0.448200	-2.185301
0.448300	-2.142456
0.448400	-2.105778
0.448500	-2.089873
0.448600	-2.071047
0.448700	-2.047353
0.448800	-2.048002
0.448900	-2.029825
0.449000	-1.978217
0.449100	-1.943811
0.449200	-1.898369
0.449300	-1.876947
0.449400	-1.852928
0.449500	-1.830532
0.449600	-1.792880
0.449700	-1.728288
0.449800	-1.672784
0.449900	-1.630264
0.450000	-1.613061
0.450100	-1.605596
0.450200	-1.598130
0.450300	-1.592612
0.450400	-1.620851
0.450500	-1.587744
0.450600	-1.602350
0.450700	-1.586121
0.450800	-1.610140
0.450900	-1.620527
0.451000	-1.643247
0.451100	-1.641949
0.451200	-1.621500
0.451300	-1.566970
0.451400	-1.464727
0.451500	-1.422207
0.451600	-1.502378
0.451700	-1.603324
0.451800	-1.636106
0.451900	-1.556259
0.452000	-1.468297
0.452100	-1.408574
0.452200	-1.392670
0.452300	-1.444927
0.452400	-1.421557
0.452500	-1.392670
0.452600	-1.311849
0.452700	-1.257968
0.452800	-1.230378
0.452900	-1.211553
0.453000	-1.213500
0.453100	-1.185262
0.453200	-1.175524
0.453300	-1.169032
0.453400	-1.157672
0.453500	-1.153128
0.453600	-1.162216
0.453700	-1.152154
0.453800	-1.188507
0.453900	-1.182989
0.454000	-1.219667
0.454100	-1.208956
0.454200	-1.199868
0.454300	-1.180068
0.454400	-1.209930
0.454500	-1.323858
0.454600	-1.381634
0.454700	-1.390073
0.454800	-1.320937
0.454900	-1.290751
0.455000	-1.307304
0.455100	-1.355667
0.455200	-1.416040
0.455300	-1.386503
0.455400	-1.326130
0.455500	-1.257319
0.455600	-1.222264
0.455700	-1.229080
0.455800	-1.220316
0.455900	-1.188832
0.456000	-1.177796
0.456100	-1.147610
0.456200	-1.171304
0.456300	-1.175849
0.456400	-1.166111
0.456500	-1.173901
0.456600	-1.179094
0.456700	-1.203114
0.456800	-1.214799
0.456900	-1.206359
0.457000	-1.191429
0.457100	-1.164813
0.457200	-1.167085
0.457300	-1.209930
0.457400	-1.216421
0.457500	-1.244011
0.457600	-1.213176
0.457700	-1.175524
0.457800	-1.170980
0.457900	-1.158970
0.458000	-1.145987
0.458100	-1.136250
0.458200	-1.120345
0.458300	-1.110283
0.458400	-1.088211
0.458500	-1.077825
0.458600	-1.054455
0.458700	-1.040173
0.458800	-1.020049
0.458900	-1.009987
0.459000	-1.012908
0.459100	-1.012584
0.459200	-1.043744
0.459300	-1.036603
0.459400	-1.041147
0.459500	-1.063543
0.459600	-1.120670
0.459700	-1.245634
0.459800	-1.335219
0.459900	-1.316068
0.460000	-1.238818
0.460100	-1.213176
0.460200	-1.264135
0.460300	-1.396889
0.460400	-1.506273
0.460500	-1.530942
0.460600	-1.492966
0.460700	-1.464078
0.460800	-1.484851
0.460900	-1.553663
0.461000	-1.615658
0.461100	-1.639677
0.461200	-1.638379
0.461300	-1.628316
0.461400	-1.633510
0.461500	-1.642598
0.461600	-1.666293
0.461700	-1.710436
0.461800	-1.738675
0.461900	-1.751333
0.462000	-1.785739
0.462100	-1.883114
0.462200	-1.923038
0.462300	-1.955496
0.462400	-1.986656
0.462500	-2.045405
0.462600	-2.101234
0.462700	-2.111945
0.462800	-2.070398
0.462900	-2.048976
0.463000	-2.054818
0.463100	-2.138236
0.463200	-2.214513
0.463300	-2.191143
0.463400	-2.126551
0.463500	-2.056117
0.463600	-2.029501
0.463700	-2.066828
0.463800	-2.110647
0.463900	-2.158360
0.464000	-2.113243
0.464100	-2.043458
0.464200	-2.002560
0.464300	-1.997692
0.464400	-1.994770
0.464500	-1.993148
0.464600	-1.966856
0.464700	-1.961988
0.464800	-1.938293
0.464900	-1.907133
0.465000	-1.859419
0.465100	-1.795801
0.465200	-1.734780
0.465300	-1.694531
0.465400	-1.665319
0.465500	-1.637080
0.465600	-1.586445
0.465700	-1.513739
0.465800	-1.470245
0.465900	-1.413443
0.466000	-1.387476
0.466100	-1.382608
0.466200	-1.366703
0.466300	-1.331324
0.466400	-1.276794
0.466500	-1.244335
0.466600	-1.228756
0.466700	-1.233300
0.466800	-1.240116
0.466900	-1.205386
0.467000	-1.246283
0.467100	-1.211553
0.467200	-1.225834
0.467300	-1.179744
0.467400	-1.172927
0.467500	-1.155075
0.467600	-1.117424
0.467700	-1.134951
0.467800	-1.109958
0.467900	-1.073281
0.468000	-0.993433
0.468100	-0.889567
0.468200	-0.886646
0.468300	-0.964221
0.468400	-1.055753
0.468500	-1.021997
0.468600	-0.950264
0.468700	-0.837309
0.468800	-0.799009
0.468900	-0.809720
0.469000	-0.822703
0.469100	-0.827247
0.469200	-0.779209
0.469300	-0.752918
0.469400	-0.710723
0.469500	-0.713968
0.469600	-0.722732
0.469700	-0.697415
0.469800	-0.720135
0.469900	-0.714618
0.470000	-0.711047
0.470100	-0.710398
0.470200	-0.720135
0.470300	-0.734742
0.470400	-0.716240
0.470500	-0.774990
0.470600	-0.796412
0.470700	-0.840555
0.470800	-0.823677
0.470900	-0.820107
0.471000	-0.808422
0.471100	-0.867496
0.471200	-0.961300
0.471300	-0.998302
0.471400	-0.963572
0.471500	-0.909367
0.471600	-0.886321
0.471700	-0.931114
0.471800	-1.017453
0.471900	-1.090484
0.472000	-1.059648
0.472100	-1.019725
0.472200	-0.967142
0.472300	-0.975906
0.472400	-1.040498
0.472500	-1.085615
0.472600	-1.089185
0.472700	-1.076851
0.472800	-1.062245
0.472900	-1.078474
0.473000	-1.092756
0.473100	-1.127161
0.473200	-1.151180
0.473300	-1.188832
0.473400	-1.214799
0.473500	-1.217720
0.473600	-1.241739
0.473700	-1.226483
0.473800	-1.225510
0.473900	-1.253424
0.474000	-1.314445
0.474100	-1.353720
0.474200	-1.347228
0.474300	-1.326130
0.474400	-1.299839
0.474500	-1.317367
0.474600	-1.313796
0.474700	-1.304708
0.474800	-1.299839
0.474900	-1.299190
0.475000	-1.288803
0.475100	-1.267381
0.475200	-1.252450
0.475300	-1.249853
0.475400	-1.226159
0.475500	-1.210579
0.475600	-1.194350
0.475700	-1.189806
0.475800	-1.167734
0.475900	-1.172927
0.476000	-1.170006
0.476100	-1.192727
0.476200	-1.208631
0.476300	-1.300164
0.476400	-1.413443
0.476500	-1.482904
0.476600	-1.477061
0.476700	-1.432593
0.476800	-1.426102
0.476900	-1.488097
0.477000	-1.642274
0.477100	-1.733806
0.477200	-1.758474
0.477300	-1.712708
0.477400	-1.704269
0.477500	-1.745166
0.477600	-1.822092
0.477700	-1.896097
0.477800	-1.916546
0.477900	-1.910054
0.478000	-1.929529
0.478100	-1.934073
0.478200	-1.984059
0.478300	-1.997692
0.478400	-2.036642
0.478500	-2.056117
0.478600	-2.076241
0.478700	-2.106427
0.478800	-2.149597
0.478900	-2.141482
0.479000	-2.154790
0.479100	-2.197635
0.479200	-2.219382
0.479300	-2.246322
0.479400	-2.202179
0.479500	-2.142131
0.479600	-2.100909
0.479700	-2.122656
0.479800	-2.196337
0.479900	-2.219706
0.480000	-2.202504
0.480100	-2.139859
0.480200	-2.090522
0.480300	-2.106102
0.480400	-2.139859
0.480500	-2.207697
0.480600	-2.187248
0.480700	-2.137587
0.480800	-2.073320
0.480900	-2.039238
0.481000	-2.020737
0.481100	-1.991525
0.481200	-1.976918
0.481300	-1.953873
0.481400	-1.917195
0.481500	-1.883114
0.481600	-1.858121
0.481700	-1.833128
0.481800	-1.778923
0.481900	-1.750035
0.482000	-1.708488
0.482100	-1.686741
0.482200	-1.665319
0.482300	-1.593262
0.482400	-1.522178
0.482500	-1.421557
0.482600	-1.383906
0.482700	-1.335219
0.482800	-1.276794
0.482900	-1.219018
0.483000	-1.162216
0.483100	-1.105739
0.483200	-1.073281
0.483300	-1.065166
0.483400	-1.068737
0.483500	-1.068412
0.483600	-1.087238
0.483700	-1.113853
0.483800	-1.120020
0.483900	-1.117424
0.484000	-1.087887
0.484100	-1.099247
0.484200	-1.091782
0.484300	-1.082694
0.484400	-1.074579
0.484500	-1.022970
0.484600	-0.979801
0.484700	-0.832765
0.484800	-0.767524
0.484900	-0.796737
0.485000	-0.891515
0.485100	-0.926570
0.485200	-0.890866
0.485300	-0.802579
0.485400	-0.722083
0.485500	-0.757787
0.485600	-0.773367
0.485700	-0.828221
0.485800	-0.802579
0.485900	-0.764603
0.486000	-0.707801
0.486100	-0.689300
0.486200	-0.726302
0.486300	-0.746102
0.486400	-0.782780
0.486500	-0.752918
0.486600	-0.743505
0.486700	-0.744479
0.486800	-0.733768
0.486900	-0.737663
0.487000	-0.713319
0.487100	-0.717539
0.487200	-0.704555
0.487300	-0.716890
0.487400	-0.713319
0.487500	-0.702933
0.487600	-0.675019
0.487700	-0.665930
0.487800	-0.713319
0.487900	-0.816212
0.488000	-0.822379
0.488100	-0.786026
0.488200	-0.716890
0.488300	-0.723706
0.488400	-0.803878
0.488500	-0.909691
0.488600	-0.941825
0.488700	-0.902550
0.488800	-0.845749
0.488900	-0.836011
0.489000	-0.885023
0.489100	-0.952212
0.489200	-0.970388
0.489300	-0.992784
0.489400	-0.960002
0.489500	-0.965195
0.489600	-1.006092
0.489700	-1.032708
0.489800	-1.068087
0.489900	-1.063543
0.490000	-1.091133
0.490100	-1.122293
0.490200	-1.135600
0.490300	-1.135276
0.490400	-1.119696
0.490500	-1.084966
0.490600	-1.105414
0.490700	-1.179094
0.490800	-1.198569
0.490900	-1.200517
0.491000	-1.211877
0.491100	-1.242713
0.491200	-1.248555
0.491300	-1.277118
0.491400	-1.289128
0.491500	-1.285233
0.491600	-1.297892
0.491700	-1.296918
0.491800	-1.306655
0.491900	-1.307304
0.492000	-1.313147
0.492100	-1.327753
0.492200	-1.328402
0.492300	-1.348202
0.492400	-1.340087
0.492500	-1.358588
0.492600	-1.361834
0.492700	-1.387152
0.492800	-1.397538
0.492900	-1.430646
0.493000	-1.523476
0.493100	-1.624097
0.493200	-1.655906
0.493300	-1.602350
0.493400	-1.545223
0.493500	-1.556584
0.493600	-1.643896
0.493700	-1.774703
0.493800	-1.801644
0.493900	-1.770159
0.494000	-1.713682
0.494100	-1.733157
0.494200	-1.788011
0.494300	-1.871429
0.494400	-1.903563
0.494500	-1.937644
0.494600	-1.923038
0.494700	-1.919143
0.494800	-1.927906
0.494900	-1.969778
0.495000	-1.979190
0.495100	-1.986007
0.495200	-1.995420
0.495300	-2.016517
0.495400	-2.039563
0.495500	-2.068775
0.495600	-2.079162
0.495700	-2.089224
0.495800	-2.068775
0.495900	-2.079811
0.496000	-2.068451
0.496100	-2.011324
0.496200	-1.953224
0.496300	-1.950952
0.496400	-2.026904
0.496500	-2.097339
0.496600	-2.134666
0.496700	-2.091821
0.496800	-2.016193
0.496900	-1.988279
0.497000	-2.059687
0.497100	-2.159334
0.497200	-2.228146
0.497300	-2.218084
0.497400	-2.181081
0.497500	-2.155114
0.497600	-2.154465
0.497700	-2.166475
0.497800	-2.198284
0.497900	-2.213215
0.498000	-2.238208
0.498100	-2.227821
0.498200	-2.243401
0.498300	-2.225549
0.498400	-2.159659
0.498500	-2.130446
0.498600	-2.089224
0.498700	-2.101883
0.498800	-2.078837
0.498900	-2.023009
0.499000	-1.926283
0.499100	-1.875324
0.499200	-1.763343
0.499300	-1.736403
0.499400	-1.690636
0.499500	-1.655906
0.499600	-1.605920
0.499700	-1.569242
0.499800	-1.510493
0.499900	-1.485825
0.500000	-1.488097
0.500100	-1.477710
0.500200	-1.479333
0.500300	-1.478359
0.500400	-1.470245
0.500500	-1.433892
0.500600	-1.421233
0.500700	-1.396565
0.500800	-1.375142
0.500900	-1.364106
0.501000	-1.367352
0.501100	-1.389424
0.501200	-1.331324
0.501300	-1.334894
0.501400	-1.190130
0.501500	-1.191429
0.501600	-1.277767
0.501700	-1.393319
0.501800	-1.415715
0.501900	-1.365729
0.502000	-1.295944
0.502100	-1.220316
0.502200	-1.249529
0.502300	-1.272899
0.502400	-1.283285
0.502500	-1.229080
0.502600	-1.118722
0.502700	-1.042770
0.502800	-1.011935
0.502900	-0.996030
0.503000	-0.986617
0.503100	-0.954484
0.503200	-0.935658
0.503300	-0.887295
0.503400	-0.849319
0.503500	-0.817510
0.503600	-0.839906
0.503700	-0.803228
0.503800	-0.835362
0.503900	-0.814913
0.504000	-0.839906
0.504100	-0.843801
0.504200	-0.835362
0.504300	-0.828221
0.504400	-0.831467
0.504500	-0.959677
0.504600	-1.041147
0.504700	-1.038875
0.504800	-0.962274
0.504900	-0.934360
0.505000	-0.936307
0.505100	-1.019400
0.505200	-1.080746
0.505300	-1.087562
0.505400	-1.012908
0.505500	-0.967791
0.505600	-0.976231
0.505700	-1.037901
0.505800	-1.081071
0.505900	-1.082369
0.506000	-1.092431
0.506100	-1.090808
0.506200	-1.114503
0.506300	-1.141768
0.506400	-1.185586
0.506500	-1.215123
0.506600	-1.224861
0.506700	-1.267381
0.506800	-1.301787
0.506900	-1.315744
0.507000	-1.328078
0.507100	-1.340412
0.507200	-1.346254
0.507300	-1.398512
0.507400	-1.449147
0.507500	-1.478684
0.507600	-1.442980
0.507700	-1.450445
0.507800	-1.478359
0.507900	-1.487772
0.508000	-1.512441
0.508100	-1.512765
0.508200	-1.519257
0.508300	-1.527047
0.508400	-1.533214
0.508500	-1.548145
0.508600	-1.555285
0.508700	-1.576708
0.508800	-1.578006
0.508900	-1.572164
0.509000	-1.577357
0.509100	-1.575410
0.509200	-1.593911
0.509300	-1.597157
0.509400	-1.614359
0.509500	-1.621176
0.509600	-1.656880
0.509700	-1.781195
0.509800	-1.843190
0.509900	-1.843190
0.510000	-1.756851
0.510100	-1.725367
0.510200	-1.785739
0.510300	-1.900966
0.510400	-2.001262
0.510500	-2.022035
0.510600	-1.980489
0.510700	-1.927257
0.510800	-1.945434
0.510900	-1.991849
0.511000	-2.065205
0.511100	-2.094417
0.511200	-2.090522
0.511300	-2.064556
0.511400	-2.036642
0.511500	-2.036317
0.511600	-2.018465
0.511700	-2.044756
0.511800	-2.034370
0.511900	-2.031773
0.512000	-2.032097
0.512100	-2.029825
0.512200	-2.030475
0.512300	-2.025930
0.512400	-2.035343
0.512500	-2.043458
0.512600	-2.032747
0.512700	-2.018790
0.512800	-1.953548
0.512900	-1.922064
0.513000	-1.923362
0.513100	-2.022035
0.513200	-2.092470
0.513300	-2.103506
0.513400	-2.041510
0.513500	-1.994446
0.513600	-1.991200
0.513700	-2.045405
0.513800	-2.128823
0.513900	-2.168422
0.514000	-2.118437
0.514100	-2.069749
0.514200	-2.063582
0.514300	-2.055467
0.514400	-2.055792
0.514500	-2.071047
0.514600	-2.070074
0.514700	-2.076241
0.514800	-2.057415
0.514900	-2.050599
0.515000	-2.025930
0.515100	-1.960040
0.515200	-1.927257
0.515300	-1.920441
0.515400	-1.930828
0.515500	-1.938293
0.515600	-1.906484
0.515700	-1.864937
0.515800	-1.854551
0.515900	-1.794503
0.516000	-1.779247
0.516100	-1.756851
0.516200	-1.718550
0.516300	-1.680250
0.516400	-1.619877
0.516500	-1.587095
0.516600	-1.542627
0.516700	-1.531591
0.516800	-1.524125
0.516900	-1.505949
0.517000	-1.511791
0.517100	-1.468946
0.517200	-1.453691
0.517300	-1.413767
0.517400	-1.429672
0.517500	-1.424803
0.517600	-1.453367
0.517700	-1.466674
0.517800	-1.491018
0.517900	-1.478359
0.518000	-1.420908
0.518100	-1.315419
0.518200	-1.343333
0.518300	-1.446226
0.518400	-1.527047
0.518500	-1.515037
0.518600	-1.443954
0.518700	-1.336192
0.518800	-1.293347
0.518900	-1.370923
0.519000	-1.400784
0.519100	-1.445252
0.519200	-1.378063
0.519300	-1.328727
0.519400	-1.267705
0.519500	-1.306655
0.519600	-1.316717
0.519700	-1.345930
0.519800	-1.318989
0.519900	-1.316717
0.520000	-1.317042
0.520100	-1.319314
0.520200	-1.333596
0.520300	-1.344307
0.520400	-1.381958
0.520500	-1.424803
0.520600	-1.418961
0.520700	-1.481930
0.520800	-1.474140
0.520900	-1.473491
0.521000	-1.454016
0.521100	-1.523476
0.521200	-1.639677
0.521300	-1.682197
0.521400	-1.660126
0.521500	-1.593586
0.521600	-1.549118
0.521700	-1.623448
0.521800	-1.725691
0.521900	-1.800994
0.522000	-1.797099
0.522100	-1.743868
0.522200	-1.719524
0.522300	-1.729911
0.522400	-1.819171
0.522500	-1.858121
0.522600	-1.871429
0.522700	-1.879219
0.522800	-1.884412
0.522900	-1.897396
0.523000	-1.899992
0.523100	-1.916221
0.523200	-1.937319
0.523300	-1.934398
0.523400	-1.963935
0.523500	-1.979840
0.523600	-1.962312
0.523700	-1.973023
0.523800	-1.967505
0.523900	-1.995420
0.524000	-2.049300
0.524100	-2.066503
0.524200	-2.073644
0.524300	-2.026580
0.524400	-2.014245
0.524500	-2.024307
0.524600	-1.997043
0.524700	-1.986331
0.524800	-1.984708
0.524900	-1.987954
0.525000	-1.972050
0.525100	-1.940241
0.525200	-1.953873
0.525300	-1.939591
0.525400	-1.970102
0.525500	-1.965883
0.525600	-2.000938
0.525700	-2.006780
0.525800	-2.017167
0.525900	-2.037291
0.526000	-2.034370
0.526100	-2.074293
0.526200	-2.108699
0.526300	-2.196337
0.526400	-2.314809
0.526500	-2.372585
0.526600	-2.333960
0.526700	-2.246647
0.526800	-2.224251
0.526900	-2.282676
0.527000	-2.369664
0.527100	-2.438476
0.527200	-2.412184
0.527300	-2.325521
0.527400	-2.285921
0.527500	-2.319029
0.527600	-2.408614
0.527700	-2.459574
0.527800	-2.477750
0.527900	-2.464118
0.528000	-2.438151
0.528100	-2.443994
0.528200	-2.462170
0.528300	-2.478075
0.528400	-2.492681
0.528500	-2.491383
0.528600	-2.507287
0.528700	-2.499822
0.528800	-2.514428
0.528900	-2.519946
0.529000	-2.531956
0.529100	-2.556949
0.529200	-2.585512
0.529300	-2.601741
0.529400	-2.584538
0.529500	-2.527412
0.529600	-2.517674
0.529700	-2.564414
0.529800	-2.625760
0.529900	-2.728004
0.530000	-2.684835
0.530100	-2.597522
0.530200	-2.548834
0.530300	-2.585512
0.530400	-2.665684
0.530500	-2.734496
0.530600	-2.729952
0.530700	-2.694897
0.530800	-2.650429
0.530900	-2.624462
0.531000	-2.629980
0.531100	-2.649130
0.531200	-2.663087
0.531300	-2.664386
0.531400	-2.639393
0.531500	-2.634849
0.531600	-2.617321
0.531700	-2.590381
0.531800	-2.550457
0.531900	-2.518648
0.532000	-2.517025
0.532100	-2.494629
0.532200	-2.495602
0.532300	-2.419974
0.532400	-2.372585
0.532500	-2.289816
0.532600	-2.266771
0.532700	-2.244375
0.532800	-2.176862
0.532900	-2.117138
0.533000	-2.057090
0.533100	-1.979190
0.533200	-1.928556
0.533300	-1.876622
0.533400	-1.868832
0.533500	-1.859744
0.533600	-1.835076
0.533700	-1.844813
0.533800	-1.809758
0.533900	-1.827286
0.534000	-1.788985
0.534100	-1.786064
0.534200	-1.802617
0.534300	-1.831181
0.534400	-1.867209
0.534500	-1.852603
0.534600	-1.808460
0.534700	-1.698426
0.534800	-1.611438
0.534900	-1.665968
0.535000	-1.716603
0.535100	-1.808135
0.535200	-1.741271
0.535300	-1.691935
0.535400	-1.598130
0.535500	-1.613386
0.535600	-1.658503
0.535700	-1.720173
0.535800	-1.724068
0.535900	-1.664670
0.536000	-1.620527
0.536100	-1.591963
0.536200	-1.594560
0.536300	-1.604622
0.536400	-1.640326
0.536500	-1.624746
0.536600	-1.580603
0.536700	-1.564374
0.536800	-1.573462
0.536900	-1.550092
0.537000	-1.558207
0.537100	-1.555285
0.537200	-1.592612
0.537300	-1.596507
0.537400	-1.588068
0.537500	-1.562102
0.537600	-1.525099
0.537700	-1.510168
0.537800	-1.574436
0.537900	-1.626694
0.538000	-1.652336
0.538100	-1.603324
0.538200	-1.511467
0.538300	-1.517634
0.538400	-1.578655
0.538500	-1.639677
0.538600	-1.676355
0.538700	-1.618579
0.538800	-1.555935
0.538900	-1.539705
0.539000	-1.534837
0.539100	-1.564049
0.539200	-1.557882
0.539300	-1.572488
0.539400	-1.544250
0.539500	-1.554312
0.539600	-1.548469
0.539700	-1.578980
0.539800	-1.567295
0.539900	-1.541328
0.540000	-1.541978
0.540100	-1.548469
0.540200	-1.530617
0.540300	-1.488421
0.540400	-1.469920
0.540500	-1.448822
0.540600	-1.464727
0.540700	-1.483877
0.540800	-1.490694
0.540900	-1.469271
0.541000	-1.453042
0.541100	-1.434541
0.541200	-1.433242
0.541300	-1.424479
0.541400	-1.422207
0.541500	-1.405977
0.541600	-1.391371
0.541700	-1.380660
0.541800	-1.389099
0.541900	-1.390722
0.542000	-1.408899
0.542100	-1.409548
0.542200	-1.405004
0.542300	-1.407925
0.542400	-1.414741
0.542500	-1.412145
0.542600	-1.429672
0.542700	-1.424803
0.542800	-1.443629
0.542900	-1.491667
0.543000	-1.593586
0.543100	-1.677328
0.543200	-1.703944
0.543300	-1.661749
0.543400	-1.588393
0.543500	-1.620202
0.543600	-1.707190
0.543700	-1.821768
0.543800	-1.871429
0.543900	-1.848059
0.544000	-1.783142
0.544100	-1.780870
0.544200	-1.811706
0.544300	-1.880193
0.544400	-1.912002
0.544500	-1.908107
0.544600	-1.902913
0.544700	-1.871429
0.544800	-1.865911
0.544900	-1.870455
0.545000	-1.869157
0.545100	-1.855524
0.545200	-1.851954
0.545300	-1.868832
0.545400	-1.875649
0.545500	-1.871104
0.545600	-1.837023
0.545700	-1.813004
0.545800	-1.822417
0.545900	-1.848059
0.546000	-1.823066
0.546100	-1.791582
0.546200	-1.715954
0.546300	-1.709787
0.546400	-1.742245
0.546500	-1.803267
0.546600	-1.828259
0.546700	-1.770159
0.546800	-1.708488
0.546900	-1.680899
0.547000	-1.731858
0.547100	-1.809758
0.547200	-1.856498
0.547300	-1.853577
0.547400	-1.823066
0.547500	-1.808135
0.547600	-1.829233
0.547700	-1.849682
0.547800	-1.860718
0.547900	-1.870780
0.548000	-1.899668
0.548100	-1.900317
0.548200	-1.918493
0.548300	-1.919792
0.548400	-1.882789
0.548500	-1.855849
0.548600	-1.869157
0.548700	-1.869157
0.548800	-1.870455
0.548900	-1.849357
0.549000	-1.798722
0.549100	-1.769185
0.549200	-1.708164
0.549300	-1.719524
0.549400	-1.703295
0.549500	-1.673109
0.549600	-1.629290
0.549700	-1.580927
0.549800	-1.541653
0.549900	-1.509195
0.550000	-1.501405
0.550100	-1.484851
0.550200	-1.458560
0.550300	-1.464078
0.550400	-1.465051
0.550500	-1.429347
0.550600	-1.413118
0.550700	-1.397214
0.550800	-1.387476
0.550900	-1.377739
0.551000	-1.354369
0.551100	-1.372546
0.551200	-1.347553
0.551300	-1.291400
0.551400	-1.161567
0.551500	-1.142092
0.551600	-1.226808
0.551700	-1.293023
0.551800	-1.334894
0.551900	-1.281662
0.552000	-1.191104
0.552100	-1.109958
0.552200	-1.168059
0.552300	-1.228431
0.552400	-1.244011
0.552500	-1.215123
0.552600	-1.127810
0.552700	-1.086589
0.552800	-1.035954
0.552900	-1.036603
0.553000	-1.057052
0.553100	-1.036278
0.553200	-1.006741
0.553300	-1.009013
0.553400	-1.006741
0.553500	-1.019400
0.553600	-1.016803
0.553700	-1.010961
0.553800	-1.005118
0.553900	-1.044068
0.554000	-1.017128
0.554100	-1.042770
0.554200	-1.014207
0.554300	-1.016803
0.554400	-1.028813
0.554500	-1.117424
0.554600	-1.154426
0.554700	-1.123266
0.554800	-1.052832
0.554900	-0.974608
0.555000	-1.003171
0.555100	-1.089185
0.555200	-1.148908
0.555300	-1.150856
0.555400	-1.086264
0.555500	-1.037901
0.555600	-1.052832
0.555700	-1.110608
0.555800	-1.176822
0.555900	-1.204412
0.556000	-1.222913
0.556100	-1.221290
0.556200	-1.269004
0.556300	-1.302436
0.556400	-1.337491
0.556500	-1.336192
0.556600	-1.357290
0.556700	-1.398188
0.556800	-1.421557
0.556900	-1.436488
0.557000	-1.451094
0.557100	-1.453367
0.557200	-1.470569
0.557300	-1.518608
0.557400	-1.568593
0.557500	-1.588393
0.557600	-1.585472
0.557700	-1.548469
0.557800	-1.564374
0.557900	-1.576708
0.558000	-1.576383
0.558100	-1.569567
0.558200	-1.544250
0.558300	-1.578006
0.558400	-1.576059
0.558500	-1.571839
0.558600	-1.559830
0.558700	-1.570865
0.558800	-1.576708
0.558900	-1.588393
0.559000	-1.605920
0.559100	-1.623448
0.559200	-1.627667
0.559300	-1.660126
0.559400	-1.672784
0.559500	-1.694531
0.559600	-1.735429
0.559700	-1.832804
0.559800	-1.892202
0.559900	-1.869481
0.560000	-1.822092
0.560100	-1.778274
0.560200	-1.858121
0.560300	-1.980489
0.560400	-2.078188
0.560500	-2.117138
0.560600	-2.071697
0.560700	-2.037615
0.560800	-2.057415
0.560900	-2.124279
0.561000	-2.186599
0.561100	-2.191792
0.561200	-2.178160
0.561300	-2.148623
0.561400	-2.172642
0.561500	-2.207372
0.561600	-2.225874
0.561700	-2.240155
0.561800	-2.256060
0.561900	-2.279105
0.562000	-2.287220
0.562100	-2.309291
0.562200	-2.358304
0.562300	-2.371287
0.562400	-2.409588
0.562500	-2.436528
0.562600	-2.468013
0.562700	-2.474504
0.562800	-2.425168
0.562900	-2.378103
0.563000	-2.400499
0.563100	-2.487812
0.563200	-2.546237
0.563300	-2.561168
0.563400	-2.501769
0.563500	-2.431010
0.563600	-2.433282
0.563700	-2.527087
0.563800	-2.609531
0.563900	-2.633226
0.564000	-2.621216
0.564100	-2.584214
0.564200	-2.560844
0.564300	-2.549808
0.564400	-2.578047
0.564500	-2.588433
0.564600	-2.581292
0.564700	-2.577397
0.564800	-2.569283
0.564900	-2.546237
0.565000	-2.516700
0.565100	-2.473531
0.565200	-2.451134
0.565300	-2.453731
0.565400	-2.447564
0.565500	-2.423869
0.565600	-2.370313
0.565700	-2.325521
0.565800	-2.260604
0.565900	-2.238857
0.566000	-2.231067
0.566100	-2.219057
0.566200	-2.192766
0.566300	-2.162580
0.566400	-2.136289
0.566500	-2.115840
0.566600	-2.083057
0.566700	-2.072021
0.566800	-2.055143
0.566900	-2.045405
0.567000	-2.036642
0.567100	-2.043133
0.567200	-2.013272
0.567300	-1.973348
0.567400	-1.985682
0.567500	-1.960365
0.567600	-1.977568
0.567700	-1.966207
0.567800	-1.991525
0.567900	-1.905835
0.568000	-1.830532
0.568100	-1.689663
0.568200	-1.705892
0.568300	-1.776326
0.568400	-1.815601
0.568500	-1.775028
0.568600	-1.671811
0.568700	-1.578331
0.568800	-1.523801
0.568900	-1.565672
0.569000	-1.606245
0.569100	-1.596507
0.569200	-1.548145
0.569300	-1.467973
0.569400	-1.432918
0.569500	-1.445252
0.569600	-1.437137
0.569700	-1.434216
0.569800	-1.403705
0.569900	-1.388775
0.570000	-1.358588
0.570100	-1.323209
0.570200	-1.272574
0.570300	-1.268030
0.570400	-1.271925
0.570500	-1.281013
0.570600	-1.271925
0.570700	-1.283610
0.570800	-1.286856
0.570900	-1.281013
0.571000	-1.262837
0.571100	-1.325156
0.571200	-1.423830
0.571300	-1.472192
0.571400	-1.428049
0.571500	-1.343982
0.571600	-1.334245
0.571700	-1.374493
0.571800	-1.476087
0.571900	-1.514713
0.572000	-1.489395
0.572100	-1.408899
0.572200	-1.391047
0.572300	-1.421882
0.572400	-1.486799
0.572500	-1.512765
0.572600	-1.519257
0.572700	-1.528994
0.572800	-1.538407
0.572900	-1.561777
0.573000	-1.588393
0.573100	-1.587419
0.573200	-1.604622
0.573300	-1.629939
0.573400	-1.640975
0.573500	-1.645195
0.573600	-1.648441
0.573700	-1.636431
0.573800	-1.616307
0.573900	-1.641300
0.574000	-1.683496
0.574100	-1.732832
0.574200	-1.736727
0.574300	-1.740622
0.574400	-1.736078
0.574500	-1.745815
0.574600	-1.745166
0.574700	-1.757825
0.574800	-1.744517
0.574900	-1.763018
0.575000	-1.757825
0.575100	-1.749386
0.575200	-1.765615
0.575300	-1.760097
0.575400	-1.759448
0.575500	-1.762045
0.575600	-1.743868
0.575700	-1.755553
0.575800	-1.772756
0.575900	-1.766913
0.576000	-1.788985
0.576100	-1.800345
0.576200	-1.807811
0.576300	-1.889281
0.576400	-1.985682
0.576500	-2.022360
0.576600	-1.998341
0.576700	-1.933424
0.576800	-1.924985
0.576900	-2.008727
0.577000	-2.121682
0.577100	-2.193415
0.577200	-2.196986
0.577300	-2.161282
0.577400	-2.162255
0.577500	-2.212241
0.577600	-2.296308
0.577700	-2.360900
0.577800	-2.368041
0.577900	-2.354084
0.578000	-2.348891
0.578100	-2.350838
0.578200	-2.356681
0.578300	-2.373234
0.578400	-2.400824
0.578500	-2.402447
0.578600	-2.427440
0.578700	-2.435879
0.578800	-2.450485
0.578900	-2.447239
0.579000	-2.437177
0.579100	-2.448538
0.579200	-2.451784
0.579300	-2.473855
0.579400	-2.452757
0.579500	-2.386867
0.579600	-2.369015
0.579700	-2.421273
0.579800	-2.506963
0.579900	-2.562142
0.580000	-2.555975
0.580100	-2.482294
0.580200	-2.434905
0.580300	-2.462495
0.580400	-2.557922
0.580500	-2.609856
0.580600	-2.602066
0.580700	-2.559545
0.580800	-2.534552
0.580900	-2.507612
0.581000	-2.519297
0.581100	-2.552729
0.581200	-2.575450
0.581300	-2.572529
0.581400	-2.553378
0.581500	-2.554027
0.581600	-2.537149
0.581700	-2.506314
0.581800	-2.466714
0.581900	-2.450810
0.582000	-2.425168
0.582100	-2.426141
0.582200	-2.398552
0.582300	-2.331039
0.582400	-2.293062
0.582500	-2.209644
0.582600	-2.210294
0.582700	-2.187897
0.582800	-2.140184
0.582900	-2.129148
0.583000	-2.091821
0.583100	-2.058064
0.583200	-2.024307
0.583300	-2.042809
0.583400	-2.018790
0.583500	-2.027229
0.583600	-2.041835
0.583700	-2.051897
0.583800	-2.047677
0.583900	-2.032747
0.584000	-2.051248
0.584100	-2.059038
0.584200	-2.061310
0.584300	-2.123630
0.584400	-2.105453
0.584500	-2.126227
0.584600	-2.042809
0.584700	-1.980164
0.584800	-1.886035
0.584900	-1.966856
0.585000	-2.068451
0.585100	-2.097663
0.585200	-2.047353
0.585300	-1.927906
0.585400	-1.880842
0.585500	-1.892851
0.585600	-1.967181
0.585700	-2.023983
0.585800	-2.024632
0.585900	-1.971725
0.586000	-1.905835
0.586100	-1.878570
0.586200	-1.920116
0.586300	-1.943162
0.586400	-1.957768
0.586500	-1.935372
0.586600	-1.939916
0.586700	-1.921090
0.586800	-1.910703
0.586900	-1.912976
0.587000	-1.909730
0.587100	-1.926933
0.587200	-1.941863
0.587300	-1.952899
0.587400	-1.963286
0.587500	-1.940241
0.587600	-1.936021
0.587700	-1.918169
0.587800	-1.999639
0.587900	-2.063582
0.588000	-2.080460
0.588100	-2.043782
0.588200	-1.956145
0.588300	-1.943162
0.588400	-2.012298
0.588500	-2.106102
0.588600	-2.133043
0.588700	-2.057090
0.588800	-1.962312
0.588900	-1.944460
0.589000	-1.949978
0.589100	-1.987305
0.589200	-1.986007
0.589300	-1.998016
0.589400	-1.977568
0.589500	-1.982761
0.589600	-1.993472
0.589700	-1.990875
0.589800	-1.994121
0.589900	-2.008727
0.590000	-2.006455
0.590100	-2.025281
0.590200	-2.015544
0.590300	-1.978541
0.590400	-1.968804
0.590500	-1.942513
0.590600	-1.963935
0.590700	-1.983410
0.590800	-2.005157
0.590900	-2.001587
0.591000	-1.975945
0.591100	-1.971400
0.591200	-1.971725
0.591300	-1.973673
0.591400	-1.950952
0.591500	-1.944785
0.591600	-1.950303
0.591700	-1.933424
0.591800	-1.932126
0.591900	-1.923362
0.592000	-1.920766
0.592100	-1.898045
0.592200	-1.901291
0.592300	-1.888956
0.592400	-1.875973
0.592500	-1.869157
0.592600	-1.877596
0.592700	-1.886684
0.592800	-1.909081
0.592900	-1.941214
0.593000	-2.026580
0.593100	-2.131420
0.593200	-2.150895
0.593300	-2.095391
0.593400	-2.053845
0.593500	-2.085005
0.593600	-2.198284
0.593700	-2.323573
0.593800	-2.361225
0.593900	-2.345320
0.594000	-2.298580
0.594100	-2.313186
0.594200	-2.370962
0.594300	-2.431010
0.594400	-2.471908
0.594500	-2.472881
0.594600	-2.465091
0.594700	-2.454380
0.594800	-2.459898
0.594900	-2.465416
0.595000	-2.493330
0.595100	-2.495602
0.595200	-2.495927
0.595300	-2.510533
0.595400	-2.526113
0.595500	-2.562791
0.595600	-2.579345
0.595700	-2.600443
0.595800	-2.611479
0.595900	-2.623488
0.596000	-2.630629
0.596100	-2.585837
0.596200	-2.540719
0.596300	-2.546887
0.596400	-2.610830
0.596500	-2.682563
0.596600	-2.708205
0.596700	-2.661789
0.596800	-2.587459
0.596900	-2.569932
0.597000	-2.602066
0.597100	-2.665035
0.597200	-2.703011
0.597300	-2.675097
0.597400	-2.625436
0.597500	-2.592004
0.597600	-2.559221
0.597700	-2.545913
0.597800	-2.546887
0.597900	-2.519297
0.598000	-2.499822
0.598100	-2.467039
0.598200	-2.429063
0.598300	-2.389464
0.598400	-2.336881
0.598500	-2.260929
0.598600	-2.233339
0.598700	-2.210943
0.598800	-2.189520
0.598900	-2.126551
0.599000	-2.052871
0.599100	-1.991849
0.599200	-1.913300
0.599300	-1.906484
0.599400	-1.863639
0.599500	-1.822417
0.599600	-1.784765
0.599700	-1.748737
0.599800	-1.703295
0.599900	-1.703295
0.600000	-1.689663
0.600100	-1.692259
0.600200	-1.700698
0.600300	-1.714655
0.600400	-1.724393
0.600500	-1.720173
0.600600	-1.720823
0.600700	-1.711410
0.600800	-1.728613
0.600900	-1.734455
0.601000	-1.779247
0.601100	-1.778923
0.601200	-1.781844
0.601300	-1.686092
