LabVIEW Measurement	
Writer_Version	2
Reader_Version	2
Separator	Tab
Decimal_Separator	.
Multi_Headings	Yes
X_Columns	One
Time_Pref	Relative
Operator	as989
Description	Time Domain Data
Date	2021/11/24
Time	13:31:58.1513438224792480469
***End_of_Header***	
	
Channels	1	
Samples	15000	
Date	1903/12/31	
Time	19:00:00	
X_Dimension	Time	
X0	0.0000000000000000E+0	
Delta_X	0.000100	
***End_of_Header***		
X_Value	Untitled	Comment
0.000000	-2.304747	Tare Values:0.000000, 0.000000, 0.000000, 0.000000\0D\0A
0.000100	-2.290466
0.000200	-2.307019
0.000300	-2.276184
0.000400	-2.274236
0.000500	-2.261578
0.000600	-2.283649
0.000700	-2.276184
0.000800	-2.259955
0.000900	-2.260604
0.001000	-2.254112
0.001100	-2.288518
0.001200	-2.301177
0.001300	-2.295010
0.001400	-2.285921
0.001500	-2.313186
0.001600	-2.370313
0.001700	-2.389464
0.001800	-2.446266
0.001900	-2.433282
0.002000	-2.658219
0.002100	-2.953590
0.002200	-3.040903
0.002300	-2.908148
0.002400	-2.734496
0.002500	-2.688080
0.002600	-2.929571
0.002700	-3.213258
0.002800	-3.374252
0.002900	-3.339521
0.003000	-3.164245
0.003100	-3.138928
0.003200	-3.220074
0.003300	-3.408333
0.003400	-3.528105
0.003500	-3.571275
0.003600	-3.549527
0.003700	-3.531026
0.003800	-3.518367
0.003900	-3.550177
0.004000	-3.597891
0.004100	-3.614444
0.004200	-3.657939
0.004300	-3.685853
0.004400	-3.758885
0.004500	-3.809520
0.004600	-3.846848
0.004700	-3.809520
0.004800	-3.853015
0.004900	-3.931240
0.005000	-3.936433
0.005100	-3.901702
0.005200	-3.691047
0.005300	-3.664755
0.005400	-3.801406
0.005500	-4.049714
0.005600	-4.166565
0.005700	-4.064320
0.005800	-3.819907
0.005900	-3.724479
0.006000	-3.829969
0.006100	-4.122421
0.006200	-4.239596
0.006300	-4.186689
0.006400	-4.044845
0.006500	-3.956557
0.006600	-3.984147
0.006700	-4.015957
0.006800	-4.012711
0.006900	-3.989341
0.007000	-3.973761
0.007100	-3.967269
0.007200	-3.952013
0.007300	-3.899430
0.007400	-3.779009
0.007500	-3.650149
0.007600	-3.575494
0.007700	-3.543685
0.007800	-3.541737
0.007900	-3.514472
0.008000	-3.344065
0.008100	-3.259024
0.008200	-3.116856
0.008300	-2.975662
0.008400	-2.958134
0.008500	-2.882831
0.008600	-2.799413
0.008700	-2.702038
0.008800	-2.554677
0.008900	-2.484242
0.009000	-2.439774
0.009100	-2.461196
0.009200	-2.408614
0.009300	-2.404719
0.009400	-2.401149
0.009500	-2.412834
0.009600	-2.338829
0.009700	-2.340127
0.009800	-2.290790
0.009900	-2.319678
0.010000	-2.360576
0.010100	-2.366094
0.010200	-2.285921
0.010300	-2.188222
0.010400	-1.869481
0.010500	-1.782818
0.010600	-1.924985
0.010700	-2.313836
0.010800	-2.231067
0.010900	-2.196986
0.011000	-1.828584
0.011100	-1.680574
0.011200	-1.724393
0.011300	-1.879219
0.011400	-2.039238
0.011500	-1.923362
0.011600	-1.780870
0.011700	-1.589691
0.011800	-1.557557
0.011900	-1.623772
0.012000	-1.687391
0.012100	-1.737052
0.012200	-1.704593
0.012300	-1.645519
0.012400	-1.633185
0.012500	-1.631887
0.012600	-1.690312
0.012700	-1.715305
0.012800	-1.734130
0.012900	-1.788011
0.013000	-1.801319
0.013100	-1.882465
0.013200	-1.781195
0.013300	-1.798722
0.013400	-1.669863
0.013500	-1.990875
0.013600	-2.160308
0.013700	-2.213864
0.013800	-2.013596
0.013900	-1.789634
0.014000	-1.814302
0.014100	-2.011973
0.014200	-2.227496
0.014300	-2.248270
0.014400	-2.083382
0.014500	-1.906808
0.014600	-1.863639
0.014700	-1.995095
0.014800	-2.097988
0.014900	-2.090198
0.015000	-2.078837
0.015100	-2.024307
0.015200	-2.067152
0.015300	-2.095067
0.015400	-2.133367
0.015500	-2.159659
0.015600	-2.112919
0.015700	-2.123305
0.015800	-2.143754
0.015900	-2.140508
0.016000	-2.120384
0.016100	-2.101234
0.016200	-2.052871
0.016300	-2.156737
0.016400	-2.237883
0.016500	-2.302151
0.016600	-2.281377
0.016700	-2.143105
0.016800	-2.179458
0.016900	-2.196986
0.017000	-2.186599
0.017100	-2.200556
0.017200	-2.206723
0.017300	-2.203153
0.017400	-2.223277
0.017500	-2.234313
0.017600	-2.232041
0.017700	-2.243076
0.017800	-2.255411
0.017900	-2.228795
0.018000	-2.230418
0.018100	-2.230093
0.018200	-2.284623
0.018300	-2.263201
0.018400	-2.352461
0.018500	-2.343697
0.018600	-2.465091
0.018700	-2.686458
0.018800	-2.880883
0.018900	-2.822134
0.019000	-2.672825
0.019100	-2.529359
0.019200	-2.634200
0.019300	-2.854592
0.019400	-3.130164
0.019500	-3.166517
0.019600	-3.033438
0.019700	-2.872769
0.019800	-2.897437
0.019900	-3.063300
0.020000	-3.268437
0.020100	-3.373278
0.020200	-3.398271
0.020300	-3.340495
0.020400	-3.278499
0.020500	-3.279148
0.020600	-3.381392
0.020700	-3.436572
0.020800	-3.450529
0.020900	-3.465460
0.021000	-3.493699
0.021100	-3.527780
0.021200	-3.639113
0.021300	-3.628077
0.021400	-3.634244
0.021500	-3.666378
0.021600	-3.729997
0.021700	-3.735190
0.021800	-3.601136
0.021900	-3.470329
0.022000	-3.514472
0.022100	-3.705653
0.022200	-3.865349
0.022300	-3.926371
0.022400	-3.780307
0.022500	-3.579714
0.022600	-3.567380
0.022700	-3.729672
0.022800	-3.960128
0.022900	-4.046468
0.023000	-3.995508
0.023100	-3.867621
0.023200	-3.788098
0.023300	-3.769596
0.023400	-3.858857
0.023500	-3.871516
0.023600	-3.871191
0.023700	-3.840680
0.023800	-3.753042
0.023900	-3.750770
0.024000	-3.665729
0.024100	-3.568029
0.024200	-3.464486
0.024300	-3.402815
0.024400	-3.389507
0.024500	-3.379120
0.024600	-3.287587
0.024700	-3.128541
0.024800	-3.050641
0.024900	-2.826678
0.025000	-2.853618
0.025100	-2.809799
0.025200	-2.735470
0.025300	-2.638419
0.025400	-2.513130
0.025500	-2.400175
0.025600	-2.361549
0.025700	-2.352461
0.025800	-2.349540
0.025900	-2.330389
0.026000	-2.317406
0.026100	-2.346943
0.026200	-2.269368
0.026300	-2.294036
0.026400	-2.176537
0.026500	-2.311239
0.026600	-2.229769
0.026700	-2.371287
0.026800	-2.239181
0.026900	-2.272614
0.027000	-2.018465
0.027100	-1.835076
0.027200	-1.752307
0.027300	-2.100260
0.027400	-2.276833
0.027500	-2.191143
0.027600	-1.930178
0.027700	-1.798073
0.027800	-1.682197
0.027900	-1.832154
0.028000	-1.968804
0.028100	-2.052871
0.028200	-1.942188
0.028300	-1.723744
0.028400	-1.677978
0.028500	-1.604947
0.028600	-1.653309
0.028700	-1.784441
0.028800	-1.771782
0.028900	-1.753930
0.029000	-1.684794
0.029100	-1.700374
0.029200	-1.655257
0.029300	-1.701997
0.029400	-1.617281
0.029500	-1.758799
0.029600	-1.702646
0.029700	-1.837348
0.029800	-1.805214
0.029900	-1.786713
0.030000	-1.664670
0.030100	-1.715305
0.030200	-2.021062
0.030300	-2.161931
0.030400	-2.088575
0.030500	-1.901615
0.030600	-1.793854
0.030700	-1.845138
0.030800	-2.109673
0.030900	-2.280404
0.031000	-2.191143
0.031100	-2.005806
0.031200	-1.853252
0.031300	-1.882789
0.031400	-2.025930
0.031500	-2.111620
0.031600	-2.066828
0.031700	-2.073644
0.031800	-1.991849
0.031900	-2.095716
0.032000	-2.131744
0.032100	-2.188222
0.032200	-2.159983
0.032300	-2.142456
0.032400	-2.184652
0.032500	-2.204776
0.032600	-2.212566
0.032700	-2.184652
0.032800	-2.171993
0.032900	-2.151219
0.033000	-2.264499
0.033100	-2.357330
0.033200	-2.381024
0.033300	-2.273587
0.033400	-2.223277
0.033500	-2.290466
0.033600	-2.300528
0.033700	-2.285921
0.033800	-2.286895
0.033900	-2.307344
0.034000	-2.315783
0.034100	-2.331039
0.034200	-2.338829
0.034300	-2.334609
0.034400	-2.332661
0.034500	-2.367067
0.034600	-2.388165
0.034700	-2.394981
0.034800	-2.392385
0.034900	-2.407316
0.035000	-2.423869
0.035100	-2.447564
0.035200	-2.509235
0.035300	-2.674448
0.035400	-2.900358
0.035500	-3.039280
0.035600	-2.892893
0.035700	-2.738066
0.035800	-2.649780
0.035900	-2.817914
0.036000	-3.148016
0.036100	-3.327511
0.036200	-3.334328
0.036300	-3.195081
0.036400	-3.129839
0.036500	-3.204494
0.036600	-3.345363
0.036700	-3.529403
0.036800	-3.521288
0.036900	-3.544659
0.037000	-3.465784
0.037100	-3.527780
0.037200	-3.547904
0.037300	-3.635218
0.037400	-3.660860
0.037500	-3.674493
0.037600	-3.710522
0.037700	-3.674168
0.037800	-3.830618
0.037900	-3.850418
0.038000	-3.883526
0.038100	-3.894237
0.038200	-3.915660
0.038300	-3.959803
0.038400	-3.897483
0.038500	-3.784527
0.038600	-3.653719
0.038700	-3.757262
0.038800	-3.992262
0.038900	-4.135080
0.039000	-4.137676
0.039100	-3.932214
0.039200	-3.800756
0.039300	-3.845549
0.039400	-4.064320
0.039500	-4.285363
0.039600	-4.346061
0.039700	-4.224016
0.039800	-4.134106
0.039900	-4.114306
0.040000	-4.154555
0.040100	-4.195777
0.040200	-4.195128
0.040300	-4.148388
0.040400	-4.127614
0.040500	-4.114631
0.040600	-4.092884
0.040700	-3.989016
0.040800	-3.863077
0.040900	-3.789396
0.041000	-3.780632
0.041100	-3.791668
0.041200	-3.777386
0.041300	-3.656640
0.041400	-3.520964
0.041500	-3.436572
0.041600	-3.233057
0.041700	-3.225916
0.041800	-3.177229
0.041900	-3.081801
0.042000	-2.995137
0.042100	-2.875365
0.042200	-2.743584
0.042300	-2.740663
0.042400	-2.735794
0.042500	-2.732224
0.042600	-2.701713
0.042700	-2.720539
0.042800	-2.700739
0.042900	-2.625111
0.043000	-2.619269
0.043100	-2.600767
0.043200	-2.619269
0.043300	-2.660166
0.043400	-2.657245
0.043500	-2.688080
0.043600	-2.563765
0.043700	-2.370313
0.043800	-2.019763
0.043900	-2.217110
0.044000	-2.448862
0.044100	-2.594276
0.044200	-2.518972
0.044300	-2.285272
0.044400	-2.138561
0.044500	-2.044756
0.044600	-2.244050
0.044700	-2.316108
0.044800	-2.373559
0.044900	-2.141157
0.045000	-2.097663
0.045100	-1.929529
0.045200	-2.022360
0.045300	-2.085978
0.045400	-2.136289
0.045500	-2.092794
0.045600	-2.071697
0.045700	-2.012622
0.045800	-2.000938
0.045900	-1.961988
0.046000	-1.926933
0.046100	-2.058064
0.046200	-2.095716
0.046300	-2.088900
0.046400	-2.121358
0.046500	-2.142131
0.046600	-2.090198
0.046700	-2.034694
0.046800	-2.164852
0.046900	-2.373884
0.047000	-2.473206
0.047100	-2.373234
0.047200	-2.133692
0.047300	-2.100909
0.047400	-2.233339
0.047500	-2.493979
0.047600	-2.563116
0.047700	-2.454056
0.047800	-2.257683
0.047900	-2.130446
0.048000	-2.225549
0.048100	-2.390437
0.048200	-2.388165
0.048300	-2.372261
0.048400	-2.325845
0.048500	-2.298256
0.048600	-2.369664
0.048700	-2.410886
0.048800	-2.450161
0.048900	-2.418676
0.049000	-2.410561
0.049100	-2.434256
0.049200	-2.456328
0.049300	-2.444318
0.049400	-2.387191
0.049500	-2.329091
0.049600	-2.395631
0.049700	-2.526113
0.049800	-2.588109
0.049900	-2.581292
0.050000	-2.396280
0.050100	-2.443020
0.050200	-2.461196
0.050300	-2.463144
0.050400	-2.447239
0.050500	-2.420948
0.050600	-2.459898
0.050700	-2.456977
0.050800	-2.457951
0.050900	-2.464442
0.051000	-2.443344
0.051100	-2.478075
0.051200	-2.469960
0.051300	-2.479698
0.051400	-2.453406
0.051500	-2.499497
0.051600	-2.495602
0.051700	-2.528385
0.051800	-2.563765
0.051900	-2.596223
0.052000	-2.810449
0.052100	-3.087643
0.052200	-3.152236
0.052300	-2.972741
0.052400	-2.794869
0.052500	-2.784482
0.052600	-3.045447
0.052700	-3.309010
0.052800	-3.489479
0.052900	-3.372953
0.053000	-3.234031
0.053100	-3.223969
0.053200	-3.350557
0.053300	-3.519341
0.053400	-3.630349
0.053500	-3.630349
0.053600	-3.651123
0.053700	-3.617041
0.053800	-3.603409
0.053900	-3.644631
0.054000	-3.722856
0.054100	-3.759534
0.054200	-3.788747
0.054300	-3.813740
0.054400	-3.820556
0.054500	-3.928643
0.054600	-3.915660
0.054700	-3.943574
0.054800	-3.990314
0.054900	-4.051337
0.055000	-4.070487
0.055100	-4.023098
0.055200	-3.830943
0.055300	-3.800756
0.055400	-3.942600
0.055500	-4.177276
0.055600	-4.313927
0.055700	-4.199672
0.055800	-3.978954
0.055900	-3.865998
0.056000	-3.988691
0.056100	-4.245114
0.056200	-4.423637
0.056300	-4.423962
0.056400	-4.256150
0.056500	-4.158125
0.056600	-4.157476
0.056700	-4.209735
0.056800	-4.280819
0.056900	-4.275950
0.057000	-4.229859
0.057100	-4.217200
0.057200	-4.174030
0.057300	-4.146765
0.057400	-4.019203
0.057500	-3.899106
0.057600	-3.845549
0.057700	-3.813091
0.057800	-3.821854
0.057900	-3.778360
0.058000	-3.594320
0.058100	-3.493374
0.058200	-3.331082
0.058300	-3.247988
0.058400	-3.239549
0.058500	-3.171711
0.058600	-3.123023
0.058700	-3.014937
0.058800	-2.893867
0.058900	-2.791947
0.059000	-2.781236
0.059100	-2.786754
0.059200	-2.803308
0.059300	-2.744558
0.059400	-2.807527
0.059500	-2.699441
0.059600	-2.750725
0.059700	-2.647832
0.059800	-2.694572
0.059900	-2.637770
0.060000	-2.697493
0.060100	-2.774744
0.060200	-2.691975
0.060300	-2.632577
0.060400	-2.333960
0.060500	-2.158360
0.060600	-2.391736
0.060700	-2.588433
0.060800	-2.620567
0.060900	-2.466714
0.061000	-2.212890
0.061100	-2.123954
0.061200	-2.166799
0.061300	-2.336232
0.061400	-2.405044
0.061500	-2.369664
0.061600	-2.113892
0.061700	-2.022035
0.061800	-1.950627
0.061900	-2.092145
0.062000	-2.065530
0.062100	-2.147649
0.062200	-2.105129
0.062300	-2.097988
0.062400	-2.073644
0.062500	-2.025606
0.062600	-2.038589
0.062700	-2.055467
0.062800	-2.180432
0.062900	-2.115515
0.063000	-2.228795
0.063100	-2.186274
0.063200	-2.146351
0.063300	-2.029501
0.063400	-2.018465
0.063500	-2.226847
0.063600	-2.482944
0.063700	-2.473855
0.063800	-2.291115
0.063900	-2.074942
0.064000	-2.093768
0.064100	-2.313836
0.064200	-2.556299
0.064300	-2.551431
0.064400	-2.387841
0.064500	-2.140508
0.064600	-2.116164
0.064700	-2.214838
0.064800	-2.370962
0.064900	-2.345645
0.065000	-2.369989
0.065100	-2.291115
0.065200	-2.351812
0.065300	-2.438800
0.065400	-2.474829
0.065500	-2.487812
0.065600	-2.437177
0.065700	-2.451784
0.065800	-2.496252
0.065900	-2.480347
0.066000	-2.464442
0.066100	-2.431659
0.066200	-2.376156
0.066300	-2.490409
0.066400	-2.601417
0.066500	-2.620567
0.066600	-2.615374
0.066700	-2.459249
0.066800	-2.540070
0.066900	-2.543641
0.067000	-2.528710
0.067100	-2.542667
0.067200	-2.504691
0.067300	-2.524166
0.067400	-2.538123
0.067500	-2.514753
0.067600	-2.539421
0.067700	-2.535202
0.067800	-2.537149
0.067900	-2.536175
0.068000	-2.530657
0.068100	-2.580319
0.068200	-2.595574
0.068300	-2.598171
0.068400	-2.620567
0.068500	-2.630629
0.068600	-2.745207
0.068700	-2.971118
0.068800	-3.206766
0.068900	-3.150613
0.069000	-3.000979
0.069100	-2.864005
0.069200	-2.912693
0.069300	-3.207740
0.069400	-3.414175
0.069500	-3.486558
0.069600	-3.387560
0.069700	-3.271034
0.069800	-3.318098
0.069900	-3.427483
0.070000	-3.625156
0.070100	-3.720908
0.070200	-3.728049
0.070300	-3.659237
0.070400	-3.650473
0.070500	-3.646903
0.070600	-3.748823
0.070700	-3.801730
0.070800	-3.825749
0.070900	-3.842303
0.071000	-3.870867
0.071100	-3.929941
0.071200	-3.976357
0.071300	-4.039002
0.071400	-4.004272
0.071500	-4.033160
0.071600	-4.093208
0.071700	-4.125342
0.071800	-4.051337
0.071900	-3.894562
0.072000	-3.908194
0.072100	-4.124693
0.072200	-4.308733
0.072300	-4.385985
0.072400	-4.185715
0.072500	-3.966295
0.072600	-3.952013
0.072700	-4.114306
0.072800	-4.364562
0.072900	-4.449279
0.073000	-4.374949
0.073100	-4.261019
0.073200	-4.174679
0.073300	-4.197725
0.073400	-4.238623
0.073500	-4.265563
0.073600	-4.237000
0.073700	-4.174679
0.073800	-4.152932
0.073900	-4.135729
0.074000	-4.064320
0.074100	-3.942925
0.074200	-3.816986
0.074300	-3.760508
0.074400	-3.712794
0.074500	-3.711495
0.074600	-3.657614
0.074700	-3.463188
0.074800	-3.398920
0.074900	-3.112312
0.075000	-3.149639
0.075100	-3.120751
0.075200	-3.042202
0.075300	-2.979232
0.075400	-2.845179
0.075500	-2.708854
0.075600	-2.664061
0.075700	-2.635822
0.075800	-2.675422
0.075900	-2.638095
0.076000	-2.659517
0.076100	-2.653025
0.076200	-2.598171
0.076300	-2.625436
0.076400	-2.528385
0.076500	-2.605312
0.076600	-2.509884
0.076700	-2.630954
0.076800	-2.564414
0.076900	-2.556624
0.077000	-2.315783
0.077100	-2.064880
0.077200	-2.039238
0.077300	-2.298580
0.077400	-2.524815
0.077500	-2.531307
0.077600	-2.352786
0.077700	-2.133367
0.077800	-1.973997
0.077900	-2.066503
0.078000	-2.167449
0.078100	-2.293387
0.078200	-2.146675
0.078300	-2.123954
0.078400	-1.864937
0.078500	-1.923362
0.078600	-1.947057
0.078700	-2.032097
0.078800	-2.061959
0.078900	-2.062284
0.079000	-1.926608
0.079100	-1.908431
0.079200	-1.853252
0.079300	-1.884412
0.079400	-1.929529
0.079500	-1.942837
0.079600	-1.985033
0.079700	-1.940565
0.079800	-2.048976
0.079900	-1.905510
0.080000	-1.912976
0.080100	-1.860393
0.080200	-2.193415
0.080300	-2.292413
0.080400	-2.214838
0.080500	-1.997043
0.080600	-1.864937
0.080700	-1.956145
0.080800	-2.169721
0.080900	-2.339478
0.081000	-2.274236
0.081100	-2.103181
0.081200	-1.960040
0.081300	-1.986007
0.081400	-2.098637
0.081500	-2.181406
0.081600	-2.130122
0.081700	-2.168098
0.081800	-2.138885
0.081900	-2.210943
0.082000	-2.188871
0.082100	-2.206074
0.082200	-2.165501
0.082300	-2.196986
0.082400	-2.219382
0.082500	-2.272614
0.082600	-2.260929
0.082700	-2.254112
0.082800	-2.247296
0.082900	-2.235286
0.083000	-2.332661
0.083100	-2.441721
0.083200	-2.455029
0.083300	-2.465091
0.083400	-2.350189
0.083500	-2.398227
0.083600	-2.397254
0.083700	-2.374857
0.083800	-2.366743
0.083900	-2.378428
0.084000	-2.348566
0.084100	-2.376480
0.084200	-2.322924
0.084300	-2.313186
0.084400	-2.306370
0.084500	-2.291115
0.084600	-2.301177
0.084700	-2.285921
0.084800	-2.302151
0.084900	-2.342399
0.085000	-2.332661
0.085100	-2.381674
0.085200	-2.401149
0.085300	-2.583240
0.085400	-2.765331
0.085500	-2.941580
0.085600	-2.766305
0.085700	-2.670228
0.085800	-2.540070
0.085900	-2.740338
0.086000	-2.992216
0.086100	-3.239224
0.086200	-3.181773
0.086300	-3.054536
0.086400	-2.960731
0.086500	-3.032139
0.086600	-3.213582
0.086700	-3.373927
0.086800	-3.418395
0.086900	-3.392753
0.087000	-3.352504
0.087100	-3.399894
0.087200	-3.398595
0.087300	-3.444686
0.087400	-3.477470
0.087500	-3.482987
0.087600	-3.490128
0.087700	-3.522587
0.087800	-3.529728
0.087900	-3.632297
0.088000	-3.586530
0.088100	-3.634893
0.088200	-3.691696
0.088300	-3.740059
0.088400	-3.685204
0.088500	-3.534272
0.088600	-3.458319
0.088700	-3.533298
0.088800	-3.764403
0.088900	-3.884175
0.089000	-3.857883
0.089100	-3.651447
0.089200	-3.492400
0.089300	-3.541088
0.089400	-3.757587
0.089500	-3.927669
0.089600	-3.962400
0.089700	-3.843277
0.089800	-3.739410
0.089900	-3.726102
0.090000	-3.730321
0.090100	-3.735839
0.090200	-3.746226
0.090300	-3.716689
0.090400	-3.698512
0.090500	-3.663132
0.090600	-3.628077
0.090700	-3.561537
0.090800	-3.444037
0.090900	-3.349583
0.091000	-3.342118
0.091100	-3.329783
0.091200	-3.322967
0.091300	-3.167167
0.091400	-3.035385
0.091500	-2.816616
0.091600	-2.748128
0.091700	-2.760787
0.091800	-2.709178
0.091900	-2.622515
0.092000	-2.508261
0.092100	-2.396604
0.092200	-2.312862
0.092300	-2.283974
0.092400	-2.258981
0.092500	-2.237234
0.092600	-2.225224
0.092700	-2.296308
0.092800	-2.250217
0.092900	-2.269043
0.093000	-2.178484
0.093100	-2.188547
0.093200	-2.208022
0.093300	-2.233014
0.093400	-2.269368
0.093500	-2.230742
0.093600	-2.146675
0.093700	-1.896097
0.093800	-1.639028
0.093900	-1.730885
0.094000	-2.086952
0.094100	-2.110647
0.094200	-2.141157
0.094300	-1.887983
0.094400	-1.665643
0.094500	-1.615982
0.094600	-1.775677
0.094700	-1.819171
0.094800	-1.891228
0.094900	-1.702321
0.095000	-1.580603
0.095100	-1.548145
0.095200	-1.553987
0.095300	-1.637729
0.095400	-1.534837
0.095500	-1.549118
0.095600	-1.537758
0.095700	-1.535810
0.095800	-1.520231
0.095900	-1.523801
0.096000	-1.436164
0.096100	-1.459534
0.096200	-1.578331
0.096300	-1.577032
0.096400	-1.655906
0.096500	-1.589042
0.096600	-1.505624
0.096700	-1.454989
0.096800	-1.562751
0.096900	-1.839620
0.097000	-1.904212
0.097100	-1.774379
0.097200	-1.580278
0.097300	-1.543600
0.097400	-1.689663
0.097500	-1.923038
0.097600	-2.002560
0.097700	-1.899668
0.097800	-1.666617
0.097900	-1.615009
0.098000	-1.699400
0.098100	-1.832154
0.098200	-1.856823
0.098300	-1.821443
0.098400	-1.792231
0.098500	-1.777625
0.098600	-1.882140
0.098700	-1.909730
0.098800	-1.890255
0.098900	-1.833777
0.099000	-1.817548
0.099100	-1.854875
0.099200	-1.874675
0.099300	-1.865911
0.099400	-1.842541
0.099500	-1.784765
0.099600	-1.829233
0.099700	-1.943486
0.099800	-2.000613
0.099900	-2.035019
0.100000	-2.017167
0.100100	-1.913949
0.100200	-1.953873
0.100300	-1.955171
0.100400	-1.962637
0.100500	-1.942837
0.100600	-1.946408
0.100700	-1.960365
0.100800	-1.954847
0.100900	-1.938942
0.101000	-1.936670
0.101100	-1.959066
0.101200	-1.969778
0.101300	-1.975295
0.101400	-1.982112
0.101500	-1.998341
0.101600	-2.016842
0.101700	-2.050274
0.101800	-2.060336
0.101900	-2.134990
0.102000	-2.285597
0.102100	-2.550782
0.102200	-2.617646
0.102300	-2.493330
0.102400	-2.339478
0.102500	-2.328766
0.102600	-2.570581
0.102700	-2.838038
0.102800	-2.990268
0.102900	-2.891595
0.103000	-2.715345
0.103100	-2.657894
0.103200	-2.800711
0.103300	-2.991891
0.103400	-3.112312
0.103500	-3.093161
0.103600	-3.097381
0.103700	-3.041877
0.103800	-3.082125
0.103900	-3.115558
0.104000	-3.162947
0.104100	-3.155482
0.104200	-3.194107
0.104300	-3.197678
0.104400	-3.234356
0.104500	-3.266165
0.104600	-3.278174
0.104700	-3.293755
0.104800	-3.304466
0.104900	-3.364514
0.105000	-3.388533
0.105100	-3.340819
0.105200	-3.207090
0.105300	-3.120102
0.105400	-3.305440
0.105500	-3.473574
0.105600	-3.580363
0.105700	-3.492400
0.105800	-3.261296
0.105900	-3.158078
0.106000	-3.289860
0.106100	-3.543685
0.106200	-3.688450
0.106300	-3.641385
0.106400	-3.519666
0.106500	-3.419044
0.106600	-3.425861
0.106700	-3.489479
0.106800	-3.518367
0.106900	-3.492076
0.107000	-3.430729
0.107100	-3.414825
0.107200	-3.397622
0.107300	-3.356724
0.107400	-3.272981
0.107500	-3.132761
0.107600	-3.054860
0.107700	-3.017209
0.107800	-3.019481
0.107900	-2.996111
0.108000	-2.800386
0.108100	-2.711450
0.108200	-2.444967
0.108300	-2.453082
0.108400	-2.423869
0.108500	-2.377779
0.108600	-2.284948
0.108700	-2.201854
0.108800	-2.070398
0.108900	-2.011324
0.109000	-1.968155
0.109100	-1.973673
0.109200	-1.984708
0.109300	-1.976918
0.109400	-1.999315
0.109500	-1.950303
0.109600	-1.914274
0.109700	-1.860393
0.109800	-1.873701
0.109900	-1.843839
0.110000	-1.845138
0.110100	-1.918493
0.110200	-1.781844
0.110300	-1.760422
0.110400	-1.430970
0.110500	-1.384230
0.110600	-1.446875
0.110700	-1.808784
0.110800	-1.697128
0.110900	-1.613386
0.111000	-1.350474
0.111100	-1.264135
0.111200	-1.308603
0.111300	-1.462455
0.111400	-1.578655
0.111500	-1.483877
0.111600	-1.302111
0.111700	-1.145013
0.111800	-1.103142
0.111900	-1.163839
0.112000	-1.174550
0.112100	-1.215772
0.112200	-1.219343
0.112300	-1.194999
0.112400	-1.147610
0.112500	-1.187209
0.112600	-1.172278
0.112700	-1.217720
0.112800	-1.216097
0.112900	-1.206359
0.113000	-1.199868
0.113100	-1.231352
0.113200	-1.207982
0.113300	-1.182340
0.113400	-1.147285
0.113500	-1.291075
0.113600	-1.531915
0.113700	-1.503677
0.113800	-1.380335
0.113900	-1.165787
0.114000	-1.241739
0.114100	-1.394617
0.114200	-1.624097
0.114300	-1.602350
0.114400	-1.447849
0.114500	-1.263810
0.114600	-1.234273
0.114700	-1.373195
0.114800	-1.478035
0.114900	-1.438760
0.115000	-1.428049
0.115100	-1.375791
0.115200	-1.396240
0.115300	-1.443304
0.115400	-1.464078
0.115500	-1.428374
0.115600	-1.407600
0.115700	-1.424479
0.115800	-1.439734
0.115900	-1.447199
0.116000	-1.415066
0.116100	-1.394617
0.116200	-1.359238
0.116300	-1.461157
0.116400	-1.559505
0.116500	-1.591963
0.116600	-1.569892
0.116700	-1.424479
0.116800	-1.514063
0.116900	-1.511142
0.117000	-1.473166
0.117100	-1.463753
0.117200	-1.474140
0.117300	-1.484851
0.117400	-1.479982
0.117500	-1.501405
0.117600	-1.496536
0.117700	-1.505300
0.117800	-1.531266
0.117900	-1.529968
0.118000	-1.530617
0.118100	-1.536784
0.118200	-1.557882
0.118300	-1.604297
0.118400	-1.620527
0.118500	-1.647791
0.118600	-1.738025
0.118700	-1.958742
0.118800	-2.133692
0.118900	-2.158360
0.119000	-1.963610
0.119100	-1.807811
0.119200	-1.866560
0.119300	-2.161931
0.119400	-2.434581
0.119500	-2.444643
0.119600	-2.334609
0.119700	-2.197959
0.119800	-2.226198
0.119900	-2.403096
0.120000	-2.603364
0.120100	-2.691326
0.120200	-2.660166
0.120300	-2.610830
0.120400	-2.599794
0.120500	-2.651727
0.120600	-2.689379
0.120700	-2.758515
0.120800	-2.779288
0.120900	-2.791623
0.121000	-2.837064
0.121100	-2.876015
0.121200	-2.943203
0.121300	-2.974039
0.121400	-3.018507
0.121500	-3.079529
0.121600	-3.123348
0.121700	-3.105496
0.121800	-3.024674
0.121900	-2.882506
0.122000	-2.938984
0.122100	-3.166193
0.122200	-3.335951
0.122300	-3.384638
0.122400	-3.217477
0.122500	-3.008120
0.122600	-2.992216
0.122700	-3.163921
0.122800	-3.402490
0.122900	-3.490128
0.123000	-3.379445
0.123100	-3.257076
0.123200	-3.194432
0.123300	-3.223969
0.123400	-3.263244
0.123500	-3.290833
0.123600	-3.268762
0.123700	-3.234356
0.123800	-3.186642
0.123900	-3.159052
0.124000	-3.070440
0.124100	-2.908798
0.124200	-2.804606
0.124300	-2.777990
0.124400	-2.740014
0.124500	-2.720214
0.124600	-2.605961
0.124700	-2.436528
0.124800	-2.378752
0.124900	-2.112269
0.125000	-2.144403
0.125100	-2.078188
0.125200	-1.996718
0.125300	-1.911677
0.125400	-1.779897
0.125500	-1.654608
0.125600	-1.597481
0.125700	-1.601376
0.125800	-1.619877
0.125900	-1.576383
0.126000	-1.589367
0.126100	-1.569892
0.126200	-1.499133
0.126300	-1.488746
0.126400	-1.411495
0.126500	-1.536135
0.126600	-1.387152
0.126700	-1.575734
0.126800	-1.445252
0.126900	-1.440059
0.127000	-1.205386
0.127100	-0.965195
0.127200	-0.932412
0.127300	-1.229405
0.127400	-1.433567
0.127500	-1.356316
0.127600	-1.159295
0.127700	-0.904823
0.127800	-0.791219
0.127900	-0.994407
0.128000	-1.091782
0.128100	-1.161892
0.128200	-1.029137
0.128300	-0.842178
0.128400	-0.811018
0.128500	-0.792193
0.128600	-0.919753
0.128700	-0.857758
0.128800	-0.893787
0.128900	-0.875610
0.129000	-0.857758
0.129100	-0.847696
0.129200	-0.817510
0.129300	-0.835362
0.129400	-0.839906
0.129500	-0.853863
0.129600	-0.836336
0.129700	-0.895734
0.129800	-0.896059
0.129900	-0.834713
0.130000	-0.836985
0.130100	-0.783753
0.130200	-1.119371
0.130300	-1.212202
0.130400	-1.124889
0.130500	-0.952212
0.130600	-0.782131
0.130700	-0.871391
0.130800	-1.118722
0.130900	-1.275171
0.131000	-1.223887
0.131100	-1.001873
0.131200	-0.848345
0.131300	-0.863276
0.131400	-1.016154
0.131500	-1.115801
0.131600	-1.046340
0.131700	-1.071009
0.131800	-1.020049
0.131900	-1.104441
0.132000	-1.120345
0.132100	-1.171629
0.132200	-1.155075
0.132300	-1.149233
0.132400	-1.162541
0.132500	-1.224211
0.132600	-1.209930
0.132700	-1.188832
0.132800	-1.191104
0.132900	-1.185262
0.133000	-1.327104
0.133100	-1.390073
0.133200	-1.434865
0.133300	-1.332622
0.133400	-1.260889
0.133500	-1.339438
0.133600	-1.308278
0.133700	-1.269004
0.133800	-1.292049
0.133900	-1.274197
0.134000	-1.272899
0.134100	-1.265758
0.134200	-1.242713
0.134300	-1.262188
0.134400	-1.257968
0.134500	-1.236870
0.134600	-1.257643
0.134700	-1.258617
0.134800	-1.297242
0.134900	-1.326779
0.135000	-1.366703
0.135100	-1.442655
0.135200	-1.436488
0.135300	-1.661424
0.135400	-1.892202
0.135500	-2.072021
0.135600	-1.982436
0.135700	-1.774703
0.135800	-1.721147
0.135900	-1.810732
0.136000	-2.199907
0.136100	-2.405368
0.136200	-2.394008
0.136300	-2.266122
0.136400	-2.142131
0.136500	-2.259955
0.136600	-2.392060
0.136700	-2.624137
0.136800	-2.646534
0.136900	-2.610505
0.137000	-2.505989
0.137100	-2.512156
0.137200	-2.522867
0.137300	-2.672825
0.137400	-2.634524
0.137500	-2.651402
0.137600	-2.668930
0.137700	-2.677694
0.137800	-2.709178
0.137900	-2.765981
0.138000	-2.757541
0.138100	-2.760463
0.138200	-2.774095
0.138300	-2.783184
0.138400	-2.723785
0.138500	-2.534877
0.138600	-2.468013
0.138700	-2.524815
0.138800	-2.739040
0.138900	-2.838363
0.139000	-2.842582
0.139100	-2.621541
0.139200	-2.431984
0.139300	-2.478075
0.139400	-2.685808
0.139500	-2.890945
0.139600	-2.927623
0.139700	-2.822134
0.139800	-2.714696
0.139900	-2.651078
0.140000	-2.669579
0.140100	-2.721188
0.140200	-2.736119
0.140300	-2.744233
0.140400	-2.729303
0.140500	-2.697169
0.140600	-2.641016
0.140700	-2.509235
0.140800	-2.408289
0.140900	-2.319029
0.141000	-2.312862
0.141100	-2.284299
0.141200	-2.258981
0.141300	-2.131420
0.141400	-2.002236
0.141500	-1.968155
0.141600	-1.727314
0.141700	-1.731534
0.141800	-1.691935
0.141900	-1.595534
0.142000	-1.501405
0.142100	-1.334245
0.142200	-1.265433
0.142300	-1.229080
0.142400	-1.236221
0.142500	-1.219343
0.142600	-1.202464
0.142700	-1.235247
0.142800	-1.197271
0.142900	-1.244985
0.143000	-1.144364
0.143100	-1.213500
0.143200	-1.112231
0.143300	-1.227457
0.143400	-1.199543
0.143500	-1.188183
0.143600	-1.199868
0.143700	-0.863276
0.143800	-0.721109
0.143900	-0.635095
0.144000	-1.037901
0.144100	-1.115476
0.144200	-1.006417
0.144300	-0.874961
0.144400	-0.638990
0.144500	-0.643534
0.144600	-0.667878
0.144700	-0.810369
0.144800	-0.851916
0.144900	-0.697415
0.145000	-0.542589
0.145100	-0.489682
0.145200	-0.528632
0.145300	-0.595496
0.145400	-0.558818
0.145500	-0.593548
0.145600	-0.515000
0.145700	-0.497148
0.145800	-0.467935
0.145900	-0.460470
0.146000	-0.446837
0.146100	-0.523439
0.146200	-0.552327
0.146300	-0.521491
0.146400	-0.554599
0.146500	-0.501043
0.146600	-0.500718
0.146700	-0.444890
0.146800	-0.620813
0.146900	-0.896383
0.147000	-0.927543
0.147100	-0.788947
0.147200	-0.641911
0.147300	-0.570828
0.147400	-0.725653
0.147500	-0.998302
0.147600	-1.113853
0.147700	-1.024593
0.147800	-0.842178
0.147900	-0.759410
0.148000	-0.885348
0.148100	-1.023944
0.148200	-1.059324
0.148300	-1.040173
0.148400	-1.052832
0.148500	-1.056727
0.148600	-1.125538
0.148700	-1.109958
0.148800	-1.136899
0.148900	-1.105090
0.149000	-1.150531
0.149100	-1.168708
0.149200	-1.191753
0.149300	-1.188183
0.149400	-1.148259
0.149500	-1.105414
0.149600	-1.144689
0.149700	-1.284259
0.149800	-1.336517
0.149900	-1.311849
0.150000	-1.179744
0.150100	-1.210904
0.150200	-1.200841
0.150300	-1.186560
0.150400	-1.170980
0.150500	-1.141118
0.150600	-1.130732
0.150700	-1.125214
0.150800	-1.129433
0.150900	-1.091133
0.151000	-1.114178
0.151100	-1.091457
0.151200	-1.067763
0.151300	-1.075877
0.151400	-1.055753
0.151500	-1.119371
0.151600	-1.056078
0.151700	-1.115801
0.151800	-1.111581
0.151900	-1.222264
0.152000	-1.363457
0.152100	-1.653309
0.152200	-1.727963
0.152300	-1.568269
0.152400	-1.370273
0.152500	-1.366703
0.152600	-1.603648
0.152700	-1.891878
0.152800	-2.072670
0.152900	-2.003859
0.153000	-1.826637
0.153100	-1.748412
0.153200	-1.870780
0.153300	-2.122656
0.153400	-2.231067
0.153500	-2.287544
0.153600	-2.231067
0.153700	-2.207697
0.153800	-2.233339
0.153900	-2.254437
0.154000	-2.335583
0.154100	-2.350838
0.154200	-2.357330
0.154300	-2.407640
0.154400	-2.470934
0.154500	-2.491707
0.154600	-2.535851
0.154700	-2.543641
0.154800	-2.603689
0.154900	-2.653025
0.155000	-2.733847
0.155100	-2.617646
0.155200	-2.447889
0.155300	-2.447889
0.155400	-2.612128
0.155500	-2.865952
0.155600	-2.990593
0.155700	-2.901981
0.155800	-2.692300
0.155900	-2.587459
0.156000	-2.740663
0.156100	-2.987671
0.156200	-3.137629
0.156300	-3.099653
0.156400	-2.964951
0.156500	-2.907824
0.156600	-2.910420
0.156700	-2.940931
0.156800	-2.971118
0.156900	-2.957485
0.157000	-2.936387
0.157100	-2.910745
0.157200	-2.893217
0.157300	-2.848100
0.157400	-2.719890
0.157500	-2.599145
0.157600	-2.532929
0.157700	-2.528710
0.157800	-2.553378
0.157900	-2.522543
0.158000	-2.346294
0.158100	-2.240155
0.158200	-2.068451
0.158300	-2.017167
0.158400	-1.976594
0.158500	-1.929854
0.158600	-1.841567
0.158700	-1.738999
0.158800	-1.606569
0.158900	-1.507572
0.159000	-1.489071
0.159100	-1.450770
0.159200	-1.442331
0.159300	-1.416689
0.159400	-1.435514
0.159500	-1.397538
0.159600	-1.351772
0.159700	-1.328727
0.159800	-1.296593
0.159900	-1.344631
0.160000	-1.308278
0.160100	-1.382932
0.160200	-1.249204
0.160300	-1.163190
0.160400	-0.869768
0.160500	-0.812641
0.160600	-0.952861
0.160700	-1.239142
0.160800	-1.244011
0.160900	-1.071982
0.161000	-0.850617
0.161100	-0.660088
0.161200	-0.732470
0.161300	-0.946044
0.161400	-1.091133
0.161500	-1.006092
0.161600	-0.873987
0.161700	-0.662360
0.161800	-0.713644
0.161900	-0.711047
0.162000	-0.836011
0.162100	-0.787648
0.162200	-0.742856
0.162300	-0.744479
0.162400	-0.715916
0.162500	-0.722407
0.162600	-0.690923
0.162700	-0.718188
0.162800	-0.722407
0.162900	-0.738961
0.163000	-0.753243
0.163100	-0.793491
0.163200	-0.767200
0.163300	-0.708126
0.163400	-0.663009
0.163500	-0.857758
0.163600	-1.090159
0.163700	-1.070684
0.163800	-0.869119
0.163900	-0.641262
0.164000	-0.643859
0.164100	-0.820107
0.164200	-1.036927
0.164300	-1.049911
0.164400	-0.879181
0.164500	-0.687677
0.164600	-0.620813
0.164700	-0.766875
0.164800	-0.886971
0.164900	-0.842178
0.165000	-0.855811
0.165100	-0.821730
0.165200	-0.883725
0.165300	-0.929491
0.165400	-0.973309
0.165500	-0.987916
0.165600	-0.920402
0.165700	-0.946694
0.165800	-0.966493
0.165900	-0.973959
0.166000	-0.946369
0.166100	-0.908068
0.166200	-0.850617
0.166300	-0.944422
0.166400	-1.028813
0.166500	-1.075228
0.166600	-1.029787
0.166700	-0.888269
0.166800	-0.980775
0.166900	-0.986617
0.167000	-0.975257
0.167100	-0.972011
0.167200	-0.951887
0.167300	-0.982722
0.167400	-0.970388
0.167500	-0.964546
0.167600	-0.978503
0.167700	-0.975906
0.167800	-1.002846
0.167900	-0.976231
0.168000	-1.006092
0.168100	-0.996679
0.168200	-1.009013
0.168300	-1.033682
0.168400	-1.041147
0.168500	-1.134627
0.168600	-1.147610
0.168700	-1.403056
0.168800	-1.608842
0.168900	-1.645844
0.169000	-1.458884
0.169100	-1.286531
0.169200	-1.395266
0.169300	-1.635782
0.169400	-1.945109
0.169500	-2.021711
0.169600	-1.906808
0.169700	-1.721472
0.169800	-1.731534
0.169900	-1.911028
0.170000	-2.093119
0.170100	-2.220356
0.170200	-2.197635
0.170300	-2.159983
0.170400	-2.129148
0.170500	-2.131095
0.170600	-2.234313
0.170700	-2.286571
0.170800	-2.328766
0.170900	-2.341750
0.171000	-2.393683
0.171100	-2.477750
0.171200	-2.539746
0.171300	-2.600767
0.171400	-2.604013
0.171500	-2.645235
0.171600	-2.687431
0.171700	-2.686782
0.171800	-2.611479
0.171900	-2.502743
0.172000	-2.536175
0.172100	-2.732224
0.172200	-2.924053
0.172300	-2.996760
0.172400	-2.830573
0.172500	-2.636147
0.172600	-2.617970
0.172700	-2.731899
0.172800	-2.994812
0.172900	-3.101601
0.173000	-3.035710
0.173100	-2.906850
0.173200	-2.838363
0.173300	-2.871146
0.173400	-2.921781
0.173500	-2.966573
0.173600	-2.954564
0.173700	-2.950993
0.173800	-2.941256
0.173900	-2.933141
0.174000	-2.868874
0.174100	-2.745207
0.174200	-2.628682
0.174300	-2.619269
0.174400	-2.623813
0.174500	-2.614725
0.174600	-2.533903
0.174700	-2.375182
0.174800	-2.332986
0.174900	-2.077539
0.175000	-2.119735
0.175100	-2.083706
0.175200	-2.022685
0.175300	-1.942513
0.175400	-1.825663
0.175500	-1.710436
0.175600	-1.698751
0.175700	-1.649739
0.175800	-1.646169
0.175900	-1.652985
0.176000	-1.631887
0.176100	-1.668565
0.176200	-1.571839
0.176300	-1.655906
0.176400	-1.523152
0.176500	-1.627343
0.176600	-1.563075
0.176700	-1.580278
0.176800	-1.594235
0.176900	-1.528020
0.177000	-1.463429
0.177100	-1.174875
0.177200	-1.185262
0.177300	-1.490044
0.177400	-1.572813
0.177500	-1.634808
0.177600	-1.307954
0.177700	-1.265758
0.177800	-1.073930
0.177900	-1.261863
0.178000	-1.396240
0.178100	-1.386178
0.178200	-1.317042
0.178300	-1.068737
0.178400	-1.108011
0.178500	-1.087562
0.178600	-1.164488
0.178700	-1.162865
0.178800	-1.108011
0.178900	-1.119696
0.179000	-1.091457
0.179100	-1.101844
0.179200	-1.043095
0.179300	-1.125214
0.179400	-1.075553
0.179500	-1.186560
0.179600	-1.138522
0.179700	-1.228756
0.179800	-1.197920
0.179900	-1.161242
0.180000	-1.065166
0.180100	-1.083343
0.180200	-1.302436
0.180300	-1.431295
0.180400	-1.385853
0.180500	-1.223562
0.180600	-1.037901
0.180700	-1.147285
0.180800	-1.349825
0.180900	-1.518283
0.181000	-1.468946
0.181100	-1.251152
0.181200	-1.122293
0.181300	-1.163515
0.181400	-1.305682
0.181500	-1.384880
0.181600	-1.318665
0.181700	-1.333596
0.181800	-1.296593
0.181900	-1.393968
0.182000	-1.416364
0.182100	-1.444603
0.182200	-1.441682
0.182300	-1.432593
0.182400	-1.428374
0.182500	-1.453367
0.182600	-1.444278
0.182700	-1.399161
0.182800	-1.371572
0.182900	-1.357939
0.183000	-1.505624
0.183100	-1.495887
0.183200	-1.472192
0.183300	-1.467648
0.183400	-1.439085
0.183500	-1.451094
0.183600	-1.433892
0.183700	-1.402732
0.183800	-1.393968
0.183900	-1.394617
0.184000	-1.387152
0.184100	-1.413118
0.184200	-1.390073
0.184300	-1.416364
0.184400	-1.432269
0.184500	-1.450770
0.184600	-1.455639
0.184700	-1.467973
0.184800	-1.496536
0.184900	-1.527047
0.185000	-1.589367
0.185100	-1.627667
0.185200	-1.697128
0.185300	-1.822092
0.185400	-2.055467
0.185500	-2.208671
0.185600	-2.101883
0.185700	-1.904861
0.185800	-1.813978
0.185900	-1.988928
0.186000	-2.333635
0.186100	-2.539097
0.186200	-2.531631
0.186300	-2.365444
0.186400	-2.312213
0.186500	-2.345969
0.186600	-2.535202
0.186700	-2.649780
0.186800	-2.694897
0.186900	-2.690353
0.187000	-2.637121
0.187100	-2.656596
0.187200	-2.687107
0.187300	-2.724434
0.187400	-2.724109
0.187500	-2.753971
0.187600	-2.787079
0.187700	-2.837389
0.187800	-2.867900
0.187900	-2.919184
0.188000	-2.921456
0.188100	-2.890945
0.188200	-2.957161
0.188300	-3.000655
0.188400	-3.025323
0.188500	-2.849723
0.188600	-2.785780
0.188700	-2.872444
0.188800	-3.139252
0.188900	-3.305764
0.189000	-3.326213
0.189100	-3.108092
0.189200	-2.923404
0.189300	-2.987022
0.189400	-3.242795
0.189500	-3.462539
0.189600	-3.501489
0.189700	-3.343416
0.189800	-3.235329
0.189900	-3.205468
0.190000	-3.238575
0.190100	-3.315177
0.190200	-3.291807
0.190300	-3.265516
0.190400	-3.246690
0.190500	-3.199300
0.190600	-3.147367
0.190700	-3.041877
0.190800	-2.889322
0.190900	-2.794869
0.191000	-2.748453
0.191100	-2.717618
0.191200	-2.702038
0.191300	-2.539746
0.191400	-2.387516
0.191500	-2.271964
0.191600	-2.132069
0.191700	-2.112594
0.191800	-2.058389
0.191900	-1.992498
0.192000	-1.906808
0.192100	-1.751009
0.192200	-1.673109
0.192300	-1.644870
0.192400	-1.652336
0.192500	-1.647142
0.192600	-1.646493
0.192700	-1.670837
0.192800	-1.654608
0.192900	-1.645195
0.193000	-1.622799
0.193100	-1.620851
0.193200	-1.621500
0.193300	-1.651037
0.193400	-1.646818
0.193500	-1.669863
0.193600	-1.538407
0.193700	-1.415715
0.193800	-1.076851
0.193900	-1.286856
0.194000	-1.397214
0.194100	-1.660775
0.194200	-1.466674
0.194300	-1.248230
0.194400	-1.037252
0.194500	-0.985643
0.194600	-1.126512
0.194700	-1.264784
0.194800	-1.271276
0.194900	-1.142417
0.195000	-0.996355
0.195100	-0.924297
0.195200	-0.964221
0.195300	-1.058350
0.195400	-1.025567
0.195500	-1.018426
0.195600	-1.026541
0.195700	-0.979152
0.195800	-0.980126
0.195900	-0.988565
0.196000	-0.965195
0.196100	-1.105739
0.196200	-1.104441
0.196300	-1.180393
0.196400	-1.149233
0.196500	-1.234273
0.196600	-1.087887
0.196700	-1.107686
0.196800	-1.179419
0.196900	-1.450445
0.197000	-1.551066
0.197100	-1.422531
0.197200	-1.219992
0.197300	-1.181691
0.197400	-1.316393
0.197500	-1.591963
0.197600	-1.694531
0.197700	-1.605271
0.197800	-1.370273
0.197900	-1.297242
0.198000	-1.391371
0.198100	-1.538407
0.198200	-1.583849
0.198300	-1.565672
0.198400	-1.557557
0.198500	-1.536784
0.198600	-1.620527
0.198700	-1.678302
0.198800	-1.706216
0.198900	-1.659152
0.199000	-1.702646
0.199100	-1.755228
0.199200	-1.792555
0.199300	-1.763667
0.199400	-1.730560
0.199500	-1.714655
0.199600	-1.751333
0.199700	-1.900641
0.199800	-1.941539
0.199900	-1.939591
0.200000	-1.899018
0.200100	-1.843839
0.200200	-1.855200
0.200300	-1.821768
0.200400	-1.814627
0.200500	-1.835725
0.200600	-1.826961
0.200700	-1.838321
0.200800	-1.827286
0.200900	-1.843190
0.201000	-1.874350
0.201100	-1.915572
0.201200	-1.890579
0.201300	-1.907782
0.201400	-1.904536
0.201500	-1.947706
0.201600	-1.961988
0.201700	-2.037940
0.201800	-2.049300
0.201900	-2.104804
0.202000	-2.263525
0.202100	-2.559870
0.202200	-2.537149
0.202300	-2.469960
0.202400	-2.263525
0.202500	-2.272938
0.202600	-2.526113
0.202700	-2.820835
0.202800	-2.932817
0.202900	-2.874716
0.203000	-2.711775
0.203100	-2.649130
0.203200	-2.765007
0.203300	-2.940282
0.203400	-3.062001
0.203500	-3.083748
0.203600	-3.086020
0.203700	-3.039605
0.203800	-3.061677
0.203900	-3.097381
0.204000	-3.179176
0.204100	-3.186642
0.204200	-3.223644
0.204300	-3.235005
0.204400	-3.278824
0.204500	-3.373602
0.204600	-3.387235
0.204700	-3.423264
0.204800	-3.433651
0.204900	-3.494673
0.205000	-3.506682
0.205100	-3.482338
0.205200	-3.319072
0.205300	-3.281096
0.205400	-3.416772
0.205500	-3.669948
0.205600	-3.792966
0.205700	-3.687151
0.205800	-3.445660
0.205900	-3.341793
0.206000	-3.467732
0.206100	-3.731620
0.206200	-3.872490
0.206300	-3.852365
0.206400	-3.701758
0.206500	-3.619313
0.206600	-3.620612
0.206700	-3.665404
0.206800	-3.706951
0.206900	-3.709872
0.207000	-3.695915
0.207100	-3.668975
0.207200	-3.647228
0.207300	-3.582960
0.207400	-3.486882
0.207500	-3.366786
0.207600	-3.300571
0.207700	-3.289210
0.207800	-3.248313
0.207900	-3.190212
0.208000	-3.036684
0.208100	-2.926650
0.208200	-2.660815
0.208300	-2.658868
0.208400	-2.634524
0.208500	-2.605961
0.208600	-2.534228
0.208700	-2.448862
0.208800	-2.327468
0.208900	-2.238857
0.209000	-2.212241
0.209100	-2.225549
0.209200	-2.211592
0.209300	-2.163554
0.209400	-2.221654
0.209500	-2.157062
0.209600	-2.154141
0.209700	-2.090847
0.209800	-2.143105
0.209900	-2.068126
0.210000	-2.128174
0.210100	-2.102532
0.210200	-2.076890
0.210300	-1.954847
0.210400	-1.698426
0.210500	-1.570541
0.210600	-1.754904
0.210700	-2.055467
0.210800	-2.003210
0.210900	-1.891553
0.211000	-1.617281
0.211100	-1.447199
0.211200	-1.549768
0.211300	-1.760097
0.211400	-1.921415
0.211500	-1.855849
0.211600	-1.703295
0.211700	-1.548145
0.211800	-1.444603
0.211900	-1.558207
0.212000	-1.529643
0.212100	-1.586770
0.212200	-1.625395
0.212300	-1.571839
0.212400	-1.554636
0.212500	-1.606245
0.212600	-1.549768
0.212700	-1.593911
0.212800	-1.616956
0.212900	-1.718875
0.213000	-1.671486
0.213100	-1.782818
0.213200	-1.641300
0.213300	-1.664994
0.213400	-1.561452
0.213500	-1.806837
0.213600	-2.018140
0.213700	-1.993148
0.213800	-1.802942
0.213900	-1.618579
0.214000	-1.629939
0.214100	-1.851305
0.214200	-2.030799
0.214300	-2.049950
0.214400	-1.860393
0.214500	-1.688364
0.214600	-1.643572
0.214700	-1.751658
0.214800	-1.879544
0.214900	-1.824364
0.215000	-1.805539
0.215100	-1.789634
0.215200	-1.831181
0.215300	-1.909730
0.215400	-1.873376
0.215500	-1.846436
0.215600	-1.803591
0.215700	-1.834426
0.215800	-1.875324
0.215900	-1.870131
0.216000	-1.850006
0.216100	-1.787362
0.216200	-1.774703
0.216300	-1.863314
0.216400	-1.988928
0.216500	-2.025930
0.216600	-2.002560
0.216700	-1.953548
0.216800	-1.939916
0.216900	-1.926608
0.217000	-1.916221
0.217100	-1.878570
0.217200	-1.892851
0.217300	-1.881491
0.217400	-1.877921
0.217500	-1.863639
0.217600	-1.858446
0.217700	-1.860393
0.217800	-1.856498
0.217900	-1.862665
0.218000	-1.887333
0.218100	-1.898369
0.218200	-1.908107
0.218300	-1.942837
0.218400	-1.961988
0.218500	-2.031124
0.218600	-2.078188
0.218700	-2.346294
0.218800	-2.571879
0.218900	-2.560194
0.219000	-2.428089
0.219100	-2.249244
0.219200	-2.320327
0.219300	-2.578047
0.219400	-2.923404
0.219500	-2.976960
0.219600	-2.861408
0.219700	-2.716968
0.219800	-2.715021
0.219900	-2.888673
0.220000	-3.089591
0.220100	-3.162298
0.220200	-3.184370
0.220300	-3.108417
0.220400	-3.089591
0.220500	-3.162622
0.220600	-3.222671
0.220700	-3.266814
0.220800	-3.272332
0.220900	-3.303817
0.221000	-3.362891
0.221100	-3.386586
0.221200	-3.442414
0.221300	-3.440467
0.221400	-3.476820
0.221500	-3.497269
0.221600	-3.547255
0.221700	-3.560563
0.221800	-3.416772
0.221900	-3.279473
0.222000	-3.382691
0.222100	-3.596268
0.222200	-3.812441
0.222300	-3.875736
0.222400	-3.713118
0.222500	-3.487532
0.222600	-3.477470
0.222700	-3.667027
0.222800	-3.927020
0.222900	-4.049389
0.223000	-4.002324
0.223100	-3.877034
0.223200	-3.813415
0.223300	-3.823802
0.223400	-3.889368
0.223500	-3.932863
0.223600	-3.898132
0.223700	-3.885473
0.223800	-3.838084
0.223900	-3.806924
0.224000	-3.777062
0.224100	-3.653719
0.224200	-3.536219
0.224300	-3.472276
0.224400	-3.413851
0.224500	-3.434949
0.224600	-3.316475
0.224700	-3.125944
0.224800	-3.012015
0.224900	-2.707555
0.225000	-2.737093
0.225100	-2.693598
0.225200	-2.641340
0.225300	-2.515727
0.225400	-2.343373
0.225500	-2.254761
0.225600	-2.198933
0.225700	-2.159334
0.225800	-2.156413
0.225900	-2.109673
0.226000	-2.148298
0.226100	-2.173940
0.226200	-2.126227
0.226300	-2.123305
0.226400	-2.058389
0.226500	-2.084355
0.226600	-2.066179
0.226700	-2.119410
0.226800	-2.130446
0.226900	-2.056441
0.227000	-1.917520
0.227100	-1.622149
0.227200	-1.580927
0.227300	-1.848384
0.227400	-2.019763
0.227500	-2.100260
0.227600	-1.822092
0.227700	-1.614684
0.227800	-1.471543
0.227900	-1.633834
0.228000	-1.797099
0.228100	-1.957443
0.228200	-1.794178
0.228300	-1.656231
0.228400	-1.507247
0.228500	-1.490369
0.228600	-1.573787
0.228700	-1.632536
0.228800	-1.665643
0.228900	-1.688689
0.229000	-1.638703
0.229100	-1.633185
0.229200	-1.649739
0.229300	-1.650388
0.229400	-1.651037
0.229500	-1.730235
0.229600	-1.680574
0.229700	-1.741596
0.229800	-1.756851
0.229900	-1.705243
0.230000	-1.637405
0.230100	-1.730560
0.230200	-1.935372
0.230300	-2.108699
0.230400	-1.999964
0.230500	-1.855200
0.230600	-1.658178
0.230700	-1.767562
0.230800	-1.973023
0.230900	-2.170045
0.231000	-2.151544
0.231100	-1.935047
0.231200	-1.793529
0.231300	-1.808460
0.231400	-1.942513
0.231500	-2.054818
0.231600	-2.009377
0.231700	-2.049625
0.231800	-1.966207
0.231900	-2.047353
0.232000	-2.076241
0.232100	-2.109673
0.232200	-2.136613
0.232300	-2.123305
0.232400	-2.123630
0.232500	-2.163878
0.232600	-2.167124
0.232700	-2.154465
0.232800	-2.141807
0.232900	-2.130446
0.233000	-2.302151
0.233100	-2.360576
0.233200	-2.395955
0.233300	-2.238857
0.233400	-2.245349
0.233500	-2.328117
0.233600	-2.305396
0.233700	-2.326170
0.233800	-2.347917
0.233900	-2.331688
0.234000	-2.350189
0.234100	-2.379077
0.234200	-2.383296
0.234300	-2.386218
0.234400	-2.372261
0.234500	-2.386867
0.234600	-2.363497
0.234700	-2.387191
0.234800	-2.355382
0.234900	-2.361549
0.235000	-2.381349
0.235100	-2.409263
0.235200	-2.465741
0.235300	-2.507612
0.235400	-2.809799
0.235500	-2.953590
0.235600	-2.902306
0.235700	-2.666982
0.235800	-2.572204
0.235900	-2.654973
0.236000	-2.979232
0.236100	-3.142498
0.236200	-3.161973
0.236300	-3.027595
0.236400	-2.944826
0.236500	-2.971118
0.236600	-3.167491
0.236700	-3.304790
0.236800	-3.342767
0.236900	-3.266814
0.237000	-3.261945
0.237100	-3.240847
0.237200	-3.294728
0.237300	-3.323616
0.237400	-3.358022
0.237500	-3.383015
0.237600	-3.433651
0.237700	-3.452801
0.237800	-3.453126
0.237900	-3.500190
0.238000	-3.520964
0.238100	-3.544983
0.238200	-3.590750
0.238300	-3.615743
0.238400	-3.605356
0.238500	-3.455722
0.238600	-3.388858
0.238700	-3.446959
0.238800	-3.650149
0.238900	-3.761482
0.239000	-3.758560
0.239100	-3.552124
0.239200	-3.412877
0.239300	-3.463512
0.239400	-3.655018
0.239500	-3.849444
0.239600	-3.880280
0.239700	-3.780307
0.239800	-3.697538
0.239900	-3.670273
0.240000	-3.670598
0.240100	-3.710846
0.240200	-3.708899
0.240300	-3.670922
0.240400	-3.654044
0.240500	-3.671896
0.240600	-3.645929
0.240700	-3.558940
0.240800	-3.429431
0.240900	-3.343091
0.241000	-3.330757
0.241100	-3.298948
0.241200	-3.309659
0.241300	-3.167816
0.241400	-3.030517
0.241500	-2.947098
0.241600	-2.751374
0.241700	-2.752023
0.241800	-2.682238
0.241900	-2.592328
0.242000	-2.511182
0.242100	-2.373884
0.242200	-2.296633
0.242300	-2.247945
0.242400	-2.232690
0.242500	-2.178160
0.242600	-2.181730
0.242700	-2.240804
0.242800	-2.172317
0.242900	-2.184652
0.243000	-2.114866
0.243100	-2.157711
0.243200	-2.087277
0.243300	-2.132394
0.243400	-2.137262
0.243500	-2.077215
0.243600	-2.047677
0.243700	-1.757825
0.243800	-1.626369
0.243900	-1.595858
0.244000	-2.026580
0.244100	-2.011973
0.244200	-2.060012
0.244300	-1.764641
0.244400	-1.647142
0.244500	-1.508221
0.244600	-1.706216
0.244700	-1.850006
0.244800	-1.862990
0.244900	-1.737701
0.245000	-1.529968
0.245100	-1.503677
0.245200	-1.538732
0.245300	-1.555610
0.245400	-1.560479
0.245500	-1.582226
0.245600	-1.545223
0.245700	-1.520880
0.245800	-1.491343
0.245900	-1.444927
0.246000	-1.484202
0.246100	-1.476087
0.246200	-1.559830
0.246300	-1.552364
0.246400	-1.593586
0.246500	-1.537109
0.246600	-1.482579
0.246700	-1.456612
0.246800	-1.578006
0.246900	-1.851954
0.247000	-1.920441
0.247100	-1.791906
0.247200	-1.627018
0.247300	-1.601701
0.247400	-1.690961
0.247500	-1.997043
0.247600	-2.009701
0.247700	-1.941539
0.247800	-1.702321
0.247900	-1.630589
0.248000	-1.712059
0.248100	-1.825338
0.248200	-1.835725
0.248300	-1.754579
0.248400	-1.747438
0.248500	-1.743543
0.248600	-1.821119
0.248700	-1.826312
0.248800	-1.778598
0.248900	-1.702646
0.249000	-1.689987
0.249100	-1.725691
0.249200	-1.768536
0.249300	-1.732508
0.249400	-1.676030
0.249500	-1.634159
0.249600	-1.683171
0.249700	-1.800021
0.249800	-1.836374
0.249900	-1.830207
0.250000	-1.811381
0.250100	-1.743219
0.250200	-1.780870
0.250300	-1.763992
0.250400	-1.734780
0.250500	-1.729586
0.250600	-1.755553
0.250700	-1.718226
0.250800	-1.740298
0.250900	-1.737052
0.251000	-1.743543
0.251100	-1.731534
0.251200	-1.744192
0.251300	-1.739648
0.251400	-1.762369
0.251500	-1.747114
0.251600	-1.820794
0.251700	-1.844813
0.251800	-1.912326
0.251900	-1.915897
0.252000	-2.144079
0.252100	-2.398227
0.252200	-2.503392
0.252300	-2.331688
0.252400	-2.078513
0.252500	-2.080785
0.252600	-2.324871
0.252700	-2.660815
0.252800	-2.807852
0.252900	-2.721188
0.253000	-2.522218
0.253100	-2.497874
0.253200	-2.599469
0.253300	-2.766630
0.253400	-2.920807
0.253500	-2.918860
0.253600	-2.872444
0.253700	-2.876339
0.253800	-2.932492
0.253900	-2.951318
0.254000	-2.989619
0.254100	-2.997734
0.254200	-3.033438
0.254300	-3.124971
0.254400	-3.111338
0.254500	-3.225592
0.254600	-3.282394
0.254700	-3.261621
0.254800	-3.278824
0.254900	-3.319721
0.255000	-3.359645
0.255100	-3.290184
0.255200	-3.167491
0.255300	-3.101925
0.255400	-3.216503
0.255500	-3.464486
0.255600	-3.574196
0.255700	-3.481365
0.255800	-3.250260
0.255900	-3.153209
0.256000	-3.292456
0.256100	-3.551150
0.256200	-3.695915
0.256300	-3.660536
0.256400	-3.495646
0.256500	-3.409307
0.256600	-3.428782
0.256700	-3.507656
0.256800	-3.527456
0.256900	-3.499541
0.257000	-3.484286
0.257100	-3.438519
0.257200	-3.429756
0.257300	-3.394700
0.257400	-3.304141
0.257500	-3.180799
0.257600	-3.111987
0.257700	-3.097381
0.257800	-3.066221
0.257900	-3.005199
0.258000	-2.844205
0.258100	-2.756243
0.258200	-2.467364
0.258300	-2.500147
0.258400	-2.483268
0.258500	-2.420624
0.258600	-2.329091
0.258700	-2.249568
0.258800	-2.101883
0.258900	-2.054169
0.259000	-2.038265
0.259100	-2.032422
0.259200	-2.027229
0.259300	-1.995744
0.259400	-2.004508
0.259500	-1.955496
0.259600	-1.971076
0.259700	-1.923038
0.259800	-1.992498
0.259900	-1.946083
0.260000	-1.961014
0.260100	-2.030799
0.260200	-2.006780
0.260300	-1.885061
0.260400	-1.636106
0.260500	-1.457911
0.260600	-1.708813
0.260700	-1.847085
0.260800	-2.061310
0.260900	-1.825987
0.261000	-1.720823
0.261100	-1.477710
0.261200	-1.573137
0.261300	-1.726340
0.261400	-1.773730
0.261500	-1.722445
0.261600	-1.487448
0.261700	-1.454989
0.261800	-1.366703
0.261900	-1.423505
0.262000	-1.399810
0.262100	-1.435190
0.262200	-1.434541
0.262300	-1.377414
0.262400	-1.371247
0.262500	-1.367677
0.262600	-1.343982
0.262700	-1.334245
0.262800	-1.372546
0.262900	-1.423180
0.263000	-1.455639
0.263100	-1.500431
0.263200	-1.470569
0.263300	-1.425777
0.263400	-1.346903
0.263500	-1.586121
0.263600	-1.732508
0.263700	-1.749386
0.263800	-1.563725
0.263900	-1.384880
0.264000	-1.362483
0.264100	-1.538732
0.264200	-1.766589
0.264300	-1.767562
0.264400	-1.563075
0.264500	-1.384880
0.264600	-1.321586
0.264700	-1.463753
0.264800	-1.567944
0.264900	-1.545223
0.265000	-1.496211
0.265100	-1.456612
0.265200	-1.480631
0.265300	-1.530617
0.265400	-1.553338
0.265500	-1.533214
0.265600	-1.478359
0.265700	-1.507896
0.265800	-1.520880
0.265900	-1.532889
0.266000	-1.491667
0.266100	-1.466350
0.266200	-1.444603
0.266300	-1.553013
0.266400	-1.634484
0.266500	-1.642598
0.266600	-1.618904
0.266700	-1.584498
0.266800	-1.581252
0.266900	-1.553987
0.267000	-1.518608
0.267100	-1.518608
0.267200	-1.509195
0.267300	-1.507572
0.267400	-1.499782
0.267500	-1.500106
0.267600	-1.499457
0.267700	-1.496211
0.267800	-1.482904
0.267900	-1.470894
0.268000	-1.479658
0.268100	-1.506273
0.268200	-1.467648
0.268300	-1.524775
0.268400	-1.550417
0.268500	-1.604622
0.268600	-1.653959
0.268700	-1.831830
0.268800	-2.093444
0.268900	-2.049950
0.269000	-1.859419
0.269100	-1.680250
0.269200	-1.765940
0.269300	-2.048327
0.269400	-2.312862
0.269500	-2.368041
0.269600	-2.241778
0.269700	-2.117138
0.269800	-2.142780
0.269900	-2.284948
0.270000	-2.508910
0.270100	-2.610180
0.270200	-2.601741
0.270300	-2.535526
0.270400	-2.547536
0.270500	-2.558247
0.270600	-2.613751
0.270700	-2.675097
0.270800	-2.674773
0.270900	-2.708854
0.271000	-2.718591
0.271100	-2.774420
0.271200	-2.821809
0.271300	-2.863031
0.271400	-2.886077
0.271500	-2.884454
0.271600	-2.934440
0.271700	-2.897437
0.271800	-2.780262
0.271900	-2.626085
0.272000	-2.627059
0.272100	-2.845179
0.272200	-3.014937
0.272300	-3.064273
0.272400	-2.882182
0.272500	-2.670878
0.272600	-2.668281
0.272700	-2.861733
0.272800	-3.099653
0.272900	-3.198976
0.273000	-3.091538
0.273100	-2.982478
0.273200	-2.950020
0.273300	-2.976960
0.273400	-3.037333
0.273500	-3.063624
0.273600	-3.030517
0.273700	-3.021104
0.273800	-2.997409
0.273900	-2.952941
0.274000	-2.888998
0.274100	-2.776367
0.274200	-2.696844
0.274300	-2.646858
0.274400	-2.613426
0.274500	-2.605312
0.274600	-2.510209
0.274700	-2.339802
0.274800	-2.234313
0.274900	-1.972374
0.275000	-1.971400
0.275100	-1.936021
0.275200	-1.850331
0.275300	-1.747114
0.275400	-1.612737
0.275500	-1.503028
0.275600	-1.450445
0.275700	-1.430321
0.275800	-1.385204
0.275900	-1.349176
0.276000	-1.346903
0.276100	-1.327753
0.276200	-1.310226
0.276300	-1.273548
0.276400	-1.254722
0.276500	-1.223562
0.276600	-1.211553
0.276700	-1.369300
0.276800	-1.226159
0.276900	-1.330674
0.277000	-1.000899
0.277100	-0.906121
0.277200	-0.713644
0.277300	-1.120670
0.277400	-1.259915
0.277500	-1.214149
0.277600	-1.061920
0.277700	-0.769796
0.277800	-0.783429
0.277900	-0.844775
0.278000	-0.952536
0.278100	-1.002522
0.278200	-0.793166
0.278300	-0.681186
0.278400	-0.448785
0.278500	-0.587706
0.278600	-0.558169
0.278700	-0.622761
0.278800	-0.553949
0.278900	-0.516947
0.279000	-0.480594
0.279100	-0.468909
0.279200	-0.440670
0.279300	-0.443916
0.279400	-0.519544
0.279500	-0.485138
0.279600	-0.559467
0.279700	-0.613023
0.279800	-0.624708
0.279900	-0.570503
0.280000	-0.516947
0.280100	-0.560766
0.280200	-0.829844
0.280300	-0.971362
0.280400	-0.887620
0.280500	-0.729873
0.280600	-0.547782
0.280700	-0.657491
0.280800	-0.874961
0.280900	-1.044068
0.281000	-0.996355
0.281100	-0.768823
0.281200	-0.628603
0.281300	-0.686703
0.281400	-0.840231
0.281500	-0.915858
0.281600	-0.860355
0.281700	-0.883400
0.281800	-0.821080
0.281900	-0.891515
0.282000	-0.927219
0.282100	-0.955133
0.282200	-0.908393
0.282300	-0.868145
0.282400	-0.901252
0.282500	-0.923973
0.282600	-0.897682
0.282700	-0.859056
0.282800	-0.827247
0.282900	-0.807123
0.283000	-0.911314
0.283100	-0.981749
0.283200	-0.996030
0.283300	-0.947667
0.283400	-0.831142
0.283500	-0.880803
0.283600	-0.871066
0.283700	-0.856784
0.283800	-0.868145
0.283900	-0.899629
0.284000	-0.900278
0.284100	-0.909367
0.284200	-0.926570
0.284300	-0.953834
0.284400	-0.942149
0.284500	-0.971037
0.284600	-0.985643
0.284700	-1.014531
0.284800	-1.014856
0.284900	-1.075553
0.285000	-1.089510
0.285100	-1.154426
0.285200	-1.161567
0.285300	-1.291725
0.285400	-1.549768
0.285500	-1.694856
0.285600	-1.583200
0.285700	-1.466674
0.285800	-1.296593
0.285900	-1.499782
0.286000	-1.795477
0.286100	-2.039238
0.286200	-1.990551
0.286300	-1.835725
0.286400	-1.683171
0.286500	-1.748737
0.286600	-1.871754
0.286700	-2.038265
0.286800	-2.073969
0.286900	-1.993797
0.287000	-1.941214
0.287100	-1.931477
0.287200	-1.971400
0.287300	-2.041510
0.287400	-2.070723
0.287500	-2.075592
0.287600	-2.102857
0.287700	-2.121358
0.287800	-2.134990
0.287900	-2.253139
0.288000	-2.246647
0.288100	-2.250542
0.288200	-2.277482
0.288300	-2.257683
0.288400	-2.234637
0.288500	-2.041510
0.288600	-1.959715
0.288700	-2.023658
0.288800	-2.256060
0.288900	-2.409912
0.289000	-2.389464
0.289100	-2.164527
0.289200	-1.998341
0.289300	-2.034045
0.289400	-2.229444
0.289500	-2.435554
0.289600	-2.485865
0.289700	-2.353759
0.289800	-2.262227
0.289900	-2.230742
0.290000	-2.244050
0.290100	-2.296308
0.290200	-2.312862
0.290300	-2.285272
0.290400	-2.263201
0.290500	-2.246647
0.290600	-2.187897
0.290700	-2.090847
0.290800	-1.953873
0.290900	-1.913949
0.291000	-1.895448
0.291100	-1.881491
0.291200	-1.887983
0.291300	-1.728288
0.291400	-1.602350
0.291500	-1.500431
0.291600	-1.273872
0.291700	-1.322560
0.291800	-1.249204
0.291900	-1.189481
0.292000	-1.092431
0.292100	-0.953834
0.292200	-0.889892
0.292300	-0.791219
0.292400	-0.828546
0.292500	-0.795438
0.292600	-0.786999
0.292700	-0.846398
0.292800	-0.796412
0.292900	-0.792517
0.293000	-0.717863
0.293100	-0.717863
0.293200	-0.749348
0.293300	-0.751620
0.293400	-0.850293
0.293500	-0.711696
0.293600	-0.747725
0.293700	-0.368938
0.293800	-0.204050
0.293900	-0.289091
0.294000	-0.583162
0.294100	-0.703582
0.294200	-0.625682
0.294300	-0.383869
0.294400	-0.208594
0.294500	-0.063831
0.294600	-0.308890
0.294700	-0.417301
0.294800	-0.457873
0.294900	-0.302723
0.295000	-0.149845
0.295100	-0.015468
0.295200	0.041983
0.295300	-0.006705
0.295400	0.042632
0.295500	-0.019363
0.295600	0.079309
0.295700	0.100083
0.295800	0.180904
0.295900	0.234135
0.296000	0.267891
0.296100	0.253934
0.296200	0.145524
0.296300	0.265944
0.296400	0.182526
0.296500	0.300674
0.296600	0.326316
0.296700	0.418173
0.296800	0.377600
0.296900	0.108522
0.297000	0.099109
0.297100	0.196808
0.297200	0.372082
0.297300	0.454850
0.297400	0.319824
0.297500	0.079309
0.297600	-0.023907
0.297700	0.015042
0.297800	0.220178
0.297900	0.288665
0.298000	0.203300
0.298100	0.069897
0.298200	0.019586
0.298300	-0.010600
0.298400	-0.045979
0.298500	-0.056690
0.298600	-0.109272
0.298700	-0.163478
0.298800	-0.223525
0.298900	-0.235210
0.299000	-0.257606
0.299100	-0.308890
0.299200	-0.346542
0.299300	-0.312461
0.299400	-0.291687
0.299500	-0.263449
0.299600	-0.328365
0.299700	-0.497797
0.299800	-0.542589
0.299900	-0.541291
0.300000	-0.413406
0.300100	-0.454303
0.300200	-0.516298
0.300300	-0.503964
0.300400	-0.516623
0.300500	-0.500069
0.300600	-0.478971
0.300700	-0.496174
0.300800	-0.467935
0.300900	-0.464365
0.301000	-0.414704
0.301100	-0.408212
0.301200	-0.361472
0.301300	-0.382246
0.301400	-0.353358
0.301500	-0.370561
0.301600	-0.335831
0.301700	-0.346542
0.301800	-0.385816
0.301900	-0.365043
0.302000	-0.558169
0.302100	-0.770770
0.302200	-0.883725
0.302300	-0.649701
0.302400	-0.463716
0.302500	-0.377052
0.302600	-0.613023
0.302700	-0.884049
0.302800	-1.024593
0.302900	-0.961949
0.303000	-0.785701
0.303100	-0.701959
0.303200	-0.808422
0.303300	-0.936632
0.303400	-1.026865
0.303500	-1.010961
0.303600	-0.970064
0.303700	-0.961949
0.303800	-0.953834
0.303900	-0.943123
0.304000	-0.997978
0.304100	-1.008689
0.304200	-1.054130
0.304300	-1.079123
0.304400	-1.101519
0.304500	-1.202464
0.304600	-1.222264
0.304700	-1.219343
0.304800	-1.211553
0.304900	-1.254722
0.305000	-1.305032
0.305100	-1.234273
0.305200	-1.153452
0.305300	-1.136899
0.305400	-1.272899
0.305500	-1.540355
0.305600	-1.664994
0.305700	-1.608192
0.305800	-1.368001
0.305900	-1.301462
0.306000	-1.414741
0.306100	-1.654608
0.306200	-1.801644
0.306300	-1.777949
0.306400	-1.686417
0.306500	-1.599429
0.306600	-1.603324
0.306700	-1.661424
0.306800	-1.675381
0.306900	-1.657204
0.307000	-1.634808
0.307100	-1.639677
0.307200	-1.631887
0.307300	-1.539705
0.307400	-1.388125
0.307500	-1.286207
0.307600	-1.174550
0.307700	-1.161567
0.307800	-1.131705
0.307900	-1.088211
0.308000	-0.885023
0.308100	-0.772393
0.308200	-0.641587
0.308300	-0.526685
0.308400	-0.522140
0.308500	-0.447811
0.308600	-0.368938
0.308700	-0.288117
0.308800	-0.121282
0.308900	-0.092070
0.309000	-0.051497
0.309100	-0.022934
0.309200	-0.039812
0.309300	-0.006056
0.309400	-0.087201
0.309500	-0.021960
0.309600	-0.061559
0.309700	0.019586
0.309800	0.045553
0.309900	0.056264
0.310000	0.064379
0.310100	-0.016118
0.310200	0.049773
0.310300	0.132541
0.310400	0.391882
0.310500	0.583385
0.310600	0.362345
0.310700	0.156884
0.310800	0.018937
0.310900	0.164674
0.311000	0.364617
0.311100	0.600263
0.311200	0.553523
0.311300	0.389609
0.311400	0.298077
0.311500	0.280225
0.311600	0.406163
0.311700	0.519767
0.311800	0.469132
0.311900	0.542487
0.312000	0.410383
0.312100	0.481791
0.312200	0.385065
0.312300	0.500616
0.312400	0.552549
0.312500	0.572998
0.312600	0.664855
0.312700	0.706401
0.312800	0.793064
0.312900	0.702506
0.313000	0.754764
0.313100	0.758334
0.313200	0.871613
0.313300	1.002744
0.313400	1.059870
0.313500	0.915432
0.313600	0.674592
0.313700	0.700234
0.313800	0.879403
0.313900	1.117646
0.314000	1.129331
0.314100	0.956978
0.314200	0.728473
0.314300	0.754115
0.314400	0.926143
0.314500	1.154324
0.314600	1.311746
0.314700	1.065713
0.314800	0.989436
0.314900	1.029684
0.315000	1.028386
0.315100	1.552585
0.315200	1.295841
0.315300	1.300061
0.315400	0.849866
0.315500	1.014104
0.315600	1.352968
0.315700	1.259164
0.315800	0.804100
0.315900	0.832663
0.316000	0.823900
0.316100	0.892711
0.316200	0.873885
0.316300	0.673618
0.316400	0.530802
0.316500	0.485361
0.316600	0.469132
0.316700	0.556444
0.316800	0.442841
0.316900	0.393504
0.317000	0.381170
0.317100	0.361046
0.317200	0.285743
0.317300	0.260101
0.317400	0.217257
0.317500	0.165648
0.317600	0.127348
0.317700	0.058536
0.317800	0.008551
0.317900	-0.044032
0.318000	-0.109272
0.318100	-0.156012
0.318200	-0.234886
0.318300	-0.282275
0.318400	-0.409511
0.318500	-0.483840
0.318600	-0.623735
0.318700	-0.890216
0.318800	-1.144040
0.318900	-1.282636
0.319000	-1.026216
0.319100	-0.992460
0.319200	-1.077176
0.319300	-1.436164
0.319400	-1.733481
0.319500	-1.864937
0.319600	-1.771782
0.319700	-1.645519
0.319800	-1.714980
0.319900	-1.865586
0.320000	-2.112919
0.320100	-2.257683
0.320200	-2.262227
0.320300	-2.252165
0.320400	-2.264499
0.320500	-2.248919
0.320600	-2.305072
0.320700	-2.350189
0.320800	-2.341425
0.320900	-2.393034
0.321000	-2.408939
0.321100	-2.456652
0.321200	-2.543965
0.321300	-2.495927
0.321400	-2.517025
0.321500	-2.514753
0.321600	-2.539746
0.321700	-2.571879
0.321800	-2.460547
0.321900	-2.296957
0.322000	-2.302151
0.322100	-2.507937
0.322200	-2.720539
0.322300	-2.781885
0.322400	-2.640042
0.322500	-2.439449
0.322600	-2.408614
0.322700	-2.567984
0.322800	-2.810449
0.322900	-2.920158
0.323000	-2.832520
0.323100	-2.692300
0.323200	-2.634200
0.323300	-2.637121
0.323400	-2.686782
0.323500	-2.695870
0.323600	-2.639068
0.323700	-2.608233
0.323800	-2.566362
0.323900	-2.534552
0.324000	-2.416079
0.324100	-2.247296
0.324200	-2.141807
0.324300	-2.045405
0.324400	-1.972374
0.324500	-1.945109
0.324600	-1.825338
0.324700	-1.648765
0.324800	-1.563075
0.324900	-1.297567
0.325000	-1.324183
0.325100	-1.283285
0.325200	-1.260565
0.325300	-1.163839
0.325400	-1.069386
0.325500	-0.997004
0.325600	-0.936956
0.325700	-0.966169
0.325800	-1.006741
0.325900	-0.999276
0.326000	-1.033682
0.326100	-0.974932
0.326200	-0.975581
0.326300	-0.932737
0.326400	-0.947018
0.326500	-0.899629
0.326600	-0.885997
0.326700	-0.946044
0.326800	-0.863601
0.326900	-0.911314
0.327000	-0.626980
0.327100	-0.496174
0.327200	-0.255010
0.327300	-0.683782
0.327400	-0.705205
0.327500	-0.834388
0.327600	-0.514026
0.327700	-0.373157
0.327800	-0.128098
0.327900	-0.226771
0.328000	-0.363745
0.328100	-0.385816
0.328200	-0.292012
0.328300	-0.044681
0.328400	0.006928
0.328500	0.101056
0.328600	0.114364
0.328700	0.104627
0.328800	0.028026
0.328900	0.110145
0.329000	0.202975
0.329100	0.247767
0.329200	0.282173
0.329300	0.338001
0.329400	0.336054
0.329500	0.248741
0.329600	0.391232
0.329700	0.287366
0.329800	0.393829
0.329900	0.416874
0.330000	0.504836
0.330100	0.512626
0.330200	0.343519
0.330300	0.239653
0.330400	0.334431
0.330500	0.509380
0.330600	0.721656
0.330700	0.620387
0.330800	0.481141
0.330900	0.316579
0.331000	0.388636
0.331100	0.619738
0.331200	0.788520
0.331300	0.799231
0.331400	0.701857
0.331500	0.662258
0.331600	0.739184
0.331700	0.751193
0.331800	0.841102
0.331900	0.790468
0.332000	0.833962
0.332100	0.785924
0.332200	0.801503
0.332300	0.844997
0.332400	0.897255
0.332500	0.963145
0.332600	1.290323
0.332700	1.574008
0.332800	1.921959
0.332900	1.818742
0.333000	1.103689
0.333100	0.899527
0.333200	0.833312
0.333300	1.521750
0.333400	1.696051
0.333500	1.244557
0.333600	1.220214
0.333700	1.277665
0.333800	1.228004
0.333900	1.009885
0.334000	0.948864
0.334100	1.032606
0.334200	1.030009
0.334300	0.912186
0.334400	0.877131
0.334500	0.704778
0.334600	0.775862
0.334700	0.674917
0.334800	0.696014
0.334900	0.620387
0.335000	0.579165
0.335100	0.546382
0.335200	0.495423
0.335300	0.353906
0.335400	0.060808
0.335500	-0.136862
0.335600	-0.045654
0.335700	0.065677
0.335800	0.112741
0.335900	-0.071946
0.336000	-0.379324
0.336100	-0.631525
0.336200	-0.658140
0.336300	-0.593548
0.336400	-0.558818
0.336500	-0.641587
0.336600	-0.831467
0.336700	-1.016154
0.336800	-1.139495
0.336900	-1.150856
0.337000	-1.193051
0.337100	-1.221939
0.337200	-1.301137
0.337300	-1.381309
0.337400	-1.448173
0.337500	-1.524775
0.337600	-1.577032
0.337700	-1.655257
0.337800	-1.768212
0.337900	-1.811706
0.338000	-1.811057
0.338100	-1.879544
0.338200	-1.915897
0.338300	-1.996069
0.338400	-1.991849
0.338500	-1.869806
0.338600	-1.731534
0.338700	-1.862016
0.338800	-2.098312
0.338900	-2.237883
0.339000	-2.230418
0.339100	-2.019439
0.339200	-1.917195
0.339300	-1.996393
0.339400	-2.260279
0.339500	-2.486839
0.339600	-2.562142
0.339700	-2.470285
0.339800	-2.373234
0.339900	-2.364146
0.340000	-2.429712
0.340100	-2.500796
0.340200	-2.492681
0.340300	-2.460223
0.340400	-2.453731
0.340500	-2.420299
0.340600	-2.385244
0.340700	-2.239831
0.340800	-2.087601
0.340900	-1.994446
0.341000	-1.961014
0.341100	-1.892851
0.341200	-1.852279
0.341300	-1.685443
0.341400	-1.530617
0.341500	-1.437787
0.341600	-1.182989
0.341700	-1.166760
0.341800	-1.076851
0.341900	-0.965844
0.342000	-0.836011
0.342100	-0.666904
0.342200	-0.573100
0.342300	-0.486112
0.342400	-0.456900
0.342500	-0.411783
0.342600	-0.343945
0.342700	-0.339401
0.342800	-0.289415
0.342900	-0.246571
0.343000	-0.207945
0.343100	-0.109597
0.343200	-0.114790
0.343300	-0.039163
0.343400	-0.196910
0.343500	-0.067726
0.343600	-0.121282
0.343700	0.211739
0.343800	0.256531
0.343900	0.254584
0.344000	-0.040137
0.344100	-0.166399
0.344200	-0.118036
0.344300	0.098135
0.344400	0.270163
0.344500	0.256856
0.344600	0.129944
0.344700	-0.044681
0.344800	-0.019039
0.344900	0.092617
0.345000	0.158507
0.345100	0.293858
0.345200	0.212713
0.345300	0.128970
0.345400	0.087424
0.345500	0.104627
0.345600	0.081906
0.345700	0.123128
0.345800	0.098460
0.345900	0.082880
0.346000	0.101056
0.346100	-0.046628
0.346200	-0.067077
0.346300	-0.141731
0.346400	-0.203401
0.346500	-0.287468
0.346600	-0.166723
0.346700	-0.192365
0.346800	-0.295907
0.346900	-0.566284
0.347000	-0.674369
0.347100	-0.552976
0.347200	-0.375429
0.347300	-0.326742
0.347400	-0.493253
0.347500	-0.746102
0.347600	-0.826274
0.347700	-0.716240
0.347800	-0.483191
0.347900	-0.374456
0.348000	-0.461768
0.348100	-0.597443
0.348200	-0.607181
0.348300	-0.619515
0.348400	-0.571801
0.348500	-0.563687
0.348600	-0.626980
0.348700	-0.661386
0.348800	-0.723381
0.348900	-0.707152
0.349000	-0.716890
0.349100	-0.724680
0.349200	-0.753567
0.349300	-0.738312
0.349400	-0.713319
0.349500	-0.682484
0.349600	-0.742207
0.349700	-0.816536
0.349800	-0.862627
0.349900	-0.865873
0.350000	-0.827247
0.350100	-0.776613
0.350200	-0.786350
0.350300	-0.748699
0.350400	-0.757138
0.350500	-0.726302
0.350600	-0.694818
0.350700	-0.668851
0.350800	-0.664307
0.350900	-0.664307
0.351000	-0.644183
0.351100	-0.650350
0.351200	-0.640288
0.351300	-0.654245
0.351400	-0.677940
0.351500	-0.675343
0.351600	-0.699038
0.351700	-0.700011
0.351800	-0.765252
0.351900	-0.780508
0.352000	-1.021997
0.352100	-1.288803
0.352200	-1.378713
0.352300	-1.262512
0.352400	-1.083018
0.352500	-1.065166
0.352600	-1.328402
0.352700	-1.602674
0.352800	-1.725042
0.352900	-1.675706
0.353000	-1.475763
0.353100	-1.466025
0.353200	-1.516985
0.353300	-1.736727
0.353400	-1.886035
0.353500	-1.903563
0.353600	-1.879868
0.353700	-1.832154
0.353800	-1.821443
0.353900	-1.856174
0.354000	-1.918169
0.354100	-1.924011
0.354200	-1.961663
0.354300	-1.972050
0.354400	-2.017167
0.354500	-2.065854
0.354600	-2.119086
0.354700	-2.127849
0.354800	-2.155439
0.354900	-2.176537
0.355000	-2.203802
0.355100	-2.087926
0.355200	-1.864613
0.355300	-1.822417
0.355400	-1.976269
0.355500	-2.202504
0.355600	-2.275210
0.355700	-2.172642
0.355800	-1.928880
0.355900	-1.831181
0.356000	-1.906159
0.356100	-2.160632
0.356200	-2.295010
0.356300	-2.290466
0.356400	-2.180107
0.356500	-2.080785
0.356600	-2.061635
0.356700	-2.134990
0.356800	-2.153492
0.356900	-2.174265
0.357000	-2.138561
0.357100	-2.138561
0.357200	-2.080460
0.357300	-2.025606
0.357400	-1.918169
0.357500	-1.824689
0.357600	-1.786388
0.357700	-1.778598
0.357800	-1.783142
0.357900	-1.791257
0.358000	-1.646493
0.358100	-1.558531
0.358200	-1.347877
0.358300	-1.370923
0.358400	-1.384880
0.358500	-1.340736
0.358600	-1.275820
0.358700	-1.198569
0.358800	-1.060622
0.358900	-1.038875
0.359000	-1.015830
0.359100	-1.032059
0.359200	-1.059973
0.359300	-1.051534
0.359400	-1.119047
0.359500	-1.094703
0.359600	-1.103142
0.359700	-1.100546
0.359800	-1.124889
0.359900	-1.127810
0.360000	-1.183314
0.360100	-1.198894
0.360200	-1.160918
0.360300	-1.039200
0.360400	-0.893462
0.360500	-0.647429
0.360600	-0.931438
0.360700	-1.120994
0.360800	-1.132355
0.360900	-0.973959
0.361000	-0.725004
0.361100	-0.617243
0.361200	-0.613997
0.361300	-0.825625
0.361400	-0.827572
0.361500	-0.811343
0.361600	-0.508183
0.361700	-0.419897
0.361800	-0.325119
0.361900	-0.314408
0.362000	-0.309864
0.362100	-0.304021
0.362200	-0.248843
0.362300	-0.187497
0.362400	-0.157960
0.362500	-0.084604
0.362600	-0.094342
0.362700	-0.083306
0.362800	-0.035917
0.362900	-0.052471
0.363000	-0.038514
0.363100	-0.036566
0.363200	0.028999
0.363300	0.125725
0.363400	0.146173
0.363500	-0.030724
0.363600	-0.212489
0.363700	-0.149845
0.363800	0.027052
0.363900	0.227643
0.364000	0.245495
0.364100	0.065028
0.364200	-0.222551
0.364300	-0.219306
0.364400	-0.060585
0.364500	0.148121
0.364600	0.151367
0.364700	0.040360
0.364800	-0.067077
0.364900	-0.019688
0.365000	-0.048251
0.365100	0.044579
0.365200	0.048799
0.365300	0.053992
0.365400	0.046527
0.365500	0.101381
0.365600	0.173438
0.365700	0.192588
0.365800	0.163052
0.365900	0.169543
0.366000	0.225371
0.366100	0.262049
0.366200	0.319824
0.366300	0.227319
0.366400	0.116312
0.366500	0.095214
0.366600	0.137410
0.366700	0.207195
0.366800	0.219204
0.366900	0.233486
0.367000	0.257180
0.367100	0.242574
0.367200	0.265619
0.367300	0.258479
0.367400	0.248416
0.367500	0.279901
0.367600	0.242899
0.367700	0.284770
0.367800	0.250364
0.367900	0.235758
0.368000	0.229591
0.368100	0.206870
0.368200	0.202001
0.368300	0.206221
0.368400	0.176684
0.368500	0.122479
0.368600	0.110145
0.368700	-0.171592
0.368800	-0.380947
0.368900	-0.419248
0.369000	-0.230341
0.369100	-0.065779
0.369200	-0.148547
0.369300	-0.393931
0.369400	-0.650999
0.369500	-0.691897
0.369600	-0.604584
0.369700	-0.410160
0.369800	-0.442618
0.369900	-0.551028
0.370000	-0.740259
0.370100	-0.831467
0.370200	-0.746427
0.370300	-0.700660
0.370400	-0.724030
0.370500	-0.760384
0.370600	-0.794140
0.370700	-0.826274
0.370800	-0.836011
0.370900	-0.893462
0.371000	-0.899954
0.371100	-0.923648
0.371200	-0.996030
0.371300	-0.979801
0.371400	-0.994407
0.371500	-1.052183
0.371600	-1.114503
0.371700	-1.126188
0.371800	-1.031734
0.371900	-0.919753
0.372000	-0.928517
0.372100	-1.186560
0.372200	-1.407276
0.372300	-1.516985
0.372400	-1.403381
0.372500	-1.231352
0.372600	-1.255047
0.372700	-1.458235
0.372800	-1.748087
0.372900	-1.908756
0.373000	-1.872078
0.373100	-1.754579
0.373200	-1.690961
0.373300	-1.701023
0.373400	-1.775352
0.373500	-1.819171
0.373600	-1.847085
0.373700	-1.842216
0.373800	-1.862016
0.373900	-1.894799
0.374000	-1.883439
0.374100	-1.837023
0.374200	-1.796775
0.374300	-1.799372
0.374400	-1.842216
0.374500	-1.883114
0.374600	-1.889606
0.374700	-1.797099
0.374800	-1.665643
0.374900	-1.504975
0.375000	-1.581252
0.375100	-1.626369
0.375200	-1.586121
0.375300	-1.532565
0.375400	-1.451419
0.375500	-1.380335
0.375600	-1.302760
0.375700	-1.310226
0.375800	-1.360211
0.375900	-1.332946
0.376000	-1.343333
0.376100	-1.368001
0.376200	-1.364756
0.376300	-1.337166
0.376400	-1.338464
0.376500	-1.350474
0.376600	-1.319314
0.376700	-1.412145
0.376800	-1.366054
0.376900	-1.478684
0.377000	-1.136250
0.377100	-1.036927
0.377200	-0.863925
0.377300	-1.146636
0.377400	-1.394942
0.377500	-1.339763
0.377600	-1.195324
0.377700	-0.943772
0.377800	-0.830818
0.377900	-1.002846
0.378000	-1.161892
0.378100	-1.203763
0.378200	-1.063868
0.378300	-0.934035
0.378400	-0.775639
0.378500	-0.808746
0.378600	-0.901577
0.378700	-0.932412
0.378800	-0.912288
0.378900	-0.848021
0.379000	-0.838932
0.379100	-0.852889
0.379200	-0.875286
0.379300	-0.917481
0.379400	-0.984021
0.379500	-0.976231
0.379600	-1.051209
0.379700	-1.122617
0.379800	-1.156698
0.379900	-1.133653
0.380000	-1.101195
0.380100	-1.156049
0.380200	-1.470569
0.380300	-1.604297
0.380400	-1.627992
0.380500	-1.485500
0.380600	-1.257643
0.380700	-1.385529
0.380800	-1.615658
0.380900	-1.824040
0.381000	-1.756851
0.381100	-1.582226
0.381200	-1.414741
0.381300	-1.405653
0.381400	-1.569892
0.381500	-1.649090
0.381600	-1.656880
0.381700	-1.640975
0.381800	-1.580278
0.381900	-1.641949
0.382000	-1.683496
0.382100	-1.763018
0.382200	-1.741271
0.382300	-1.692259
0.382400	-1.721147
0.382500	-1.736403
0.382600	-1.730885
0.382700	-1.676030
0.382800	-1.633834
0.382900	-1.633834
0.383000	-1.768212
0.383100	-1.813329
0.383200	-1.812679
0.383300	-1.753281
0.383400	-1.650064
0.383500	-1.688364
0.383600	-1.673758
0.383700	-1.621176
0.383800	-1.588068
0.383900	-1.566646
0.384000	-1.549768
0.384100	-1.545873
0.384200	-1.488097
0.384300	-1.456612
0.384400	-1.452068
0.384500	-1.411495
0.384600	-1.408574
0.384700	-1.388775
0.384800	-1.366054
0.384900	-1.399810
0.385000	-1.378388
0.385100	-1.470245
0.385200	-1.444278
0.385300	-1.513090
0.385400	-1.802942
0.385500	-1.950303
0.385600	-1.818847
0.385700	-1.562426
0.385800	-1.401433
0.385900	-1.566321
0.386000	-1.818522
0.386100	-2.060012
0.386200	-2.031448
0.386300	-1.890904
0.386400	-1.752307
0.386500	-1.769510
0.386600	-2.015219
0.386700	-2.149272
0.386800	-2.228470
0.386900	-2.215162
0.387000	-2.187248
0.387100	-2.201530
0.387200	-2.262227
0.387300	-2.313836
0.387400	-2.389139
0.387500	-2.431659
0.387600	-2.498524
0.387700	-2.523517
0.387800	-2.668930
0.387900	-2.679317
0.388000	-2.721837
0.388100	-2.798114
0.388200	-2.859461
0.388300	-2.966249
0.388400	-2.969170
0.388500	-2.821809
0.388600	-2.744233
0.388700	-2.860759
0.388800	-3.090240
0.388900	-3.279797
0.389000	-3.272981
0.389100	-3.085371
0.389200	-2.936712
0.389300	-2.965924
0.389400	-3.173983
0.389500	-3.377822
0.389600	-3.476820
0.389700	-3.405087
0.389800	-3.298299
0.389900	-3.279797
0.390000	-3.311931
0.390100	-3.402815
0.390200	-3.405736
0.390300	-3.402490
0.390400	-3.428133
0.390500	-3.407684
0.390600	-3.372629
0.390700	-3.263244
0.390800	-3.148665
0.390900	-3.100951
0.391000	-3.069467
0.391100	-3.079853
0.391200	-3.073686
0.391300	-2.889647
0.391400	-2.757866
0.391500	-2.687107
0.391600	-2.467688
0.391700	-2.486514
0.391800	-2.390437
0.391900	-2.318055
0.392000	-2.209969
0.392100	-2.056441
0.392200	-1.979840
0.392300	-1.879868
0.392400	-1.871104
0.392500	-1.854551
0.392600	-1.876298
0.392700	-1.889930
0.392800	-1.815925
0.392900	-1.873376
0.393000	-1.811381
0.393100	-1.850331
0.393200	-1.776326
0.393300	-1.869806
0.393400	-1.907133
0.393500	-1.898694
0.393600	-1.889606
0.393700	-1.623123
0.393800	-1.497834
0.393900	-1.493615
0.394000	-1.894799
0.394100	-1.940890
0.394200	-1.860393
0.394300	-1.727963
0.394400	-1.496211
0.394500	-1.487772
0.394600	-1.676679
0.394700	-1.808135
0.394800	-1.832804
0.394900	-1.668565
0.395000	-1.603324
0.395100	-1.500431
0.395200	-1.570865
0.395300	-1.615658
0.395400	-1.750684
0.395500	-1.722445
0.395600	-1.772107
0.395700	-1.727963
0.395800	-1.727314
0.395900	-1.728937
0.396000	-1.637405
0.396100	-1.628966
0.396200	-1.698102
0.396300	-1.808784
0.396400	-1.877271
0.396500	-1.858770
0.396600	-1.793854
0.396700	-1.766913
0.396800	-1.900317
0.396900	-2.162255
0.397000	-2.175239
0.397100	-2.112269
0.397200	-1.911353
0.397300	-1.787687
0.397400	-1.938942
0.397500	-2.143429
0.397600	-2.248270
0.397700	-2.130122
0.397800	-1.918493
0.397900	-1.849682
0.398000	-1.905835
0.398100	-2.012622
0.398200	-2.019114
0.398300	-2.021386
0.398400	-1.994121
0.398500	-1.978217
0.398600	-2.044432
0.398700	-2.072670
0.398800	-2.093444
0.398900	-2.061959
0.399000	-2.061635
0.399100	-2.101234
0.399200	-2.128499
0.399300	-2.087926
0.399400	-2.053845
0.399500	-2.026904
0.399600	-2.102532
0.399700	-2.268069
0.399800	-2.298256
0.399900	-2.332986
0.400000	-2.262227
0.400100	-2.282026
0.400200	-2.300852
0.400300	-2.286895
0.400400	-2.314809
0.400500	-2.330389
0.400600	-2.332337
0.400700	-2.333635
0.400800	-2.325521
0.400900	-2.335258
0.401000	-2.340776
0.401100	-2.325196
0.401200	-2.322924
0.401300	-2.298580
0.401400	-2.299554
0.401500	-2.294361
0.401600	-2.306370
0.401700	-2.308967
0.401800	-2.320327
0.401900	-2.370962
0.402000	-2.514428
0.402100	-2.839012
0.402200	-2.926650
0.402300	-2.763708
0.402400	-2.601741
0.402500	-2.564739
0.402600	-2.836415
0.402700	-3.049342
0.402800	-3.195730
0.402900	-3.108741
0.403000	-2.953590
0.403100	-2.931843
0.403200	-3.080827
0.403300	-3.249611
0.403400	-3.343416
0.403500	-3.364189
0.403600	-3.293755
0.403700	-3.333354
0.403800	-3.357373
0.403900	-3.445011
0.404000	-3.463837
0.404100	-3.503761
0.404200	-3.523885
0.404300	-3.575819
0.404400	-3.688125
0.404500	-3.729023
0.404600	-3.752718
0.404700	-3.737462
0.404800	-3.770570
0.404900	-3.846198
0.405000	-3.909493
0.405100	-3.844575
0.405200	-3.645929
0.405300	-3.632297
0.405400	-3.787773
0.405500	-3.986744
0.405600	-4.109762
0.405700	-3.993885
0.405800	-3.803353
0.405900	-3.712145
0.406000	-3.804651
0.406100	-4.034458
0.406200	-4.188312
0.406300	-4.175004
0.406400	-4.051012
0.406500	-3.963374
0.406600	-3.972787
0.406700	-3.992586
0.406800	-4.053933
0.406900	-4.058153
0.407000	-4.020501
0.407100	-3.997780
0.407200	-3.944872
0.407300	-3.884175
0.407400	-3.785825
0.407500	-3.594969
0.407600	-3.489155
0.407700	-3.474873
0.407800	-3.446634
0.407900	-3.433326
0.408000	-3.276227
0.408100	-3.166517
0.408200	-3.114259
0.408300	-2.940607
0.408400	-2.934115
0.408500	-2.850697
0.408600	-2.755918
0.408700	-2.664710
0.408800	-2.502419
0.408900	-2.448538
0.409000	-2.422896
0.409100	-2.457951
0.409200	-2.445292
0.409300	-2.414781
0.409400	-2.478075
0.409500	-2.396280
0.409600	-2.442371
0.409700	-2.349540
0.409800	-2.352461
0.409900	-2.349540
0.410000	-2.365444
0.410100	-2.441721
0.410200	-2.375831
0.410300	-2.254761
0.410400	-2.021711
0.410500	-1.906159
0.410600	-2.128174
0.410700	-2.381024
0.410800	-2.393683
0.410900	-2.224251
0.411000	-1.943811
0.411100	-1.783792
0.411200	-1.894150
0.411300	-2.076890
0.411400	-2.116814
0.411500	-2.041835
0.411600	-1.908431
0.411700	-1.718226
0.411800	-1.731534
0.411900	-1.857147
0.412000	-1.846436
0.412100	-1.931801
0.412200	-1.870780
0.412300	-1.863639
0.412400	-1.826961
0.412500	-1.912976
0.412600	-1.883763
0.412700	-1.914274
0.412800	-1.907133
0.412900	-1.942837
0.413000	-2.019439
0.413100	-2.009377
0.413200	-2.002236
0.413300	-1.928556
0.413400	-1.974971
0.413500	-2.171668
0.413600	-2.390437
0.413700	-2.397578
0.413800	-2.265148
0.413900	-2.082408
0.414000	-2.118761
0.414100	-2.338179
0.414200	-2.582915
0.414300	-2.592004
0.414400	-2.445941
0.414500	-2.264174
0.414600	-2.235611
0.414700	-2.365120
0.414800	-2.474504
0.414900	-2.447889
0.415000	-2.478724
0.415100	-2.416729
0.415200	-2.431984
0.415300	-2.463144
0.415400	-2.514428
0.415500	-2.522867
0.415600	-2.482619
0.415700	-2.498848
0.415800	-2.505664
0.415900	-2.510209
0.416000	-2.483268
0.416100	-2.480996
0.416200	-2.451134
0.416300	-2.536500
0.416400	-2.628682
0.416500	-2.621541
0.416600	-2.604338
0.416700	-2.462170
0.416800	-2.503392
0.416900	-2.452757
0.417000	-2.416729
0.417100	-2.400499
0.417200	-2.410886
0.417300	-2.380375
0.417400	-2.377454
0.417500	-2.356031
0.417600	-2.368690
0.417700	-2.361874
0.417800	-2.326494
0.417900	-2.334934
0.418000	-2.315459
0.418100	-2.340451
0.418200	-2.344022
0.418300	-2.374533
0.418400	-2.432633
0.418500	-2.465416
0.418600	-2.527087
0.418700	-2.760787
0.418800	-2.971118
0.418900	-2.949371
0.419000	-2.733847
0.419100	-2.614725
0.419200	-2.674773
0.419300	-2.979232
0.419400	-3.232408
0.419500	-3.347960
0.419600	-3.180475
0.419700	-3.055834
0.419800	-3.084398
0.419900	-3.232408
0.420000	-3.421641
0.420100	-3.462539
0.420200	-3.432352
0.420300	-3.345039
0.420400	-3.374901
0.420500	-3.466109
0.420600	-3.490128
0.420700	-3.531675
0.420800	-3.535570
0.420900	-3.548554
0.421000	-3.559590
0.421100	-3.609251
0.421200	-3.649175
0.421300	-3.616717
0.421400	-3.618339
0.421500	-3.660536
0.421600	-3.721882
0.421700	-3.662808
0.421800	-3.479092
0.421900	-3.298299
0.422000	-3.348285
0.422100	-3.527131
0.422200	-3.704679
0.422300	-3.714741
0.422400	-3.550826
0.422500	-3.354452
0.422600	-3.317774
0.422700	-3.473899
0.422800	-3.700784
0.422900	-3.835812
0.423000	-3.788747
0.423100	-3.689424
0.423200	-3.632946
0.423300	-3.659237
0.423400	-3.750446
0.423500	-3.822504
0.423600	-3.830618
0.423700	-3.818284
0.423800	-3.813415
0.423900	-3.791993
0.424000	-3.744279
0.424100	-3.689099
0.424200	-3.575819
0.424300	-3.549203
0.424400	-3.525184
0.424500	-3.535570
0.424600	-3.445985
0.424700	-3.273955
0.424800	-3.095758
0.424900	-2.930545
0.425000	-2.960731
0.425100	-2.908148
0.425200	-2.845179
0.425300	-2.744233
0.425400	-2.643288
0.425500	-2.553378
0.425600	-2.497874
0.425700	-2.496901
0.425800	-2.494953
0.425900	-2.512805
0.426000	-2.519297
0.426100	-2.597522
0.426200	-2.562142
0.426300	-2.625436
0.426400	-2.572529
0.426500	-2.614400
0.426600	-2.599469
0.426700	-2.705608
0.426800	-2.689379
0.426900	-2.712100
0.427000	-2.521894
0.427100	-2.320003
0.427200	-2.214838
0.427300	-2.569607
0.427400	-2.678668
0.427500	-2.789026
0.427600	-2.505989
0.427700	-2.324871
0.427800	-2.228470
0.427900	-2.304423
0.428000	-2.480672
0.428100	-2.491707
0.428200	-2.470285
0.428300	-2.269368
0.428400	-2.316757
0.428500	-2.241129
0.428600	-2.338504
0.428700	-2.352786
0.428800	-2.362523
0.428900	-2.373884
0.429000	-2.388165
0.429100	-2.420948
0.429200	-2.414132
0.429300	-2.420299
0.429400	-2.413807
0.429500	-2.443344
0.429600	-2.501120
0.429700	-2.543965
0.429800	-2.610180
0.429900	-2.473531
0.430000	-2.477750
0.430100	-2.433607
0.430200	-2.821160
0.430300	-2.796816
0.430400	-2.829924
0.430500	-2.652052
0.430600	-2.482294
0.430700	-2.595899
0.430800	-2.819861
0.430900	-3.026297
0.431000	-2.987671
0.431100	-2.824406
0.431200	-2.659842
0.431300	-2.677694
0.431400	-2.809150
0.431500	-2.909771
0.431600	-2.953266
0.431700	-2.925351
0.431800	-2.838038
0.431900	-2.861084
0.432000	-2.890296
0.432100	-2.916263
0.432200	-2.887700
0.432300	-2.858487
0.432400	-2.890945
0.432500	-2.925676
0.432600	-2.938659
0.432700	-2.893542
0.432800	-2.838363
0.432900	-2.837389
0.433000	-3.001629
0.433100	-3.079853
0.433200	-3.100302
0.433300	-3.085371
0.433400	-3.020454
0.433500	-3.042526
0.433600	-3.022077
0.433700	-2.982478
0.433800	-2.987022
0.433900	-2.952941
0.434000	-2.940282
0.434100	-2.957485
0.434200	-2.937036
0.434300	-2.931843
0.434400	-2.915938
0.434500	-2.902306
0.434600	-2.886726
0.434700	-2.846802
0.434800	-2.795842
0.434900	-2.763384
0.435000	-2.746830
0.435100	-2.754620
0.435200	-2.757217
0.435300	-2.806554
0.435400	-3.049018
0.435500	-3.150288
0.435600	-3.062650
0.435700	-2.756243
0.435800	-2.628032
0.435900	-2.819861
0.436000	-3.071414
0.436100	-3.291482
0.436200	-3.238251
0.436300	-3.101276
0.436400	-2.993189
0.436500	-3.064273
0.436600	-3.256427
0.436700	-3.409956
0.436800	-3.436572
0.436900	-3.341468
0.437000	-3.346337
0.437100	-3.349908
0.437200	-3.413851
0.437300	-3.467732
0.437400	-3.507981
0.437500	-3.527780
0.437600	-3.539465
0.437700	-3.595943
0.437800	-3.631972
0.437900	-3.683581
0.438000	-3.656965
0.438100	-3.705653
0.438200	-3.727725
0.438300	-3.781606
0.438400	-3.732593
0.438500	-3.547580
0.438600	-3.447283
0.438700	-3.509603
0.438800	-3.682607
0.438900	-3.832890
0.439000	-3.791019
0.439100	-3.602110
0.439200	-3.408982
0.439300	-3.401841
0.439400	-3.584583
0.439500	-3.808546
0.439600	-3.887745
0.439700	-3.777386
0.439800	-3.622234
0.439900	-3.551475
0.440000	-3.571275
0.440100	-3.623208
0.440200	-3.645280
0.440300	-3.588153
0.440400	-3.556019
0.440500	-3.496620
0.440600	-3.449231
0.440700	-3.363540
0.440800	-3.224618
0.440900	-3.132761
0.441000	-3.070765
0.441100	-3.035061
0.441200	-3.034412
0.441300	-2.888024
0.441400	-2.677369
0.441500	-2.602066
0.441600	-2.439125
0.441700	-2.482294
0.441800	-2.436204
0.441900	-2.369339
0.442000	-2.332337
0.442100	-2.167124
0.442200	-2.116489
0.442300	-2.008403
0.442400	-2.023009
0.442500	-1.967505
0.442600	-2.027878
0.442700	-2.000938
0.442800	-2.002236
0.442900	-1.953224
0.443000	-1.920441
0.443100	-1.930828
0.443200	-1.896422
0.443300	-2.002560
0.443400	-1.982112
0.443500	-1.976269
0.443600	-1.914598
0.443700	-1.597806
0.443800	-1.498483
0.443900	-1.372546
0.444000	-1.875324
0.444100	-1.831181
0.444200	-1.917844
0.444300	-1.534188
0.444400	-1.467648
0.444500	-1.368326
0.444600	-1.553013
0.444700	-1.733157
0.444800	-1.645519
0.444900	-1.571190
0.445000	-1.285557
0.445100	-1.413118
0.445200	-1.347228
0.445300	-1.510168
0.445400	-1.494264
0.445500	-1.556908
0.445600	-1.507247
0.445700	-1.463753
0.445800	-1.516985
0.445900	-1.497834
0.446000	-1.467973
0.446100	-1.482254
0.446200	-1.655257
0.446300	-1.688040
0.446400	-1.791257
0.446500	-1.782818
0.446600	-1.820794
0.446700	-1.770159
0.446800	-1.941863
0.446900	-2.240804
0.447000	-2.293387
0.447100	-2.285272
0.447200	-2.109348
0.447300	-2.097663
0.447400	-2.254112
0.447500	-2.545913
0.447600	-2.704634
0.447700	-2.660491
0.447800	-2.500796
0.447900	-2.419974
0.448000	-2.512156
0.448100	-2.684835
0.448200	-2.760463
0.448300	-2.852969
0.448400	-2.832196
0.448500	-2.837714
0.448600	-2.876988
0.448700	-2.926974
0.448800	-2.977285
0.448900	-2.957810
0.449000	-2.935738
0.449100	-2.989294
0.449200	-3.005848
0.449300	-3.009743
0.449400	-2.979232
0.449500	-2.956511
0.449600	-3.038631
0.449700	-3.183396
0.449800	-3.254804
0.449900	-3.285315
0.450000	-3.236952
0.450100	-3.243119
0.450200	-3.289860
0.450300	-3.284017
0.450400	-3.286614
0.450500	-3.299272
0.450600	-3.308036
0.450700	-3.313879
0.450800	-3.355750
0.450900	-3.390805
0.451000	-3.406061
0.451100	-3.426185
0.451200	-3.436896
0.451300	-3.456371
0.451400	-3.457670
0.451500	-3.465135
0.451600	-3.501813
0.451700	-3.510577
0.451800	-3.586855
0.451900	-3.613795
0.452000	-3.789396
0.452100	-4.120798
0.452200	-4.159424
0.452300	-4.112683
0.452400	-3.853988
0.452500	-3.921178
0.452600	-4.190909
0.452700	-4.555095
0.452800	-4.637864
0.452900	-4.636891
0.453000	-4.424286
0.453100	-4.387932
0.453200	-4.505433
0.453300	-4.692395
0.453400	-4.811194
0.453500	-4.758935
0.453600	-4.724205
0.453700	-4.669674
0.453800	-4.691421
0.453900	-4.688825
0.454000	-4.709923
0.454100	-4.679087
0.454200	-4.694667
0.454300	-4.731670
0.454400	-4.753417
0.454500	-4.783604
0.454600	-4.798210
0.454700	-4.801132
0.454800	-4.809896
0.454900	-4.863128
0.455000	-4.843653
0.455100	-4.790745
0.455200	-4.561262
0.455300	-4.545682
0.455400	-4.662208
0.455500	-4.843004
0.455600	-4.976409
0.455700	-4.840407
0.455800	-4.656690
0.455900	-4.515495
0.456000	-4.607029
0.456100	-4.798210
0.456200	-4.941029
0.456300	-4.938108
0.456400	-4.813466
0.456500	-4.685254
0.456600	-4.662533
0.456700	-4.661884
0.456800	-4.680385
0.456900	-4.649225
0.457000	-4.622609
0.457100	-4.601835
0.457200	-4.536593
0.457300	-4.475571
0.457400	-4.358071
0.457500	-4.210708
0.457600	-4.132158
0.457700	-4.080549
0.457800	-4.050687
0.457900	-3.997131
0.458000	-3.792966
0.458100	-3.665729
0.458200	-3.365488
0.458300	-3.350881
0.458400	-3.308685
0.458500	-3.212284
0.458600	-3.110364
0.458700	-3.017209
0.458800	-2.867900
0.458900	-2.777016
0.459000	-2.706906
0.459100	-2.720214
0.459200	-2.673799
0.459300	-2.632577
0.459400	-2.695221
0.459500	-2.609207
0.459600	-2.637770
0.459700	-2.530008
0.459800	-2.592328
0.459900	-2.478724
0.460000	-2.590381
0.460100	-2.571555
0.460200	-2.526113
0.460300	-2.473855
0.460400	-2.132394
0.460500	-2.089224
0.460600	-2.144403
0.460700	-2.561817
0.460800	-2.469636
0.460900	-2.375506
0.461000	-2.040537
0.461100	-1.939267
0.461200	-2.001587
0.461300	-2.256060
0.461400	-2.378752
0.461500	-2.301177
0.461600	-2.115840
0.461700	-2.005157
0.461800	-1.905510
0.461900	-1.973023
0.462000	-2.025606
0.462100	-2.048002
0.462200	-2.058389
0.462300	-2.079162
0.462400	-2.054818
0.462500	-2.052546
0.462600	-2.073320
0.462700	-1.988279
0.462800	-2.031773
0.462900	-2.139534
0.463000	-2.193740
0.463100	-2.282676
0.463200	-2.194714
0.463300	-2.133043
0.463400	-2.131744
0.463500	-2.299554
0.463600	-2.528385
0.463700	-2.468337
0.463800	-2.358953
0.463900	-2.072021
0.464000	-2.107401
0.464100	-2.294036
0.464200	-2.541693
0.464300	-2.571555
0.464400	-2.419974
0.464500	-2.213864
0.464600	-2.186599
0.464700	-2.278456
0.464800	-2.419001
0.464900	-2.391411
0.465000	-2.393034
0.465100	-2.304747
0.465200	-2.330714
0.465300	-2.364795
0.465400	-2.401798
0.465500	-2.404070
0.465600	-2.373884
0.465700	-2.358953
0.465800	-2.406017
0.465900	-2.411860
0.466000	-2.358304
0.466100	-2.323898
0.466200	-2.259630
0.466300	-2.346943
0.466400	-2.426791
0.466500	-2.433607
0.466600	-2.458275
0.466700	-2.313186
0.466800	-2.395955
0.466900	-2.382323
0.467000	-2.387841
0.467100	-2.396604
0.467200	-2.384919
0.467300	-2.385244
0.467400	-2.401798
0.467500	-2.402122
0.467600	-2.423545
0.467700	-2.416404
0.467800	-2.451459
0.467900	-2.468013
0.468000	-2.451134
0.468100	-2.494304
0.468200	-2.441721
0.468300	-2.521569
0.468400	-2.507287
0.468500	-2.553378
0.468600	-2.563440
0.468700	-2.849399
0.468800	-3.042851
0.468900	-3.024025
0.469000	-2.804606
0.469100	-2.686133
0.469200	-2.740663
0.469300	-3.016884
0.469400	-3.282719
0.469500	-3.306089
0.469600	-3.205468
0.469700	-3.032464
0.469800	-3.095109
0.469900	-3.228513
0.470000	-3.419369
0.470100	-3.487856
0.470200	-3.448581
0.470300	-3.338547
0.470400	-3.348934
0.470500	-3.421316
0.470600	-3.496945
0.470700	-3.468706
0.470800	-3.476820
0.470900	-3.460267
0.471000	-3.506033
0.471100	-3.547904
0.471200	-3.572898
0.471300	-3.599838
0.471400	-3.531026
0.471500	-3.560888
0.471600	-3.594645
0.471700	-3.617690
0.471800	-3.440467
0.471900	-3.293755
0.472000	-3.316800
0.472100	-3.445336
0.472200	-3.624831
0.472300	-3.638139
0.472400	-3.455073
0.472500	-3.226241
0.472600	-3.167167
0.472700	-3.311931
0.472800	-3.525833
0.472900	-3.629375
0.473000	-3.558940
0.473100	-3.424887
0.473200	-3.318423
0.473300	-3.334977
0.473400	-3.385287
0.473500	-3.426834
0.473600	-3.406061
0.473700	-3.402490
0.473800	-3.375874
0.473900	-3.369707
0.474000	-3.316151
0.474100	-3.185992
0.474200	-3.117830
0.474300	-3.086994
0.474400	-3.051939
0.474500	-3.060703
0.474600	-3.037982
0.474700	-2.896463
0.474800	-2.883805
0.474900	-2.680615
0.475000	-2.700090
0.475100	-2.669904
0.475200	-2.614400
0.475300	-2.542018
0.475400	-2.443020
0.475500	-2.329740
0.475600	-2.282351
0.475700	-2.277482
0.475800	-2.314160
0.475900	-2.291764
0.476000	-2.309616
0.476100	-2.348241
0.476200	-2.334609
0.476300	-2.367392
0.476400	-2.368690
0.476500	-2.382972
0.476600	-2.450485
0.476700	-2.475478
0.476800	-2.556299
0.476900	-2.462819
0.477000	-2.383946
0.477100	-2.088575
0.477200	-2.120709
0.477300	-2.314809
0.477400	-2.614725
0.477500	-2.618944
0.477600	-2.412509
0.477700	-2.148298
0.477800	-2.009052
0.477900	-2.193740
0.478000	-2.253463
0.478100	-2.437177
0.478200	-2.325521
0.478300	-2.154790
0.478400	-2.057740
0.478500	-2.069749
0.478600	-2.121033
0.478700	-2.121033
0.478800	-2.197635
0.478900	-2.151219
0.479000	-2.189520
0.479100	-2.224900
0.479200	-2.290141
0.479300	-2.305072
0.479400	-2.328117
0.479500	-2.299554
0.479600	-2.419325
0.479700	-2.417378
0.479800	-2.500471
0.479900	-2.418027
0.480000	-2.382972
0.480100	-2.417702
0.480200	-2.741637
0.480300	-2.815966
0.480400	-2.794869
0.480500	-2.636147
0.480600	-2.463469
0.480700	-2.546562
0.480800	-2.760463
0.480900	-2.919833
0.481000	-2.878287
0.481100	-2.735145
0.481200	-2.612128
0.481300	-2.635173
0.481400	-2.764358
0.481500	-2.834468
0.481600	-2.848749
0.481700	-2.850048
0.481800	-2.749102
0.481900	-2.790000
0.482000	-2.823107
0.482100	-2.908473
0.482200	-2.887050
0.482300	-2.860434
0.482400	-2.832520
0.482500	-2.817265
0.482600	-2.808826
0.482700	-2.760138
0.482800	-2.702687
0.482900	-2.671202
0.483000	-2.778639
0.483100	-2.822783
0.483200	-2.788052
0.483300	-2.699765
0.483400	-2.608882
0.483500	-2.635498
0.483600	-2.588758
0.483700	-2.570906
0.483800	-2.552080
0.483900	-2.522543
0.484000	-2.481645
0.484100	-2.480022
0.484200	-2.474180
0.484300	-2.445941
0.484400	-2.427764
0.484500	-2.421597
0.484600	-2.408939
0.484700	-2.374208
0.484800	-2.349215
0.484900	-2.363821
0.485000	-2.329740
0.485100	-2.361225
0.485200	-2.351487
0.485300	-2.448213
0.485400	-2.715670
0.485500	-2.816940
0.485600	-2.751050
0.485700	-2.452757
0.485800	-2.392060
0.485900	-2.556299
0.486000	-2.832196
0.486100	-3.038631
0.486200	-2.997084
0.486300	-2.822783
0.486400	-2.676071
0.486500	-2.720863
0.486600	-2.897762
0.486700	-3.032139
0.486800	-3.081476
0.486900	-2.991242
0.487000	-2.961380
0.487100	-2.981180
0.487200	-3.003901
0.487300	-3.040254
0.487400	-3.057132
0.487500	-3.044474
0.487600	-3.051615
0.487700	-3.096407
0.487800	-3.219100
0.487900	-3.203845
0.488000	-3.188589
0.488100	-3.222346
0.488200	-3.280122
0.488300	-3.358022
0.488400	-3.320370
0.488500	-3.172360
0.488600	-3.105820
0.488700	-3.192484
0.488800	-3.387560
0.488900	-3.565107
0.489000	-3.525833
0.489100	-3.366786
0.489200	-3.217153
0.489300	-3.246690
0.489400	-3.449555
0.489500	-3.658913
0.489600	-3.737787
0.489700	-3.634244
0.489800	-3.528429
0.489900	-3.476820
0.490000	-3.513174
0.490100	-3.592048
0.490200	-3.627103
0.490300	-3.610874
0.490400	-3.588153
0.490500	-3.544009
0.490600	-3.558616
0.490700	-3.480066
0.490800	-3.383664
0.490900	-3.310308
0.491000	-3.276552
0.491100	-3.257726
0.491200	-3.289210
0.491300	-3.138279
0.491400	-3.003576
0.491500	-2.889647
0.491600	-2.665684
0.491700	-2.685808
0.491800	-2.603689
0.491900	-2.538123
0.492000	-2.418676
0.492100	-2.297282
0.492200	-2.218408
0.492300	-2.160308
0.492400	-2.189845
0.492500	-2.144403
0.492600	-2.120384
0.492700	-2.128823
0.492800	-2.146026
0.492900	-2.104479
0.493000	-2.132394
0.493100	-2.108699
0.493200	-2.157387
0.493300	-2.151869
0.493400	-2.261253
0.493500	-2.171993
0.493600	-2.104804
0.493700	-1.927906
0.493800	-1.732832
0.493900	-1.791906
0.494000	-2.130771
0.494100	-2.242103
0.494200	-2.142456
0.494300	-1.828584
0.494400	-1.572813
0.494500	-1.531915
0.494600	-1.739648
0.494700	-1.906484
0.494800	-1.885386
0.494900	-1.758150
0.495000	-1.575410
0.495100	-1.566970
0.495200	-1.569242
0.495300	-1.640326
0.495400	-1.618904
0.495500	-1.678627
0.495600	-1.616632
0.495700	-1.606894
0.495800	-1.621176
0.495900	-1.648116
0.496000	-1.540030
0.496100	-1.587095
0.496200	-1.710436
0.496300	-1.806188
0.496400	-1.804889
0.496500	-1.804889
0.496600	-1.703295
0.496700	-1.690312
0.496800	-1.788011
0.496900	-2.148298
0.497000	-2.133692
0.497100	-2.098637
0.497200	-1.823066
0.497300	-1.794178
0.497400	-1.910703
0.497500	-2.147324
0.497600	-2.241454
0.497700	-2.148298
0.497800	-1.937968
0.497900	-1.821768
0.498000	-1.877596
0.498100	-1.998016
0.498200	-2.035992
0.498300	-2.037291
0.498400	-1.982761
0.498500	-1.931152
0.498600	-1.975620
0.498700	-2.010675
0.498800	-2.015868
0.498900	-1.929529
0.499000	-1.895773
0.499100	-1.915897
0.499200	-1.939267
0.499300	-1.910054
0.499400	-1.879219
0.499500	-1.816574
0.499600	-1.869157
0.499700	-1.980813
0.499800	-2.011973
0.499900	-2.037940
0.500000	-1.997043
0.500100	-1.917195
0.500200	-1.933749
0.500300	-1.901940
0.500400	-1.880193
0.500500	-1.839295
0.500600	-1.825014
0.500700	-1.808460
0.500800	-1.813329
0.500900	-1.780870
0.501000	-1.758150
0.501100	-1.718226
0.501200	-1.748737
0.501300	-1.726340
0.501400	-1.751333
0.501500	-1.713033
0.501600	-1.763992
0.501700	-1.778923
0.501800	-1.809434
0.501900	-1.854551
0.502000	-1.997367
0.502100	-2.345645
0.502200	-2.357654
0.502300	-2.238532
0.502400	-2.032097
0.502500	-2.113892
0.502600	-2.301501
0.502700	-2.575125
0.502800	-2.718267
0.502900	-2.664710
0.503000	-2.453731
0.503100	-2.455029
0.503200	-2.589732
0.503300	-2.818563
0.503400	-2.942554
0.503500	-2.943528
0.503600	-2.851671
0.503700	-2.836740
0.503800	-2.930545
0.503900	-2.980531
0.504000	-3.035710
0.504100	-3.064922
0.504200	-3.111663
0.504300	-3.159377
0.504400	-3.220398
0.504500	-3.282394
0.504600	-3.330757
0.504700	-3.318748
0.504800	-3.351855
0.504900	-3.429106
0.505000	-3.410930
0.505100	-3.319397
0.505200	-3.149314
0.505300	-3.196055
0.505400	-3.339521
0.505500	-3.565107
0.505600	-3.723830
0.505700	-3.638139
0.505800	-3.482014
0.505900	-3.415798
0.506000	-3.483961
0.506100	-3.716040
0.506200	-3.913063
0.506300	-3.934810
0.506400	-3.822179
0.506500	-3.722207
0.506600	-3.738111
0.506700	-3.790370
0.506800	-3.858208
0.506900	-3.859506
0.507000	-3.850093
0.507100	-3.831592
0.507200	-3.788747
0.507300	-3.758236
0.507400	-3.665080
0.507500	-3.556019
0.507600	-3.470329
0.507700	-3.443713
0.507800	-3.433326
0.507900	-3.378796
0.508000	-3.162947
0.508100	-3.057782
0.508200	-2.795193
0.508300	-2.802659
0.508400	-2.765981
0.508500	-2.685808
0.508600	-2.602066
0.508700	-2.497225
0.508800	-2.366094
0.508900	-2.294685
0.509000	-2.202179
0.509100	-2.245349
0.509200	-2.140833
0.509300	-2.142456
0.509400	-2.100909
0.509500	-2.073969
0.509600	-1.996718
0.509700	-1.945109
0.509800	-1.890255
0.509900	-1.892527
0.510000	-1.909730
0.510100	-1.930178
0.510200	-1.820145
0.510300	-1.694531
0.510400	-1.433567
0.510500	-1.157347
0.510600	-1.441357
0.510700	-1.710436
0.510800	-1.678951
0.510900	-1.536784
0.511000	-1.286856
0.511100	-1.138846
0.511200	-1.174226
0.511300	-1.366054
0.511400	-1.475438
0.511500	-1.317367
0.511600	-1.214474
0.511700	-1.029137
0.511800	-1.061920
0.511900	-1.039200
0.512000	-1.146961
0.512100	-1.077500
0.512200	-1.065815
0.512300	-1.054130
0.512400	-1.047963
0.512500	-0.996679
0.512600	-0.978827
0.512700	-0.927868
0.512800	-0.865224
0.512900	-1.002197
0.513000	-1.027190
0.513100	-1.051209
0.513200	-0.922675
0.513300	-0.884698
0.513400	-0.779858
0.513500	-0.972011
0.513600	-1.188183
0.513700	-1.132679
0.513800	-1.030760
0.513900	-0.751620
0.514000	-0.808746
0.514100	-0.971362
0.514200	-1.201491
0.514300	-1.206035
0.514400	-1.049586
0.514500	-0.856135
0.514600	-0.824326
0.514700	-0.910990
0.514800	-1.022646
0.514900	-1.031410
0.515000	-1.041147
0.515100	-0.961949
0.515200	-0.969739
0.515300	-1.004794
0.515400	-1.080421
0.515500	-1.069061
0.515600	-1.027190
0.515700	-1.062894
0.515800	-1.090159
0.515900	-1.124565
0.516000	-1.111906
0.516100	-1.097949
0.516200	-1.070035
0.516300	-1.194999
0.516400	-1.330999
0.516500	-1.386827
0.516600	-1.390722
0.516700	-1.346579
0.516800	-1.415390
0.516900	-1.419610
0.517000	-1.439734
0.517100	-1.463104
0.517200	-1.503028
0.517300	-1.517634
0.517400	-1.573787
0.517500	-1.613710
0.517600	-1.630264
0.517700	-1.650388
0.517800	-1.690961
0.517900	-1.735429
0.518000	-1.755228
0.518100	-1.802617
0.518200	-1.843190
0.518300	-1.930503
0.518400	-1.981138
0.518500	-2.073320
0.518600	-2.153492
0.518700	-2.407965
0.518800	-2.655947
0.518900	-2.653350
0.519000	-2.461846
0.519100	-2.303124
0.519200	-2.444318
0.519300	-2.734496
0.519400	-2.992865
0.519500	-3.068493
0.519600	-2.947098
0.519700	-2.806229
0.519800	-2.875041
0.519900	-3.071090
0.520000	-3.276552
0.520100	-3.383989
0.520200	-3.333354
0.520300	-3.359321
0.520400	-3.335626
0.520500	-3.422290
0.520600	-3.497918
0.520700	-3.537518
0.520800	-3.587828
0.520900	-3.611199
0.521000	-3.684230
0.521100	-3.764078
0.521200	-3.804651
0.521300	-3.782904
0.521400	-3.806924
0.521500	-3.835487
0.521600	-3.892939
0.521700	-3.913388
0.521800	-3.769921
0.521900	-3.630024
0.522000	-3.713118
0.522100	-3.853339
0.522200	-4.040950
0.522300	-4.101972
0.522400	-3.927669
0.522500	-3.737462
0.522600	-3.679686
0.522700	-3.826399
0.522800	-4.099375
0.522900	-4.221095
0.523000	-4.137676
0.523100	-3.980577
0.523200	-3.890342
0.523300	-3.890991
0.523400	-3.940328
0.523500	-3.949417
0.523600	-3.928643
0.523700	-3.898132
0.523800	-3.862752
0.523900	-3.808222
0.524000	-3.726102
0.524100	-3.592697
0.524200	-3.473250
0.524300	-3.441116
0.524400	-3.401841
0.524500	-3.419044
0.524600	-3.342442
0.524700	-3.153209
0.524800	-3.067195
0.524900	-2.860110
0.525000	-2.864654
0.525100	-2.796816
0.525200	-2.712100
0.525300	-2.616347
0.525400	-2.480672
0.525500	-2.352786
0.525600	-2.258007
0.525700	-2.257683
0.525800	-2.227496
0.525900	-2.208671
0.526000	-2.169396
0.526100	-2.186599
0.526200	-2.090198
0.526300	-2.089873
0.526400	-2.011649
0.526500	-1.996069
0.526600	-1.967505
0.526700	-1.992498
0.526800	-1.904861
0.526900	-1.899668
0.527000	-1.620851
0.527100	-1.421233
0.527200	-1.244011
0.527300	-1.560154
0.527400	-1.700049
0.527500	-1.791257
0.527600	-1.444927
0.527700	-1.221615
0.527800	-1.112231
0.527900	-1.158321
0.528000	-1.381958
0.528100	-1.319963
0.528200	-1.244985
0.528300	-1.025567
0.528400	-0.898980
0.528500	-0.926570
0.528600	-0.928842
0.528700	-0.896708
0.528800	-0.912937
0.528900	-0.884049
0.529000	-0.848021
0.529100	-0.839257
0.529200	-0.871715
0.529300	-0.808422
0.529400	-0.832765
0.529500	-0.852240
0.529600	-0.892488
0.529700	-0.930789
0.529800	-0.922675
0.529900	-0.862627
0.530000	-0.795438
0.530100	-0.798684
0.530200	-1.030760
0.530300	-1.179419
0.530400	-1.173577
0.530500	-0.967142
0.530600	-0.788622
0.530700	-0.862951
0.530800	-1.085939
0.530900	-1.301462
0.531000	-1.278092
0.531100	-1.097300
0.531200	-0.922350
0.531300	-0.960975
0.531400	-1.076202
0.531500	-1.208631
0.531600	-1.196622
0.531700	-1.221615
0.531800	-1.160593
0.531900	-1.211553
0.532000	-1.254398
0.532100	-1.354044
0.532200	-1.353720
0.532300	-1.327104
0.532400	-1.358264
0.532500	-1.390073
0.532600	-1.387152
0.532700	-1.347553
0.532800	-1.343009
0.532900	-1.332622
0.533000	-1.458235
0.533100	-1.536784
0.533200	-1.564698
0.533300	-1.539056
0.533400	-1.422856
0.533500	-1.489071
0.533600	-1.478684
0.533700	-1.481281
0.533800	-1.498159
0.533900	-1.502378
0.534000	-1.509844
0.534100	-1.489071
0.534200	-1.510493
0.534300	-1.537758
0.534400	-1.542951
0.534500	-1.556259
0.534600	-1.554961
0.534700	-1.579305
0.534800	-1.584822
0.534900	-1.649090
0.535000	-1.695830
0.535100	-1.728288
0.535200	-1.775028
0.535300	-1.891878
0.535400	-2.165177
0.535500	-2.330714
0.535600	-2.271640
0.535700	-2.013272
0.535800	-1.983410
0.535900	-2.133692
0.536000	-2.512805
0.536100	-2.711450
0.536200	-2.742611
0.536300	-2.621865
0.536400	-2.526438
0.536500	-2.592328
0.536600	-2.818239
0.536700	-2.944177
0.536800	-3.045772
0.536900	-2.994488
0.537000	-2.954564
0.537100	-2.968521
0.537200	-3.021428
0.537300	-3.089915
0.537400	-3.120751
0.537500	-3.141849
0.537600	-3.159377
0.537700	-3.224618
0.537800	-3.304790
0.537900	-3.362242
0.538000	-3.372304
0.538100	-3.357049
0.538200	-3.417746
0.538300	-3.504085
0.538400	-3.481040
0.538500	-3.310633
0.538600	-3.272981
0.538700	-3.368084
0.538800	-3.577766
0.538900	-3.771544
0.539000	-3.760508
0.539100	-3.584583
0.539200	-3.415149
0.539300	-3.443388
0.539400	-3.602759
0.539500	-3.838733
0.539600	-3.925073
0.539700	-3.809196
0.539800	-3.695266
0.539900	-3.625480
0.540000	-3.640411
0.540100	-3.678712
0.540200	-3.664755
0.540300	-3.665729
0.540400	-3.601136
0.540500	-3.556344
0.540600	-3.470329
0.540700	-3.333678
0.540800	-3.231110
0.540900	-3.122049
0.541000	-3.057457
0.541100	-3.019156
0.541200	-2.982478
0.541300	-2.862382
0.541400	-2.704634
0.541500	-2.638419
0.541600	-2.377454
0.541700	-2.385893
0.541800	-2.344671
0.541900	-2.261253
0.542000	-2.174265
0.542100	-2.041186
0.542200	-1.905186
0.542300	-1.849682
0.542400	-1.793854
0.542500	-1.816899
0.542600	-1.743868
0.542700	-1.761720
0.542800	-1.693882
0.542900	-1.643572
0.543000	-1.591639
0.543100	-1.479658
0.543200	-1.531591
0.543300	-1.427075
0.543400	-1.520880
0.543500	-1.381309
0.543600	-1.308603
0.543700	-0.967791
0.543800	-0.728899
0.543900	-0.756813
0.544000	-1.018102
0.544100	-1.175199
0.544200	-0.994083
0.544300	-0.765252
0.544400	-0.540642
0.544500	-0.488709
0.544600	-0.647104
0.544700	-0.670474
0.544800	-0.720785
0.544900	-0.476050
0.545000	-0.412432
0.545100	-0.267019
0.545200	-0.317979
0.545300	-0.351735
0.545400	-0.280652
0.545500	-0.246895
0.545600	-0.141406
0.545700	-0.114466
0.545800	-0.050848
0.545900	-0.021960
0.546000	0.069247
0.546100	-0.044356
0.546200	-0.008003
0.546300	-0.074218
0.546400	-0.073568
0.546500	-0.036566
0.546600	-0.000538
0.546700	0.032894
0.546800	-0.069674
0.546900	-0.345243
0.547000	-0.381272
0.547100	-0.347191
0.547200	-0.168022
0.547300	-0.125502
0.547400	-0.228719
0.547500	-0.499744
0.547600	-0.577969
0.547700	-0.537396
0.547800	-0.389062
0.547900	-0.316356
0.548000	-0.391983
0.548100	-0.515649
0.548200	-0.626007
0.548300	-0.683458
0.548400	-0.715591
0.548500	-0.726627
0.548600	-0.824002
0.548700	-0.900278
0.548800	-1.011935
0.548900	-1.005118
0.549000	-1.047963
0.549100	-1.105090
0.549200	-1.149233
0.549300	-1.194025
0.549400	-1.181042
0.549500	-1.197271
0.549600	-1.267056
0.549700	-1.435839
0.549800	-1.534837
0.549900	-1.595209
0.550000	-1.570865
0.550100	-1.573462
0.550200	-1.619228
0.550300	-1.650388
0.550400	-1.670188
0.550500	-1.668240
0.550600	-1.685118
0.550700	-1.681873
0.550800	-1.723419
0.550900	-1.739973
0.551000	-1.761720
0.551100	-1.789634
0.551200	-1.787362
0.551300	-1.835076
0.551400	-1.842216
0.551500	-1.882789
0.551600	-1.891878
0.551700	-1.948355
0.551800	-1.968804
0.551900	-2.034694
0.552000	-2.228795
0.552100	-2.520920
0.552200	-2.638095
0.552300	-2.561817
0.552400	-2.366418
0.552500	-2.416404
0.552600	-2.682238
0.552700	-2.964626
0.552800	-3.162298
0.552900	-3.124321
0.553000	-2.987671
0.553100	-2.960731
0.553200	-3.111987
0.553300	-3.341793
0.553400	-3.494023
0.553500	-3.530377
0.553600	-3.484935
0.553700	-3.465460
0.553800	-3.505059
0.553900	-3.540439
0.554000	-3.601786
0.554100	-3.609900
0.554200	-3.617041
0.554300	-3.680335
0.554400	-3.727075
0.554500	-3.802055
0.554600	-3.779009
0.554700	-3.757587
0.554800	-3.786799
0.554900	-3.866323
0.555000	-3.884824
0.555100	-3.816661
0.555200	-3.615743
0.555300	-3.612821
0.555400	-3.773167
0.555500	-3.931564
0.555600	-4.039651
0.555700	-3.934486
0.555800	-3.708899
0.555900	-3.548229
0.556000	-3.617041
0.556100	-3.801406
0.556200	-3.928968
0.556300	-3.893588
0.556400	-3.724803
0.556500	-3.600812
0.556600	-3.558616
0.556700	-3.568678
0.556800	-3.581337
0.556900	-3.529079
0.557000	-3.485260
0.557100	-3.411254
0.557200	-3.351855
0.557300	-3.294079
0.557400	-3.225267
0.557500	-3.087643
0.557600	-2.967547
0.557700	-2.848749
0.557800	-2.847127
0.557900	-2.799413
0.558000	-2.608882
0.558100	-2.483593
0.558200	-2.207048
0.558300	-2.197310
0.558400	-2.127200
0.558500	-2.058389
0.558600	-1.949004
0.558700	-1.830207
0.558800	-1.689663
0.558900	-1.583849
0.559000	-1.541004
0.559100	-1.541004
0.559200	-1.436813
0.559300	-1.480631
0.559400	-1.459209
0.559500	-1.459534
0.559600	-1.421882
0.559700	-1.413443
0.559800	-1.393643
0.559900	-1.364106
0.560000	-1.441357
0.560100	-1.387476
0.560200	-1.400460
0.560300	-1.237519
0.560400	-1.028488
0.560500	-0.852240
0.560600	-1.042445
0.560700	-1.330999
0.560800	-1.315094
0.560900	-1.210579
0.561000	-0.901577
0.561100	-0.803228
0.561200	-0.752269
0.561300	-0.994732
0.561400	-1.010636
0.561500	-0.914560
0.561600	-0.818808
0.561700	-0.648078
0.561800	-0.661061
0.561900	-0.706828
0.562000	-0.761357
0.562100	-0.715591
0.562200	-0.705205
0.562300	-0.667878
0.562400	-0.679887
0.562500	-0.698713
0.562600	-0.676317
0.562700	-0.690274
0.562800	-0.697090
0.562900	-0.806799
0.563000	-0.865224
0.563100	-0.932087
0.563200	-0.860355
0.563300	-0.867496
0.563400	-0.787973
0.563500	-1.016154
0.563600	-1.212202
0.563700	-1.196297
0.563800	-1.128784
0.563900	-0.875286
0.564000	-0.963572
0.564100	-1.133978
0.564200	-1.396565
0.564300	-1.447199
0.564400	-1.340736
0.564500	-1.170006
0.564600	-1.160918
0.564700	-1.267705
0.564800	-1.433242
0.564900	-1.447524
0.565000	-1.509195
0.565100	-1.442006
0.565200	-1.468946
0.565300	-1.565997
0.565400	-1.661749
0.565500	-1.677653
0.565600	-1.650388
0.565700	-1.665643
0.565800	-1.731209
0.565900	-1.756527
0.566000	-1.781520
0.566100	-1.803916
0.566200	-1.793204
0.566300	-1.910379
0.566400	-2.035343
0.566500	-2.101883
0.566600	-2.140508
0.566700	-2.132718
0.566800	-2.169396
0.566900	-2.198284
0.567000	-2.234962
0.567100	-2.271315
0.567200	-2.278131
0.567300	-2.314485
0.567400	-2.341425
0.567500	-2.415106
0.567600	-2.420948
0.567700	-2.436204
0.567800	-2.482619
0.567900	-2.515077
0.568000	-2.533903
0.568100	-2.581292
0.568200	-2.568958
0.568300	-2.650753
0.568400	-2.666333
0.568500	-2.718591
0.568600	-2.810124
0.568700	-3.035061
0.568800	-3.264217
0.568900	-3.203845
0.569000	-3.080827
0.569100	-2.940282
0.569200	-3.059080
0.569300	-3.369383
0.569400	-3.661834
0.569500	-3.705977
0.569600	-3.556993
0.569700	-3.434949
0.569800	-3.440142
0.569900	-3.611199
0.570000	-3.772842
0.570100	-3.866647
0.570200	-3.804976
0.570300	-3.760832
0.570400	-3.788422
0.570500	-3.828022
0.570600	-3.855611
0.570700	-3.864051
0.570800	-3.881254
0.570900	-3.874113
0.571000	-3.887421
0.571100	-3.922476
0.571200	-3.978305
0.571300	-3.953636
0.571400	-3.929941
0.571500	-3.974085
0.571600	-4.022448
0.571700	-4.002973
0.571800	-3.850418
0.571900	-3.736488
0.572000	-3.765701
0.572100	-3.908519
0.572200	-4.106192
0.572300	-4.141247
0.572400	-3.987069
0.572500	-3.792966
0.572600	-3.748823
0.572700	-3.884499
0.572800	-4.126316
0.572900	-4.217849
0.573000	-4.181496
0.573100	-4.042573
0.573200	-3.956882
0.573300	-3.974085
0.573400	-3.981226
0.573500	-4.040625
0.573600	-4.025045
0.573700	-3.974410
0.573800	-3.903650
0.573900	-3.858208
0.574000	-3.811792
0.574100	-3.707925
0.574200	-3.584907
0.574300	-3.528105
0.574400	-3.494673
0.574500	-3.504410
0.574600	-3.408333
0.574700	-3.171062
0.574800	-3.076932
0.574900	-2.908798
0.575000	-2.943853
0.575100	-2.888349
0.575200	-2.803308
0.575300	-2.740663
0.575400	-2.649130
0.575500	-2.538123
0.575600	-2.490409
0.575700	-2.494629
0.575800	-2.519297
0.575900	-2.488462
0.576000	-2.544939
0.576100	-2.532929
0.576200	-2.545264
0.576300	-2.507287
0.576400	-2.509884
0.576500	-2.474504
0.576600	-2.541044
0.576700	-2.492681
0.576800	-2.523192
0.576900	-2.434905
0.577000	-2.316757
0.577100	-2.018465
0.577200	-1.977568
0.577300	-2.295984
0.577400	-2.412834
0.577500	-2.467364
0.577600	-2.233988
0.577700	-2.016193
0.577800	-1.927906
0.577900	-2.130446
0.578000	-2.299879
0.578100	-2.282676
0.578200	-2.253463
0.578300	-2.109997
0.578400	-1.993797
0.578500	-2.092145
0.578600	-2.104804
0.578700	-2.209644
0.578800	-2.113568
0.578900	-2.166799
0.579000	-2.133367
0.579100	-2.168098
0.579200	-2.116489
0.579300	-2.146351
0.579400	-2.119086
0.579500	-2.163878
0.579600	-2.204776
0.579700	-2.257683
0.579800	-2.240480
0.579900	-2.158685
0.580000	-2.121682
0.580100	-2.130446
0.580200	-2.433607
0.580300	-2.526762
0.580400	-2.506314
0.580500	-2.369989
0.580600	-2.122007
0.580700	-2.274561
0.580800	-2.476776
0.580900	-2.686133
0.581000	-2.662763
0.581100	-2.475154
0.581200	-2.321950
0.581300	-2.333311
0.581400	-2.510209
0.581500	-2.593302
0.581600	-2.616672
0.581700	-2.613102
0.581800	-2.528710
0.581900	-2.604013
0.582000	-2.671851
0.582100	-2.735470
0.582200	-2.700090
0.582300	-2.671527
0.582400	-2.685808
0.582500	-2.723460
0.582600	-2.733522
0.582700	-2.675746
0.582800	-2.663737
0.582900	-2.654324
0.583000	-2.781561
0.583100	-2.853943
0.583200	-2.870497
0.583300	-2.832520
0.583400	-2.708854
0.583500	-2.765331
0.583600	-2.747479
0.583700	-2.733198
0.583800	-2.710801
0.583900	-2.723785
0.584000	-2.691326
0.584100	-2.698143
0.584200	-2.669579
0.584300	-2.672176
0.584400	-2.665360
0.584500	-2.686133
0.584600	-2.678992
0.584700	-2.678992
0.584800	-2.687756
0.584900	-2.688080
0.585000	-2.744558
0.585100	-2.757541
0.585200	-2.763384
0.585300	-2.890621
0.585400	-3.189563
0.585500	-3.327836
0.585600	-3.247664
0.585700	-3.032464
0.585800	-2.931843
0.585900	-3.072388
0.586000	-3.355750
0.586100	-3.569002
0.586200	-3.522262
0.586300	-3.325239
0.586400	-3.225916
0.586500	-3.298623
0.586600	-3.522587
0.586700	-3.620612
0.586800	-3.663132
0.586900	-3.615418
0.587000	-3.561537
0.587100	-3.585232
0.587200	-3.633920
0.587300	-3.659562
0.587400	-3.708899
0.587500	-3.716689
0.587600	-3.758560
0.587700	-3.787773
0.587800	-3.860480
0.587900	-3.881578
0.588000	-3.839382
0.588100	-3.844575
0.588200	-3.865349
0.588300	-3.940977
0.588400	-3.897807
0.588500	-3.738111
0.588600	-3.685204
0.588700	-3.764727
0.588800	-3.928643
0.588900	-4.130211
0.589000	-4.097428
0.589100	-3.907220
0.589200	-3.688125
0.589300	-3.725453
0.589400	-3.915984
0.589500	-4.156827
0.589600	-4.230183
0.589700	-4.110087
0.589800	-3.956882
0.589900	-3.898781
0.590000	-3.947794
0.590100	-4.030888
0.590200	-4.064969
0.590300	-4.076979
0.590400	-4.037704
0.590500	-3.998104
0.590600	-3.971813
0.590700	-3.909493
0.590800	-3.825425
0.590900	-3.773491
0.591000	-3.744928
0.591100	-3.745252
0.591200	-3.743954
0.591300	-3.628726
0.591400	-3.490778
0.591500	-3.440791
0.591600	-3.217802
0.591700	-3.260971
0.591800	-3.213907
0.591900	-3.150288
0.592000	-3.086345
0.592100	-2.954564
0.592200	-2.888024
0.592300	-2.821160
0.592400	-2.867251
0.592500	-2.810449
0.592600	-2.843556
0.592700	-2.816940
0.592800	-2.824406
0.592900	-2.784482
0.593000	-2.783833
0.593100	-2.720214
0.593200	-2.719890
0.593300	-2.725083
0.593400	-2.757541
0.593500	-2.716968
0.593600	-2.655622
0.593700	-2.442695
0.593800	-2.173291
0.593900	-2.235611
0.594000	-2.548185
0.594100	-2.654324
0.594200	-2.499822
0.594300	-2.268069
0.594400	-2.043782
0.594500	-2.012622
0.594600	-2.182704
0.594700	-2.385244
0.594800	-2.313836
0.594900	-2.225549
0.595000	-1.972374
0.595100	-1.982436
0.595200	-1.872078
0.595300	-2.088250
0.595400	-2.028527
0.595500	-2.101234
0.595600	-2.023658
0.595700	-2.004183
0.595800	-1.997043
0.595900	-1.996393
0.596000	-2.001262
0.596100	-1.982112
0.596200	-2.046055
0.596300	-2.085329
0.596400	-2.113892
0.596500	-2.119410
0.596600	-2.063582
0.596700	-1.995095
0.596800	-2.051248
0.596900	-2.323573
0.597000	-2.374533
0.597100	-2.313836
0.597200	-2.076565
0.597300	-1.990875
0.597400	-2.129472
0.597500	-2.371936
0.597600	-2.528385
0.597700	-2.456003
0.597800	-2.255086
0.597900	-2.126876
0.598000	-2.191468
0.598100	-2.322275
0.598200	-2.368690
0.598300	-2.433931
0.598400	-2.390762
0.598500	-2.353435
0.598600	-2.391736
