LabVIEW Measurement	
Writer_Version	2
Reader_Version	2
Separator	Tab
Decimal_Separator	.
Multi_Headings	Yes
X_Columns	One
Time_Pref	Relative
Operator	as989
Description	Time Domain Data
Date	2021/11/24
Time	13:31:58.1513438224792480469
***End_of_Header***	
	
Channels	1	
Samples	15000	
Date	1903/12/31	
Time	19:00:00	
X_Dimension	Time	
X0	0.0000000000000000E+0	
Delta_X	0.000100	
***End_of_Header***		
X_Value	Untitled	Comment
0.000000	-0.755190	Tare Values:0.000000, 0.000000, 0.000000, 0.000000\0D\0A
0.000100	-0.798035
0.000200	-0.805176
0.000300	-0.864250
0.000400	-0.933386
0.000500	-0.977529
0.000600	-1.163515
0.000700	-1.381958
0.000800	-1.564698
0.000900	-1.515362
0.001000	-1.340736
0.001100	-1.249529
0.001200	-1.368975
0.001300	-1.689338
0.001400	-1.865262
0.001500	-1.884737
0.001600	-1.734780
0.001700	-1.642274
0.001800	-1.650388
0.001900	-1.808784
0.002000	-1.950627
0.002100	-1.998665
0.002200	-1.979840
0.002300	-1.894150
0.002400	-1.907458
0.002500	-1.886360
0.002600	-1.943162
0.002700	-1.978217
0.002800	-2.021711
0.002900	-2.054494
0.003000	-2.061959
0.003100	-2.091821
0.003200	-2.141482
0.003300	-2.169396
0.003400	-2.180107
0.003500	-2.214189
0.003600	-2.264499
0.003700	-2.278131
0.003800	-2.133043
0.003900	-1.973023
0.004000	-2.051897
0.004100	-2.295334
0.004200	-2.431010
0.004300	-2.457301
0.004400	-2.265148
0.004500	-2.080136
0.004600	-2.103181
0.004700	-2.301501
0.004800	-2.557922
0.004900	-2.637445
0.005000	-2.510533
0.005100	-2.380051
0.005200	-2.343373
0.005300	-2.417702
0.005400	-2.479373
0.005500	-2.481970
0.005600	-2.491058
0.005700	-2.488462
0.005800	-2.470285
0.005900	-2.459898
0.006000	-2.380051
0.006100	-2.273263
0.006200	-2.202504
0.006300	-2.183353
0.006400	-2.184976
0.006500	-2.204776
0.006600	-2.101883
0.006700	-1.986007
0.006800	-1.888307
0.006900	-1.710436
0.007000	-1.740622
0.007100	-1.693882
0.007200	-1.605596
0.007300	-1.525099
0.007400	-1.392994
0.007500	-1.271600
0.007600	-1.205061
0.007700	-1.218044
0.007800	-1.162216
0.007900	-1.162865
0.008000	-1.115152
0.008100	-1.061920
0.008200	-1.050560
0.008300	-0.966493
0.008400	-0.999276
0.008500	-0.850293
0.008600	-0.949290
0.008700	-0.877558
0.008800	-0.887944
0.008900	-0.787973
0.009000	-0.483840
0.009100	-0.325768
0.009200	-0.206322
0.009300	-0.577644
0.009400	-0.649052
0.009500	-0.590303
0.009600	-0.421520
0.009700	-0.148222
0.009800	-0.114141
0.009900	-0.129397
0.010000	-0.306943
0.010100	-0.274809
0.010200	-0.203726
0.010300	-0.023583
0.010400	0.041658
0.010500	0.113391
0.010600	0.143901
0.010700	0.088398
0.010800	0.033543
0.010900	0.095539
0.011000	0.109171
0.011100	0.139357
0.011200	0.128970
0.011300	0.169868
0.011400	0.109496
0.011500	0.086126
0.011600	0.044579
0.011700	-0.032671
0.011800	-0.036891
0.011900	-0.008652
0.012000	0.008226
0.012100	-0.045654
0.012200	-0.339401
0.012300	-0.406265
0.012400	-0.297530
0.012500	-0.097912
0.012600	-0.022285
0.012700	-0.170943
0.012800	-0.451057
0.012900	-0.587381
0.013000	-0.508508
0.013100	-0.307592
0.013200	-0.225797
0.013300	-0.326418
0.013400	-0.521491
0.013500	-0.591276
0.013600	-0.626331
0.013700	-0.612050
0.013800	-0.603611
0.013900	-0.704231
0.014000	-0.763954
0.014100	-0.806799
0.014200	-0.750971
0.014300	-0.764928
0.014400	-0.816861
0.014500	-0.857434
0.014600	-0.821080
0.014700	-0.787324
0.014800	-0.759085
0.014900	-0.787973
0.015000	-0.905472
0.015100	-0.952861
0.015200	-0.946694
0.015300	-0.904823
0.015400	-0.783753
0.015500	-0.811343
0.015600	-0.805825
0.015700	-0.777911
0.015800	-0.750646
0.015900	-0.760059
0.016000	-0.701634
0.016100	-0.702608
0.016200	-0.685405
0.016300	-0.658789
0.016400	-0.657167
0.016500	-0.655868
0.016600	-0.684756
0.016700	-0.664632
0.016800	-0.655544
0.016900	-0.675668
0.017000	-0.682484
0.017100	-0.753892
0.017200	-0.783753
0.017300	-0.989214
0.017400	-1.198894
0.017500	-1.314445
0.017600	-1.173577
0.017700	-0.955457
0.017800	-0.967467
0.017900	-1.168059
0.018000	-1.482579
0.018100	-1.590665
0.018200	-1.558207
0.018300	-1.409872
0.018400	-1.363782
0.018500	-1.458884
0.018600	-1.631562
0.018700	-1.802942
0.018800	-1.841243
0.018900	-1.803916
0.019000	-1.797099
0.019100	-1.838321
0.019200	-1.897720
0.019300	-1.979190
0.019400	-2.011973
0.019500	-2.078188
0.019600	-2.061635
0.019700	-2.115191
0.019800	-2.259630
0.019900	-2.249568
0.020000	-2.248594
0.020100	-2.257683
0.020200	-2.330389
0.020300	-2.370313
0.020400	-2.322924
0.020500	-2.111945
0.020600	-2.082083
0.020700	-2.172967
0.020800	-2.406991
0.020900	-2.520920
0.021000	-2.442046
0.021100	-2.216136
0.021200	-2.079162
0.021300	-2.153167
0.021400	-2.368041
0.021500	-2.574476
0.021600	-2.596548
0.021700	-2.451459
0.021800	-2.343048
0.021900	-2.315459
0.022000	-2.395631
0.022100	-2.467039
0.022200	-2.473855
0.022300	-2.470285
0.022400	-2.449511
0.022500	-2.429712
0.022600	-2.377129
0.022700	-2.302800
0.022800	-2.166150
0.022900	-2.076565
0.023000	-2.050274
0.023100	-2.023658
0.023200	-1.971400
0.023300	-1.790283
0.023400	-1.657204
0.023500	-1.395266
0.023600	-1.376116
0.023700	-1.369300
0.023800	-1.311199
0.023900	-1.215448
0.024000	-1.124565
0.024100	-0.975906
0.024200	-0.885023
0.024300	-0.826274
0.024400	-0.858407
0.024500	-0.818808
0.024600	-0.800956
0.024700	-0.830169
0.024800	-0.779209
0.024900	-0.779534
0.025000	-0.698713
0.025100	-0.750971
0.025200	-0.672746
0.025300	-0.776613
0.025400	-0.732145
0.025500	-0.714293
0.025600	-0.535448
0.025700	-0.328690
0.025800	-0.124852
0.025900	-0.347515
0.026000	-0.611725
0.026100	-0.599391
0.026200	-0.486761
0.026300	-0.289740
0.026400	-0.103755
0.026500	-0.128098
0.026600	-0.179058
0.026700	-0.383544
0.026800	-0.252413
0.026900	-0.164451
0.027000	0.012770
0.027100	0.100732
0.027200	0.074441
0.027300	0.078985
0.027400	-0.044356
0.027500	-0.045330
0.027600	0.003357
0.027700	0.086450
0.027800	0.090994
0.027900	0.107548
0.028000	0.148121
0.028100	0.016665
0.028200	0.046202
0.028300	-0.135239
0.028400	-0.106027
0.028500	-0.115764
0.028600	-0.051822
0.028700	-0.005406
0.028800	-0.221253
0.028900	-0.428012
0.029000	-0.479296
0.029100	-0.282275
0.029200	-0.108623
0.029300	-0.098561
0.029400	-0.292337
0.029500	-0.514350
0.029600	-0.539668
0.029700	-0.384518
0.029800	-0.218332
0.029900	-0.151793
0.030000	-0.253711
0.030100	-0.373482
0.030200	-0.364069
0.030300	-0.376728
0.030400	-0.324146
0.030500	-0.355305
0.030600	-0.387764
0.030700	-0.412756
0.030800	-0.411133
0.030900	-0.362446
0.031000	-0.406589
0.031100	-0.458198
0.031200	-0.477024
0.031300	-0.475401
0.031400	-0.457224
0.031500	-0.462093
0.031600	-0.527009
0.031700	-0.657167
0.031800	-0.706178
0.031900	-0.691897
0.032000	-0.602961
0.032100	-0.637692
0.032200	-0.663334
0.032300	-0.668527
0.032400	-0.674045
0.032500	-0.668851
0.032600	-0.689300
0.032700	-0.706828
0.032800	-0.743830
0.032900	-0.751295
0.033000	-0.774016
0.033100	-0.768823
0.033200	-0.774016
0.033300	-0.792842
0.033400	-0.824975
0.033500	-0.828221
0.033600	-0.883076
0.033700	-0.910016
0.033800	-0.931114
0.033900	-0.991811
0.034000	-1.223887
0.034100	-1.436164
0.034200	-1.476087
0.034300	-1.313147
0.034400	-1.210254
0.034500	-1.241739
0.034600	-1.529643
0.034700	-1.752956
0.034800	-1.916871
0.034900	-1.805214
0.035000	-1.711085
0.035100	-1.670188
0.035200	-1.846436
0.035300	-2.005157
0.035400	-2.113243
0.035500	-2.131744
0.035600	-2.011000
0.035700	-2.035343
0.035800	-2.020737
0.035900	-2.032097
0.036000	-2.050923
0.036100	-2.037291
0.036200	-2.057090
0.036300	-2.064231
0.036400	-2.055467
0.036500	-2.017167
0.036600	-2.044432
0.036700	-2.046379
0.036800	-2.099611
0.036900	-2.151869
0.037000	-2.175888
0.037100	-2.011649
0.037200	-1.837672
0.037300	-1.912651
0.037400	-2.112594
0.037500	-2.321626
0.037600	-2.389139
0.037700	-2.236260
0.037800	-2.065854
0.037900	-2.031124
0.038000	-2.211267
0.038100	-2.449836
0.038200	-2.583564
0.038300	-2.537474
0.038400	-2.446266
0.038500	-2.400499
0.038600	-2.445616
0.038700	-2.471908
0.038800	-2.513454
0.038900	-2.520920
0.039000	-2.561817
0.039100	-2.540070
0.039200	-2.512156
0.039300	-2.457951
0.039400	-2.375831
0.039500	-2.222952
0.039600	-2.123630
0.039700	-2.110322
0.039800	-2.120709
0.039900	-2.045405
0.040000	-1.878245
0.040100	-1.806188
0.040200	-1.679601
0.040300	-1.631887
0.040400	-1.533863
0.040500	-1.466674
0.040600	-1.358913
0.040700	-1.238168
0.040800	-1.112555
0.040900	-1.040498
0.041000	-1.008040
0.041100	-0.947992
0.041200	-0.943772
0.041300	-0.921376
0.041400	-0.968441
0.041500	-0.928192
0.041600	-0.922350
0.041700	-0.874312
0.041800	-0.840555
0.041900	-0.919753
0.042000	-0.906121
0.042100	-0.963896
0.042200	-0.902550
0.042300	-0.774016
0.042400	-0.533825
0.042500	-0.429959
0.042600	-0.784727
0.042700	-0.813615
0.042800	-0.991486
0.042900	-0.712345
0.043000	-0.526685
0.043100	-0.426713
0.043200	-0.505587
0.043300	-0.706503
0.043400	-0.657816
0.043500	-0.593873
0.043600	-0.393606
0.043700	-0.213139
0.043800	-0.285845
0.043900	-0.295258
0.044000	-0.392308
0.044100	-0.280652
0.044200	-0.253062
0.044300	-0.197234
0.044400	-0.170294
0.044500	-0.156012
0.044600	-0.074218
0.044700	-0.068051
0.044800	-0.149521
0.044900	-0.189120
0.045000	-0.280652
0.045100	-0.222227
0.045200	-0.124203
0.045300	-0.077139
0.045400	-0.113817
0.045500	-0.341024
0.045600	-0.527658
0.045700	-0.486112
0.045800	-0.356604
0.045900	-0.119335
0.046000	-0.285845
0.046100	-0.470857
0.046200	-0.663334
0.046300	-0.629252
0.046400	-0.430608
0.046500	-0.294933
0.046600	-0.318303
0.046700	-0.459172
0.046800	-0.530255
0.046900	-0.510780
0.047000	-0.519219
0.047100	-0.418599
0.047200	-0.470857
0.047300	-0.527983
0.047400	-0.601663
0.047500	-0.540317
0.047600	-0.496174
0.047700	-0.524737
0.047800	-0.586732
0.047900	-0.579591
0.048000	-0.557520
0.048100	-0.517596
0.048200	-0.504938
0.048300	-0.650999
0.048400	-0.717863
0.048500	-0.752269
0.048600	-0.734092
0.048700	-0.610751
0.048800	-0.722407
0.048900	-0.715267
0.049000	-0.724030
0.049100	-0.712995
0.049200	-0.694818
0.049300	-0.736689
0.049400	-0.726302
0.049500	-0.756813
0.049600	-0.732470
0.049700	-0.749348
0.049800	-0.779858
0.049900	-0.779858
0.050000	-0.776288
0.050100	-0.762656
0.050200	-0.774665
0.050300	-0.822703
0.050400	-0.834388
0.050500	-0.891190
0.050600	-0.999925
0.050700	-1.237195
0.050800	-1.481930
0.050900	-1.357290
0.051000	-1.176173
0.051100	-1.059648
0.051200	-1.241414
0.051300	-1.569567
0.051400	-1.849033
0.051500	-1.887658
0.051600	-1.707839
0.051700	-1.578006
0.051800	-1.608517
0.051900	-1.820794
0.052000	-1.997043
0.052100	-2.025281
0.052200	-1.940241
0.052300	-1.927582
0.052400	-1.917844
0.052500	-1.968479
0.052600	-2.016517
0.052700	-2.032747
0.052800	-2.071697
0.052900	-2.026580
0.053000	-2.148947
0.053100	-2.208346
0.053200	-2.233014
0.053300	-2.218733
0.053400	-2.213539
0.053500	-2.246971
0.053600	-2.310590
0.053700	-2.268719
0.053800	-2.120709
0.053900	-2.024632
0.054000	-2.091496
0.054100	-2.265148
0.054200	-2.463793
0.054300	-2.444967
0.054400	-2.247296
0.054500	-2.091496
0.054600	-2.111296
0.054700	-2.277807
0.054800	-2.507937
0.054900	-2.552080
0.055000	-2.457951
0.055100	-2.321626
0.055200	-2.276509
0.055300	-2.326494
0.055400	-2.366094
0.055500	-2.389464
0.055600	-2.367067
0.055700	-2.343697
0.055800	-2.331039
0.055900	-2.297606
0.056000	-2.262227
0.056100	-2.164527
0.056200	-2.044432
0.056300	-2.043133
0.056400	-1.995420
0.056500	-2.022035
0.056600	-1.812679
0.056700	-1.611438
0.056800	-1.556259
0.056900	-1.376116
0.057000	-1.426426
0.057100	-1.348526
0.057200	-1.242063
0.057300	-1.159620
0.057400	-1.020374
0.057500	-0.895734
0.057600	-0.835037
0.057700	-0.808422
0.057800	-0.849644
0.057900	-0.808746
0.058000	-0.855162
0.058100	-0.820107
0.058200	-0.791219
0.058300	-0.798684
0.058400	-0.781481
0.058500	-0.779209
0.058600	-0.883400
0.058700	-0.866522
0.058800	-0.927868
0.058900	-0.828870
0.059000	-0.711696
0.059100	-0.414379
0.059200	-0.443267
0.059300	-0.708775
0.059400	-0.928192
0.059500	-0.842503
0.059600	-0.626980
0.059700	-0.425415
0.059800	-0.387764
0.059900	-0.532202
0.060000	-0.726952
0.060100	-0.690274
0.060200	-0.480269
0.060300	-0.363745
0.060400	-0.223850
0.060500	-0.317654
0.060600	-0.400747
0.060700	-0.443592
0.060800	-0.437425
0.060900	-0.366990
0.061000	-0.323821
0.061100	-0.306618
0.061200	-0.323821
0.061300	-0.243974
0.061400	-0.315057
0.061500	-0.330313
0.061600	-0.451057
0.061700	-0.435153
0.061800	-0.455601
0.061900	-0.418923
0.062000	-0.382246
0.062100	-0.413406
0.062200	-0.672746
0.062300	-0.705854
0.062400	-0.673071
0.062500	-0.463391
0.062600	-0.387764
0.062700	-0.494226
0.062800	-0.720135
0.062900	-0.799009
0.063000	-0.768823
0.063100	-0.575047
0.063200	-0.518895
0.063300	-0.569205
0.063400	-0.700011
0.063500	-0.720785
0.063600	-0.717539
0.063700	-0.706178
0.063800	-0.689300
0.063900	-0.752594
0.064000	-0.771419
0.064100	-0.782780
0.064200	-0.744479
0.064300	-0.721758
0.064400	-0.761357
0.064500	-0.792842
0.064600	-0.774990
0.064700	-0.709749
0.064800	-0.682808
0.064900	-0.701959
0.065000	-0.836660
0.065100	-0.879830
0.065200	-0.893787
0.065300	-0.857758
0.065400	-0.774990
0.065500	-0.816212
0.065600	-0.795438
0.065700	-0.774341
0.065800	-0.765577
0.065900	-0.779534
0.066000	-0.783104
0.066100	-0.788947
0.066200	-0.778236
0.066300	-0.763954
0.066400	-0.774990
0.066500	-0.799658
0.066600	-0.832116
0.066700	-0.781481
0.066800	-0.805500
0.066900	-0.800632
0.067000	-0.859056
0.067100	-0.900603
0.067200	-0.877882
0.067300	-1.088861
0.067400	-1.352421
0.067500	-1.485500
0.067600	-1.330350
0.067700	-1.145338
0.067800	-1.106063
0.067900	-1.242063
0.068000	-1.586121
0.068100	-1.770159
0.068200	-1.708164
0.068300	-1.588068
0.068400	-1.512116
0.068500	-1.656880
0.068600	-1.816574
0.068700	-1.954198
0.068800	-1.935372
0.068900	-1.926933
0.069000	-1.879219
0.069100	-1.932775
0.069200	-1.967181
0.069300	-2.017167
0.069400	-2.046055
0.069500	-2.083057
0.069600	-2.122981
0.069700	-2.163229
0.069800	-2.246647
0.069900	-2.230093
0.070000	-2.200556
0.070100	-2.236260
0.070200	-2.294036
0.070300	-2.359926
0.070400	-2.243401
0.070500	-2.125577
0.070600	-2.080136
0.070700	-2.171668
0.070800	-2.360576
0.070900	-2.489111
0.071000	-2.378752
0.071100	-2.181406
0.071200	-2.056441
0.071300	-2.132718
0.071400	-2.334609
0.071500	-2.505989
0.071600	-2.535851
0.071700	-2.394657
0.071800	-2.265797
0.071900	-2.255411
0.072000	-2.298256
0.072100	-2.333635
0.072200	-2.310265
0.072300	-2.305072
0.072400	-2.264499
0.072500	-2.222303
0.072600	-2.158036
0.072700	-2.093444
0.072800	-1.971725
0.072900	-1.856498
0.073000	-1.831505
0.073100	-1.808135
0.073200	-1.772756
0.073300	-1.600727
0.073400	-1.468622
0.073500	-1.226808
0.073600	-1.227457
0.073700	-1.203114
0.073800	-1.146312
0.073900	-1.063219
0.074000	-0.951238
0.074100	-0.844775
0.074200	-0.786999
0.074300	-0.713644
0.074400	-0.761357
0.074500	-0.726627
0.074600	-0.724030
0.074700	-0.711047
0.074800	-0.693195
0.074900	-0.705854
0.075000	-0.661061
0.075100	-0.742532
0.075200	-0.631849
0.075300	-0.769472
0.075400	-0.677291
0.075500	-0.714618
0.075600	-0.551677
0.075700	-0.363420
0.075800	-0.098237
0.075900	-0.351410
0.076000	-0.604260
0.076100	-0.658140
0.076200	-0.576995
0.076300	-0.244948
0.076400	-0.145950
0.076500	-0.140432
0.076600	-0.252738
0.076700	-0.388088
0.076800	-0.309864
0.076900	-0.117387
0.077000	-0.042409
0.077100	0.016016
0.077200	-0.096289
0.077300	-0.144003
0.077400	-0.135239
0.077500	-0.088499
0.077600	-0.080385
0.077700	-0.018065
0.077800	-0.043382
0.077900	-0.046304
0.078000	-0.014495
0.078100	-0.063831
0.078200	-0.155688
0.078300	-0.138485
0.078400	-0.242676
0.078500	-0.093043
0.078600	-0.092070
0.078700	-0.016118
0.078800	-0.243325
0.078900	-0.418599
0.079000	-0.457873
0.079100	-0.342971
0.079200	-0.115115
0.079300	-0.143354
0.079400	-0.322523
0.079500	-0.545510
0.079600	-0.569205
0.079700	-0.404642
0.079800	-0.245921
0.079900	-0.228719
0.080000	-0.314084
0.080100	-0.442293
0.080200	-0.445539
0.080300	-0.462093
0.080400	-0.403344
0.080500	-0.429310
0.080600	-0.502341
0.080700	-0.548107
0.080800	-0.523439
0.080900	-0.480594
0.081000	-0.526360
0.081100	-0.545510
0.081200	-0.567582
0.081300	-0.545186
0.081400	-0.522140
0.081500	-0.487735
0.081600	-0.546160
0.081700	-0.640613
0.081800	-0.664632
0.081900	-0.663658
0.082000	-0.623410
0.082100	-0.596470
0.082200	-0.569854
0.082300	-0.547458
0.082400	-0.530580
0.082500	-0.515324
0.082600	-0.491954
0.082700	-0.502341
0.082800	-0.505587
0.082900	-0.501043
0.083000	-0.508833
0.083100	-0.510456
0.083200	-0.508183
0.083300	-0.500718
0.083400	-0.487410
0.083500	-0.527334
0.083600	-0.529281
0.083700	-0.558169
0.083800	-0.563362
0.083900	-0.636393
0.084000	-0.831142
0.084100	-1.090808
0.084200	-1.033032
0.084300	-0.900278
0.084400	-0.722407
0.084500	-0.846073
0.084600	-1.136250
0.084700	-1.380985
0.084800	-1.439734
0.084900	-1.317042
0.085000	-1.185262
0.085100	-1.216746
0.085200	-1.385204
0.085300	-1.582875
0.085400	-1.719849
0.085500	-1.712708
0.085600	-1.675381
0.085700	-1.650064
0.085800	-1.680899
0.085900	-1.769510
0.086000	-1.819820
0.086100	-1.834102
0.086200	-1.853577
0.086300	-1.899018
0.086400	-1.884412
0.086500	-1.985358
0.086600	-2.010026
0.086700	-1.994446
0.086800	-2.034370
0.086900	-2.037615
0.087000	-2.084680
0.087100	-1.958742
0.087200	-1.830532
0.087300	-1.838646
0.087400	-1.996718
0.087500	-2.191468
0.087600	-2.267745
0.087700	-2.139534
0.087800	-1.954847
0.087900	-1.922713
0.088000	-2.084031
0.088100	-2.285597
0.088200	-2.407640
0.088300	-2.365769
0.088400	-2.256709
0.088500	-2.198284
0.088600	-2.224900
0.088700	-2.272289
0.088800	-2.303124
0.088900	-2.277158
0.089000	-2.274236
0.089100	-2.262551
0.089200	-2.219706
0.089300	-2.162904
0.089400	-2.048651
0.089500	-1.950627
0.089600	-1.924011
0.089700	-1.883763
0.089800	-1.894150
0.089900	-1.798398
0.090000	-1.611763
0.090100	-1.517634
0.090200	-1.264784
0.090300	-1.304059
0.090400	-1.254398
0.090500	-1.175524
0.090600	-1.077176
0.090700	-0.958054
0.090800	-0.803878
0.090900	-0.779209
0.091000	-0.740584
0.091100	-0.778885
0.091200	-0.723381
0.091300	-0.719162
0.091400	-0.677940
0.091500	-0.624708
0.091600	-0.632498
0.091700	-0.548432
0.091800	-0.619515
0.091900	-0.534150
0.092000	-0.697415
0.092100	-0.574074
0.092200	-0.624384
0.092300	-0.415028
0.092400	-0.189120
0.092500	-0.101807
0.092600	-0.369587
0.092700	-0.542914
0.092800	-0.523439
0.092900	-0.326418
0.093000	-0.160881
0.093100	-0.009626
0.093200	-0.161206
0.093300	-0.255010
0.093400	-0.360174
0.093500	-0.205998
0.093600	-0.000862
0.093700	-0.012547
0.093800	0.087099
0.093900	-0.033645
0.094000	-0.107000
0.094100	-0.079086
0.094200	-0.060585
0.094300	-0.016442
0.094400	-0.037865
0.094500	-0.017740
0.094600	-0.036242
0.094700	0.077687
0.094800	-0.108948
0.094900	-0.063831
0.095000	-0.198857
0.095100	-0.173215
0.095200	-0.118685
0.095300	-0.074867
0.095400	-0.057664
0.095500	-0.371210
0.095600	-0.446513
0.095700	-0.436451
0.095800	-0.285520
0.095900	-0.071296
0.096000	-0.162179
0.096100	-0.340699
0.096200	-0.513052
0.096300	-0.446188
0.096400	-0.287792
0.096500	-0.132642
0.096600	-0.103430
0.096700	-0.233912
0.096800	-0.319277
0.096900	-0.289091
0.097000	-0.309215
0.097100	-0.234561
0.097200	-0.298179
0.097300	-0.335506
0.097400	-0.379324
0.097500	-0.342647
0.097600	-0.296881
0.097700	-0.325768
0.097800	-0.361797
0.097900	-0.342322
0.098000	-0.297205
0.098100	-0.267668
0.098200	-0.240403
0.098300	-0.350761
0.098400	-0.443267
0.098500	-0.447487
0.098600	-0.408212
0.098700	-0.268967
0.098800	-0.335831
0.098900	-0.335831
0.099000	-0.307267
0.099100	-0.292337
0.099200	-0.314084
0.099300	-0.295258
0.099400	-0.308566
0.099500	-0.322847
0.099600	-0.311487
0.099700	-0.322198
0.099800	-0.326742
0.099900	-0.355630
0.100000	-0.358876
0.100100	-0.347515
0.100200	-0.378351
0.100300	-0.450083
0.100400	-0.461119
0.100500	-0.534475
0.100600	-0.599391
0.100700	-0.922350
0.100800	-1.026216
0.100900	-0.987266
0.101000	-0.745777
0.101100	-0.645157
0.101200	-0.737338
0.101300	-1.114178
0.101400	-1.342684
0.101500	-1.352421
0.101600	-1.201815
0.101700	-1.096651
0.101800	-1.108985
0.101900	-1.303085
0.102000	-1.444278
0.102100	-1.504001
0.102200	-1.428374
0.102300	-1.398188
0.102400	-1.449796
0.102500	-1.431295
0.102600	-1.499782
0.102700	-1.530942
0.102800	-1.535810
0.102900	-1.516336
0.103000	-1.587419
0.103100	-1.641300
0.103200	-1.661099
0.103300	-1.649739
0.103400	-1.646493
0.103500	-1.741920
0.103600	-1.771782
0.103700	-1.773730
0.103800	-1.616956
0.103900	-1.542951
0.104000	-1.625720
0.104100	-1.818522
0.104200	-2.011000
0.104300	-1.977892
0.104400	-1.790932
0.104500	-1.626044
0.104600	-1.646169
0.104700	-1.859419
0.104800	-2.066828
0.104900	-2.117463
0.105000	-1.999964
0.105100	-1.861042
0.105200	-1.812355
0.105300	-1.824040
0.105400	-1.874350
0.105500	-1.858446
0.105600	-1.822092
0.105700	-1.822742
0.105800	-1.773405
0.105900	-1.707839
0.106000	-1.663696
0.106100	-1.551066
0.106200	-1.450445
0.106300	-1.378388
0.106400	-1.358264
0.106500	-1.362483
0.106600	-1.213825
0.106700	-1.064517
0.106800	-0.807773
0.106900	-0.732470
0.107000	-0.771095
0.107100	-0.720785
0.107200	-0.628603
0.107300	-0.551353
0.107400	-0.398475
0.107500	-0.308566
0.107600	-0.264423
0.107700	-0.278704
0.107800	-0.273511
0.107900	-0.254036
0.108000	-0.275783
0.108100	-0.250466
0.108200	-0.233912
0.108300	-0.171268
0.108400	-0.166399
0.108500	-0.169645
0.108600	-0.154065
0.108700	-0.253387
0.108800	-0.168022
0.108900	-0.171268
0.109000	0.033868
0.109100	0.361371
0.109200	0.254908
0.109300	0.055940
0.109400	-0.173215
0.109500	0.017964
0.109600	0.159481
0.109700	0.564884
0.109800	0.471404
0.109900	0.347738
0.110000	0.165324
0.110100	0.218880
0.110200	0.346765
0.110300	0.568454
0.110400	0.745675
0.110500	0.657714
0.110600	0.705427
0.110700	0.567156
0.110800	0.628826
0.110900	0.647003
0.111000	0.650248
0.111100	0.680759
0.111200	0.672320
0.111300	0.697313
0.111400	0.650573
0.111500	0.657065
0.111600	0.568454
0.111700	0.626554
0.111800	0.555471
0.111900	0.652196
0.112000	0.607728
0.112100	0.593447
0.112200	0.295481
0.112300	0.262049
0.112400	0.295481
0.112500	0.489581
0.112600	0.572024
0.112700	0.467509
0.112800	0.202975
0.112900	0.069897
0.113000	0.133190
0.113100	0.321772
0.113200	0.421094
0.113300	0.391882
0.113400	0.240627
0.113500	0.156560
0.113600	0.162727
0.113700	0.185123
0.113800	0.221801
0.113900	0.150068
0.114000	0.087424
0.114100	0.092617
0.114200	0.089372
0.114300	0.090670
0.114400	0.072493
0.114500	0.011472
0.114600	0.046851
0.114700	0.069247
0.114800	0.085152
0.114900	0.054966
0.115000	-0.089148
0.115100	-0.162504
0.115200	-0.181979
0.115300	-0.157311
0.115400	-0.062857
0.115500	-0.124852
0.115600	-0.084604
0.115700	-0.111220
0.115800	-0.076490
0.115900	-0.090447
0.116000	-0.107325
0.116100	-0.103430
0.116200	-0.106027
0.116300	-0.076490
0.116400	-0.101158
0.116500	-0.105702
0.116600	-0.115764
0.116700	-0.093368
0.116800	-0.115764
0.116900	-0.103105
0.117000	-0.146924
0.117100	-0.177435
0.117200	-0.191067
0.117300	-0.391009
0.117400	-0.663009
0.117500	-0.753243
0.117600	-0.589653
0.117700	-0.338752
0.117800	-0.338427
0.117900	-0.543887
0.118000	-0.867496
0.118100	-1.073281
0.118200	-0.992784
0.118300	-0.808097
0.118400	-0.696116
0.118500	-0.851591
0.118600	-1.027839
0.118700	-1.199219
0.118800	-1.212526
0.118900	-1.164813
0.119000	-1.138846
0.119100	-1.122942
0.119200	-1.163515
0.119300	-1.224861
0.119400	-1.247906
0.119500	-1.275495
0.119600	-1.292374
0.119700	-1.372870
0.119800	-1.405977
0.119900	-1.399161
0.120000	-1.387801
0.120100	-1.350798
0.120200	-1.462130
0.120300	-1.482254
0.120400	-1.394293
0.120500	-1.254073
0.120600	-1.166111
0.120700	-1.285557
0.120800	-1.487772
0.120900	-1.615333
0.121000	-1.563075
0.121100	-1.338464
0.121200	-1.175524
0.121300	-1.226159
0.121400	-1.455314
0.121500	-1.658503
0.121600	-1.676679
0.121700	-1.550741
0.121800	-1.418961
0.121900	-1.360211
0.122000	-1.410197
0.122100	-1.456937
0.122200	-1.482254
0.122300	-1.475114
0.122400	-1.447849
0.122500	-1.436164
0.122600	-1.371896
0.122700	-1.311849
0.122800	-1.194025
0.122900	-1.119696
0.123000	-1.122942
0.123100	-1.090808
0.123200	-1.071982
0.123300	-0.916508
0.123400	-0.772069
0.123500	-0.513052
0.123600	-0.474752
0.123700	-0.489358
0.123800	-0.399449
0.123900	-0.289091
0.124000	-0.200480
0.124100	-0.018065
0.124200	0.036789
0.124300	0.135138
0.124400	0.134488
0.124500	0.172140
0.124600	0.169219
0.124700	0.151691
0.124800	0.208168
0.124900	0.207519
0.125000	0.296455
0.125100	0.240302
0.125200	0.329562
0.125300	0.192913
0.125400	0.296779
0.125500	0.236082
0.125600	0.419146
0.125700	0.559690
0.125800	0.899527
0.125900	0.661609
0.126000	0.358450
0.126100	0.296779
0.126200	0.400645
0.126300	0.692444
0.126400	0.891413
0.126500	0.853761
0.126600	0.709322
0.126700	0.597017
0.126800	0.646354
0.126900	0.769695
0.127000	0.876482
0.127100	0.927441
0.127200	0.951785
0.127300	0.853437
0.127400	0.823900
0.127500	0.868043
0.127600	0.883298
0.127700	0.908291
0.127800	0.902773
0.127900	0.908940
0.128000	0.902448
0.128100	0.858954
0.128200	0.750544
0.128300	0.748597
0.128400	0.722306
0.128500	0.752492
0.128600	0.796635
0.128700	0.781055
0.128800	0.678162
0.128900	0.447385
0.129000	0.406163
0.129100	0.529180
0.129200	0.758334
0.129300	0.732368
0.129400	0.605456
0.129500	0.375003
0.129600	0.362994
0.129700	0.458096
0.129800	0.652845
0.129900	0.698287
0.130000	0.588253
0.130100	0.498344
0.130200	0.479194
0.130300	0.457772
0.130400	0.501590
0.130500	0.480168
0.130600	0.451280
0.130700	0.404540
0.130800	0.376302
0.130900	0.455824
0.131000	0.420769
0.131100	0.389285
0.131200	0.379872
0.131300	0.411032
0.131400	0.430831
0.131500	0.468158
0.131600	0.444788
0.131700	0.310412
0.131800	0.250689
0.131900	0.232512
0.132000	0.208818
0.132100	0.223748
0.132200	0.186421
0.132300	0.195185
0.132400	0.175386
0.132500	0.182851
0.132600	0.208818
0.132700	0.201028
0.132800	0.230889
0.132900	0.194861
0.133000	0.186097
0.133100	0.172464
0.133200	0.158507
0.133300	0.170192
0.133400	0.140331
0.133500	0.105276
0.133600	0.038088
0.133700	0.030298
0.133800	-0.019039
0.133900	-0.073568
0.134000	-0.312785
0.134100	-0.580241
0.134200	-0.573424
0.134300	-0.513377
0.134400	-0.272862
0.134500	-0.348165
0.134600	-0.638665
0.134700	-0.916832
0.134800	-0.990188
0.134900	-0.884698
0.135000	-0.760059
0.135100	-0.715916
0.135200	-0.914885
0.135300	-1.119371
0.135400	-1.240765
0.135500	-1.206035
0.135600	-1.139171
0.135700	-1.155400
0.135800	-1.168708
0.135900	-1.190455
0.136000	-1.257968
0.136100	-1.286207
0.136200	-1.296269
0.136300	-1.352421
0.136400	-1.410197
0.136500	-1.481930
0.136600	-1.450445
0.136700	-1.462455
0.136800	-1.513090
0.136900	-1.547820
0.137000	-1.563725
0.137100	-1.403056
0.137200	-1.260889
0.137300	-1.323209
0.137400	-1.451744
0.137500	-1.673109
0.137600	-1.713357
0.137700	-1.566970
0.137800	-1.351772
0.137900	-1.323534
0.138000	-1.466350
0.138100	-1.707839
0.138200	-1.837672
0.138300	-1.767887
0.138400	-1.638054
0.138500	-1.588068
0.138600	-1.582875
0.138700	-1.643572
0.138800	-1.668240
0.138900	-1.632861
0.139000	-1.630264
0.139100	-1.583200
0.139200	-1.561777
0.139300	-1.508870
0.139400	-1.363782
0.139500	-1.246283
0.139600	-1.188507
0.139700	-1.189806
0.139800	-1.180393
0.139900	-1.095352
0.140000	-0.898980
0.140100	-0.791868
0.140200	-0.558818
0.140300	-0.568880
0.140400	-0.531878
0.140500	-0.447162
0.140600	-0.345893
0.140700	-0.242026
0.140800	-0.083955
0.140900	-0.035268
0.141000	-0.009301
0.141100	-0.032996
0.141200	0.027701
0.141300	0.022508
0.141400	0.036465
0.141500	0.077687
0.141600	0.077037
0.141700	0.147472
0.141800	0.087424
0.141900	0.165324
0.142000	0.098460
0.142100	0.117286
0.142200	0.248741
0.142300	0.280875
0.142400	0.708998
0.142500	0.619738
0.142600	0.527881
0.142700	0.153963
0.142800	0.340598
0.142900	0.510678
0.143000	0.707375
0.143100	0.880701
0.143200	0.707699
0.143300	0.559690
0.143400	0.524311
0.143500	0.625580
0.143600	0.825847
0.143700	0.848568
0.143800	0.973856
0.143900	0.755413
0.144000	0.815785
0.144100	0.716788
0.144200	0.780406
0.144300	0.808644
0.144400	0.804425
0.144500	0.795661
0.144600	0.801828
0.144700	0.833312
0.144800	0.715814
0.144900	0.722306
0.145000	0.571375
0.145100	0.595719
0.145200	0.627203
0.145300	0.686602
0.145400	0.744702
0.145500	0.415576
0.145600	0.313657
0.145700	0.312034
0.145800	0.470106
0.145900	0.673294
0.146000	0.571051
0.146100	0.389609
0.146200	0.197782
0.146300	0.226670
0.146400	0.446736
0.146500	0.583385
0.146600	0.596043
0.146700	0.463289
0.146800	0.338001
0.146900	0.386688
0.147000	0.349037
0.147100	0.435700
0.147200	0.370784
0.147300	0.345466
0.147400	0.304245
0.147500	0.337352
0.147600	0.372407
0.147700	0.369161
0.147800	0.325018
0.147900	0.344493
0.148000	0.388636
0.148100	0.390908
0.148200	0.387987
0.148300	0.236082
0.148400	0.172140
0.148500	0.112417
0.148600	0.116961
0.148700	0.205572
0.148800	0.135138
0.148900	0.151367
0.149000	0.139682
0.149100	0.162078
0.149200	0.136436
0.149300	0.143577
0.149400	0.136111
0.149500	0.134488
0.149600	0.142603
0.149700	0.138383
0.149800	0.160455
0.149900	0.160455
0.150000	0.150393
0.150100	0.127348
0.150200	0.119558
0.150300	0.104302
0.150400	0.075739
0.150500	0.045878
0.150600	-0.084929
0.150700	-0.338752
0.150800	-0.493577
0.150900	-0.426713
0.151000	-0.169645
0.151100	-0.126800
0.151200	-0.205024
0.151300	-0.573100
0.151400	-0.774990
0.151500	-0.824002
0.151600	-0.663009
0.151700	-0.540317
0.151800	-0.567906
0.151900	-0.749023
0.152000	-0.892164
0.152100	-0.962598
0.152200	-0.970713
0.152300	-0.960651
0.152400	-0.977204
0.152500	-1.017128
0.152600	-1.083667
0.152700	-1.135276
0.152800	-1.145013
0.152900	-1.164488
0.153000	-1.225834
0.153100	-1.319963
0.153200	-1.284908
0.153300	-1.265758
0.153400	-1.271276
0.153500	-1.328727
0.153600	-1.396565
0.153700	-1.361510
0.153800	-1.212202
0.153900	-1.099896
0.154000	-1.216421
0.154100	-1.370598
0.154200	-1.580603
0.154300	-1.567620
0.154400	-1.385853
0.154500	-1.205061
0.154600	-1.219667
0.154700	-1.418312
0.154800	-1.658503
0.154900	-1.735753
0.155000	-1.636756
0.155100	-1.486474
0.155200	-1.467973
0.155300	-1.498483
0.155400	-1.548794
0.155500	-1.577682
0.155600	-1.591314
0.155700	-1.531915
0.155800	-1.504651
0.155900	-1.446875
0.156000	-1.417662
0.156100	-1.307954
0.156200	-1.224536
0.156300	-1.193051
0.156400	-1.180393
0.156500	-1.182016
0.156600	-1.058025
0.156700	-0.892813
0.156800	-0.693195
0.156900	-0.600040
0.157000	-0.642236
0.157100	-0.605233
0.157200	-0.554274
0.157300	-0.488059
0.157400	-0.351410
0.157500	-0.280652
0.157600	-0.224824
0.157700	-0.273835
0.157800	-0.233263
0.157900	-0.247544
0.158000	-0.189120
0.158100	-0.222876
0.158200	-0.165750
0.158300	-0.126475
0.158400	-0.108623
0.158500	-0.083955
0.158600	-0.135239
0.158700	-0.140108
0.158800	-0.115115
0.158900	-0.056366
0.159000	0.157209
0.159100	0.401294
0.159200	0.440244
0.159300	0.012446
0.159400	-0.057664
0.159500	-0.022934
0.159600	0.319500
0.159700	0.505161
0.159800	0.500292
0.159900	0.370135
0.160000	0.190641
0.160100	0.184474
0.160200	0.333457
0.160300	0.567480
0.160400	0.693418
0.160500	0.654793
0.160600	0.572998
0.160700	0.509705
0.160800	0.517170
0.160900	0.593447
0.161000	0.591499
0.161100	0.628826
0.161200	0.619413
0.161300	0.672645
0.161400	0.656091
0.161500	0.567805
0.161600	0.546707
0.161700	0.502239
0.161800	0.530153
0.161900	0.599289
0.162000	0.698287
0.162100	0.564884
0.162200	0.316579
0.162300	0.266593
0.162400	0.334755
0.162500	0.519118
0.162600	0.632396
0.162700	0.482115
0.162800	0.271462
0.162900	0.154937
0.163000	0.247118
0.163100	0.449982
0.163200	0.561313
0.163300	0.469457
0.163400	0.360722
0.163500	0.285094
0.163600	0.317877
0.163700	0.322097
0.163800	0.388960
0.163900	0.296779
0.164000	0.252961
0.164100	0.214011
0.164200	0.248092
0.164300	0.225696
0.164400	0.181877
0.164500	0.150717
0.164600	0.146173
0.164700	0.167596
0.164800	0.206221
0.164900	0.169868
0.165000	0.010498
0.165100	-0.036891
0.165200	-0.031697
0.165300	-0.017416
0.165400	0.053343
0.165500	0.048799
0.165600	0.058212
0.165700	0.047825
0.165800	0.064379
0.165900	0.082555
0.166000	0.071844
0.166100	0.084503
0.166200	0.070221
0.166300	0.097486
0.166400	0.085152
0.166500	0.079959
0.166600	0.077362
0.166700	0.059835
0.166800	0.034193
0.166900	-0.014819
0.167000	-0.032996
0.167100	-0.098237
0.167200	-0.126475
0.167300	-0.293635
0.167400	-0.559143
0.167500	-0.618541
0.167600	-0.562713
0.167700	-0.364069
0.167800	-0.358551
0.167900	-0.564661
0.168000	-0.848345
0.168100	-1.008040
0.168200	-0.936307
0.168300	-0.766551
0.168400	-0.730197
0.168500	-0.852565
0.168600	-1.025243
0.168700	-1.169682
0.168800	-1.148908
0.168900	-1.070359
0.169000	-1.044393
0.169100	-1.089185
0.169200	-1.124889
0.169300	-1.182340
0.169400	-1.221290
0.169500	-1.185262
0.169600	-1.225185
0.169700	-1.288154
0.169800	-1.364756
0.169900	-1.359887
0.170000	-1.366703
0.170100	-1.392020
0.170200	-1.470569
0.170300	-1.485176
0.170400	-1.420908
0.170500	-1.267056
0.170600	-1.237519
0.170700	-1.364756
0.170800	-1.575085
0.170900	-1.732832
0.171000	-1.655581
0.171100	-1.466674
0.171200	-1.323209
0.171300	-1.401433
0.171400	-1.648441
0.171500	-1.858121
0.171600	-1.882789
0.171700	-1.762045
0.171800	-1.655906
0.171900	-1.638054
0.172000	-1.686741
0.172100	-1.752956
0.172200	-1.785415
0.172300	-1.768861
0.172400	-1.721796
0.172500	-1.688364
0.172600	-1.619228
0.172700	-1.542627
0.172800	-1.428374
0.172900	-1.392020
0.173000	-1.346579
0.173100	-1.349500
0.173200	-1.332946
0.173300	-1.151505
0.173400	-1.044717
0.173500	-0.982398
0.173600	-0.821080
0.173700	-0.825300
0.173800	-0.770446
0.173900	-0.688002
0.174000	-0.606856
0.174100	-0.458522
0.174200	-0.378026
0.174300	-0.329014
0.174400	-0.379000
0.174500	-0.323821
0.174600	-0.365043
0.174700	-0.351735
0.174800	-0.348165
0.174900	-0.289415
0.175000	-0.288442
0.175100	-0.279029
0.175200	-0.313110
0.175300	-0.332585
0.175400	-0.355305
0.175500	-0.239754
0.175600	-0.224174
0.175700	0.033219
0.175800	0.185772
0.175900	0.022832
0.176000	-0.242676
0.176100	-0.295258
0.176200	-0.152117
0.176300	0.082880
0.176400	0.232837
0.176500	0.176359
0.176600	-0.024881
0.176700	-0.067401
0.176800	-0.112843
0.176900	0.163376
0.177000	0.239977
0.177100	0.283471
0.177200	0.225696
0.177300	0.190641
0.177400	0.253610
0.177500	0.210116
0.177600	0.255882
0.177700	0.241276
0.177800	0.270488
0.177900	0.246469
0.178000	0.288665
0.178100	0.300674
0.178200	0.169868
0.178300	0.207195
0.178400	0.134164
0.178500	0.236407
0.178600	0.212713
0.178700	0.331509
0.178800	0.074765
0.178900	-0.106676
0.179000	-0.103105
0.179100	0.003357
0.179200	0.246794
0.179300	0.207519
0.179400	0.039711
0.179500	-0.174513
0.179600	-0.238781
0.179700	-0.129721
0.179800	0.060808
0.179900	0.166622
0.180000	0.080608
0.180100	-0.051822
0.180200	-0.105377
0.180300	-0.126151
0.180400	-0.088824
0.180500	-0.040137
0.180600	-0.088499
0.180700	-0.151468
0.180800	-0.190742
0.180900	-0.152442
0.181000	-0.161855
0.181100	-0.177110
0.181200	-0.209244
0.181300	-0.180680
0.181400	-0.184575
0.181500	-0.149521
0.181600	-0.230017
0.181700	-0.331286
0.181800	-0.403344
0.181900	-0.415028
0.182000	-0.262475
0.182100	-0.341673
0.182200	-0.361797
0.182300	-0.353683
0.182400	-0.360174
0.182500	-0.353683
0.182600	-0.372508
0.182700	-0.392957
0.182800	-0.374456
0.182900	-0.404966
0.183000	-0.407238
0.183100	-0.433205
0.183200	-0.417950
0.183300	-0.435802
0.183400	-0.438398
0.183500	-0.430933
0.183600	-0.489033
0.183700	-0.523439
0.183800	-0.546160
0.183900	-0.599391
0.184000	-0.797710
0.184100	-1.082044
0.184200	-1.006417
0.184300	-0.909367
0.184400	-0.728899
0.184500	-0.821080
0.184600	-1.106388
0.184700	-1.382283
0.184800	-1.470569
0.184900	-1.308603
0.185000	-1.190130
0.185100	-1.216097
0.185200	-1.374818
0.185300	-1.565023
0.185400	-1.614359
0.185500	-1.632861
0.185600	-1.531266
0.185700	-1.606569
0.185800	-1.598130
0.185900	-1.666942
0.186000	-1.732183
0.186100	-1.739324
0.186200	-1.767887
0.186300	-1.798722
0.186400	-1.856174
0.186500	-1.914923
0.186600	-1.900317
0.186700	-1.928556
0.186800	-1.987305
0.186900	-2.072670
0.187000	-2.033071
0.187100	-1.952899
0.187200	-1.791582
0.187300	-1.889606
0.187400	-2.044432
0.187500	-2.296957
0.187600	-2.329740
0.187700	-2.197635
0.187800	-2.006131
0.187900	-1.963935
0.188000	-2.114866
0.188100	-2.341101
0.188200	-2.493655
0.188300	-2.456328
0.188400	-2.331039
0.188500	-2.255411
0.188600	-2.257358
0.188700	-2.305072
0.188800	-2.320976
0.188900	-2.325845
0.189000	-2.316432
0.189100	-2.296633
0.189200	-2.276833
0.189300	-2.203802
0.189400	-2.081110
0.189500	-1.963286
0.189600	-1.932126
0.189700	-1.956145
0.189800	-1.981787
0.189900	-1.904212
0.190000	-1.724068
0.190100	-1.652985
0.190200	-1.474464
0.190300	-1.476736
0.190400	-1.450770
0.190500	-1.364106
0.190600	-1.300488
0.190700	-1.189481
0.190800	-1.056402
0.190900	-1.013882
0.191000	-0.966169
0.191100	-0.969090
0.191200	-0.953834
0.191300	-0.951238
0.191400	-1.006741
0.191500	-0.947018
0.191600	-0.988565
0.191700	-0.898655
0.191800	-0.959028
0.191900	-0.925920
0.192000	-1.018102
0.192100	-0.992784
0.192200	-1.020049
0.192300	-0.828546
0.192400	-0.585434
0.192500	-0.557195
0.192600	-0.739935
0.192700	-0.983371
0.192800	-0.997328
0.192900	-0.753892
0.193000	-0.565634
0.193100	-0.384842
0.193200	-0.638341
0.193300	-0.714942
0.193400	-0.780832
0.193500	-0.676317
0.193600	-0.508833
0.193700	-0.396527
0.193800	-0.399773
0.193900	-0.459821
0.194000	-0.550054
0.194100	-0.465988
0.194200	-0.484164
0.194300	-0.413081
0.194400	-0.443592
0.194500	-0.388413
0.194600	-0.348814
0.194700	-0.351410
0.194800	-0.429635
0.194900	-0.436775
0.195000	-0.441969
0.195100	-0.449759
0.195200	-0.380298
0.195300	-0.326418
0.195400	-0.365692
0.195500	-0.674369
0.195600	-0.771419
0.195700	-0.750646
0.195800	-0.589978
0.195900	-0.357577
0.196000	-0.486436
0.196100	-0.655868
0.196200	-0.901252
0.196300	-0.859706
0.196400	-0.685081
0.196500	-0.530255
0.196600	-0.534475
0.196700	-0.670150
0.196800	-0.779858
0.196900	-0.767849
0.197000	-0.784078
0.197100	-0.708450
0.197200	-0.816536
0.197300	-0.841529
0.197400	-0.895734
0.197500	-0.878856
0.197600	-0.848021
0.197700	-0.904173
0.197800	-0.946044
0.197900	-0.984994
0.198000	-0.944097
0.198100	-0.883400
0.198200	-0.906121
0.198300	-1.029137
0.198400	-1.131381
0.198500	-1.152154
0.198600	-1.071333
0.198700	-0.985319
0.198800	-1.039849
0.198900	-1.065491
0.199000	-1.049911
0.199100	-1.047314
0.199200	-1.064192
0.199300	-1.050884
0.199400	-1.072956
0.199500	-1.062894
0.199600	-1.054779
0.199700	-1.086913
0.199800	-1.078799
0.199900	-1.101844
0.200000	-1.109958
0.200100	-1.138197
0.200200	-1.188507
0.200300	-1.216421
0.200400	-1.261863
0.200500	-1.308278
0.200600	-1.376440
0.200700	-1.663696
0.200800	-1.775677
0.200900	-1.741920
0.201000	-1.493615
0.201100	-1.390073
0.201200	-1.522503
0.201300	-1.893501
0.201400	-2.086627
0.201500	-2.143754
0.201600	-1.952899
0.201700	-1.832804
0.201800	-1.852279
0.201900	-2.078513
0.202000	-2.235611
0.202100	-2.304747
0.202200	-2.245349
0.202300	-2.249568
0.202400	-2.258007
0.202500	-2.289492
0.202600	-2.364795
0.202700	-2.420299
0.202800	-2.413483
0.202900	-2.441397
0.203000	-2.505015
0.203100	-2.622190
0.203200	-2.674123
0.203300	-2.662438
0.203400	-2.681589
0.203500	-2.754945
0.203600	-2.807203
0.203700	-2.796167
0.203800	-2.616672
0.203900	-2.547211
0.204000	-2.640367
0.204100	-2.819212
0.204200	-3.016884
0.204300	-2.984426
0.204400	-2.842907
0.204500	-2.645885
0.204600	-2.639068
0.204700	-2.836415
0.204800	-3.067844
0.204900	-3.180150
0.205000	-3.058755
0.205100	-2.935413
0.205200	-2.895490
0.205300	-2.942879
0.205400	-3.009094
0.205500	-3.031815
0.205600	-3.026946
0.205700	-3.014287
0.205800	-2.988321
0.205900	-2.965600
0.206000	-2.936712
0.206100	-2.820835
0.206200	-2.721188
0.206300	-2.658219
0.206400	-2.643612
0.206500	-2.656920
0.206600	-2.490084
0.206700	-2.333960
0.206800	-2.093768
0.206900	-2.021062
0.207000	-2.042160
0.207100	-1.986980
0.207200	-1.941214
0.207300	-1.853901
0.207400	-1.741596
0.207500	-1.613386
0.207600	-1.605596
0.207700	-1.621500
0.207800	-1.602999
0.207900	-1.605596
0.208000	-1.643572
0.208100	-1.584173
0.208200	-1.609491
0.208300	-1.537758
0.208400	-1.550417
0.208500	-1.488421
0.208600	-1.561777
0.208700	-1.568269
0.208800	-1.512441
0.208900	-1.539705
0.209000	-1.215123
0.209100	-1.034006
0.209200	-0.988240
0.209300	-1.477710
0.209400	-1.544250
0.209500	-1.526073
0.209600	-1.226483
0.209700	-1.024269
0.209800	-0.964870
0.209900	-1.098273
0.210000	-1.345281
0.210100	-1.377739
0.210200	-1.261863
0.210300	-1.027515
0.210400	-0.942474
0.210500	-0.994732
0.210600	-0.969414
0.210700	-1.006417
0.210800	-0.989863
0.210900	-0.971686
0.211000	-0.956107
0.211100	-0.934360
0.211200	-0.948317
0.211300	-0.993433
0.211400	-0.922025
0.211500	-1.040173
0.211600	-0.992460
0.211700	-1.092106
0.211800	-1.037901
0.211900	-0.984345
0.212000	-0.946369
0.212100	-1.028813
0.212200	-1.369300
0.212300	-1.403056
0.212400	-1.324832
0.212500	-1.137223
0.212600	-1.002846
0.212700	-1.176173
0.212800	-1.379037
0.212900	-1.517634
0.213000	-1.451419
0.213100	-1.229080
0.213200	-1.140145
0.213300	-1.160918
0.213400	-1.333920
0.213500	-1.390073
0.213600	-1.361834
0.213700	-1.371247
0.213800	-1.302760
0.213900	-1.404679
0.214000	-1.418961
0.214100	-1.436813
0.214200	-1.399486
0.214300	-1.386178
0.214400	-1.425128
0.214500	-1.447849
0.214600	-1.436813
0.214700	-1.400784
0.214800	-1.340736
0.214900	-1.381958
0.215000	-1.516985
0.215100	-1.581577
0.215200	-1.605596
0.215300	-1.536135
0.215400	-1.491343
0.215500	-1.523801
0.215600	-1.503677
0.215700	-1.525424
0.215800	-1.489071
0.215900	-1.522827
0.216000	-1.518283
0.216100	-1.537758
0.216200	-1.553663
0.216300	-1.568593
0.216400	-1.599753
0.216500	-1.608192
0.216600	-1.620527
0.216700	-1.649739
0.216800	-1.665968
0.216900	-1.706216
0.217000	-1.730885
0.217100	-1.782169
0.217200	-1.832154
0.217300	-2.035668
0.217400	-2.251840
0.217500	-2.356356
0.217600	-2.223277
0.217700	-2.063907
0.217800	-1.994446
0.217900	-2.255735
0.218000	-2.519946
0.218100	-2.691975
0.218200	-2.584863
0.218300	-2.455354
0.218400	-2.409912
0.218500	-2.478399
0.218600	-2.668605
0.218700	-2.810124
0.218800	-2.794219
0.218900	-2.816616
0.219000	-2.782534
0.219100	-2.797141
0.219200	-2.853618
0.219300	-2.911719
0.219400	-2.978259
0.219500	-2.982803
0.219600	-3.008445
0.219700	-3.110040
0.219800	-3.208064
0.219900	-3.185019
0.220000	-3.180475
0.220100	-3.222995
0.220200	-3.316151
0.220300	-3.337249
0.220400	-3.317774
0.220500	-3.162298
0.220600	-3.126918
0.220700	-3.262919
0.220800	-3.482663
0.220900	-3.674493
0.221000	-3.567055
0.221100	-3.385612
0.221200	-3.266489
0.221300	-3.334977
0.221400	-3.565432
0.221500	-3.766675
0.221600	-3.779334
0.221700	-3.650149
0.221800	-3.529728
0.221900	-3.532649
0.222000	-3.566730
0.222100	-3.593671
0.222200	-3.618015
0.222300	-3.585556
0.222400	-3.554721
0.222500	-3.493374
0.222600	-3.420667
0.222700	-3.289535
0.222800	-3.207740
0.222900	-3.149964
0.223000	-3.124971
0.223100	-3.092188
0.223200	-3.091214
0.223300	-2.934764
0.223400	-2.843556
0.223500	-2.765007
0.223600	-2.574476
0.223700	-2.565712
0.223800	-2.516051
0.223900	-2.420299
0.224000	-2.356356
0.224100	-2.195363
0.224200	-2.144079
0.224300	-2.107401
0.224400	-2.131095
0.224500	-2.102207
0.224600	-2.096040
0.224700	-2.119410
0.224800	-2.112269
0.224900	-2.080785
0.225000	-2.089224
0.225100	-2.025606
0.225200	-2.105453
0.225300	-2.064231
0.225400	-2.104479
0.225500	-2.070398
0.225600	-1.930828
0.225700	-1.756851
0.225800	-1.494264
0.225900	-1.733481
0.226000	-1.993797
0.226100	-1.976918
0.226200	-1.891228
0.226300	-1.583524
0.226400	-1.505624
0.226500	-1.493939
0.226600	-1.762369
0.226700	-1.745491
0.226800	-1.771457
0.226900	-1.580603
0.227000	-1.392994
0.227100	-1.368975
0.227200	-1.503028
0.227300	-1.477710
0.227400	-1.486474
0.227500	-1.456612
0.227600	-1.429997
0.227700	-1.447524
0.227800	-1.445577
0.227900	-1.424803
0.228000	-1.382283
0.228100	-1.350474
0.228200	-1.565347
0.228300	-1.491018
0.228400	-1.647142
0.228500	-1.576383
0.228600	-1.535486
0.228700	-1.468297
0.228800	-1.698751
0.228900	-1.932775
0.229000	-1.940241
0.229100	-1.845462
0.229200	-1.584173
0.229300	-1.632211
0.229400	-1.791582
0.229500	-2.033396
0.229600	-2.036317
0.229700	-1.953873
0.229800	-1.755877
0.229900	-1.735753
0.230000	-1.789309
0.230100	-1.942513
0.230200	-1.948680
0.230300	-1.946732
0.230400	-1.917195
0.230500	-1.938618
0.230600	-1.987630
0.230700	-2.030475
0.230800	-2.056441
0.230900	-2.023334
0.231000	-2.032747
0.231100	-2.068775
0.231200	-2.072021
0.231300	-2.046704
0.231400	-2.029176
0.231500	-2.011973
0.231600	-2.099611
0.231700	-2.206074
0.231800	-2.250217
0.231900	-2.241129
0.232000	-2.103181
0.232100	-2.171668
0.232200	-2.183353
0.232300	-2.170370
0.232400	-2.171993
0.232500	-2.150895
0.232600	-2.148623
0.232700	-2.162255
0.232800	-2.148623
0.232900	-2.136938
0.233000	-2.137912
0.233100	-2.140184
0.233200	-2.156088
0.233300	-2.149272
0.233400	-2.195038
0.233500	-2.198284
0.233600	-2.233339
0.233700	-2.237883
0.233800	-2.285597
0.233900	-2.343048
0.234000	-2.642963
0.234100	-2.841609
0.234200	-2.903604
0.234300	-2.659192
0.234400	-2.573502
0.234500	-2.585512
0.234600	-2.899060
0.234700	-3.188265
0.234800	-3.297325
0.234900	-3.155482
0.235000	-3.007471
0.235100	-2.984426
0.235200	-3.124321
0.235300	-3.310633
0.235400	-3.453450
0.235500	-3.400543
0.235600	-3.383015
0.235700	-3.336600
0.235800	-3.391779
0.235900	-3.456047
0.236000	-3.508954
0.236100	-3.508954
0.236200	-3.508954
0.236300	-3.566081
0.236400	-3.639762
0.236500	-3.671896
0.236600	-3.683581
0.236700	-3.724479
0.236800	-3.749472
0.236900	-3.843277
0.237000	-3.862428
0.237100	-3.780632
0.237200	-3.652421
0.237300	-3.714417
0.237400	-3.858857
0.237500	-4.045494
0.237600	-4.106841
0.237700	-3.972787
0.237800	-3.788747
0.237900	-3.744928
0.238000	-3.907220
0.238100	-4.133457
0.238200	-4.266213
0.238300	-4.224990
0.238400	-4.093533
0.238500	-4.017904
0.238600	-4.012386
0.238700	-4.069513
0.238800	-4.125991
0.238900	-4.127614
0.239000	-4.103595
0.239100	-4.059776
0.239200	-4.026668
0.239300	-3.987718
0.239400	-3.917607
0.239500	-3.805950
0.239600	-3.698837
0.239700	-3.689748
0.239800	-3.694292
0.239900	-3.565107
0.240000	-3.369707
0.240100	-3.337249
0.240200	-3.186317
0.240300	-3.151262
0.240400	-3.113935
0.240500	-3.050316
0.240600	-2.959757
0.240700	-2.853618
0.240800	-2.709503
0.240900	-2.688730
0.241000	-2.660166
0.241100	-2.682238
0.241200	-2.681913
0.241300	-2.705608
0.241400	-2.722811
0.241500	-2.688730
0.241600	-2.725732
0.241700	-2.675097
0.241800	-2.724109
0.241900	-2.730601
0.242000	-2.749427
0.242100	-2.788377
0.242200	-2.633875
0.242300	-2.580319
0.242400	-2.168098
0.242500	-2.226198
0.242600	-2.394657
0.242700	-2.743909
0.242800	-2.700739
0.242900	-2.471583
0.243000	-2.192766
0.243100	-2.010675
0.243200	-2.179134
0.243300	-2.297931
0.243400	-2.445616
0.243500	-2.340451
0.243600	-2.148298
0.243700	-2.042484
0.243800	-2.041186
0.243900	-2.102857
0.244000	-2.074942
0.244100	-2.128174
0.244200	-2.076565
0.244300	-2.060661
0.244400	-2.060336
0.244500	-2.069425
0.244600	-2.021062
0.244700	-1.997692
0.244800	-2.130122
0.244900	-2.223601
0.245000	-2.206723
0.245100	-2.318380
0.245200	-2.187573
0.245300	-2.189520
0.245400	-2.153492
0.245500	-2.464442
0.245600	-2.564739
0.245700	-2.543641
0.245800	-2.401149
0.245900	-2.189196
0.246000	-2.289167
0.246100	-2.468013
0.246200	-2.664386
0.246300	-2.652376
0.246400	-2.476776
0.246500	-2.307019
0.246600	-2.282026
0.246700	-2.401798
0.246800	-2.532605
0.246900	-2.518323
0.247000	-2.556949
0.247100	-2.454056
0.247200	-2.509235
0.247300	-2.522543
0.247400	-2.616997
0.247500	-2.578696
0.247600	-2.591030
0.247700	-2.614075
0.247800	-2.672500
0.247900	-2.667307
0.248000	-2.641016
0.248100	-2.632577
0.248200	-2.613751
0.248300	-2.748778
0.248400	-2.868874
0.248500	-2.869198
0.248600	-2.854592
0.248700	-2.743909
0.248800	-2.796167
0.248900	-2.794869
0.249000	-2.783508
0.249100	-2.780262
0.249200	-2.775393
0.249300	-2.790649
0.249400	-2.792921
0.249500	-2.811098
0.249600	-2.782210
0.249700	-2.781236
0.249800	-2.785456
0.249900	-2.822783
0.250000	-2.810773
0.250100	-2.821484
0.250200	-2.832520
0.250300	-2.853943
0.250400	-2.898086
0.250500	-2.957485
0.250600	-3.062650
0.250700	-3.311931
0.250800	-3.474548
0.250900	-3.442739
0.251000	-3.157754
0.251100	-3.139577
0.251200	-3.242470
0.251300	-3.586530
0.251400	-3.795563
0.251500	-3.816661
0.251600	-3.623857
0.251700	-3.489804
0.251800	-3.584258
0.251900	-3.790370
0.252000	-3.958505
0.252100	-4.023422
0.252200	-3.951040
0.252300	-3.899755
0.252400	-3.939354
0.252500	-4.001675
0.252600	-4.066917
0.252700	-4.122096
0.252800	-4.130860
0.252900	-4.197725
0.253000	-4.249983
0.253100	-4.327235
0.253200	-4.286986
0.253300	-4.288284
0.253400	-4.343789
0.253500	-4.441489
0.253600	-4.475895
0.253700	-4.494397
0.253800	-4.287635
0.253900	-4.170784
0.254000	-4.252255
0.254100	-4.442788
0.254200	-4.631048
0.254300	-4.620337
0.254400	-4.454148
0.254500	-4.255177
0.254600	-4.277248
0.254700	-4.473299
0.254800	-4.698887
0.254900	-4.815414
0.255000	-4.670648
0.255100	-4.553147
0.255200	-4.484659
0.255300	-4.527505
0.255400	-4.587229
0.255500	-4.643058
0.255600	-4.641435
0.255700	-4.603134
0.255800	-4.569701
0.255900	-4.526531
0.256000	-4.438568
0.256100	-4.296399
0.256200	-4.222718
0.256300	-4.213630
0.256400	-4.226288
0.256500	-4.231482
0.256600	-4.113332
0.256700	-3.930591
0.256800	-3.889693
0.256900	-3.663781
0.257000	-3.727075
0.257100	-3.650473
0.257200	-3.585232
0.257300	-3.497594
0.257400	-3.354452
0.257500	-3.242470
0.257600	-3.221697
0.257700	-3.192160
0.257800	-3.217153
0.257900	-3.168465
0.258000	-3.242470
0.258100	-3.174632
0.258200	-3.192160
0.258300	-3.129190
0.258400	-3.145744
0.258500	-3.142498
0.258600	-3.149314
0.258700	-3.216179
0.258800	-3.099004
0.258900	-3.078230
0.259000	-2.877962
0.259100	-2.540719
0.259200	-2.626410
0.259300	-2.901981
0.259400	-3.175606
0.259500	-3.007796
0.259600	-2.926000
0.259700	-2.550457
0.259800	-2.649780
0.259900	-2.767928
0.260000	-2.941580
0.260100	-2.888349
0.260200	-2.739689
0.260300	-2.552729
0.260400	-2.537149
0.260500	-2.604662
0.260600	-2.715021
0.260700	-2.689703
0.260800	-2.675422
0.260900	-2.591679
0.261000	-2.586161
0.261100	-2.564414
0.261200	-2.541693
0.261300	-2.479698
0.261400	-2.565063
0.261500	-2.563116
0.261600	-2.646209
0.261700	-2.654973
0.261800	-2.667956
0.261900	-2.559870
0.262000	-2.572853
0.262100	-2.563440
0.262200	-2.945151
0.262300	-2.952941
0.262400	-2.920807
0.262500	-2.647183
0.262600	-2.599469
0.262700	-2.670878
0.262800	-2.995461
0.262900	-3.076283
0.263000	-3.031166
0.263100	-2.797141
0.263200	-2.647183
0.263300	-2.703011
0.263400	-2.868874
0.263500	-2.974039
0.263600	-2.927299
0.263700	-2.910745
0.263800	-2.834792
0.263900	-2.931843
0.264000	-2.956187
0.264100	-3.038956
0.264200	-2.994163
0.264300	-2.970793
0.264400	-3.010392
0.264500	-2.961056
0.264600	-2.923728
0.264700	-2.897762
0.264800	-2.862382
0.264900	-2.896463
0.265000	-3.047720
0.265100	-3.138279
0.265200	-3.130489
0.265300	-3.111663
0.265400	-3.068168
0.265500	-3.094460
0.265600	-3.079204
0.265700	-3.068168
0.265800	-3.060378
0.265900	-3.076608
0.266000	-3.052588
0.266100	-3.074985
0.266200	-3.052588
0.266300	-3.063624
0.266400	-3.064922
0.266500	-3.066870
0.266600	-3.049018
0.266700	-3.064273
0.266800	-3.050641
0.266900	-3.048693
0.267000	-3.083424
0.267100	-3.102899
0.267200	-3.138603
0.267300	-3.257076
0.267400	-3.577766
0.267500	-3.629051
0.267600	-3.522911
0.267700	-3.259349
0.267800	-3.302194
0.267900	-3.510577
0.268000	-3.826399
0.268100	-4.001675
0.268200	-3.952662
0.268300	-3.785176
0.268400	-3.707925
0.268500	-3.825749
0.268600	-4.001026
0.268700	-4.165915
0.268800	-4.135404
0.268900	-4.096779
0.269000	-4.066592
0.269100	-4.113008
0.269200	-4.128913
0.269300	-4.193181
0.269400	-4.233754
0.269500	-4.236351
0.269600	-4.224990
0.269700	-4.303865
0.269800	-4.371379
0.269900	-4.367159
0.270000	-4.394749
0.270100	-4.431752
0.270200	-4.492449
0.270300	-4.545032
0.270400	-4.460640
0.270500	-4.303540
0.270600	-4.240246
0.270700	-4.358395
0.270800	-4.556068
0.270900	-4.720309
0.271000	-4.650523
0.271100	-4.460640
0.271200	-4.323340
0.271300	-4.377221
0.271400	-4.619038
0.271500	-4.835863
0.271600	-4.878708
0.271700	-4.747250
0.271800	-4.623258
0.271900	-4.588203
0.272000	-4.617415
0.272100	-4.670323
0.272200	-4.736214
0.272300	-4.704729
0.272400	-4.701483
0.272500	-4.630723
0.272600	-4.605081
0.272700	-4.492449
0.272800	-4.384037
0.272900	-4.308733
0.273000	-4.276275
0.273100	-4.256150
0.273200	-4.229859
0.273300	-4.069189
0.273400	-3.972138
0.273500	-3.756937
0.273600	-3.698512
0.273700	-3.694617
0.273800	-3.645280
0.273900	-3.583933
0.274000	-3.470329
0.274100	-3.343416
0.274200	-3.251883
0.274300	-3.188589
0.274400	-3.234031
0.274500	-3.193458
0.274600	-3.228838
0.274700	-3.202222
0.274800	-3.215205
0.274900	-3.176255
0.275000	-3.181124
0.275100	-3.126269
0.275200	-3.155157
0.275300	-3.173009
0.275400	-3.190537
0.275500	-3.182422
0.275600	-3.035710
0.275700	-2.846477
0.275800	-2.599794
0.275900	-2.775069
0.276000	-3.088942
0.276100	-3.088293
0.276200	-3.100627
0.276300	-2.740014
0.276400	-2.681264
0.276500	-2.566037
0.276600	-2.799737
0.276700	-2.908473
0.276800	-2.810449
0.276900	-2.769551
0.277000	-2.517674
0.277100	-2.556949
0.277200	-2.477101
0.277300	-2.632252
0.277400	-2.590705
0.277500	-2.593302
0.277600	-2.583240
0.277700	-2.535851
0.277800	-2.501769
0.277900	-2.492032
0.278000	-2.510858
0.278100	-2.529034
0.278200	-2.617970
0.278300	-2.641016
0.278400	-2.655622
0.278500	-2.644911
0.278600	-2.581617
0.278700	-2.574476
0.278800	-2.741312
0.278900	-3.015910
0.279000	-2.956511
0.279100	-2.878287
0.279200	-2.563116
0.279300	-2.635173
0.279400	-2.749427
0.279500	-2.995137
0.279600	-3.037333
0.279700	-2.956187
0.279800	-2.702362
0.279900	-2.660491
0.280000	-2.720539
0.280100	-2.860434
0.280200	-2.871146
0.280300	-2.871146
0.280400	-2.846477
0.280500	-2.831871
0.280600	-2.907499
0.280700	-2.924053
0.280800	-2.957161
0.280900	-2.959108
0.281000	-2.978908
0.281100	-3.014937
0.281200	-3.017533
0.281300	-2.974363
0.281400	-2.936712
0.281500	-2.879260
0.281600	-2.957810
0.281700	-3.012340
0.281800	-3.076283
0.281900	-3.083099
0.282000	-3.067519
0.282100	-3.037982
0.282200	-3.046097
0.282300	-3.006497
0.282400	-3.024025
0.282500	-2.997084
0.282600	-2.990593
0.282700	-2.962029
0.282800	-2.976960
0.282900	-2.973065
0.283000	-2.960731
0.283100	-3.006497
0.283200	-2.963003
0.283300	-2.987022
0.283400	-3.002927
0.283500	-3.006497
0.283600	-3.024025
0.283700	-3.012340
0.283800	-3.087643
0.283900	-3.134384
0.284000	-3.389832
0.284100	-3.609251
0.284200	-3.677739
0.284300	-3.476496
0.284400	-3.319072
0.284500	-3.385937
0.284600	-3.666703
0.284700	-3.923774
0.284800	-3.972787
0.284900	-3.926371
0.285000	-3.744928
0.285100	-3.781930
0.285200	-3.933836
0.285300	-4.110087
0.285400	-4.210059
0.285500	-4.140273
0.285600	-4.138326
0.285700	-4.082172
0.285800	-4.131834
0.285900	-4.167863
0.286000	-4.218498
0.286100	-4.214603
0.286200	-4.225639
0.286300	-4.262642
0.286400	-4.328858
0.286500	-4.330156
0.286600	-4.285688
0.286700	-4.302242
0.286800	-4.354500
0.286900	-4.398968
0.287000	-4.426558
0.287100	-4.290232
0.287200	-4.133132
0.287300	-4.142545
0.287400	-4.324314
0.287500	-4.506731
0.287600	-4.586904
0.287700	-4.454797
0.287800	-4.245764
0.287900	-4.185391
0.288000	-4.309707
0.288100	-4.555419
0.288200	-4.655067
0.288300	-4.610599
0.288400	-4.501538
0.288500	-4.431427
0.288600	-4.435647
0.288700	-4.472325
0.288800	-4.496994
0.288900	-4.521013
0.289000	-4.465184
0.289100	-4.480764
0.289200	-4.451227
0.289300	-4.386959
0.289400	-4.259721
0.289500	-4.140598
0.289600	-4.093857
0.289700	-4.088339
0.289800	-4.080874
0.289900	-4.039651
0.290000	-3.822504
0.290100	-3.778035
0.290200	-3.499541
0.290300	-3.551475
0.290400	-3.520315
0.290500	-3.433975
0.290600	-3.363216
0.290700	-3.235005
0.290800	-3.100627
0.290900	-3.042851
0.291000	-3.033762
0.291100	-3.010717
0.291200	-3.009743
0.291300	-3.006497
0.291400	-3.066545
0.291500	-3.019481
0.291600	-3.019481
0.291700	-2.991891
0.291800	-2.936387
0.291900	-3.033113
0.292000	-2.998383
0.292100	-3.078880
0.292200	-2.939308
0.292300	-2.921781
0.292400	-2.495278
0.292500	-2.550457
0.292600	-2.758840
0.292700	-2.991891
0.292800	-3.040254
0.292900	-2.764033
0.293000	-2.604987
0.293100	-2.409912
0.293200	-2.555650
0.293300	-2.751699
0.293400	-2.756243
0.293500	-2.694248
0.293600	-2.419650
0.293700	-2.427115
0.293800	-2.335583
0.293900	-2.527736
0.294000	-2.476127
0.294100	-2.468662
0.294200	-2.415430
0.294300	-2.384595
0.294400	-2.379401
0.294500	-2.394008
0.294600	-2.361549
0.294700	-2.359277
0.294800	-2.411535
0.294900	-2.444318
0.295000	-2.518972
0.295100	-2.523192
0.295200	-2.468337
0.295300	-2.396604
0.295400	-2.363497
0.295500	-2.688730
0.295600	-2.863031
0.295700	-2.821809
0.295800	-2.660166
0.295900	-2.440748
0.296000	-2.573502
0.296100	-2.762086
0.296200	-2.929895
0.296300	-2.922755
0.296400	-2.764358
0.296500	-2.569607
0.296600	-2.567011
0.296700	-2.691975
0.296800	-2.796491
0.296900	-2.761761
0.297000	-2.787079
0.297100	-2.721513
0.297200	-2.779288
0.297300	-2.804931
0.297400	-2.832520
0.297500	-2.780587
0.297600	-2.759164
0.297700	-2.779288
0.297800	-2.800062
0.297900	-2.813045
0.298000	-2.790000
0.298100	-2.764682
0.298200	-2.724434
0.298300	-2.849723
0.298400	-2.946449
0.298500	-2.993189
0.298600	-2.978583
0.298700	-2.880883
0.298800	-2.930545
0.298900	-2.946125
0.299000	-2.882182
0.299100	-2.882831
0.299200	-2.889322
0.299300	-2.886077
0.299400	-2.904253
0.299500	-2.876015
0.299600	-2.887050
0.299700	-2.885427
0.299800	-2.865952
0.299900	-2.895165
0.300000	-2.887050
0.300100	-2.938659
0.300200	-2.935089
0.300300	-2.971118
0.300400	-2.960731
0.300500	-3.018182
0.300600	-3.123997
0.300700	-3.325888
0.300800	-3.550826
0.300900	-3.463512
0.301000	-3.276876
0.301100	-3.121725
0.301200	-3.292132
0.301300	-3.598864
0.301400	-3.832566
0.301500	-3.868919
0.301600	-3.695266
0.301700	-3.606979
0.301800	-3.623857
0.301900	-3.844900
0.302000	-3.989665
0.302100	-4.062372
0.302200	-3.951040
0.302300	-3.902352
0.302400	-3.932538
0.302500	-3.946171
0.302600	-4.019527
0.302700	-4.048091
0.302800	-4.051012
0.302900	-4.057828
0.303000	-4.082821
0.303100	-4.186689
0.303200	-4.178899
0.303300	-4.208436
0.303400	-4.274976
0.303500	-4.313278
0.303600	-4.386959
0.303700	-4.327884
0.303800	-4.199672
0.303900	-4.130860
0.304000	-4.186040
0.304100	-4.410978
0.304200	-4.594694
0.304300	-4.567429
0.304400	-4.405136
0.304500	-4.224990
0.304600	-4.246088
0.304700	-4.436620
0.304800	-4.652471
0.304900	-4.754716
0.305000	-4.650199
0.305100	-4.519715
0.305200	-4.462912
0.305300	-4.480764
0.305400	-4.545032
0.305500	-4.580088
0.305600	-4.603458
0.305700	-4.586904
0.305800	-4.519715
0.305900	-4.507705
0.306000	-4.461938
0.306100	-4.332104
0.306200	-4.244790
0.306300	-4.195777
0.306400	-4.179873
0.306500	-4.176627
0.306600	-4.042248
0.306700	-3.878332
0.306800	-3.692669
0.306900	-3.537193
0.307000	-3.559265
0.307100	-3.482663
0.307200	-3.419044
0.307300	-3.305440
0.307400	-3.167491
0.307500	-3.069791
0.307600	-3.020454
0.307700	-3.020454
0.307800	-3.007796
0.307900	-2.999032
0.308000	-3.024025
0.308100	-3.009743
0.308200	-3.021104
0.308300	-2.911070
0.308400	-3.015586
0.308500	-2.914640
0.308600	-3.029867
0.308700	-2.990917
0.308800	-3.030517
0.308900	-2.958459
0.309000	-2.755269
0.309100	-2.476127
0.309200	-2.477101
0.309300	-2.826353
0.309400	-2.953915
0.309500	-2.849074
0.309600	-2.700090
0.309700	-2.417053
0.309800	-2.409588
0.309900	-2.429712
0.310000	-2.716644
0.310100	-2.640367
0.310200	-2.530333
0.310300	-2.346619
0.310400	-2.229444
0.310500	-2.293387
0.310600	-2.272938
0.310700	-2.381998
0.310800	-2.277482
0.310900	-2.267420
0.311000	-2.251191
0.311100	-2.204451
0.311200	-2.207048
0.311300	-2.139210
0.311400	-2.207048
0.311500	-2.181406
0.311600	-2.333960
0.311700	-2.271315
0.311800	-2.331688
0.311900	-2.180432
0.312000	-2.171993
0.312100	-2.221654
0.312200	-2.499173
0.312300	-2.589732
0.312400	-2.522218
0.312500	-2.320003
0.312600	-2.212241
0.312700	-2.357005
0.312800	-2.573178
0.312900	-2.715995
0.313000	-2.631603
0.313100	-2.425168
0.313200	-2.295984
0.313300	-2.353435
0.313400	-2.538123
0.313500	-2.610505
0.313600	-2.580968
0.313700	-2.588109
0.313800	-2.496901
0.313900	-2.601417
0.314000	-2.607259
0.314100	-2.649130
0.314200	-2.594600
0.314300	-2.574476
0.314400	-2.606610
0.314500	-2.625436
0.314600	-2.609207
0.314700	-2.565712
0.314800	-2.512156
0.314900	-2.547211
0.315000	-2.691326
0.315100	-2.727680
0.315200	-2.739689
0.315300	-2.652701
0.315400	-2.611479
0.315500	-2.624137
0.315600	-2.620892
0.315700	-2.623813
0.315800	-2.598495
0.315900	-2.597197
0.316000	-2.632577
0.316100	-2.616997
0.316200	-2.632901
0.316300	-2.624462
0.316400	-2.655297
0.316500	-2.657245
0.316600	-2.671851
0.316700	-2.687756
0.316800	-2.689379
0.316900	-2.728329
0.317000	-2.755594
0.317100	-2.784806
0.317200	-2.851995
0.317300	-2.945800
0.317400	-3.308361
0.317500	-3.360619
0.317600	-3.285965
0.317700	-3.036034
0.317800	-3.024674
0.317900	-3.236952
0.318000	-3.519016
0.318100	-3.761806
0.318200	-3.660860
0.318300	-3.496945
0.318400	-3.431703
0.318500	-3.561862
0.318600	-3.750446
0.318700	-3.849769
0.318800	-3.861129
0.318900	-3.812441
0.319000	-3.788747
0.319100	-3.849120
0.319200	-3.893912
0.319300	-3.931564
0.319400	-3.966620
0.319500	-3.972138
0.319600	-4.007193
0.319700	-4.099375
0.319800	-4.111710
0.319900	-4.147414
0.320000	-4.133781
0.320100	-4.172083
0.320200	-4.249334
0.320300	-4.268485
0.320400	-4.199672
0.320500	-4.018878
0.320600	-3.997455
0.320700	-4.115280
0.320800	-4.307435
0.320900	-4.487905
0.321000	-4.402539
0.321100	-4.212980
0.321200	-4.063346
0.321300	-4.136378
0.321400	-4.373651
0.321500	-4.572622
0.321600	-4.586580
0.321700	-4.455447
0.321800	-4.328858
0.321900	-4.285688
0.322000	-4.331130
0.322100	-4.380792
0.322200	-4.393126
0.322300	-4.353526
0.322400	-4.324314
0.322500	-4.274327
0.322600	-4.199997
0.322700	-4.070812
0.322800	-3.946171
0.322900	-3.877034
0.323000	-3.845874
0.323100	-3.832566
0.323200	-3.817635
0.323300	-3.625805
0.323400	-3.506033
0.323500	-3.439493
0.323600	-3.259024
0.323700	-3.283692
0.323800	-3.214556
0.323900	-3.148990
0.324000	-3.040579
0.324100	-2.884129
0.324200	-2.814993
0.324300	-2.764358
0.324400	-2.777341
0.324500	-2.762410
0.324600	-2.742286
0.324700	-2.768577
0.324800	-2.723460
0.324900	-2.695546
0.325000	-2.671202
0.325100	-2.631603
0.325200	-2.641990
0.325300	-2.669904
0.325400	-2.662114
0.325500	-2.637121
0.325600	-2.481645
0.325700	-2.323573
0.325800	-1.955820
0.325900	-2.317081
0.326000	-2.495927
0.326100	-2.631278
0.326200	-2.386542
0.326300	-2.107076
0.326400	-1.983085
0.326500	-1.893501
0.326600	-2.186599
0.326700	-2.319029
0.326800	-2.245673
0.326900	-2.096365
0.327000	-1.860069
0.327100	-1.920766
0.327200	-1.867209
0.327300	-2.067802
0.327400	-1.960040
0.327500	-1.949004
0.327600	-1.907458
0.327700	-1.913949
0.327800	-1.905510
0.327900	-1.920116
0.328000	-1.919143
0.328100	-1.981787
0.328200	-1.944460
0.328300	-2.054494
0.328400	-2.057090
0.328500	-2.009377
0.328600	-1.999964
0.328700	-1.902913
0.328800	-2.145377
0.328900	-2.367392
0.329000	-2.371936
0.329100	-2.249893
0.329200	-1.991525
0.329300	-1.992498
0.329400	-2.154790
0.329500	-2.409588
0.329600	-2.483268
0.329700	-2.364146
0.329800	-2.144403
0.329900	-2.088250
0.330000	-2.200556
0.330100	-2.366094
0.330200	-2.383621
0.330300	-2.383296
0.330400	-2.308967
0.330500	-2.304747
0.330600	-2.384270
0.330700	-2.422246
0.330800	-2.438800
0.330900	-2.378103
0.331000	-2.411211
0.331100	-2.443994
0.331200	-2.448538
0.331300	-2.432633
0.331400	-2.407640
0.331500	-2.379726
0.331600	-2.462819
0.331700	-2.575450
0.331800	-2.613751
0.331900	-2.568309
0.332000	-2.420299
0.332100	-2.516376
0.332200	-2.514753
0.332300	-2.501120
0.332400	-2.502094
0.332500	-2.517025
0.332600	-2.493330
0.332700	-2.499173
0.332800	-2.513130
0.332900	-2.540395
0.333000	-2.498848
0.333100	-2.547860
0.333200	-2.502094
0.333300	-2.524490
0.333400	-2.527087
0.333500	-2.535526
0.333600	-2.591030
0.333700	-2.613102
0.333800	-2.636472
0.333900	-2.687107
0.334000	-2.913342
0.334100	-3.134384
0.334200	-3.151262
0.334300	-2.982154
0.334400	-2.809475
0.334500	-2.905552
0.334600	-3.177229
0.334700	-3.445336
0.334800	-3.525184
0.334900	-3.384963
0.335000	-3.233382
0.335100	-3.275253
0.335200	-3.388533
0.335300	-3.602759
0.335400	-3.675466
0.335500	-3.678388
0.335600	-3.592697
0.335700	-3.616717
0.335800	-3.604707
0.335900	-3.681958
0.336000	-3.734541
0.336100	-3.758885
0.336200	-3.739410
0.336300	-3.827048
0.336400	-3.900080
0.336500	-3.865349
0.336600	-3.928319
0.336700	-3.930266
0.336800	-4.005245
0.336900	-4.067890
0.337000	-4.079251
0.337100	-3.972787
0.337200	-3.787773
0.337300	-3.849769
0.337400	-3.986744
0.337500	-4.171109
0.337600	-4.233754
0.337700	-4.071136
0.337800	-3.892939
0.337900	-3.815687
0.338000	-3.943249
0.338100	-4.174679
0.338200	-4.317173
0.338300	-4.285039
0.338400	-4.137352
0.338500	-4.061399
0.338600	-4.044196
0.338700	-4.064969
0.338800	-4.131185
0.338900	-4.157152
0.339000	-4.126316
0.339100	-4.101972
0.339200	-4.067890
0.339300	-4.018553
0.339400	-3.902352
0.339500	-3.775439
0.339600	-3.749796
0.339700	-3.730971
0.339800	-3.732918
0.339900	-3.630024
0.340000	-3.431378
0.340100	-3.365163
0.340200	-3.094460
0.340300	-3.126594
0.340400	-3.095758
0.340500	-3.026946
0.340600	-2.952616
0.340700	-2.833819
0.340800	-2.707231
0.340900	-2.661789
0.341000	-2.620242
0.341100	-2.640691
0.341200	-2.593627
0.341300	-2.593627
0.341400	-2.633226
0.341500	-2.545264
0.341600	-2.588109
0.341700	-2.469311
0.341800	-2.518972
0.341900	-2.474180
0.342000	-2.529684
0.342100	-2.582591
0.342200	-2.476127
0.342300	-2.379726
0.342400	-2.004183
0.342500	-1.940241
0.342600	-2.211916
0.342700	-2.433931
0.342800	-2.452757
0.342900	-2.161931
0.343000	-1.927257
0.343100	-1.777300
0.343200	-1.868832
0.343300	-2.074942
0.343400	-2.123305
0.343500	-2.117138
0.343600	-1.830207
0.343700	-1.710436
0.343800	-1.679276
0.343900	-1.662073
0.344000	-1.771782
0.344100	-1.828909
0.344200	-1.777949
0.344300	-1.772431
0.344400	-1.749061
0.344500	-1.711410
0.344600	-1.648441
0.344700	-1.727963
0.344800	-1.636106
0.344900	-1.818197
0.345000	-1.782169
0.345100	-1.864613
0.345200	-1.739648
0.345300	-1.742894
0.345400	-1.694531
0.345500	-1.980813
0.345600	-2.085329
0.345700	-2.038589
0.345800	-1.887009
0.345900	-1.680574
0.346000	-1.770808
0.346100	-1.942513
0.346200	-2.138885
0.346300	-2.106752
0.346400	-1.934723
0.346500	-1.763667
0.346600	-1.779572
0.346700	-1.908756
0.346800	-1.985358
0.346900	-1.979840
0.347000	-2.003859
0.347100	-1.954847
0.347200	-2.003210
0.347300	-2.023009
0.347400	-2.064231
0.347500	-2.050923
0.347600	-2.028202
0.347700	-2.066179
0.347800	-2.110322
0.347900	-2.103181
0.348000	-2.057415
0.348100	-2.035019
0.348200	-2.035019
0.348300	-2.178160
0.348400	-2.264499
0.348500	-2.294036
0.348600	-2.275859
0.348700	-2.144728
0.348800	-2.219382
0.348900	-2.221654
0.349000	-2.196661
0.349100	-2.201205
0.349200	-2.216785
0.349300	-2.237883
0.349400	-2.225224
0.349500	-2.225224
0.349600	-2.240804
0.349700	-2.250217
0.349800	-2.253463
0.349900	-2.249893
0.350000	-2.268719
0.350100	-2.266446
0.350200	-2.288843
0.350300	-2.321626
0.350400	-2.357005
0.350500	-2.394008
0.350600	-2.522867
0.350700	-2.798114
0.350800	-2.991566
0.350900	-2.872444
0.351000	-2.688080
0.351100	-2.601417
0.351200	-2.728978
0.351300	-3.105820
0.351400	-3.315826
0.351500	-3.276876
0.351600	-3.113610
0.351700	-3.037657
0.351800	-3.061352
0.351900	-3.289860
0.352000	-3.441441
0.352100	-3.517069
0.352200	-3.439493
0.352300	-3.466758
0.352400	-3.446959
0.352500	-3.482338
0.352600	-3.524859
0.352700	-3.541088
0.352800	-3.566081
0.352900	-3.579389
0.353000	-3.660211
0.353100	-3.774140
0.353200	-3.744279
0.353300	-3.734216
0.353400	-3.739410
0.353500	-3.836785
0.353600	-3.903325
0.353700	-3.875086
0.353800	-3.712145
0.353900	-3.667676
0.354000	-3.744279
0.354100	-3.905922
0.354200	-4.122096
0.354300	-4.105542
0.354400	-3.924099
0.354500	-3.723830
0.354600	-3.757587
0.354700	-3.951364
0.354800	-4.174679
0.354900	-4.234403
0.355000	-4.143519
0.355100	-4.018229
0.355200	-3.963374
0.355300	-3.974734
0.355400	-3.998754
0.355500	-4.003622
0.355600	-3.976033
0.355700	-3.935784
0.355800	-3.910466
0.355900	-3.886122
0.356000	-3.805625
0.356100	-3.666378
0.356200	-3.546282
0.356300	-3.523885
0.356400	-3.510577
0.356500	-3.513498
0.356600	-3.373927
0.356700	-3.214231
0.356800	-3.134384
0.356900	-2.914315
0.357000	-2.939958
0.357100	-2.895165
0.357200	-2.822783
0.357300	-2.738391
0.357400	-2.554027
0.357500	-2.482944
0.357600	-2.443669
0.357700	-2.436528
0.357800	-2.426466
0.357900	-2.376480
0.358000	-2.413807
0.358100	-2.368366
0.358200	-2.343048
0.358300	-2.301826
0.358400	-2.260604
0.358500	-2.249568
0.358600	-2.265148
0.358700	-2.302800
0.358800	-2.303774
0.358900	-2.198609
0.359000	-1.998341
0.359100	-1.655257
0.359200	-1.729911
0.359300	-1.977243
0.359400	-2.217110
0.359500	-2.104479
0.359600	-1.918493
0.359700	-1.612087
0.359800	-1.557233
0.359900	-1.714006
0.360000	-1.836049
0.360100	-1.842216
0.360200	-1.726016
0.360300	-1.564049
0.360400	-1.528020
0.360500	-1.518932
0.360600	-1.604297
0.360700	-1.520880
0.360800	-1.587095
0.360900	-1.506923
0.361000	-1.518608
0.361100	-1.526722
0.361200	-1.507247
0.361300	-1.488097
0.361400	-1.509519
0.361500	-1.578980
0.361600	-1.530293
0.361700	-1.666617
0.361800	-1.655257
0.361900	-1.595209
0.362000	-1.499133
0.362100	-1.619228
0.362200	-1.899018
0.362300	-1.943162
0.362400	-1.885061
0.362500	-1.647142
0.362600	-1.635782
0.362700	-1.680250
0.362800	-1.977243
0.362900	-2.055467
0.363000	-1.997692
0.363100	-1.775677
0.363200	-1.638703
0.363300	-1.690312
0.363400	-1.847410
0.363500	-1.894150
0.363600	-1.928231
0.363700	-1.867534
0.363800	-1.829233
0.363900	-1.885386
0.364000	-1.921090
0.364100	-1.934723
0.364200	-1.894799
0.364300	-1.902913
0.364400	-1.944785
0.364500	-1.960365
0.364600	-1.982112
0.364700	-1.961663
0.364800	-1.953548
0.364900	-1.952899
0.365000	-2.118761
0.365100	-2.184652
0.365200	-2.186274
0.365300	-2.185301
0.365400	-2.094417
0.365500	-2.134666
0.365600	-2.137912
0.365700	-2.110971
0.365800	-2.106752
0.365900	-2.090522
0.366000	-2.100584
0.366100	-2.122007
0.366200	-2.100260
0.366300	-2.123954
0.366400	-2.131420
0.366500	-2.137912
0.366600	-2.159334
0.366700	-2.151544
0.366800	-2.208346
0.366900	-2.166150
0.367000	-2.203477
0.367100	-2.250542
0.367200	-2.297931
0.367300	-2.466065
0.367400	-2.717293
0.367500	-2.802983
0.367600	-2.684185
0.367700	-2.500796
0.367800	-2.405693
0.367900	-2.698792
0.368000	-2.993514
0.368100	-3.173658
0.368200	-3.075309
0.368300	-2.927948
0.368400	-2.820835
0.368500	-2.895814
0.368600	-3.122374
0.368700	-3.210336
0.368800	-3.272981
0.368900	-3.178852
0.369000	-3.179501
0.369100	-3.207415
0.369200	-3.224618
0.369300	-3.280447
0.369400	-3.290184
0.369500	-3.273630
0.369600	-3.303817
0.369700	-3.387235
0.369800	-3.424887
0.369900	-3.479417
0.370000	-3.464811
0.370100	-3.513823
0.370200	-3.553747
0.370300	-3.614769
0.370400	-3.500515
0.370500	-3.358022
0.370600	-3.340495
0.370700	-3.446959
0.370800	-3.651123
0.370900	-3.768947
0.371000	-3.690073
0.371100	-3.524534
0.371200	-3.395350
0.371300	-3.485260
0.371400	-3.667352
0.371500	-3.866647
0.371600	-3.864051
0.371700	-3.800107
0.371800	-3.702407
0.371900	-3.662158
0.372000	-3.666703
0.372100	-3.711495
0.372200	-3.729672
0.372300	-3.715390
0.372400	-3.699161
0.372500	-3.655018
0.372600	-3.618015
0.372700	-3.529728
0.372800	-3.408333
0.372900	-3.316800
0.373000	-3.291807
0.373100	-3.284666
0.373200	-3.252532
0.373300	-3.091863
0.373400	-2.998707
0.373500	-2.732873
0.373600	-2.737417
0.373700	-2.687756
0.373800	-2.674123
0.373900	-2.581942
0.374000	-2.490409
0.374100	-2.341425
0.374200	-2.294361
0.374300	-2.257034
0.374400	-2.276184
0.374500	-2.214838
0.374600	-2.242103
0.374700	-2.279430
0.374800	-2.207372
0.374900	-2.210294
0.375000	-2.143105
0.375100	-2.193415
0.375200	-2.104155
0.375300	-2.172967
0.375400	-2.128174
0.375500	-2.075592
0.375600	-2.035343
0.375700	-1.693558
0.375800	-1.572813
0.375900	-1.741271
0.376000	-2.053520
0.376100	-2.031124
0.376200	-1.912002
0.376300	-1.756202
0.376400	-1.488746
0.376500	-1.590665
0.376600	-1.711410
0.376700	-1.903887
0.376800	-1.748412
0.376900	-1.635133
0.377000	-1.487772
0.377100	-1.472517
0.377200	-1.538732
0.377300	-1.477386
0.377400	-1.532240
0.377500	-1.481605
0.377600	-1.501729
0.377700	-1.484851
0.377800	-1.511467
0.377900	-1.481281
0.378000	-1.417987
0.378100	-1.469271
0.378200	-1.491343
0.378300	-1.550417
0.378400	-1.609815
0.378500	-1.561452
0.378600	-1.516985
0.378700	-1.468946
0.378800	-1.639677
0.378900	-1.887009
0.379000	-1.878245
0.379100	-1.764641
0.379200	-1.521204
0.379300	-1.548469
0.379400	-1.685443
0.379500	-1.886360
0.379600	-1.922713
0.379700	-1.813978
0.379800	-1.599753
0.379900	-1.567944
0.380000	-1.651686
0.380100	-1.799047
0.380200	-1.745491
0.380300	-1.791906
0.380400	-1.727963
0.380500	-1.766913
0.380600	-1.813653
0.380700	-1.854875
0.380800	-1.832804
0.380900	-1.811381
0.381000	-1.816574
0.381100	-1.854226
0.381200	-1.862990
0.381300	-1.870131
0.381400	-1.824040
0.381500	-1.790932
0.381600	-1.879219
0.381700	-2.010350
0.381800	-2.070074
0.381900	-2.054169
0.382000	-2.018465
0.382100	-2.006780
0.382200	-2.014245
0.382300	-2.003859
0.382400	-2.018465
0.382500	-1.980164
0.382600	-2.008403
0.382700	-2.001911
0.382800	-2.033071
0.382900	-2.029176
0.383000	-2.018790
0.383100	-2.037940
0.383200	-2.027878
0.383300	-2.041186
0.383400	-2.065530
0.383500	-2.030475
0.383600	-2.088575
0.383700	-2.116489
0.383800	-2.133692
0.383900	-2.190169
0.384000	-2.372910
0.384100	-2.628357
0.384200	-2.569932
0.384300	-2.478399
0.384400	-2.297282
0.384500	-2.398876
0.384600	-2.666009
0.384700	-2.905876
0.384800	-2.962354
0.384900	-2.855566
0.385000	-2.700415
0.385100	-2.747155
0.385200	-2.883155
0.385300	-3.075634
0.385400	-3.083099
0.385500	-3.112312
0.385600	-3.010392
0.385700	-3.041552
0.385800	-3.086345
0.385900	-3.146069
0.386000	-3.156780
0.386100	-3.172684
0.386200	-3.200923
0.386300	-3.258050
0.386400	-3.328161
0.386500	-3.405412
0.386600	-3.365163
0.386700	-3.369383
0.386800	-3.388209
0.386900	-3.478768
0.387000	-3.458968
0.387100	-3.361268
0.387200	-3.229487
0.387300	-3.249936
0.387400	-3.399894
0.387500	-3.598215
0.387600	-3.680984
0.387700	-3.508954
0.387800	-3.324915
0.387900	-3.267139
0.388000	-3.421316
0.388100	-3.653719
0.388200	-3.796537
0.388300	-3.736813
0.388400	-3.594320
0.388500	-3.506033
0.388600	-3.517393
0.388700	-3.581986
0.388800	-3.630998
0.388900	-3.624507
0.389000	-3.601461
0.389100	-3.576468
0.389200	-3.585881
0.389300	-3.527131
0.389400	-3.403140
0.389500	-3.270060
0.389600	-3.231110
0.389700	-3.191510
0.389800	-3.207415
0.389900	-3.119128
0.390000	-2.914640
0.390100	-2.836415
0.390200	-2.570906
0.390300	-2.584538
0.390400	-2.560844
0.390500	-2.463469
0.390600	-2.370638
0.390700	-2.241454
0.390800	-2.147649
0.390900	-2.054494
0.391000	-2.057740
0.391100	-2.049950
0.391200	-2.075592
0.391300	-2.022035
0.391400	-2.068775
0.391500	-1.951276
0.391600	-1.972050
0.391700	-1.889606
0.391800	-1.947706
0.391900	-1.961663
0.392000	-1.941539
0.392100	-2.012947
0.392200	-1.899018
0.392300	-1.790932
0.392400	-1.447199
0.392500	-1.346254
0.392600	-1.727639
0.392700	-1.783792
0.392800	-1.920766
0.392900	-1.579305
0.393000	-1.473491
0.393100	-1.257968
0.393200	-1.483228
0.393300	-1.589691
0.393400	-1.689987
0.393500	-1.574760
0.393600	-1.350798
0.393700	-1.276469
0.393800	-1.288154
0.393900	-1.381634
0.394000	-1.375791
0.394100	-1.378388
0.394200	-1.403381
0.394300	-1.335219
0.394400	-1.321911
0.394500	-1.293672
0.394600	-1.320288
0.394700	-1.232326
0.394800	-1.360211
0.394900	-1.349176
0.395000	-1.481281
0.395100	-1.462130
0.395200	-1.402407
0.395300	-1.373195
0.395400	-1.344956
0.395500	-1.645844
0.395600	-1.741920
0.395700	-1.760097
0.395800	-1.634808
0.395900	-1.402732
0.396000	-1.516336
0.396100	-1.687715
0.396200	-1.859095
0.396300	-1.848059
0.396400	-1.665319
0.396500	-1.480956
0.396600	-1.480307
0.396700	-1.599104
0.396800	-1.720823
0.396900	-1.717577
0.397000	-1.710436
0.397100	-1.631562
0.397200	-1.690636
0.397300	-1.709138
0.397400	-1.790608
0.397500	-1.820469
0.397600	-1.812679
0.397700	-1.800021
0.397800	-1.836374
0.397900	-1.841243
0.398000	-1.817224
0.398100	-1.790932
0.398200	-1.781195
0.398300	-1.911028
0.398400	-1.992498
0.398500	-2.002236
0.398600	-1.890904
0.398700	-1.849357
0.398800	-1.938618
0.398900	-1.945758
0.399000	-1.935372
0.399100	-1.934398
0.399200	-1.968804
0.399300	-1.983410
0.399400	-1.994770
0.399500	-1.964909
0.399600	-1.988603
0.399700	-1.971400
0.399800	-2.012622
0.399900	-2.006455
0.400000	-2.014570
0.400100	-2.035343
0.400200	-2.041510
0.400300	-2.087926
0.400400	-2.168747
0.400500	-2.159659
0.400600	-2.330714
0.400700	-2.563440
0.400800	-2.749751
0.400900	-2.703011
0.401000	-2.438151
0.401100	-2.388814
0.401200	-2.490734
0.401300	-2.859136
0.401400	-3.056808
0.401500	-3.079853
0.401600	-2.878936
0.401700	-2.792921
0.401800	-2.854592
0.401900	-3.023700
0.402000	-3.202222
0.402100	-3.260647
0.402200	-3.206766
0.402300	-3.163596
0.402400	-3.140551
0.402500	-3.167816
0.402600	-3.230461
0.402700	-3.263893
0.402800	-3.282719
0.402900	-3.299597
0.403000	-3.330757
0.403100	-3.339196
0.403200	-3.408982
0.403300	-3.392428
0.403400	-3.446959
0.403500	-3.459942
0.403600	-3.505708
0.403700	-3.518043
0.403800	-3.397622
0.403900	-3.300246
0.404000	-3.352504
0.404100	-3.526806
0.404200	-3.721558
0.404300	-3.698512
0.404400	-3.524859
0.404500	-3.329134
0.404600	-3.356724
0.404700	-3.558291
0.404800	-3.767649
0.404900	-3.820556
0.405000	-3.722856
0.405100	-3.608926
0.405200	-3.556019
0.405300	-3.568029
0.405400	-3.631972
0.405500	-3.645929
0.405600	-3.646903
0.405700	-3.635867
0.405800	-3.612497
0.405900	-3.570950
0.406000	-3.438519
0.406100	-3.311931
0.406200	-3.201573
0.406300	-3.188265
0.406400	-3.198976
0.406500	-3.189238
0.406600	-3.035061
0.406700	-2.880234
0.406800	-2.820835
0.406900	-2.608233
0.407000	-2.618620
0.407100	-2.565712
0.407200	-2.500471
0.407300	-2.396280
0.407400	-2.240155
0.407500	-2.173940
0.407600	-2.134666
0.407700	-2.105129
0.407800	-2.122981
0.407900	-2.083706
0.408000	-2.089224
0.408100	-2.004833
0.408200	-2.049625
0.408300	-1.996718
0.408400	-2.013272
0.408500	-1.982112
0.408600	-2.030475
0.408700	-2.034045
0.408800	-1.992823
0.408900	-1.986007
0.409000	-1.732183
0.409100	-1.519906
0.409200	-1.517958
0.409300	-1.952250
0.409400	-2.002560
0.409500	-1.961338
0.409600	-1.691610
0.409700	-1.445252
0.409800	-1.407276
0.409900	-1.463753
0.410000	-1.699400
0.410100	-1.667916
0.410200	-1.565672
0.410300	-1.339114
0.410400	-1.297242
0.410500	-1.314445
0.410600	-1.345281
0.410700	-1.380011
0.410800	-1.345930
0.410900	-1.363133
0.411000	-1.300813
0.411100	-1.281338
0.411200	-1.268355
0.411300	-1.229405
0.411400	-1.300813
0.411500	-1.420259
0.411600	-1.389748
0.411700	-1.479658
0.411800	-1.395915
0.411900	-1.345605
0.412000	-1.262837
0.412100	-1.420259
0.412200	-1.721796
0.412300	-1.732508
0.412400	-1.648441
0.412500	-1.430321
0.412600	-1.355343
0.412700	-1.490369
0.412800	-1.735104
0.412900	-1.868183
0.413000	-1.768861
0.413100	-1.533538
0.413200	-1.400460
0.413300	-1.524450
0.413400	-1.673109
0.413500	-1.733806
0.413600	-1.740947
0.413700	-1.706216
0.413800	-1.678302
0.413900	-1.733481
0.414000	-1.767238
0.414100	-1.774054
0.414200	-1.755228
0.414300	-1.738675
0.414400	-1.778923
0.414500	-1.785739
0.414600	-1.778274
0.414700	-1.762045
0.414800	-1.715305
0.414900	-1.735753
0.415000	-1.888632
0.415100	-1.930178
0.415200	-1.926933
0.415300	-1.913625
0.415400	-1.849682
0.415500	-1.877596
0.415600	-1.846111
0.415700	-1.852928
0.415800	-1.846436
0.415900	-1.851629
0.416000	-1.845138
0.416100	-1.870455
0.416200	-1.872078
0.416300	-1.891878
0.416400	-1.912002
0.416500	-1.910379
0.416600	-1.920116
0.416700	-1.913949
0.416800	-1.948680
0.416900	-1.919467
0.417000	-1.949329
0.417100	-2.011000
0.417200	-2.046704
0.417300	-2.247296
0.417400	-2.491058
0.417500	-2.599145
0.417600	-2.452108
0.417700	-2.239831
0.417800	-2.202504
0.417900	-2.478399
0.418000	-2.802983
0.418100	-2.915614
0.418200	-2.892244
0.418300	-2.666658
0.418400	-2.655947
0.418500	-2.750401
0.418600	-2.988321
0.418700	-3.100302
0.418800	-3.111013
0.418900	-3.073037
0.419000	-3.012340
0.419100	-3.060378
0.419200	-3.108741
0.419300	-3.161649
0.419400	-3.184694
0.419500	-3.191835
0.419600	-3.233382
0.419700	-3.337249
0.419800	-3.365488
0.419900	-3.361593
0.420000	-3.374252
0.420100	-3.424562
0.420200	-3.479092
0.420300	-3.551150
0.420400	-3.479742
0.420500	-3.333678
0.420600	-3.224618
0.420700	-3.349908
0.420800	-3.604058
0.420900	-3.752393
0.421000	-3.666378
0.421100	-3.460916
0.421200	-3.312580
0.421300	-3.401192
0.421400	-3.643657
0.421500	-3.845874
0.421600	-3.873464
0.421700	-3.732593
0.421800	-3.615743
0.421900	-3.585881
0.422000	-3.607628
0.422100	-3.661509
0.422200	-3.679686
0.422300	-3.646578
0.422400	-3.610874
0.422500	-3.574196
0.422600	-3.547904
0.422700	-3.442739
0.422800	-3.317774
0.422900	-3.263244
0.423000	-3.255454
0.423100	-3.236628
0.423200	-3.212284
0.423300	-3.054536
0.423400	-2.928597
0.423500	-2.670878
0.423600	-2.655297
0.423700	-2.628682
0.423800	-2.580968
0.423900	-2.506314
0.424000	-2.404070
0.424100	-2.242103
0.424200	-2.166150
0.424300	-2.106427
0.424400	-2.183678
0.424500	-2.115515
0.424600	-2.144079
0.424700	-2.126227
0.424800	-2.110647
0.424900	-2.089549
0.425000	-2.087601
0.425100	-2.105129
0.425200	-2.067802
0.425300	-2.057740
0.425400	-2.166475
0.425500	-2.014570
0.425600	-1.991525
0.425700	-1.683171
0.425800	-1.526398
0.425900	-1.627667
0.426000	-1.966532
0.426100	-2.074618
0.426200	-1.847085
0.426300	-1.659801
0.426400	-1.463429
0.426500	-1.389099
0.426600	-1.607868
0.426700	-1.667591
0.426800	-1.734455
0.426900	-1.508221
0.427000	-1.395266
0.427100	-1.292698
0.427200	-1.326779
0.427300	-1.403381
0.427400	-1.432593
0.427500	-1.451094
0.427600	-1.459534
0.427700	-1.401433
0.427800	-1.407925
0.427900	-1.354693
0.428000	-1.413767
0.428100	-1.352097
0.428200	-1.498159
0.428300	-1.483228
0.428400	-1.606894
0.428500	-1.497510
0.428600	-1.468946
0.428700	-1.379686
0.428800	-1.579954
0.428900	-1.839620
0.429000	-1.807162
0.429100	-1.715629
0.429200	-1.421882
0.429300	-1.482904
0.429400	-1.600402
0.429500	-1.851629
0.429600	-1.898045
0.429700	-1.787362
0.429800	-1.575734
0.429900	-1.483877
0.430000	-1.588717
0.430100	-1.715305
0.430200	-1.738350
0.430300	-1.806512
0.430400	-1.739648
0.430500	-1.754255
0.430600	-1.760422
0.430700	-1.804565
0.430800	-1.823066
0.430900	-1.810083
0.431000	-1.820794
0.431100	-1.841567
0.431200	-1.850006
0.431300	-1.842216
0.431400	-1.818522
0.431500	-1.786713
0.431600	-1.871429
0.431700	-1.993148
0.431800	-2.030150
0.431900	-2.012622
0.432000	-2.004508
0.432100	-1.926933
0.432200	-1.948355
0.432300	-1.946408
0.432400	-1.927906
0.432500	-1.927257
0.432600	-1.927582
0.432700	-1.924336
0.432800	-1.941539
0.432900	-1.932126
0.433000	-1.938942
0.433100	-1.921739
0.433200	-1.943811
0.433300	-1.968804
0.433400	-2.001587
0.433500	-1.994770
0.433600	-2.009701
0.433700	-2.039563
0.433800	-2.056766
0.433900	-2.130771
0.434000	-2.380700
0.434100	-2.612128
0.434200	-2.595899
0.434300	-2.378752
0.434400	-2.200881
0.434500	-2.226523
0.434600	-2.496576
0.434700	-2.803957
0.434800	-2.926325
0.434900	-2.817914
0.435000	-2.675422
0.435100	-2.665360
0.435200	-2.756892
0.435300	-2.944502
0.435400	-3.066870
0.435500	-3.093161
0.435600	-3.051290
0.435700	-3.024025
0.435800	-3.058106
0.435900	-3.103873
0.436000	-3.133410
0.436100	-3.179825
0.436200	-3.208064
0.436300	-3.288237
0.436400	-3.314203
0.436500	-3.385287
0.436600	-3.324590
0.436700	-3.407359
0.436800	-3.458968
0.436900	-3.512525
0.437000	-3.510253
0.437100	-3.379769
0.437200	-3.226241
0.437300	-3.300895
0.437400	-3.441441
0.437500	-3.640736
0.437600	-3.692994
0.437700	-3.552773
0.437800	-3.372629
0.437900	-3.316475
0.438000	-3.461565
0.438100	-3.686178
0.438200	-3.803028
0.438300	-3.790694
0.438400	-3.675791
0.438500	-3.611848
0.438600	-3.599189
0.438700	-3.641385
0.438800	-3.645605
0.438900	-3.648201
0.439000	-3.647877
0.439100	-3.633270
0.439200	-3.589451
0.439300	-3.566081
0.439400	-3.425861
0.439500	-3.313230
0.439600	-3.264542
0.439700	-3.246041
0.439800	-3.241821
0.439900	-3.155482
0.440000	-2.965275
0.440100	-2.874067
0.440200	-2.587784
0.440300	-2.648157
0.440400	-2.617646
0.440500	-2.532605
0.440600	-2.454380
0.440700	-2.347917
0.440800	-2.254437
0.440900	-2.178484
0.441000	-2.174265
0.441100	-2.174265
0.441200	-2.142456
0.441300	-2.195363
0.441400	-2.175888
0.441500	-2.141482
0.441600	-2.118112
0.441700	-2.049950
0.441800	-2.102857
0.441900	-2.056117
0.442000	-2.178160
0.442100	-2.082408
0.442200	-2.077539
0.442300	-1.890579
0.442400	-1.575734
0.442500	-1.539705
0.442600	-1.801644
0.442700	-2.122332
0.442800	-2.043458
0.442900	-1.869481
0.443000	-1.573462
0.443100	-1.371247
0.443200	-1.503677
0.443300	-1.683820
0.443400	-1.837023
0.443500	-1.661099
0.443600	-1.507247
0.443700	-1.392670
0.443800	-1.303085
0.443900	-1.405977
0.444000	-1.442006
0.444100	-1.490044
0.444200	-1.419610
0.444300	-1.399810
0.444400	-1.379362
0.444500	-1.368326
0.444600	-1.362808
0.444700	-1.296918
0.444800	-1.458884
0.444900	-1.372546
0.445000	-1.545548
0.445100	-1.458884
0.445200	-1.454989
0.445300	-1.393319
0.445400	-1.413443
0.445500	-1.693558
0.445600	-1.843515
0.445700	-1.816250
0.445800	-1.690312
0.445900	-1.454016
0.446000	-1.584498
0.446100	-1.744517
0.446200	-1.970102
0.446300	-1.903563
0.446400	-1.764641
0.446500	-1.611114
0.446600	-1.615658
0.446700	-1.757176
0.446800	-1.851629
0.446900	-1.840269
0.447000	-1.858121
0.447100	-1.781520
0.447200	-1.853901
0.447300	-1.899668
0.447400	-1.939916
0.447500	-1.928880
0.447600	-1.897720
0.447700	-1.920766
0.447800	-1.968804
0.447900	-1.965883
0.448000	-1.960365
0.448100	-1.908431
0.448200	-1.889281
0.448300	-2.057740
0.448400	-2.120384
0.448500	-2.151219
0.448600	-2.112594
0.448700	-2.070723
0.448800	-2.094742
0.448900	-2.076241
0.449000	-2.067152
0.449100	-2.057415
0.449200	-2.048976
0.449300	-2.071372
0.449400	-2.043458
0.449500	-2.065530
0.449600	-2.032747
0.449700	-2.054494
0.449800	-2.049950
0.449900	-2.083057
0.450000	-2.046055
0.450100	-2.077215
0.450200	-2.060661
0.450300	-2.077215
0.450400	-2.150246
0.450500	-2.179134
0.450600	-2.330714
0.450700	-2.554677
0.450800	-2.767928
0.450900	-2.731575
0.451000	-2.514428
0.451100	-2.452433
0.451200	-2.577722
0.451300	-2.924053
0.451400	-3.119128
0.451500	-3.145419
0.451600	-2.972416
0.451700	-2.860434
0.451800	-2.943528
0.451900	-3.117181
0.452000	-3.310958
0.452100	-3.334003
0.452200	-3.305764
0.452300	-3.283368
0.452400	-3.282394
0.452500	-3.335951
0.452600	-3.382042
0.452700	-3.394051
0.452800	-3.424238
0.452900	-3.466434
0.453000	-3.561537
0.453100	-3.614120
0.453200	-3.603409
0.453300	-3.574196
0.453400	-3.566730
0.453500	-3.671896
0.453600	-3.730321
0.453700	-3.721233
0.453800	-3.571275
0.453900	-3.435273
0.454000	-3.536869
0.454100	-3.702082
0.454200	-3.906571
0.454300	-3.922151
0.454400	-3.729672
0.454500	-3.565107
0.454600	-3.535570
0.454700	-3.726426
0.454800	-3.965970
0.454900	-4.051661
0.455000	-3.957531
0.455100	-3.805950
0.455200	-3.758236
0.455300	-3.783553
0.455400	-3.854638
0.455500	-3.886447
0.455600	-3.851067
0.455700	-3.810494
0.455800	-3.800756
0.455900	-3.789071
0.456000	-3.723180
0.456100	-3.582960
0.456200	-3.494023
0.456300	-3.467732
0.456400	-3.418720
0.456500	-3.434949
0.456600	-3.321020
0.456700	-3.149314
0.456800	-3.043175
0.456900	-2.855241
0.457000	-2.933141
0.457100	-2.853618
0.457200	-2.750725
0.457300	-2.692949
0.457400	-2.540395
0.457500	-2.458275
0.457600	-2.423869
0.457700	-2.417378
0.457800	-2.403421
0.457900	-2.387841
0.458000	-2.415430
0.458100	-2.383946
0.458200	-2.353435
0.458300	-2.378103
0.458400	-2.335258
0.458500	-2.346294
0.458600	-2.344996
0.458700	-2.332661
0.458800	-2.362523
0.458900	-2.228146
0.459000	-2.126227
0.459100	-1.746140
0.459200	-1.888307
0.459300	-2.106427
0.459400	-2.303124
0.459500	-2.171993
0.459600	-1.956794
0.459700	-1.734130
0.459800	-1.706541
0.459900	-1.849682
0.460000	-1.963610
0.460100	-2.004508
0.460200	-1.840594
0.460300	-1.664021
0.460400	-1.631562
0.460500	-1.631238
0.460600	-1.695830
0.460700	-1.674407
0.460800	-1.694531
0.460900	-1.586121
0.461000	-1.576708
0.461100	-1.578006
0.461200	-1.636106
0.461300	-1.589367
0.461400	-1.630589
0.461500	-1.657529
0.461600	-1.742245
0.461700	-1.749061
0.461800	-1.742245
0.461900	-1.702970
0.462000	-1.550741
0.462100	-1.699725
0.462200	-1.906159
0.462300	-2.043458
0.462400	-1.946408
0.462500	-1.833128
0.462600	-1.642274
0.462700	-1.841243
0.462800	-2.037940
0.462900	-2.184976
0.463000	-2.092145
0.463100	-1.912976
0.463200	-1.794503
0.463300	-1.854551
0.463400	-2.021062
0.463500	-2.066179
0.463600	-2.052546
0.463700	-2.021386
0.463800	-1.962961
0.463900	-2.014895
0.464000	-2.035019
0.464100	-2.120709
0.464200	-2.085654
0.464300	-2.066828
0.464400	-2.060985
0.464500	-2.084031
0.464600	-2.084355
0.464700	-2.070398
0.464800	-2.026255
0.464900	-2.055143
0.465000	-2.204127
0.465100	-2.243076
0.465200	-2.248919
0.465300	-2.221654
0.465400	-2.152518
0.465500	-2.200556
0.465600	-2.184976
0.465700	-2.157062
0.465800	-2.171668
0.465900	-2.165826
0.466000	-2.187897
0.466100	-2.189196
0.466200	-2.213864
0.466300	-2.198284
0.466400	-2.200232
0.466500	-2.179134
0.466600	-2.215162
0.466700	-2.170370
0.466800	-2.213539
0.466900	-2.196012
0.467000	-2.224575
0.467100	-2.282676
0.467200	-2.317406
0.467300	-2.521569
0.467400	-2.804281
0.467500	-2.884778
0.467600	-2.729303
0.467700	-2.521244
0.467800	-2.479373
0.467900	-2.659517
0.468000	-3.025648
0.468100	-3.176255
0.468200	-3.123997
0.468300	-2.975337
0.468400	-2.925351
0.468500	-3.018182
0.468600	-3.177878
0.468700	-3.338872
0.468800	-3.352180
0.468900	-3.282069
0.469000	-3.278824
0.469100	-3.298299
0.469200	-3.364514
0.469300	-3.391779
0.469400	-3.407359
0.469500	-3.415149
0.469600	-3.460591
0.469700	-3.508630
0.469800	-3.557967
0.469900	-3.571275
0.470000	-3.562511
0.470100	-3.601786
0.470200	-3.636192
0.470300	-3.709548
0.470400	-3.653395
0.470500	-3.551799
0.470600	-3.505384
0.470700	-3.621261
0.470800	-3.819907
0.470900	-3.970190
0.471000	-3.921502
0.471100	-3.717987
0.471200	-3.618015
0.471300	-3.726751
0.471400	-3.936433
0.471500	-4.105867
0.471600	-4.095156
0.471700	-3.976357
0.471800	-3.881903
0.471900	-3.839707
0.472000	-3.884824
0.472100	-3.941951
0.472200	-3.946820
0.472300	-3.923774
0.472400	-3.894886
0.472500	-3.849120
0.472600	-3.795888
0.472700	-3.723180
0.472800	-3.604707
0.472900	-3.516744
0.473000	-3.474873
0.473100	-3.446634
0.473200	-3.378471
0.473300	-3.234031
0.473400	-3.098355
0.473500	-2.846802
0.473600	-2.837389
0.473700	-2.822458
0.473800	-2.789026
0.473900	-2.693598
0.474000	-2.593302
0.474100	-2.454705
0.474200	-2.359926
0.474300	-2.338829
0.474400	-2.360900
0.474500	-2.335258
0.474600	-2.341750
0.474700	-2.296633
0.474800	-2.303774
0.474900	-2.261253
0.475000	-2.234962
0.475100	-2.189196
0.475200	-2.264499
0.475300	-2.189196
0.475400	-2.338504
0.475500	-2.184976
0.475600	-2.136938
0.475700	-1.754255
0.475800	-1.682846
0.475900	-1.864937
0.476000	-2.145702
0.476100	-2.214189
0.476200	-2.027229
0.476300	-1.856823
0.476400	-1.549118
0.476500	-1.727963
0.476600	-1.803591
0.476700	-1.999315
0.476800	-1.900966
0.476900	-1.720173
0.477000	-1.602674
0.477100	-1.519257
0.477200	-1.624097
0.477300	-1.666293
0.477400	-1.720498
0.477500	-1.679601
0.477600	-1.670512
0.477700	-1.659476
0.477800	-1.639677
0.477900	-1.680899
0.478000	-1.629290
0.478100	-1.700698
0.478200	-1.635457
0.478300	-1.751658
0.478400	-1.749061
0.478500	-1.728613
0.478600	-1.652011
0.478700	-1.647791
0.478800	-1.823066
0.478900	-2.063582
0.479000	-2.120709
0.479100	-2.041835
0.479200	-1.773080
0.479300	-1.759448
0.479400	-1.968804
0.479500	-2.220356
0.479600	-2.265148
0.479700	-2.108374
0.479800	-1.896746
0.479900	-1.864288
0.480000	-1.987954
0.480100	-2.147000
0.480200	-2.171019
0.480300	-2.170370
0.480400	-2.093119
0.480500	-2.128499
0.480600	-2.187248
0.480700	-2.209320
0.480800	-2.237559
0.480900	-2.198284
0.481000	-2.235611
0.481100	-2.276833
0.481200	-2.284948
0.481300	-2.258007
0.481400	-2.227496
0.481500	-2.193740
0.481600	-2.300203
0.481700	-2.408289
0.481800	-2.452108
0.481900	-2.408614
0.482000	-2.293387
0.482100	-2.344671
0.482200	-2.328117
0.482300	-2.294361
0.482400	-2.302475
0.482500	-2.316757
0.482600	-2.324222
0.482700	-2.312213
0.482800	-2.297931
0.482900	-2.302800
0.483000	-2.321950
0.483100	-2.329091
0.483200	-2.305396
0.483300	-2.322275
0.483400	-2.337206
0.483500	-2.337855
0.483600	-2.358304
0.483700	-2.355058
0.483800	-2.463469
0.483900	-2.471259
0.484000	-2.744883
0.484100	-2.973065
0.484200	-2.989944
0.484300	-2.739040
0.484400	-2.580968
0.484500	-2.613751
0.484600	-2.933141
0.484700	-3.231434
0.484800	-3.322967
0.484900	-3.220723
0.485000	-3.063949
0.485100	-3.050316
0.485200	-3.211310
0.485300	-3.374252
0.485400	-3.456696
0.485500	-3.472601
0.485600	-3.400218
0.485700	-3.353478
0.485800	-3.430405
0.485900	-3.479417
0.486000	-3.532000
0.486100	-3.550501
0.486200	-3.564783
0.486300	-3.622559
0.486400	-3.696889
0.486500	-3.770570
0.486600	-3.772842
0.486700	-3.783878
0.486800	-3.810819
0.486900	-3.838733
0.487000	-3.854313
0.487100	-3.758885
0.487200	-3.573871
0.487300	-3.632946
0.487400	-3.783553
0.487500	-3.981226
0.487600	-4.083471
0.487700	-3.938056
0.487800	-3.731620
0.487900	-3.638464
0.488000	-3.797835
0.488100	-4.041274
0.488200	-4.194804
0.488300	-4.188961
0.488400	-4.051986
0.488500	-3.966295
0.488600	-3.951689
0.488700	-4.031212
0.488800	-4.103270
0.488900	-4.114955
0.489000	-4.075680
0.489100	-4.030238
0.489200	-3.958830
0.489300	-3.849444
0.489400	-3.732593
0.489500	-3.653719
0.489600	-3.604058
0.489700	-3.571275
0.489800	-3.590750
0.489900	-3.519990
0.490000	-3.337573
0.490100	-3.245067
0.490200	-3.038307
0.490300	-3.026622
0.490400	-2.996760
0.490500	-2.952616
0.490600	-2.857838
0.490700	-2.695546
0.490800	-2.614400
0.490900	-2.518323
0.491000	-2.498848
0.491100	-2.503392
0.491200	-2.455679
0.491300	-2.474504
0.491400	-2.461196
0.491500	-2.464118
0.491600	-2.405693
0.491700	-2.425492
0.491800	-2.397578
0.491900	-2.405368
0.492000	-2.446266
0.492100	-2.427440
0.492200	-2.445616
0.492300	-2.202504
0.492400	-1.949653
0.492500	-1.875649
0.492600	-2.168747
0.492700	-2.359277
0.492800	-2.443994
0.492900	-2.228795
0.493000	-2.078188
0.493100	-1.890579
0.493200	-2.017491
0.493300	-2.183678
0.493400	-2.274561
0.493500	-2.163878
0.493600	-1.964584
0.493700	-1.933749
0.493800	-2.020737
0.493900	-1.981787
0.494000	-2.073644
0.494100	-2.074942
0.494200	-2.070074
0.494300	-2.001262
0.494400	-2.022360
0.494500	-2.017167
0.494600	-2.011000
0.494700	-1.984059
0.494800	-2.084031
0.494900	-2.072346
0.495000	-2.103830
0.495100	-2.146026
0.495200	-2.047353
0.495300	-2.044107
0.495400	-2.008403
0.495500	-2.333311
0.495600	-2.402771
0.495700	-2.366094
0.495800	-2.242752
0.495900	-2.045405
0.496000	-2.162904
0.496100	-2.324547
0.496200	-2.542342
0.496300	-2.509884
0.496400	-2.367716
0.496500	-2.177835
0.496600	-2.196337
0.496700	-2.300528
0.496800	-2.379077
0.496900	-2.380375
0.497000	-2.421273
0.497100	-2.374533
0.497200	-2.427440
0.497300	-2.423545
0.497400	-2.467364
0.497500	-2.482294
0.497600	-2.471583
0.497700	-2.489760
0.497800	-2.518648
0.497900	-2.504691
0.498000	-2.469636
0.498100	-2.442046
0.498200	-2.421273
0.498300	-2.564089
0.498400	-2.639717
0.498500	-2.652052
0.498600	-2.585187
0.498700	-2.479049
0.498800	-2.540395
0.498900	-2.542992
0.499000	-2.540719
0.499100	-2.564414
0.499200	-2.563116
0.499300	-2.553054
0.499400	-2.575450
0.499500	-2.537798
0.499600	-2.573827
0.499700	-2.563440
0.499800	-2.560194
0.499900	-2.544939
0.500000	-2.578047
0.500100	-2.564739
0.500200	-2.609207
0.500300	-2.607259
0.500400	-2.639717
0.500500	-2.644911
0.500600	-2.807527
0.500700	-3.047395
0.500800	-3.241496
0.500900	-3.176255
0.501000	-2.980855
0.501100	-2.834792
0.501200	-2.958783
0.501300	-3.306738
0.501400	-3.486882
0.501500	-3.541088
0.501600	-3.346662
0.501700	-3.257401
0.501800	-3.307387
0.501900	-3.524534
0.502000	-3.678712
0.502100	-3.729672
0.502200	-3.717013
0.502300	-3.659237
0.502400	-3.686178
0.502500	-3.706951
0.502600	-3.739085
0.502700	-3.751095
0.502800	-3.760508
0.502900	-3.810494
0.503000	-3.891640
0.503100	-3.996157
0.503200	-3.979928
0.503300	-3.993560
0.503400	-4.007193
0.503500	-4.076654
0.503600	-4.103270
0.503700	-4.078277
0.503800	-3.947144
0.503900	-3.864051
0.504000	-3.938705
0.504100	-4.159748
0.504200	-4.349956
0.504300	-4.295425
0.504400	-4.119500
0.504500	-3.952987
0.504600	-3.981226
0.504700	-4.166565
0.504800	-4.375923
0.504900	-4.447332
0.505000	-4.350280
0.505100	-4.238298
0.505200	-4.215577
0.505300	-4.237649
0.505400	-4.266213
0.505500	-4.281468
0.505600	-4.261344
0.505700	-4.244465
0.505800	-4.222069
0.505900	-4.206813
0.506000	-4.108464
0.506100	-3.963049
0.506200	-3.877683
0.506300	-3.842628
0.506400	-3.847821
0.506500	-3.848795
0.506600	-3.715715
0.506700	-3.555045
0.506800	-3.451503
0.506900	-3.225267
0.507000	-3.259998
0.507100	-3.218126
0.507200	-3.119777
0.507300	-3.027271
0.507400	-2.865303
0.507500	-2.793570
0.507600	-2.721188
0.507700	-2.710477
0.507800	-2.706257
0.507900	-2.666658
0.508000	-2.691326
0.508100	-2.673474
0.508200	-2.674448
0.508300	-2.623813
0.508400	-2.630954
0.508500	-2.611154
0.508600	-2.642963
0.508700	-2.660166
0.508800	-2.648481
0.508900	-2.568309
0.509000	-2.345645
0.509100	-2.079487
0.509200	-2.180107
0.509300	-2.434581
0.509400	-2.638095
0.509500	-2.495602
0.509600	-2.341425
0.509700	-2.004183
0.509800	-1.985033
0.509900	-2.109673
0.510000	-2.283325
0.510100	-2.291764
0.510200	-2.097988
0.510300	-2.010026
0.510400	-1.837348
0.510500	-1.957443
0.510600	-1.929205
0.510700	-2.004508
0.510800	-1.957443
0.510900	-1.969453
0.511000	-1.941539
0.511100	-1.944135
0.511200	-1.919467
0.511300	-1.888956
0.511400	-1.915897
0.511500	-2.009052
0.511600	-1.989577
0.511700	-2.110322
0.511800	-2.015219
0.511900	-1.949329
0.512000	-1.881816
0.512100	-2.018140
0.512200	-2.333635
0.512300	-2.380375
0.512400	-2.314809
0.512500	-2.162255
0.512600	-1.991849
0.512700	-2.161931
0.512800	-2.379077
0.512900	-2.528385
0.513000	-2.449836
0.513100	-2.217759
0.513200	-2.108374
0.513300	-2.174589
0.513400	-2.336556
0.513500	-2.407640
0.513600	-2.373884
0.513700	-2.360576
0.513800	-2.309616
0.513900	-2.368690
0.514000	-2.423220
0.514100	-2.474180
0.514200	-2.486189
0.514300	-2.456977
0.514400	-2.475803
0.514500	-2.525464
0.514600	-2.508261
0.514700	-2.474829
0.514800	-2.377779
0.514900	-2.394981
0.515000	-2.563765
0.515100	-2.612777
0.515200	-2.651402
0.515300	-2.620242
0.515400	-2.547536
0.515500	-2.581292
0.515600	-2.575450
0.515700	-2.562791
0.515800	-2.568958
0.515900	-2.563765
0.516000	-2.553378
0.516100	-2.537474
0.516200	-2.559870
0.516300	-2.559545
0.516400	-2.565388
0.516500	-2.578047
0.516600	-2.584214
0.516700	-2.597522
0.516800	-2.596223
0.516900	-2.621541
0.517000	-2.614725
0.517100	-2.688080
0.517200	-2.662114
0.517300	-2.876664
0.517400	-3.069791
0.517500	-3.228838
0.517600	-3.036034
0.517700	-2.861733
0.517800	-2.828301
0.517900	-3.012989
0.518000	-3.383664
0.518100	-3.508305
0.518200	-3.468706
0.518300	-3.239549
0.518400	-3.233706
0.518500	-3.324265
0.518600	-3.535570
0.518700	-3.680335
0.518800	-3.734216
0.518900	-3.626129
0.519000	-3.585556
0.519100	-3.638788
0.519200	-3.699810
0.519300	-3.744603
0.519400	-3.746226
0.519500	-3.769272
0.519600	-3.810169
0.519700	-3.852041
0.519800	-3.883526
0.519900	-3.935784
0.520000	-3.921502
0.520100	-3.970515
0.520200	-4.004596
0.520300	-4.015957
0.520400	-3.980901
0.520500	-3.860480
0.520600	-3.801730
0.520700	-3.942925
0.520800	-4.113332
0.520900	-4.278547
0.521000	-4.211357
0.521100	-4.018553
0.521200	-3.922151
0.521300	-3.997131
0.521400	-4.233429
0.521500	-4.454473
0.521600	-4.484659
0.521700	-4.382739
0.521800	-4.253229
0.521900	-4.199997
0.522000	-4.248685
0.522100	-4.316848
0.522200	-4.336972
0.522300	-4.314576
0.522400	-4.279845
0.522500	-4.268809
0.522600	-4.193505
0.522700	-4.107165
0.522800	-3.980577
0.522900	-3.908843
0.523000	-3.927020
0.523100	-3.886122
0.523200	-3.881578
0.523300	-3.692669
0.523400	-3.576143
0.523500	-3.350232
0.523600	-3.333678
0.523700	-3.314853
0.523800	-3.239873
0.523900	-3.169114
0.524000	-3.087968
0.524100	-2.950993
0.524200	-2.878936
0.524300	-2.796816
0.524400	-2.823756
0.524500	-2.805255
0.524600	-2.809150
0.524700	-2.772472
0.524800	-2.798764
0.524900	-2.698143
0.525000	-2.750725
0.525100	-2.643288
0.525200	-2.701713
0.525300	-2.638419
0.525400	-2.737742
0.525500	-2.654973
0.525600	-2.525789
0.525700	-2.310590
0.525800	-2.126876
0.525900	-2.301826
0.526000	-2.603689
0.526100	-2.684185
0.526200	-2.513454
0.526300	-2.211916
0.526400	-2.121358
0.526500	-2.120059
0.526600	-2.358953
0.526700	-2.411535
0.526800	-2.422896
0.526900	-2.210294
0.527000	-2.084355
0.527100	-1.973997
0.527200	-2.053845
0.527300	-2.021062
0.527400	-2.068126
0.527500	-2.112919
0.527600	-2.046379
0.527700	-2.034694
0.527800	-2.027878
0.527900	-2.029176
0.528000	-2.021062
0.528100	-2.086303
0.528200	-2.073644
0.528300	-2.190494
0.528400	-2.162904
0.528500	-2.118761
0.528600	-2.112269
0.528700	-2.039887
0.528800	-2.243076
0.528900	-2.417378
0.529000	-2.429387
0.529100	-2.299229
0.529200	-2.101234
0.529300	-2.077864
0.529400	-2.225549
0.529500	-2.460547
0.529600	-2.506314
0.529700	-2.385893
0.529800	-2.169396
0.529900	-2.131744
0.530000	-2.233664
0.530100	-2.351487
0.530200	-2.345969
0.530300	-2.397578
0.530400	-2.315459
0.530500	-2.365769
0.530600	-2.419001
0.530700	-2.474504
0.530800	-2.459898
0.530900	-2.413158
0.531000	-2.448538
0.531100	-2.482294
0.531200	-2.480347
0.531300	-2.448538
0.531400	-2.394332
0.531500	-2.366418
0.531600	-2.468337
0.531700	-2.600118
0.531800	-2.603364
0.531900	-2.592004
0.532000	-2.503392
0.532100	-2.522543
0.532200	-2.519297
0.532300	-2.488786
0.532400	-2.485865
0.532500	-2.515727
0.532600	-2.491707
0.532700	-2.511507
0.532800	-2.488137
0.532900	-2.511507
0.533000	-2.505340
0.533100	-2.528061
0.533200	-2.531307
0.533300	-2.537149
0.533400	-2.548185
0.533500	-2.572529
0.533600	-2.572853
0.533700	-2.633226
0.533800	-2.674773
0.533900	-2.711450
0.534000	-2.988970
0.534100	-3.243444
0.534200	-3.280771
0.534300	-3.090889
0.534400	-2.938335
0.534500	-2.992540
0.534600	-3.273955
0.534700	-3.526482
0.534800	-3.576793
0.534900	-3.470978
0.535000	-3.332380
0.535100	-3.324590
0.535200	-3.500840
0.535300	-3.652745
0.535400	-3.773816
0.535500	-3.709548
0.535600	-3.696564
0.535700	-3.655991
0.535800	-3.721558
0.535900	-3.761157
0.536000	-3.803353
0.536100	-3.805950
0.536200	-3.817959
0.536300	-3.857234
0.536400	-3.952662
0.536500	-3.984147
0.536600	-4.006219
0.536700	-3.985121
0.536800	-4.043546
0.536900	-4.080225
0.537000	-4.096779
0.537100	-4.020825
0.537200	-3.870542
0.537300	-3.918256
0.537400	-4.058477
0.537500	-4.250308
0.537600	-4.289583
0.537700	-4.146765
0.537800	-3.972787
0.537900	-3.918256
0.538000	-4.067241
0.538100	-4.288934
0.538200	-4.400267
0.538300	-4.318796
0.538400	-4.187987
0.538500	-4.146765
0.538600	-4.147414
0.538700	-4.197076
0.538800	-4.206813
0.538900	-4.187014
0.539000	-4.162670
0.539100	-4.129562
0.539200	-4.111710
0.539300	-4.057504
0.539400	-3.947469
0.539500	-3.852041
0.539600	-3.779334
0.539700	-3.762131
0.539800	-3.750121
0.539900	-3.658913
0.540000	-3.480715
0.540100	-3.328161
0.540200	-3.109391
0.540300	-3.147691
0.540400	-3.088617
0.540500	-3.022727
0.540600	-2.926974
0.540700	-2.803632
0.540800	-2.684185
0.540900	-2.607259
0.541000	-2.605961
0.541100	-2.590705
0.541200	-2.611154
0.541300	-2.598495
0.541400	-2.597846
0.541500	-2.569932
0.541600	-2.520920
0.541700	-2.507612
0.541800	-2.480672
0.541900	-2.493655
0.542000	-2.532280
0.542100	-2.571555
0.542200	-2.538123
0.542300	-2.360251
0.542400	-2.169072
0.542500	-2.012947
0.542600	-2.326170
0.542700	-2.562791
0.542800	-2.556949
0.542900	-2.263525
0.543000	-2.102207
0.543100	-1.907782
0.543200	-2.122007
0.543300	-2.295010
0.543400	-2.361549
0.543500	-2.206074
0.543600	-2.070723
0.543700	-1.871754
0.543800	-1.856823
0.543900	-1.985358
0.544000	-1.982761
0.544100	-1.987630
0.544200	-1.980489
0.544300	-1.951601
0.544400	-1.914923
0.544500	-1.940890
0.544600	-1.967505
0.544700	-1.899668
0.544800	-1.999964
0.544900	-2.008078
0.545000	-2.129797
0.545100	-2.104155
0.545200	-2.076565
0.545300	-1.985358
0.545400	-1.996718
0.545500	-2.283000
0.545600	-2.336232
0.545700	-2.368366
0.545800	-2.218733
0.545900	-2.035343
0.546000	-2.127200
0.546100	-2.320652
0.546200	-2.506314
0.546300	-2.443344
0.546400	-2.283000
0.546500	-2.083382
0.546600	-2.104479
0.546700	-2.247296
0.546800	-2.336232
0.546900	-2.270017
0.547000	-2.312862
0.547100	-2.226847
0.547200	-2.292738
0.547300	-2.298905
0.547400	-2.367716
0.547500	-2.331363
0.547600	-2.302151
0.547700	-2.306695
0.547800	-2.325196
0.547900	-2.308967
0.548000	-2.281377
0.548100	-2.220031
0.548200	-2.236260
0.548300	-2.366094
0.548400	-2.427764
0.548500	-2.451134
0.548600	-2.423220
0.548700	-2.332661
0.548800	-2.407316
0.548900	-2.360900
0.549000	-2.350838
0.549100	-2.350838
0.549200	-2.380700
0.549300	-2.381349
0.549400	-2.369664
0.549500	-2.360251
0.549600	-2.382972
0.549700	-2.342074
0.549800	-2.337206
0.549900	-2.333635
0.550000	-2.376805
0.550100	-2.373884
0.550200	-2.439774
0.550300	-2.431659
0.550400	-2.470934
0.550500	-2.501445
0.550600	-2.615698
0.550700	-2.895490
0.550800	-3.101925
0.550900	-2.963652
0.551000	-2.776043
0.551100	-2.706582
0.551200	-2.890621
0.551300	-3.194432
0.551400	-3.400543
0.551500	-3.392428
0.551600	-3.239224
0.551700	-3.126594
0.551800	-3.188589
0.551900	-3.388209
0.552000	-3.518043
0.552100	-3.589451
0.552200	-3.521613
0.552300	-3.478768
0.552400	-3.472925
0.552500	-3.565757
0.552600	-3.588153
0.552700	-3.592697
0.552800	-3.615418
0.552900	-3.619962
0.553000	-3.648201
0.553100	-3.751095
0.553200	-3.792966
0.553300	-3.818933
0.553400	-3.816336
0.553500	-3.891640
0.553600	-3.893263
0.553700	-3.912089
0.553800	-3.743305
0.553900	-3.649175
0.554000	-3.742331
0.554100	-3.905922
0.554200	-4.081848
0.554300	-4.060425
0.554400	-3.855287
0.554500	-3.712145
0.554600	-3.743954
0.554700	-3.953312
0.554800	-4.163643
0.554900	-4.230833
0.555000	-4.132158
0.555100	-3.987718
0.555200	-3.943574
0.555300	-3.979603
0.555400	-4.032186
0.555500	-4.058477
0.555600	-4.037704
0.555700	-4.016281
0.555800	-3.970839
0.555900	-3.927994
0.556000	-3.850418
0.556100	-3.735839
0.556200	-3.640736
0.556300	-3.598215
0.556400	-3.569327
0.556500	-3.563485
0.556600	-3.375225
0.556700	-3.215854
0.556800	-3.184370
0.556900	-2.977934
0.557000	-3.032464
0.557100	-2.993514
0.557200	-2.903604
0.557300	-2.790000
0.557400	-2.666333
0.557500	-2.565063
0.557600	-2.499822
0.557700	-2.500147
0.557800	-2.480022
0.557900	-2.445292
0.558000	-2.472232
0.558100	-2.449187
0.558200	-2.454380
0.558300	-2.426791
0.558400	-2.395306
0.558500	-2.395631
0.558600	-2.411535
0.558700	-2.451784
0.558800	-2.476127
0.558900	-2.323249
0.559000	-2.182704
0.559100	-1.911677
0.559200	-2.009052
0.559300	-2.234313
0.559400	-2.437826
0.559500	-2.284623
0.559600	-2.052546
0.559700	-1.895773
0.559800	-1.790283
0.559900	-1.986656
0.560000	-2.037615
0.560100	-2.141157
0.560200	-1.866885
0.560300	-1.763343
0.560400	-1.669538
0.560500	-1.800021
0.560600	-1.786388
0.560700	-1.823391
0.560800	-1.811057
0.560900	-1.765615
0.561000	-1.760097
0.561100	-1.766264
0.561200	-1.772107
0.561300	-1.715305
0.561400	-1.724068
0.561500	-1.755553
0.561600	-1.801644
0.561700	-1.888307
0.561800	-1.833128
0.561900	-1.746465
0.562000	-1.695181
0.562100	-1.806188
0.562200	-2.074293
0.562300	-2.126876
0.562400	-2.056441
0.562500	-1.847734
0.562600	-1.784765
0.562700	-1.927906
0.562800	-2.162580
0.562900	-2.265148
0.563000	-2.175888
0.563100	-1.961663
0.563200	-1.879219
0.563300	-1.947706
0.563400	-2.112269
0.563500	-2.148298
0.563600	-2.138561
0.563700	-2.133367
0.563800	-2.078188
0.563900	-2.142131
0.564000	-2.160632
0.564100	-2.219382
0.564200	-2.196012
0.564300	-2.202504
0.564400	-2.208022
0.564500	-2.245024
0.564600	-2.223926
0.564700	-2.202828
0.564800	-2.149272
0.564900	-2.211267
0.565000	-2.352136
0.565100	-2.402122
0.565200	-2.418351
0.565300	-2.299554
0.565400	-2.276833
0.565500	-2.283325
0.565600	-2.262551
0.565700	-2.289492
0.565800	-2.283649
0.565900	-2.274886
0.566000	-2.270017
0.566100	-2.287544
0.566200	-2.277807
0.566300	-2.306370
0.566400	-2.267096
0.566500	-2.304098
0.566600	-2.303449
0.566700	-2.361225
0.566800	-2.318055
0.566900	-2.323898
0.567000	-2.362523
0.567100	-2.385244
0.567200	-2.442046
0.567300	-2.582266
0.567400	-2.914640
0.567500	-2.983452
0.567600	-2.867900
0.567700	-2.629980
0.567800	-2.609856
0.567900	-2.884778
0.568000	-3.161649
0.568100	-3.326538
0.568200	-3.247014
0.568300	-3.064922
0.568400	-3.005524
0.568500	-3.099978
0.568600	-3.312256
0.568700	-3.411254
0.568800	-3.434949
0.568900	-3.372953
0.569000	-3.370357
0.569100	-3.394376
0.569200	-3.424562
0.569300	-3.484286
0.569400	-3.506033
0.569500	-3.509279
0.569600	-3.562186
0.569700	-3.640087
0.569800	-3.686178
0.569900	-3.664431
0.570000	-3.678712
0.570100	-3.718961
0.570200	-3.791019
0.570300	-3.848470
0.570400	-3.722531
0.570500	-3.560563
0.570600	-3.536869
0.570700	-3.686178
0.570800	-3.887421
0.570900	-3.997780
0.571000	-3.916309
0.571100	-3.716689
0.571200	-3.600487
0.571300	-3.700784
0.571400	-3.924099
0.571500	-4.111060
0.571600	-4.112034
0.571700	-3.979928
0.571800	-3.860480
0.571900	-3.829644
0.572000	-3.880929
0.572100	-3.929941
0.572200	-3.944548
0.572300	-3.922151
0.572400	-3.881578
0.572500	-3.863077
0.572600	-3.810169
0.572700	-3.706627
0.572800	-3.586855
0.572900	-3.511876
0.573000	-3.469679
0.573100	-3.461565
0.573200	-3.446959
0.573300	-3.274604
0.573400	-3.153859
0.573500	-2.921456
0.573600	-2.938984
0.573700	-2.921456
0.573800	-2.867575
0.573900	-2.781561
0.574000	-2.714047
0.574100	-2.561168
0.574200	-2.491383
0.574300	-2.445616
0.574400	-2.454705
0.574500	-2.408939
0.574600	-2.421597
0.574700	-2.432958
0.574800	-2.435879
0.574900	-2.382323
0.575000	-2.424843
0.575100	-2.335583
0.575200	-2.382972
0.575300	-2.378428
0.575400	-2.461846
0.575500	-2.343697
0.575600	-2.240155
0.575700	-2.013596
0.575800	-1.799047
0.575900	-2.018790
0.576000	-2.262551
0.576100	-2.373559
0.576200	-2.144079
0.576300	-1.936346
0.576400	-1.711085
0.576500	-1.757825
0.576600	-1.964909
0.576700	-2.075267
0.576800	-2.051897
0.576900	-1.849682
0.577000	-1.684145
0.577100	-1.674083
0.577200	-1.766913
0.577300	-1.726665
0.577400	-1.812030
0.577500	-1.753281
0.577600	-1.718226
0.577700	-1.731858
0.577800	-1.726665
0.577900	-1.714980
0.578000	-1.669863
0.578100	-1.744517
0.578200	-1.824040
0.578300	-1.894150
0.578400	-1.881816
0.578500	-1.860393
0.578600	-1.811381
0.578700	-1.724068
0.578800	-1.979840
0.578900	-2.110971
0.579000	-2.163229
0.579100	-2.044107
0.579200	-1.828584
0.579300	-1.809758
0.579400	-1.998016
0.579500	-2.208022
0.579600	-2.319678
0.579700	-2.140833
0.579800	-1.945434
0.579900	-1.871754
0.580000	-1.977243
0.580100	-2.137912
0.580200	-2.147000
0.580300	-2.187248
0.580400	-2.137262
0.580500	-2.135639
0.580600	-2.161931
0.580700	-2.231067
0.580800	-2.249568
0.580900	-2.219057
0.581000	-2.232041
0.581100	-2.276184
0.581200	-2.306370
0.581300	-2.265473
0.581400	-2.251516
0.581500	-2.203802
0.581600	-2.306695
0.581700	-2.419974
0.581800	-2.453082
0.581900	-2.436204
0.582000	-2.328766
0.582100	-2.356681
0.582200	-2.362848
0.582300	-2.329091
0.582400	-2.347917
0.582500	-2.343697
0.582600	-2.339153
0.582700	-2.325521
0.582800	-2.366743
0.582900	-2.356356
0.583000	-2.362848
0.583100	-2.367392
0.583200	-2.423545
0.583300	-2.419650
0.583400	-2.438800
0.583500	-2.460223
0.583600	-2.490734
0.583700	-2.538772
0.583800	-2.558896
0.583900	-2.646209
0.584000	-2.856215
0.584100	-3.133410
0.584200	-3.130164
0.584300	-2.949371
0.584400	-2.733522
0.584500	-2.812396
0.584600	-3.053887
0.584700	-3.330433
0.584800	-3.416123
0.584900	-3.295702
0.585000	-3.156131
0.585100	-3.105820
0.585200	-3.295702
0.585300	-3.481040
0.585400	-3.586205
0.585500	-3.544334
0.585600	-3.470329
0.585700	-3.475197
0.585800	-3.487532
0.585900	-3.524859
0.586000	-3.583609
0.586100	-3.601461
0.586200	-3.611199
0.586300	-3.638788
0.586400	-3.728374
0.586500	-3.700784
0.586600	-3.754016
0.586700	-3.774465
0.586800	-3.831267
0.586900	-3.844251
0.587000	-3.886447
0.587100	-3.743954
0.587200	-3.599838
0.587300	-3.649500
0.587400	-3.800432
0.587500	-4.014334
0.587600	-4.087041
0.587700	-3.938381
0.587800	-3.752718
0.587900	-3.659886
0.588000	-3.818284
0.588100	-4.044845
0.588200	-4.253554
0.588300	-4.205840
0.588400	-4.066592
0.588500	-3.950066
0.588600	-3.922801
0.588700	-3.977980
0.588800	-4.036081
0.588900	-4.049064
0.589000	-4.021799
0.589100	-3.975708
0.589200	-3.935784
0.589300	-3.841330
0.589400	-3.723505
0.589500	-3.638139
0.589600	-3.581337
0.589700	-3.579714
0.589800	-3.561862
0.589900	-3.494023
0.590000	-3.311282
0.590100	-3.213258
0.590200	-2.986698
0.590300	-3.019805
0.590400	-2.974363
0.590500	-2.876015
0.590600	-2.802009
0.590700	-2.703336
0.590800	-2.571555
0.590900	-2.517674
0.591000	-2.459898
0.591100	-2.501445
0.591200	-2.451134
0.591300	-2.525139
0.591400	-2.477750
0.591500	-2.466390
0.591600	-2.422571
0.591700	-2.368366
0.591800	-2.381998
0.591900	-2.321626
0.592000	-2.396280
0.592100	-2.298580
0.592200	-2.305396
0.592300	-2.078837
0.592400	-1.896422
0.592500	-1.761720
0.592600	-2.054169
0.592700	-2.322599
0.592800	-2.357330
0.592900	-2.038265
0.593000	-1.899343
0.593100	-1.622474
0.593200	-1.869481
0.593300	-1.955496
0.593400	-2.117463
0.593500	-1.954847
0.593600	-1.741596
0.593700	-1.655906
0.593800	-1.526722
0.593900	-1.674407
0.594000	-1.569242
0.594100	-1.677978
0.594200	-1.641300
0.594300	-1.641624
0.594400	-1.574760
0.594500	-1.532565
0.594600	-1.532240
0.594700	-1.581252
0.594800	-1.557233
0.594900	-1.663047
0.595000	-1.701672
0.595100	-1.739648
0.595200	-1.659152
0.595300	-1.664021
0.595400	-1.668240
0.595500	-1.895773
0.595600	-2.003534
0.595700	-1.966532
0.595800	-1.829233
0.595900	-1.590989
0.596000	-1.677328
0.596100	-1.845138
0.596200	-2.058389
0.596300	-2.013596
0.596400	-1.865586
0.596500	-1.704269
0.596600	-1.732183
0.596700	-1.832479
0.596800	-1.906159
0.596900	-1.906484
0.597000	-1.984059
0.597100	-1.907782
0.597200	-2.000938
0.597300	-1.994770
0.597400	-2.060985
0.597500	-2.055792
0.597600	-2.035343
0.597700	-2.065205
0.597800	-2.084680
0.597900	-2.086303
0.598000	-2.024632
0.598100	-1.975295
0.598200	-1.996069
0.598300	-2.114542
0.598400	-2.193415
0.598500	-2.176212
0.598600	-2.106752
0.598700	-2.028527
0.598800	-2.034694
0.598900	-2.082732
0.599000	-2.060336
0.599100	-2.070398
0.599200	-2.085978
