LabVIEW Measurement	
Writer_Version	2
Reader_Version	2
Separator	Tab
Decimal_Separator	.
Multi_Headings	Yes
X_Columns	One
Time_Pref	Relative
Operator	as989
Description	Time Domain Data
Date	2021/11/24
Time	13:31:58.1513438224792480469
***End_of_Header***	
	
Channels	1	
Samples	15000	
Date	1903/12/31	
Time	19:00:00	
X_Dimension	Time	
X0	0.0000000000000000E+0	
Delta_X	0.000100	
***End_of_Header***		
X_Value	Untitled	Comment
0.000000	-4.887797	Tare Values:0.000000, 0.000000, 0.000000, 0.000000\0D\0A
0.000100	-4.813141
0.000200	-4.634943
0.000300	-4.639163
0.000400	-4.771270
0.000500	-4.971216
0.000600	-5.088067
0.000700	-4.994911
0.000800	-4.799833
0.000900	-4.703106
0.001000	-4.814115
0.001100	-5.027694
0.001200	-5.185119
0.001300	-5.187716
0.001400	-5.045222
0.001500	-4.930967
0.001600	-4.904351
0.001700	-4.956285
0.001800	-5.022176
0.001900	-5.003025
0.002000	-4.957583
0.002100	-4.923826
0.002200	-4.903377
0.002300	-4.855338
0.002400	-4.732644
0.002500	-4.649874
0.002600	-4.601511
0.002700	-4.573921
0.002800	-4.578465
0.002900	-4.517118
0.003000	-4.352228
0.003100	-4.245114
0.003200	-4.042573
0.003300	-4.064645
0.003400	-4.048091
0.003500	-3.992586
0.003600	-3.918256
0.003700	-3.821530
0.003800	-3.674817
0.003900	-3.626454
0.004000	-3.558616
0.004100	-3.586855
0.004200	-3.586530
0.004300	-3.598864
0.004400	-3.549203
0.004500	-3.535570
0.004600	-3.484286
0.004700	-3.476820
0.004800	-3.460267
0.004900	-3.426834
0.005000	-3.463512
0.005100	-3.471302
0.005200	-3.427159
0.005300	-3.311931
0.005400	-3.018507
0.005500	-2.950344
0.005600	-3.072713
0.005700	-3.411903
0.005800	-3.322643
0.005900	-3.212284
0.006000	-2.902955
0.006100	-2.835117
0.006200	-2.798114
0.006300	-3.014287
0.006400	-3.048369
0.006500	-2.963652
0.006600	-2.871470
0.006700	-2.689054
0.006800	-2.696844
0.006900	-2.710801
0.007000	-2.758840
0.007100	-2.767928
0.007200	-2.738391
0.007300	-2.697493
0.007400	-2.653675
0.007500	-2.674773
0.007600	-2.654973
0.007700	-2.663412
0.007800	-2.725732
0.007900	-2.756243
0.008000	-2.771498
0.008100	-2.775069
0.008200	-2.707555
0.008300	-2.659842
0.008400	-2.627383
0.008500	-2.843881
0.008600	-3.062326
0.008700	-3.060703
0.008800	-2.921132
0.008900	-2.684835
0.009000	-2.711775
0.009100	-2.877313
0.009200	-3.121725
0.009300	-3.088293
0.009400	-2.964301
0.009500	-2.765981
0.009600	-2.798439
0.009700	-2.860759
0.009800	-2.991242
0.009900	-2.968846
0.010000	-3.024999
0.010100	-2.959757
0.010200	-2.985075
0.010300	-3.002278
0.010400	-3.035710
0.010500	-2.998707
0.010600	-2.961056
0.010700	-2.981829
0.010800	-3.049992
0.010900	-3.039605
0.011000	-3.018182
0.011100	-2.970144
0.011200	-2.939308
0.011300	-3.055834
0.011400	-3.132111
0.011500	-3.160675
0.011600	-3.141524
0.011700	-3.110040
0.011800	-3.126594
0.011900	-3.105496
0.012000	-3.084398
0.012100	-3.113610
0.012200	-3.119453
0.012300	-3.107768
0.012400	-3.090889
0.012500	-3.115233
0.012600	-3.120102
0.012700	-3.124971
0.012800	-3.127567
0.012900	-3.145744
0.013000	-3.159052
0.013100	-3.148341
0.013200	-3.199300
0.013300	-3.215854
0.013400	-3.239224
0.013500	-3.243444
0.013600	-3.337573
0.013700	-3.575494
0.013800	-3.799458
0.013900	-3.735839
0.014000	-3.585232
0.014100	-3.429106
0.014200	-3.521613
0.014300	-3.811468
0.014400	-4.050038
0.014500	-4.064320
0.014600	-3.967918
0.014700	-3.867946
0.014800	-3.925073
0.014900	-4.029914
0.015000	-4.224990
0.015100	-4.299320
0.015200	-4.308084
0.015300	-4.224666
0.015400	-4.217525
0.015500	-4.266537
0.015600	-4.265239
0.015700	-4.305163
0.015800	-4.325287
0.015900	-4.324638
0.016000	-4.384362
0.016100	-4.440191
0.016200	-4.467132
0.016300	-4.452850
0.016400	-4.425585
0.016500	-4.502512
0.016600	-4.523610
0.016700	-4.576842
0.016800	-4.447656
0.016900	-4.310032
0.017000	-4.351254
0.017100	-4.518092
0.017200	-4.700185
0.017300	-4.735240
0.017400	-4.543734
0.017500	-4.391828
0.017600	-4.405136
0.017700	-4.559639
0.017800	-4.732644
0.017900	-4.831318
0.018000	-4.777761
0.018100	-4.662533
0.018200	-4.587878
0.018300	-4.604432
0.018400	-4.645005
0.018500	-4.660585
0.018600	-4.657989
0.018700	-4.647602
0.018800	-4.621635
0.018900	-4.596966
0.019000	-4.533347
0.019100	-4.420067
0.019200	-4.333077
0.019300	-4.307760
0.019400	-4.291530
0.019500	-4.284714
0.019600	-4.178574
0.019700	-4.023747
0.019800	-3.915335
0.019900	-3.727400
0.020000	-3.788422
0.020100	-3.741033
0.020200	-3.685529
0.020300	-3.597891
0.020400	-3.481689
0.020500	-3.384638
0.020600	-3.362242
0.020700	-3.339846
0.020800	-3.356075
0.020900	-3.303817
0.021000	-3.343741
0.021100	-3.294728
0.021200	-3.307063
0.021300	-3.266814
0.021400	-3.258699
0.021500	-3.235654
0.021600	-3.216503
0.021700	-3.284017
0.021800	-3.215854
0.021900	-3.208064
0.022000	-3.023376
0.022100	-2.734821
0.022200	-2.728653
0.022300	-3.009094
0.022400	-3.177878
0.022500	-3.005199
0.022600	-2.906850
0.022700	-2.593951
0.022800	-2.529684
0.022900	-2.708529
0.023000	-2.864005
0.023100	-2.858487
0.023200	-2.698467
0.023300	-2.597197
0.023400	-2.398227
0.023500	-2.482619
0.023600	-2.499497
0.023700	-2.571555
0.023800	-2.473855
0.023900	-2.478724
0.024000	-2.437826
0.024100	-2.420624
0.024200	-2.419325
0.024300	-2.404070
0.024400	-2.377454
0.024500	-2.372261
0.024600	-2.500796
0.024700	-2.534877
0.024800	-2.498524
0.024900	-2.420299
0.025000	-2.355382
0.025100	-2.415755
0.025200	-2.664710
0.025300	-2.752673
0.025400	-2.697169
0.025500	-2.511507
0.025600	-2.328766
0.025700	-2.456977
0.025800	-2.659192
0.025900	-2.799088
0.026000	-2.704310
0.026100	-2.527736
0.026200	-2.418351
0.026300	-2.452757
0.026400	-2.585837
0.026500	-2.649130
0.026600	-2.629331
0.026700	-2.639393
0.026800	-2.583240
0.026900	-2.622839
0.027000	-2.646534
0.027100	-2.690353
0.027200	-2.643937
0.027300	-2.644262
0.027400	-2.657570
0.027500	-2.694572
0.027600	-2.696195
0.027700	-2.655622
0.027800	-2.621865
0.027900	-2.650753
0.028000	-2.791623
0.028100	-2.839337
0.028200	-2.868549
0.028300	-2.840635
0.028400	-2.746181
0.028500	-2.795842
0.028600	-2.787079
0.028700	-2.797141
0.028800	-2.756568
0.028900	-2.763059
0.029000	-2.750725
0.029100	-2.733522
0.029200	-2.753646
0.029300	-2.735470
0.029400	-2.737093
0.029500	-2.739040
0.029600	-2.733522
0.029700	-2.755269
0.029800	-2.730276
0.029900	-2.754620
0.030000	-2.732224
0.030100	-2.799413
0.030200	-2.802983
0.030300	-3.002602
0.030400	-3.245067
0.030500	-3.379769
0.030600	-3.307063
0.030700	-3.054536
0.030800	-3.009094
0.030900	-3.164894
0.031000	-3.488505
0.031100	-3.649500
0.031200	-3.663132
0.031300	-3.463837
0.031400	-3.399245
0.031500	-3.444362
0.031600	-3.661509
0.031700	-3.849120
0.031800	-3.868595
0.031900	-3.833864
0.032000	-3.758236
0.032100	-3.799783
0.032200	-3.828995
0.032300	-3.916309
0.032400	-3.920853
0.032500	-3.927669
0.032600	-3.958180
0.032700	-4.005570
0.032800	-4.066917
0.032900	-4.057504
0.033000	-4.056205
0.033100	-4.078277
0.033200	-4.135729
0.033300	-4.172083
0.033400	-4.114631
0.033500	-3.981551
0.033600	-3.878008
0.033700	-4.002973
0.033800	-4.212980
0.033900	-4.357097
0.034000	-4.291206
0.034100	-4.122421
0.034200	-3.994534
0.034300	-4.031537
0.034400	-4.243492
0.034500	-4.437270
0.034600	-4.481738
0.034700	-4.380142
0.034800	-4.276924
0.034900	-4.201295
0.035000	-4.249659
0.035100	-4.297048
0.035200	-4.318471
0.035300	-4.274976
0.035400	-4.275950
0.035500	-4.231806
0.035600	-4.218823
0.035700	-4.141896
0.035800	-3.996806
0.035900	-3.908194
0.036000	-3.888719
0.036100	-3.890667
0.036200	-3.869244
0.036300	-3.713118
0.036400	-3.597241
0.036500	-3.370357
0.036600	-3.347960
0.036700	-3.353154
0.036800	-3.305440
0.036900	-3.214556
0.037000	-3.117181
0.037100	-2.997084
0.037200	-2.893867
0.037300	-2.880883
0.037400	-2.881208
0.037500	-2.890945
0.037600	-2.844530
0.037700	-2.853618
0.037800	-2.863356
0.037900	-2.789351
0.038000	-2.829599
0.038100	-2.759164
0.038200	-2.825379
0.038300	-2.795518
0.038400	-2.860434
0.038500	-2.840959
0.038600	-2.689379
0.038700	-2.484567
0.038800	-2.257358
0.038900	-2.400175
0.039000	-2.688080
0.039100	-2.720214
0.039200	-2.685808
0.039300	-2.289492
0.039400	-2.232365
0.039500	-2.084680
0.039600	-2.358953
0.039700	-2.410237
0.039800	-2.425492
0.039900	-2.269692
0.040000	-2.116489
0.040100	-2.043133
0.040200	-2.014895
0.040300	-2.155439
0.040400	-2.081110
0.040500	-2.153492
0.040600	-2.078188
0.040700	-2.096040
0.040800	-2.070074
0.040900	-2.081110
0.041000	-2.030150
0.041100	-2.119735
0.041200	-2.125253
0.041300	-2.133367
0.041400	-2.185625
0.041500	-2.086303
0.041600	-2.077864
0.041700	-2.037615
0.041800	-2.237559
0.041900	-2.430361
0.042000	-2.422896
0.042100	-2.302151
0.042200	-2.126227
0.042300	-2.041510
0.042400	-2.180432
0.042500	-2.405693
0.042600	-2.486514
0.042700	-2.360900
0.042800	-2.167773
0.042900	-2.112269
0.043000	-2.148298
0.043100	-2.288194
0.043200	-2.308642
0.043300	-2.333311
0.043400	-2.292089
0.043500	-2.272938
0.043600	-2.319678
0.043700	-2.371611
0.043800	-2.387191
0.043900	-2.346294
0.044000	-2.351487
0.044100	-2.398876
0.044200	-2.448862
0.044300	-2.416404
0.044400	-2.407316
0.044500	-2.362199
0.044600	-2.436853
0.044700	-2.564739
0.044800	-2.583889
0.044900	-2.585837
0.045000	-2.554677
0.045100	-2.524166
0.045200	-2.531631
0.045300	-2.512805
0.045400	-2.525464
0.045500	-2.495602
0.045600	-2.504691
0.045700	-2.490084
0.045800	-2.512481
0.045900	-2.527087
0.046000	-2.518648
0.046100	-2.521244
0.046200	-2.516700
0.046300	-2.512805
0.046400	-2.536175
0.046500	-2.533579
0.046600	-2.567660
0.046700	-2.619918
0.046800	-2.612777
0.046900	-2.672176
0.047000	-2.802983
0.047100	-3.111013
0.047200	-3.115233
0.047300	-2.996111
0.047400	-2.777016
0.047500	-2.823432
0.047600	-3.056483
0.047700	-3.300571
0.047800	-3.391779
0.047900	-3.270384
0.048000	-3.147367
0.048100	-3.115882
0.048200	-3.288886
0.048300	-3.486882
0.048400	-3.554396
0.048500	-3.515121
0.048600	-3.438195
0.048700	-3.450854
0.048800	-3.491102
0.048900	-3.546282
0.049000	-3.610225
0.049100	-3.599838
0.049200	-3.634893
0.049300	-3.683906
0.049400	-3.766026
0.049500	-3.778360
0.049600	-3.863726
0.049700	-3.818284
0.049800	-3.872814
0.049900	-3.932538
0.050000	-3.997780
0.050100	-3.854962
0.050200	-3.752069
0.050300	-3.753042
0.050400	-3.918256
0.050500	-4.113982
0.050600	-4.191882
0.050700	-4.060100
0.050800	-3.867621
0.050900	-3.836785
0.051000	-3.949417
0.051100	-4.181171
0.051200	-4.349307
0.051300	-4.296724
0.051400	-4.157152
0.051500	-4.064320
0.051600	-4.051337
0.051700	-4.126640
0.051800	-4.150335
0.051900	-4.141247
0.052000	-4.094831
0.052100	-4.056530
0.052200	-4.022773
0.052300	-3.983174
0.052400	-3.888394
0.052500	-3.755964
0.052600	-3.684230
0.052700	-3.675791
0.052800	-3.637815
0.052900	-3.596592
0.053000	-3.409631
0.053100	-3.305115
0.053200	-3.066870
0.053300	-3.083099
0.053400	-3.082775
0.053500	-2.987996
0.053600	-2.906525
0.053700	-2.819537
0.053800	-2.664061
0.053900	-2.629655
0.054000	-2.569283
0.054100	-2.583564
0.054200	-2.543965
0.054300	-2.561817
0.054400	-2.509235
0.054500	-2.485216
0.054600	-2.448862
0.054700	-2.411860
0.054800	-2.434581
0.054900	-2.441072
0.055000	-2.495278
0.055100	-2.518648
0.055200	-2.477426
0.055300	-2.277158
0.055400	-1.958417
0.055500	-1.960040
0.055600	-2.131744
0.055700	-2.474180
0.055800	-2.375831
0.055900	-2.302475
0.056000	-1.980164
0.056100	-1.885386
0.056200	-1.961663
0.056300	-2.100909
0.056400	-2.205425
0.056500	-2.006780
0.056600	-1.878245
0.056700	-1.701023
0.056800	-1.725691
0.056900	-1.783792
0.057000	-1.831505
0.057100	-1.825987
0.057200	-1.831181
0.057300	-1.760097
0.057400	-1.730235
0.057500	-1.733806
0.057600	-1.701348
0.057700	-1.711410
0.057800	-1.725691
0.057900	-1.732508
0.058000	-1.768861
0.058100	-1.784116
0.058200	-1.754255
0.058300	-1.675381
0.058400	-1.686417
0.058500	-1.836374
0.058600	-2.045405
0.058700	-1.954847
0.058800	-1.818847
0.058900	-1.567295
0.059000	-1.665968
0.059100	-1.829233
0.059200	-2.074618
0.059300	-2.036966
0.059400	-1.872727
0.059500	-1.671486
0.059600	-1.658178
0.059700	-1.799047
0.059800	-1.929205
0.059900	-1.893501
0.060000	-1.899992
0.060100	-1.799372
0.060200	-1.880517
0.060300	-1.902913
0.060400	-1.992498
0.060500	-1.970751
0.060600	-1.924985
0.060700	-1.947706
0.060800	-1.990875
0.060900	-2.005482
0.061000	-1.969453
0.061100	-1.949653
0.061200	-1.960040
0.061300	-2.063907
0.061400	-2.155764
0.061500	-2.161606
0.061600	-2.145052
0.061700	-2.099611
0.061800	-2.131420
0.061900	-2.145377
0.062000	-2.117463
0.062100	-2.132394
0.062200	-2.154465
0.062300	-2.133043
0.062400	-2.141807
0.062500	-2.115515
0.062600	-2.114866
0.062700	-2.136289
0.062800	-2.117138
0.062900	-2.158036
0.063000	-2.121682
0.063100	-2.142131
0.063200	-2.149921
0.063300	-2.199582
0.063400	-2.226198
0.063500	-2.268394
0.063600	-2.355382
0.063700	-2.608233
0.063800	-2.794219
0.063900	-2.692625
0.064000	-2.518323
0.064100	-2.364146
0.064200	-2.579020
0.064300	-2.829274
0.064400	-3.086994
0.064500	-3.076608
0.064600	-2.959433
0.064700	-2.855241
0.064800	-2.876339
0.064900	-3.069791
0.065000	-3.259998
0.065100	-3.279148
0.065200	-3.296027
0.065300	-3.233706
0.065400	-3.241496
0.065500	-3.271683
0.065600	-3.332705
0.065700	-3.351206
0.065800	-3.364189
0.065900	-3.391455
0.066000	-3.449880
0.066100	-3.513823
0.066200	-3.549852
0.066300	-3.533298
0.066400	-3.554721
0.066500	-3.603409
0.066600	-3.617366
0.066700	-3.639762
0.066800	-3.439493
0.066900	-3.401517
0.067000	-3.453126
0.067100	-3.596592
0.067200	-3.779009
0.067300	-3.801406
0.067400	-3.635542
0.067500	-3.473899
0.067600	-3.482987
0.067700	-3.642683
0.067800	-3.872165
0.067900	-3.974085
0.068000	-3.877034
0.068100	-3.752393
0.068200	-3.697538
0.068300	-3.720584
0.068400	-3.784852
0.068500	-3.816336
0.068600	-3.794914
0.068700	-3.785176
0.068800	-3.743954
0.068900	-3.698837
0.069000	-3.645929
0.069100	-3.516095
0.069200	-3.462539
0.069300	-3.434300
0.069400	-3.422615
0.069500	-3.418070
0.069600	-3.283043
0.069700	-3.124321
0.069800	-2.997409
0.069900	-2.866277
0.070000	-2.861733
0.070100	-2.797465
0.070200	-2.723785
0.070300	-2.615698
0.070400	-2.516376
0.070500	-2.368690
0.070600	-2.369339
0.070700	-2.335907
0.070800	-2.368366
0.070900	-2.359926
0.071000	-2.356356
0.071100	-2.352461
0.071200	-2.269692
0.071300	-2.307669
0.071400	-2.223601
0.071500	-2.283649
0.071600	-2.280404
0.071700	-2.358953
0.071800	-2.308967
0.071900	-2.281377
0.072000	-2.021062
0.072100	-1.794178
0.072200	-1.823066
0.072300	-2.158036
0.072400	-2.280079
0.072500	-2.116814
0.072600	-1.976269
0.072700	-1.671161
0.072800	-1.716278
0.072900	-1.768212
0.073000	-1.927906
0.073100	-1.896097
0.073200	-1.700049
0.073300	-1.572164
0.073400	-1.522503
0.073500	-1.602025
0.073600	-1.565997
0.073700	-1.650713
0.073800	-1.610464
0.073900	-1.538083
0.074000	-1.493615
0.074100	-1.478684
0.074200	-1.481605
0.074300	-1.470569
0.074400	-1.479333
0.074500	-1.522827
0.074600	-1.595858
0.074700	-1.628641
0.074800	-1.582550
0.074900	-1.547820
0.075000	-1.424479
0.075100	-1.566646
0.075200	-1.761071
0.075300	-1.813329
0.075400	-1.755877
0.075500	-1.602025
0.075600	-1.487448
0.075700	-1.605596
0.075800	-1.826312
0.075900	-1.936346
0.076000	-1.843515
0.076100	-1.630589
0.076200	-1.536135
0.076300	-1.602999
0.076400	-1.710760
0.076500	-1.757500
0.076600	-1.723419
0.076700	-1.747438
0.076800	-1.689987
0.076900	-1.766589
0.077000	-1.750684
0.077100	-1.805863
0.077200	-1.791582
0.077300	-1.779247
0.077400	-1.823066
0.077500	-1.853901
0.077600	-1.833453
0.077700	-1.791257
0.077800	-1.749061
0.077900	-1.783467
0.078000	-1.922713
0.078100	-1.959391
0.078200	-1.975945
0.078300	-1.801644
0.078400	-1.887333
0.078500	-1.903238
0.078600	-1.885061
0.078700	-1.911353
0.078800	-1.907782
0.078900	-1.916221
0.079000	-1.937644
0.079100	-1.943811
0.079200	-1.951925
0.079300	-1.937644
0.079400	-1.935696
0.079500	-1.937644
0.079600	-1.916546
0.079700	-1.940565
0.079800	-1.921739
0.079900	-1.967181
0.080000	-1.978541
0.080100	-2.020088
0.080200	-2.064880
0.080300	-2.228146
0.080400	-2.552404
0.080500	-2.600118
0.080600	-2.482944
0.080700	-2.282351
0.080800	-2.281377
0.080900	-2.472557
0.081000	-2.744883
0.081100	-2.903929
0.081200	-2.846153
0.081300	-2.696844
0.081400	-2.642314
0.081500	-2.747155
0.081600	-2.910745
0.081700	-2.998707
0.081800	-3.002927
0.081900	-2.938659
0.082000	-2.969495
0.082100	-2.971118
0.082200	-3.032789
0.082300	-3.052913
0.082400	-3.078555
0.082500	-3.084073
0.082600	-3.115233
0.082700	-3.204818
0.082800	-3.202222
0.082900	-3.236628
0.083000	-3.219100
0.083100	-3.285965
0.083200	-3.347636
0.083300	-3.402815
0.083400	-3.338223
0.083500	-3.193458
0.083600	-3.124646
0.083700	-3.252857
0.083800	-3.461889
0.083900	-3.590425
0.084000	-3.482663
0.084100	-3.265840
0.084200	-3.167491
0.084300	-3.245716
0.084400	-3.458968
0.084500	-3.643332
0.084600	-3.647877
0.084700	-3.511551
0.084800	-3.407684
0.084900	-3.378471
0.085000	-3.413526
0.085100	-3.456371
0.085200	-3.487532
0.085300	-3.465135
0.085400	-3.403789
0.085500	-3.443388
0.085600	-3.404763
0.085700	-3.279797
0.085800	-3.183071
0.085900	-3.131462
0.086000	-3.132761
0.086100	-3.113935
0.086200	-3.109066
0.086300	-2.941905
0.086400	-2.837714
0.086500	-2.658543
0.086600	-2.608233
0.086700	-2.625436
0.086800	-2.512805
0.086900	-2.467039
0.087000	-2.342074
0.087100	-2.220680
0.087200	-2.144403
0.087300	-2.121033
0.087400	-2.117463
0.087500	-2.123630
0.087600	-2.076565
0.087700	-2.095067
0.087800	-2.012298
0.087900	-2.003534
0.088000	-1.989253
0.088100	-1.883439
0.088200	-1.972699
0.088300	-1.903563
0.088400	-2.057415
0.088500	-1.870131
0.088600	-1.857147
0.088700	-1.516011
0.088800	-1.371572
0.088900	-1.549118
0.089000	-1.845138
0.089100	-1.962961
0.089200	-1.725042
0.089300	-1.506598
0.089400	-1.365729
0.089500	-1.303085
0.089600	-1.525424
0.089700	-1.569892
0.089800	-1.539381
0.089900	-1.386503
0.090000	-1.249529
0.090100	-1.177796
0.090200	-1.212202
0.090300	-1.283285
0.090400	-1.240765
0.090500	-1.291725
0.090600	-1.214799
0.090700	-1.188832
0.090800	-1.216097
0.090900	-1.234598
0.091000	-1.165137
0.091100	-1.137873
0.091200	-1.251801
0.091300	-1.286856
0.091400	-1.330674
0.091500	-1.289452
0.091600	-1.228756
0.091700	-1.167409
0.091800	-1.388450
0.091900	-1.632211
0.092000	-1.625395
0.092100	-1.512441
0.092200	-1.244011
0.092300	-1.295295
0.092400	-1.433892
0.092500	-1.684794
0.092600	-1.730235
0.092700	-1.586121
0.092800	-1.359887
0.092900	-1.279715
0.093000	-1.390073
0.093100	-1.547171
0.093200	-1.568593
0.093300	-1.590016
0.093400	-1.534188
0.093500	-1.524125
0.093600	-1.562426
0.093700	-1.643896
0.093800	-1.648765
0.093900	-1.584498
0.094000	-1.600727
0.094100	-1.618579
0.094200	-1.658503
0.094300	-1.627343
0.094400	-1.616307
0.094500	-1.601701
0.094600	-1.698102
0.094700	-1.808460
0.094800	-1.846436
0.094900	-1.845787
0.095000	-1.791906
0.095100	-1.761071
0.095200	-1.767238
0.095300	-1.747438
0.095400	-1.773730
0.095500	-1.763992
0.095600	-1.762694
0.095700	-1.768536
0.095800	-1.778923
0.095900	-1.789634
0.096000	-1.806837
0.096100	-1.812030
0.096200	-1.789309
0.096300	-1.806837
0.096400	-1.810407
0.096500	-1.823066
0.096600	-1.841243
0.096700	-1.877596
0.096800	-1.918493
0.096900	-1.958742
0.097000	-2.180107
0.097100	-2.363497
0.097200	-2.370313
0.097300	-2.175239
0.097400	-2.019439
0.097500	-2.139534
0.097600	-2.375831
0.097700	-2.644911
0.097800	-2.722162
0.097900	-2.603040
0.098000	-2.420299
0.098100	-2.436853
0.098200	-2.559545
0.098300	-2.797465
0.098400	-2.880234
0.098500	-2.885752
0.098600	-2.809799
0.098700	-2.788701
0.098800	-2.787403
0.098900	-2.838687
0.099000	-2.873418
0.099100	-2.885752
0.099200	-2.922105
0.099300	-2.965924
0.099400	-3.029218
0.099500	-3.024999
0.099600	-3.053237
0.099700	-3.027595
0.099800	-3.096732
0.099900	-3.140226
0.100000	-3.169763
0.100100	-3.040579
0.100200	-2.908148
0.100300	-2.950669
0.100400	-3.137305
0.100500	-3.334003
0.100600	-3.383340
0.100700	-3.233382
0.100800	-3.039930
0.100900	-2.981180
0.101000	-3.109391
0.101100	-3.318748
0.101200	-3.471627
0.101300	-3.437221
0.101400	-3.310633
0.101500	-3.221048
0.101600	-3.180150
0.101700	-3.230461
0.101800	-3.261296
0.101900	-3.276876
0.102000	-3.238900
0.102100	-3.213258
0.102200	-3.150613
0.102300	-3.099328
0.102400	-3.000006
0.102500	-2.896788
0.102600	-2.844854
0.102700	-2.824406
0.102800	-2.834143
0.102900	-2.762410
0.103000	-2.592328
0.103100	-2.490409
0.103200	-2.275859
0.103300	-2.336881
0.103400	-2.301501
0.103500	-2.230418
0.103600	-2.130771
0.103700	-2.016842
0.103800	-1.906808
0.103900	-1.844489
0.104000	-1.818522
0.104100	-1.829558
0.104200	-1.824689
0.104300	-1.803916
0.104400	-1.845138
0.104500	-1.805214
0.104600	-1.763667
0.104700	-1.738675
0.104800	-1.691935
0.104900	-1.758150
0.105000	-1.699400
0.105100	-1.811381
0.105200	-1.639352
0.105300	-1.593911
0.105400	-1.275820
0.105500	-1.250503
0.105600	-1.515362
0.105700	-1.704918
0.105800	-1.632536
0.105900	-1.425128
0.106000	-1.253748
0.106100	-1.003496
0.106200	-1.217395
0.106300	-1.269004
0.106400	-1.442331
0.106500	-1.275495
0.106600	-1.199219
0.106700	-1.054455
0.106800	-1.093729
0.106900	-1.086589
0.107000	-1.082044
0.107100	-1.088861
0.107200	-1.016154
0.107300	-1.021023
0.107400	-1.005768
0.107500	-0.979476
0.107600	-0.964870
0.107700	-0.977854
0.107800	-0.966818
0.107900	-1.014531
0.108000	-1.095028
0.108100	-1.101844
0.108200	-0.991161
0.108300	-1.040498
0.108400	-0.958054
0.108500	-1.305682
0.108600	-1.299839
0.108700	-1.305032
0.108800	-1.162541
0.108900	-0.968765
0.109000	-1.109634
0.109100	-1.255696
0.109200	-1.479982
0.109300	-1.446226
0.109400	-1.297567
0.109500	-1.153128
0.109600	-1.170331
0.109700	-1.292698
0.109800	-1.380985
0.109900	-1.359562
0.110000	-1.383906
0.110100	-1.338464
0.110200	-1.415066
0.110300	-1.441032
0.110400	-1.463429
0.110500	-1.430321
0.110600	-1.401433
0.110700	-1.418636
0.110800	-1.471868
0.110900	-1.468622
0.111000	-1.444278
0.111100	-1.396240
0.111200	-1.394293
0.111300	-1.535486
0.111400	-1.602025
0.111500	-1.627667
0.111600	-1.604947
0.111700	-1.504001
0.111800	-1.550417
0.111900	-1.566321
0.112000	-1.558856
0.112100	-1.579629
0.112200	-1.577032
0.112300	-1.558531
0.112400	-1.590989
0.112500	-1.567944
0.112600	-1.575734
0.112700	-1.581577
0.112800	-1.573787
0.112900	-1.602025
0.113000	-1.599429
0.113100	-1.624097
0.113200	-1.601376
0.113300	-1.630913
0.113400	-1.661424
0.113500	-1.685118
0.113600	-1.811381
0.113700	-2.072995
0.113800	-2.214838
0.113900	-2.149921
0.114000	-1.905186
0.114100	-1.823715
0.114200	-2.038265
0.114300	-2.331363
0.114400	-2.554027
0.114500	-2.533903
0.114600	-2.379726
0.114700	-2.294036
0.114800	-2.352136
0.114900	-2.553054
0.115000	-2.701388
0.115100	-2.741961
0.115200	-2.688405
0.115300	-2.667956
0.115400	-2.684510
0.115500	-2.725408
0.115600	-2.774420
0.115700	-2.811098
0.115800	-2.839661
0.115900	-2.870497
0.116000	-2.925676
0.116100	-2.997084
0.116200	-3.021753
0.116300	-2.994812
0.116400	-3.039605
0.116500	-3.066545
0.116600	-3.139901
0.116700	-3.110040
0.116800	-2.978583
0.116900	-2.896139
0.117000	-3.003901
0.117100	-3.178527
0.117200	-3.342442
0.117300	-3.283692
0.117400	-3.137629
0.117500	-2.991242
0.117600	-3.011042
0.117700	-3.219425
0.117800	-3.415149
0.117900	-3.484286
0.118000	-3.365812
0.118100	-3.246041
0.118200	-3.215854
0.118300	-3.254155
0.118400	-3.313554
0.118500	-3.334977
0.118600	-3.306738
0.118700	-3.281745
0.118800	-3.250260
0.118900	-3.239224
0.119000	-3.156780
0.119100	-3.051615
0.119200	-2.965924
0.119300	-2.919509
0.119400	-2.893867
0.119500	-2.876988
0.119600	-2.757217
0.119700	-2.585187
0.119800	-2.380051
0.119900	-2.311239
0.120000	-2.331688
0.120100	-2.263525
0.120200	-2.191792
0.120300	-2.122332
0.120400	-1.977243
0.120500	-1.894150
0.120600	-1.841567
0.120700	-1.849357
0.120800	-1.849682
0.120900	-1.845138
0.121000	-1.829882
0.121100	-1.790608
0.121200	-1.751982
0.121300	-1.748087
0.121400	-1.728937
0.121500	-1.757176
0.121600	-1.731209
0.121700	-1.788660
0.121800	-1.753930
0.121900	-1.656231
0.122000	-1.506598
0.122100	-1.204412
0.122200	-1.417662
0.122300	-1.546197
0.122400	-1.807162
0.122500	-1.568593
0.122600	-1.436813
0.122700	-1.143715
0.122800	-1.172603
0.122900	-1.272250
0.123000	-1.393319
0.123100	-1.434541
0.123200	-1.146312
0.123300	-1.094703
0.123400	-0.943772
0.123500	-1.077825
0.123600	-0.988889
0.123700	-1.107037
0.123800	-1.070359
0.123900	-1.036603
0.124000	-0.971362
0.124100	-1.023944
0.124200	-0.978503
0.124300	-0.951887
0.124400	-0.939877
0.124500	-1.069710
0.124600	-0.991811
0.124700	-1.034006
0.124800	-1.014531
0.124900	-0.943772
0.125000	-0.874636
0.125100	-0.987266
0.125200	-1.284908
0.125300	-1.258617
0.125400	-1.204412
0.125500	-1.006092
0.125600	-0.935658
0.125700	-1.087238
0.125800	-1.261538
0.125900	-1.395915
0.126000	-1.285233
0.126100	-1.091457
0.126200	-1.006092
0.126300	-1.071982
0.126400	-1.234273
0.126500	-1.262512
0.126600	-1.273548
0.126700	-1.222588
0.126800	-1.199219
0.126900	-1.253424
0.127000	-1.306331
0.127100	-1.358588
0.127200	-1.303409
0.127300	-1.287830
0.127400	-1.321911
0.127500	-1.317042
0.127600	-1.321586
0.127700	-1.282312
0.127800	-1.253748
0.127900	-1.291400
0.128000	-1.406627
0.128100	-1.440708
0.128200	-1.435839
0.128300	-1.373195
0.128400	-1.377090
0.128500	-1.398512
0.128600	-1.375791
0.128700	-1.390398
0.128800	-1.370923
0.128900	-1.423830
0.129000	-1.410846
0.129100	-1.430970
0.129200	-1.429347
0.129300	-1.421233
0.129400	-1.429672
0.129500	-1.442006
0.129600	-1.445577
0.129700	-1.431295
0.129800	-1.452393
0.129900	-1.479333
0.130000	-1.501405
0.130100	-1.575085
0.130200	-1.583200
0.130300	-1.780546
0.130400	-2.054818
0.130500	-2.085654
0.130600	-1.962312
0.130700	-1.731858
0.130800	-1.743543
0.130900	-1.942513
0.131000	-2.242427
0.131100	-2.364795
0.131200	-2.291764
0.131300	-2.173940
0.131400	-2.097988
0.131500	-2.163878
0.131600	-2.420299
0.131700	-2.513779
0.131800	-2.498848
0.131900	-2.499822
0.132000	-2.480672
0.132100	-2.498524
0.132200	-2.516700
0.132300	-2.539097
0.132400	-2.563765
0.132500	-2.565712
0.132600	-2.598171
0.132700	-2.662438
0.132800	-2.694248
0.132900	-2.680615
0.133000	-2.669904
0.133100	-2.705283
0.133200	-2.736443
0.133300	-2.797790
0.133400	-2.729303
0.133500	-2.590381
0.133600	-2.592328
0.133700	-2.737093
0.133800	-2.941256
0.133900	-3.089266
0.134000	-2.972741
0.134100	-2.819212
0.134200	-2.738716
0.134300	-2.835117
0.134400	-3.044798
0.134500	-3.208389
0.134600	-3.196379
0.134700	-3.064273
0.134800	-2.946774
0.134900	-2.987996
0.135000	-3.014612
0.135100	-3.069791
0.135200	-3.037008
0.135300	-3.038631
0.135400	-3.032139
0.135500	-2.998707
0.135600	-2.959108
0.135700	-2.851346
0.135800	-2.680940
0.135900	-2.628032
0.136000	-2.616997
0.136100	-2.616023
0.136200	-2.570257
0.136300	-2.396280
0.136400	-2.330065
0.136500	-2.270017
0.136600	-2.158036
0.136700	-2.132718
0.136800	-2.051897
0.136900	-1.952250
0.137000	-1.870131
0.137100	-1.755553
0.137200	-1.699725
0.137300	-1.677004
0.137400	-1.677004
0.137500	-1.670512
0.137600	-1.634159
0.137700	-1.690312
0.137800	-1.595858
0.137900	-1.682197
0.138000	-1.561452
0.138100	-1.662398
0.138200	-1.572488
0.138300	-1.653959
0.138400	-1.671486
0.138500	-1.587744
0.138600	-1.389099
0.138700	-1.138846
0.138800	-1.059973
0.138900	-1.273548
0.139000	-1.469271
0.139100	-1.524450
0.139200	-1.376765
0.139300	-1.060947
0.139400	-0.915534
0.139500	-1.018426
0.139600	-1.224861
0.139700	-1.261863
0.139800	-1.172278
0.139900	-1.028813
0.140000	-0.925271
0.140100	-0.916508
0.140200	-0.963896
0.140300	-0.951562
0.140400	-0.944746
0.140500	-0.894436
0.140600	-0.872689
0.140700	-0.870092
0.140800	-0.858407
0.140900	-0.868145
0.141000	-0.776937
0.141100	-0.887295
0.141200	-0.905796
0.141300	-0.948641
0.141400	-0.967791
0.141500	-0.929815
0.141600	-0.861329
0.141700	-0.879505
0.141800	-1.031410
0.141900	-1.256994
0.142000	-1.233300
0.142100	-1.118722
0.142200	-0.869768
0.142300	-0.956107
0.142400	-1.138197
0.142500	-1.375142
0.142600	-1.368651
0.142700	-1.213176
0.142800	-1.001873
0.142900	-0.990512
0.143000	-1.105739
0.143100	-1.232651
0.143200	-1.190130
0.143300	-1.203114
0.143400	-1.134951
0.143500	-1.167085
0.143600	-1.207982
0.143700	-1.242713
0.143800	-1.225185
0.143900	-1.206359
0.144000	-1.184288
0.144100	-1.232651
0.144200	-1.216746
0.144300	-1.169357
0.144400	-1.157672
0.144500	-1.132030
0.144600	-1.247906
0.144700	-1.333271
0.144800	-1.355667
0.144900	-1.362483
0.145000	-1.230378
0.145100	-1.305357
0.145200	-1.282636
0.145300	-1.281987
0.145400	-1.296918
0.145500	-1.319963
0.145600	-1.300488
0.145700	-1.266732
0.145800	-1.272250
0.145900	-1.313472
0.146000	-1.287505
0.146100	-1.341061
0.146200	-1.336192
0.146300	-1.365080
0.146400	-1.383906
0.146500	-1.368001
0.146600	-1.418961
0.146700	-1.419610
0.146800	-1.465376
0.146900	-1.548794
0.147000	-1.800994
0.147100	-2.007105
0.147200	-1.951925
0.147300	-1.774703
0.147400	-1.603648
0.147500	-1.729262
0.147600	-2.046379
0.147700	-2.247296
0.147800	-2.323573
0.147900	-2.176212
0.148000	-2.071372
0.148100	-2.072995
0.148200	-2.303449
0.148300	-2.460872
0.148400	-2.576099
0.148500	-2.479049
0.148600	-2.394657
0.148700	-2.419325
0.148800	-2.439774
0.148900	-2.543641
0.149000	-2.560844
0.149100	-2.597846
0.149200	-2.613426
0.149300	-2.671202
0.149400	-2.756243
0.149500	-2.828625
0.149600	-2.801360
0.149700	-2.754945
0.149800	-2.812396
0.149900	-2.875041
0.150000	-2.878611
0.150100	-2.794544
0.150200	-2.651078
0.150300	-2.733198
0.150400	-2.901657
0.150500	-3.095433
0.150600	-3.126594
0.150700	-2.956511
0.150800	-2.750076
0.150900	-2.739689
0.151000	-2.909771
0.151100	-3.158727
0.151200	-3.266165
0.151300	-3.170737
0.151400	-3.017209
0.151500	-2.924378
0.151600	-2.955213
0.151700	-3.019481
0.151800	-3.066870
0.151900	-3.064922
0.152000	-3.033113
0.152100	-3.006173
0.152200	-2.975662
0.152300	-2.937036
0.152400	-2.863680
0.152500	-2.756892
0.152600	-2.729303
0.152700	-2.695546
0.152800	-2.731899
0.152900	-2.595899
0.153000	-2.356031
0.153100	-2.292089
0.153200	-2.114542
0.153300	-2.182055
0.153400	-2.135315
0.153500	-2.100584
0.153600	-2.013272
0.153700	-1.887983
0.153800	-1.748737
0.153900	-1.757825
0.154000	-1.739973
0.154100	-1.762045
0.154200	-1.746789
0.154300	-1.754904
0.154400	-1.754579
0.154500	-1.697777
0.154600	-1.726665
0.154700	-1.624746
0.154800	-1.655906
0.154900	-1.654608
0.155000	-1.679601
0.155100	-1.661424
0.155200	-1.617930
0.155300	-1.372221
0.155400	-1.169682
0.155500	-1.071658
0.155600	-1.501080
0.155700	-1.490694
0.155800	-1.516011
0.155900	-1.209930
0.156000	-1.020374
0.156100	-0.890541
0.156200	-1.027839
0.156300	-1.198894
0.156400	-1.156049
0.156500	-1.012908
0.156600	-0.830818
0.156700	-0.749023
0.156800	-0.732470
0.156900	-0.869443
0.157000	-0.897033
0.157100	-0.912937
0.157200	-0.856135
0.157300	-0.798360
0.157400	-0.810694
0.157500	-0.863601
0.157600	-0.821080
0.157700	-0.853863
0.157800	-0.896059
0.157900	-1.003820
0.158000	-0.911639
0.158100	-1.006417
0.158200	-0.906770
0.158300	-0.891839
0.158400	-0.900928
0.158500	-1.174550
0.158600	-1.292374
0.158700	-1.230703
0.158800	-1.064517
0.158900	-0.884374
0.159000	-1.034655
0.159100	-1.232651
0.159200	-1.407600
0.159300	-1.329701
0.159400	-1.118398
0.159500	-0.964221
0.159600	-1.003171
0.159700	-1.140469
0.159800	-1.201815
0.159900	-1.228106
0.160000	-1.185262
0.160100	-1.129109
0.160200	-1.183963
0.160300	-1.193051
0.160400	-1.249204
0.160500	-1.227457
0.160600	-1.209605
0.160700	-1.205710
0.160800	-1.194674
0.160900	-1.196297
0.161000	-1.162216
0.161100	-1.144040
0.161200	-1.164813
0.161300	-1.280040
0.161400	-1.353071
0.161500	-1.329701
0.161600	-1.316393
0.161700	-1.220641
0.161800	-1.274197
0.161900	-1.270951
0.162000	-1.264784
0.162100	-1.260889
0.162200	-1.283610
0.162300	-1.274197
0.162400	-1.322560
0.162500	-1.305032
0.162600	-1.340736
0.162700	-1.345930
0.162800	-1.348851
0.162900	-1.372221
0.163000	-1.364106
0.163100	-1.388125
0.163200	-1.385529
0.163300	-1.435514
0.163400	-1.389424
0.163500	-1.487448
0.163600	-1.628966
0.163700	-1.897396
0.163800	-1.996069
0.163900	-1.897071
0.164000	-1.727963
0.164100	-1.664021
0.164200	-1.899018
0.164300	-2.177835
0.164400	-2.358953
0.164500	-2.316757
0.164600	-2.149921
0.164700	-2.087601
0.164800	-2.147649
0.164900	-2.370313
0.165000	-2.524490
0.165100	-2.588758
0.165200	-2.514753
0.165300	-2.460223
0.165400	-2.504691
0.165500	-2.496901
0.165600	-2.570581
0.165700	-2.587459
0.165800	-2.611154
0.165900	-2.628357
0.166000	-2.708529
0.166100	-2.780262
0.166200	-2.785131
0.166300	-2.766630
0.166400	-2.789351
0.166500	-2.831222
0.166600	-2.876015
0.166700	-2.836091
0.166800	-2.659517
0.166900	-2.615698
0.167000	-2.748778
0.167100	-2.948397
0.167200	-3.101925
0.167300	-3.026622
0.167400	-2.869523
0.167500	-2.752348
0.167600	-2.827651
0.167700	-3.007146
0.167800	-3.189887
0.167900	-3.235978
0.168000	-3.131462
0.168100	-3.050965
0.168200	-2.986698
0.168300	-2.993189
0.168400	-3.027920
0.168500	-3.049992
0.168600	-3.049667
0.168700	-3.050965
0.168800	-2.996760
0.168900	-2.941905
0.169000	-2.865303
0.169100	-2.744233
0.169200	-2.664386
0.169300	-2.628032
0.169400	-2.608233
0.169500	-2.596223
0.169600	-2.434256
0.169700	-2.299554
0.169800	-2.042809
0.169900	-2.055143
0.170000	-2.056441
0.170100	-1.985358
0.170200	-1.910379
0.170300	-1.802942
0.170400	-1.689338
0.170500	-1.575734
0.170600	-1.556908
0.170700	-1.555935
0.170800	-1.541328
0.170900	-1.538732
0.171000	-1.559505
0.171100	-1.549443
0.171200	-1.514713
0.171300	-1.416689
0.171400	-1.503028
0.171500	-1.409548
0.171600	-1.518608
0.171700	-1.464402
0.171800	-1.442655
0.171900	-1.358264
0.172000	-1.026541
0.172100	-0.962923
0.172200	-1.009338
0.172300	-1.333596
0.172400	-1.321911
0.172500	-1.305357
0.172600	-1.077176
0.172700	-0.833739
0.172800	-0.917157
0.172900	-1.000250
0.173000	-1.188183
0.173100	-1.133653
0.173200	-0.978178
0.173300	-0.919104
0.173400	-0.776937
0.173500	-0.886321
0.173600	-0.805825
0.173700	-0.956107
0.173800	-0.857758
0.173900	-0.864250
0.174000	-0.840880
0.174100	-0.853863
0.174200	-0.808097
0.174300	-0.714293
0.174400	-0.829520
0.174500	-0.876909
0.174600	-0.964870
0.174700	-0.977854
0.174800	-0.913262
0.174900	-0.831467
0.175000	-0.812966
0.175100	-0.961949
0.175200	-1.159295
0.175300	-1.166111
0.175400	-1.092431
0.175500	-0.852565
0.175600	-0.855811
0.175700	-0.994732
0.175800	-1.226483
0.175900	-1.282961
0.176000	-1.178445
0.176100	-0.968116
0.176200	-0.909367
0.176300	-0.962274
0.176400	-1.113853
0.176500	-1.098923
0.176600	-1.134302
0.176700	-1.083992
0.176800	-1.094379
0.176900	-1.125538
0.177000	-1.154102
0.177100	-1.133004
0.177200	-1.115152
0.177300	-1.126188
0.177400	-1.187209
0.177500	-1.201491
0.177600	-1.170980
0.177700	-1.150207
0.177800	-1.106063
0.177900	-1.168708
0.178000	-1.264460
0.178100	-1.305357
0.178200	-1.281338
0.178300	-1.270951
0.178400	-1.219667
0.178500	-1.227457
0.178600	-1.218693
0.178700	-1.235247
0.178800	-1.191753
0.178900	-1.208631
0.179000	-1.205061
0.179100	-1.231028
0.179200	-1.223562
0.179300	-1.236221
0.179400	-1.232326
0.179500	-1.253748
0.179600	-1.289452
0.179700	-1.311849
0.179800	-1.302111
0.179900	-1.334894
0.180000	-1.399161
0.180100	-1.425128
0.180200	-1.459858
0.180300	-1.705243
0.180400	-1.959391
0.180500	-1.984708
0.180600	-1.843190
0.180700	-1.629939
0.180800	-1.716603
0.180900	-1.949329
0.181000	-2.254761
0.181100	-2.354084
0.181200	-2.274886
0.181300	-2.119410
0.181400	-2.074942
0.181500	-2.272614
0.181600	-2.483593
0.181700	-2.577073
0.181800	-2.544290
0.181900	-2.454380
0.182000	-2.448862
0.182100	-2.489111
0.182200	-2.551755
0.182300	-2.574152
0.182400	-2.593627
0.182500	-2.610505
0.182600	-2.677369
0.182700	-2.744883
0.182800	-2.769226
0.182900	-2.809475
0.183000	-2.762410
0.183100	-2.817589
0.183200	-2.844854
0.183300	-2.872444
0.183400	-2.746506
0.183500	-2.629006
0.183600	-2.642963
0.183700	-2.763384
0.183800	-2.941905
0.183900	-3.056808
0.184000	-2.945476
0.184100	-2.752997
0.184200	-2.685484
0.184300	-2.796816
0.184400	-2.995786
0.184500	-3.162947
0.184600	-3.128866
0.184700	-2.983127
0.184800	-2.869523
0.184900	-2.889322
0.185000	-2.940931
0.185100	-2.985075
0.185200	-2.961380
0.185300	-2.941256
0.185400	-2.913342
0.185500	-2.875690
0.185600	-2.848100
0.185700	-2.752997
0.185800	-2.651727
0.185900	-2.603364
0.186000	-2.601741
0.186100	-2.612452
0.186200	-2.564739
0.186300	-2.381674
0.186400	-2.307669
0.186500	-2.069425
0.186600	-2.112594
0.186700	-2.094417
0.186800	-2.008078
0.186900	-1.917844
0.187000	-1.834102
0.187100	-1.712059
0.187200	-1.659801
0.187300	-1.640326
0.187400	-1.641300
0.187500	-1.616307
0.187600	-1.610464
0.187700	-1.605271
0.187800	-1.580603
0.187900	-1.551715
0.188000	-1.559830
0.188100	-1.503352
0.188200	-1.590665
0.188300	-1.536135
0.188400	-1.581252
0.188500	-1.447849
0.188600	-1.412794
0.188700	-0.980450
0.188800	-0.976880
0.188900	-1.229080
0.189000	-1.337166
0.189100	-1.447524
0.189200	-1.206359
0.189300	-1.033682
0.189400	-0.811018
0.189500	-0.980775
0.189600	-1.157672
0.189700	-1.182665
0.189800	-1.095352
0.189900	-0.907095
0.190000	-0.767524
0.190100	-0.801605
0.190200	-0.851267
0.190300	-0.968765
0.190400	-0.930465
0.190500	-0.905472
0.190600	-0.839257
0.190700	-0.821730
0.190800	-0.816861
0.190900	-0.766875
0.191000	-0.795114
0.191100	-0.864574
0.191200	-0.869443
0.191300	-0.893138
0.191400	-0.957080
0.191500	-0.855811
0.191600	-0.834388
0.191700	-0.832441
0.191800	-0.976880
0.191900	-1.123591
0.192000	-1.110283
0.192100	-0.996030
0.192200	-0.774016
0.192300	-0.848021
0.192400	-0.998302
0.192500	-1.224861
0.192600	-1.198894
0.192700	-1.020698
0.192800	-0.859381
0.192900	-0.862951
0.193000	-0.949615
0.193100	-1.047314
0.193200	-1.054455
0.193300	-1.103467
0.193400	-1.008040
0.193500	-1.076851
0.193600	-1.113204
0.193700	-1.176822
0.193800	-1.169357
0.193900	-1.142417
0.194000	-1.165137
0.194100	-1.230703
0.194200	-1.253424
0.194300	-1.232975
0.194400	-1.232001
0.194500	-1.223887
0.194600	-1.384230
0.194700	-1.470245
0.194800	-1.517309
0.194900	-1.504001
0.195000	-1.432918
0.195100	-1.504651
0.195200	-1.508546
0.195300	-1.468946
0.195400	-1.477061
0.195500	-1.483228
0.195600	-1.465376
0.195700	-1.458560
0.195800	-1.469271
0.195900	-1.431295
0.196000	-1.405653
0.196100	-1.412469
0.196200	-1.405977
0.196300	-1.400460
0.196400	-1.397214
0.196500	-1.392670
0.196600	-1.411495
0.196700	-1.429347
0.196800	-1.464727
0.196900	-1.563400
0.197000	-1.792880
0.197100	-2.005806
0.197200	-1.910379
0.197300	-1.747763
0.197400	-1.611763
0.197500	-1.720823
0.197600	-2.075592
0.197700	-2.245998
0.197800	-2.309291
0.197900	-2.134017
0.198000	-2.055467
0.198100	-2.080460
0.198200	-2.263201
0.198300	-2.436204
0.198400	-2.476776
0.198500	-2.451459
0.198600	-2.392060
0.198700	-2.450810
0.198800	-2.475154
0.198900	-2.545264
0.199000	-2.531631
0.199100	-2.551755
0.199200	-2.581942
0.199300	-2.616997
0.199400	-2.703011
0.199500	-2.703660
0.199600	-2.751050
0.199700	-2.783508
0.199800	-2.809799
0.199900	-2.881857
0.200000	-2.836091
0.200100	-2.740338
0.200200	-2.596223
0.200300	-2.710477
0.200400	-2.878611
0.200500	-3.066545
0.200600	-3.061027
0.200700	-2.916263
0.200800	-2.762086
0.200900	-2.730926
0.201000	-2.893542
0.201100	-3.115233
0.201200	-3.192160
0.201300	-3.097381
0.201400	-2.983776
0.201500	-2.945800
0.201600	-2.985724
0.201700	-3.012989
0.201800	-3.035710
0.201900	-2.999681
0.202000	-2.978259
0.202100	-2.961056
0.202200	-2.931194
0.202300	-2.910420
0.202400	-2.782210
0.202500	-2.713723
0.202600	-2.692625
0.202700	-2.669255
0.202800	-2.703985
0.202900	-2.589407
0.203000	-2.429712
0.203100	-2.208346
0.203200	-2.168747
0.203300	-2.214513
0.203400	-2.134990
0.203500	-2.053520
0.203600	-1.992823
0.203700	-1.885061
0.203800	-1.795801
0.203900	-1.754579
0.204000	-1.725042
0.204100	-1.738675
0.204200	-1.734130
0.204300	-1.749061
0.204400	-1.738025
0.204500	-1.701023
0.204600	-1.722445
0.204700	-1.630913
0.204800	-1.686417
0.204900	-1.649090
0.205000	-1.731534
0.205100	-1.679601
0.205200	-1.615658
0.205300	-1.350474
0.205400	-1.116450
0.205500	-1.129758
0.205600	-1.381958
0.205700	-1.610140
0.205800	-1.481605
0.205900	-1.308927
0.206000	-0.992460
0.206100	-1.025567
0.206200	-1.055104
0.206300	-1.240441
0.206400	-1.228756
0.206500	-1.021672
0.206600	-0.935009
0.206700	-0.834388
0.206800	-0.905472
0.206900	-0.871715
0.207000	-0.977854
0.207100	-0.951238
0.207200	-0.885348
0.207300	-0.870092
0.207400	-0.857109
0.207500	-0.868469
0.207600	-0.795763
0.207700	-0.856784
0.207800	-0.845424
0.207900	-0.955457
0.208000	-0.927868
0.208100	-0.996679
0.208200	-0.864574
0.208300	-0.891515
0.208400	-0.897357
0.208500	-1.186884
0.208600	-1.225185
0.208700	-1.200841
0.208800	-0.968765
0.208900	-0.880803
0.209000	-0.989863
0.209100	-1.256670
0.209200	-1.383257
0.209300	-1.309901
0.209400	-1.096001
0.209500	-0.956431
0.209600	-1.049911
0.209700	-1.181691
0.209800	-1.235247
0.209900	-1.219992
0.210000	-1.206035
0.210100	-1.157997
0.210200	-1.235572
0.210300	-1.283935
0.210400	-1.339438
0.210500	-1.298865
0.210600	-1.310875
0.210700	-1.354693
0.210800	-1.405004
0.210900	-1.392670
0.211000	-1.376116
0.211100	-1.355992
0.211200	-1.392994
0.211300	-1.531266
0.211400	-1.582550
0.211500	-1.600402
0.211600	-1.584173
0.211700	-1.520555
0.211800	-1.580278
0.211900	-1.577357
0.212000	-1.593262
0.212100	-1.611114
0.212200	-1.595858
0.212300	-1.605271
0.212400	-1.616632
0.212500	-1.621500
0.212600	-1.621176
0.212700	-1.601052
0.212800	-1.609166
0.212900	-1.639352
0.213000	-1.617930
0.213100	-1.670837
0.213200	-1.629290
0.213300	-1.706541
0.213400	-1.665643
0.213500	-1.743543
0.213600	-1.889281
0.213700	-2.150895
0.213800	-2.250217
0.213900	-2.061635
0.214000	-1.913949
0.214100	-1.850006
0.214200	-2.090847
0.214300	-2.355707
0.214400	-2.481645
0.214500	-2.422246
0.214600	-2.255735
0.214700	-2.224575
0.214800	-2.301177
0.214900	-2.513130
0.215000	-2.669579
0.215100	-2.669579
0.215200	-2.571879
0.215300	-2.575450
0.215400	-2.642314
0.215500	-2.662763
0.215600	-2.734171
0.215700	-2.781885
0.215800	-2.847451
0.215900	-2.860434
0.216000	-2.934115
0.216100	-2.960406
0.216200	-3.004225
0.216300	-2.990268
0.216400	-3.062001
0.216500	-3.108417
0.216600	-3.159701
0.216700	-3.102250
0.216800	-2.983452
0.216900	-2.916588
0.217000	-3.021104
0.217100	-3.247664
0.217200	-3.364839
0.217300	-3.260971
0.217400	-3.088293
0.217500	-2.951967
0.217600	-3.051290
0.217700	-3.227864
0.217800	-3.424562
0.217900	-3.422290
0.218000	-3.279797
0.218100	-3.170737
0.218200	-3.115233
0.218300	-3.173334
0.218400	-3.216828
0.218500	-3.202871
0.218600	-3.196379
0.218700	-3.135033
0.218800	-3.070116
0.218900	-3.005524
0.219000	-2.938984
0.219100	-2.851022
0.219200	-2.736443
0.219300	-2.710477
0.219400	-2.682563
0.219500	-2.646858
0.219600	-2.498524
0.219700	-2.371611
0.219800	-2.156088
0.219900	-2.141157
0.220000	-2.134017
0.220100	-2.100584
0.220200	-2.047677
0.220300	-1.950303
0.220400	-1.811057
0.220500	-1.749386
0.220600	-1.728937
0.220700	-1.744842
0.220800	-1.751009
0.220900	-1.738025
0.221000	-1.731858
0.221100	-1.778274
0.221200	-1.705567
0.221300	-1.745815
0.221400	-1.676030
0.221500	-1.778274
0.221600	-1.710111
0.221700	-1.755228
0.221800	-1.712059
0.221900	-1.612087
0.222000	-1.365405
0.222100	-1.217720
0.222200	-1.444603
0.222300	-1.599429
0.222400	-1.634484
0.222500	-1.512116
0.222600	-1.318016
0.222700	-1.163190
0.222800	-1.292698
0.222900	-1.427400
0.223000	-1.525748
0.223100	-1.372546
0.223200	-1.287180
0.223300	-1.088861
0.223400	-1.123591
0.223500	-1.133328
0.223600	-1.261538
0.223700	-1.228431
0.223800	-1.235896
0.223900	-1.193701
0.224000	-1.182665
0.224100	-1.198569
0.224200	-1.157023
0.224300	-1.249204
0.224400	-1.200192
0.224500	-1.312173
0.224600	-1.372221
0.224700	-1.357290
0.224800	-1.298865
0.224900	-1.248555
0.225000	-1.226483
0.225100	-1.351123
0.225200	-1.555610
0.225300	-1.532889
0.225400	-1.448498
0.225500	-1.188832
0.225600	-1.255371
0.225700	-1.400460
0.225800	-1.611438
0.225900	-1.624422
0.226000	-1.486799
0.226100	-1.318016
0.226200	-1.244660
0.226300	-1.332946
0.226400	-1.431619
0.226500	-1.413118
0.226600	-1.467324
0.226700	-1.389748
0.226800	-1.400784
0.226900	-1.442980
0.227000	-1.467973
0.227100	-1.472841
0.227200	-1.394617
0.227300	-1.436813
0.227400	-1.445577
0.227500	-1.461157
0.227600	-1.417338
0.227700	-1.379362
0.227800	-1.362808
0.227900	-1.441032
0.228000	-1.545548
0.228100	-1.576383
0.228200	-1.569242
0.228300	-1.452068
0.228400	-1.503352
0.228500	-1.508221
0.228600	-1.502378
0.228700	-1.507896
0.228800	-1.514388
0.228900	-1.474140
0.229000	-1.469920
0.229100	-1.471543
0.229200	-1.451744
0.229300	-1.474140
0.229400	-1.464078
0.229500	-1.456288
0.229600	-1.473815
0.229700	-1.437787
0.229800	-1.451094
0.229900	-1.412145
0.230000	-1.456612
0.230100	-1.482254
0.230200	-1.566321
0.230300	-1.809758
0.230400	-2.054494
0.230500	-2.033071
0.230600	-1.826637
0.230700	-1.701672
0.230800	-1.789634
0.230900	-2.091172
0.231000	-2.353435
0.231100	-2.454380
0.231200	-2.341750
0.231300	-2.228795
0.231400	-2.261253
0.231500	-2.400175
0.231600	-2.593951
0.231700	-2.652376
0.231800	-2.647832
0.231900	-2.612128
0.232000	-2.643937
0.232100	-2.702038
0.232200	-2.730601
0.232300	-2.743584
0.232400	-2.758515
0.232500	-2.776043
0.232600	-2.840959
0.232700	-2.917237
0.232800	-2.969495
0.232900	-2.985399
0.233000	-3.011691
0.233100	-3.089591
0.233200	-3.153534
0.233300	-3.202222
0.233400	-3.091538
0.233500	-2.947423
0.233600	-3.056808
0.233700	-3.205143
0.233800	-3.403464
0.233900	-3.422615
0.234000	-3.294728
0.234100	-3.136656
0.234200	-3.102899
0.234300	-3.246041
0.234400	-3.469679
0.234500	-3.556019
0.234600	-3.495971
0.234700	-3.353154
0.234800	-3.289860
0.234900	-3.277201
0.235000	-3.327187
0.235100	-3.361917
0.235200	-3.333678
0.235300	-3.323292
0.235400	-3.293105
0.235500	-3.262919
0.235600	-3.190212
0.235700	-3.071414
0.235800	-3.003901
0.235900	-2.945800
0.236000	-2.939958
0.236100	-2.939958
0.236200	-2.845504
0.236300	-2.679641
0.236400	-2.619593
0.236500	-2.400499
0.236600	-2.443994
0.236700	-2.378752
0.236800	-2.317406
0.236900	-2.222628
0.237000	-2.091172
0.237100	-1.966207
0.237200	-1.929854
0.237300	-1.930178
0.237400	-1.925959
0.237500	-1.928231
0.237600	-1.965558
0.237700	-1.973673
0.237800	-1.926933
0.237900	-1.912326
0.238000	-1.854875
0.238100	-1.847085
0.238200	-1.857147
0.238300	-1.926608
0.238400	-1.948680
0.238500	-1.777300
0.238600	-1.693233
0.238700	-1.335868
0.238800	-1.368001
0.238900	-1.527047
0.239000	-1.781520
0.239100	-1.847734
0.239200	-1.478359
0.239300	-1.312498
0.239400	-1.169357
0.239500	-1.257319
0.239600	-1.362808
0.239700	-1.507896
0.239800	-1.363457
0.239900	-1.168059
0.240000	-1.028488
0.240100	-1.081071
0.240200	-1.034655
0.240300	-1.058674
0.240400	-1.085939
0.240500	-1.066789
0.240600	-1.016479
0.240700	-1.044068
0.240800	-0.997328
0.240900	-0.982722
0.241000	-0.872040
0.241100	-1.015180
0.241200	-0.998302
0.241300	-1.054779
0.241400	-1.093405
0.241500	-1.001223
0.241600	-1.001223
0.241700	-0.989214
0.241800	-1.301137
0.241900	-1.334245
0.242000	-1.302436
0.242100	-1.157023
0.242200	-0.960002
0.242300	-1.112880
0.242400	-1.316393
0.242500	-1.518283
0.242600	-1.480307
0.242700	-1.304708
0.242800	-1.169682
0.242900	-1.208956
0.243000	-1.326779
0.243100	-1.443954
0.243200	-1.409872
0.243300	-1.453367
0.243400	-1.360211
0.243500	-1.399486
0.243600	-1.451744
0.243700	-1.500106
0.243800	-1.495238
0.243900	-1.457262
0.244000	-1.458560
0.244100	-1.490044
0.244200	-1.483228
0.244300	-1.474789
0.244400	-1.427075
0.244500	-1.413443
0.244600	-1.594884
0.244700	-1.646818
0.244800	-1.680899
0.244900	-1.616307
0.245000	-1.575410
0.245100	-1.630264
0.245200	-1.625395
0.245300	-1.654608
0.245400	-1.672460
0.245500	-1.672460
0.245600	-1.655257
0.245700	-1.675381
0.245800	-1.665319
0.245900	-1.709787
0.246000	-1.704918
0.246100	-1.746465
0.246200	-1.746789
0.246300	-1.781520
0.246400	-1.758150
0.246500	-1.762694
0.246600	-1.825663
0.246700	-1.819820
0.246800	-1.912002
0.246900	-2.026580
0.247000	-2.301177
0.247100	-2.425168
0.247200	-2.312537
0.247300	-2.146351
0.247400	-2.010026
0.247500	-2.128174
0.247600	-2.403745
0.247700	-2.571879
0.247800	-2.557922
0.247900	-2.369664
0.248000	-2.286571
0.248100	-2.286895
0.248200	-2.504042
0.248300	-2.626410
0.248400	-2.684510
0.248500	-2.552729
0.248600	-2.567335
0.248700	-2.552729
0.248800	-2.560519
0.248900	-2.611803
0.249000	-2.641990
0.249100	-2.651402
0.249200	-2.655297
0.249300	-2.751050
0.249400	-2.795842
0.249500	-2.798114
0.249600	-2.804606
0.249700	-2.855890
0.249800	-2.952616
0.249900	-2.983452
0.250000	-2.941256
0.250100	-2.811422
0.250200	-2.746830
0.250300	-2.838687
0.250400	-3.055185
0.250500	-3.224293
0.250600	-3.161324
0.250700	-3.014937
0.250800	-2.887050
0.250900	-2.914965
0.251000	-3.110040
0.251100	-3.325888
0.251200	-3.412228
0.251300	-3.313230
0.251400	-3.183720
0.251500	-3.127567
0.251600	-3.160026
0.251700	-3.202546
0.251800	-3.209363
0.251900	-3.238251
0.252000	-3.189887
0.252100	-3.156131
0.252200	-3.090565
0.252300	-3.002278
0.252400	-2.882831
0.252500	-2.798764
0.252600	-2.791947
0.252700	-2.758515
0.252800	-2.762086
0.252900	-2.603040
0.253000	-2.470934
0.253100	-2.354084
0.253200	-2.177835
0.253300	-2.178809
0.253400	-2.106102
0.253500	-2.013596
0.253600	-1.925310
0.253700	-1.774703
0.253800	-1.695830
0.253900	-1.637080
0.254000	-1.606245
0.254100	-1.593262
0.254200	-1.581252
0.254300	-1.621500
0.254400	-1.604622
0.254500	-1.560154
0.254600	-1.575734
0.254700	-1.508546
0.254800	-1.607543
0.254900	-1.542951
0.255000	-1.670512
0.255100	-1.543925
0.255200	-1.505624
0.255300	-1.362808
0.255400	-1.109634
0.255500	-1.221939
0.255600	-1.458235
0.255700	-1.678627
0.255800	-1.565672
0.255900	-1.288479
0.256000	-1.126837
0.256100	-1.066789
0.256200	-1.241739
0.256300	-1.369624
0.256400	-1.347228
0.256500	-1.296269
0.256600	-1.087562
0.256700	-1.028813
0.256800	-1.052183
0.256900	-1.114178
0.257000	-1.012259
0.257100	-1.079448
0.257200	-1.027190
0.257300	-0.996679
0.257400	-0.977529
0.257500	-0.933061
0.257600	-0.879181
0.257700	-0.913262
0.257800	-0.942799
0.257900	-1.000250
0.258000	-0.977529
0.258100	-0.939228
0.258200	-0.887295
0.258300	-0.869119
0.258400	-0.985643
0.258500	-1.226483
0.258600	-1.204412
0.258700	-1.171304
0.258800	-0.939877
0.258900	-0.915534
0.259000	-1.024269
0.259100	-1.272250
0.259200	-1.341710
0.259300	-1.272574
0.259400	-1.093080
0.259500	-1.022321
0.259600	-1.067114
0.259700	-1.202789
0.259800	-1.255371
0.259900	-1.234273
0.260000	-1.208307
0.260100	-1.187534
0.260200	-1.247906
0.260300	-1.250827
0.260400	-1.230054
0.260500	-1.172603
0.260600	-1.170331
0.260700	-1.207333
0.260800	-1.245634
0.260900	-1.218044
0.261000	-1.151180
0.261100	-1.122942
0.261200	-1.176822
0.261300	-1.300164
0.261400	-1.341061
0.261500	-1.312822
0.261600	-1.286207
0.261700	-1.213176
0.261800	-1.231352
0.261900	-1.218369
0.262000	-1.210254
0.262100	-1.178121
0.262200	-1.185911
0.262300	-1.189481
0.262400	-1.208956
0.262500	-1.209605
0.262600	-1.196946
0.262700	-1.158970
0.262800	-1.223887
0.262900	-1.228106
0.263000	-1.261538
0.263100	-1.271600
0.263200	-1.283285
0.263300	-1.344631
0.263400	-1.339114
0.263500	-1.442980
0.263600	-1.622799
0.263700	-1.948355
0.263800	-1.968155
0.263900	-1.879868
0.264000	-1.673433
0.264100	-1.677653
0.264200	-1.958093
0.264300	-2.219057
0.264400	-2.377454
0.264500	-2.317406
0.264600	-2.144403
0.264700	-2.090198
0.264800	-2.206399
0.264900	-2.397254
0.265000	-2.458924
0.265100	-2.505015
0.265200	-2.471583
0.265300	-2.455029
0.265400	-2.490409
0.265500	-2.506314
0.265600	-2.527412
0.265700	-2.540070
0.265800	-2.548185
0.265900	-2.612777
0.266000	-2.678992
0.266100	-2.745856
0.266200	-2.703985
0.266300	-2.694572
0.266400	-2.668605
0.266500	-2.745532
0.266600	-2.778315
0.266700	-2.737093
0.266800	-2.613426
0.266900	-2.605312
0.267000	-2.717293
0.267100	-2.894840
0.267200	-2.996760
0.267300	-2.912368
0.267400	-2.768253
0.267500	-2.705933
0.267600	-2.839661
0.267700	-3.036359
0.267800	-3.185668
0.267900	-3.159377
0.268000	-3.049992
0.268100	-2.969170
0.268200	-2.976311
0.268300	-3.047720
0.268400	-3.083748
0.268500	-3.081476
0.268600	-3.083099
0.268700	-3.081152
0.268800	-3.076608
0.268900	-3.036034
0.269000	-2.956511
0.269100	-2.870172
0.269200	-2.833169
0.269300	-2.828301
0.269400	-2.830897
0.269500	-2.781561
0.269600	-2.598820
0.269700	-2.521894
0.269800	-2.266122
0.269900	-2.323898
0.270000	-2.276509
0.270100	-2.200232
0.270200	-2.112919
0.270300	-2.011649
0.270400	-1.877271
0.270500	-1.833128
0.270600	-1.778274
0.270700	-1.780870
0.270800	-1.763992
0.270900	-1.748737
0.271000	-1.749386
0.271100	-1.680250
0.271200	-1.664021
0.271300	-1.622149
0.271400	-1.555935
0.271500	-1.601376
0.271600	-1.529319
0.271700	-1.664670
0.271800	-1.513414
0.271900	-1.467973
0.272000	-1.042121
0.272100	-1.065491
0.272200	-1.109958
0.272300	-1.391696
0.272400	-1.407925
0.272500	-1.212851
0.272600	-0.993758
0.272700	-0.783429
0.272800	-0.946369
0.272900	-1.006417
0.273000	-1.124240
0.273100	-0.996030
0.273200	-0.867171
0.273300	-0.782131
0.273400	-0.785376
0.273500	-0.830818
0.273600	-0.816212
0.273700	-0.910016
0.273800	-0.861329
0.273900	-0.806150
0.274000	-0.804527
0.274100	-0.773691
0.274200	-0.736365
0.274300	-0.677615
0.274400	-0.812317
0.274500	-0.769147
0.274600	-0.806150
0.274700	-0.792193
0.274800	-0.753892
0.274900	-0.667878
0.275000	-0.669825
0.275100	-0.813615
0.275200	-0.999925
0.275300	-0.954159
0.275400	-0.829520
0.275500	-0.588355
0.275600	-0.655544
0.275700	-0.809720
0.275800	-1.043095
0.275900	-0.998302
0.276000	-0.865224
0.276100	-0.683782
0.276200	-0.669501
0.276300	-0.782131
0.276400	-0.881777
0.276500	-0.864574
0.276600	-0.870417
0.276700	-0.780832
0.276800	-0.820107
0.276900	-0.866197
0.277000	-0.875286
0.277100	-0.828546
0.277200	-0.790245
0.277300	-0.811992
0.277400	-0.857758
0.277500	-0.843801
0.277600	-0.833090
0.277700	-0.810369
0.277800	-0.791868
0.277900	-0.879505
0.278000	-0.943772
0.278100	-0.952212
0.278200	-0.934684
0.278300	-0.885997
0.278400	-0.880479
0.278500	-0.862627
0.278600	-0.846722
0.278700	-0.830818
0.278800	-0.820107
0.278900	-0.778560
0.279000	-0.778236
0.279100	-0.749997
0.279200	-0.711696
0.279300	-0.710723
0.279400	-0.684756
0.279500	-0.712345
0.279600	-0.685081
0.279700	-0.674694
0.279800	-0.681835
0.279900	-0.684756
0.280000	-0.686379
0.280100	-0.659439
0.280200	-0.781481
0.280300	-1.026865
0.280400	-1.186560
0.280500	-1.192727
0.280600	-1.019725
0.280700	-0.897033
0.280800	-0.980775
0.280900	-1.265109
0.281000	-1.450121
0.281100	-1.539381
0.281200	-1.416689
0.281300	-1.335543
0.281400	-1.382283
0.281500	-1.546522
0.281600	-1.710436
0.281700	-1.729586
0.281800	-1.711085
0.281900	-1.647791
0.282000	-1.700374
0.282100	-1.693882
0.282200	-1.709787
0.282300	-1.757500
0.282400	-1.746789
0.282500	-1.777300
0.282600	-1.811706
0.282700	-1.903563
0.282800	-1.889606
0.282900	-1.923687
0.283000	-1.960365
0.283100	-2.032422
0.283200	-2.113568
0.283300	-2.144403
0.283400	-2.010675
0.283500	-1.884412
0.283600	-1.961663
0.283700	-2.119086
0.283800	-2.327144
0.283900	-2.303124
0.284000	-2.190819
0.284100	-2.004508
0.284200	-1.985033
0.284300	-2.159009
0.284400	-2.344996
0.284500	-2.446590
0.284600	-2.357979
0.284700	-2.232041
0.284800	-2.175563
0.284900	-2.186274
0.285000	-2.253139
0.285100	-2.260929
0.285200	-2.250866
0.285300	-2.240480
0.285400	-2.203802
0.285500	-2.188547
0.285600	-2.132069
0.285700	-2.001911
0.285800	-1.908107
0.285900	-1.862990
0.286000	-1.821119
0.286100	-1.824364
0.286200	-1.710111
0.286300	-1.547495
0.286400	-1.419285
0.286500	-1.266083
0.286600	-1.307629
0.286700	-1.212202
0.286800	-1.152154
0.286900	-1.049911
0.287000	-0.949615
0.287100	-0.826923
0.287200	-0.816861
0.287300	-0.829520
0.287400	-0.824975
0.287500	-0.799333
0.287600	-0.810694
0.287700	-0.790894
0.287800	-0.793491
0.287900	-0.766551
0.288000	-0.778885
0.288100	-0.705854
0.288200	-0.802579
0.288300	-0.776288
0.288400	-0.774341
0.288500	-0.640613
0.288600	-0.527983
0.288700	-0.163478
0.288800	-0.272212
0.288900	-0.543563
0.289000	-0.598417
0.289100	-0.576021
0.289200	-0.291038
0.289300	-0.060585
0.289400	-0.016767
0.289500	-0.181654
0.289600	-0.332585
0.289700	-0.324795
0.289800	-0.166399
0.289900	-0.010600
0.290000	0.184798
0.290100	0.129944
0.290200	0.111118
0.290300	0.027052
0.290400	0.046851
0.290500	0.126374
0.290600	0.148770
0.290700	0.156884
0.290800	0.162078
0.290900	0.211739
0.291000	0.157858
0.291100	0.155262
0.291200	0.057563
0.291300	0.061133
0.291400	0.076064
0.291500	0.109820
0.291600	0.166622
0.291700	0.047500
0.291800	-0.195611
0.291900	-0.242676
0.292000	-0.152766
0.292100	0.035166
0.292200	0.163376
0.292300	0.018613
0.292400	-0.217358
0.292500	-0.330962
0.292600	-0.258905
0.292700	-0.044356
0.292800	0.079959
0.292900	0.050097
0.293000	-0.079736
0.293100	-0.129072
0.293200	-0.121607
0.293300	-0.107325
0.293400	-0.045654
0.293500	-0.109597
0.293600	-0.130370
0.293700	-0.148547
0.293800	-0.097588
0.293900	-0.076165
0.294000	-0.104079
0.294100	-0.121282
0.294200	-0.085253
0.294300	-0.058313
0.294400	-0.008977
0.294500	-0.049225
0.294600	-0.129072
0.294700	-0.187497
0.294800	-0.194637
0.294900	-0.160232
0.295000	-0.090122
0.295100	-0.102456
0.295200	-0.067077
0.295300	-0.093368
0.295400	-0.044356
0.295500	-0.055392
0.295600	-0.059936
0.295700	-0.062208
0.295800	-0.099535
0.295900	-0.064805
0.296000	-0.069998
0.296100	-0.082332
0.296200	-0.064805
0.296300	-0.112843
0.296400	-0.111220
0.296500	-0.163478
0.296600	-0.207296
0.296700	-0.226122
0.296800	-0.270914
0.296900	-0.390036
0.297000	-0.674369
0.297100	-0.759085
0.297200	-0.679887
0.297300	-0.552976
0.297400	-0.493253
0.297500	-0.721109
0.297600	-0.957729
0.297700	-1.093729
0.297800	-1.037252
0.297900	-0.871715
0.298000	-0.846398
0.298100	-0.945071
0.298200	-1.167085
0.298300	-1.299190
0.298400	-1.265433
0.298500	-1.180717
0.298600	-1.190455
0.298700	-1.163515
0.298800	-1.251152
0.298900	-1.275820
0.299000	-1.305032
0.299100	-1.290426
0.299200	-1.317367
0.299300	-1.359887
0.299400	-1.429997
0.299500	-1.419610
0.299600	-1.393319
0.299700	-1.407600
0.299800	-1.487123
0.299900	-1.514713
0.300000	-1.488746
0.300100	-1.308927
0.300200	-1.226159
0.300300	-1.338789
0.300400	-1.495887
0.300500	-1.642923
0.300600	-1.545548
0.300700	-1.342359
0.300800	-1.203763
0.300900	-1.257643
0.301000	-1.481930
0.301100	-1.663047
0.301200	-1.677004
0.301300	-1.553338
0.301400	-1.417013
0.301500	-1.417662
0.301600	-1.450770
0.301700	-1.486149
0.301800	-1.511467
0.301900	-1.508870
0.302000	-1.507572
0.302100	-1.466999
0.302200	-1.430970
0.302300	-1.391696
0.302400	-1.274197
0.302500	-1.205710
0.302600	-1.168059
0.302700	-1.166436
0.302800	-1.175524
0.302900	-1.004469
0.303000	-0.884049
0.303100	-0.657167
0.303200	-0.677615
0.303300	-0.692871
0.303400	-0.615620
0.303500	-0.558169
0.303600	-0.461768
0.303700	-0.330637
0.303800	-0.294609
0.303900	-0.211840
0.304000	-0.237482
0.304100	-0.200805
0.304200	-0.150819
0.304300	-0.160881
0.304400	-0.150170
0.304500	-0.133292
0.304600	-0.095965
0.304700	-0.016442
0.304800	-0.114790
0.304900	-0.041759
0.305000	-0.169320
0.305100	0.003033
0.305200	-0.015793
0.305300	0.293858
0.305400	0.391557
0.305500	0.310087
0.305600	0.110794
0.305700	-0.026180
0.305800	0.183825
0.305900	0.389934
0.306000	0.604807
0.306100	0.571375
0.306200	0.411032
0.306300	0.236732
0.306400	0.336703
0.306500	0.549953
0.306600	0.668425
0.306700	0.761905
0.306800	0.690821
0.306900	0.575919
0.307000	0.564884
0.307100	0.558067
0.307200	0.637914
0.307300	0.638888
0.307400	0.696988
0.307500	0.716463
0.307600	0.785599
0.307700	0.786248
0.307800	0.714840
0.307900	0.735938
0.308000	0.646029
0.308100	0.749246
0.308200	0.804749
0.308300	0.896281
0.308400	0.723928
0.308500	0.603184
0.308600	0.563585
0.308700	0.676540
0.308800	0.935556
0.308900	0.948539
0.309000	0.793064
0.309100	0.558716
0.309200	0.508731
0.309300	0.657714
0.309400	0.877131
0.309500	0.929713
0.309600	0.878429
0.309700	0.736912
0.309800	0.694716
0.309900	0.657714
0.310000	0.726525
0.310100	0.745351
0.310200	0.727174
0.310300	0.656740
0.310400	0.649924
0.310500	0.687900
0.310600	0.699909
0.310700	0.696664
0.310800	0.672320
0.310900	0.696988
0.311000	0.696339
0.311100	0.720034
0.311200	0.626554
0.311300	0.515223
0.311400	0.491528
0.311500	0.487309
0.311600	0.597666
0.311700	0.561638
0.311800	0.564559
0.311900	0.592473
0.312000	0.541514
0.312100	0.577542
0.312200	0.573323
0.312300	0.547032
0.312400	0.518468
0.312500	0.539566
0.312600	0.544435
0.312700	0.535022
0.312800	0.513600
0.312900	0.535996
0.313000	0.513924
0.313100	0.536970
0.313200	0.482764
0.313300	0.487309
0.313400	0.433103
0.313500	0.443165
0.313600	0.225047
0.313700	-0.014495
0.313800	-0.004108
0.313900	0.161753
0.314000	0.341896
0.314100	0.298077
0.314200	0.068923
0.314300	-0.179707
0.314400	-0.282924
0.314500	-0.189769
0.314600	-0.025530
0.314700	-0.022609
0.314800	-0.130695
0.314900	-0.323821
0.315000	-0.393606
0.315100	-0.399449
0.315200	-0.365043
0.315300	-0.422494
0.315400	-0.420871
0.315500	-0.478971
0.315600	-0.530580
0.315700	-0.525711
0.315800	-0.572126
0.315900	-0.556871
0.316000	-0.635744
0.316100	-0.699362
0.316200	-0.691572
0.316300	-0.714293
0.316400	-0.745777
0.316500	-0.816212
0.316600	-0.784078
0.316700	-0.691248
0.316800	-0.556546
0.316900	-0.573749
0.317000	-0.730522
0.317100	-0.917481
0.317200	-0.961624
0.317300	-0.852889
0.317400	-0.688002
0.317500	-0.615620
0.317600	-0.725978
0.317700	-0.940851
0.317800	-1.125538
0.317900	-1.084316
0.318000	-0.985643
0.318100	-0.897357
0.318200	-0.889892
0.318300	-0.939553
0.318400	-0.989863
0.318500	-1.022970
0.318600	-1.019725
0.318700	-0.976880
0.318800	-0.947018
0.318900	-0.847047
0.319000	-0.732794
0.319100	-0.638341
0.319200	-0.579591
0.319300	-0.577969
0.319400	-0.560441
0.319500	-0.533176
0.319600	-0.314733
0.319700	-0.236833
0.319800	-0.063182
0.319900	-0.045654
0.320000	-0.008003
0.320100	0.060808
0.320200	0.144226
0.320300	0.231214
0.320400	0.394478
0.320500	0.425963
0.320600	0.451929
0.320700	0.455175
0.320800	0.463614
0.320900	0.470755
0.321000	0.493476
0.321100	0.482764
0.321200	0.591499
0.321300	0.523337
0.321400	0.614869
0.321500	0.520740
0.321600	0.584683
0.321700	0.603833
0.321800	0.558392
0.321900	0.831040
0.322000	0.873236
0.322100	1.092004
0.322200	0.698936
0.322300	0.626879
0.322400	0.530478
0.322500	0.735289
0.322600	1.009885
0.322700	1.024166
0.322800	0.954381
0.322900	0.809618
0.323000	0.734964
0.323100	0.900176
0.323200	1.042992
0.323300	1.164710
0.323400	1.125761
0.323500	1.140367
0.323600	1.112777
0.323700	1.134200
0.323800	1.149130
0.323900	1.150104
0.324000	1.130629
0.324100	1.149130
0.324200	1.190677
0.324300	1.185808
0.324400	1.190028
0.324500	1.126085
0.324600	1.122515
0.324700	1.076424
0.324800	1.169254
0.324900	1.165359
0.325000	1.232223
0.325100	0.948864
0.325200	0.845322
0.325300	0.857981
0.325400	1.060844
0.325500	1.200414
0.325600	1.180939
0.325700	0.939126
0.325800	0.755413
0.325900	0.776511
0.326000	0.947565
0.326100	1.131928
0.326200	1.469168
0.326300	0.813188
0.326400	0.965742
0.326500	0.966066
0.326600	0.940424
0.326700	1.153675
0.326800	1.113751
0.326900	1.103689
0.327000	0.893685
0.327100	0.932310
0.327200	1.361407
0.327300	1.262734
0.327400	1.139393
0.327500	1.120243
0.327600	1.355889
0.327700	1.787907
0.327800	1.887878
0.327900	1.404252
0.328000	0.950162
0.328100	0.880377
0.328200	1.387049
0.328300	2.107296
0.328400	1.797320
0.328500	1.876843
0.328600	1.965453
0.328700	2.167343
0.328800	2.181300
0.328900	2.241348
0.329000	2.092040
0.329100	2.300422
0.329200	2.374102
0.329300	2.536718
0.329400	2.559763
0.329500	2.460441
0.329600	2.629548
0.329700	2.446809
0.329800	2.377997
0.329900	2.187468
0.330000	1.978761
0.330100	1.845034
0.330200	1.077073
0.330300	0.539891
0.330400	0.336378
0.330500	0.404540
0.330600	0.635318
0.330700	0.739833
0.330800	0.644081
0.330900	0.310736
0.331000	0.117935
0.331100	0.097486
0.331200	0.244522
0.331300	0.349686
0.331400	0.325018
0.331500	0.178307
0.331600	0.039386
0.331700	-0.012223
0.331800	0.016016
0.331900	0.045228
0.332000	0.021534
0.332100	-0.000862
0.332200	-0.004433
0.332300	-0.048900
0.332400	-0.070972
0.332500	-0.113492
0.332600	-0.175812
0.332700	-0.278055
0.332800	-0.293635
0.332900	-0.267668
0.333000	-0.314733
0.333100	-0.366666
0.333200	-0.477024
0.333300	-0.427687
0.333400	-0.347840
0.333500	-0.262800
0.333600	-0.343296
0.333700	-0.534475
0.333800	-0.725653
0.333900	-0.711372
0.334000	-0.584460
0.334100	-0.413730
0.334200	-0.441320
0.334300	-0.609778
0.334400	-0.833739
0.334500	-0.930789
0.334600	-0.854512
0.334700	-0.720135
0.334800	-0.695467
0.334900	-0.703582
0.335000	-0.756164
0.335100	-0.772718
0.335200	-0.728575
0.335300	-0.695792
0.335400	-0.649052
0.335500	-0.624384
0.335600	-0.533825
0.335700	-0.394580
0.335800	-0.293635
0.335900	-0.265072
0.336000	-0.243974
0.336100	-0.256957
0.336200	-0.128098
0.336300	0.017639
0.336400	0.089047
0.336500	0.263996
0.336600	0.223424
0.336700	0.314956
0.336800	0.373056
0.336900	0.457122
0.337000	0.548330
0.337100	0.663556
0.337200	0.695690
0.337300	0.730420
0.337400	0.718411
0.337500	0.744053
0.337600	0.728148
0.337700	0.762229
0.337800	0.768072
0.337900	0.821628
0.338000	0.779432
0.338100	0.838181
0.338200	0.732692
0.338300	0.778783
0.338400	0.717112
0.338500	0.857656
0.338600	1.037150
0.338700	1.297789
0.338800	1.227030
0.338900	0.921274
0.339000	0.819680
0.339100	0.826821
0.339200	1.166658
0.339300	1.391593
0.339400	1.461378
0.339500	1.336739
0.339600	1.121216
0.339700	1.136472
0.339800	1.238390
0.339900	1.388022
0.340000	1.489292
0.340100	1.471765
0.340200	1.536356
0.340300	1.352318
0.340400	1.448070
0.340500	1.438333
0.340600	1.465273
0.340700	1.475335
0.340800	1.505846
0.340900	1.521101
0.341000	1.505196
0.341100	1.437359
0.341200	1.410419
0.341300	1.404252
0.341400	1.376013
0.341500	1.455535
0.341600	1.502924
0.341700	1.395163
0.341800	1.148481
0.341900	1.055002
0.342000	1.127708
0.342100	1.318562
0.342200	2.159553
0.342300	1.240338
0.342400	1.079021
0.342500	0.987813
0.342600	1.060520
0.342700	1.687936
0.342800	2.589300
0.342900	2.692517
0.343000	2.077434
0.343100	1.918714
0.343200	2.202074
0.343300	2.503611
0.343400	2.948288
0.343500	2.849291
0.343600	2.856756
0.343700	2.785023
0.343800	2.955754
0.343900	3.096623
0.344000	3.257291
0.344100	3.161539
0.344200	3.320585
0.344300	3.544872
0.344400	3.934697
0.344500	3.705865
0.344600	2.913883
0.344700	2.776909
0.344800	2.782427
0.344900	3.783441
0.345000	3.422504
0.345100	3.277091
0.345200	3.254370
0.345300	3.280986
0.345400	3.350771
0.345500	3.328375
0.345600	3.329673
0.345700	3.275468
0.345800	3.319936
0.345900	3.134924
0.346000	3.207630
0.346100	3.120317
0.346200	3.218991
0.346300	3.021644
0.346400	2.994379
0.346500	2.796708
0.346600	2.433176
0.346700	2.314704
0.346800	1.911573
0.346900	0.938477
0.347000	0.461991
0.347100	0.424340
0.347200	0.547681
0.347300	0.703155
0.347400	0.731718
0.347500	0.486010
0.347600	0.216607
0.347700	0.041009
0.347800	0.042632
0.347900	0.185123
0.348000	0.186097
0.348100	0.121830
0.348200	-0.079736
0.348300	-0.157960
0.348400	-0.196910
0.348500	-0.124528
0.348600	-0.143678
0.348700	-0.112194
0.348800	-0.142055
0.348900	-0.160881
0.349000	-0.146924
0.349100	-0.141731
0.349200	-0.132318
0.349300	-0.209893
0.349400	-0.239430
0.349500	-0.272862
0.349600	-0.297854
0.349700	-0.294933
0.349800	-0.384842
0.349900	-0.389062
0.350000	-0.301749
0.350100	-0.119010
0.350200	-0.127124
0.350300	-0.257606
0.350400	-0.442942
0.350500	-0.585109
0.350600	-0.515973
0.350700	-0.324795
0.350800	-0.190093
0.350900	-0.266695
0.351000	-0.488384
0.351100	-0.643534
0.351200	-0.654894
0.351300	-0.509157
0.351400	-0.405616
0.351500	-0.385167
0.351600	-0.434503
0.351700	-0.486112
0.351800	-0.471506
0.351900	-0.453978
0.352000	-0.422494
0.352100	-0.399449
0.352200	-0.349138
0.352300	-0.253062
0.352400	-0.163153
0.352500	-0.099210
0.352600	-0.050523
0.352700	-0.058638
0.352800	-0.034943
0.352900	0.140331
0.353000	0.226670
0.353100	0.420120
0.353200	0.416550
0.353300	0.452578
0.353400	0.527557
0.353500	0.581113
0.353600	0.683356
0.353700	0.812215
0.353800	0.864148
0.353900	0.895957
0.354000	0.908940
0.354100	0.905045
0.354200	0.917379
0.354300	0.911537
0.354400	0.944969
0.354500	0.979699
0.354600	0.996252
0.354700	1.006314
0.354800	1.026439
0.354900	0.958601
0.355000	0.974830
0.355100	0.997226
0.355200	1.170228
0.355300	1.353941
0.355400	1.548041
0.355500	1.260462
0.355600	1.047536
0.355700	0.984892
0.355800	1.117971
0.355900	1.371144
0.356000	1.523373
0.356100	1.497082
0.356200	1.320185
0.356300	1.215020
0.356400	1.251374
0.356500	1.416261
0.356600	1.513960
0.356700	1.534409
0.356800	1.567841
0.356900	1.503898
0.357000	1.480204
0.357100	1.535058
0.357200	1.584394
0.357300	1.605817
0.357400	1.609712
0.357500	1.661320
0.357600	1.650609
0.357700	1.672356
0.357800	1.551612
0.357900	1.609387
0.358000	1.551612
0.358100	2.129043
0.358200	2.520813
0.358300	2.994055
0.358400	2.205320
0.358500	1.353617
0.358600	1.441578
0.358700	2.279973
0.358800	3.967804
0.358900	3.982086
0.359000	3.128107
0.359100	2.077759
0.359200	1.903783
0.359300	3.023267
0.359400	4.475129
0.359500	5.115860
0.359600	4.731227
0.359700	4.008702
0.359800	4.158010
0.359900	4.341400
0.360000	5.139879
0.360100	5.354106
0.360200	5.252186
0.360300	5.062953
0.360400	5.129817
0.360500	5.544313
0.360600	5.787429
0.360700	5.792298
0.360800	5.977637
0.360900	6.244448
0.361000	6.499574
0.361100	6.727760
0.361200	6.296706
0.361300	5.830599
0.361400	5.600467
0.361500	6.027948
0.361600	6.332411
0.361700	5.839363
0.361800	5.858838
0.361900	5.817291
0.362000	5.859812
0.362100	5.830923
0.362200	5.902008
0.362300	5.805606
0.362400	5.853969
0.362500	5.865005
0.362600	6.061380
0.362700	6.004253
0.362800	6.045151
0.362900	5.971470
0.363000	6.108121
0.363100	5.951670
0.363200	6.182451
0.363300	6.050020
0.363400	5.999060
0.363500	5.481993
0.363600	4.134965
0.363700	2.607152
0.363800	2.804823
0.363900	4.116788
0.364000	5.135011
0.364100	4.903906
0.364200	3.066761
0.364300	1.442877
0.364400	1.061493
0.364500	1.512013
0.364600	2.190064
0.364700	2.243296
0.364800	1.215670
0.364900	0.913484
0.365000	0.815785
0.365100	0.852463
0.365200	0.876806
0.365300	0.926792
0.365400	0.852463
0.365500	0.783652
0.365600	0.747623
0.365700	0.751843
0.365800	0.768072
0.365900	0.715489
0.366000	0.608053
0.366100	0.563585
0.366200	0.569103
0.366300	0.559366
0.366400	0.521065
0.366500	0.452578
0.366600	0.443815
0.366700	0.549628
0.366800	0.697313
0.366900	0.647003
0.367000	0.490230
0.367100	0.331509
0.367200	0.271137
0.367300	0.427261
0.367400	0.593122
0.367500	0.620062
0.367600	0.456798
0.367700	0.243872
0.367800	0.142278
0.367900	0.180254
0.368000	0.278603
0.368100	0.326316
0.368200	0.279576
0.368300	0.219204
0.368400	0.158507
0.368500	0.127348
0.368600	0.150068
0.368700	0.146822
0.368800	0.176684
0.368900	0.209467
0.369000	0.283796
0.369100	0.352932
0.369200	0.381820
0.369300	0.408111
0.369400	0.403891
0.369500	0.461667
0.369600	0.611948
0.369700	0.677189
0.369800	0.883298
0.369900	0.848568
0.370000	0.857332
0.370100	0.944319
0.370200	0.978725
0.370300	1.095250
0.370400	1.191651
0.370500	1.187756
0.370600	1.184185
0.370700	1.163412
0.370800	1.174772
0.370900	1.172825
0.371000	1.169579
0.371100	1.133226
0.371200	1.179316
0.371300	1.133226
0.371400	1.174772
0.371500	1.071231
0.371600	1.088434
0.371700	1.057598
0.371800	1.083889
0.371900	1.262085
0.372000	1.505846
0.372100	1.488967
0.372200	1.221512
0.372300	1.138744
0.372400	1.135823
0.372500	1.296490
0.372600	1.549989
0.372700	1.584719
0.372800	1.471765
0.372900	1.345502
0.373000	1.290973
0.373100	1.401655
0.373200	1.489941
0.373300	1.698323
0.373400	1.640547
0.373500	1.540576
0.373600	1.494485
0.373700	1.459755
0.373800	1.397111
0.373900	1.486046
0.374000	1.466571
0.374100	1.478581
0.374200	1.479230
0.374300	1.425674
0.374400	1.438657
0.374500	1.347450
0.374600	1.309149
0.374700	1.275068
0.374800	1.356213
0.374900	1.334142
0.375000	1.343230
0.375100	1.055002
0.375200	0.977427
0.375300	0.996577
0.375400	1.142314
0.375500	1.597053
0.375600	1.182562
0.375700	1.014429
0.375800	0.841427
0.375900	0.927117
0.376000	1.050133
0.376100	1.458781
0.376200	1.733702
0.376300	1.295517
0.376400	1.091679
0.376500	1.213722
0.376600	1.511688
0.376700	2.156957
0.376800	2.065100
0.376900	2.305615
0.377000	2.125797
0.377100	2.378971
0.377200	2.563983
0.377300	2.558465
0.377400	2.585730
0.377500	2.669797
0.377600	3.124212
0.377700	3.340060
0.377800	3.326427
0.377900	2.741205
0.378000	2.433825
0.378100	2.527630
0.378200	3.324805
0.378300	3.463077
0.378400	3.187181
0.378500	3.165759
0.378600	3.219964
0.378700	3.330647
0.378800	3.220289
0.378900	3.368299
0.379000	3.031706
0.379100	2.975553
0.379200	2.982370
0.379300	2.920050
0.379400	3.019372
0.379500	2.847343
0.379600	2.899926
0.379700	2.836308
0.379800	2.954131
0.379900	2.735038
0.380000	2.626303
0.380100	2.291658
0.380200	1.398085
0.380300	0.597666
0.380400	0.458096
0.380500	0.584358
0.380600	0.747948
0.380700	0.843699
0.380800	0.630124
0.380900	0.368187
0.381000	0.135787
0.381100	0.173438
0.381200	0.286393
0.381300	0.369161
0.381400	0.245495
0.381500	0.042632
0.381600	-0.095640
0.381700	-0.156337
0.381800	-0.150494
0.381900	-0.146275
0.382000	-0.186198
0.382100	-0.268318
0.382200	-0.308241
0.382300	-0.358551
0.382400	-0.396203
0.382500	-0.447811
0.382600	-0.515324
0.382700	-0.600365
0.382800	-0.610751
0.382900	-0.607830
0.383000	-0.655544
0.383100	-0.749023
0.383200	-0.822054
0.383300	-0.801281
0.383400	-0.613997
0.383500	-0.633472
0.383600	-0.746751
0.383700	-0.944422
0.383800	-1.104765
0.383900	-1.074254
0.384000	-0.942799
0.384100	-0.780183
0.384200	-0.824975
0.384300	-1.009987
0.384400	-1.202464
0.384500	-1.268679
0.384600	-1.168383
0.384700	-1.046340
0.384800	-1.002846
0.384900	-1.009338
0.385000	-1.058025
0.385100	-1.034006
0.385200	-1.014531
0.385300	-0.969414
0.385400	-0.923324
0.385500	-0.873014
0.385600	-0.765577
0.385700	-0.616594
0.385800	-0.534150
0.385900	-0.534475
0.386000	-0.575047
0.386100	-0.595171
0.386200	-0.441644
0.386300	-0.316356
0.386400	-0.271563
0.386500	-0.129721
0.386600	-0.124203
0.386700	-0.063506
0.386800	0.056913
0.386900	0.174736
0.387000	0.293858
0.387100	0.398698
0.387200	0.437972
0.387300	0.459070
0.387400	0.497371
0.387500	0.494774
0.387600	0.480492
0.387700	0.477896
0.387800	0.524960
0.387900	0.517495
0.388000	0.566506
0.388100	0.551576
0.388200	0.559366
0.388300	0.480492
0.388400	0.675566
0.388500	0.605456
0.388600	0.969312
0.388700	1.074801
0.388800	1.096873
0.388900	0.775212
0.389000	0.724578
0.389100	0.900501
0.389200	1.117971
0.389300	1.382505
0.389400	1.299087
0.389500	1.263383
0.389600	1.117971
0.389700	1.201063
0.389800	1.374390
0.389900	1.460080
0.390000	1.510390
0.390100	1.494810
0.390200	1.446447
0.390300	1.477932
0.390400	1.568165
0.390500	1.657101
0.390600	1.701244
0.390700	1.693454
0.390800	1.744413
0.390900	1.851525
0.391000	1.878790
0.391100	1.561674
0.391200	1.976814
0.391300	1.807382
0.391400	2.465310
0.391500	2.858704
0.391600	3.717875
0.391700	2.607152
0.391800	1.525321
0.391900	1.448070
0.392000	2.063477
0.392100	3.704891
0.392200	4.009026
0.392300	3.375764
0.392400	2.111515
0.392500	1.736623
0.392600	2.600661
0.392700	3.909055
0.392800	4.692276
0.392900	4.573154
0.393000	3.776624
0.393100	3.648089
0.393200	3.813627
0.393300	4.314135
0.393400	4.500122
0.393500	4.060311
0.393600	3.860692
0.393700	3.732481
0.393800	3.979489
0.393900	3.943136
0.394000	3.623746
0.394100	3.538705
0.394200	3.472490
0.394300	3.704242
0.394400	3.946057
0.394500	3.354666
0.394600	2.523735
0.394700	2.088470
0.394800	2.141052
0.394900	2.888565
0.395000	2.424737
0.395100	2.285167
0.395200	2.040756
0.395300	1.993692
0.395400	1.893072
0.395500	1.654179
0.395600	1.322457
0.395700	1.014754
0.395800	0.795661
0.395900	0.658363
0.396000	0.612272
0.396100	0.595070
0.396200	0.563910
0.396300	0.525609
0.396400	0.477896
0.396500	0.388960
0.396600	0.346116
0.396700	0.235109
0.396800	0.151042
0.396900	-0.040786
0.397000	-0.315382
0.397100	-0.432556
0.397200	-0.276107
0.397300	-0.107000
0.397400	-0.123879
0.397500	-0.440670
0.397600	-0.697415
0.397700	-0.865548
0.397800	-0.774341
0.397900	-0.663983
0.398000	-0.621138
0.398100	-0.794789
0.398200	-1.006741
0.398300	-1.142741
0.398400	-1.103791
0.398500	-1.120345
0.398600	-1.105414
0.398700	-1.157997
0.398800	-1.209281
0.398900	-1.280364
0.399000	-1.324183
0.399100	-1.360211
0.399200	-1.436488
0.399300	-1.500756
0.399400	-1.552364
0.399500	-1.583524
0.399600	-1.578980
0.399700	-1.619553
0.399800	-1.690312
0.399900	-1.710760
0.400000	-1.661099
0.400100	-1.516660
0.400200	-1.587744
0.400300	-1.696803
0.400400	-1.889930
0.400500	-2.011000
0.400600	-1.932126
0.400700	-1.780221
0.400800	-1.694856
0.400900	-1.793204
0.401000	-2.024957
0.401100	-2.187573
0.401200	-2.179458
0.401300	-2.043458
0.401400	-1.922064
0.401500	-1.912002
0.401600	-1.931801
0.401700	-1.962637
0.401800	-1.980489
0.401900	-1.947057
0.402000	-1.921090
0.402100	-1.881816
0.402200	-1.829558
0.402300	-1.707190
0.402400	-1.603648
0.402500	-1.572488
0.402600	-1.563400
0.402700	-1.581901
0.402800	-1.525748
0.402900	-1.319639
0.403000	-1.198894
0.403100	-0.984345
0.403200	-0.969739
0.403300	-0.894111
0.403400	-0.786350
0.403500	-0.683458
0.403600	-0.556871
0.403700	-0.389062
0.403800	-0.305969
0.403900	-0.212489
0.404000	-0.177435
0.404100	-0.127124
0.404200	-0.064480
0.404300	-0.009301
0.404400	0.097161
0.404500	0.179605
0.404600	0.290288
0.404700	0.332159
0.404800	0.390583
0.404900	0.379872
0.405000	0.449982
0.405100	0.533399
0.405200	0.647327
0.405300	1.006639
0.405400	1.102715
0.405500	0.996577
0.405600	0.759308
0.405700	0.810267
0.405800	0.945293
0.405900	1.351345
0.406000	1.433464
0.406100	1.431841
0.406200	1.291622
0.406300	1.184510
0.406400	1.333493
0.406500	1.522075
0.406600	1.686638
0.406700	1.728184
0.406800	1.717148
0.406900	1.678848
0.407000	1.733702
0.407100	1.735325
0.407200	1.830427
0.407300	1.828155
0.407400	1.971296
0.407500	2.226093
0.407600	2.784699
0.407700	2.328661
0.407800	2.586054
0.407900	2.584107
0.408000	2.961596
0.408100	3.423802
0.408200	3.866859
0.408300	4.373859
0.408400	3.357912
0.408500	2.259525
0.408600	2.712317
0.408700	3.769808
0.408800	5.495625
0.408900	5.436226
0.409000	4.719866
0.409100	3.612385
0.409200	3.673082
0.409300	4.783809
0.409400	6.101305
0.409500	6.548262
0.409600	6.214910
0.409700	5.734521
0.409800	5.943555
0.409900	6.031843
0.410000	6.622593
0.410100	6.684589
0.410200	6.786510
0.410300	6.623567
0.410400	6.693029
0.410500	7.139988
0.410600	7.109477
0.410700	6.992625
0.410800	7.078965
0.410900	7.611618
0.411000	7.821305
0.411100	8.092988
0.411200	7.528848
0.411300	7.042611
0.411400	6.993923
0.411500	7.337988
0.411600	7.844351
0.411700	7.346103
0.411800	7.293519
0.411900	7.385379
0.412000	7.252621
0.412100	7.181211
0.412200	7.048454
0.412300	6.959192
0.412400	6.874799
0.412500	6.859218
0.412600	6.828707
0.412700	6.617724
0.412800	6.433683
0.412900	6.414207
0.413000	6.387916
0.413100	6.084101
0.413200	5.968548
0.413300	5.282048
0.413400	5.154486
0.413500	3.953847
0.413600	2.032967
0.413700	0.720683
0.413800	0.698936
0.413900	0.998200
0.414000	1.557454
0.414100	0.996577
0.414200	0.473676
0.414300	0.227968
0.414400	0.108197
0.414500	0.201028
0.414600	0.253285
0.414700	0.155586
0.414800	-0.072270
0.414900	-0.251764
0.415000	-0.374456
0.415100	-0.428985
0.415200	-0.432880
0.415300	-0.465988
0.415400	-0.528957
0.415500	-0.564985
0.415600	-0.634446
0.415700	-0.707477
0.415800	-0.764928
0.415900	-0.832441
0.416000	-0.924622
0.416100	-0.982073
0.416200	-1.044068
0.416300	-1.076851
0.416400	-1.162216
0.416500	-1.260889
0.416600	-1.262837
0.416700	-1.157347
0.416800	-1.101195
0.416900	-1.200517
0.417000	-1.392345
0.417100	-1.621500
0.417200	-1.647142
0.417300	-1.522178
0.417400	-1.368975
0.417500	-1.384555
0.417600	-1.544899
0.417700	-1.777300
0.417800	-1.895448
0.417900	-1.841892
0.418000	-1.751333
0.418100	-1.725042
0.418200	-1.765290
0.418300	-1.833777
0.418400	-1.869481
0.418500	-1.901940
0.418600	-1.931152
0.418700	-1.917844
0.418800	-1.933424
0.418900	-1.856174
0.419000	-1.742570
0.419100	-1.672460
0.419200	-1.657204
0.419300	-1.661424
0.419400	-1.680574
0.419500	-1.589691
0.419600	-1.459209
0.419700	-1.399486
0.419800	-1.182340
0.419900	-1.235896
0.420000	-1.202464
0.420100	-1.157023
0.420200	-1.103142
0.420300	-1.034006
0.420400	-0.913262
0.420500	-0.907095
0.420600	-0.938579
0.420700	-0.922350
0.420800	-0.942149
0.420900	-0.946044
0.421000	-0.943123
0.421100	-0.997978
0.421200	-0.903524
0.421300	-0.973959
0.421400	-0.871715
0.421500	-0.952536
0.421600	-0.900603
0.421700	-0.896059
0.421800	-0.862951
0.421900	-0.625033
0.422000	-0.461444
0.422100	-0.300127
0.422200	-0.746102
0.422300	-0.799658
0.422400	-0.693520
0.422500	-0.542265
0.422600	-0.313434
0.422700	-0.233587
0.422800	-0.356279
0.422900	-0.434179
0.423000	-0.448785
0.423100	-0.276432
0.423200	-0.198532
0.423300	-0.055067
0.423400	-0.082332
0.423500	-0.099860
0.423600	-0.151468
0.423700	-0.065129
0.423800	-0.004757
0.423900	0.033543
0.424000	0.061133
0.424100	0.055615
0.424200	0.157209
0.424300	0.115663
0.424400	0.129620
0.424500	0.045553
0.424600	0.071195
0.424700	0.099109
0.424800	0.191615
0.424900	0.288015
0.425000	0.274058
0.425100	0.052369
0.425200	-0.031048
0.425300	0.071195
0.425400	0.243872
0.425500	0.465886
0.425600	0.364292
0.425700	0.215958
0.425800	0.122154
0.425900	0.226670
0.426000	0.418497
0.426100	0.567480
0.426200	0.534697
0.426300	0.412330
0.426400	0.344168
0.426500	0.365590
0.426600	0.352283
0.426700	0.425963
0.426800	0.345466
0.426900	0.309762
0.427000	0.250039
0.427100	0.249715
0.427200	0.238679
0.427300	0.208493
0.427400	0.196483
0.427500	0.206545
0.427600	0.239004
0.427700	0.285743
0.427800	0.279576
0.427900	0.154288
0.428000	0.107223
0.428100	0.086126
0.428200	0.239004
0.428300	0.228942
0.428400	0.209142
0.428500	0.214660
0.428600	0.200378
0.428700	0.213037
0.428800	0.195834
0.428900	0.192588
0.429000	0.180904
0.429100	0.199080
0.429200	0.167920
0.429300	0.139682
0.429400	0.077037
0.429500	0.117610
0.429600	0.099758
0.429700	0.080608
0.429800	0.040360
0.429900	0.022508
0.430000	-0.043382
0.430100	-0.097263
0.430200	-0.220604
0.430300	-0.533825
0.430400	-0.596794
0.430500	-0.486761
0.430600	-0.286494
0.430700	-0.295258
0.430800	-0.415678
0.430900	-0.719486
0.431000	-0.877233
0.431100	-0.821080
0.431200	-0.686054
0.431300	-0.613673
0.431400	-0.714293
0.431500	-0.916508
0.431600	-1.069386
0.431700	-1.079772
0.431800	-1.065815
0.431900	-1.058350
0.432000	-1.075877
0.432100	-1.141118
0.432200	-1.207333
0.432300	-1.225834
0.432400	-1.268679
0.432500	-1.324183
0.432600	-1.414741
0.432700	-1.522178
0.432800	-1.563400
0.432900	-1.544899
0.433000	-1.606245
0.433100	-1.716278
0.433200	-1.801644
0.433300	-1.742245
0.433400	-1.622799
0.433500	-1.566970
0.433600	-1.698751
0.433700	-1.903563
0.433800	-2.055467
0.433900	-2.018790
0.434000	-1.841567
0.434100	-1.729911
0.434200	-1.800994
0.434300	-1.992498
0.434400	-2.168747
0.434500	-2.177511
0.434600	-2.058713
0.434700	-1.945758
0.434800	-1.917520
0.434900	-1.951925
0.435000	-2.008078
0.435100	-2.051897
0.435200	-2.037615
0.435300	-1.991849
0.435400	-1.962312
0.435500	-1.917844
0.435600	-1.868183
0.435700	-1.779897
0.435800	-1.721796
0.435900	-1.686417
0.436000	-1.656880
0.436100	-1.664994
0.436200	-1.503028
0.436300	-1.371896
0.436400	-1.227782
0.436500	-1.152154
0.436600	-1.093405
0.436700	-1.021672
0.436800	-0.919753
0.436900	-0.818808
0.437000	-0.671124
0.437100	-0.622436
0.437200	-0.585434
0.437300	-0.591926
0.437400	-0.550054
0.437500	-0.509157
0.437600	-0.536097
0.437700	-0.506885
0.437800	-0.472479
0.437900	-0.468584
0.438000	-0.422818
0.438100	-0.487410
0.438200	-0.403668
0.438300	-0.539343
0.438400	-0.347515
0.438500	-0.316356
0.438600	0.012121
0.438700	0.117935
0.438800	0.053668
0.438900	-0.314084
0.439000	-0.391009
0.439100	-0.198857
0.439200	-0.064805
0.439300	0.182851
0.439400	0.122154
0.439500	-0.047602
0.439600	-0.149196
0.439700	-0.061559
0.439800	-0.015793
0.439900	0.167920
0.440000	0.184149
0.440100	0.155586
0.440200	0.071844
0.440300	0.158507
0.440400	0.128321
0.440500	0.190316
0.440600	0.205896
0.440700	0.257505
0.440800	0.311385
0.440900	0.320149
0.441000	0.327614
0.441100	0.341571
0.441200	0.340598
0.441300	0.366564
0.441400	0.453227
0.441500	0.554822
0.441600	0.583385
0.441700	0.495098
0.441800	0.286717
0.441900	0.346765
0.442000	0.510678
0.442100	0.727823
0.442200	0.751843
0.442300	0.576893
0.442400	0.416225
0.442500	0.374679
0.442600	0.537294
0.442700	0.711919
0.442800	0.783652
0.442900	0.707699
0.443000	0.597666
0.443100	0.603833
0.443200	0.594745
0.443300	0.656740
0.443400	0.645704
0.443500	0.612597
0.443600	0.575270
0.443700	0.572349
0.443800	0.640836
0.443900	0.632721
0.444000	0.620062
0.444100	0.616492
0.444200	0.626879
0.444300	0.679461
0.444400	0.719060
0.444500	0.680110
0.444600	0.569103
0.444700	0.536320
0.444800	0.574621
0.444900	0.743079
0.445000	0.665179
0.445100	0.663232
0.445200	0.680110
0.445300	0.667451
0.445400	0.666478
0.445500	0.663556
0.445600	0.633370
0.445700	0.612922
0.445800	0.555471
0.445900	0.527557
0.446000	0.454850
0.446100	0.425313
0.446200	0.338650
0.446300	0.321772
0.446400	0.267891
0.446500	0.184798
0.446600	0.148770
0.446700	0.031271
0.446800	-0.023258
0.446900	-0.297205
0.447000	-0.511105
0.447100	-0.540317
0.447200	-0.387764
0.447300	-0.238781
0.447400	-0.306943
0.447500	-0.604260
0.447600	-0.838608
0.447700	-0.931438
0.447800	-0.817185
0.447900	-0.707801
0.448000	-0.714942
0.448100	-0.948317
0.448200	-1.147285
0.448300	-1.244660
0.448400	-1.193701
0.448500	-1.147935
0.448600	-1.158646
0.448700	-1.200841
0.448800	-1.244660
0.448900	-1.298865
0.449000	-1.291075
0.449100	-1.292374
0.449200	-1.371572
0.449300	-1.443954
0.449400	-1.501080
0.449500	-1.490044
0.449600	-1.469596
0.449700	-1.574760
0.449800	-1.656231
0.449900	-1.680899
0.450000	-1.561777
0.450100	-1.374493
0.450200	-1.408899
0.450300	-1.553663
0.450400	-1.725042
0.450500	-1.798722
0.450600	-1.617930
0.450700	-1.447199
0.450800	-1.370598
0.450900	-1.490694
0.451000	-1.701672
0.451100	-1.813978
0.451200	-1.762369
0.451300	-1.577032
0.451400	-1.491667
0.451500	-1.493290
0.451600	-1.528670
0.451700	-1.569892
0.451800	-1.577032
0.451900	-1.567620
0.452000	-1.515362
0.452100	-1.490044
0.452200	-1.454016
0.452300	-1.325481
0.452400	-1.223238
0.452500	-1.166111
0.452600	-1.126837
0.452700	-1.133328
0.452800	-1.066789
0.452900	-0.878531
0.453000	-0.791543
0.453100	-0.560766
0.453200	-0.626656
0.453300	-0.578293
0.453400	-0.503315
0.453500	-0.393931
0.453600	-0.303048
0.453700	-0.196260
0.453800	-0.149845
0.453900	-0.123229
0.454000	-0.105702
0.454100	-0.077788
0.454200	-0.076490
0.454300	-0.067077
0.454400	-0.074867
0.454500	-0.044032
0.454600	-0.026180
0.454700	-0.031697
0.454800	-0.058313
0.454900	-0.114466
0.455000	-0.095965
0.455100	-0.097263
0.455200	0.063730
0.455300	0.287691
0.455400	0.320149
0.455500	0.093591
0.455600	-0.211516
0.455700	-0.162179
0.455800	-0.064480
0.455900	0.194536
0.456000	0.247767
0.456100	0.108846
0.456200	-0.039163
0.456300	-0.131993
0.456400	0.015367
0.456500	0.097486
0.456600	0.218880
0.456700	0.216283
0.456800	0.150068
0.456900	0.108522
0.457000	0.089696
0.457100	0.097486
0.457200	0.095214
0.457300	0.077037
0.457400	0.065028
0.457500	0.042307
0.457600	0.102355
0.457700	-0.015144
0.457800	-0.003783
0.457900	-0.179382
0.458000	-0.127449
0.458100	-0.153740
0.458200	-0.066103
0.458300	-0.121282
0.458400	-0.361797
0.458500	-0.516623
0.458600	-0.535773
0.458700	-0.425415
0.458800	-0.190093
0.458900	-0.310189
0.459000	-0.523763
0.459100	-0.716565
0.459200	-0.747400
0.459300	-0.570503
0.459400	-0.411458
0.459500	-0.377377
0.459600	-0.527983
0.459700	-0.661386
0.459800	-0.663658
0.459900	-0.665281
0.460000	-0.570828
0.460100	-0.604260
0.460200	-0.646780
0.460300	-0.673720
0.460400	-0.676641
0.460500	-0.647104
0.460600	-0.658140
0.460700	-0.694493
0.460800	-0.659114
0.460900	-0.666904
0.461000	-0.630226
0.461100	-0.627954
0.461200	-0.766226
0.461300	-0.837309
0.461400	-0.841529
0.461500	-0.811992
0.461600	-0.715916
0.461700	-0.756164
0.461800	-0.745777
0.461900	-0.739610
0.462000	-0.712345
0.462100	-0.708126
0.462200	-0.710723
0.462300	-0.724030
0.462400	-0.683133
0.462500	-0.693520
0.462600	-0.669176
0.462700	-0.700985
0.462800	-0.674045
0.462900	-0.651973
0.463000	-0.638990
0.463100	-0.612050
0.463200	-0.643209
0.463300	-0.643859
0.463400	-0.662360
0.463500	-0.738637
0.463600	-0.979801
0.463700	-1.117099
0.463800	-1.031410
0.463900	-0.807773
0.464000	-0.735066
0.464100	-0.813615
0.464200	-1.098273
0.464300	-1.274846
0.464400	-1.283610
0.464500	-1.118398
0.464600	-1.023944
0.464700	-1.070359
0.464800	-1.195324
0.464900	-1.342035
0.465000	-1.349500
0.465100	-1.280040
0.465200	-1.227782
0.465300	-1.210254
0.465400	-1.249529
0.465500	-1.285882
0.465600	-1.308603
0.465700	-1.320937
0.465800	-1.314770
0.465900	-1.370273
0.466000	-1.406302
0.466100	-1.430646
0.466200	-1.462779
0.466300	-1.493939
0.466400	-1.567620
0.466500	-1.627992
0.466600	-1.612412
0.466700	-1.457586
0.466800	-1.358264
0.466900	-1.453367
0.467000	-1.619228
0.467100	-1.814627
0.467200	-1.806512
0.467300	-1.641949
0.467400	-1.479658
0.467500	-1.482904
0.467600	-1.671811
0.467700	-1.922713
0.467800	-1.997692
0.467900	-1.914598
0.468000	-1.776651
0.468100	-1.693558
0.468200	-1.737701
0.468300	-1.804240
0.468400	-1.878570
0.468500	-1.851305
0.468600	-1.849357
0.468700	-1.843190
0.468800	-1.805214
0.468900	-1.794503
0.469000	-1.684794
0.469100	-1.611438
0.469200	-1.610140
0.469300	-1.614684
0.469400	-1.658178
0.469500	-1.520231
0.469600	-1.380011
0.469700	-1.253748
0.469800	-1.185911
0.469900	-1.221939
0.470000	-1.193376
0.470100	-1.170980
0.470200	-1.165137
0.470300	-1.070035
0.470400	-0.982398
0.470500	-1.005443
0.470600	-0.979476
0.470700	-1.030436
0.470800	-0.999925
0.470900	-1.032059
0.471000	-1.043419
0.471100	-0.992135
0.471200	-1.028488
0.471300	-0.958379
0.471400	-0.990512
0.471500	-1.036603
0.471600	-0.987591
0.471700	-1.037577
0.471800	-0.869119
0.471900	-0.728250
0.472000	-0.386141
0.472100	-0.458198
0.472200	-0.811343
0.472300	-0.867496
0.472400	-0.831142
0.472500	-0.464365
0.472600	-0.372508
0.472700	-0.226446
0.472800	-0.390036
0.472900	-0.582837
0.473000	-0.532527
0.473100	-0.388737
0.473200	-0.193015
0.473300	-0.105053
0.473400	-0.040786
0.473500	-0.042733
0.473600	-0.096938
0.473700	-0.102132
0.473800	-0.044356
0.473900	-0.037540
0.474000	0.027052
0.474100	0.057238
0.474200	0.129944
0.474300	0.058861
0.474400	-0.007678
0.474500	-0.082008
0.474600	-0.044681
0.474700	-0.111545
0.474800	-0.023583
0.474900	0.031921
0.475000	-0.105377
0.475100	-0.383219
0.475200	-0.447487
0.475300	-0.373157
0.475400	-0.156012
0.475500	-0.151793
0.475600	-0.243000
0.475700	-0.520193
0.475800	-0.629902
0.475900	-0.594522
0.476000	-0.399449
0.476100	-0.321549
0.476200	-0.405940
0.476300	-0.540966
0.476400	-0.611400
0.476500	-0.657816
0.476600	-0.638665
0.476700	-0.616918
0.476800	-0.676317
0.476900	-0.714618
0.477000	-0.695792
0.477100	-0.699687
0.477200	-0.732794
0.477300	-0.780508
0.477400	-0.801281
0.477500	-0.799009
0.477600	-0.789921
0.477700	-0.789921
0.477800	-0.806799
0.477900	-0.957729
0.478000	-0.990837
0.478100	-0.983696
0.478200	-0.944097
0.478300	-0.889243
0.478400	-0.924297
0.478500	-0.892164
0.478600	-0.893138
0.478700	-0.869443
0.478800	-0.863276
0.478900	-0.872364
0.479000	-0.854188
0.479100	-0.844775
0.479200	-0.811018
0.479300	-0.831467
0.479400	-0.828546
0.479500	-0.817835
0.479600	-0.811018
0.479700	-0.846073
0.479800	-0.842827
0.479900	-0.854837
0.480000	-0.883725
0.480100	-0.903200
0.480200	-1.068087
0.480300	-1.338789
0.480400	-1.413767
0.480500	-1.277443
0.480600	-1.121968
0.480700	-1.124240
0.480800	-1.368001
0.480900	-1.645519
0.481000	-1.789959
0.481100	-1.750684
0.481200	-1.648765
0.481300	-1.608192
0.481400	-1.753605
0.481500	-1.934073
0.481600	-2.029825
0.481700	-2.045405
0.481800	-2.042809
0.481900	-2.040212
0.482000	-2.067802
0.482100	-2.079811
0.482200	-2.131420
0.482300	-2.147324
0.482400	-2.154465
0.482500	-2.188222
0.482600	-2.291115
0.482700	-2.335907
0.482800	-2.282026
0.482900	-2.300203
0.483000	-2.350514
0.483100	-2.440748
0.483200	-2.520595
0.483300	-2.456003
0.483400	-2.310914
0.483500	-2.279754
0.483600	-2.422571
0.483700	-2.647832
0.483800	-2.750401
0.483900	-2.683212
0.484000	-2.491058
0.484100	-2.363172
0.484200	-2.434256
0.484300	-2.638744
0.484400	-2.819212
0.484500	-2.815966
0.484600	-2.672500
0.484700	-2.569607
0.484800	-2.526113
0.484900	-2.546237
0.485000	-2.576099
0.485100	-2.575774
0.485200	-2.578047
0.485300	-2.526438
0.485400	-2.523517
0.485500	-2.472232
0.485600	-2.381024
0.485700	-2.272938
0.485800	-2.211916
0.485900	-2.215487
0.486000	-2.194064
0.486100	-2.130122
0.486200	-1.962961
0.486300	-1.855849
0.486400	-1.635457
0.486500	-1.657204
0.486600	-1.620202
0.486700	-1.544899
0.486800	-1.485176
0.486900	-1.392994
0.487000	-1.256020
0.487100	-1.174226
0.487200	-1.149233
0.487300	-1.150207
0.487400	-1.144040
0.487500	-1.095352
0.487600	-1.133328
0.487700	-1.090159
0.487800	-1.076202
0.487900	-1.048937
0.488000	-0.983371
0.488100	-1.062569
0.488200	-0.952212
0.488300	-1.066464
0.488400	-0.860679
0.488500	-0.943772
0.488600	-0.537071
0.488700	-0.534150
0.488800	-0.609453
0.488900	-0.897682
0.489000	-0.853863
0.489100	-0.721434
0.489200	-0.426389
0.489300	-0.256308
0.489400	-0.335831
0.489500	-0.431582
0.489600	-0.543563
0.489700	-0.446837
0.489800	-0.335831
0.489900	-0.049874
0.490000	-0.031697
0.490100	-0.029750
0.490200	-0.077463
0.490300	-0.074218
0.490400	-0.056366
0.490500	-0.005406
0.490600	0.033543
0.490700	0.022183
0.490800	0.066651
0.490900	0.087424
0.491000	0.082880
0.491100	0.069247
0.491200	0.002059
0.491300	0.046202
0.491400	0.090994
0.491500	0.210765
0.491600	0.210116
0.491700	0.105925
0.491800	-0.132318
0.491900	-0.097912
0.492000	0.035491
0.492100	0.320798
0.492200	0.289963
0.492300	0.151691
0.492400	-0.069998
0.492500	-0.084280
0.492600	0.065677
0.492700	0.267567
0.492800	0.306192
0.492900	0.227643
0.493000	0.061133
0.493100	0.045553
0.493200	-0.019688
0.493300	0.067949
0.493400	0.008875
0.493500	-0.054094
0.493600	-0.121931
0.493700	-0.132642
0.493800	-0.134265
0.493900	-0.191716
0.494000	-0.262800
0.494100	-0.294609
0.494200	-0.282275
0.494300	-0.282599
0.494400	-0.297205
0.494500	-0.426389
0.494600	-0.531878
0.494700	-0.594847
0.494800	-0.597768
0.494900	-0.502990
0.495000	-0.608804
0.495100	-0.633147
0.495200	-0.663009
0.495300	-0.672746
0.495400	-0.688976
0.495500	-0.714942
0.495600	-0.749023
0.495700	-0.754541
0.495800	-0.777911
0.495900	-0.788298
0.496000	-0.820431
0.496100	-0.802579
0.496200	-0.846073
0.496300	-0.824975
0.496400	-0.890866
0.496500	-0.898331
0.496600	-0.959352
0.496700	-0.948317
0.496800	-1.019400
0.496900	-1.252775
0.497000	-1.442980
0.497100	-1.456937
0.497200	-1.258617
0.497300	-1.125863
0.497400	-1.176498
0.497500	-1.452717
0.497600	-1.677978
0.497700	-1.788336
0.497800	-1.648116
0.497900	-1.559180
0.498000	-1.528994
0.498100	-1.711410
0.498200	-1.814302
0.498300	-1.902589
0.498400	-1.914274
0.498500	-1.863314
0.498600	-1.829558
0.498700	-1.837672
0.498800	-1.854226
0.498900	-1.864288
0.499000	-1.867859
0.499100	-1.848708
0.499200	-1.878570
0.499300	-1.974322
0.499400	-1.960040
0.499500	-1.921739
0.499600	-1.888956
0.499700	-1.947381
0.499800	-2.004833
0.499900	-1.973023
0.500000	-1.837023
0.500100	-1.684794
0.500200	-1.768861
0.500300	-1.905510
0.500400	-2.065854
0.500500	-2.092470
0.500600	-1.932126
0.500700	-1.749710
0.500800	-1.720823
0.500900	-1.863964
0.501000	-2.067477
0.501100	-2.158036
0.501200	-2.087926
0.501300	-1.957768
0.501400	-1.901940
0.501500	-1.899018
0.501600	-1.938293
0.501700	-1.966532
0.501800	-1.972050
0.501900	-1.936021
0.502000	-1.923687
0.502100	-1.883114
0.502200	-1.848708
0.502300	-1.788336
0.502400	-1.676030
0.502500	-1.626369
0.502600	-1.610140
0.502700	-1.627992
0.502800	-1.534837
0.502900	-1.359238
0.503000	-1.200192
0.503100	-1.086913
0.503200	-1.096651
0.503300	-1.086264
0.503400	-1.054779
0.503500	-0.992460
0.503600	-0.892813
0.503700	-0.807123
0.503800	-0.780508
0.503900	-0.814264
0.504000	-0.787324
0.504100	-0.850617
0.504200	-0.797710
0.504300	-0.884374
0.504400	-0.854837
0.504500	-0.866846
0.504600	-0.876259
0.504700	-0.930140
0.504800	-1.001223
0.504900	-1.021023
0.505000	-1.092756
0.505100	-1.084316
0.505200	-0.870417
0.505300	-0.722083
0.505400	-0.611725
0.505500	-1.021023
0.505600	-1.137873
0.505700	-1.274522
0.505800	-0.983696
0.505900	-0.829520
0.506000	-0.738961
0.506100	-0.787324
0.506200	-0.986942
0.506300	-1.030436
0.506400	-0.961949
0.506500	-0.905147
0.506600	-0.807773
0.506700	-0.830493
0.506800	-0.863276
0.506900	-0.941825
0.507000	-0.909042
0.507100	-0.914235
0.507200	-0.928192
0.507300	-0.972985
0.507400	-0.972336
0.507500	-0.911639
0.507600	-0.961300
0.507700	-1.039524
0.507800	-1.043744
0.507900	-1.160269
0.508000	-1.133978
0.508100	-1.089834
0.508200	-1.019075
0.508300	-1.057052
0.508400	-1.344956
0.508500	-1.493615
0.508600	-1.434216
0.508700	-1.293023
0.508800	-1.083992
0.508900	-1.260240
0.509000	-1.453367
0.509100	-1.616307
0.509200	-1.549118
0.509300	-1.383906
0.509400	-1.249204
0.509500	-1.292374
0.509600	-1.423505
0.509700	-1.509195
0.509800	-1.495238
0.509900	-1.503677
0.510000	-1.419935
0.510100	-1.491343
0.510200	-1.518608
0.510300	-1.561777
0.510400	-1.515037
0.510500	-1.503677
0.510600	-1.522178
0.510700	-1.581901
0.510800	-1.583849
0.510900	-1.541978
0.511000	-1.507896
0.511100	-1.494588
0.511200	-1.591639
0.511300	-1.619228
0.511400	-1.608517
0.511500	-1.524450
0.511600	-1.378388
0.511700	-1.389099
0.511800	-1.353720
0.511900	-1.322235
0.512000	-1.271925
0.512100	-1.237844
0.512200	-1.201166
0.512300	-1.184288
0.512400	-1.130407
0.512500	-1.112880
0.512600	-1.088861
0.512700	-1.077176
0.512800	-1.040173
0.512900	-1.048288
0.513000	-1.043744
0.513100	-1.070684
0.513200	-1.079772
0.513300	-1.107362
0.513400	-1.165137
0.513500	-1.281662
0.513600	-1.547820
0.513700	-1.702970
0.513800	-1.660775
0.513900	-1.485500
0.514000	-1.406627
0.514100	-1.630264
0.514200	-1.924985
0.514300	-2.150895
0.514400	-2.205425
0.514500	-2.096040
0.514600	-2.042160
0.514700	-2.124928
0.514800	-2.316757
0.514900	-2.503717
0.515000	-2.547536
0.515100	-2.560844
0.515200	-2.587784
0.515300	-2.604338
0.515400	-2.660815
0.515500	-2.733198
0.515600	-2.752348
0.515700	-2.768577
0.515800	-2.800062
0.515900	-2.912043
0.516000	-3.054536
0.516100	-3.048044
0.516200	-3.059729
0.516300	-3.090565
0.516400	-3.163272
0.516500	-3.231759
0.516600	-3.254480
0.516700	-3.086020
0.516800	-3.004874
0.516900	-3.131462
0.517000	-3.326862
0.517100	-3.493374
0.517200	-3.447608
0.517300	-3.265191
0.517400	-3.095433
0.517500	-3.137954
0.517600	-3.363865
0.517700	-3.569652
0.517800	-3.595943
0.517900	-3.470978
0.518000	-3.288237
0.518100	-3.262270
0.518200	-3.283043
0.518300	-3.346013
0.518400	-3.349583
0.518500	-3.320695
0.518600	-3.273630
0.518700	-3.230136
0.518800	-3.203195
0.518900	-3.179176
0.519000	-3.032464
0.519100	-2.934440
0.519200	-2.906201
0.519300	-2.889647
0.519400	-2.867900
0.519500	-2.712424
0.519600	-2.564739
0.519700	-2.336881
0.519800	-2.290790
0.519900	-2.287869
0.520000	-2.221979
0.520100	-2.160632
0.520200	-2.069749
0.520300	-1.921090
0.520400	-1.835725
0.520500	-1.800994
0.520600	-1.785415
0.520700	-1.766264
0.520800	-1.714006
0.520900	-1.721147
0.521000	-1.671486
0.521100	-1.579305
0.521200	-1.559180
0.521300	-1.473166
0.521400	-1.507896
0.521500	-1.458560
0.521600	-1.564698
0.521700	-1.364431
0.521800	-1.358913
0.521900	-1.037577
0.522000	-0.848021
0.522100	-0.885023
0.522200	-1.258942
0.522300	-1.268679
0.522400	-1.244985
0.522500	-0.920078
0.522600	-0.794140
0.522700	-0.725004
0.522800	-0.936307
0.522900	-1.057376
0.523000	-1.078799
0.523100	-0.889243
0.523200	-0.686703
0.523300	-0.695467
0.523400	-0.710073
0.523500	-0.803553
0.523600	-0.823028
0.523700	-0.803228
0.523800	-0.760059
0.523900	-0.749672
0.524000	-0.723057
0.524100	-0.741233
0.524200	-0.726302
0.524300	-0.702608
0.524400	-0.790570
0.524500	-0.775314
0.524600	-0.809720
0.524700	-0.775314
0.524800	-0.792842
0.524900	-0.695792
0.525000	-0.841854
0.525100	-1.074579
0.525200	-1.072956
0.525300	-1.013233
0.525400	-0.817510
0.525500	-0.813290
0.525600	-0.941825
0.525700	-1.164813
0.525800	-1.266083
0.525900	-1.182016
0.526000	-0.970064
0.526100	-0.871066
0.526200	-0.943448
0.526300	-1.076526
0.526400	-1.091782
0.526500	-1.121319
0.526600	-1.067763
0.526700	-1.026865
0.526800	-1.095677
0.526900	-1.132679
0.527000	-1.193701
0.527100	-1.132030
0.527200	-1.086589
0.527300	-1.117748
0.527400	-1.181367
0.527500	-1.162216
0.527600	-1.184612
0.527700	-1.175849
0.527800	-1.273548
0.527900	-1.416040
0.528000	-1.473166
0.528100	-1.478359
0.528200	-1.449796
0.528300	-1.406627
0.528400	-1.427725
0.528500	-1.424154
0.528600	-1.427400
0.528700	-1.431944
0.528800	-1.427400
0.528900	-1.450121
0.529000	-1.446875
0.529100	-1.467973
0.529200	-1.444278
0.529300	-1.475114
0.529400	-1.513414
0.529500	-1.517958
0.529600	-1.567620
0.529700	-1.590665
0.529800	-1.654608
0.529900	-1.696479
0.530000	-1.709787
0.530100	-1.740622
0.530200	-1.927906
0.530300	-2.164527
0.530400	-2.205425
0.530500	-2.034694
0.530600	-1.868832
0.530700	-1.922388
0.530800	-2.171019
0.530900	-2.431010
0.531000	-2.564739
0.531100	-2.416404
0.531200	-2.292738
0.531300	-2.240155
0.531400	-2.401149
0.531500	-2.593627
0.531600	-2.696520
0.531700	-2.703011
0.531800	-2.634200
0.531900	-2.625436
0.532000	-2.637445
0.532100	-2.681913
0.532200	-2.681589
0.532300	-2.703985
0.532400	-2.718267
0.532500	-2.739689
0.532600	-2.826353
0.532700	-2.846802
0.532800	-2.831547
0.532900	-2.842907
0.533000	-2.851995
0.533100	-2.925676
0.533200	-2.936387
0.533300	-2.832845
0.533400	-2.727030
0.533500	-2.709828
0.533600	-2.829599
0.533700	-3.009419
0.533800	-3.125295
0.533900	-3.029867
0.534000	-2.859461
0.534100	-2.804931
0.534200	-2.914315
0.534300	-3.128216
0.534400	-3.329459
0.534500	-3.330757
0.534600	-3.210336
0.534700	-3.123672
0.534800	-3.076283
0.534900	-3.145744
0.535000	-3.157429
0.535100	-3.175281
0.535200	-3.139252
0.535300	-3.091214
0.535400	-3.056483
0.535500	-2.977285
0.535600	-2.873418
0.535700	-2.748453
0.535800	-2.682887
0.535900	-2.678343
0.536000	-2.671527
0.536100	-2.617646
0.536200	-2.419001
0.536300	-2.315459
0.536400	-2.098962
0.536500	-2.133367
0.536600	-2.100584
0.536700	-2.007105
0.536800	-1.926608
0.536900	-1.821119
0.537000	-1.679601
0.537100	-1.613061
0.537200	-1.574436
0.537300	-1.562426
0.537400	-1.577032
0.537500	-1.578331
0.537600	-1.579305
0.537700	-1.557557
0.537800	-1.503028
0.537900	-1.529643
0.538000	-1.493939
0.538100	-1.557557
0.538200	-1.531915
0.538300	-1.593262
0.538400	-1.495238
0.538500	-1.370273
0.538600	-1.102818
0.538700	-0.991486
0.538800	-1.277767
0.538900	-1.495562
0.539000	-1.504975
0.539100	-1.293672
0.539200	-1.083992
0.539300	-0.945395
0.539400	-1.020049
0.539500	-1.135925
0.539600	-1.208956
0.539700	-1.124240
0.539800	-1.000250
0.539900	-0.903200
0.540000	-0.861329
0.540100	-0.905147
0.540200	-0.916183
0.540300	-0.844450
0.540400	-0.854188
0.540500	-0.828546
0.540600	-0.825300
0.540700	-0.803228
0.540800	-0.798360
0.540900	-0.818159
0.541000	-0.836985
0.541100	-0.895734
0.541200	-0.980450
0.541300	-0.989538
0.541400	-0.946044
0.541500	-0.920727
0.541600	-0.899305
0.541700	-1.078474
0.541800	-1.235572
0.541900	-1.219667
0.542000	-1.029787
0.542100	-0.843801
0.542200	-0.877558
0.542300	-1.069386
0.542400	-1.272250
0.542500	-1.241739
0.542600	-1.088211
0.542700	-0.918455
0.542800	-0.879181
0.542900	-1.019400
0.543000	-1.132679
0.543100	-1.121643
0.543200	-1.138522
0.543300	-1.085615
0.543400	-1.184612
0.543500	-1.223238
0.543600	-1.297242
0.543700	-1.308278
0.543800	-1.270302
0.543900	-1.349825
0.544000	-1.383906
0.544100	-1.412794
0.544200	-1.399161
0.544300	-1.382283
0.544400	-1.376116
0.544500	-1.504975
0.544600	-1.609815
0.544700	-1.652660
0.544800	-1.612087
0.544900	-1.503677
0.545000	-1.569242
0.545100	-1.585472
0.545200	-1.555285
0.545300	-1.546197
0.545400	-1.552040
0.545500	-1.504651
0.545600	-1.505624
0.545700	-1.466025
0.545800	-1.463753
0.545900	-1.463104
0.546000	-1.464078
0.546100	-1.435839
0.546200	-1.454016
0.546300	-1.431295
0.546400	-1.485176
0.546500	-1.467324
0.546600	-1.551715
0.546700	-1.551715
0.546800	-1.699725
0.546900	-1.941539
0.547000	-2.135964
0.547100	-2.085654
0.547200	-1.889606
0.547300	-1.730885
0.547400	-1.934073
0.547500	-2.202828
0.547600	-2.461846
0.547700	-2.503717
0.547800	-2.331039
0.547900	-2.221329
0.548000	-2.293387
0.548100	-2.505340
0.548200	-2.660815
0.548300	-2.714696
0.548400	-2.656271
0.548500	-2.622839
0.548600	-2.643612
0.548700	-2.660491
0.548800	-2.720863
0.548900	-2.743909
0.549000	-2.724434
0.549100	-2.717942
0.549200	-2.752997
0.549300	-2.808826
0.549400	-2.883155
0.549500	-2.781561
0.549600	-2.780262
0.549700	-2.833169
0.549800	-2.843232
0.549900	-2.824730
0.550000	-2.618944
0.550100	-2.545588
0.550200	-2.566037
0.550300	-2.690677
0.550400	-2.856864
0.550500	-2.833494
0.550600	-2.663737
0.550700	-2.421922
0.550800	-2.402122
0.550900	-2.551755
0.551000	-2.752997
0.551100	-2.817589
0.551200	-2.709178
0.551300	-2.579994
0.551400	-2.504691
0.551500	-2.492357
0.551600	-2.559870
0.551700	-2.572853
0.551800	-2.556624
0.551900	-2.516700
0.552000	-2.465091
0.552100	-2.423220
0.552200	-2.336232
0.552300	-2.226198
0.552400	-2.147000
0.552500	-2.098637
0.552600	-2.105129
0.552700	-2.099935
0.552800	-1.968804
0.552900	-1.820794
0.553000	-1.756851
0.553100	-1.577357
0.553200	-1.606569
0.553300	-1.570216
0.553400	-1.527047
0.553500	-1.488421
0.553600	-1.362808
0.553700	-1.259591
0.553800	-1.221939
0.553900	-1.227782
0.554000	-1.251801
0.554100	-1.232651
0.554200	-1.268030
0.554300	-1.247906
0.554400	-1.270951
0.554500	-1.245958
0.554600	-1.228756
0.554700	-1.239467
0.554800	-1.265109
0.554900	-1.302436
0.555000	-1.300164
0.555100	-1.235572
0.555200	-1.123266
0.555300	-0.820756
0.555400	-0.907095
0.555500	-1.150531
0.555600	-1.464727
0.555700	-1.303734
0.555800	-1.112555
0.555900	-0.876259
0.556000	-0.825625
0.556100	-0.935009
0.556200	-1.128784
0.556300	-1.148908
0.556400	-1.010636
0.556500	-0.901577
0.556600	-0.749023
0.556700	-0.861329
0.556800	-0.835687
0.556900	-0.915534
0.557000	-0.913262
0.557100	-0.914235
0.557200	-0.870092
0.557300	-0.867496
0.557400	-0.887944
0.557500	-0.833090
0.557600	-0.890216
0.557700	-0.961624
0.557800	-0.998627
0.557900	-1.014531
0.558000	-1.010312
0.558100	-0.933386
0.558200	-0.869119
0.558300	-0.915858
0.558400	-1.147935
0.558500	-1.263486
0.558600	-1.224536
0.558700	-1.014856
0.558800	-0.926894
0.558900	-1.017453
0.559000	-1.261863
0.559100	-1.395591
0.559200	-1.378388
0.559300	-1.162541
0.559400	-1.035305
0.559500	-1.040173
0.559600	-1.198894
0.559700	-1.284259
0.559800	-1.282636
0.559900	-1.295619
0.560000	-1.227457
0.560100	-1.299839
0.560200	-1.321261
0.560300	-1.359887
0.560400	-1.363782
0.560500	-1.366703
0.560600	-1.417987
0.560700	-1.408899
0.560800	-1.402083
0.560900	-1.395266
0.561000	-1.362159
0.561100	-1.376116
0.561200	-1.512116
0.561300	-1.573787
0.561400	-1.604297
0.561500	-1.432593
0.561600	-1.466350
0.561700	-1.479982
0.561800	-1.464727
0.561900	-1.466025
0.562000	-1.436164
0.562100	-1.435839
0.562200	-1.419610
0.562300	-1.405004
0.562400	-1.399810
0.562500	-1.353395
0.562600	-1.366378
0.562700	-1.378388
0.562800	-1.378388
0.562900	-1.372870
0.563000	-1.388125
0.563100	-1.395266
0.563200	-1.370923
0.563300	-1.387152
0.563400	-1.386503
0.563500	-1.506598
0.563600	-1.765940
0.563700	-1.894474
0.563800	-1.744517
0.563900	-1.564698
0.564000	-1.471219
0.564100	-1.627992
0.564200	-1.921415
0.564300	-2.082732
0.564400	-2.028527
0.564500	-1.925959
0.564600	-1.797749
0.564700	-1.895123
0.564800	-2.093768
0.564900	-2.241454
0.565000	-2.257034
0.565100	-2.257358
0.565200	-2.226523
0.565300	-2.238857
0.565400	-2.251840
0.565500	-2.297282
0.565600	-2.369339
0.565700	-2.386867
0.565800	-2.454380
0.565900	-2.533579
0.566000	-2.604987
0.566100	-2.628682
0.566200	-2.629331
0.566300	-2.671851
0.566400	-2.748128
0.566500	-2.797465
0.566600	-2.704310
0.566700	-2.579994
0.566800	-2.525789
0.566900	-2.633550
0.567000	-2.836091
0.567100	-2.979557
0.567200	-2.901007
0.567300	-2.707231
0.567400	-2.585837
0.567500	-2.635173
0.567600	-2.868549
0.567700	-3.103223
0.567800	-3.099004
0.567900	-2.982803
0.568000	-2.910745
0.568100	-2.864005
0.568200	-2.897112
0.568300	-2.920158
0.568400	-2.932168
0.568500	-2.928273
0.568600	-2.904578
0.568700	-2.861733
0.568800	-2.801685
0.568900	-2.696195
0.569000	-2.574476
0.569100	-2.532280
0.569200	-2.511832
0.569300	-2.495927
0.569400	-2.471259
0.569500	-2.300528
0.569600	-2.201530
0.569700	-2.128499
0.569800	-1.957119
0.569900	-1.971076
0.570000	-1.886360
0.570100	-1.843839
0.570200	-1.767887
0.570300	-1.641949
0.570400	-1.590665
0.570500	-1.554636
0.570600	-1.558531
0.570700	-1.538083
0.570800	-1.485825
0.570900	-1.524450
0.571000	-1.490369
0.571100	-1.463429
0.571200	-1.496211
0.571300	-1.410197
0.571400	-1.500106
0.571500	-1.400460
0.571600	-1.540355
0.571700	-1.351448
0.571800	-1.298541
0.571900	-0.995706
0.572000	-0.805176
0.572100	-0.911639
0.572200	-1.240116
0.572300	-1.302111
0.572400	-1.143390
0.572500	-0.932737
0.572600	-0.721434
0.572700	-0.692871
0.572800	-0.850617
0.572900	-0.845749
0.573000	-0.835362
0.573100	-0.745777
0.573200	-0.594847
0.573300	-0.497797
0.573400	-0.529606
0.573500	-0.561415
0.573600	-0.488384
0.573700	-0.512403
0.573800	-0.468260
0.573900	-0.461119
0.574000	-0.443267
0.574100	-0.421196
0.574200	-0.397826
0.574300	-0.400747
0.574400	-0.473453
0.574500	-0.420222
0.574600	-0.480594
0.574700	-0.414379
0.574800	-0.395878
0.574900	-0.312785
0.575000	-0.540966
0.575100	-0.687353
0.575200	-0.682808
0.575300	-0.587057
0.575400	-0.308890
0.575500	-0.338103
0.575600	-0.469558
0.575700	-0.683782
0.575800	-0.710723
0.575900	-0.610427
0.576000	-0.429959
0.576100	-0.378351
0.576200	-0.448136
0.576300	-0.556546
0.576400	-0.565959
0.576500	-0.538694
0.576600	-0.488709
0.576700	-0.484489
0.576800	-0.522790
0.576900	-0.542265
0.577000	-0.515973
0.577100	-0.469558
0.577200	-0.475401
0.577300	-0.511429
0.577400	-0.526360
0.577500	-0.500069
0.577600	-0.478322
0.577700	-0.430284
0.577800	-0.478322
0.577900	-0.571801
0.578000	-0.583486
0.578100	-0.596470
0.578200	-0.534475
0.578300	-0.470532
0.578400	-0.470532
0.578500	-0.445864
0.578600	-0.454627
0.578700	-0.447162
0.578800	-0.437749
0.578900	-0.465988
0.579000	-0.455926
0.579100	-0.475076
0.579200	-0.470532
0.579300	-0.473129
0.579400	-0.477997
0.579500	-0.483515
0.579600	-0.502341
0.579700	-0.506236
0.579800	-0.550704
0.579900	-0.553949
0.580000	-0.667878
0.580100	-0.732470
0.580200	-0.972660
0.580300	-1.218693
0.580400	-1.230378
0.580500	-1.078474
0.580600	-0.893138
0.580700	-0.930465
0.580800	-1.167734
0.580900	-1.491018
0.581000	-1.537758
0.581100	-1.435190
0.581200	-1.279066
0.581300	-1.235572
0.581400	-1.385204
0.581500	-1.539056
0.581600	-1.633834
0.581700	-1.576708
0.581800	-1.518608
0.581900	-1.526398
0.582000	-1.596832
0.582100	-1.689013
0.582200	-1.743868
0.582300	-1.772756
0.582400	-1.822417
0.582500	-1.881491
0.582600	-1.965883
0.582700	-2.037615
0.582800	-2.031448
0.582900	-2.022685
0.583000	-2.080136
0.583100	-2.152193
0.583200	-2.178160
0.583300	-2.023009
0.583400	-1.934723
0.583500	-1.955496
0.583600	-2.092794
0.583700	-2.271964
0.583800	-2.371287
0.583900	-2.264824
0.584000	-2.102857
0.584100	-2.058064
0.584200	-2.195363
0.584300	-2.440099
0.584400	-2.601741
0.584500	-2.589407
0.584600	-2.479373
0.584700	-2.407640
0.584800	-2.411211
0.584900	-2.455029
0.585000	-2.511507
0.585100	-2.503717
0.585200	-2.527412
0.585300	-2.480347
0.585400	-2.463469
0.585500	-2.414132
0.585600	-2.326170
0.585700	-2.227496
0.585800	-2.127200
0.585900	-2.139210
0.586000	-2.184002
0.586100	-2.105778
0.586200	-1.918169
0.586300	-1.835400
0.586400	-1.583200
0.586500	-1.601701
0.586600	-1.553663
0.586700	-1.501405
0.586800	-1.400135
0.586900	-1.271276
0.587000	-1.151180
0.587100	-1.112231
0.587200	-1.082044
0.587300	-1.048612
0.587400	-1.047639
0.587500	-1.042770
0.587600	-1.076526
0.587700	-1.000250
0.587800	-1.027190
0.587900	-0.922350
0.588000	-1.013558
0.588100	-0.980450
0.588200	-1.094703
0.588300	-1.034331
0.588400	-1.022321
0.588500	-0.831142
0.588600	-0.589978
0.588700	-0.530255
0.588800	-0.798035
0.588900	-0.997653
0.589000	-1.012584
0.589100	-0.913911
0.589200	-0.598093
0.589300	-0.568880
0.589400	-0.624059
0.589500	-0.741558
0.589600	-0.788298
0.589700	-0.725653
0.589800	-0.583486
0.589900	-0.502990
0.590000	-0.518895
0.590100	-0.569529
0.590200	-0.597119
0.590300	-0.512403
0.590400	-0.458847
0.590500	-0.448460
0.590600	-0.405291
0.590700	-0.394904
0.590800	-0.333883
0.590900	-0.369587
0.591000	-0.282924
0.591100	-0.407563
0.591200	-0.402694
0.591300	-0.462742
0.591400	-0.357253
0.591500	-0.296881
0.591600	-0.273186
0.591700	-0.468909
0.591800	-0.625033
0.591900	-0.567906
0.592000	-0.414379
0.592100	-0.240728
0.592200	-0.319277
0.592300	-0.486761
0.592400	-0.654245
0.592500	-0.656193
0.592600	-0.477348
0.592700	-0.308890
0.592800	-0.290389
0.592900	-0.367964
0.593000	-0.496823
0.593100	-0.459172
0.593200	-0.487086
0.593300	-0.370885
0.593400	-0.425090
0.593500	-0.444241
0.593600	-0.498771
0.593700	-0.491305
0.593800	-0.471181
0.593900	-0.517272
0.594000	-0.544861
0.594100	-0.546484
0.594200	-0.522465
0.594300	-0.491305
0.594400	-0.462093
0.594500	-0.606532
0.594600	-0.687353
0.594700	-0.683782
0.594800	-0.552976
0.594900	-0.505587
0.595000	-0.580241
0.595100	-0.577319
0.595200	-0.568231
0.595300	-0.559143
0.595400	-0.549730
0.595500	-0.547458
0.595600	-0.582837
0.595700	-0.594198
0.595800	-0.585434
0.595900	-0.598093
0.596000	-0.584785
0.596100	-0.596470
0.596200	-0.613997
0.596300	-0.634446
0.596400	-0.681186
0.596500	-0.661061
0.596600	-0.712345
0.596700	-0.690923
0.596800	-0.845424
0.596900	-1.034006
0.597000	-1.209605
0.597100	-1.141118
0.597200	-0.995706
0.597300	-0.886321
0.597400	-0.986942
0.597500	-1.257643
0.597600	-1.460507
0.597700	-1.428049
0.597800	-1.312822
0.597900	-1.193376
0.598000	-1.275495
0.598100	-1.407925
0.598200	-1.541978
0.598300	-1.539381
0.598400	-1.490694
0.598500	-1.455314
0.598600	-1.482254
0.598700	-1.504326
0.598800	-1.539705
0.598900	-1.576708
0.599000	-1.603973
0.599100	-1.635782
0.599200	-1.704918
0.599300	-1.730560
0.599400	-1.748737
0.599500	-1.757825
0.599600	-1.813329
0.599700	-1.862990
0.599800	-1.889930
0.599900	-1.861042
0.600000	-1.687391
0.600100	-1.627992
0.600200	-1.719200
0.600300	-1.874675
0.600400	-2.030150
0.600500	-2.030150
0.600600	-1.877596
0.600700	-1.712059
0.600800	-1.705567
0.600900	-1.888956
0.601000	-2.068451
0.601100	-2.136938
0.601200	-2.013596
0.601300	-1.871754
0.601400	-1.815276
0.601500	-1.826961
0.601600	-1.870455
0.601700	-1.861691
0.601800	-1.837023
0.601900	-1.798398
0.602000	-1.753605
0.602100	-1.724068
0.602200	-1.639677
0.602300	-1.504651
0.602400	-1.417662
