LabVIEW Measurement	
Writer_Version	2
Reader_Version	2
Separator	Tab
Decimal_Separator	.
Multi_Headings	Yes
X_Columns	One
Time_Pref	Relative
Operator	as989
Description	Time Domain Data
Date	1903/12/31
Time	19:00:00
***End_of_Header***	
	
Channels	1	
Samples	15000	
Date	1903/12/31	
Time	19:00:00	
X_Dimension	Time	
X0	0.0000000000000000E+0	
Delta_X	0.000100	
***End_of_Header***		
X_Value	Untitled	Comment
0.000000	-1.441032	Tare Values:0.000000, 0.000000, 0.000000, 0.000000\0D\0A
0.000100	-1.401758
0.000200	-1.364106
0.000300	-1.319963
0.000400	-1.271276
0.000500	-1.217395
0.000600	-1.191753
0.000700	-1.188507
0.000800	-1.167409
0.000900	-1.164813
0.001000	-1.157023
0.001100	-1.146312
0.001200	-1.129433
0.001300	-1.134302
0.001400	-1.097624
0.001500	-1.112555
0.001600	-1.093729
0.001700	-1.116450
0.001800	-1.109958
0.001900	-1.094054
0.002000	-1.008040
0.002100	-0.892813
0.002200	-0.860030
0.002300	-0.946694
0.002400	-1.063868
0.002500	-1.056727
0.002600	-0.963896
0.002700	-0.876259
0.002800	-0.815238
0.002900	-0.880479
0.003000	-0.932412
0.003100	-0.995056
0.003200	-0.920078
0.003300	-0.855811
0.003400	-0.802904
0.003500	-0.794789
0.003600	-0.790570
0.003700	-0.842827
0.003800	-0.838608
0.003900	-0.817510
0.004000	-0.812641
0.004100	-0.797386
0.004200	-0.806799
0.004300	-0.805825
0.004400	-0.788947
0.004500	-0.808097
0.004600	-0.803878
0.004700	-0.836985
0.004800	-0.824651
0.004900	-0.824651
0.005000	-0.805176
0.005100	-0.814264
0.005200	-0.899629
0.005300	-0.940202
0.005400	-0.915209
0.005500	-0.843152
0.005600	-0.749348
0.005700	-0.777586
0.005800	-0.875610
0.005900	-0.953185
0.006000	-0.931763
0.006100	-0.865224
0.006200	-0.447162
0.006300	-0.169969
0.006400	-0.302723
0.006500	-0.530580
0.006600	-0.378026
0.006700	-0.243974
0.006800	0.195510
0.006900	0.180579
0.007000	0.147472
0.007100	0.004980
0.007200	0.176684
0.007300	0.289963
0.007400	0.413953
0.007500	0.522363
0.007600	0.649924
0.007700	0.753141
0.007800	0.989112
0.007900	0.961522
0.008000	0.726850
0.008100	0.590850
0.008200	0.552874
0.008300	0.912835
0.008400	0.926792
0.008500	0.928739
0.008600	1.012157
0.008700	0.928090
0.008800	0.967689
0.008900	1.036176
0.009000	1.028711
0.009100	1.058897
0.009200	1.063441
0.009300	1.174448
0.009400	1.183211
0.009500	1.187756
0.009600	1.101417
0.009700	1.193923
0.009800	1.195870
0.009900	1.203985
0.010000	1.088758
0.010100	1.004692
0.010200	0.894983
0.010300	0.320798
0.010400	-0.685405
0.010500	-1.308603
0.010600	-0.986617
0.010700	-0.600365
0.010800	-0.392308
0.010900	-0.826274
0.011000	-1.227133
0.011100	-1.324183
0.011200	-1.342684
0.011300	-1.287180
0.011400	-1.261538
0.011500	-1.278741
0.011600	-1.363457
0.011700	-1.447199
0.011800	-1.468297
0.011900	-1.487123
0.012000	-1.439409
0.012100	-1.452393
0.012200	-1.475114
0.012300	-1.511791
0.012400	-1.545548
0.012500	-1.570216
0.012600	-1.604947
0.012700	-1.625071
0.012800	-1.656555
0.012900	-1.675381
0.013000	-1.691610
0.013100	-1.713033
0.013200	-1.750035
0.013300	-1.764317
0.013400	-1.769185
0.013500	-1.696479
0.013600	-1.659152
0.013700	-1.693233
0.013800	-1.778274
0.013900	-1.857796
0.014000	-1.864288
0.014100	-1.791906
0.014200	-1.721472
0.014300	-1.744517
0.014400	-1.801968
0.014500	-1.887009
0.014600	-1.918818
0.014700	-1.887009
0.014800	-1.845138
0.014900	-1.809109
0.015000	-1.811706
0.015100	-1.846761
0.015200	-1.852928
0.015300	-1.864288
0.015400	-1.863314
0.015500	-1.852928
0.015600	-1.837023
0.015700	-1.803916
0.015800	-1.771133
0.015900	-1.744192
0.016000	-1.724718
0.016100	-1.723095
0.016200	-1.719849
0.016300	-1.678951
0.016400	-1.624097
0.016500	-1.570541
0.016600	-1.505300
0.016700	-1.499457
0.016800	-1.487772
0.016900	-1.441032
0.017000	-1.386178
0.017100	-1.326455
0.017200	-1.288479
0.017300	-1.249529
0.017400	-1.247581
0.017500	-1.219343
0.017600	-1.208307
0.017700	-1.217395
0.017800	-1.189806
0.017900	-1.182340
0.018000	-1.153777
0.018100	-1.149882
0.018200	-1.138846
0.018300	-1.176173
0.018400	-1.152803
0.018500	-1.162541
0.018600	-1.119047
0.018700	-1.032708
0.018800	-0.924297
0.018900	-0.973959
0.019000	-1.071009
0.019100	-1.122293
0.019200	-1.083343
0.019300	-1.009987
0.019400	-0.883725
0.019500	-0.865224
0.019600	-0.918780
0.019700	-0.974932
0.019800	-0.975257
0.019900	-0.914235
0.020000	-0.846722
0.020100	-0.808097
0.020200	-0.785376
0.020300	-0.801605
0.020400	-0.815887
0.020500	-0.842178
0.020600	-0.821080
0.020700	-0.799333
0.020800	-0.794465
0.020900	-0.789271
0.021000	-0.755190
0.021100	-0.762006
0.021200	-0.792193
0.021300	-0.787973
0.021400	-0.813940
0.021500	-0.799983
0.021600	-0.776613
0.021700	-0.774665
0.021800	-0.824651
0.021900	-0.925271
0.022000	-0.939228
0.022100	-0.902875
0.022200	-0.781157
0.022300	-0.769472
0.022400	-0.814264
0.022500	-0.910016
0.022600	-0.945395
0.022700	-0.902875
0.022800	-0.658140
0.022900	-0.164451
0.023000	-0.148871
0.023100	-0.393606
0.023200	-0.416002
0.023300	-0.283897
0.023400	-0.119335
0.023500	0.080608
0.023600	0.160779
0.023700	0.208168
0.023800	0.097811
0.023900	0.353581
0.024000	0.264646
0.024100	0.262373
0.024200	0.255233
0.024300	0.490879
0.024400	0.774239
0.024500	0.830716
0.024600	0.690821
0.024700	0.383118
0.024800	0.275357
0.024900	0.386039
0.025000	0.827145
0.025100	0.726850
0.025200	0.654468
0.025300	0.604158
0.025400	0.608377
0.025500	0.626879
0.025600	0.560664
0.025700	0.579490
0.025800	0.596368
0.025900	0.602860
0.026000	0.636616
0.026100	0.710621
0.026200	0.738859
0.026300	0.761255
0.026400	0.655442
0.026500	0.699585
0.026600	0.625905
0.026700	0.530802
0.026800	0.238679
0.026900	0.077687
0.027000	-0.620813
0.027100	-1.292698
0.027200	-1.313472
0.027300	-1.253748
0.027400	-1.058999
0.027500	-1.103467
0.027600	-1.276145
0.027700	-1.416689
0.027800	-1.490369
0.027900	-1.462455
0.028000	-1.405653
0.028100	-1.397863
0.028200	-1.466350
0.028300	-1.548469
0.028400	-1.615658
0.028500	-1.631238
0.028600	-1.618579
0.028700	-1.631562
0.028800	-1.653634
0.028900	-1.684469
0.029000	-1.713682
0.029100	-1.738999
0.029200	-1.757500
0.029300	-1.783792
0.029400	-1.805863
0.029500	-1.848059
0.029600	-1.859744
0.029700	-1.842216
0.029800	-1.870455
0.029900	-1.909405
0.030000	-1.927582
0.030100	-1.890579
0.030200	-1.829882
0.030300	-1.818847
0.030400	-1.872727
0.030500	-1.973348
0.030600	-2.038589
0.030700	-1.999315
0.030800	-1.917844
0.030900	-1.868508
0.031000	-1.891878
0.031100	-1.991200
0.031200	-2.064231
0.031300	-2.092794
0.031400	-2.053520
0.031500	-2.013921
0.031600	-1.986007
0.031700	-2.006780
0.031800	-2.024307
0.031900	-2.024632
0.032000	-2.020088
0.032100	-2.017167
0.032200	-2.022035
0.032300	-1.987954
0.032400	-1.955496
0.032500	-1.910379
0.032600	-1.878245
0.032700	-1.858770
0.032800	-1.858770
0.032900	-1.829558
0.033000	-1.770159
0.033100	-1.715305
0.033200	-1.625071
0.033300	-1.604622
0.033400	-1.584498
0.033500	-1.569242
0.033600	-1.539381
0.033700	-1.491667
0.033800	-1.433892
0.033900	-1.404679
0.034000	-1.384230
0.034100	-1.372870
0.034200	-1.346579
0.034300	-1.343009
0.034400	-1.353071
0.034500	-1.318016
0.034600	-1.311849
0.034700	-1.293997
0.034800	-1.265109
0.034900	-1.270951
0.035000	-1.241414
0.035100	-1.269653
0.035200	-1.240116
0.035300	-1.224536
0.035400	-1.088861
0.035500	-1.050235
0.035600	-1.090808
0.035700	-1.209930
0.035800	-1.208956
0.035900	-1.140794
0.036000	-1.037577
0.036100	-0.983696
0.036200	-1.011610
0.036300	-1.080097
0.036400	-1.141118
0.036500	-1.121968
0.036600	-1.033357
0.036700	-0.974608
0.036800	-0.951562
0.036900	-0.982073
0.037000	-0.988565
0.037100	-1.006092
0.037200	-0.954808
0.037300	-0.936956
0.037400	-0.936956
0.037500	-0.919104
0.037600	-0.896708
0.037700	-0.884049
0.037800	-0.884049
0.037900	-0.906770
0.038000	-0.901577
0.038100	-0.913911
0.038200	-0.896059
0.038300	-0.853539
0.038400	-0.833739
0.038500	-0.906770
0.038600	-0.978178
0.038700	-0.971037
0.038800	-0.910016
0.038900	-0.788947
0.039000	-0.781481
0.039100	-0.831792
0.039200	-0.916832
0.039300	-0.936307
0.039400	-0.887620
0.039500	-0.498121
0.039600	-0.026180
0.039700	-0.009626
0.039800	-0.164776
0.039900	-0.226122
0.040000	-0.146924
0.040100	0.278603
0.040200	0.376626
0.040300	0.523337
0.040400	0.455500
0.040500	0.587929
0.040600	0.669723
0.040700	0.724902
0.040800	0.640511
0.040900	0.607728
0.041000	0.726201
0.041100	0.830716
0.041200	0.820978
0.041300	0.570726
0.041400	0.170192
0.041500	0.149744
0.041600	0.155586
0.041700	0.398373
0.041800	0.169543
0.041900	0.049448
0.042000	0.103653
0.042100	0.077037
0.042200	0.064703
0.042300	-0.002810
0.042400	0.061457
0.042500	0.114040
0.042600	0.030298
0.042700	0.112417
0.042800	0.197457
0.042900	0.108846
0.043000	0.043930
0.043100	0.012446
0.043200	0.120856
0.043300	-0.037865
0.043400	-0.145301
0.043500	-0.296881
0.043600	-0.677291
0.043700	-1.297567
0.043800	-1.369949
0.043900	-1.390722
0.044000	-1.291400
0.044100	-1.264460
0.044200	-1.288479
0.044300	-1.416040
0.044400	-1.530617
0.044500	-1.567620
0.044600	-1.513739
0.044700	-1.470245
0.044800	-1.464078
0.044900	-1.545548
0.045000	-1.619553
0.045100	-1.693558
0.045200	-1.670837
0.045300	-1.681873
0.045400	-1.666293
0.045500	-1.688040
0.045600	-1.711410
0.045700	-1.730560
0.045800	-1.729911
0.045900	-1.736403
0.046000	-1.752956
0.046100	-1.802942
0.046200	-1.817224
0.046300	-1.842216
0.046400	-1.849033
0.046500	-1.873376
0.046600	-1.905835
0.046700	-1.922713
0.046800	-1.859419
0.046900	-1.825014
0.047000	-1.848059
0.047100	-1.907782
0.047200	-2.002236
0.047300	-2.045730
0.047400	-2.010350
0.047500	-1.936995
0.047600	-1.927582
0.047700	-1.985682
0.047800	-2.077539
0.047900	-2.140184
0.048000	-2.142780
0.048100	-2.107725
0.048200	-2.071047
0.048300	-2.072346
0.048400	-2.102207
0.048500	-2.120709
0.048600	-2.131744
0.048700	-2.119410
0.048800	-2.110647
0.048900	-2.099611
0.049000	-2.084031
0.049100	-2.048651
0.049200	-2.010675
0.049300	-1.963935
0.049400	-1.946732
0.049500	-1.954847
0.049600	-1.912976
0.049700	-1.844164
0.049800	-1.804240
0.049900	-1.753930
0.050000	-1.744517
0.050100	-1.706216
0.050200	-1.669214
0.050300	-1.625395
0.050400	-1.591963
0.050500	-1.543600
0.050600	-1.521204
0.050700	-1.509844
0.050800	-1.503677
0.050900	-1.508221
0.051000	-1.487123
0.051100	-1.503028
0.051200	-1.491018
0.051300	-1.495562
0.051400	-1.445577
0.051500	-1.442006
0.051600	-1.443304
0.051700	-1.466999
0.051800	-1.470569
0.051900	-1.448498
0.052000	-1.375142
0.052100	-1.270951
0.052200	-1.249529
0.052300	-1.360536
0.052400	-1.439085
0.052500	-1.437787
0.052600	-1.375791
0.052700	-1.251476
0.052800	-1.214149
0.052900	-1.268679
0.053000	-1.349500
0.053100	-1.366054
0.053200	-1.314445
0.053300	-1.257968
0.053400	-1.200841
0.053500	-1.195324
0.053600	-1.204412
0.053700	-1.244985
0.053800	-1.225834
0.053900	-1.210579
0.054000	-1.196297
0.054100	-1.193051
0.054200	-1.173577
0.054300	-1.151830
0.054400	-1.154426
0.054500	-1.123591
0.054600	-1.170331
0.054700	-1.144040
0.054800	-1.161892
0.054900	-1.111257
0.055000	-1.090808
0.055100	-1.108660
0.055200	-1.222913
0.055300	-1.251801
0.055400	-1.216421
0.055500	-1.130407
0.055600	-1.055753
0.055700	-1.094379
0.055800	-1.171304
0.055900	-1.242388
0.056000	-1.210904
0.056100	-1.164813
0.056200	-1.088211
0.056300	-1.090159
0.056400	-1.144364
0.056500	-1.184612
0.056600	-1.187534
0.056700	-1.174226
0.056800	-1.153452
0.056900	-1.168383
0.057000	-1.201166
0.057100	-1.243686
0.057200	-1.237519
0.057300	-1.213500
0.057400	-1.216746
0.057500	-1.233949
0.057600	-1.229405
0.057700	-1.160269
0.057800	-0.975581
0.057900	-0.861004
0.058000	-1.112231
0.058100	-1.276145
0.058200	-1.284259
0.058300	-1.158321
0.058400	-1.016803
0.058500	-1.086264
0.058600	-1.065491
0.058700	-0.993433
0.058800	-0.839582
0.058900	-0.853863
0.059000	-0.870417
0.059100	-0.932737
0.059200	-0.963572
0.059300	-1.061271
0.059400	-1.132679
0.059500	-1.172927
0.059600	-1.164488
0.059700	-1.257968
0.059800	-1.252125
0.059900	-1.185586
0.060000	-1.292698
0.060100	-1.344307
0.060200	-1.357939
0.060300	-1.421882
0.060400	-1.536135
0.060500	-1.572488
0.060600	-1.553013
0.060700	-1.435839
0.060800	-1.392345
0.060900	-1.478684
0.061000	-1.614359
0.061100	-1.707839
0.061200	-1.726340
0.061300	-1.658827
0.061400	-1.611438
0.061500	-1.629939
0.061600	-1.738999
0.061700	-1.798398
0.061800	-1.821768
0.061900	-1.817548
0.062000	-1.817224
0.062100	-1.824040
0.062200	-1.840918
0.062300	-1.881491
0.062400	-1.895448
0.062500	-1.912651
0.062600	-1.912651
0.062700	-1.955820
0.062800	-1.964909
0.062900	-2.010675
0.063000	-2.007105
0.063100	-2.019439
0.063200	-2.053520
0.063300	-2.091496
0.063400	-2.081434
0.063500	-1.998341
0.063600	-1.958093
0.063700	-1.994770
0.063800	-2.091496
0.063900	-2.173616
0.064000	-2.180432
0.064100	-2.126876
0.064200	-2.066179
0.064300	-2.096365
0.064400	-2.170694
0.064500	-2.265797
0.064600	-2.330065
0.064700	-2.309941
0.064800	-2.272614
0.064900	-2.250217
0.065000	-2.261902
0.065100	-2.300203
0.065200	-2.301501
0.065300	-2.311888
0.065400	-2.297931
0.065500	-2.278131
0.065600	-2.291115
0.065700	-2.279754
0.065800	-2.240804
0.065900	-2.208671
0.066000	-2.196337
0.066100	-2.175563
0.066200	-2.154141
0.066300	-2.077539
0.066400	-2.014245
0.066500	-1.942188
0.066600	-1.898045
0.066700	-1.885061
0.066800	-1.864937
0.066900	-1.807486
0.067000	-1.774379
0.067100	-1.735753
0.067200	-1.695830
0.067300	-1.651686
0.067400	-1.651362
0.067500	-1.630264
0.067600	-1.630913
0.067700	-1.641624
0.067800	-1.627992
0.067900	-1.618579
0.068000	-1.603648
0.068100	-1.600078
0.068200	-1.575734
0.068300	-1.618579
0.068400	-1.603648
0.068500	-1.615982
0.068600	-1.573462
0.068700	-1.459858
0.068800	-1.343009
0.068900	-1.389748
0.069000	-1.488746
0.069100	-1.542302
0.069200	-1.496211
0.069300	-1.414417
0.069400	-1.314121
0.069500	-1.289777
0.069600	-1.329701
0.069700	-1.391696
0.069800	-1.368001
0.069900	-1.326130
0.070000	-1.242713
0.070100	-1.223887
0.070200	-1.199219
0.070300	-1.195973
0.070400	-1.194350
0.070500	-1.179419
0.070600	-1.163839
0.070700	-1.146312
0.070800	-1.128784
0.070900	-1.116450
0.071000	-1.083667
0.071100	-1.072307
0.071200	-1.071333
0.071300	-1.070359
0.071400	-1.068087
0.071500	-1.061920
0.071600	-1.056402
0.071700	-1.039849
0.071800	-1.085290
0.071900	-1.172927
0.072000	-1.186235
0.072100	-1.165462
0.072200	-1.068087
0.072300	-1.042121
0.072400	-1.070035
0.072500	-1.182989
0.072600	-1.231352
0.072700	-1.198569
0.072800	-1.106388
0.072900	-1.060947
0.073000	-1.064517
0.073100	-1.138522
0.073200	-1.171954
0.073300	-1.200841
0.073400	-1.185586
0.073500	-1.166111
0.073600	-1.168708
0.073700	-1.190130
0.073800	-1.200841
0.073900	-1.203114
0.074000	-1.204736
0.074100	-1.223887
0.074200	-1.219343
0.074300	-1.168383
0.074400	-0.954159
0.074500	-0.798035
0.074600	-0.961949
0.074700	-1.415066
0.074800	-1.284259
0.074900	-1.269653
0.075000	-1.078474
0.075100	-1.165787
0.075200	-1.157347
0.075300	-1.108336
0.075400	-1.124240
0.075500	-1.078799
0.075600	-1.060297
0.075700	-1.071658
0.075800	-1.031085
0.075900	-1.111581
0.076000	-1.068087
0.076100	-1.157347
0.076200	-1.104116
0.076300	-1.154102
0.076400	-1.197920
0.076500	-1.265109
0.076600	-1.400460
0.076700	-1.362808
0.076800	-1.387152
0.076900	-1.413767
0.077000	-1.496211
0.077100	-1.631562
0.077200	-1.664994
0.077300	-1.616307
0.077400	-1.554961
0.077500	-1.539381
0.077600	-1.668889
0.077700	-1.773080
0.077800	-1.832804
0.077900	-1.828909
0.078000	-1.766589
0.078100	-1.758150
0.078200	-1.805539
0.078300	-1.895773
0.078400	-1.932451
0.078500	-1.949653
0.078600	-1.947057
0.078700	-1.955171
0.078800	-1.965883
0.078900	-1.993148
0.079000	-2.023658
0.079100	-2.035668
0.079200	-2.040861
0.079300	-2.059687
0.079400	-2.084031
0.079500	-2.103181
0.079600	-2.105129
0.079700	-2.114542
0.079800	-2.124928
0.079900	-2.142131
0.080000	-2.142456
0.080100	-2.119735
0.080200	-2.052222
0.080300	-2.055143
0.080400	-2.075267
0.080500	-2.191792
0.080600	-2.258981
0.080700	-2.236909
0.080800	-2.183353
0.080900	-2.129148
0.081000	-2.167449
0.081100	-2.270017
0.081200	-2.364471
0.081300	-2.375182
0.081400	-2.340776
0.081500	-2.313836
0.081600	-2.310914
0.081700	-2.322275
0.081800	-2.346294
0.081900	-2.356681
0.082000	-2.363821
0.082100	-2.359277
0.082200	-2.347268
0.082300	-2.304098
0.082400	-2.280404
0.082500	-2.221005
0.082600	-2.188871
0.082700	-2.163878
0.082800	-2.153167
0.082900	-2.126876
0.083000	-2.048327
0.083100	-2.000613
0.083200	-1.926283
0.083300	-1.915572
0.083400	-1.877596
0.083500	-1.841567
0.083600	-1.789959
0.083700	-1.744192
0.083800	-1.691286
0.083900	-1.645844
0.084000	-1.639028
0.084100	-1.620851
0.084200	-1.617930
0.084300	-1.615658
0.084400	-1.578331
0.084500	-1.592288
0.084600	-1.551715
0.084700	-1.558207
0.084800	-1.505949
0.084900	-1.517634
0.085000	-1.522503
0.085100	-1.540030
0.085200	-1.523476
0.085300	-1.476087
0.085400	-1.362808
0.085500	-1.294970
0.085600	-1.365080
0.085700	-1.472192
0.085800	-1.487448
0.085900	-1.430646
0.086000	-1.314770
0.086100	-1.247581
0.086200	-1.255696
0.086300	-1.329376
0.086400	-1.345930
0.086500	-1.327104
0.086600	-1.260240
0.086700	-1.214799
0.086800	-1.177472
0.086900	-1.197271
0.087000	-1.185911
0.087100	-1.195973
0.087200	-1.187209
0.087300	-1.171954
0.087400	-1.167085
0.087500	-1.179744
0.087600	-1.164813
0.087700	-1.167085
0.087800	-1.168708
0.087900	-1.187858
0.088000	-1.213825
0.088100	-1.203763
0.088200	-1.170006
0.088300	-1.134302
0.088400	-1.128135
0.088500	-1.216421
0.088600	-1.284584
0.088700	-1.262188
0.088800	-1.183963
0.088900	-1.111257
0.089000	-1.117424
0.089100	-1.208631
0.089200	-1.281662
0.089300	-1.296269
0.089400	-1.242713
0.089500	-1.171954
0.089600	-1.153452
0.089700	-1.185262
0.089800	-1.242713
0.089900	-1.241414
0.090000	-1.261863
0.090100	-1.229729
0.090200	-1.219018
0.090300	-1.229729
0.090400	-1.255371
0.090500	-1.284259
0.090600	-1.269977
0.090700	-1.283285
0.090800	-1.293023
0.090900	-1.296918
0.091000	-1.288154
0.091100	-1.280364
0.091200	-1.274197
0.091300	-1.315094
0.091400	-1.373519
0.091500	-1.399486
0.091600	-1.375142
0.091700	-1.345605
0.091800	-1.350149
0.091900	-1.354369
0.092000	-1.343333
0.092100	-1.335868
0.092200	-1.318665
0.092300	-1.321586
0.092400	-1.243362
0.092500	-1.367028
0.092600	-1.341386
0.092700	-1.122942
0.092800	-1.175199
0.092900	-1.084966
0.093000	-1.179094
0.093100	-1.062245
0.093200	-1.170006
0.093300	-1.281013
0.093400	-1.343009
0.093500	-1.372221
0.093600	-1.402083
0.093700	-1.504326
0.093800	-1.605920
0.093900	-1.609491
0.094000	-1.535161
0.094100	-1.478035
0.094200	-1.495562
0.094300	-1.644546
0.094400	-1.781844
0.094500	-1.820794
0.094600	-1.773730
0.094700	-1.724068
0.094800	-1.707839
0.094900	-1.764966
0.095000	-1.849357
0.095100	-1.903887
0.095200	-1.891228
0.095300	-1.886035
0.095400	-1.879868
0.095500	-1.891553
0.095600	-1.919792
0.095700	-1.961988
0.095800	-1.979190
0.095900	-1.986331
0.096000	-2.024307
0.096100	-2.093119
0.096200	-2.091821
0.096300	-2.098962
0.096400	-2.117138
0.096500	-2.149597
0.096600	-2.182379
0.096700	-2.209969
0.096800	-2.161606
0.096900	-2.104155
0.097000	-2.141157
0.097100	-2.214189
0.097200	-2.308642
0.097300	-2.352786
0.097400	-2.301501
0.097500	-2.218733
0.097600	-2.189845
0.097700	-2.260279
0.097800	-2.363497
0.097900	-2.442695
0.098000	-2.421922
0.098100	-2.370313
0.098200	-2.325196
0.098300	-2.325845
0.098400	-2.346294
0.098500	-2.362848
0.098600	-2.358304
0.098700	-2.330714
0.098800	-2.294685
0.098900	-2.288843
0.099000	-2.250866
0.099100	-2.188547
0.099200	-2.149272
0.099300	-2.130122
0.099400	-2.110971
0.099500	-2.116489
0.099600	-2.085005
0.099700	-2.008403
0.099800	-1.977892
0.099900	-1.897071
0.100000	-1.882140
0.100100	-1.849033
0.100200	-1.810732
0.100300	-1.772107
0.100400	-1.726990
0.100500	-1.663696
0.100600	-1.634484
0.100700	-1.621500
0.100800	-1.632536
0.100900	-1.602350
0.101000	-1.619877
0.101100	-1.609491
0.101200	-1.588068
0.101300	-1.573137
0.101400	-1.554636
0.101500	-1.554636
0.101600	-1.533214
0.101700	-1.537109
0.101800	-1.515686
0.101900	-1.487448
0.102000	-1.405653
0.102100	-1.259266
0.102200	-1.269004
0.102300	-1.327753
0.102400	-1.442655
0.102500	-1.450445
0.102600	-1.360211
0.102700	-1.236546
0.102800	-1.192402
0.102900	-1.219667
0.103000	-1.263810
0.103100	-1.305682
0.103200	-1.239467
0.103300	-1.170655
0.103400	-1.106713
0.103500	-1.067114
0.103600	-1.098273
0.103700	-1.084641
0.103800	-1.106063
0.103900	-1.073605
0.104000	-1.046665
0.104100	-1.023295
0.104200	-1.031410
0.104300	-0.991811
0.104400	-1.004145
0.104500	-1.010312
0.104600	-1.012908
0.104700	-1.014856
0.104800	-1.017128
0.104900	-0.994732
0.105000	-0.956107
0.105100	-0.984345
0.105200	-1.074254
0.105300	-1.121319
0.105400	-1.104765
0.105500	-1.037901
0.105600	-0.972011
0.105700	-1.001873
0.105800	-1.085290
0.105900	-1.156698
0.106000	-1.145662
0.106100	-1.064192
0.106200	-0.980450
0.106300	-0.970713
0.106400	-1.014856
0.106500	-1.048288
0.106600	-1.057052
0.106700	-1.053481
0.106800	-0.855811
0.106900	-0.762006
0.107000	-0.682808
0.107100	-0.762656
0.107200	-0.713644
0.107300	-0.680536
0.107400	-0.599391
0.107500	-0.599716
0.107600	-0.580890
0.107700	-0.263449
0.107800	-0.136537
0.107900	-0.137836
0.108000	-0.359850
0.108100	-0.595821
0.108200	-0.610751
0.108300	-0.278055
0.108400	-0.137836
0.108500	-0.251115
0.108600	-0.265721
0.108700	-0.335831
0.108800	-0.294609
0.108900	-0.282599
0.109000	-0.078437
0.109100	-0.044032
0.109200	-0.070323
0.109300	0.019262
0.109400	0.045228
0.109500	0.038737
0.109600	0.108197
0.109700	0.036465
0.109800	-0.028776
0.109900	0.035491
0.110000	-0.175487
0.110100	-0.273186
0.110200	-0.451057
0.110300	-1.066464
0.110400	-1.343658
0.110500	-1.429023
0.110600	-1.428698
0.110700	-1.381958
0.110800	-1.346903
0.110900	-1.422207
0.111000	-1.573137
0.111100	-1.663371
0.111200	-1.705243
0.111300	-1.657204
0.111400	-1.618254
0.111500	-1.647467
0.111600	-1.729911
0.111700	-1.808135
0.111800	-1.811706
0.111900	-1.788011
0.112000	-1.778274
0.112100	-1.779572
0.112200	-1.790932
0.112300	-1.809434
0.112400	-1.835076
0.112500	-1.845462
0.112600	-1.846761
0.112700	-1.908431
0.112800	-1.919467
0.112900	-1.960040
0.113000	-1.961338
0.113100	-1.991849
0.113200	-2.037940
0.113300	-2.082083
0.113400	-2.058389
0.113500	-1.998341
0.113600	-1.963286
0.113700	-1.986007
0.113800	-2.083057
0.113900	-2.152842
0.114000	-2.154141
0.114100	-2.082732
0.114200	-2.033720
0.114300	-2.029825
0.114400	-2.110322
0.114500	-2.209969
0.114600	-2.254112
0.114700	-2.243076
0.114800	-2.185625
0.114900	-2.177186
0.115000	-2.187248
0.115100	-2.208346
0.115200	-2.232365
0.115300	-2.229119
0.115400	-2.229444
0.115500	-2.208022
0.115600	-2.192766
0.115700	-2.124279
0.115800	-2.073969
0.115900	-2.019114
0.116000	-2.005157
0.116100	-1.976918
0.116200	-1.953224
0.116300	-1.870131
0.116400	-1.808460
0.116500	-1.769510
0.116600	-1.706865
0.116700	-1.692908
0.116800	-1.661424
0.116900	-1.617605
0.117000	-1.568918
0.117100	-1.504001
0.117200	-1.476412
0.117300	-1.449147
0.117400	-1.437787
0.117500	-1.442331
0.117600	-1.442331
0.117700	-1.469271
0.117800	-1.454989
0.117900	-1.445252
0.118000	-1.414741
0.118100	-1.424803
0.118200	-1.423830
0.118300	-1.421557
0.118400	-1.449147
0.118500	-1.413443
0.118600	-1.392345
0.118700	-1.298216
0.118800	-1.203763
0.118900	-1.234598
0.119000	-1.338464
0.119100	-1.407600
0.119200	-1.355343
0.119300	-1.228431
0.119400	-1.134627
0.119500	-1.133653
0.119600	-1.187209
0.119700	-1.249853
0.119800	-1.230378
0.119900	-1.179744
0.120000	-1.097624
0.120100	-1.082369
0.120200	-1.073281
0.120300	-1.069710
0.120400	-1.098273
0.120500	-1.065491
0.120600	-1.062894
0.120700	-1.046665
0.120800	-1.047963
0.120900	-1.029787
0.121000	-1.035629
0.121100	-1.013882
0.121200	-1.054779
0.121300	-1.032383
0.121400	-1.047314
0.121500	-0.991486
0.121600	-0.983696
0.121700	-0.956107
0.121800	-1.030760
0.121900	-1.111906
0.122000	-1.124565
0.122100	-1.094054
0.122200	-1.006092
0.122300	-0.982722
0.122400	-1.036278
0.122500	-1.127161
0.122600	-1.181367
0.122700	-1.162541
0.122800	-1.083667
0.122900	-1.016803
0.123000	-1.040498
0.123100	-1.110932
0.123200	-1.137548
0.123300	-1.155725
0.123400	-1.131056
0.123500	-1.108985
0.123600	-1.124240
0.123700	-1.152479
0.123800	-1.153128
0.123900	-1.090159
0.124000	-1.118722
0.124100	-1.215448
0.124200	-1.107037
0.124300	-0.944422
0.124400	-0.742532
0.124500	-0.461444
0.124600	-0.688326
0.124700	-0.930465
0.124800	-1.005118
0.124900	-0.834388
0.125000	-0.423143
0.125100	-0.442293
0.125200	-0.464689
0.125300	-0.387114
0.125400	-0.362122
0.125500	-0.259229
0.125600	-0.143354
0.125700	-0.019039
0.125800	0.065352
0.125900	0.136111
0.126000	0.141954
0.126100	0.130269
0.126200	0.214335
0.126300	0.150717
0.126400	0.109820
0.126500	0.081906
0.126600	0.006279
0.126700	-0.010275
0.126800	-0.219630
0.126900	-0.258905
0.127000	-0.958379
0.127100	-1.354693
0.127200	-1.385204
0.127300	-1.367028
0.127400	-1.265109
0.127500	-1.287830
0.127600	-1.369949
0.127700	-1.508546
0.127800	-1.584173
0.127900	-1.578655
0.128000	-1.524450
0.128100	-1.503352
0.128200	-1.563400
0.128300	-1.649739
0.128400	-1.697128
0.128500	-1.684794
0.128600	-1.677328
0.128700	-1.662722
0.128800	-1.687066
0.128900	-1.711734
0.129000	-1.723095
0.129100	-1.731534
0.129200	-1.721472
0.129300	-1.741920
0.129400	-1.771133
0.129500	-1.786713
0.129600	-1.804240
0.129700	-1.817548
0.129800	-1.848059
0.129900	-1.882140
0.130000	-1.896746
0.130100	-1.876947
0.130200	-1.800994
0.130300	-1.821443
0.130400	-1.860069
0.130500	-1.937319
0.130600	-2.010675
0.130700	-1.978541
0.130800	-1.908431
0.130900	-1.885386
0.131000	-1.891878
0.131100	-1.986656
0.131200	-2.062284
0.131300	-2.072995
0.131400	-2.026580
0.131500	-1.989253
0.131600	-1.984059
0.131700	-1.990875
0.131800	-2.022685
0.131900	-2.023658
0.132000	-2.009377
0.132100	-1.999964
0.132200	-1.986656
0.132300	-1.965558
0.132400	-1.917520
0.132500	-1.870455
0.132600	-1.824040
0.132700	-1.817548
0.132800	-1.815925
0.132900	-1.801968
0.133000	-1.752956
0.133100	-1.712059
0.133200	-1.638379
0.133300	-1.631562
0.133400	-1.611438
0.133500	-1.573787
0.133600	-1.536135
0.133700	-1.497185
0.133800	-1.453691
0.133900	-1.410846
0.134000	-1.376116
0.134100	-1.395266
0.134200	-1.361834
0.134300	-1.363133
0.134400	-1.362808
0.134500	-1.334245
0.134600	-1.335219
0.134700	-1.303734
0.134800	-1.314770
0.134900	-1.295619
0.135000	-1.347877
0.135100	-1.337815
0.135200	-1.323209
0.135300	-1.259591
0.135400	-1.165462
0.135500	-1.073605
0.135600	-1.157997
0.135700	-1.234598
0.135800	-1.259915
0.135900	-1.180393
0.136000	-1.091133
0.136100	-1.015505
0.136200	-1.054779
0.136300	-1.119371
0.136400	-1.167734
0.136500	-1.128460
0.136600	-1.064517
0.136700	-0.997004
0.136800	-0.965519
0.136900	-0.990837
0.137000	-0.988889
0.137100	-0.984345
0.137200	-0.970713
0.137300	-0.948317
0.137400	-0.950589
0.137500	-0.919104
0.137600	-0.920078
0.137700	-0.911963
0.137800	-0.929815
0.137900	-0.948966
0.138000	-0.943772
0.138100	-0.961624
0.138200	-0.947992
0.138300	-0.954808
0.138400	-0.958703
0.138500	-1.047314
0.138600	-1.125538
0.138700	-1.123591
0.138800	-1.075228
0.138900	-1.001873
0.139000	-1.017128
0.139100	-1.093405
0.139200	-1.187858
0.139300	-1.209605
0.139400	-1.152803
0.139500	-1.066464
0.139600	-1.054130
0.139700	-1.077500
0.139800	-1.129433
0.139900	-1.149557
0.140000	-1.159944
0.140100	-1.149233
0.140200	-1.162865
0.140300	-1.182665
0.140400	-1.192402
0.140500	-1.183639
0.140600	-1.139820
0.140700	-1.187858
0.140800	-1.212851
0.140900	-1.114827
0.141000	-1.077176
0.141100	-0.760059
0.141200	-0.675343
0.141300	-0.824326
0.141400	-0.990512
0.141500	-0.990512
0.141600	-0.833415
0.141700	-0.506561
0.141800	-0.563687
0.141900	-0.510456
0.142000	-0.441969
0.142100	-0.354332
0.142200	-0.289091
0.142300	-0.260528
0.142400	-0.311811
0.142500	-0.294609
0.142600	-0.167373
0.142700	-0.123554
0.142800	-0.091420
0.142900	-0.078437
0.143000	-0.017740
0.143100	-0.036891
0.143200	-0.118685
0.143300	-0.230666
0.143400	-0.222227
0.143500	-0.466962
0.143600	-0.732794
0.143700	-1.303409
0.143800	-1.395915
0.143900	-1.405977
0.144000	-1.334894
0.144100	-1.298541
0.144200	-1.324832
0.144300	-1.460183
0.144400	-1.578980
0.144500	-1.623448
0.144600	-1.567295
0.144700	-1.535161
0.144800	-1.551715
0.144900	-1.608517
0.145000	-1.674083
0.145100	-1.715629
0.145200	-1.730235
0.145300	-1.742570
0.145400	-1.758799
0.145500	-1.786388
0.145600	-1.825338
0.145700	-1.852603
0.145800	-1.873052
0.145900	-1.894150
0.146000	-1.914274
0.146100	-1.943486
0.146200	-1.949978
0.146300	-1.967505
0.146400	-1.946732
0.146500	-1.984384
0.146600	-2.007429
0.146700	-1.997043
0.146800	-1.936670
0.146900	-1.877596
0.147000	-1.884412
0.147100	-1.949329
0.147200	-2.038265
0.147300	-2.058389
0.147400	-2.007754
0.147500	-1.925634
0.147600	-1.912976
0.147700	-1.985358
0.147800	-2.076890
0.147900	-2.159334
0.148000	-2.140833
0.148100	-2.108374
0.148200	-2.057740
0.148300	-2.088250
0.148400	-2.111945
0.148500	-2.114542
0.148600	-2.121033
0.148700	-2.107076
0.148800	-2.111945
0.148900	-2.106427
0.149000	-2.063907
0.149100	-2.013596
0.149200	-1.959066
0.149300	-1.943811
0.149400	-1.921739
0.149500	-1.933749
0.149600	-1.914923
0.149700	-1.848708
0.149800	-1.809758
0.149900	-1.733806
0.150000	-1.744842
0.150100	-1.735429
0.150200	-1.680574
0.150300	-1.644546
0.150400	-1.589042
0.150500	-1.566321
0.150600	-1.532889
0.150700	-1.537758
0.150800	-1.519581
0.150900	-1.517309
0.151000	-1.517634
0.151100	-1.520880
0.151200	-1.526398
0.151300	-1.503352
0.151400	-1.524125
0.151500	-1.463753
0.151600	-1.508546
0.151700	-1.483877
0.151800	-1.504975
0.151900	-1.433892
0.152000	-1.369300
0.152100	-1.229729
0.152200	-1.237195
0.152300	-1.338789
0.152400	-1.412145
0.152500	-1.424803
0.152600	-1.334569
0.152700	-1.203438
0.152800	-1.170331
0.152900	-1.163839
0.153000	-1.221290
0.153100	-1.240116
0.153200	-1.184612
0.153300	-1.070035
0.153400	-1.013882
0.153500	-0.982073
0.153600	-0.977854
0.153700	-0.996679
0.153800	-0.970064
0.153900	-0.941176
0.154000	-0.921052
0.154100	-0.909367
0.154200	-0.919753
0.154300	-0.910990
0.154400	-0.932412
0.154500	-0.926245
0.154600	-0.947667
0.154700	-0.989863
0.154800	-0.986942
0.154900	-0.972985
0.155000	-0.952536
0.155100	-0.968116
0.155200	-1.074254
0.155300	-1.123915
0.155400	-1.114827
0.155500	-1.046016
0.155600	-0.981424
0.155700	-1.019075
0.155800	-1.096326
0.155900	-1.194999
0.156000	-1.192727
0.156100	-1.126188
0.156200	-1.035629
0.156300	-1.037252
0.156400	-1.085290
0.156500	-1.140469
0.156600	-1.144689
0.156700	-1.121319
0.156800	-1.065491
0.156900	-1.108985
0.157000	-0.981424
0.157100	-1.024269
0.157200	-1.005443
0.157300	-0.870417
0.157400	-0.735066
0.157500	-0.653272
0.157600	-0.515973
0.157700	-0.482866
0.157800	-0.311487
0.157900	-0.276107
0.158000	-0.620813
0.158100	-0.772069
0.158200	-0.719162
0.158300	-0.469558
0.158400	-0.391009
0.158500	-0.463716
0.158600	-0.451706
0.158700	-0.444241
0.158800	-0.419897
0.158900	-0.336155
0.159000	-0.364394
0.159100	-0.353358
0.159200	-0.304346
0.159300	-0.304995
0.159400	-0.237158
0.159500	-0.393281
0.159600	-0.293959
0.159700	-0.403019
0.159800	-0.462742
0.159900	-0.515324
0.160000	-0.615945
0.160100	-0.738961
0.160200	-0.977529
0.160300	-1.549768
0.160400	-1.436813
0.160500	-1.508221
0.160600	-1.513739
0.160700	-1.414092
0.160800	-1.380011
0.160900	-1.436164
0.161000	-1.586445
0.161100	-1.657854
0.161200	-1.680574
0.161300	-1.613710
0.161400	-1.580603
0.161500	-1.605596
0.161600	-1.704593
0.161700	-1.786064
0.161800	-1.810083
0.161900	-1.793529
0.162000	-1.801319
0.162100	-1.794827
0.162200	-1.819496
0.162300	-1.830856
0.162400	-1.847085
0.162500	-1.866885
0.162600	-1.872078
0.162700	-1.908431
0.162800	-1.949329
0.162900	-1.972374
0.163000	-1.983410
0.163100	-1.992498
0.163200	-2.028852
0.163300	-2.057415
0.163400	-2.058064
0.163500	-1.982761
0.163600	-1.951276
0.163700	-1.986007
0.163800	-2.061959
0.163900	-2.151219
0.164000	-2.144728
0.164100	-2.077539
0.164200	-2.022035
0.164300	-2.037940
0.164400	-2.123630
0.164500	-2.210294
0.164600	-2.246647
0.164700	-2.234637
0.164800	-2.193740
0.164900	-2.180432
0.165000	-2.184327
0.165100	-2.228795
0.165200	-2.254437
0.165300	-2.250866
0.165400	-2.250217
0.165500	-2.239506
0.165600	-2.211267
0.165700	-2.169396
0.165800	-2.122007
0.165900	-2.091172
0.166000	-2.081759
0.166100	-2.056441
0.166200	-2.041510
0.166300	-1.957768
0.166400	-1.888632
0.166500	-1.837672
0.166600	-1.774379
0.166700	-1.760746
0.166800	-1.749710
0.166900	-1.715629
0.167000	-1.664021
0.167100	-1.622799
0.167200	-1.579629
0.167300	-1.537433
0.167400	-1.552364
0.167500	-1.535486
0.167600	-1.550417
0.167700	-1.563075
0.167800	-1.562102
0.167900	-1.539056
0.168000	-1.527371
0.168100	-1.514713
0.168200	-1.527047
0.168300	-1.501405
0.168400	-1.533538
0.168500	-1.466025
0.168600	-1.438111
0.168700	-1.318665
0.168800	-1.244985
0.168900	-1.244985
0.169000	-1.343009
0.169100	-1.378388
0.169200	-1.319314
0.169300	-1.208956
0.169400	-1.100221
0.169500	-1.060947
0.169600	-1.108011
0.169700	-1.137873
0.169800	-1.145662
0.169900	-1.053157
0.170000	-0.999601
0.170100	-0.935009
0.170200	-0.948966
0.170300	-0.959677
0.170400	-0.942799
0.170500	-0.928192
0.170600	-0.906770
0.170700	-0.875935
0.170800	-0.848345
0.170900	-0.819457
0.171000	-0.807773
0.171100	-0.802255
0.171200	-0.813290
0.171300	-0.799983
0.171400	-0.794789
0.171500	-0.777911
0.171600	-0.763954
0.171700	-0.769796
0.171800	-0.807773
0.171900	-0.933710
0.172000	-0.954808
0.172100	-0.931763
0.172200	-0.848994
0.172300	-0.836985
0.172400	-0.878207
0.172500	-0.983371
0.172600	-1.016479
0.172700	-0.998302
0.172800	-0.885672
0.172900	-0.454952
0.173000	-0.317329
0.173100	-0.577969
0.173200	-0.602312
0.173300	-0.518245
0.173400	-0.232938
0.173500	0.136436
0.173600	0.164999
0.173700	0.250689
0.173800	0.251338
0.173900	0.335404
0.174000	0.422068
0.174100	0.312684
0.174200	0.349686
0.174300	0.383118
0.174400	0.593447
0.174500	0.645704
0.174600	0.462640
0.174700	0.222125
0.174800	0.001410
0.174900	0.155262
0.175000	0.555146
0.175100	0.613246
0.175200	0.623308
0.175300	0.798258
0.175400	0.893360
0.175500	0.919002
0.175600	1.041694
0.175700	1.114400
0.175800	1.085188
0.175900	1.226381
0.176000	1.258514
0.176100	1.195221
0.176200	1.034878
0.176300	1.034878
0.176400	0.941398
0.176500	0.821952
0.176600	0.568129
0.176700	0.416225
0.176800	0.203300
0.176900	-0.112194
0.177000	-0.812317
0.177100	-1.342684
0.177200	-1.380011
0.177300	-1.339114
0.177400	-1.267705
0.177500	-1.272574
0.177600	-1.389099
0.177700	-1.517634
0.177800	-1.598130
0.177900	-1.575734
0.178000	-1.524450
0.178100	-1.528994
0.178200	-1.580927
0.178300	-1.650713
0.178400	-1.708813
0.178500	-1.702321
0.178600	-1.693233
0.178700	-1.689013
0.178800	-1.708164
0.178900	-1.723419
0.179000	-1.747438
0.179100	-1.750035
0.179200	-1.772107
0.179300	-1.788660
0.179400	-1.837672
0.179500	-1.876622
0.179600	-1.891553
0.179700	-1.897720
0.179800	-1.953873
0.179900	-1.996718
0.180000	-2.036642
0.180100	-2.017816
0.180200	-2.008403
0.180300	-2.011649
0.180400	-2.086627
0.180500	-2.215162
0.180600	-2.296633
0.180700	-2.270341
0.180800	-2.193091
0.180900	-2.152518
0.181000	-2.174914
0.181100	-2.268069
0.181200	-2.330065
0.181300	-2.332661
0.181400	-2.251840
0.181500	-2.186599
0.181600	-2.125577
0.181700	-2.100909
0.181800	-2.105129
0.181900	-2.079487
0.182000	-2.048327
0.182100	-1.976269
0.182200	-1.920116
0.182300	-1.854226
0.182400	-1.781195
0.182500	-1.710111
0.182600	-1.665319
0.182700	-1.652011
0.182800	-1.632861
0.182900	-1.579305
0.183000	-1.489720
0.183100	-1.432269
0.183200	-1.358913
0.183300	-1.308278
0.183400	-1.262512
0.183500	-1.213500
0.183600	-1.157023
0.183700	-1.086913
0.183800	-1.026541
0.183900	-0.985319
0.184000	-0.949290
0.184100	-0.944097
0.184200	-0.931438
0.184300	-0.926570
0.184400	-0.904173
0.184500	-0.874312
0.184600	-0.842827
0.184700	-0.822054
0.184800	-0.848021
0.184900	-0.814913
0.185000	-0.846073
0.185100	-0.834713
0.185200	-0.860355
0.185300	-0.820431
0.185400	-0.689949
0.185500	-0.639964
0.185600	-0.700660
0.185700	-0.825625
0.185800	-0.847372
0.185900	-0.804202
0.186000	-0.717539
0.186100	-0.622761
0.186200	-0.641587
0.186300	-0.682484
0.186400	-0.743830
0.186500	-0.696766
0.186600	-0.656193
0.186700	-0.596470
0.186800	-0.577644
0.186900	-0.579591
0.187000	-0.572451
0.187100	-0.587057
0.187200	-0.553949
0.187300	-0.552327
0.187400	-0.539343
0.187500	-0.539668
0.187600	-0.550379
0.187700	-0.550379
0.187800	-0.562389
0.187900	-0.602637
0.188000	-0.603935
0.188100	-0.631200
0.188200	-0.632174
0.188300	-0.603611
0.188400	-0.612374
0.188500	-0.689949
0.188600	-0.755190
0.188700	-0.760708
0.188800	-0.703582
0.188900	-0.107000
0.189000	0.069897
0.189100	-0.290064
0.189200	-0.897357
0.189300	-0.773367
0.189400	-0.351086
0.189500	0.391882
0.189600	0.804749
0.189700	0.763852
0.189800	0.487633
0.189900	0.472053
0.190000	0.634993
0.190100	1.026439
0.190200	1.204309
0.190300	1.263383
0.190400	1.352318
0.190500	1.404252
0.190600	1.586342
0.190700	1.582771
0.190800	1.761941
0.190900	1.724938
0.191000	1.909950
0.191100	2.205969
0.191200	2.353329
0.191300	2.201425
0.191400	1.887229
0.191500	2.015439
0.191600	2.128718
0.191700	2.320546
0.191800	2.399744
0.191900	2.383191
0.192000	2.395849
0.192100	2.434150
0.192200	2.468880
0.192300	2.574369
0.192400	2.421167
0.192500	2.502961
0.192600	2.601310
0.192700	2.642856
0.192800	2.588327
0.192900	2.515945
0.193000	2.538665
0.193100	2.443238
0.193200	2.331257
0.193300	2.213434
0.193400	2.005377
0.193500	1.828155
0.193600	1.383154
0.193700	0.592148
0.193800	-0.452355
0.193900	-0.654894
0.194000	-0.213788
0.194100	0.304894
0.194200	-0.049549
0.194300	-1.006417
0.194400	-1.232001
0.194500	-1.289777
0.194600	-1.236221
0.194700	-1.196297
0.194800	-1.214799
0.194900	-1.295619
0.195000	-1.383257
0.195100	-1.417013
0.195200	-1.409548
0.195300	-1.414741
0.195400	-1.416364
0.195500	-1.427725
0.195600	-1.453042
0.195700	-1.462779
0.195800	-1.492316
0.195900	-1.507572
0.196000	-1.542951
0.196100	-1.579954
0.196200	-1.589042
0.196300	-1.590665
0.196400	-1.599104
0.196500	-1.633834
0.196600	-1.663047
0.196700	-1.649090
0.196800	-1.599429
0.196900	-1.544899
0.197000	-1.553338
0.197100	-1.620202
0.197200	-1.716603
0.197300	-1.737701
0.197400	-1.679925
0.197500	-1.608517
0.197600	-1.565672
0.197700	-1.641624
0.197800	-1.743543
0.197900	-1.810083
0.198000	-1.809434
0.198100	-1.756527
0.198200	-1.717252
0.198300	-1.713682
0.198400	-1.733157
0.198500	-1.751333
0.198600	-1.745166
0.198700	-1.746465
0.198800	-1.738675
0.198900	-1.720173
0.199000	-1.698426
0.199100	-1.653634
0.199200	-1.603648
0.199300	-1.603324
0.199400	-1.596183
0.199500	-1.605920
0.199600	-1.572813
0.199700	-1.511142
0.199800	-1.467648
0.199900	-1.406302
0.200000	-1.407925
0.200100	-1.387476
0.200200	-1.343333
0.200300	-1.325156
0.200400	-1.279715
0.200500	-1.241414
0.200600	-1.227457
0.200700	-1.214149
0.200800	-1.214474
0.200900	-1.194674
0.201000	-1.206359
0.201100	-1.190455
0.201200	-1.184612
0.201300	-1.160593
0.201400	-1.128784
0.201500	-1.109634
0.201600	-1.110932
0.201700	-1.108985
0.201800	-1.110932
0.201900	-1.056078
0.202000	-0.995056
0.202100	-0.844775
0.202200	-0.826923
0.202300	-0.904173
0.202400	-1.020698
0.202500	-0.989863
0.202600	-0.927219
0.202700	-0.786999
0.202800	-0.730847
0.202900	-0.725004
0.203000	-0.778236
0.203100	-0.774990
0.203200	-0.726952
0.203300	-0.640937
0.203400	-0.593548
0.203500	-0.591601
0.203600	-0.568556
0.203700	-0.592575
0.203800	-0.589004
0.203900	-0.555248
0.204000	-0.540966
0.204100	-0.531229
0.204200	-0.518570
0.204300	-0.503639
0.204400	-0.527983
0.204500	-0.565310
0.204600	-0.592575
0.204700	-0.593873
0.204800	-0.613673
0.204900	-0.613348
0.205000	-0.623735
0.205100	-0.651649
0.205200	-0.771095
0.205300	-0.821730
0.205400	-0.832765
0.205500	-0.762980
0.205600	-0.663009
0.205700	-0.752269
0.205800	-0.847372
0.205900	-0.906445
0.206000	-0.915534
0.206100	-0.839257
0.206200	-0.267019
0.206300	-0.080709
0.206400	-0.256957
0.206500	-0.448136
0.206600	-0.265072
0.206700	0.038737
0.206800	0.544110
0.206900	0.573323
0.207000	0.661284
0.207100	0.826821
0.207200	1.054677
0.207300	1.247479
0.207400	1.391917
0.207500	1.463001
0.207600	1.687287
0.207700	2.099181
0.207800	2.398121
0.207900	2.591572
0.208000	2.311133
0.208100	2.223821
0.208200	2.330608
0.208300	2.637663
0.208400	2.867143
0.208500	2.757759
0.208600	2.788594
0.208700	2.792489
0.208800	2.739582
0.208900	2.630847
0.209000	2.467582
0.209100	2.441291
0.209200	2.349759
0.209300	2.310809
0.209400	2.187143
0.209500	1.993368
0.209600	1.922284
0.209700	1.807058
0.209800	1.684041
0.209900	1.635029
0.210000	1.616203
0.210100	1.381855
0.210200	1.335440
0.210300	0.793064
0.210400	-0.050848
0.210500	-0.804851
0.210600	-0.714942
0.210700	-0.215086
0.210800	0.082555
0.210900	-0.325119
0.211000	-1.177472
0.211100	-1.254722
0.211200	-1.242063
0.211300	-1.169032
0.211400	-1.118398
0.211500	-1.124889
0.211600	-1.154751
0.211700	-1.191429
0.211800	-1.174226
0.211900	-1.157023
0.212000	-1.141443
0.212100	-1.142417
0.212200	-1.122293
0.212300	-1.149233
0.212400	-1.151505
0.212500	-1.148908
0.212600	-1.144040
0.212700	-1.190130
0.212800	-1.227457
0.212900	-1.215772
0.213000	-1.208307
0.213100	-1.196622
0.213200	-1.195324
0.213300	-1.229405
0.213400	-1.201815
0.213500	-1.143066
0.213600	-1.100221
0.213700	-1.118722
0.213800	-1.194350
0.213900	-1.276469
0.214000	-1.284259
0.214100	-1.235247
0.214200	-1.170980
0.214300	-1.183314
0.214400	-1.273223
0.214500	-1.385529
0.214600	-1.426751
0.214700	-1.395591
0.214800	-1.371247
0.214900	-1.355667
0.215000	-1.378388
0.215100	-1.399810
0.215200	-1.404030
0.215300	-1.383257
0.215400	-1.362159
0.215500	-1.348851
0.215600	-1.323858
0.215700	-1.274846
0.215800	-1.245958
0.215900	-1.211553
0.216000	-1.186235
0.216100	-1.191104
0.216200	-1.172603
0.216300	-1.123915
0.216400	-1.077176
0.216500	-1.034980
0.216600	-0.987266
0.216700	-0.987591
0.216800	-0.969739
0.216900	-0.940527
0.217000	-0.892488
0.217100	-0.830493
0.217200	-0.791543
0.217300	-0.756489
0.217400	-0.779858
0.217500	-0.747400
0.217600	-0.745453
0.217700	-0.729873
0.217800	-0.720460
0.217900	-0.686703
0.218000	-0.685081
0.218100	-0.674694
0.218200	-0.675343
0.218300	-0.654245
0.218400	-0.677291
0.218500	-0.642885
0.218600	-0.606532
0.218700	-0.511429
0.218800	-0.418274
0.218900	-0.395229
0.219000	-0.512728
0.219100	-0.560766
0.219200	-0.517596
0.219300	-0.441969
0.219400	-0.333558
0.219500	-0.301100
0.219600	-0.351410
0.219700	-0.408861
0.219800	-0.398799
0.219900	-0.361472
0.220000	-0.266370
0.220100	-0.227096
0.220200	-0.217034
0.220300	-0.222876
0.220400	-0.249167
0.220500	-0.244298
0.220600	-0.252738
0.220700	-0.252088
0.220800	-0.241702
0.220900	-0.263449
0.221000	-0.211191
0.221100	-0.249492
0.221200	-0.104728
0.221300	-0.093043
0.221400	0.246794
0.221500	0.210116
0.221600	0.541514
0.221700	0.602535
0.221800	0.532750
0.221900	-0.198857
0.222000	-0.200480
0.222100	0.175710
0.222200	1.079021
0.222300	1.348099
0.222400	1.118620
0.222500	0.478869
0.222600	0.215958
0.222700	0.569103
0.222800	1.264681
0.222900	1.888203
0.223000	2.025501
0.223100	1.728833
0.223200	1.693778
0.223300	1.763239
0.223400	2.061854
0.223500	2.182923
0.223600	2.297176
0.223700	2.326064
0.223800	2.349759
0.223900	2.575992
0.224000	2.662980
0.224100	2.852537
0.224200	3.029110
0.224300	3.343630
0.224400	3.617903
0.224500	3.946057
0.224600	4.013571
0.224700	3.856472
0.224800	3.904510
0.224900	4.023957
0.225000	4.580944
0.225100	4.615025
0.225200	4.674424
0.225300	4.633851
0.225400	4.702338
0.225500	4.796143
0.225600	4.811399
0.225700	4.743561
0.225800	4.829251
0.225900	4.832172
0.226000	4.694548
0.226100	4.639694
0.226200	4.624438
0.226300	4.410537
0.226400	4.424169
0.226500	4.265448
0.226600	4.322899
0.226700	4.129447
0.226800	3.961637
0.226900	3.859069
0.227000	3.102465
0.227100	2.170265
0.227200	1.729482
0.227300	1.956365
0.227400	2.658761
0.227500	2.856432
0.227600	2.145921
0.227700	1.202686
0.227800	0.548654
0.227900	0.503538
0.228000	0.901475
0.228100	0.981971
0.228200	0.576568
0.228300	-0.096289
0.228400	-0.844450
0.228500	-0.889243
0.228600	-0.879505
0.228700	-0.866522
0.228800	-0.903849
0.228900	-0.926570
0.229000	-0.982398
0.229100	-1.003820
0.229200	-1.021997
0.229300	-1.040173
0.229400	-1.074904
0.229500	-1.108660
0.229600	-1.111581
0.229700	-1.120994
0.229800	-1.132030
0.229900	-1.161242
0.230000	-1.176173
0.230100	-1.142741
0.230200	-1.049262
0.230300	-1.057376
0.230400	-1.103467
0.230500	-1.184612
0.230600	-1.237519
0.230700	-1.203763
0.230800	-1.117748
0.230900	-1.077176
0.231000	-1.126837
0.231100	-1.202464
0.231200	-1.262188
0.231300	-1.270951
0.231400	-1.227457
0.231500	-1.193376
0.231600	-1.195324
0.231700	-1.212526
0.231800	-1.204412
0.231900	-1.194999
0.232000	-1.199543
0.232100	-1.182665
0.232200	-1.148259
0.232300	-1.114178
0.232400	-1.042770
0.232500	-1.001548
0.232600	-0.979152
0.232700	-0.957405
0.232800	-0.961300
0.232900	-0.949290
0.233000	-0.893138
0.233100	-0.844450
0.233200	-0.791219
0.233300	-0.802579
0.233400	-0.790570
0.233500	-0.754541
0.233600	-0.728250
0.233700	-0.701634
0.233800	-0.680212
0.233900	-0.654570
0.234000	-0.651973
0.234100	-0.655544
0.234200	-0.654570
0.234300	-0.664632
0.234400	-0.650026
0.234500	-0.659763
0.234600	-0.624059
0.234700	-0.611076
0.234800	-0.615295
0.234900	-0.613673
0.235000	-0.595821
0.235100	-0.584785
0.235200	-0.565310
0.235300	-0.491305
0.235400	-0.388088
0.235500	-0.299477
0.235600	-0.356928
0.235700	-0.437749
0.235800	-0.455926
0.235900	-0.406914
0.236000	-0.305644
0.236100	-0.227420
0.236200	-0.206647
0.236300	-0.286170
0.236400	-0.302723
0.236500	-0.300451
0.236600	-0.190093
0.236700	-0.147573
0.236800	-0.112518
0.236900	-0.117712
0.237000	-0.139783
0.237100	-0.158284
0.237200	-0.136213
0.237300	-0.016118
0.237400	0.290937
0.237500	0.619089
0.237600	0.923222
0.237700	1.298763
0.237800	1.357187
0.237900	1.402629
0.238000	1.452939
0.238100	1.588614
0.238200	1.890800
0.238300	2.123200
0.238400	2.388708
0.238500	1.843411
0.238600	1.511688
0.238700	1.859315
0.238800	2.491276
0.238900	3.422179
0.239000	3.609139
0.239100	3.380957
0.239200	3.060270
0.239300	3.234246
0.239400	3.953198
0.239500	4.732849
0.239600	5.241799
0.239700	5.330736
0.239800	5.109693
0.239900	5.283995
0.240000	5.536848
0.240100	6.001656
0.240200	6.278205
0.240300	6.405768
0.240400	6.610583
0.240500	6.781966
0.240600	7.069228
0.240700	7.176342
0.240800	7.297415
0.240900	7.432444
0.241000	7.705101
0.241100	7.926797
0.241200	8.119280
0.241300	7.948220
0.241400	7.801504
0.241500	7.708022
0.241600	7.920954
0.241700	8.095260
0.241800	7.885898
0.241900	7.721330
0.242000	7.524628
0.242100	7.349024
0.242200	7.205231
0.242300	7.056569
0.242400	6.887782
0.242500	6.819943
0.242600	6.718022
0.242700	6.719970
0.242800	6.589810
0.242900	6.526515
0.243000	6.381748
0.243100	6.303198
0.243200	6.205173
0.243300	6.116236
0.243400	5.874093
0.243500	5.664410
0.243600	5.406689
0.243700	4.619569
0.243800	3.946382
0.243900	3.692557
0.244000	4.274211
0.244100	4.739017
0.244200	4.622491
0.244300	3.666266
0.244400	2.761654
0.244500	2.417272
0.244600	2.577940
0.244700	3.022618
0.244800	2.859353
0.244900	2.335802
0.245000	1.582447
0.245100	1.273770
0.245200	1.158868
0.245300	1.234171
0.245400	1.266954
0.245500	0.972233
0.245600	0.558716
0.245700	0.246794
0.245800	-0.088499
0.245900	-0.399449
0.246000	-0.590303
0.246100	-0.632174
0.246200	-0.659114
0.246300	-0.676317
0.246400	-0.688976
0.246500	-0.724030
0.246600	-0.776288
0.246700	-0.784727
0.246800	-0.757138
0.246900	-0.727276
0.247000	-0.763629
0.247100	-0.828546
0.247200	-0.930465
0.247300	-0.968765
0.247400	-0.925920
0.247500	-0.855486
0.247600	-0.827247
0.247700	-0.888593
0.247800	-0.997328
0.247900	-1.047639
0.248000	-1.030760
0.248100	-0.995706
0.248200	-0.956107
0.248300	-0.943448
0.248400	-0.978503
0.248500	-0.996679
0.248600	-1.013882
0.248700	-0.999276
0.248800	-0.995381
0.248900	-0.992460
0.249000	-0.972011
0.249100	-0.909042
0.249200	-0.873663
0.249300	-0.827572
0.249400	-0.808422
0.249500	-0.800307
0.249600	-0.722732
0.249700	-0.638016
0.249800	-0.581539
0.249900	-0.462742
0.250000	-0.427687
0.250100	-0.403993
0.250200	-0.354656
0.250300	-0.308241
0.250400	-0.229692
0.250500	-0.169969
0.250600	-0.133616
0.250700	-0.126475
0.250800	-0.118685
0.250900	-0.111220
0.251000	-0.117387
0.251100	-0.097912
0.251200	-0.074542
0.251300	-0.059611
0.251400	-0.054743
0.251500	-0.059287
0.251600	-0.045979
0.251700	-0.066428
0.251800	-0.052471
0.251900	-0.042733
0.252000	0.060484
0.252100	0.176359
0.252200	0.202326
0.252300	0.150068
0.252400	0.009524
0.252500	0.028026
0.252600	0.070870
0.252700	0.221152
0.252800	0.481466
0.252900	0.366240
0.253000	0.197133
0.253100	0.269839
0.253200	0.951785
0.253300	1.636977
0.253400	2.692517
0.253500	2.845720
0.253600	2.974255
0.253700	3.238790
0.253800	3.417635
0.253900	3.975919
0.254000	4.352112
0.254100	4.887676
0.254200	5.159354
0.254300	5.596247
0.254400	5.706282
0.254500	5.956539
0.254600	6.062354
0.254700	6.404145
0.254800	6.431410
0.254900	6.909854
0.255000	7.112723
0.255100	7.337664
0.255200	6.559298
0.255300	6.477177
0.255400	6.805337
0.255500	7.478861
0.255600	8.197507
0.255700	8.054362
0.255800	7.526900
0.255900	7.017943
0.256000	7.141287
0.256100	7.795986
0.256200	8.525671
0.256300	8.839554
0.256400	8.805796
0.256500	8.735359
0.256600	8.855459
0.256700	9.062226
0.256800	9.611119
0.256900	9.759785
0.257000	9.995443
0.257100	9.843531
0.257200	9.940261
0.257300	10.065557
0.257400	10.150602
0.257500	10.245709
0.257600	10.329456
0.257700	10.591084
0.257800	10.654057
0.257900	10.654057
0.258000	10.654057
0.258100	10.654057
0.258200	10.654057
0.258300	10.654057
0.258400	10.654057
0.258500	10.654057
0.258600	10.654057
0.258700	10.654057
0.258800	10.654057
0.258900	10.654057
0.259000	10.654057
0.259100	10.654057
0.259200	10.654057
0.259300	10.654057
0.259400	10.654057
0.259500	10.654057
0.259600	10.654057
0.259700	10.654057
0.259800	10.654057
0.259900	10.654057
0.260000	10.654057
0.260100	10.654057
0.260200	10.654057
0.260300	10.654057
0.260400	10.654057
0.260500	10.654057
0.260600	10.654057
0.260700	10.654057
0.260800	10.654057
0.260900	10.654057
0.261000	10.654057
0.261100	9.946429
0.261200	9.733492
0.261300	10.088279
0.261400	10.300242
0.261500	10.052897
0.261600	9.398832
0.261700	8.741526
0.261800	8.190041
0.261900	8.061178
0.262000	7.908295
0.262100	7.754114
0.262200	7.374018
0.262300	7.005608
0.262400	6.598573
0.262500	6.286969
0.262600	5.922782
0.262700	5.294058
0.262800	4.868201
0.262900	4.541669
0.263000	4.182030
0.263100	3.782792
0.263200	3.197243
0.263300	2.785997
0.263400	2.599038
0.263500	2.854160
0.263600	2.977501
0.263700	2.559763
0.263800	1.633731
0.263900	0.720683
0.264000	0.482764
0.264100	0.698611
0.264200	1.003393
0.264300	0.864148
0.264400	0.152016
0.264500	0.011796
0.264600	-0.056366
0.264700	-0.041759
0.264800	-0.001836
0.264900	0.030622
0.265000	0.008226
0.265100	-0.023907
0.265200	-0.055392
0.265300	-0.073568
0.265400	-0.081034
0.265500	-0.075191
0.265600	-0.103105
0.265700	-0.091420
0.265800	-0.061559
0.265900	-0.065129
0.266000	-0.075841
0.266100	-0.099210
0.266200	-0.123554
0.266300	-0.063831
0.266400	-0.011573
0.266500	0.031271
0.266600	0.110145
0.266700	0.135787
0.266800	0.194536
0.266900	0.244197
0.267000	0.309762
0.267100	0.387662
0.267200	0.454526
0.267300	0.491204
0.267400	0.523013
0.267500	0.526583
0.267600	0.556444
0.267700	0.551576
0.267800	0.567156
0.267900	0.561313
0.268000	0.557743
0.268100	0.541838
0.268200	0.500941
0.268300	0.486984
0.268400	0.435700
0.268500	0.420120
0.268600	0.406163
0.268700	0.465562
0.268800	1.018649
0.268900	0.626554
0.269000	0.341247
0.269100	0.228292
0.269200	0.261400
0.269300	0.348712
0.269400	1.299087
0.269500	1.642495
0.269600	1.274094
0.269700	0.873885
0.269800	0.759632
0.269900	1.404576
0.270000	2.042055
0.270100	2.531525
0.270200	2.837930
0.270300	2.610398
0.270400	2.818780
0.270500	2.911935
0.270600	3.298513
0.270700	3.485473
0.270800	3.820768
0.270900	4.128473
0.271000	4.555302
0.271100	4.866254
0.271200	5.131440
0.271300	5.690702
0.271400	6.142852
0.271500	6.728409
0.271600	7.297090
0.271700	7.917384
0.271800	8.092664
0.271900	7.797609
0.272000	8.017358
0.272100	8.727893
0.272200	9.772444
0.272300	10.382691
0.272400	10.382366
0.272500	9.947403
0.272600	9.917864
0.272700	10.508636
0.272800	10.654057
0.272900	10.654057
0.273000	10.654057
0.273100	10.654057
0.273200	10.654057
0.273300	10.654057
0.273400	10.654057
0.273500	10.654057
0.273600	10.654057
0.273700	10.654057
0.273800	10.654057
0.273900	10.654057
0.274000	10.654057
0.274100	10.654057
0.274200	10.654057
0.274300	10.654057
0.274400	10.654057
0.274500	10.654057
0.274600	10.654057
0.274700	10.654057
0.274800	10.654057
0.274900	10.654057
0.275000	10.654057
0.275100	10.654057
0.275200	10.654057
0.275300	10.654057
0.275400	10.654057
0.275500	10.654057
0.275600	10.654057
0.275700	10.654057
0.275800	10.654057
0.275900	10.654057
0.276000	10.654057
0.276100	10.654057
0.276200	10.654057
0.276300	10.654057
0.276400	10.654057
0.276500	10.654057
0.276600	10.654057
0.276700	10.437548
0.276800	10.173648
0.276900	9.857164
0.277000	9.119030
0.277100	8.113438
0.277200	7.641156
0.277300	7.834937
0.277400	8.496458
0.277500	8.509441
0.277600	7.825849
0.277700	6.812477
0.277800	6.116236
0.277900	6.207445
0.278000	6.584292
0.278100	6.768009
0.278200	6.374932
0.278300	5.715371
0.278400	5.127220
0.278500	4.720840
0.278600	4.615999
0.278700	4.611779
0.278800	4.514404
0.278900	4.282001
0.279000	4.117437
0.279100	4.004807
0.279200	3.844462
0.279300	3.554285
0.279400	3.314093
0.279500	3.023267
0.279600	2.917453
0.279700	2.743801
0.279800	2.441940
0.279900	2.162150
0.280000	2.057959
0.280100	2.201425
0.280200	2.635391
0.280300	3.009959
0.280400	2.964518
0.280500	2.514646
0.280600	2.170914
0.280700	2.521787
0.280800	3.189778
0.280900	3.728911
0.281000	3.541301
0.281100	2.883697
0.281200	2.402016
0.281300	2.229014
0.281400	2.489654
0.281500	2.687649
0.281600	2.823324
0.281700	2.685701
0.281800	2.516594
0.281900	2.278351
0.282000	2.200451
0.282100	2.127095
0.282200	2.048222
0.282300	2.022904
0.282400	2.151764
0.282500	2.348460
0.282600	2.448107
0.282700	2.399744
0.282800	2.263744
0.282900	2.259200
0.283000	2.674341
0.283100	2.931086
0.283200	3.338437
0.283300	3.313120
0.283400	3.313769
0.283500	3.391669
0.283600	3.418934
0.283700	3.484499
0.283800	3.621149
0.283900	3.641273
0.284000	3.577979
0.284100	3.465998
0.284200	3.303382
0.284300	3.143038
0.284400	2.983993
0.284500	2.930436
0.284600	2.755811
0.284700	2.811315
0.284800	2.645453
0.284900	2.598389
0.285000	2.386436
0.285100	2.388059
0.285200	2.177081
0.285300	2.743801
0.285400	3.248852
0.285500	3.796099
0.285600	3.367000
0.285700	2.632470
0.285800	2.115735
0.285900	2.614618
0.286000	3.153425
0.286100	3.683794
0.286200	3.581550
0.286300	3.102141
0.286400	2.584432
0.286500	2.739907
0.286600	3.170303
0.286700	3.381282
0.286800	3.500729
0.286900	3.232298
0.287000	2.931410
0.287100	2.773988
0.287200	2.561711
0.287300	2.523085
0.287400	2.336126
0.287500	2.258551
0.287600	2.049845
0.287700	1.964804
0.287800	1.705788
0.287900	1.494485
0.288000	1.401330
0.288100	1.492862
0.288200	1.626590
0.288300	1.963181
0.288400	2.149491
0.288500	1.775248
0.288600	1.453263
0.288700	1.687936
0.288800	2.319248
0.288900	3.305654
0.289000	3.533836
0.289100	3.391669
0.289200	3.099544
0.289300	3.247554
0.289400	3.973971
0.289500	4.755570
0.289600	5.300549
0.289700	5.320674
0.289800	5.280425
0.289900	5.379748
0.290000	5.449210
0.290100	5.859487
0.290200	6.069170
0.290300	6.409663
0.290400	6.588511
0.290500	7.012425
0.290600	7.457762
0.290700	7.740157
0.290800	8.020279
0.290900	8.252363
0.291000	8.554235
0.291100	8.970690
0.291200	9.345274
0.291300	9.288794
0.291400	9.189792
0.291500	9.155710
0.291600	9.336185
0.291700	9.464401
0.291800	9.427722
0.291900	9.370268
0.292000	9.367671
0.292100	9.448171
0.292200	9.414413
0.292300	9.504651
0.292400	9.507248
0.292500	9.560482
0.292600	9.462778
0.292700	9.356959
0.292800	9.331316
0.292900	9.286197
0.293000	9.256335
0.293100	9.163175
0.293200	9.177782
0.293300	9.108968
0.293400	9.173563
0.293500	8.932063
0.293600	8.574036
0.293700	7.765475
0.293800	6.852727
0.293900	6.633629
0.294000	6.959192
0.294100	7.418487
0.294200	7.006257
0.294300	5.916290
0.294400	4.789327
0.294500	4.184302
0.294600	4.167099
0.294700	4.294660
0.294800	4.140483
0.294900	3.607841
0.295000	2.876231
0.295100	2.607152
0.295200	2.286465
0.295300	2.244269
0.295400	2.123849
0.295500	1.773626
0.295600	1.487344
0.295700	1.160815
0.295800	0.937503
0.295900	0.672645
0.296000	0.381820
0.296100	0.032245
0.296200	-0.216709
0.296300	-0.330962
0.296400	-0.430933
0.296500	-0.463391
0.296600	-0.476374
0.296700	-0.494876
0.296800	-0.447487
0.296900	-0.399124
0.297000	-0.416327
0.297100	-0.479945
0.297200	-0.572775
0.297300	-0.601338
0.297400	-0.553625
0.297500	-0.485138
0.297600	-0.466312
0.297700	-0.530580
0.297800	-0.635095
0.297900	-0.691897
0.298000	-0.665606
0.298100	-0.628603
0.298200	-0.592250
0.298300	-0.604909
0.298400	-0.631849
0.298500	-0.678914
0.298600	-0.688976
0.298700	-0.694169
0.298800	-0.678914
0.298900	-0.676317
0.299000	-0.661061
0.299100	-0.626007
0.299200	-0.607830
0.299300	-0.578618
0.299400	-0.563362
0.299500	-0.562713
0.299600	-0.502666
0.299700	-0.406914
0.299800	-0.334857
0.299900	-0.251115
0.300000	-0.229692
0.300100	-0.209244
0.300200	-0.178084
0.300300	-0.116089
0.300400	-0.080385
0.300500	-0.016767
0.300600	0.006279
0.300700	0.029324
0.300800	0.046851
0.300900	0.076713
0.301000	0.090345
0.301100	0.090994
0.301200	0.114364
0.301300	0.142278
0.301400	0.173763
0.301500	0.160130
0.301600	0.177009
0.301700	0.155586
0.301800	0.174736
0.301900	0.200703
0.302000	0.267567
0.302100	0.580788
0.302200	0.657714
0.302300	0.172464
0.302400	0.278278
0.302500	0.301648
0.302600	0.378249
0.302700	1.255269
0.302800	1.988174
0.302900	1.990446
0.303000	1.745712
0.303100	1.767783
0.303200	2.490627
0.303300	3.233272
0.303400	4.036616
0.303500	4.378078
0.303600	4.524791
0.303700	4.727656
0.303800	5.074313
0.303900	5.531979
0.304000	5.942906
0.304100	6.306119
0.304200	6.562220
0.304300	6.826435
0.304400	7.247103
0.304500	7.390247
0.304600	7.654789
0.304700	7.788521
0.304800	8.036834
0.304900	8.466270
0.305000	8.681476
0.305100	8.893112
0.305200	8.168943
0.305300	8.100778
0.305400	8.439978
0.305500	9.108643
0.305600	9.865604
0.305700	9.817239
0.305800	9.374488
0.305900	8.851239
0.306000	9.052813
0.306100	9.665976
0.306200	10.366785
0.306300	10.635230
0.306400	10.347309
0.306500	9.986030
0.306600	10.097043
0.306700	10.152549
0.306800	10.503442
0.306900	10.423266
0.307000	10.360618
0.307100	10.282065
0.307200	10.346011
0.307300	10.418721
0.307400	10.432679
0.307500	10.324587
0.307600	10.273950
0.307700	10.308357
0.307800	10.393078
0.307900	10.419695
0.308000	10.068803
0.308100	9.796464
0.308200	9.800360
0.308300	9.926953
0.308400	10.212925
0.308500	10.110027
0.308600	10.182737
0.308700	10.282714
0.308800	10.397298
0.308900	10.528761
0.309000	10.582645
0.309100	10.654057
0.309200	10.654057
0.309300	10.654057
0.309400	10.654057
0.309500	10.654057
0.309600	10.654057
0.309700	10.654057
0.309800	10.654057
0.309900	10.654057
0.310000	10.654057
0.310100	10.654057
0.310200	10.654057
0.310300	10.607314
0.310400	9.516012
0.310500	8.743474
0.310600	8.573386
0.310700	8.915184
0.310800	9.120978
0.310900	8.600652
0.311000	7.332795
0.311100	6.394407
0.311200	6.064951
0.311300	6.346693
0.311400	6.389863
0.311500	6.148045
0.311600	5.343070
0.311700	4.579970
0.311800	4.092769
0.311900	4.020387
0.312000	3.959365
0.312100	3.753904
0.312200	3.551688
0.312300	3.254695
0.312400	2.994704
0.312500	2.942121
0.312600	2.808393
0.312700	2.593520
0.312800	2.325090
0.312900	2.182599
0.313000	1.982656
0.313100	1.778170
0.313200	1.582122
0.313300	1.354266
0.313400	1.333168
0.313500	1.804461
0.313600	1.957664
0.313700	1.730456
0.313800	1.091030
0.313900	0.319824
0.314000	0.237056
0.314100	0.775537
0.314200	1.286428
0.314300	1.274094
0.314400	0.857981
0.314500	0.097811
0.314600	0.182202
0.314700	0.244846
0.314800	0.470755
0.314900	0.663232
0.315000	0.595070
0.315100	0.280875
0.315200	0.364292
0.315300	0.350984
0.315400	0.345791
0.315500	0.343194
0.315600	0.337027
0.315700	0.328264
0.315800	0.341247
0.315900	0.354879
0.316000	0.347414
0.316100	0.335080
0.316200	0.321447
0.316300	0.356178
0.316400	0.401619
0.316500	0.505810
0.316600	0.539891
0.316700	0.564234
0.316800	0.596368
0.316900	0.644406
0.317000	0.747623
0.317100	0.974505
0.317200	1.092653
0.317300	1.152701
0.317400	1.062792
0.317500	0.903747
0.317600	0.657389
0.317700	0.575919
0.317800	0.543461
0.317900	0.512626
0.318000	0.487633
0.318100	0.428559
0.318200	0.395777
0.318300	0.343843
0.318400	0.289314
0.318500	0.288015
0.318600	0.255557
0.318700	0.348712
0.318800	0.386688
0.318900	0.357151
0.319000	0.207844
0.319100	0.143577
0.319200	0.158183
0.319300	0.273734
0.319400	0.755737
0.319500	1.166658
0.319600	1.061169
0.319700	0.775212
0.319800	0.824224
0.319900	1.453263
0.320000	2.187792
0.320100	2.795410
0.320200	3.037224
0.320300	3.134274
0.320400	2.917129
0.320500	3.144012
0.320600	3.272222
0.320700	3.533836
0.320800	3.759422
0.320900	3.967155
0.321000	4.182679
0.321100	4.010325
0.321200	3.905160
0.321300	3.836348
0.321400	3.837322
0.321500	3.943460
0.321600	4.147299
0.321700	4.192092
0.321800	3.883737
0.321900	3.323831
0.322000	3.227754
0.322100	3.676004
0.322200	4.564390
0.322300	4.960059
0.322400	4.837366
0.322500	4.409563
0.322600	4.162555
0.322700	4.446890
0.322800	5.259002
0.322900	5.792298
0.323000	6.083452
0.323100	5.858838
0.323200	5.862408
0.323300	6.028922
0.323400	6.397978
0.323500	6.657649
0.323600	6.703740
0.323700	6.769956
0.323800	6.798196
0.323900	6.872526
0.324000	6.806959
0.324100	6.826110
0.324200	6.746586
0.324300	6.771904
0.324400	6.857595
0.324500	7.033198
0.324600	6.896222
0.324700	6.579098
0.324800	6.447964
0.324900	6.498600
0.325000	6.726137
0.325100	6.842015
0.325200	6.875772
0.325300	7.043261
0.325400	7.062411
0.325500	7.238339
0.325600	7.380185
0.325700	7.556438
0.325800	7.714514
0.325900	7.901479
0.326000	8.170890
0.326100	8.379279
0.326200	8.561052
0.326300	8.781776
0.326400	8.930116
0.326500	8.996982
0.326600	9.007370
0.326700	9.115460
0.326800	9.108968
0.326900	8.988543
0.327000	8.657456
0.327100	7.736586
0.327200	7.390572
0.327300	7.477887
0.327400	8.118956
0.327500	8.043975
0.327600	7.317864
0.327700	6.024702
0.327800	5.101578
0.327900	5.015238
0.328000	5.252835
0.328100	5.193761
0.328200	4.540046
0.328300	3.636404
0.328400	2.916804
0.328500	2.502961
0.328600	2.310809
0.328700	2.007325
0.328800	1.818093
0.328900	1.302982
0.329000	0.902448
0.329100	0.476922
0.329200	0.108522
0.329300	-0.370885
0.329400	-0.564985
0.329500	-0.567906
0.329600	-0.594847
0.329700	-0.583162
0.329800	-0.592250
0.329900	-0.610751
0.330000	-0.601338
0.330100	-0.524088
0.330200	-0.455926
0.330300	-0.427363
0.330400	-0.453329
0.330500	-0.520842
0.330600	-0.579916
0.330700	-0.535124
0.330800	-0.472155
0.330900	-0.421845
0.331000	-0.448136
0.331100	-0.547133
0.331200	-0.617243
0.331300	-0.623085
0.331400	-0.581214
0.331500	-0.551028
0.331600	-0.544212
0.331700	-0.551028
0.331800	-0.584785
0.331900	-0.583811
0.332000	-0.581539
0.332100	-0.570179
0.332200	-0.561415
0.332300	-0.541940
0.332400	-0.516623
0.332500	-0.478322
0.332600	-0.440670
0.332700	-0.450732
0.332800	-0.447162
0.332900	-0.443267
0.333000	-0.392957
0.333100	-0.364394
0.333200	-0.307592
0.333300	-0.317654
0.333400	-0.305969
0.333500	-0.265072
0.333600	-0.254685
0.333700	-0.233263
0.333800	-0.186523
0.333900	-0.177110
0.334000	-0.158933
0.334100	-0.164127
0.334200	-0.164776
0.334300	-0.173215
0.334400	-0.196260
0.334500	-0.205349
0.334600	-0.216060
0.334700	-0.245921
0.334800	-0.261177
0.334900	-0.291687
0.335000	-0.314408
0.335100	-0.345893
0.335200	-0.335831
0.335300	-0.282924
0.335400	-0.195936
0.335500	-0.115440
0.335600	-0.199831
0.335700	-0.278055
0.335800	-0.371859
0.335900	-0.276757
0.336000	-0.196260
0.336100	-0.118361
0.336200	-0.153091
0.336300	-0.196585
0.336400	-0.251439
0.336500	-0.248518
0.336600	-0.139459
0.336700	-0.109597
0.336800	-0.089798
0.336900	-0.105702
0.337000	-0.120633
0.337100	-0.137186
0.337200	-0.144003
0.337300	-0.132642
0.337400	-0.013196
0.337500	0.152989
0.337600	0.173114
0.337700	0.347414
0.337800	0.560989
0.337900	0.736912
0.338000	0.944644
0.338100	1.166982
0.338200	1.504223
0.338300	1.885606
0.338400	2.114112
0.338500	1.685989
0.338600	1.191651
0.338700	1.328299
0.338800	1.822637
0.338900	2.579887
0.339000	2.690245
0.339100	2.314704
0.339200	1.704814
0.339300	1.766160
0.339400	2.377673
0.339500	3.280337
0.339600	3.861990
0.339700	4.043432
0.339800	3.841217
0.339900	3.989227
0.340000	4.162230
0.340100	4.549134
0.340200	4.535177
0.340300	4.589058
0.340400	4.579321
0.340500	4.586137
0.340600	4.641317
0.340700	4.565688
0.340800	4.491034
0.340900	4.507588
0.341000	4.706233
0.341100	4.918512
0.341200	5.049969
0.341300	4.804583
0.341400	4.586137
0.341500	4.561793
0.341600	4.755895
0.341700	5.069120
0.341800	4.964603
0.341900	4.991868
0.342000	5.133388
0.342100	5.160977
0.342200	5.174285
0.342300	5.180777
0.342400	5.211937
0.342500	5.240176
0.342600	5.186944
0.342700	5.189541
0.342800	5.164872
0.342900	5.200901
0.343000	5.266792
0.343100	5.258029
0.343200	5.134361
0.343300	5.023678
0.343400	4.956813
0.343500	4.872746
0.343600	4.500447
0.343700	3.856147
0.343800	3.117072
0.343900	2.987563
0.344000	3.559478
0.344100	4.208321
0.344200	4.114516
0.344300	3.270275
0.344400	2.315677
0.344500	2.069644
0.344600	2.340021
0.344700	2.765549
0.344800	2.701281
0.344900	2.263095
0.345000	1.475335
0.345100	1.045913
0.345200	0.874210
0.345300	0.885246
0.345400	0.656091
0.345500	0.493151
0.345600	0.203949
0.345700	-0.027478
0.345800	-0.110246
0.345900	-0.211840
0.346000	-0.390036
0.346100	-0.548107
0.346200	-0.530255
0.346300	-0.504613
0.346400	-0.501043
0.346500	-0.512078
0.346600	-0.515649
0.346700	-0.526685
0.346800	-0.483515
0.346900	-0.436775
0.347000	-0.462093
0.347100	-0.526360
0.347200	-0.627630
0.347300	-0.674369
0.347400	-0.644183
0.347500	-0.590952
0.347600	-0.592899
0.347700	-0.674369
0.347800	-0.797710
0.347900	-0.896708
0.348000	-0.941500
0.348100	-0.940851
0.348200	-0.971362
0.348300	-1.025892
0.348400	-1.088536
0.348500	-1.133328
0.348600	-1.175199
0.348700	-1.199219
0.348800	-1.214149
0.348900	-1.232001
0.349000	-1.230378
0.349100	-1.193051
0.349200	-1.155725
0.349300	-1.143715
0.349400	-1.143066
0.349500	-1.139495
0.349600	-1.109634
0.349700	-1.065166
0.349800	-1.034980
0.349900	-0.971037
0.350000	-0.984994
0.350100	-0.960002
0.350200	-0.943772
0.350300	-0.912937
0.350400	-0.874961
0.350500	-0.810694
0.350600	-0.793491
0.350700	-0.768498
0.350800	-0.748374
0.350900	-0.736365
0.351000	-0.718512
0.351100	-0.710073
0.351200	-0.686703
0.351300	-0.669176
0.351400	-0.669176
0.351500	-0.655219
0.351600	-0.643534
0.351700	-0.663658
0.351800	-0.642236
0.351900	-0.644183
0.352000	-0.557195
0.352100	-0.471830
0.352200	-0.440021
0.352300	-0.561739
0.352400	-0.618866
0.352500	-0.660737
0.352600	-0.560441
0.352700	-0.453654
0.352800	-0.391334
0.352900	-0.422494
0.353000	-0.479296
0.353100	-0.496823
0.353200	-0.480594
0.353300	-0.393606
0.353400	-0.348489
0.353500	-0.364394
0.353600	-0.376079
0.353700	-0.386141
0.353800	-0.376403
0.353900	-0.348489
0.354000	-0.344919
0.354100	-0.329014
0.354200	-0.330313
0.354300	-0.332585
0.354400	-0.247869
0.354500	-0.387764
0.354600	-0.103430
0.354700	-0.032347
0.354800	0.306192
0.354900	0.664530
0.355000	1.020921
0.355100	1.032930
0.355200	0.525609
0.355300	0.355204
0.355400	0.689847
0.355500	1.430218
0.355600	2.133587
0.355700	2.146246
0.355800	1.692156
0.355900	1.334791
0.356000	1.439306
0.356100	2.083601
0.356200	2.693167
0.356300	2.919725
0.356400	2.652594
0.356500	2.498417
0.356600	2.551649
0.356700	2.632470
0.356800	2.922322
0.356900	2.920374
0.357000	3.054102
0.357100	3.049234
0.357200	3.226781
0.357300	3.400432
0.357400	3.466323
0.357500	3.575383
0.357600	3.694180
0.357700	3.955795
0.357800	4.144702
0.357900	4.263176
0.358000	4.008053
0.358100	3.790582
0.358200	3.820768
0.358300	4.242078
0.358400	4.215137
0.358500	4.106077
0.358600	4.048301
0.358700	4.060311
0.358800	4.179757
0.358900	4.139184
0.359000	4.219357
0.359100	4.234288
0.359200	4.276808
0.359300	4.335233
0.359400	4.387491
0.359500	4.456303
0.359600	4.542318
0.359700	4.552380
0.359800	4.613727
0.359900	4.656572
0.360000	4.608533
0.360100	4.526738
0.360200	4.447215
0.360300	4.010000
0.360400	3.118694
0.360500	2.499716
0.360600	2.403315
0.360700	2.908689
0.360800	3.134274
0.360900	2.649997
0.361000	1.455535
0.361100	0.465886
0.361200	-0.005082
0.361300	0.088073
0.361400	0.122803
0.361500	-0.288442
0.361600	-1.012259
0.361700	-1.125214
0.361800	-1.168383
0.361900	-1.190130
0.362000	-1.176173
0.362100	-1.188507
0.362200	-1.231028
0.362300	-1.265758
0.362400	-1.304059
0.362500	-1.317367
0.362600	-1.362159
0.362700	-1.416689
0.362800	-1.463104
0.362900	-1.493290
0.363000	-1.522827
0.363100	-1.539056
0.363200	-1.560479
0.363300	-1.602674
0.363400	-1.602350
0.363500	-1.547495
0.363600	-1.501080
0.363700	-1.548145
0.363800	-1.617605
0.363900	-1.720823
0.364000	-1.722445
0.364100	-1.663047
0.364200	-1.603324
0.364300	-1.622799
0.364400	-1.724718
0.364500	-1.830207
0.364600	-1.901940
0.364700	-1.885386
0.364800	-1.857472
0.364900	-1.869481
0.365000	-1.893825
0.365100	-1.920441
0.365200	-1.953873
0.365300	-1.946408
0.365400	-1.932451
0.365500	-1.912326
0.365600	-1.896097
0.365700	-1.862665
0.365800	-1.794827
0.365900	-1.746789
0.366000	-1.707190
0.366100	-1.692908
0.366200	-1.674407
0.366300	-1.606894
0.366400	-1.542627
0.366500	-1.475438
0.366600	-1.421882
0.366700	-1.397863
0.366800	-1.368326
0.366900	-1.323209
0.367000	-1.269328
0.367100	-1.212202
0.367200	-1.184937
0.367300	-1.162541
0.367400	-1.159944
0.367500	-1.154426
0.367600	-1.143715
0.367700	-1.165787
0.367800	-1.127810
0.367900	-1.143390
0.368000	-1.121643
0.368100	-1.113529
0.368200	-1.112880
0.368300	-1.088861
0.368400	-1.114178
0.368500	-1.073930
0.368600	-1.074904
0.368700	-0.965519
0.368800	-0.896383
0.368900	-0.939228
0.369000	-1.092431
0.369100	-1.170980
0.369200	-1.188183
0.369300	-1.112231
0.369400	-1.026541
0.369500	-1.004794
0.369600	-1.060947
0.369700	-1.143715
0.369800	-1.154751
0.369900	-1.124565
0.370000	-1.058350
0.370100	-1.022321
0.370200	-1.012908
0.370300	-1.014856
0.370400	-1.016154
0.370500	-1.005768
0.370600	-0.977529
0.370700	-0.974932
0.370800	-0.967467
0.370900	-0.973634
0.371000	-0.946044
0.371100	-0.912613
0.371200	-0.929166
0.371300	-0.932737
0.371400	-0.947018
0.371500	-0.910665
0.371600	-0.884374
0.371700	-0.833739
0.371800	-0.890866
0.371900	-0.947667
0.372000	-0.971037
0.372100	-0.938904
0.372200	-0.880154
0.372300	-0.851591
0.372400	-0.882426
0.372500	-0.976555
0.372600	-1.043419
0.372700	-1.046665
0.372800	-0.964870
0.372900	-0.845099
0.373000	-0.768174
0.373100	-1.009663
0.373200	-1.061920
0.373300	-1.057376
0.373400	-0.900928
0.373500	-0.616918
0.373600	-0.576346
0.373700	-0.579916
0.373800	-0.455926
0.373900	-0.151793
0.374000	0.169543
0.374100	0.343843
0.374200	0.486984
0.374300	0.778783
0.374400	0.974505
0.374500	1.285130
0.374600	1.298763
0.374700	0.959250
0.374800	0.846620
0.374900	0.925169
0.375000	1.000797
0.375100	0.958276
0.375200	0.875833
0.375300	0.931985
0.375400	0.833637
0.375500	0.720358
0.375600	0.540215
0.375700	0.481466
0.375800	0.245171
0.375900	0.053343
0.376000	0.008226
0.376100	-0.178408
0.376200	-0.266370
0.376300	-0.421845
0.376400	-0.605883
0.376500	-0.735066
0.376600	-0.918455
0.376700	-1.099247
0.376800	-1.325806
0.376900	-1.373519
0.377000	-1.463753
0.377100	-1.602025
0.377200	-1.656880
0.377300	-1.619553
0.377400	-1.543600
0.377500	-1.533214
0.377600	-1.612737
0.377700	-1.733157
0.377800	-1.786713
0.377900	-1.761720
0.378000	-1.694856
0.378100	-1.640651
0.378200	-1.679601
0.378300	-1.719849
0.378400	-1.766264
0.378500	-1.760746
0.378600	-1.732832
0.378700	-1.706865
0.378800	-1.685768
0.378900	-1.695505
0.379000	-1.716278
0.379100	-1.714980
0.379200	-1.712059
0.379300	-1.707190
0.379400	-1.717901
0.379500	-1.718875
0.379600	-1.725042
0.379700	-1.723744
0.379800	-1.738675
0.379900	-1.776651
0.380000	-1.796775
0.380100	-1.778923
0.380200	-1.707515
0.380300	-1.691610
0.380400	-1.733481
0.380500	-1.825987
0.380600	-1.874350
0.380700	-1.858446
0.380800	-1.801319
0.380900	-1.760746
0.381000	-1.796126
0.381100	-1.878245
0.381200	-1.961014
0.381300	-1.973673
0.381400	-1.944785
0.381500	-1.913300
0.381600	-1.919143
0.381700	-1.947057
0.381800	-1.974971
0.381900	-1.995095
0.382000	-2.020737
0.382100	-2.039887
0.382200	-2.070074
0.382300	-2.070723
0.382400	-2.037291
0.382500	-1.999639
0.382600	-1.984708
0.382700	-1.985033
0.382800	-1.973997
0.382900	-1.927582
0.383000	-1.875973
0.383100	-1.821119
0.383200	-1.741596
0.383300	-1.745166
0.383400	-1.730885
0.383500	-1.701348
0.383600	-1.656555
0.383700	-1.618254
0.383800	-1.565023
0.383900	-1.537758
0.384000	-1.521529
0.384100	-1.513739
0.384200	-1.510818
0.384300	-1.505300
0.384400	-1.506598
0.384500	-1.488421
0.384600	-1.462779
0.384700	-1.477386
0.384800	-1.462130
0.384900	-1.469271
0.385000	-1.488746
0.385100	-1.484526
0.385200	-1.490044
0.385300	-1.418636
0.385400	-1.346903
0.385500	-1.248880
0.385600	-1.341386
0.385700	-1.414417
0.385800	-1.440383
0.385900	-1.387152
0.386000	-1.266083
0.386100	-1.211553
0.386200	-1.197271
0.386300	-1.246608
0.386400	-1.271600
0.386500	-1.231352
0.386600	-1.171954
0.386700	-1.089185
0.386800	-1.103142
0.386900	-1.077825
0.387000	-1.090808
0.387100	-1.073605
0.387200	-1.068737
0.387300	-1.045042
0.387400	-1.032708
0.387500	-1.016154
0.387600	-0.998627
0.387700	-0.988240
0.387800	-0.957729
0.387900	-0.993109
0.388000	-0.983047
0.388100	-0.971686
0.388200	-0.930465
0.388300	-0.890216
0.388400	-0.892813
0.388500	-0.941500
0.388600	-1.003171
0.388700	-0.992460
0.388800	-0.944422
0.388900	-0.850942
0.389000	-0.864574
0.389100	-0.938904
0.389200	-1.023620
0.389300	-1.058025
0.389400	-1.033357
0.389500	-0.954159
0.389600	-0.797710
0.389700	-1.076202
0.389800	-1.025892
0.389900	-1.043095
0.390000	-1.039200
0.390100	-0.771744
0.390200	-0.762656
0.390300	-0.681186
0.390400	-0.691248
0.390500	-0.695792
0.390600	-0.718188
0.390700	-0.740259
0.390800	-0.863276
0.390900	-0.848021
0.391000	-0.594847
0.391100	-0.304995
0.391200	-0.154714
0.391300	-0.410809
0.391400	-0.705529
0.391500	-0.872364
0.391600	-0.481568
0.391700	0.023157
0.391800	-0.103430
0.391900	0.010498
0.392000	0.249390
0.392100	0.343519
0.392200	0.557418
0.392300	0.876482
0.392400	1.005990
0.392500	1.291297
0.392600	1.383803
0.392700	1.524996
0.392800	1.648986
0.392900	1.802513
0.393000	1.949874
0.393100	2.024203
0.393200	2.047573
0.393300	2.035563
0.393400	2.025826
0.393500	1.994341
0.393600	1.656776
0.393700	1.076100
0.393800	0.150393
0.393900	0.060159
0.394000	0.549304
0.394100	1.153025
0.394200	0.936205
0.394300	0.103004
0.394400	-0.893138
0.394500	-1.078799
0.394600	-0.863601
0.394700	-0.476050
0.394800	-0.623735
0.394900	-1.047639
0.395000	-1.135600
0.395100	-1.183314
0.395200	-1.192727
0.395300	-1.156698
0.395400	-1.176498
0.395500	-1.202464
0.395600	-1.232975
0.395700	-1.251476
0.395800	-1.257968
0.395900	-1.272250
0.396000	-1.306331
0.396100	-1.333920
0.396200	-1.369300
0.396300	-1.404679
0.396400	-1.422856
0.396500	-1.480631
0.396600	-1.521529
0.396700	-1.545873
0.396800	-1.524125
0.396900	-1.494264
0.397000	-1.527696
0.397100	-1.623448
0.397200	-1.732832
0.397300	-1.788985
0.397400	-1.753281
0.397500	-1.698751
0.397600	-1.694207
0.397700	-1.779247
0.397800	-1.890904
0.397900	-1.977568
0.398000	-1.983735
0.398100	-1.956470
0.398200	-1.957119
0.398300	-2.003210
0.398400	-2.045730
0.398500	-2.081434
0.398600	-2.085978
0.398700	-2.084031
0.398800	-2.071697
0.398900	-2.065854
0.399000	-2.026580
0.399100	-1.972050
0.399200	-1.916546
0.399300	-1.877921
0.399400	-1.877921
0.399500	-1.890904
0.399600	-1.856823
0.399700	-1.797749
0.399800	-1.774703
0.399900	-1.702646
0.400000	-1.711410
0.400100	-1.701672
0.400200	-1.689338
0.400300	-1.659476
0.400400	-1.622149
0.400500	-1.593586
0.400600	-1.578331
0.400700	-1.593586
0.400800	-1.600078
0.400900	-1.625395
0.401000	-1.637405
0.401100	-1.650388
0.401200	-1.666293
0.401300	-1.677004
0.401400	-1.701348
0.401500	-1.691935
0.401600	-1.703620
0.401700	-1.732183
0.401800	-1.723419
0.401900	-1.739648
0.402000	-1.676030
0.402100	-1.561128
0.402200	-1.535810
0.402300	-1.661099
0.402400	-1.710436
0.402500	-1.738025
0.402600	-1.604947
0.402700	-1.503352
0.402800	-1.417013
0.402900	-1.445901
0.403000	-1.514713
0.403100	-1.506923
0.403200	-1.458235
0.403300	-1.361510
0.403400	-1.300488
0.403500	-1.299190
0.403600	-1.286856
0.403700	-1.294321
0.403800	-1.268679
0.403900	-1.227133
0.404000	-1.215448
0.404100	-1.180068
0.404200	-1.178121
0.404300	-1.165462
0.404400	-1.158646
0.404500	-1.182665
0.404600	-1.147935
0.404700	-1.182665
0.404800	-1.185262
0.404900	-1.141443
0.405000	-1.137223
0.405100	-1.140469
0.405200	-1.255371
0.405300	-1.295619
0.405400	-1.294646
0.405500	-1.229080
0.405600	-1.142417
0.405700	-1.179094
0.405800	-1.263810
0.405900	-1.357290
0.406000	-1.346254
0.406100	-1.277443
0.406200	-1.202789
0.406300	-1.162541
0.406400	-1.179094
0.406500	-1.194350
0.406600	-1.167409
0.406700	-1.144040
0.406800	-0.977854
0.406900	-0.904823
0.407000	-0.745128
0.407100	-0.512078
0.407200	-0.294609
0.407300	-0.030399
0.407400	0.061133
0.407500	0.098460
0.407600	0.110145
0.407700	0.251338
0.407800	0.420120
0.407900	0.318526
0.408000	-0.178084
0.408100	-0.429635
0.408200	-0.546160
0.408300	-0.363420
0.408400	-0.391983
0.408500	-0.605558
0.408600	-0.692221
0.408700	-0.792517
0.408800	-0.692546
0.408900	-0.775639
0.409000	-0.751620
0.409100	-0.616269
0.409200	-0.498121
0.409300	-0.336480
0.409400	-0.253711
0.409500	-0.180680
0.409600	0.072818
0.409700	0.219853
0.409800	0.308464
0.409900	0.254259
0.410000	0.303595
0.410100	0.067300
0.410200	0.060484
0.410300	-0.380947
0.410400	-1.162216
0.410500	-1.319314
0.410600	-1.262512
0.410700	-1.003171
0.410800	-0.725329
0.410900	-1.026541
0.411000	-1.289452
0.411100	-1.384230
0.411200	-1.381958
0.411300	-1.326130
0.411400	-1.264784
0.411500	-1.293347
0.411600	-1.356316
0.411700	-1.443954
0.411800	-1.479658
0.411900	-1.456612
0.412000	-1.436488
0.412100	-1.444927
0.412200	-1.469596
0.412300	-1.492966
0.412400	-1.512441
0.412500	-1.539705
0.412600	-1.570216
0.412700	-1.607543
0.412800	-1.649414
0.412900	-1.681548
0.413000	-1.678627
0.413100	-1.729586
0.413200	-1.764317
0.413300	-1.830856
0.413400	-1.828259
0.413500	-1.819496
0.413600	-1.800021
0.413700	-1.874999
0.413800	-1.983085
0.413900	-2.090847
0.414000	-2.128499
0.414100	-2.092145
0.414200	-2.032422
0.414300	-2.011324
0.414400	-2.086303
0.414500	-2.185625
0.414600	-2.219057
0.414700	-2.184002
0.414800	-2.125902
0.414900	-2.106427
0.415000	-2.072995
0.415100	-2.078188
0.415200	-2.083057
0.415300	-2.058713
0.415400	-2.026904
0.415500	-2.000938
0.415600	-1.972374
0.415700	-1.929529
0.415800	-1.881166
0.415900	-1.842866
0.416000	-1.819820
0.416100	-1.817548
0.416200	-1.811381
0.416300	-1.761071
0.416400	-1.696154
0.416500	-1.583200
0.416600	-1.565997
0.416700	-1.553987
0.416800	-1.535810
0.416900	-1.510168
0.417000	-1.451744
0.417100	-1.419285
0.417200	-1.375142
0.417300	-1.345930
0.417400	-1.321586
0.417500	-1.287180
0.417600	-1.292698
0.417700	-1.277767
0.417800	-1.248555
0.417900	-1.253424
0.418000	-1.227133
0.418100	-1.208307
0.418200	-1.202789
0.418300	-1.186884
0.418400	-1.184288
0.418500	-1.150856
0.418600	-1.106388
0.418700	-0.992135
0.418800	-0.894436
0.418900	-0.932412
0.419000	-1.028813
0.419100	-1.095352
0.419200	-1.052832
0.419300	-1.029787
0.419400	-0.910016
0.419500	-0.935333
0.419600	-0.976555
0.419700	-1.058674
0.419800	-1.051209
0.419900	-1.013882
0.420000	-0.925920
0.420100	-0.884698
0.420200	-0.859056
0.420300	-0.860030
0.420400	-0.845749
0.420500	-0.795114
0.420600	-0.780183
0.420700	-0.753892
0.420800	-0.724030
0.420900	-0.726302
0.421000	-0.707801
0.421100	-0.705529
0.421200	-0.738961
0.421300	-0.755515
0.421400	-0.746102
0.421500	-0.749023
0.421600	-0.720785
0.421700	-0.717863
0.421800	-0.738961
0.421900	-0.871066
0.422000	-0.881777
0.422100	-0.853863
0.422200	-0.782131
0.422300	-0.696766
0.422400	-0.812317
0.422500	-0.900603
0.422600	-0.962923
0.422700	-0.938255
0.422800	-0.750646
0.422900	-0.162179
0.423000	-0.158933
0.423100	-0.353358
0.423200	-0.369912
0.423300	-0.144652
0.423400	0.086450
0.423500	0.467509
0.423600	0.620712
0.423700	0.684654
0.423800	0.733341
0.423900	1.072854
0.424000	1.326352
0.424100	1.490266
0.424200	1.571736
0.424300	1.777845
0.424400	1.950847
0.424500	2.231286
0.424600	2.168317
0.424700	1.834972
0.424800	1.687611
0.424900	1.638600
0.425000	1.867105
0.425100	1.822313
0.425200	1.704165
0.425300	1.677225
0.425400	1.644442
0.425500	1.664891
0.425600	1.802513
0.425700	1.968699
0.425800	2.126771
0.425900	2.234532
0.426000	2.319572
0.426100	2.407210
0.426200	2.523085
0.426300	2.635066
0.426400	2.795086
0.426500	2.901873
0.426600	2.820728
0.426700	2.764575
0.426800	2.613969
0.426900	2.539639
0.427000	1.938513
0.427100	1.078372
0.427200	0.685628
0.427300	1.082591
0.427400	1.721043
0.427500	1.844060
0.427600	1.113102
0.427700	-0.090447
0.427800	-0.767200
0.427900	-0.844775
0.428000	-0.514675
0.428100	-0.494551
0.428200	-1.123591
0.428300	-1.117099
0.428400	-1.203114
0.428500	-1.237519
0.428600	-1.238493
0.428700	-1.236870
0.428800	-1.264460
0.428900	-1.283285
0.429000	-1.316068
0.429100	-1.321911
0.429200	-1.322884
0.429300	-1.332297
0.429400	-1.347553
0.429500	-1.380335
0.429600	-1.357290
0.429700	-1.365080
0.429800	-1.389424
0.429900	-1.423830
0.430000	-1.453691
0.430100	-1.440059
0.430200	-1.367352
0.430300	-1.318989
0.430400	-1.386178
0.430500	-1.462779
0.430600	-1.526722
0.430700	-1.471868
0.430800	-1.371247
0.430900	-1.303085
0.431000	-1.297242
0.431100	-1.361510
0.431200	-1.429023
0.431300	-1.442006
0.431400	-1.400460
0.431500	-1.356316
0.431600	-1.339763
0.431700	-1.337491
0.431800	-1.371896
0.431900	-1.365080
0.432000	-1.373519
0.432100	-1.356966
0.432200	-1.340736
0.432300	-1.311849
0.432400	-1.257643
0.432500	-1.215448
0.432600	-1.173901
0.432700	-1.161242
0.432800	-1.151505
0.432900	-1.120994
0.433000	-1.052507
0.433100	-1.009663
0.433200	-0.933061
0.433300	-0.900603
0.433400	-0.869119
0.433500	-0.831792
0.433600	-0.768174
0.433700	-0.713968
0.433800	-0.634121
0.433900	-0.583486
0.434000	-0.524088
0.434100	-0.503639
0.434200	-0.444890
0.434300	-0.453654
0.434400	-0.435802
0.434500	-0.417950
0.434600	-0.407888
0.434700	-0.398475
0.434800	-0.363095
0.434900	-0.362771
0.435000	-0.335181
0.435100	-0.347191
0.435200	-0.320575
0.435300	-0.267993
0.435400	-0.163802
0.435500	-0.123229
0.435600	-0.170294
0.435700	-0.287468
0.435800	-0.293310
0.435900	-0.292337
0.436000	-0.186198
0.436100	-0.141406
0.436200	-0.133616
0.436300	-0.214437
0.436400	-0.264423
0.436500	-0.238131
0.436600	-0.173215
0.436700	-0.066428
0.436800	-0.032671
0.436900	-0.042084
0.437000	0.034842
0.437100	0.086126
0.437200	0.383442
0.437300	0.725551
0.437400	1.075126
0.437500	1.366600
0.437600	1.391593
0.437700	1.640547
0.437800	1.701244
0.437900	1.730456
0.438000	1.908652
0.438100	1.925530
0.438200	2.246541
0.438300	2.396498
0.438400	2.613969
0.438500	2.056661
0.438600	1.792451
0.438700	1.895668
0.438800	2.337424
0.438900	3.144012
0.439000	3.328700
0.439100	3.071305
0.439200	2.658436
0.439300	2.765873
0.439400	3.330647
0.439500	4.113867
0.439600	4.742262
0.439700	4.886054
0.439800	4.768229
0.439900	4.848077
0.440000	4.942531
0.440100	5.315156
0.440200	5.457324
0.440300	5.524514
0.440400	5.589756
0.440500	5.623513
0.440600	5.799763
0.440700	5.848776
0.440800	5.825730
0.440900	5.861110
0.441000	6.022754
0.441100	6.292162
0.441200	6.335008
0.441300	6.088970
0.441400	5.739390
0.441500	5.659217
0.441600	5.634548
0.441700	5.783858
0.441800	5.548208
0.441900	5.356703
0.442000	5.370335
0.442100	5.358650
0.442200	5.392082
0.442300	5.418049
0.442400	5.346316
0.442500	5.351509
0.442600	5.299251
0.442700	5.418049
0.442800	5.408636
0.442900	5.400197
0.443000	5.464790
0.443100	5.504714
0.443200	5.508934
0.443300	5.370660
0.443400	5.325542
0.443500	5.239203
0.443600	4.978236
0.443700	4.158660
0.443800	3.445225
0.443900	3.292995
0.444000	3.898343
0.444100	4.375482
0.444200	4.266097
0.444300	3.310523
0.444400	2.274456
0.444500	1.739544
0.444600	1.736948
0.444700	2.045301
0.444800	1.959286
0.444900	1.209827
0.445000	0.425638
0.445100	-0.205024
0.445200	-0.438398
0.445300	-0.712995
0.445400	-0.817510
0.445500	-0.836660
0.445600	-0.892488
0.445700	-0.922025
0.445800	-0.929491
0.445900	-0.957080
0.446000	-0.983047
0.446100	-1.028164
0.446200	-1.038226
0.446300	-1.046340
0.446400	-1.072956
0.446500	-1.106713
0.446600	-1.141443
0.446700	-1.149882
0.446800	-1.113853
0.446900	-1.065815
0.447000	-1.077500
0.447100	-1.145987
0.447200	-1.223562
0.447300	-1.265433
0.447400	-1.203438
0.447500	-1.128460
0.447600	-1.128784
0.447700	-1.183639
0.447800	-1.269004
0.447900	-1.345281
0.448000	-1.365080
0.448100	-1.332297
0.448200	-1.314445
0.448300	-1.345281
0.448400	-1.381309
0.448500	-1.383257
0.448600	-1.387476
0.448700	-1.385529
0.448800	-1.377739
0.448900	-1.381634
0.449000	-1.358264
0.449100	-1.326455
0.449200	-1.305682
0.449300	-1.271600
0.449400	-1.260565
0.449500	-1.247581
0.449600	-1.198569
0.449700	-1.127810
0.449800	-1.057701
0.449900	-0.957729
0.450000	-0.929815
0.450100	-0.903849
0.450200	-0.843801
0.450300	-0.801930
0.450400	-0.743181
0.450500	-0.683133
0.450600	-0.656517
0.450700	-0.616269
0.450800	-0.604584
0.450900	-0.588031
0.451000	-0.578293
0.451100	-0.568880
0.451200	-0.552002
0.451300	-0.525711
0.451400	-0.506236
0.451500	-0.511105
0.451600	-0.504938
0.451700	-0.520193
0.451800	-0.507534
0.451900	-0.473129
0.452000	-0.373482
0.452100	-0.278055
0.452200	-0.231640
0.452300	-0.364718
0.452400	-0.405291
0.452500	-0.431258
0.452600	-0.346217
0.452700	-0.238131
0.452800	-0.215411
0.452900	-0.245597
0.453000	-0.363745
0.453100	-0.367640
0.453200	-0.354656
0.453300	-0.255983
0.453400	-0.261177
0.453500	-0.251439
0.453600	-0.277081
0.453700	-0.249816
0.453800	-0.248518
0.453900	-0.199506
0.454000	-0.166074
0.454100	0.088398
0.454200	0.380846
0.454300	0.785599
0.454400	1.182562
0.454500	1.305254
0.454600	1.565893
0.454700	1.641845
0.454800	1.733053
0.454900	2.099506
0.455000	2.284842
0.455100	2.294580
0.455200	1.856394
0.455300	1.543822
0.455400	1.804785
0.455500	2.349109
0.455600	3.139468
0.455700	3.029434
0.455800	2.683429
0.455900	2.190713
0.456000	2.515945
0.456100	3.206007
0.456200	3.935670
0.456300	4.183328
0.456400	3.955795
0.456500	3.745789
0.456600	3.851928
0.456700	4.129772
0.456800	4.493306
0.456900	4.614701
0.457000	4.720191
0.457100	4.803284
0.457200	5.146696
0.457300	5.414479
0.457400	5.453429
0.457500	5.609880
0.457600	5.763085
0.457700	5.969197
0.457800	6.249966
0.457900	6.408040
0.458000	6.128570
0.458100	6.028272
0.458200	6.102278
0.458300	6.520348
0.458400	6.727435
0.458500	6.720619
0.458600	6.776448
0.458700	6.994248
0.458800	7.067280
0.458900	6.976395
0.459000	7.113697
0.459100	7.120188
0.459200	7.224382
0.459300	7.374342
0.459400	7.310398
0.459500	7.330198
0.459600	7.343506
0.459700	7.229251
0.459800	7.159464
0.459900	7.113697
0.460000	7.126356
0.460100	6.961139
0.460200	6.874149
0.460300	6.196409
0.460400	5.349237
0.460500	4.688706
0.460600	4.781862
0.460700	5.463167
0.460800	5.948749
0.460900	5.675771
0.461000	4.656247
0.461100	3.911651
0.461200	3.895747
0.461300	4.258956
0.461400	4.398527
0.461500	4.121657
0.461600	3.337139
0.461700	2.549701
0.461800	2.238102
0.461900	2.015439
0.462000	1.966103
0.462100	1.669110
0.462200	1.396137
0.462300	0.804100
0.462400	0.235433
0.462500	-0.071296
0.462600	-0.457224
0.462700	-0.630226
0.462800	-0.663334
0.462900	-0.703257
0.463000	-0.722083
0.463100	-0.725004
0.463200	-0.755190
0.463300	-0.767849
0.463400	-0.729548
0.463500	-0.647104
0.463600	-0.601014
0.463700	-0.620489
0.463800	-0.687028
0.463900	-0.770121
0.464000	-0.756164
0.464100	-0.675992
0.464200	-0.595821
0.464300	-0.590627
0.464400	-0.675343
0.464500	-0.792517
0.464600	-0.845099
0.464700	-0.818808
0.464800	-0.774665
0.464900	-0.757462
0.465000	-0.774665
0.465100	-0.816536
0.465200	-0.834388
0.465300	-0.830169
0.465400	-0.812641
0.465500	-0.788622
0.465600	-0.774341
0.465700	-0.729548
0.465800	-0.673071
0.465900	-0.629902
0.466000	-0.617243
0.466100	-0.595821
0.466200	-0.563362
0.466300	-0.508508
0.466400	-0.437749
0.466500	-0.396852
0.466600	-0.332260
0.466700	-0.321549
0.466800	-0.297854
0.466900	-0.267668
0.467000	-0.222227
0.467100	-0.185874
0.467200	-0.152117
0.467300	-0.119984
0.467400	-0.118036
0.467500	-0.100833
0.467600	-0.100833
0.467700	-0.090771
0.467800	-0.084929
0.467900	-0.056366
0.468000	-0.054418
0.468100	-0.045979
0.468200	-0.066752
0.468300	-0.057989
0.468400	-0.108948
0.468500	-0.102781
0.468600	-0.060261
0.468700	0.000761
0.468800	0.119558
0.468900	0.037114
0.469000	-0.007029
0.469100	-0.134590
0.469200	-0.091420
0.469300	-0.062857
0.469400	0.053018
0.469500	0.036789
0.469600	-0.009301
0.469700	-0.073893
0.469800	-0.084280
0.469900	-0.034943
0.470000	0.029648
0.470100	0.236082
0.470200	0.175061
0.470300	0.162402
0.470400	0.107873
0.470500	0.130269
0.470600	0.339948
0.470700	0.658363
0.470800	0.867069
0.470900	1.001121
0.471000	1.203011
0.471100	1.119918
0.471200	1.332194
0.471300	1.465273
0.471400	1.521750
0.471500	1.713903
0.471600	1.987200
0.471700	2.070943
0.471800	1.868079
0.471900	1.226381
0.472000	1.095574
0.472100	1.435411
0.472200	2.083926
0.472300	2.467257
0.472400	2.263095
0.472500	1.809005
0.472600	1.582771
0.472700	1.925205
0.472800	2.778207
0.472900	3.460480
0.473000	3.502676
0.473100	3.331621
0.473200	3.210876
0.473300	3.205358
0.473400	3.298838
0.473500	3.452366
0.473600	3.382256
0.473700	3.421206
0.473800	3.228403
0.473900	3.235869
0.474000	3.102465
0.474100	2.975878
0.474200	3.016451
0.474300	3.122914
0.474400	3.310198
0.474500	3.488394
0.474600	3.410170
0.474700	3.176470
0.474800	3.097272
0.474900	3.252098
0.475000	3.636729
0.475100	3.649063
0.475200	3.713331
0.475300	3.747412
0.475400	3.687364
0.475500	3.722744
0.475600	3.670810
0.475700	3.599402
0.475800	3.672758
0.475900	3.553636
0.476000	3.471841
0.476100	3.262485
0.476200	3.125835
0.476300	3.036900
0.476400	2.875907
0.476500	2.614618
0.476600	2.495821
0.476700	2.349759
0.476800	2.003105
0.476900	1.807058
0.477000	1.003393
0.477100	0.140006
0.477200	-0.276432
0.477300	0.007577
0.477400	0.484387
0.477500	0.762878
0.477600	-0.045979
0.477700	-1.071982
0.477800	-1.185586
0.477900	-1.175199
0.478000	-1.075553
0.478100	-1.058999
0.478200	-1.056078
0.478300	-1.099896
0.478400	-1.145338
0.478500	-1.138522
0.478600	-1.121968
0.478700	-1.101519
0.478800	-1.100221
0.478900	-1.120345
0.479000	-1.132030
0.479100	-1.150207
0.479200	-1.153128
0.479300	-1.178121
0.479400	-1.167085
0.479500	-1.184937
0.479600	-1.175199
0.479700	-1.175199
0.479800	-1.198569
0.479900	-1.221615
0.480000	-1.210904
0.480100	-1.179094
0.480200	-1.076202
0.480300	-1.057701
0.480400	-1.086589
0.480500	-1.170980
0.480600	-1.246283
0.480700	-1.201491
0.480800	-1.116126
0.480900	-1.075228
0.481000	-1.093729
0.481100	-1.192727
0.481200	-1.281013
0.481300	-1.306331
0.481400	-1.277767
0.481500	-1.256345
0.481600	-1.262188
0.481700	-1.265433
0.481800	-1.287180
0.481900	-1.290426
0.482000	-1.291725
0.482100	-1.296593
0.482200	-1.293347
0.482300	-1.268030
0.482400	-1.239467
0.482500	-1.197596
0.482600	-1.195324
0.482700	-1.196297
0.482800	-1.222913
0.482900	-1.241414
0.483000	-1.194999
0.483100	-1.159944
0.483200	-1.090808
0.483300	-1.073281
0.483400	-1.063868
0.483500	-1.028488
0.483600	-0.997004
0.483700	-0.931114
0.483800	-0.873014
0.483900	-0.842503
0.484000	-0.815887
0.484100	-0.805825
0.484200	-0.797386
0.484300	-0.810045
0.484400	-0.800307
0.484500	-0.779209
0.484600	-0.731171
0.484700	-0.735715
0.484800	-0.705529
0.484900	-0.703582
0.485000	-0.712345
0.485100	-0.684107
0.485200	-0.686379
0.485300	-0.596145
0.485400	-0.498446
0.485500	-0.360823
0.485600	-0.453005
0.485700	-0.533176
0.485800	-0.569529
0.485900	-0.511429
0.486000	-0.385167
0.486100	-0.301749
0.486200	-0.303697
0.486300	-0.381597
0.486400	-0.444565
0.486500	-0.439048
0.486600	-0.387764
0.486700	-0.339076
0.486800	-0.345568
0.486900	-0.357253
0.487000	-0.365367
0.487100	-0.411458
0.487200	-0.407238
0.487300	-0.387439
0.487400	-0.381921
0.487500	-0.382895
0.487600	-0.381921
0.487700	-0.361148
0.487800	-0.383219
0.487900	-0.255334
0.488000	-0.211191
0.488100	0.063080
0.488200	0.407137
0.488300	0.777160
0.488400	1.107584
0.488500	0.774563
0.488600	0.487633
0.488700	0.644406
0.488800	1.347450
0.488900	2.237778
0.489000	2.458494
0.489100	2.231286
0.489200	1.913845
0.489300	1.831401
0.489400	2.449081
0.489500	3.244633
0.489600	3.733455
0.489700	3.639001
0.489800	3.389721
0.489900	3.410494
0.490000	3.456261
0.490100	3.743842
0.490200	3.855823
0.490300	3.771107
0.490400	3.758448
0.490500	3.813952
0.490600	3.893150
0.490700	3.917494
0.490800	3.836348
0.490900	3.911002
0.491000	4.072645
0.491100	4.307968
0.491200	4.568610
0.491300	4.430012
0.491400	4.204426
0.491500	4.125227
0.491600	4.235911
0.491700	4.558872
0.491800	4.668257
0.491900	4.826330
0.492000	5.019134
0.492100	5.101254
0.492200	5.303795
0.492300	5.528733
0.492400	5.678043
0.492500	5.746531
0.492600	6.052941
0.492700	6.184074
0.492800	6.383047
0.492900	6.409988
0.493000	6.532682
0.493100	6.636875
0.493200	6.708609
0.493300	6.679721
0.493400	6.799819
0.493500	6.710557
0.493600	6.631681
0.493700	5.905254
0.493800	5.257055
0.493900	5.049969
0.494000	5.659542
0.494100	6.093514
0.494200	5.899087
0.494300	5.034389
0.494400	3.964883
0.494500	3.481254
0.494600	3.616929
0.494700	4.067451
0.494800	3.938592
0.494900	3.415363
0.495000	2.627276
0.495100	2.141052
0.495200	1.907353
0.495300	1.951496
0.495400	1.869702
0.495500	1.584070
0.495600	1.177694
0.495700	0.994630
0.495800	0.867069
0.495900	0.759308
0.496000	0.400970
0.496100	0.002059
0.496200	-0.334208
0.496300	-0.505262
0.496400	-0.520518
0.496500	-0.581864
0.496600	-0.601663
0.496700	-0.628928
0.496800	-0.594847
0.496900	-0.563687
0.497000	-0.573424
0.497100	-0.649052
0.497200	-0.751944
0.497300	-0.816536
0.497400	-0.798035
0.497500	-0.727925
0.497600	-0.730847
0.497700	-0.805176
0.497800	-0.917157
0.497900	-0.997978
0.498000	-1.018426
0.498100	-0.997978
0.498200	-0.979476
0.498300	-1.005768
0.498400	-1.057052
0.498500	-1.090484
0.498600	-1.102493
0.498700	-1.114503
0.498800	-1.119371
0.498900	-1.148259
0.499000	-1.135925
0.499100	-1.112231
0.499200	-1.101519
0.499300	-1.112880
0.499400	-1.128784
0.499500	-1.136250
0.499600	-1.132355
0.499700	-1.092106
0.499800	-1.082369
0.499900	-1.015505
0.500000	-1.021348
0.500100	-1.020374
0.500200	-0.996355
0.500300	-0.983047
0.500400	-0.966818
0.500500	-0.933710
0.500600	-0.950264
0.500700	-0.961300
0.500800	-0.970064
0.500900	-0.998302
0.501000	-1.015830
0.501100	-1.022970
0.501200	-1.005443
0.501300	-1.012908
0.501400	-1.025243
0.501500	-0.998627
0.501600	-1.017128
0.501700	-0.997978
0.501800	-1.012584
0.501900	-0.983047
0.502000	-0.919753
0.502100	-0.813290
0.502200	-0.785376
0.502300	-0.913586
0.502400	-0.985968
0.502500	-1.025892
0.502600	-0.953185
0.502700	-0.865548
0.502800	-0.827247
0.502900	-0.884698
0.503000	-0.998951
0.503100	-1.000899
0.503200	-0.957729
0.503300	-0.899954
0.503400	-0.823677
0.503500	-0.833415
0.503600	-0.824326
0.503700	-0.867496
0.503800	-0.849319
0.503900	-0.858732
0.504000	-0.848345
0.504100	-0.819782
0.504200	-0.814264
0.504300	-0.785052
0.504400	-0.777262
0.504500	-0.824975
0.504600	-0.827897
0.504700	-0.848021
0.504800	-0.868145
0.504900	-0.860030
0.505000	-0.839257
0.505100	-0.833415
0.505200	-0.924297
0.505300	-0.957405
0.505400	-0.925596
0.505500	-0.846722
0.505600	-0.598093
0.505700	-0.497797
0.505800	-0.931114
0.505900	-0.843477
0.506000	-0.826923
0.506100	-0.169645
0.506200	0.542812
0.506300	0.783327
0.506400	0.653170
0.506500	0.669723
0.506600	0.761580
0.506700	0.849542
0.506800	1.020271
0.506900	1.067660
0.507000	1.069283
0.507100	1.008911
0.507200	1.122839
0.507300	1.179316
0.507400	1.135498
0.507500	1.121216
0.507600	1.126085
0.507700	1.289350
0.507800	1.423402
0.507900	1.330572
0.508000	0.927441
0.508100	0.573647
0.508200	0.378574
0.508300	0.549628
0.508400	0.411356
0.508500	0.238354
0.508600	0.075739
0.508700	-0.172890
0.508800	-0.367640
0.508900	-0.560441
0.509000	-0.514675
0.509100	-0.655219
0.509200	-0.684756
0.509300	-0.845749
0.509400	-0.836985
0.509500	-0.907419
0.509600	-1.061920
0.509700	-1.080421
0.509800	-1.223562
0.509900	-1.211553
0.510000	-1.454340
0.510100	-1.382608
0.510200	-1.397863
0.510300	-1.446226
0.510400	-1.552689
0.510500	-1.606894
0.510600	-1.597481
0.510700	-1.505624
0.510800	-1.445577
0.510900	-1.489395
0.511000	-1.605596
0.511100	-1.703295
0.511200	-1.691610
0.511300	-1.664021
0.511400	-1.613710
0.511500	-1.657854
0.511600	-1.713357
0.511700	-1.795801
0.511800	-1.826312
0.511900	-1.829558
0.512000	-1.816574
0.512100	-1.838646
0.512200	-1.846436
0.512300	-1.859744
0.512400	-1.863639
0.512500	-1.869806
0.512600	-1.896422
0.512700	-1.890579
0.512800	-1.923362
0.512900	-1.948355
0.513000	-1.936021
0.513100	-1.947381
0.513200	-1.953548
0.513300	-1.977243
0.513400	-1.963935
0.513500	-1.929205
0.513600	-1.865911
0.513700	-1.876947
0.513800	-1.970751
0.513900	-2.032097
0.514000	-2.007429
0.514100	-1.931801
0.514200	-1.860069
0.514300	-1.871429
0.514400	-1.945434
0.514500	-2.047677
0.514600	-2.061959
0.514700	-2.026255
0.514800	-1.995095
0.514900	-1.993148
0.515000	-2.017491
0.515100	-2.018790
0.515200	-2.025606
0.515300	-2.016517
0.515400	-2.032747
0.515500	-2.036966
0.515600	-2.061635
0.515700	-2.048651
0.515800	-2.016193
0.515900	-1.980164
0.516000	-1.959391
0.516100	-1.949004
0.516200	-1.946083
0.516300	-1.894799
0.516400	-1.825987
0.516500	-1.708813
0.516600	-1.653309
0.516700	-1.611763
0.516800	-1.581252
0.516900	-1.500431
0.517000	-1.428374
0.517100	-1.353395
0.517200	-1.297892
0.517300	-1.247581
0.517400	-1.206684
0.517500	-1.156049
0.517600	-1.123266
0.517700	-1.108011
0.517800	-1.075228
0.517900	-1.072307
0.518000	-1.020698
0.518100	-1.022970
0.518200	-0.983696
0.518300	-0.999601
0.518400	-0.960326
0.518500	-0.958703
0.518600	-0.897033
0.518700	-0.787324
0.518800	-0.696766
0.518900	-0.675992
0.519000	-0.797061
0.519100	-0.812317
0.519200	-0.815563
0.519300	-0.678264
0.519400	-0.568880
0.519500	-0.532202
0.519600	-0.554923
0.519700	-0.622112
0.519800	-0.584460
0.519900	-0.522140
0.520000	-0.420222
0.520100	-0.363420
0.520200	-0.352709
0.520300	-0.325119
0.520400	-0.327716
0.520500	-0.265396
0.520600	-0.258580
0.520700	-0.223201
0.520800	-0.233263
0.520900	0.110469
0.521000	0.374354
0.521100	0.658363
0.521200	0.818057
0.521300	0.990735
0.521400	1.214047
0.521500	1.510714
0.521600	1.902485
0.521700	2.277701
0.521800	2.295229
0.521900	1.755774
0.522000	1.788556
0.522100	2.247840
0.522200	3.220289
0.522300	3.791555
0.522400	3.683469
0.522500	3.119019
0.522600	2.774961
0.522700	3.102465
0.522800	3.753579
0.522900	4.215786
0.523000	4.224226
0.523100	3.888281
0.523200	3.780844
0.523300	3.859718
0.523400	3.950601
0.523500	4.136588
0.523600	4.065179
0.523700	4.148273
0.523800	4.047652
0.523900	4.078163
0.524000	4.222603
0.524100	4.153142
0.524200	4.001236
0.524300	4.045704
0.524400	4.142430
0.524500	4.243376
0.524600	4.064855
0.524700	3.601999
0.524800	3.315392
0.524900	3.328700
0.525000	3.265081
0.525100	3.222236
0.525200	3.145310
0.525300	3.072604
0.525400	2.987888
0.525500	2.923945
0.525600	2.858704
0.525700	2.813911
0.525800	2.755486
0.525900	2.672718
0.526000	2.590923
0.526100	2.514646
0.526200	2.606503
0.526300	2.448432
0.526400	2.309186
0.526500	2.256604
0.526600	2.112814
0.526700	1.962532
0.526800	1.709683
0.526900	1.409445
0.527000	0.686602
0.527100	-0.441644
0.527200	-0.914560
0.527300	-0.792193
0.527400	-0.224174
0.527500	-0.328690
0.527600	-1.013233
0.527700	-1.333596
0.527800	-1.413767
0.527900	-1.422207
0.528000	-1.377414
0.528100	-1.376440
0.528200	-1.426751
0.528300	-1.500106
0.528400	-1.582550
0.528500	-1.595534
0.528600	-1.599104
0.528700	-1.593262
0.528800	-1.639677
0.528900	-1.664670
0.529000	-1.713682
0.529100	-1.755877
0.529200	-1.808135
0.529300	-1.851305
0.529400	-1.885711
0.529500	-1.924661
0.529600	-1.967181
0.529700	-1.999964
0.529800	-2.038914
0.529900	-2.061959
0.530000	-2.101558
0.530100	-2.076565
0.530200	-2.029176
0.530300	-2.011649
0.530400	-2.051248
0.530500	-2.128174
0.530600	-2.200556
0.530700	-2.171668
0.530800	-2.105129
0.530900	-2.070074
0.531000	-2.122656
0.531100	-2.235611
0.531200	-2.297282
0.531300	-2.335907
0.531400	-2.298905
0.531500	-2.270017
0.531600	-2.283000
0.531700	-2.296633
0.531800	-2.310265
0.531900	-2.309941
0.532000	-2.339802
0.532100	-2.321950
0.532200	-2.310265
0.532300	-2.295659
0.532400	-2.242103
0.532500	-2.196337
0.532600	-2.190494
0.532700	-2.156088
0.532800	-2.141807
0.532900	-2.104804
0.533000	-2.040537
0.533100	-1.984059
0.533200	-1.887333
0.533300	-1.864937
0.533400	-1.837023
0.533500	-1.795152
0.533600	-1.787037
0.533700	-1.737052
0.533800	-1.679601
0.533900	-1.643247
0.534000	-1.624097
0.534100	-1.612737
0.534200	-1.591963
0.534300	-1.600727
0.534400	-1.598455
0.534500	-1.585796
0.534600	-1.569242
0.534700	-1.562426
0.534800	-1.570216
0.534900	-1.551715
0.535000	-1.558207
0.535100	-1.554636
0.535200	-1.564698
0.535300	-1.485500
0.535400	-1.417338
0.535500	-1.339114
0.535600	-1.449147
0.535700	-1.559830
0.535800	-1.601052
0.535900	-1.533863
0.536000	-1.491992
0.536100	-1.393319
0.536200	-1.402083
0.536300	-1.448822
0.536400	-1.463753
0.536500	-1.437137
0.536600	-1.341386
0.536700	-1.297892
0.536800	-1.226159
0.536900	-1.227782
0.537000	-1.201491
0.537100	-1.213500
0.537200	-1.189481
0.537300	-1.145013
0.537400	-1.126188
0.537500	-1.083018
0.537600	-1.068737
0.537700	-1.053806
0.537800	-1.035954
0.537900	-1.011935
0.538000	-0.986942
0.538100	-0.953834
0.538200	-0.910016
0.538300	-0.863276
0.538400	-0.808746
0.538500	-0.854837
0.538600	-0.910665
0.538700	-0.894111
0.538800	-0.816861
0.538900	-0.543887
0.539000	-0.126151
0.539100	-0.425415
0.539200	-0.768823
0.539300	-0.635420
0.539400	0.171491
0.539500	1.094276
0.539600	1.530189
0.539700	1.580175
0.539800	1.456834
0.539900	1.663592
0.540000	1.865158
0.540100	2.160852
0.540200	2.341319
0.540300	2.402341
0.540400	2.568202
0.540500	2.956078
0.540600	3.152776
0.540700	3.349473
0.540800	3.355315
0.540900	3.453015
0.541000	3.720471
0.541100	4.133342
0.541200	4.360551
0.541300	4.190144
0.541400	3.874649
0.541500	3.854524
0.541600	3.990200
0.541700	4.331987
0.541800	4.264474
0.541900	4.332961
0.542000	4.359253
0.542100	4.391062
0.542200	4.455979
0.542300	4.359253
0.542400	4.349515
0.542500	4.372885
0.542600	4.316407
0.542700	4.260254
0.542800	4.129122
0.542900	4.094716
0.543000	3.977866
0.543100	3.861016
0.543200	3.606218
0.543300	3.374790
0.543400	3.005740
0.543500	2.693491
0.543600	2.129367
0.543700	1.026763
0.543800	0.041983
0.543900	-0.267344
0.544000	0.004656
0.544100	0.125075
0.544200	-0.198857
0.544300	-1.457911
0.544400	-1.329051
0.544500	-1.386827
0.544600	-1.357939
0.544700	-1.341386
0.544800	-1.347553
0.544900	-1.429672
0.545000	-1.542951
0.545100	-1.615658
0.545200	-1.660450
0.545300	-1.659152
0.545400	-1.686741
0.545500	-1.710111
0.545600	-1.748412
0.545700	-1.772756
0.545800	-1.805214
0.545900	-1.838646
0.546000	-1.867534
0.546100	-1.924011
0.546200	-1.980489
0.546300	-2.011000
0.546400	-2.047028
0.546500	-2.084680
0.546600	-2.122332
0.546700	-2.130122
0.546800	-2.082083
0.546900	-2.026904
0.547000	-2.042484
0.547100	-2.130446
0.547200	-2.224251
0.547300	-2.275859
0.547400	-2.219706
0.547500	-2.143754
0.547600	-2.127200
0.547700	-2.183678
0.547800	-2.296633
0.547900	-2.344022
0.548000	-2.337530
0.548100	-2.316108
0.548200	-2.293062
0.548300	-2.305396
0.548400	-2.340451
0.548500	-2.385893
0.548600	-2.399526
0.548700	-2.393683
0.548800	-2.380051
0.548900	-2.376805
0.549000	-2.346619
0.549100	-2.298905
0.549200	-2.258656
0.549300	-2.267096
0.549400	-2.273587
0.549500	-2.289492
0.549600	-2.260279
0.549700	-2.207048
0.549800	-2.193740
0.549900	-2.113243
0.550000	-2.130771
0.550100	-2.134990
0.550200	-2.110971
0.550300	-2.080785
0.550400	-2.055467
0.550500	-1.981138
0.550600	-1.971076
0.550700	-1.978217
0.550800	-1.996393
0.550900	-1.991849
0.551000	-2.000613
0.551100	-2.017491
0.551200	-2.030799
0.551300	-2.060336
0.551400	-2.056441
0.551500	-2.093444
0.551600	-2.127849
0.551700	-2.168098
0.551800	-2.203477
0.551900	-2.197959
0.552000	-2.171668
0.552100	-2.063582
0.552200	-2.107401
0.552300	-2.184652
0.552400	-2.252165
0.552500	-2.245673
0.552600	-2.148298
0.552700	-2.042484
0.552800	-1.986656
0.552900	-2.006131
0.553000	-2.058064
0.553100	-2.054494
0.553200	-2.032097
0.553300	-1.948030
0.553400	-1.886684
0.553500	-1.836049
0.553600	-1.864288
0.553700	-1.835076
0.553800	-1.807486
0.553900	-1.747114
0.554000	-1.715629
0.554100	-1.684794
0.554200	-1.654283
0.554300	-1.666942
0.554400	-1.646493
0.554500	-1.637729
0.554600	-1.637405
0.554700	-1.676679
0.554800	-1.654283
0.554900	-1.624422
0.555000	-1.588068
0.555100	-1.600402
0.555200	-1.662398
0.555300	-1.706216
0.555400	-1.656231
0.555500	-1.543600
0.555600	-1.452393
0.555700	-1.456612
0.555800	-1.517958
0.555900	-1.578980
0.556000	-1.549118
0.556100	-1.473815
0.556200	-1.394617
0.556300	-1.399810
0.556400	-1.424479
0.556500	-1.470245
0.556600	-1.470245
0.556700	-1.451094
0.556800	-1.405328
0.556900	-1.429347
0.557000	-1.436813
0.557100	-1.464078
0.557200	-1.470245
0.557300	-1.457911
0.557400	-1.451744
0.557500	-1.453042
0.557600	-1.427075
0.557700	-1.388450
0.557800	-1.352421
0.557900	-1.324183
0.558000	-1.360861
0.558100	-1.367677
0.558200	-1.377090
0.558300	-1.194350
0.558400	-0.942799
0.558500	-0.927219
0.558600	-0.782780
0.558700	-0.742207
0.558800	-0.665930
0.558900	-0.589329
0.559000	-0.581214
0.559100	-0.518895
0.559200	-0.504938
0.559300	-0.569205
0.559400	-0.653272
0.559500	-0.631525
0.559600	-0.797710
0.559700	-0.765252
0.559800	-0.864250
0.559900	-0.949290
0.560000	-1.037577
0.560100	-1.201491
0.560200	-1.515362
0.560300	-1.410522
0.560400	-1.516336
0.560500	-1.586121
0.560600	-1.573462
0.560700	-1.511467
0.560800	-1.475763
0.560900	-1.541004
0.561000	-1.669863
0.561100	-1.774703
0.561200	-1.805214
0.561300	-1.763667
0.561400	-1.720823
0.561500	-1.747438
0.561600	-1.834426
0.561700	-1.929205
0.561800	-1.949653
0.561900	-1.958417
0.562000	-1.928880
0.562100	-1.961663
0.562200	-1.970427
0.562300	-2.000613
0.562400	-2.011324
0.562500	-2.006455
0.562600	-2.008403
0.562700	-2.001911
0.562800	-2.037940
0.562900	-2.020737
0.563000	-1.992174
0.563100	-1.957768
0.563200	-1.958742
0.563300	-1.949004
0.563400	-1.912002
0.563500	-1.833777
0.563600	-1.779897
0.563700	-1.787687
0.563800	-1.879868
0.563900	-1.933424
0.564000	-1.931477
0.564100	-1.828259
0.564200	-1.751009
0.564300	-1.723095
0.564400	-1.777625
0.564500	-1.842541
0.564600	-1.864937
0.564700	-1.825014
0.564800	-1.763667
0.564900	-1.708488
0.565000	-1.696479
0.565100	-1.724718
0.565200	-1.750360
0.565300	-1.739648
0.565400	-1.738999
0.565500	-1.720823
0.565600	-1.695181
0.565700	-1.650388
0.565800	-1.610464
0.565900	-1.567295
0.566000	-1.556584
0.566100	-1.552364
0.566200	-1.564049
0.566300	-1.514388
0.566400	-1.464727
0.566500	-1.429997
0.566600	-1.352746
0.566700	-1.341386
0.566800	-1.316068
0.566900	-1.264460
0.567000	-1.212851
0.567100	-1.176173
0.567200	-1.137548
0.567300	-1.127810
0.567400	-1.118398
0.567500	-1.141768
0.567600	-1.134627
0.567700	-1.144364
0.567800	-1.127810
0.567900	-1.101519
0.568000	-1.103791
0.568100	-1.104441
0.568200	-1.095352
0.568300	-1.104116
0.568400	-1.118398
0.568500	-1.086264
0.568600	-1.081720
0.568700	-0.972660
0.568800	-0.880479
0.568900	-0.885348
0.569000	-0.994083
0.569100	-1.052183
0.569200	-1.028488
0.569300	-0.947667
0.569400	-0.874636
0.569500	-0.832441
0.569600	-0.900928
0.569700	-0.973634
0.569800	-1.013882
0.569900	-0.985319
0.570000	-0.952212
0.570100	-0.921052
0.570200	-0.944422
0.570300	-0.998627
0.570400	-1.020049
0.570500	-1.030111
0.570600	-1.022321
0.570700	-1.016479
0.570800	-1.046665
0.570900	-1.056078
0.571000	-1.054130
0.571100	-1.071658
0.571200	-1.128460
0.571300	-1.134627
0.571400	-1.174226
0.571500	-1.144689
0.571600	-1.140145
0.571700	-1.125538
0.571800	-1.183963
0.571900	-1.304708
0.572000	-1.347877
0.572100	-1.320937
0.572200	-1.251476
0.572300	-1.237519
0.572400	-1.295619
0.572500	-1.428698
0.572600	-1.490044
0.572700	-1.477061
0.572800	-1.427075
0.572900	-1.394293
0.573000	-1.437137
0.573100	-1.501080
0.573200	-1.554312
0.573300	-1.594235
0.573400	-1.614035
0.573500	-1.627992
0.573600	-1.698426
0.573700	-1.737701
0.573800	-1.785415
0.573900	-1.806837
0.574000	-1.833128
0.574100	-1.870131
0.574200	-1.895773
0.574300	-1.884088
0.574400	-1.877921
0.574500	-1.867859
0.574600	-1.884737
0.574700	-1.932126
0.574800	-1.954847
0.574900	-1.932126
0.575000	-1.884088
0.575100	-1.886035
0.575200	-1.868508
0.575300	-1.878894
0.575400	-1.874026
0.575500	-1.867534
0.575600	-1.852279
0.575700	-1.850331
0.575800	-1.859419
0.575900	-1.859419
0.576000	-1.862990
0.576100	-1.852928
0.576200	-1.855524
0.576300	-1.857147
0.576400	-1.847410
0.576500	-1.843190
0.576600	-1.854875
0.576700	-1.841243
0.576800	-1.850006
0.576900	-1.855524
0.577000	-1.912002
0.577100	-2.042809
0.577200	-2.077864
0.577300	-2.026580
0.577400	-1.929854
0.577500	-1.927257
0.577600	-2.013921
0.577700	-2.141807
0.577800	-2.223277
0.577900	-2.220031
0.578000	-2.194714
0.578100	-2.174914
0.578200	-2.240155
0.578300	-2.330389
0.578400	-2.420299
0.578500	-2.468337
0.578600	-2.466065
0.578700	-2.476127
0.578800	-2.484567
0.578900	-2.517025
0.579000	-2.532929
0.579100	-2.563440
0.579200	-2.579994
0.579300	-2.590705
0.579400	-2.618944
0.579500	-2.664710
0.579600	-2.671527
0.579700	-2.675097
0.579800	-2.690677
0.579900	-2.703985
0.580000	-2.731250
0.580100	-2.689379
0.580200	-2.622839
0.580300	-2.597846
0.580400	-2.674773
0.580500	-2.772148
0.580600	-2.827327
0.580700	-2.802009
0.580800	-2.714047
0.580900	-2.688405
0.581000	-2.699116
0.581100	-2.778964
0.581200	-2.863356
0.581300	-2.869198
0.581400	-2.836415
0.581500	-2.805904
0.581600	-2.799413
0.581700	-2.827651
0.581800	-2.849399
0.581900	-2.860434
0.582000	-2.865628
0.582100	-2.858812
0.582200	-2.837714
0.582300	-2.825379
0.582400	-2.761761
0.582500	-2.712100
0.582600	-2.668605
0.582700	-2.663737
0.582800	-2.666333
0.582900	-2.633875
0.583000	-2.560519
0.583100	-2.510533
0.583200	-2.419974
0.583300	-2.394332
0.583400	-2.363497
0.583500	-2.333311
0.583600	-2.273912
0.583700	-2.224575
0.583800	-2.157387
0.583900	-2.137262
0.584000	-2.101883
0.584100	-2.089224
0.584200	-2.046055
0.584300	-2.048002
0.584400	-2.044432
0.584500	-2.008727
0.584600	-1.993797
0.584700	-1.938618
0.584800	-1.944135
0.584900	-1.888956
0.585000	-1.901940
0.585100	-1.883763
0.585200	-1.840594
0.585300	-1.779572
0.585400	-1.640001
0.585500	-1.569892
0.585600	-1.574760
0.585700	-1.683171
0.585800	-1.677653
0.585900	-1.627018
0.586000	-1.519581
0.586100	-1.420259
0.586200	-1.370923
0.586300	-1.434865
0.586400	-1.450121
0.586500	-1.438436
0.586600	-1.386503
0.586700	-1.303734
0.586800	-1.270951
0.586900	-1.256345
0.587000	-1.286207
0.587100	-1.268679
0.587200	-1.274197
0.587300	-1.233300
0.587400	-1.230703
0.587500	-1.205710
0.587600	-1.200192
0.587700	-1.175849
0.587800	-1.172603
0.587900	-1.156374
0.588000	-1.177147
0.588100	-1.169357
0.588200	-1.147935
0.588300	-1.144689
0.588400	-1.129758
0.588500	-1.191429
0.588600	-1.292698
0.588700	-1.272899
0.588800	-1.217395
0.588900	-1.171304
0.589000	-1.177472
0.589100	-1.243686
0.589200	-1.348526
0.589300	-1.396565
0.589400	-1.351123
0.589500	-1.284584
0.589600	-1.251801
0.589700	-1.284584
0.589800	-1.362808
0.589900	-1.367352
0.590000	-1.382608
0.590100	-1.351448
0.590200	-1.376116
0.590300	-1.384555
0.590400	-1.421233
0.590500	-1.439409
0.590600	-1.437462
0.590700	-1.445577
0.590800	-1.486474
0.590900	-1.494264
0.591000	-1.475763
0.591100	-1.475763
0.591200	-1.456937
0.591300	-1.485176
0.591400	-1.548145
0.591500	-1.568918
0.591600	-1.540030
0.591700	-1.495562
0.591800	-1.508221
0.591900	-1.519906
0.592000	-1.541004
0.592100	-1.571515
0.592200	-1.573137
0.592300	-1.592937
0.592400	-1.610789
0.592500	-1.643572
0.592600	-1.651037
0.592700	-1.689987
0.592800	-1.711410
0.592900	-1.738999
0.593000	-1.750360
0.593100	-1.783467
0.593200	-1.781520
0.593300	-1.830856
0.593400	-1.852603
0.593500	-1.877596
0.593600	-1.924011
0.593700	-2.014245
0.593800	-2.122332
0.593900	-2.132718
0.594000	-2.079162
0.594100	-2.007429
0.594200	-2.061310
0.594300	-2.176212
0.594400	-2.285597
0.594500	-2.344346
0.594600	-2.329416
0.594700	-2.309616
0.594800	-2.341101
0.594900	-2.418351
0.595000	-2.519946
0.595100	-2.592004
0.595200	-2.629006
0.595300	-2.638744
0.595400	-2.625111
0.595500	-2.655622
0.595600	-2.693274
0.595700	-2.706906
0.595800	-2.724109
0.595900	-2.730601
0.596000	-2.737417
0.596100	-2.752348
0.596200	-2.761112
0.596300	-2.780262
0.596400	-2.791947
0.596500	-2.816616
0.596600	-2.843556
0.596700	-2.820835
0.596800	-2.763059
0.596900	-2.701713
0.597000	-2.696195
0.597100	-2.765007
0.597200	-2.831222
0.597300	-2.876015
0.597400	-2.797141
0.597500	-2.714372
0.597600	-2.690677
0.597700	-2.715345
0.597800	-2.792921
0.597900	-2.839337
0.598000	-2.840959
0.598100	-2.787079
0.598200	-2.753971
0.598300	-2.725083
0.598400	-2.740338
0.598500	-2.735145
0.598600	-2.732224
0.598700	-2.703011
0.598800	-2.696520
0.598900	-2.695221
0.599000	-2.669904
0.599100	-2.596223
0.599200	-2.569283
0.599300	-2.544939
0.599400	-2.528710
0.599500	-2.524166
0.599600	-2.485216
0.599700	-2.420299
0.599800	-2.380700
0.599900	-2.299229
0.600000	-2.308642
0.600100	-2.278456
0.600200	-2.241129
0.600300	-2.203477
0.600400	-2.165826
0.600500	-2.121033
0.600600	-2.108050
0.600700	-2.094417
0.600800	-2.104155
0.600900	-2.099611
0.601000	-2.113568
0.601100	-2.113568
0.601200	-2.088250
0.601300	-2.098637
0.601400	-2.093768
0.601500	-2.072995
0.601600	-2.092145
0.601700	-2.082408
0.601800	-2.111620
0.601900	-2.033720
0.602000	-2.002560
0.602100	-1.861367
0.602200	-1.842866
0.602300	-1.928231
0.602400	-1.982761
0.602500	-2.001587
0.602600	-1.894799
0.602700	-1.804565
0.602800	-1.719200
0.602900	-1.710111
0.603000	-1.777625
0.603100	-1.781195
0.603200	-1.718550
0.603300	-1.647467
0.603400	-1.592288
0.603500	-1.566970
0.603600	-1.552040
0.603700	-1.544574
0.603800	-1.544899
0.603900	-1.519581
0.604000	-1.489720
0.604100	-1.473491
0.604200	-1.459209
0.604300	-1.439409
0.604400	-1.452068
0.604500	-1.444927
0.604600	-1.469596
0.604700	-1.478035
0.604800	-1.479982
0.604900	-1.434541
0.605000	-1.398188
0.605100	-1.397214
0.605200	-1.505624
0.605300	-1.551390
0.605400	-1.529968
0.605500	-1.452717
0.605600	-1.393968
0.605700	-1.408899
0.605800	-1.488097
