LabVIEW Measurement	
Writer_Version	2
Reader_Version	2
Separator	Tab
Decimal_Separator	.
Multi_Headings	Yes
X_Columns	One
Time_Pref	Relative
Operator	as989
Description	Time Domain Data
Date	2021/11/24
Time	13:31:58.1513438224792480469
***End_of_Header***	
	
Channels	1	
Samples	15000	
Date	1903/12/31	
Time	19:00:00	
X_Dimension	Time	
X0	0.0000000000000000E+0	
Delta_X	0.000100	
***End_of_Header***		
X_Value	Untitled	Comment
0.000000	-0.300127	Tare Values:0.000000, 0.000000, 0.000000, 0.000000\0D\0A
0.000100	-0.312461
0.000200	-0.308241
0.000300	-0.301425
0.000400	-0.281301
0.000500	-0.274809
0.000600	-0.263124
0.000700	-0.258905
0.000800	-0.247220
0.000900	-0.266370
0.001000	-0.270590
0.001100	-0.284871
0.001200	-0.279029
0.001300	-0.271888
0.001400	-0.310189
0.001500	-0.328690
0.001600	-0.392632
0.001700	-0.430933
0.001800	-0.487735
0.001900	-0.680212
0.002000	-0.912937
0.002100	-0.935009
0.002200	-0.700336
0.002300	-0.619840
0.002400	-0.663658
0.002500	-0.944422
0.002600	-1.192402
0.002700	-1.261863
0.002800	-1.175199
0.002900	-1.042770
0.003000	-1.062245
0.003100	-1.155400
0.003200	-1.331648
0.003300	-1.404679
0.003400	-1.393319
0.003500	-1.376440
0.003600	-1.333920
0.003700	-1.358264
0.003800	-1.400135
0.003900	-1.450770
0.004000	-1.496861
0.004100	-1.502378
0.004200	-1.534188
0.004300	-1.596507
0.004400	-1.668565
0.004500	-1.641949
0.004600	-1.654608
0.004700	-1.758474
0.004800	-1.816574
0.004900	-1.819496
0.005000	-1.632861
0.005100	-1.558531
0.005200	-1.582550
0.005300	-1.743219
0.005400	-1.965883
0.005500	-2.008403
0.005600	-1.874350
0.005700	-1.653309
0.005800	-1.571515
0.005900	-1.689013
0.006000	-1.891228
0.006100	-2.037615
0.006200	-2.016193
0.006300	-1.859744
0.006400	-1.755228
0.006500	-1.709462
0.006600	-1.726340
0.006700	-1.762694
0.006800	-1.756851
0.006900	-1.754579
0.007000	-1.726016
0.007100	-1.675056
0.007200	-1.587419
0.007300	-1.474464
0.007400	-1.381309
0.007500	-1.343982
0.007600	-1.336841
0.007700	-1.338464
0.007800	-1.265433
0.007900	-1.089185
0.008000	-1.030111
0.008100	-0.843477
0.008200	-0.791868
0.008300	-0.752594
0.008400	-0.689625
0.008500	-0.608479
0.008600	-0.479945
0.008700	-0.343620
0.008800	-0.238781
0.008900	-0.193664
0.009000	-0.250790
0.009100	-0.207296
0.009200	-0.253062
0.009300	-0.197883
0.009400	-0.202752
0.009500	-0.171592
0.009600	-0.116738
0.009700	-0.191716
0.009800	-0.137186
0.009900	-0.230666
0.010000	-0.161855
0.010100	-0.142704
0.010200	0.044579
0.010300	0.303271
0.010400	0.360722
0.010500	0.121505
0.010600	-0.139134
0.010700	-0.029750
0.010800	0.092942
0.010900	0.346765
0.011000	0.509705
0.011100	0.419471
0.011200	0.270813
0.011300	0.165973
0.011400	0.263672
0.011500	0.340598
0.011600	0.530802
0.011700	0.583385
0.011800	0.494774
0.011900	0.480492
0.012000	0.461017
0.012100	0.488607
0.012200	0.501266
0.012300	0.576893
0.012400	0.598640
0.012500	0.550602
0.012600	0.564234
0.012700	0.535347
0.012800	0.484063
0.012900	0.400321
0.013000	0.447710
0.013100	0.497695
0.013200	0.511003
0.013300	0.512950
0.013400	0.263672
0.013500	0.126374
0.013600	0.167271
0.013700	0.330211
0.013800	0.506459
0.013900	0.429208
0.014000	0.246144
0.014100	0.057238
0.014200	0.065677
0.014300	0.226345
0.014400	0.394803
0.014500	0.387337
0.014600	0.328913
0.014700	0.204598
0.014800	0.216932
0.014900	0.153639
0.015000	0.237056
0.015100	0.209791
0.015200	0.189018
0.015300	0.148770
0.015400	0.148770
0.015500	0.149744
0.015600	0.152989
0.015700	0.135462
0.015800	0.161104
0.015900	0.217906
0.016000	0.222775
0.016100	0.283147
0.016200	0.150717
0.016300	0.087424
0.016400	0.087749
0.016500	0.079634
0.016600	0.239977
0.016700	0.183176
0.016800	0.194536
0.016900	0.210116
0.017000	0.200378
0.017100	0.231214
0.017200	0.219204
0.017300	0.205572
0.017400	0.213686
0.017500	0.202650
0.017600	0.211414
0.017700	0.180579
0.017800	0.171491
0.017900	0.172140
0.018000	0.121505
0.018100	0.084503
0.018200	0.117286
0.018300	0.045878
0.018400	0.080608
0.018500	-0.085903
0.018600	-0.300451
0.018700	-0.543887
0.018800	-0.453978
0.018900	-0.277406
0.019000	-0.190418
0.019100	-0.259878
0.019200	-0.573749
0.019300	-0.834713
0.019400	-0.783429
0.019500	-0.687028
0.019600	-0.525711
0.019700	-0.626331
0.019800	-0.718837
0.019900	-0.872040
0.020000	-0.978503
0.020100	-0.959352
0.020200	-0.916183
0.020300	-0.873338
0.020400	-0.898006
0.020500	-0.963896
0.020600	-0.998951
0.020700	-1.030760
0.020800	-1.047639
0.020900	-1.087238
0.021000	-1.179419
0.021100	-1.219667
0.021200	-1.166111
0.021300	-1.194674
0.021400	-1.210904
0.021500	-1.302436
0.021600	-1.244011
0.021700	-1.111906
0.021800	-0.999276
0.021900	-1.062245
0.022000	-1.326779
0.022100	-1.454016
0.022200	-1.479009
0.022300	-1.293672
0.022400	-1.135925
0.022500	-1.159295
0.022600	-1.342035
0.022700	-1.574111
0.022800	-1.628641
0.022900	-1.542302
0.023000	-1.431944
0.023100	-1.395266
0.023200	-1.390722
0.023300	-1.437137
0.023400	-1.422531
0.023500	-1.420908
0.023600	-1.398188
0.023700	-1.369949
0.023800	-1.340736
0.023900	-1.258617
0.024000	-1.081720
0.024100	-0.975257
0.024200	-0.950264
0.024300	-0.928192
0.024400	-0.947667
0.024500	-0.831467
0.024600	-0.654570
0.024700	-0.613023
0.024800	-0.381597
0.024900	-0.404317
0.025000	-0.340699
0.025100	-0.262150
0.025200	-0.169320
0.025300	-0.037215
0.025400	0.073792
0.025500	0.128646
0.025600	0.125075
0.025700	0.153639
0.025800	0.156560
0.025900	0.182851
0.026000	0.156235
0.026100	0.205572
0.026200	0.254259
0.026300	0.286393
0.026400	0.296130
0.026500	0.298402
0.026600	0.241925
0.026700	0.278927
0.026800	0.273409
0.026900	0.541838
0.027000	0.828119
0.027100	0.813838
0.027200	0.488607
0.027300	0.404216
0.027400	0.406163
0.027500	0.606755
0.027600	0.770668
0.027700	0.901799
0.027800	0.731394
0.027900	0.691146
0.028000	0.619738
0.028100	0.756711
0.028200	0.868367
0.028300	0.959250
0.028400	1.005341
0.028500	0.943670
0.028600	0.886868
0.028700	0.820978
0.028800	0.874859
0.028900	0.887842
0.029000	0.902773
0.029100	0.938802
0.029200	0.938477
0.029300	0.925494
0.029400	0.787871
0.029500	0.872911
0.029600	0.767422
0.029700	0.814487
0.029800	0.850840
0.029900	0.973856
0.030000	0.864148
0.030100	0.592798
0.030200	0.459070
0.030300	0.594745
0.030400	0.758983
0.030500	0.927117
0.030600	0.731718
0.030700	0.535671
0.030800	0.395452
0.030900	0.474325
0.031000	0.684979
0.031100	0.808320
0.031200	0.749895
0.031300	0.618439
0.031400	0.576568
0.031500	0.629151
0.031600	0.614220
0.031700	0.638888
0.031800	0.548330
0.031900	0.532101
0.032000	0.504187
0.032100	0.560664
0.032200	0.556444
0.032300	0.531452
0.032400	0.511977
0.032500	0.542812
0.032600	0.578841
0.032700	0.585657
0.032800	0.566506
0.032900	0.426936
0.033000	0.360722
0.033100	0.331509
0.033200	0.432130
0.033300	0.448359
0.033400	0.432454
0.033500	0.420445
0.033600	0.443815
0.033700	0.410707
0.033800	0.433753
0.033900	0.421418
0.034000	0.408760
0.034100	0.416874
0.034200	0.408111
0.034300	0.407461
0.034400	0.405839
0.034500	0.379547
0.034600	0.388311
0.034700	0.363318
0.034800	0.344817
0.034900	0.325667
0.035000	0.312684
0.035100	0.251338
0.035200	0.124751
0.035300	-0.189769
0.035400	-0.296556
0.035500	-0.228719
0.035600	-0.042409
0.035700	0.039061
0.035800	-0.147898
0.035900	-0.429310
0.036000	-0.640937
0.036100	-0.577319
0.036200	-0.463716
0.036300	-0.318952
0.036400	-0.430284
0.036500	-0.576346
0.036600	-0.715591
0.036700	-0.738312
0.036800	-0.756489
0.036900	-0.683458
0.037000	-0.743830
0.037100	-0.746427
0.037200	-0.807123
0.037300	-0.834713
0.037400	-0.823028
0.037500	-0.895734
0.037600	-0.878856
0.037700	-0.967467
0.037800	-0.993758
0.037900	-1.005768
0.038000	-1.056402
0.038100	-1.093405
0.038200	-1.160593
0.038300	-1.088536
0.038400	-0.959677
0.038500	-0.896708
0.038600	-1.018426
0.038700	-1.284908
0.038800	-1.405977
0.038900	-1.335219
0.039000	-1.132030
0.039100	-0.984670
0.039200	-1.096651
0.039300	-1.363457
0.039400	-1.529319
0.039500	-1.532889
0.039600	-1.393319
0.039700	-1.317367
0.039800	-1.305357
0.039900	-1.324832
0.040000	-1.352097
0.040100	-1.361510
0.040200	-1.352746
0.040300	-1.321586
0.040400	-1.278092
0.040500	-1.250827
0.040600	-1.157997
0.040700	-1.022321
0.040800	-0.941825
0.040900	-0.899954
0.041000	-0.902875
0.041100	-0.854837
0.041200	-0.685081
0.041300	-0.578293
0.041400	-0.381272
0.041500	-0.301425
0.041600	-0.270265
0.041700	-0.220929
0.041800	-0.126800
0.041900	-0.029750
0.042000	0.100732
0.042100	0.197133
0.042200	0.221152
0.042300	0.235433
0.042400	0.257829
0.042500	0.307166
0.042600	0.244522
0.042700	0.293858
0.042800	0.315280
0.042900	0.344168
0.043000	0.397075
0.043100	0.319500
0.043200	0.372407
0.043300	0.287691
0.043400	0.409734
0.043500	0.408435
0.043600	0.739508
0.043700	0.876482
0.043800	0.761905
0.043900	0.504187
0.044000	0.415576
0.044100	0.494449
0.044200	0.689523
0.044300	0.910887
0.044400	0.937179
0.044500	0.714191
0.044600	0.733991
0.044700	0.660960
0.044800	0.842401
0.044900	0.881351
0.045000	1.003393
0.045100	0.944644
0.045200	0.928739
0.045300	0.968663
0.045400	0.953408
0.045500	0.987813
0.045600	1.012806
0.045700	1.037474
0.045800	1.065064
0.045900	1.079994
0.046000	1.053703
0.046100	1.003393
0.046200	0.935231
0.046300	0.904396
0.046400	0.932959
0.046500	0.982945
0.046600	1.051431
0.046700	0.935556
0.046800	0.669399
0.046900	0.636941
0.047000	0.750869
0.047100	0.975804
0.047200	0.970610
0.047300	0.823900
0.047400	0.608702
0.047500	0.546382
0.047600	0.686926
0.047700	0.866420
0.047800	0.918353
0.047900	0.824549
0.048000	0.688225
0.048100	0.684005
0.048200	0.663556
0.048300	0.677513
0.048400	0.665828
0.048500	0.608377
0.048600	0.587280
0.048700	0.582086
0.048800	0.620387
0.048900	0.589552
0.049000	0.540864
0.049100	0.522039
0.049200	0.533075
0.049300	0.564559
0.049400	0.602860
0.049500	0.499318
0.049600	0.395127
0.049700	0.353906
0.049800	0.354879
0.049900	0.406163
0.050000	0.415901
0.050100	0.405189
0.050200	0.416550
0.050300	0.414927
0.050400	0.462965
0.050500	0.454850
0.050600	0.453877
0.050700	0.452254
0.050800	0.474650
0.050900	0.471404
0.051000	0.481141
0.051100	0.487309
0.051200	0.493800
0.051300	0.477896
0.051400	0.476273
0.051500	0.458421
0.051600	0.406812
0.051700	0.387337
0.051800	0.325342
0.051900	0.138383
0.052000	-0.101483
0.052100	-0.131669
0.052200	0.042632
0.052300	0.225696
0.052400	0.197457
0.052500	-0.069024
0.052600	-0.341673
0.052700	-0.472804
0.052800	-0.369262
0.052900	-0.202103
0.053000	-0.196585
0.053100	-0.347515
0.053200	-0.530580
0.053300	-0.633147
0.053400	-0.647429
0.053500	-0.638990
0.053600	-0.622112
0.053700	-0.645806
0.053800	-0.664307
0.053900	-0.683458
0.054000	-0.688002
0.054100	-0.725329
0.054200	-0.780183
0.054300	-0.792193
0.054400	-0.882426
0.054500	-0.888593
0.054600	-0.919104
0.054700	-0.982722
0.054800	-1.017128
0.054900	-1.053481
0.055000	-0.921376
0.055100	-0.768823
0.055200	-0.788622
0.055300	-0.979152
0.055400	-1.181042
0.055500	-1.284908
0.055600	-1.146636
0.055700	-0.946369
0.055800	-0.915209
0.055900	-1.069710
0.056000	-1.341386
0.056100	-1.447524
0.056200	-1.394617
0.056300	-1.257643
0.056400	-1.203763
0.056500	-1.210254
0.056600	-1.256670
0.056700	-1.267705
0.056800	-1.246283
0.056900	-1.219343
0.057000	-1.221615
0.057100	-1.197920
0.057200	-1.151830
0.057300	-1.048612
0.057400	-0.918130
0.057500	-0.860355
0.057600	-0.844775
0.057700	-0.859381
0.057800	-0.765252
0.057900	-0.552002
0.058000	-0.476374
0.058100	-0.218007
0.058200	-0.220604
0.058300	-0.184575
0.058400	-0.085578
0.058500	-0.053444
0.058600	0.079959
0.058700	0.188369
0.058800	0.283796
0.058900	0.284770
0.059000	0.265944
0.059100	0.311061
0.059200	0.281199
0.059300	0.297428
0.059400	0.322097
0.059500	0.367538
0.059600	0.363643
0.059700	0.395777
0.059800	0.335729
0.059900	0.343194
0.060000	0.278603
0.060100	0.335404
0.060200	0.419796
0.060300	0.715814
0.060400	0.831690
0.060500	0.611623
0.060600	0.345791
0.060700	0.403891
0.060800	0.546707
0.060900	0.827470
0.061000	0.921274
0.061100	0.888491
0.061200	0.684005
0.061300	0.598640
0.061400	0.723279
0.061500	0.826496
0.061600	1.004042
0.061700	0.984243
0.061800	1.013455
0.061900	0.911212
0.062000	0.973856
0.062100	0.950811
0.062200	1.019298
0.062300	0.963470
0.062400	0.999498
0.062500	0.939126
0.062600	0.932959
0.062700	0.839804
0.062800	0.878105
0.062900	0.882973
0.063000	0.779432
0.063100	0.899527
0.063200	0.840778
0.063300	0.967689
0.063400	0.597342
0.063500	0.529504
0.063600	0.506783
0.063700	0.686602
0.063800	0.903747
0.063900	0.848243
0.064000	0.653494
0.064100	0.435700
0.064200	0.457772
0.064300	0.650248
0.064400	0.821628
0.064500	0.853437
0.064600	0.702506
0.064700	0.608377
0.064800	0.641485
0.064900	0.648626
0.065000	0.712568
0.065100	0.656740
0.065200	0.618764
0.065300	0.593447
0.065400	0.603509
0.065500	0.624931
0.065600	0.604807
0.065700	0.579814
0.065800	0.555795
0.065900	0.594096
0.066000	0.603833
0.066100	0.648626
0.066200	0.523337
0.066300	0.445438
0.066400	0.421094
0.066500	0.443815
0.066600	0.548005
0.066700	0.493800
0.066800	0.503213
0.066900	0.520091
0.067000	0.520740
0.067100	0.515223
0.067200	0.535671
0.067300	0.533399
0.067400	0.539891
0.067500	0.552874
0.067600	0.548330
0.067700	0.511328
0.067800	0.495748
0.067900	0.512950
0.068000	0.507433
0.068100	0.506783
0.068200	0.454526
0.068300	0.398698
0.068400	0.347414
0.068500	0.229266
0.068600	-0.042733
0.068700	-0.249167
0.068800	-0.169969
0.068900	-0.013845
0.069000	0.071195
0.069100	-0.004433
0.069200	-0.346217
0.069300	-0.581864
0.069400	-0.619515
0.069500	-0.472804
0.069600	-0.377702
0.069700	-0.381272
0.069800	-0.563362
0.069900	-0.749348
0.070000	-0.812641
0.070100	-0.806150
0.070200	-0.778560
0.070300	-0.777586
0.070400	-0.792842
0.070500	-0.844775
0.070600	-0.899305
0.070700	-0.918130
0.070800	-0.904823
0.070900	-0.936956
0.071000	-1.007066
0.071100	-1.034980
0.071200	-1.075228
0.071300	-1.113204
0.071400	-1.147610
0.071500	-1.157672
0.071600	-1.187534
0.071700	-1.059648
0.071800	-0.957729
0.071900	-1.014207
0.072000	-1.227782
0.072100	-1.387476
0.072200	-1.407276
0.072300	-1.228756
0.072400	-1.043095
0.072500	-1.061596
0.072600	-1.247906
0.072700	-1.498483
0.072800	-1.560154
0.072900	-1.462130
0.073000	-1.346254
0.073100	-1.314121
0.073200	-1.329376
0.073300	-1.369300
0.073400	-1.373519
0.073500	-1.378713
0.073600	-1.379686
0.073700	-1.339763
0.073800	-1.290102
0.073900	-1.180393
0.074000	-1.063543
0.074100	-0.997328
0.074200	-0.997978
0.074300	-0.973634
0.074400	-0.960002
0.074500	-0.819133
0.074600	-0.665930
0.074700	-0.625033
0.074800	-0.414704
0.074900	-0.435153
0.075000	-0.354007
0.075100	-0.288442
0.075200	-0.212814
0.075300	-0.082332
0.075400	0.035816
0.075500	0.104302
0.075600	0.092293
0.075700	0.122479
0.075800	0.141954
0.075900	0.133839
0.076000	0.146173
0.076100	0.222450
0.076200	0.163052
0.076300	0.236082
0.076400	0.183500
0.076500	0.250039
0.076600	0.174736
0.076700	0.223748
0.076800	0.252636
0.076900	0.500941
0.077000	0.730745
0.077100	0.744702
0.077200	0.433428
0.077300	0.379223
0.077400	0.321772
0.077500	0.544759
0.077600	0.723928
0.077700	0.759957
0.077800	0.666478
0.077900	0.519442
0.078000	0.498020
0.078100	0.610000
0.078200	0.750544
0.078300	0.828768
0.078400	0.780081
0.078500	0.745026
0.078600	0.739833
0.078700	0.761580
0.078800	0.762878
0.078900	0.834611
0.079000	0.834611
0.079100	0.894983
0.079200	0.903422
0.079300	0.876806
0.079400	0.774239
0.079500	0.851164
0.079600	0.718086
0.079700	0.798582
0.079800	0.802802
0.079900	0.924195
0.080000	0.796310
0.080100	0.588578
0.080200	0.437323
0.080300	0.564234
0.080400	0.711594
0.080500	0.854735
0.080600	0.665504
0.080700	0.458096
0.080800	0.320474
0.080900	0.415576
0.081000	0.627203
0.081100	0.737886
0.081200	0.662907
0.081300	0.524311
0.081400	0.482764
0.081500	0.551251
0.081600	0.535671
0.081700	0.548330
0.081800	0.458421
0.081900	0.442841
0.082000	0.425638
0.082100	0.482115
0.082200	0.460044
0.082300	0.409084
0.082400	0.378249
0.082500	0.391232
0.082600	0.423691
0.082700	0.445762
0.082800	0.413304
0.082900	0.282173
0.083000	0.208818
0.083100	0.173438
0.083200	0.270488
0.083300	0.293209
0.083400	0.256206
0.083500	0.253285
0.083600	0.282822
0.083700	0.286068
0.083800	0.291910
0.083900	0.266918
0.084000	0.293209
0.084100	0.282822
0.084200	0.247443
0.084300	0.262049
0.084400	0.242574
0.084500	0.232512
0.084600	0.215309
0.084700	0.220178
0.084800	0.170192
0.084900	0.167920
0.085000	0.122154
0.085100	0.097811
0.085200	-0.112843
0.085300	-0.313434
0.085400	-0.429959
0.085500	-0.299477
0.085600	-0.160881
0.085700	-0.131019
0.085800	-0.361148
0.085900	-0.699362
0.086000	-0.875286
0.086100	-0.828221
0.086200	-0.660412
0.086300	-0.603286
0.086400	-0.737987
0.086500	-0.901252
0.086600	-1.048937
0.086700	-1.065166
0.086800	-1.030436
0.086900	-0.992135
0.087000	-1.035305
0.087100	-1.099572
0.087200	-1.162216
0.087300	-1.177796
0.087400	-1.206359
0.087500	-1.263810
0.087600	-1.303734
0.087700	-1.374818
0.087800	-1.434865
0.087900	-1.415066
0.088000	-1.453367
0.088100	-1.483877
0.088200	-1.538732
0.088300	-1.477061
0.088400	-1.353071
0.088500	-1.250178
0.088600	-1.376116
0.088700	-1.612412
0.088800	-1.748087
0.088900	-1.681223
0.089000	-1.439409
0.089100	-1.313796
0.089200	-1.416364
0.089300	-1.665643
0.089400	-1.837023
0.089500	-1.819496
0.089600	-1.674732
0.089700	-1.596507
0.089800	-1.597806
0.089900	-1.645844
0.090000	-1.646493
0.090100	-1.618579
0.090200	-1.625071
0.090300	-1.602999
0.090400	-1.605271
0.090500	-1.522503
0.090600	-1.413118
0.090700	-1.271276
0.090800	-1.173252
0.090900	-1.174875
0.091000	-1.157997
0.091100	-1.133653
0.091200	-0.974283
0.091300	-0.853863
0.091400	-0.822379
0.091500	-0.626980
0.091600	-0.643209
0.091700	-0.576670
0.091800	-0.498771
0.091900	-0.408212
0.092000	-0.268318
0.092100	-0.208270
0.092200	-0.163153
0.092300	-0.164451
0.092400	-0.172566
0.092500	-0.139783
0.092600	-0.179707
0.092700	-0.150819
0.092800	-0.117712
0.092900	-0.085253
0.093000	-0.113817
0.093100	-0.101483
0.093200	-0.149196
0.093300	-0.209893
0.093400	-0.164451
0.093500	-0.052146
0.093600	0.189018
0.093700	0.355204
0.093800	0.276006
0.093900	-0.021311
0.094000	-0.113167
0.094100	0.104302
0.094200	0.204273
0.094300	0.452578
0.094400	0.401619
0.094500	0.331834
0.094600	0.178631
0.094700	0.206221
0.094800	0.350660
0.094900	0.457772
0.095000	0.513600
0.095100	0.424015
0.095200	0.364292
0.095300	0.403242
0.095400	0.419146
0.095500	0.463289
0.095600	0.504836
0.095700	0.467184
0.095800	0.430182
0.095900	0.470755
0.096000	0.410058
0.096100	0.444464
0.096200	0.350984
0.096300	0.370459
0.096400	0.350984
0.096500	0.392206
0.096600	0.467184
0.096700	0.255557
0.096800	0.037114
0.096900	-0.046953
0.097000	0.091968
0.097100	0.296130
0.097200	0.296455
0.097300	0.124102
0.097400	-0.141081
0.097500	-0.195611
0.097600	-0.071296
0.097700	0.129944
0.097800	0.220178
0.097900	0.128970
0.098000	-0.017740
0.098100	-0.042733
0.098200	-0.036891
0.098300	0.001734
0.098400	0.018288
0.098500	-0.048900
0.098600	-0.085578
0.098700	-0.086227
0.098800	-0.068051
0.098900	-0.081034
0.099000	-0.103755
0.099100	-0.115115
0.099200	-0.109922
0.099300	-0.070972
0.099400	-0.027802
0.099500	-0.092070
0.099600	-0.216060
0.099700	-0.283573
0.099800	-0.284547
0.099900	-0.146924
0.100000	-0.192690
0.100100	-0.191067
0.100200	-0.187172
0.100300	-0.165750
0.100400	-0.171592
0.100500	-0.161530
0.100600	-0.163478
0.100700	-0.181654
0.100800	-0.158284
0.100900	-0.153416
0.101000	-0.154065
0.101100	-0.150494
0.101200	-0.143029
0.101300	-0.148547
0.101400	-0.194313
0.101500	-0.168346
0.101600	-0.238456
0.101700	-0.252413
0.101800	-0.318952
0.101900	-0.576995
0.102000	-0.782780
0.102100	-0.824326
0.102200	-0.655868
0.102300	-0.508833
0.102400	-0.485787
0.102500	-0.767524
0.102600	-1.078474
0.102700	-1.230378
0.102800	-1.099896
0.102900	-0.932087
0.103000	-0.929491
0.103100	-1.042121
0.103200	-1.281338
0.103300	-1.334569
0.103400	-1.375467
0.103500	-1.295619
0.103600	-1.269004
0.103700	-1.281338
0.103800	-1.346254
0.103900	-1.434865
0.104000	-1.431944
0.104100	-1.462779
0.104200	-1.470245
0.104300	-1.513090
0.104400	-1.575085
0.104500	-1.611763
0.104600	-1.640975
0.104700	-1.691935
0.104800	-1.723744
0.104900	-1.770808
0.105000	-1.671811
0.105100	-1.510818
0.105200	-1.545548
0.105300	-1.708813
0.105400	-1.902589
0.105500	-2.004508
0.105600	-1.862990
0.105700	-1.671161
0.105800	-1.569892
0.105900	-1.724718
0.106000	-1.974971
0.106100	-2.109673
0.106200	-2.082083
0.106300	-1.964260
0.106400	-1.876622
0.106500	-1.869806
0.106600	-1.889930
0.106700	-1.946408
0.106800	-1.934073
0.106900	-1.921739
0.107000	-1.902913
0.107100	-1.869481
0.107200	-1.824689
0.107300	-1.723095
0.107400	-1.614359
0.107500	-1.556908
0.107600	-1.523476
0.107700	-1.528670
0.107800	-1.448173
0.107900	-1.271600
0.108000	-1.127486
0.108100	-0.902550
0.108200	-0.910340
0.108300	-0.873338
0.108400	-0.802255
0.108500	-0.729548
0.108600	-0.610751
0.108700	-0.508508
0.108800	-0.415028
0.108900	-0.430284
0.109000	-0.406589
0.109100	-0.420222
0.109200	-0.418599
0.109300	-0.479620
0.109400	-0.425090
0.109500	-0.442942
0.109600	-0.363745
0.109700	-0.430608
0.109800	-0.384193
0.109900	-0.454627
0.110000	-0.492928
0.110100	-0.392308
0.110200	-0.321873
0.110300	-0.022285
0.110400	0.049773
0.110500	-0.082332
0.110600	-0.382246
0.110700	-0.358876
0.110800	-0.242676
0.110900	-0.033320
0.111000	0.123453
0.111100	0.017639
0.111200	-0.130046
0.111300	-0.167697
0.111400	-0.085578
0.111500	0.086450
0.111600	0.201677
0.111700	0.179281
0.111800	0.125075
0.111900	0.087749
0.112000	0.059510
0.112100	0.113391
0.112200	0.126374
0.112300	0.167920
0.112400	0.199729
0.112500	0.212063
0.112600	0.183176
0.112700	0.092617
0.112800	0.093266
0.112900	-0.019688
0.113000	0.009849
0.113100	0.082880
0.113200	0.108846
0.113300	0.177982
0.113400	-0.110571
0.113500	-0.235859
0.113600	-0.236508
0.113700	-0.034294
0.113800	0.122154
0.113900	0.078336
0.114000	-0.129721
0.114100	-0.333558
0.114200	-0.328041
0.114300	-0.159583
0.114400	-0.015793
0.114500	-0.006380
0.114600	-0.121931
0.114700	-0.215411
0.114800	-0.191067
0.114900	-0.213463
0.115000	-0.150494
0.115100	-0.217034
0.115200	-0.245272
0.115300	-0.250790
0.115400	-0.193664
0.115500	-0.167048
0.115600	-0.194962
0.115700	-0.247544
0.115800	-0.234561
0.115900	-0.223201
0.116000	-0.188470
0.116100	-0.178408
0.116200	-0.301100
0.116300	-0.385816
0.116400	-0.420222
0.116500	-0.387114
0.116600	-0.305320
0.116700	-0.325768
0.116800	-0.308566
0.116900	-0.296232
0.117000	-0.278380
0.117100	-0.264747
0.117200	-0.274809
0.117300	-0.272212
0.117400	-0.268318
0.117500	-0.276107
0.117600	-0.264098
0.117700	-0.282924
0.117800	-0.285520
0.117900	-0.310189
0.118000	-0.330962
0.118100	-0.327391
0.118200	-0.368938
0.118300	-0.400747
0.118400	-0.451706
0.118500	-0.541291
0.118600	-0.794140
0.118700	-0.930789
0.118800	-0.913262
0.118900	-0.716890
0.119000	-0.617568
0.119100	-0.736040
0.119200	-1.039524
0.119300	-1.309901
0.119400	-1.337815
0.119500	-1.198894
0.119600	-1.083343
0.119700	-1.170331
0.119800	-1.292049
0.119900	-1.466674
0.120000	-1.500106
0.120100	-1.487448
0.120200	-1.477386
0.120300	-1.461481
0.120400	-1.486149
0.120500	-1.541004
0.120600	-1.560803
0.120700	-1.593262
0.120800	-1.604947
0.120900	-1.633510
0.121000	-1.682197
0.121100	-1.777300
0.121200	-1.742894
0.121300	-1.766589
0.121400	-1.817224
0.121500	-1.857472
0.121600	-1.843190
0.121700	-1.719200
0.121800	-1.602674
0.121900	-1.689987
0.122000	-1.922064
0.122100	-2.087926
0.122200	-2.098312
0.122300	-1.902589
0.122400	-1.727963
0.122500	-1.742894
0.122600	-1.898369
0.122700	-2.137262
0.122800	-2.216136
0.122900	-2.126876
0.123000	-1.998990
0.123100	-1.944785
0.123200	-1.979840
0.123300	-2.044432
0.123400	-2.064231
0.123500	-2.019114
0.123600	-1.977243
0.123700	-1.969453
0.123800	-1.964909
0.123900	-1.923362
0.124000	-1.779572
0.124100	-1.638054
0.124200	-1.622149
0.124300	-1.609491
0.124400	-1.558856
0.124500	-1.393643
0.124600	-1.250178
0.124700	-1.203763
0.124800	-1.011285
0.124900	-1.026541
0.125000	-0.960002
0.125100	-0.871066
0.125200	-0.781806
0.125300	-0.638016
0.125400	-0.573100
0.125500	-0.511105
0.125600	-0.508183
0.125700	-0.495200
0.125800	-0.449759
0.125900	-0.496174
0.126000	-0.449110
0.126100	-0.448785
0.126200	-0.399773
0.126300	-0.405616
0.126400	-0.356928
0.126500	-0.381921
0.126600	-0.427363
0.126700	-0.334532
0.126800	-0.402370
0.126900	-0.038189
0.127000	0.006279
0.127100	0.110145
0.127200	-0.266370
0.127300	-0.296232
0.127400	-0.288442
0.127500	-0.066103
0.127600	0.158832
0.127700	0.163052
0.127800	0.044579
0.127900	-0.119659
0.128000	-0.095315
0.128100	0.070870
0.128200	0.185448
0.128300	0.339299
0.128400	0.283147
0.128500	0.277304
0.128600	0.247767
0.128700	0.234784
0.128800	0.264646
0.128900	0.285094
0.129000	0.304569
0.129100	0.334755
0.129200	0.356178
0.129300	0.377600
0.129400	0.238030
0.129500	0.247118
0.129600	0.162078
0.129700	0.151691
0.129800	0.232837
0.129900	0.220502
0.130000	0.234784
0.130100	-0.117062
0.130200	-0.158284
0.130300	-0.081034
0.130400	0.106574
0.130500	0.213037
0.130600	0.102355
0.130700	-0.114141
0.130800	-0.237482
0.130900	-0.167048
0.131000	0.008551
0.131100	0.127348
0.131200	0.094889
0.131300	-0.058638
0.131400	-0.117712
0.131500	-0.142380
0.131600	-0.107000
0.131700	-0.075191
0.131800	-0.147573
0.131900	-0.175487
0.132000	-0.214762
0.132100	-0.186523
0.132200	-0.195611
0.132300	-0.217683
0.132400	-0.236833
0.132500	-0.220279
0.132600	-0.202427
0.132700	-0.179707
0.132800	-0.199506
0.132900	-0.338103
0.133000	-0.386141
0.133100	-0.385167
0.133200	-0.381272
0.133300	-0.288766
0.133400	-0.343945
0.133500	-0.330313
0.133600	-0.310189
0.133700	-0.320900
0.133800	-0.329014
0.133900	-0.319277
0.134000	-0.339401
0.134100	-0.299477
0.134200	-0.306618
0.134300	-0.277081
0.134400	-0.304671
0.134500	-0.304671
0.134600	-0.322198
0.134700	-0.315382
0.134800	-0.368613
0.134900	-0.383219
0.135000	-0.473453
0.135100	-0.474427
0.135200	-0.655219
0.135300	-0.905472
0.135400	-1.037252
0.135500	-0.897033
0.135600	-0.736365
0.135700	-0.684107
0.135800	-0.850942
0.135900	-1.153777
0.136000	-1.314770
0.136100	-1.287180
0.136200	-1.167085
0.136300	-1.064192
0.136400	-1.175849
0.136500	-1.331973
0.136600	-1.448173
0.136700	-1.490369
0.136800	-1.465701
0.136900	-1.405653
0.137000	-1.460507
0.137100	-1.485825
0.137200	-1.521204
0.137300	-1.555935
0.137400	-1.580927
0.137500	-1.607219
0.137600	-1.657204
0.137700	-1.708813
0.137800	-1.741271
0.137900	-1.737701
0.138000	-1.783142
0.138100	-1.858446
0.138200	-1.844489
0.138300	-1.787362
0.138400	-1.630589
0.138500	-1.593911
0.138600	-1.727639
0.138700	-1.959391
0.138800	-2.036642
0.138900	-2.020737
0.139000	-1.812355
0.139100	-1.676030
0.139200	-1.763992
0.139300	-1.979190
0.139400	-2.191792
0.139500	-2.197635
0.139600	-2.102532
0.139700	-2.003534
0.139800	-1.936021
0.139900	-1.968479
0.140000	-2.027878
0.140100	-2.050599
0.140200	-1.996718
0.140300	-1.982112
0.140400	-1.924985
0.140500	-1.861367
0.140600	-1.792555
0.140700	-1.688364
0.140800	-1.605271
0.140900	-1.579305
0.141000	-1.527371
0.141100	-1.491992
0.141200	-1.304059
0.141300	-1.191429
0.141400	-0.935333
0.141500	-0.891190
0.141600	-0.843152
0.141700	-0.799009
0.141800	-0.717863
0.141900	-0.636718
0.142000	-0.483515
0.142100	-0.421845
0.142200	-0.399773
0.142300	-0.393931
0.142400	-0.389711
0.142500	-0.367640
0.142600	-0.425740
0.142700	-0.392308
0.142800	-0.365367
0.142900	-0.345243
0.143000	-0.295907
0.143100	-0.280976
0.143200	-0.309864
0.143300	-0.325444
0.143400	-0.326418
0.143500	-0.166723
0.143600	0.016990
0.143700	0.312359
0.143800	0.018937
0.143900	-0.165750
0.144000	-0.216384
0.144100	-0.121282
0.144200	0.095539
0.144300	0.235433
0.144400	0.203624
0.144500	0.109820
0.144600	-0.057989
0.144700	0.021859
0.144800	0.156884
0.144900	0.368512
0.145000	0.357800
0.145100	0.340273
0.145200	0.281199
0.145300	0.244197
0.145400	0.283471
0.145500	0.283147
0.145600	0.311710
0.145700	0.315280
0.145800	0.309762
0.145900	0.314956
0.146000	0.371757
0.146100	0.317877
0.146200	0.240627
0.146300	0.208818
0.146400	0.248741
0.146500	0.327290
0.146600	0.376951
0.146700	0.201677
0.146800	-0.049874
0.146900	-0.068051
0.147000	0.063730
0.147100	0.275357
0.147200	0.209467
0.147300	0.118259
0.147400	-0.171268
0.147500	-0.180680
0.147600	-0.073893
0.147700	0.164999
0.147800	0.215309
0.147900	0.150393
0.148000	0.016665
0.148100	0.012446
0.148200	-0.023583
0.148300	0.031921
0.148400	0.043281
0.148500	0.001085
0.148600	-0.031697
0.148700	-0.035268
0.148800	-0.028127
0.148900	-0.060585
0.149000	-0.116738
0.149100	-0.131993
0.149200	-0.109272
0.149300	-0.092719
0.149400	-0.067726
0.149500	-0.129721
0.149600	-0.263124
0.149700	-0.294284
0.149800	-0.280002
0.149900	-0.216384
0.150000	-0.210867
0.150100	-0.206647
0.150200	-0.183277
0.150300	-0.182953
0.150400	-0.166723
0.150500	-0.169320
0.150600	-0.144003
0.150700	-0.167697
0.150800	-0.157635
0.150900	-0.198208
0.151000	-0.177435
0.151100	-0.178733
0.151200	-0.168996
0.151300	-0.197559
0.151400	-0.190418
0.151500	-0.207296
0.151600	-0.246895
0.151700	-0.265396
0.151800	-0.321873
0.151900	-0.546160
0.152000	-0.775639
0.152100	-0.800956
0.152200	-0.686703
0.152300	-0.519868
0.152400	-0.527983
0.152500	-0.795763
0.152600	-1.007066
0.152700	-1.151505
0.152800	-1.048612
0.152900	-0.953834
0.153000	-0.949939
0.153100	-1.054130
0.153200	-1.226808
0.153300	-1.330025
0.153400	-1.330025
0.153500	-1.217071
0.153600	-1.249204
0.153700	-1.278741
0.153800	-1.367677
0.153900	-1.406302
0.154000	-1.417338
0.154100	-1.412469
0.154200	-1.486149
0.154300	-1.511467
0.154400	-1.617281
0.154500	-1.551066
0.154600	-1.541978
0.154700	-1.626044
0.154800	-1.672135
0.154900	-1.736078
0.155000	-1.615658
0.155100	-1.471868
0.155200	-1.459858
0.155300	-1.632211
0.155400	-1.877921
0.155500	-1.930828
0.155600	-1.819171
0.155700	-1.577032
0.155800	-1.514388
0.155900	-1.678302
0.156000	-1.933424
0.156100	-2.093444
0.156200	-2.053520
0.156300	-1.918493
0.156400	-1.804889
0.156500	-1.811706
0.156600	-1.859419
0.156700	-1.922064
0.156800	-1.924336
0.156900	-1.888307
0.157000	-1.829558
0.157100	-1.814952
0.157200	-1.796126
0.157300	-1.694856
0.157400	-1.566970
0.157500	-1.482254
0.157600	-1.468297
0.157700	-1.438436
0.157800	-1.409548
0.157900	-1.239467
0.158000	-1.123266
0.158100	-0.851267
0.158200	-0.867496
0.158300	-0.855486
0.158400	-0.783429
0.158500	-0.703906
0.158600	-0.573424
0.158700	-0.431582
0.158800	-0.346542
0.158900	-0.361472
0.159000	-0.349788
0.159100	-0.392308
0.159200	-0.331936
0.159300	-0.393931
0.159400	-0.306294
0.159500	-0.318303
0.159600	-0.264423
0.159700	-0.278055
0.159800	-0.293959
0.159900	-0.292986
0.160000	-0.354656
0.160100	-0.203401
0.160200	-0.160881
0.160300	0.221801
0.160400	0.212713
0.160500	0.103004
0.160600	-0.218657
0.160700	-0.200805
0.160800	-0.046304
0.160900	0.271462
0.161000	0.351958
0.161100	0.319500
0.161200	0.195834
0.161300	0.047176
0.161400	0.165324
0.161500	0.332159
0.161600	0.581113
0.161700	0.511328
0.161800	0.487309
0.161900	0.386039
0.162000	0.365915
0.162100	0.418173
0.162200	0.444139
0.162300	0.489905
0.162400	0.490230
0.162500	0.444464
0.162600	0.369810
0.162700	0.420120
0.162800	0.329237
0.162900	0.329237
0.163000	0.306192
0.163100	0.324693
0.163200	0.388636
0.163300	0.359423
0.163400	0.137410
0.163500	-0.030075
0.163600	0.008226
0.163700	0.177982
0.163800	0.346116
0.163900	0.305218
0.164000	0.136111
0.164100	-0.076165
0.164200	-0.058962
0.164300	0.086775
0.164400	0.292235
0.164500	0.333781
0.164600	0.212388
0.164700	0.105925
0.164800	0.089047
0.164900	0.073467
0.165000	0.188369
0.165100	0.135138
0.165200	0.147796
0.165300	0.084503
0.165400	0.098784
0.165500	0.127023
0.165600	0.117610
0.165700	0.099758
0.165800	0.099109
0.165900	0.131243
0.166000	0.157209
0.166100	0.174736
0.166200	0.063730
0.166300	-0.014170
0.166400	-0.059287
0.166500	-0.047927
0.166600	0.002384
0.166700	0.000436
0.166800	0.013419
0.166900	0.045878
0.167000	0.056913
0.167100	0.033543
0.167200	0.030622
0.167300	0.037438
0.167400	0.016990
0.167500	0.025754
0.167600	0.011472
0.167700	0.016341
0.167800	0.005954
0.167900	-0.011573
0.168000	-0.028776
0.168100	-0.022285
0.168200	-0.059287
0.168300	-0.076490
0.168400	-0.119010
0.168500	-0.196260
0.168600	-0.486112
0.168700	-0.623085
0.168800	-0.604260
0.168900	-0.415028
0.169000	-0.352060
0.169100	-0.455601
0.169200	-0.722083
0.169300	-0.935009
0.169400	-0.982722
0.169500	-0.827572
0.169600	-0.770770
0.169700	-0.784727
0.169800	-0.969414
0.169900	-1.070359
0.170000	-1.194999
0.170100	-1.180393
0.170200	-1.171629
0.170300	-1.161242
0.170400	-1.192727
0.170500	-1.236221
0.170600	-1.257643
0.170700	-1.302760
0.170800	-1.315419
0.170900	-1.342684
0.171000	-1.383906
0.171100	-1.456937
0.171200	-1.453042
0.171300	-1.463104
0.171400	-1.507896
0.171500	-1.538732
0.171600	-1.542627
0.171700	-1.363782
0.171800	-1.258617
0.171900	-1.312822
0.172000	-1.550741
0.172100	-1.707515
0.172200	-1.742245
0.172300	-1.557233
0.172400	-1.372870
0.172500	-1.390073
0.172600	-1.574436
0.172700	-1.787362
0.172800	-1.863639
0.172900	-1.806837
0.173000	-1.684469
0.173100	-1.628316
0.173200	-1.658827
0.173300	-1.685443
0.173400	-1.720823
0.173500	-1.685768
0.173600	-1.666293
0.173700	-1.616307
0.173800	-1.582550
0.173900	-1.522178
0.174000	-1.382283
0.174100	-1.271600
0.174200	-1.252125
0.174300	-1.246608
0.174400	-1.271600
0.174500	-1.144364
0.174600	-1.001873
0.174700	-0.880479
0.174800	-0.650675
0.174900	-0.673071
0.175000	-0.626656
0.175100	-0.546484
0.175200	-0.458198
0.175300	-0.336155
0.175400	-0.252088
0.175500	-0.179382
0.175600	-0.179058
0.175700	-0.164451
0.175800	-0.189769
0.175900	-0.175812
0.176000	-0.256957
0.176100	-0.155688
0.176200	-0.186523
0.176300	-0.107650
0.176400	-0.168671
0.176500	-0.136862
0.176600	-0.213139
0.176700	-0.157311
0.176800	-0.140108
0.176900	0.140980
0.177000	0.325018
0.177100	0.375977
0.177200	0.016016
0.177300	-0.094666
0.177400	-0.036242
0.177500	0.168245
0.177600	0.348712
0.177700	0.345466
0.177800	0.319824
0.177900	0.188693
0.178000	0.142603
0.178100	0.369161
0.178200	0.432130
0.178300	0.590525
0.178400	0.498020
0.178500	0.570401
0.178600	0.504836
0.178700	0.510029
0.178800	0.553848
0.178900	0.548654
0.179000	0.552549
0.179100	0.586306
0.179200	0.662907
0.179300	0.600588
0.179400	0.550927
0.179500	0.547681
0.179600	0.420120
0.179700	0.434402
0.179800	0.462316
0.179900	0.493800
0.180000	0.433753
0.180100	0.088398
0.180200	0.045878
0.180300	0.146173
0.180400	0.351633
0.180500	0.447710
0.180600	0.292884
0.180700	0.065352
0.180800	-0.076814
0.180900	-0.014819
0.181000	0.212713
0.181100	0.297104
0.181200	0.259128
0.181300	0.111443
0.181400	0.042956
0.181500	0.063080
0.181600	0.090021
0.181700	0.129620
0.181800	0.049123
0.181900	0.012770
0.182000	-0.018714
0.182100	0.030947
0.182200	0.046851
0.182300	0.047825
0.182400	0.002384
0.182500	0.026727
0.182600	0.019586
0.182700	0.089372
0.182800	0.058536
0.182900	-0.045330
0.183000	-0.110246
0.183100	-0.122580
0.183200	-0.094991
0.183300	0.024455
0.183400	-0.036242
0.183500	-0.002810
0.183600	0.012770
0.183700	0.030947
0.183800	0.031596
0.183900	0.040360
0.184000	0.041983
0.184100	0.070546
0.184200	0.063080
0.184300	0.057887
0.184400	0.052369
0.184500	0.048474
0.184600	0.051720
0.184700	-0.002485
0.184800	-0.032022
0.184900	-0.075516
0.185000	-0.107650
0.185100	-0.168022
0.185200	-0.278704
0.185300	-0.542914
0.185400	-0.694493
0.185500	-0.550379
0.185600	-0.401721
0.185700	-0.301425
0.185800	-0.509157
0.185900	-0.792193
0.186000	-0.986942
0.186100	-1.003496
0.186200	-0.815238
0.186300	-0.759085
0.186400	-0.847047
0.186500	-1.019400
0.186600	-1.155400
0.186700	-1.182665
0.186800	-1.155400
0.186900	-1.132679
0.187000	-1.126188
0.187100	-1.171304
0.187200	-1.226159
0.187300	-1.235572
0.187400	-1.274197
0.187500	-1.311524
0.187600	-1.334894
0.187700	-1.427075
0.187800	-1.410846
0.187900	-1.455639
0.188000	-1.472517
0.188100	-1.546846
0.188200	-1.578980
0.188300	-1.500106
0.188400	-1.340412
0.188500	-1.243037
0.188600	-1.413443
0.188700	-1.678627
0.188800	-1.763667
0.188900	-1.740622
0.189000	-1.505624
0.189100	-1.384230
0.189200	-1.484526
0.189300	-1.713357
0.189400	-1.911028
0.189500	-1.932775
0.189600	-1.797424
0.189700	-1.685768
0.189800	-1.691610
0.189900	-1.767887
0.190000	-1.794178
0.190100	-1.795801
0.190200	-1.755228
0.190300	-1.714980
0.190400	-1.755553
0.190500	-1.723744
0.190600	-1.672135
0.190700	-1.532565
0.190800	-1.423180
0.190900	-1.417013
0.191000	-1.383906
0.191100	-1.364106
0.191200	-1.186884
0.191300	-1.043419
0.191400	-0.796737
0.191500	-0.752269
0.191600	-0.752918
0.191700	-0.708450
0.191800	-0.617892
0.191900	-0.538694
0.192000	-0.358551
0.192100	-0.338103
0.192200	-0.282275
0.192300	-0.285196
0.192400	-0.263124
0.192500	-0.229368
0.192600	-0.299153
0.192700	-0.233263
0.192800	-0.239430
0.192900	-0.222551
0.193000	-0.202752
0.193100	-0.205024
0.193200	-0.131669
0.193300	-0.260528
0.193400	-0.133941
0.193500	-0.067401
0.193600	0.186746
0.193700	0.399672
0.193800	0.217906
0.193900	0.031596
0.194000	-0.168346
0.194100	0.042307
0.194200	0.212388
0.194300	0.346116
0.194400	0.442516
0.194500	0.226994
0.194600	0.146822
0.194700	0.101381
0.194800	0.342545
0.194900	0.463939
0.195000	0.528206
0.195100	0.504187
0.195200	0.464263
0.195300	0.386364
0.195400	0.420445
0.195500	0.439920
0.195600	0.458421
0.195700	0.458096
0.195800	0.479519
0.195900	0.415901
0.196000	0.452578
0.196100	0.367213
0.196200	0.366564
0.196300	0.356178
0.196400	0.335080
0.196500	0.431805
0.196600	0.385390
0.196700	0.313333
0.196800	-0.028776
0.196900	-0.020337
0.197000	0.090345
0.197100	0.343519
0.197200	0.354879
0.197300	0.198106
0.197400	-0.051822
0.197500	-0.096614
0.197600	-0.005731
0.197700	0.214011
0.197800	0.279901
0.197900	0.181228
0.198000	0.013095
0.198100	0.022508
0.198200	0.023481
0.198300	0.088398
0.198400	0.060159
0.198500	0.009200
0.198600	-0.034294
0.198700	-0.032022
0.198800	0.026727
0.198900	-0.004757
0.199000	-0.041435
0.199100	-0.063506
0.199200	-0.048576
0.199300	-0.017416
0.199400	0.022508
0.199500	-0.031373
0.199600	-0.162179
0.199700	-0.199182
0.199800	-0.181005
0.199900	-0.097263
0.200000	-0.099860
0.200100	-0.112843
0.200200	-0.093043
0.200300	-0.106027
0.200400	-0.104079
0.200500	-0.119984
0.200600	-0.107650
0.200700	-0.115764
0.200800	-0.133292
0.200900	-0.144652
0.201000	-0.126475
0.201100	-0.166074
0.201200	-0.145301
0.201300	-0.167048
0.201400	-0.187821
0.201500	-0.194637
0.201600	-0.256633
0.201700	-0.241702
0.201800	-0.326093
0.201900	-0.525711
0.202000	-0.811668
0.202100	-0.789596
0.202200	-0.665281
0.202300	-0.497148
0.202400	-0.546484
0.202500	-0.804527
0.202600	-1.096651
0.202700	-1.228106
0.202800	-1.169357
0.202900	-1.015180
0.203000	-1.013233
0.203100	-1.090808
0.203200	-1.272574
0.203300	-1.387476
0.203400	-1.428049
0.203500	-1.415066
0.203600	-1.353720
0.203700	-1.401109
0.203800	-1.435514
0.203900	-1.489395
0.204000	-1.479982
0.204100	-1.549443
0.204200	-1.565997
0.204300	-1.590989
0.204400	-1.699725
0.204500	-1.675056
0.204600	-1.698751
0.204700	-1.706541
0.204800	-1.750360
0.204900	-1.793854
0.205000	-1.670188
0.205100	-1.573787
0.205200	-1.548794
0.205300	-1.721147
0.205400	-1.976594
0.205500	-2.082083
0.205600	-1.938942
0.205700	-1.706541
0.205800	-1.652660
0.205900	-1.816899
0.206000	-2.064880
0.206100	-2.193091
0.206200	-2.178484
0.206300	-2.030799
0.206400	-1.971725
0.206500	-2.002885
0.206600	-2.086627
0.206700	-2.101558
0.206800	-2.056441
0.206900	-2.016193
0.207000	-2.015544
0.207100	-2.035343
0.207200	-1.960689
0.207300	-1.802942
0.207400	-1.699725
0.207500	-1.642274
0.207600	-1.647142
0.207700	-1.621500
0.207800	-1.555935
0.207900	-1.391047
0.208000	-1.320612
0.208100	-1.158646
0.208200	-1.094703
0.208300	-1.034006
0.208400	-0.984345
0.208500	-0.879830
0.208600	-0.790245
0.208700	-0.634446
0.208800	-0.555572
0.208900	-0.574074
0.209000	-0.544861
0.209100	-0.547782
0.209200	-0.537396
0.209300	-0.536747
0.209400	-0.533176
0.209500	-0.518570
0.209600	-0.512728
0.209700	-0.466637
0.209800	-0.465339
0.209900	-0.457549
0.210000	-0.530580
0.210100	-0.499744
0.210200	-0.332585
0.210300	-0.137511
0.210400	0.056589
0.210500	-0.219306
0.210600	-0.427687
0.210700	-0.430933
0.210800	-0.274160
0.210900	0.002708
0.211000	0.070870
0.211100	0.063730
0.211200	-0.085253
0.211300	-0.145950
0.211400	0.022508
0.211500	0.078011
0.211600	0.246794
0.211700	0.235433
0.211800	0.192588
0.211900	0.183825
0.212000	0.151691
0.212100	0.193887
0.212200	0.202975
0.212300	0.229266
0.212400	0.252961
0.212500	0.251013
0.212600	0.185772
0.212700	0.180579
0.212800	0.176684
0.212900	0.094565
0.213000	0.019262
0.213100	0.056264
0.213200	0.108846
0.213300	0.131892
0.213400	-0.126151
0.213500	-0.308241
0.213600	-0.350761
0.213700	-0.176785
0.213800	-0.049225
0.213900	-0.072595
0.214000	-0.304671
0.214100	-0.503639
0.214200	-0.481568
0.214300	-0.314733
0.214400	-0.130695
0.214500	-0.115115
0.214600	-0.266370
0.214700	-0.381921
0.214800	-0.335506
0.214900	-0.330313
0.215000	-0.257606
0.215100	-0.330637
0.215200	-0.357577
0.215300	-0.400098
0.215400	-0.409835
0.215500	-0.359525
0.215600	-0.396203
0.215700	-0.417950
0.215800	-0.418274
0.215900	-0.401721
0.216000	-0.362122
0.216100	-0.356928
0.216200	-0.481568
0.216300	-0.560117
0.216400	-0.597119
0.216500	-0.560117
0.216600	-0.432880
0.216700	-0.496174
0.216800	-0.479296
0.216900	-0.478646
0.217000	-0.462417
0.217100	-0.452680
0.217200	-0.472479
0.217300	-0.427687
0.217400	-0.446513
0.217500	-0.428985
0.217600	-0.475401
0.217700	-0.482866
0.217800	-0.489358
0.217900	-0.508183
0.218000	-0.516298
0.218100	-0.560117
0.218200	-0.540317
0.218300	-0.623735
0.218400	-0.661386
0.218500	-0.787324
0.218600	-1.017453
0.218700	-1.241739
0.218800	-1.135925
0.218900	-0.978503
0.219000	-0.923973
0.219100	-1.013882
0.219200	-1.343658
0.219300	-1.580603
0.219400	-1.621176
0.219500	-1.507572
0.219600	-1.436164
0.219700	-1.453367
0.219800	-1.574436
0.219900	-1.717901
0.220000	-1.789309
0.220100	-1.801968
0.220200	-1.715305
0.220300	-1.708813
0.220400	-1.710760
0.220500	-1.780870
0.220600	-1.827286
0.220700	-1.855849
0.220800	-1.857147
0.220900	-1.909730
0.221000	-1.949004
0.221100	-2.033396
0.221200	-2.060985
0.221300	-2.045405
0.221400	-2.083706
0.221500	-2.121358
0.221600	-2.132718
0.221700	-2.021062
0.221800	-1.881816
0.221900	-1.942837
0.222000	-2.149597
0.222100	-2.322599
0.222200	-2.361225
0.222300	-2.157711
0.222400	-1.950952
0.222500	-1.953224
0.222600	-2.157062
0.222700	-2.388165
0.222800	-2.460872
0.222900	-2.369015
0.223000	-2.216785
0.223100	-2.155764
0.223200	-2.178809
0.223300	-2.254761
0.223400	-2.286571
0.223500	-2.252489
0.223600	-2.230742
0.223700	-2.201854
0.223800	-2.185950
0.223900	-2.109997
0.224000	-1.992174
0.224100	-1.910054
0.224200	-1.857796
0.224300	-1.841567
0.224400	-1.867209
0.224500	-1.755877
0.224600	-1.607219
0.224700	-1.537433
0.224800	-1.281662
0.224900	-1.312498
0.225000	-1.291075
0.225100	-1.204412
0.225200	-1.107362
0.225300	-0.923648
0.225400	-0.874961
0.225500	-0.770121
0.225600	-0.790245
0.225700	-0.766226
0.225800	-0.775639
0.225900	-0.786999
0.226000	-0.826274
0.226100	-0.740909
0.226200	-0.800956
0.226300	-0.670799
0.226400	-0.734417
0.226500	-0.634446
0.226600	-0.746102
0.226700	-0.638341
0.226800	-0.608479
0.226900	-0.336155
0.227000	-0.126475
0.227100	-0.115115
0.227200	-0.415353
0.227300	-0.567257
0.227400	-0.516623
0.227500	-0.315382
0.227600	-0.133292
0.227700	-0.019363
0.227800	-0.110895
0.227900	-0.236184
0.228000	-0.272862
0.228100	-0.144652
0.228200	-0.023583
0.228300	0.103978
0.228400	0.116636
0.228500	0.055615
0.228600	0.013095
0.228700	-0.010275
0.228800	0.056913
0.228900	0.053343
0.229000	0.081582
0.229100	0.100407
0.229200	0.110469
0.229300	-0.039812
0.229400	-0.030399
0.229500	-0.066752
0.229600	-0.082008
0.229700	-0.155038
0.229800	-0.088175
0.229900	-0.080385
0.230000	-0.104079
0.230100	-0.414704
0.230200	-0.498771
0.230300	-0.344594
0.230400	-0.212814
0.230500	-0.038514
0.230600	-0.215735
0.230700	-0.410484
0.230800	-0.555572
0.230900	-0.505587
0.231000	-0.266695
0.231100	-0.166074
0.231200	-0.208270
0.231300	-0.340375
0.231400	-0.379974
0.231500	-0.362122
0.231600	-0.355305
0.231700	-0.308890
0.231800	-0.385492
0.231900	-0.428661
0.232000	-0.491305
0.232100	-0.493902
0.232200	-0.486112
0.232300	-0.517596
0.232400	-0.541940
0.232500	-0.532527
0.232600	-0.534475
0.232700	-0.509806
0.232800	-0.492928
0.232900	-0.651649
0.233000	-0.726952
0.233100	-0.772393
0.233200	-0.592899
0.233300	-0.613348
0.233400	-0.656842
0.233500	-0.659114
0.233600	-0.652622
0.233700	-0.662035
0.233800	-0.653921
0.233900	-0.653921
0.234000	-0.661711
0.234100	-0.698064
0.234200	-0.677615
0.234300	-0.693520
0.234400	-0.682484
0.234500	-0.727276
0.234600	-0.734092
0.234700	-0.756164
0.234800	-0.763954
0.234900	-0.806474
0.235000	-0.841204
0.235100	-0.935333
0.235200	-1.084316
0.235300	-1.335543
0.235400	-1.416689
0.235500	-1.309252
0.235600	-1.157023
0.235700	-1.065166
0.235800	-1.280689
0.235900	-1.574760
0.236000	-1.758474
0.236100	-1.692259
0.236200	-1.555610
0.236300	-1.495238
0.236400	-1.524775
0.236500	-1.741920
0.236600	-1.876622
0.236700	-1.892851
0.236800	-1.839944
0.236900	-1.828259
0.237000	-1.796126
0.237100	-1.819171
0.237200	-1.859095
0.237300	-1.863639
0.237400	-1.900641
0.237500	-1.900641
0.237600	-1.912651
0.237700	-1.968155
0.237800	-1.964909
0.237900	-1.938942
0.238000	-1.929205
0.238100	-2.022360
0.238200	-2.030475
0.238300	-1.984059
0.238400	-1.784765
0.238500	-1.751009
0.238600	-1.857796
0.238700	-2.120384
0.238800	-2.260279
0.238900	-2.227496
0.239000	-2.024632
0.239100	-1.901615
0.239200	-1.971400
0.239300	-2.189520
0.239400	-2.415430
0.239500	-2.412184
0.239600	-2.338504
0.239700	-2.214189
0.239800	-2.202504
0.239900	-2.253463
0.240000	-2.322924
0.240100	-2.335258
0.240200	-2.316432
0.240300	-2.276184
0.240400	-2.294036
0.240500	-2.274886
0.240600	-2.178160
0.240700	-2.041510
0.240800	-1.976918
0.240900	-1.986331
0.241000	-1.973673
0.241100	-1.990875
0.241200	-1.834426
0.241300	-1.700374
0.241400	-1.565997
0.241500	-1.438111
0.241600	-1.437787
0.241700	-1.395591
0.241800	-1.289452
0.241900	-1.193701
0.242000	-1.071982
0.242100	-1.009013
0.242200	-0.937605
0.242300	-0.968765
0.242400	-0.939228
0.242500	-0.932412
0.242600	-0.940851
0.242700	-0.947667
0.242800	-0.870417
0.242900	-0.897033
0.243000	-0.800632
0.243100	-0.927219
0.243200	-0.811018
0.243300	-0.995706
0.243400	-0.864899
0.243500	-0.844126
0.243600	-0.528632
0.243700	-0.420546
0.243800	-0.460794
0.243900	-0.770121
0.244000	-0.800632
0.244100	-0.679563
0.244200	-0.427363
0.244300	-0.215411
0.244400	-0.248193
0.244500	-0.409835
0.244600	-0.519868
0.244700	-0.528957
0.244800	-0.379324
0.244900	-0.228394
0.245000	-0.107000
0.245100	-0.084280
0.245200	-0.064805
0.245300	-0.143678
0.245400	-0.085578
0.245500	-0.093693
0.245600	-0.031048
0.245700	-0.027802
0.245800	0.018937
0.245900	-0.044356
0.246000	0.038412
0.246100	-0.061884
0.246200	-0.047602
0.246300	-0.096614
0.246400	-0.088499
0.246500	-0.058313
0.246600	0.006279
0.246700	-0.222876
0.246800	-0.440995
0.246900	-0.490981
0.247000	-0.320575
0.247100	-0.179382
0.247200	-0.071946
0.247300	-0.299153
0.247400	-0.523114
0.247500	-0.646131
0.247600	-0.528957
0.247700	-0.289740
0.247800	-0.217034
0.247900	-0.319926
0.248000	-0.471181
0.248100	-0.508833
0.248200	-0.502666
0.248300	-0.435153
0.248400	-0.444890
0.248500	-0.507210
0.248600	-0.554274
0.248700	-0.578618
0.248800	-0.538370
0.248900	-0.512078
0.249000	-0.529930
0.249100	-0.569205
0.249200	-0.552976
0.249300	-0.493902
0.249400	-0.454303
0.249500	-0.506561
0.249600	-0.663009
0.249700	-0.690923
0.249800	-0.713319
0.249900	-0.526035
0.250000	-0.571801
0.250100	-0.566284
0.250200	-0.584785
0.250300	-0.583162
0.250400	-0.591601
0.250500	-0.611400
0.250600	-0.632823
0.250700	-0.638665
0.250800	-0.651649
0.250900	-0.667229
0.251000	-0.663009
0.251100	-0.701310
0.251200	-0.690598
0.251300	-0.732470
0.251400	-0.682159
0.251500	-0.762006
0.251600	-0.790570
0.251700	-0.880803
0.251800	-0.893462
0.251900	-1.136574
0.252000	-1.356641
0.252100	-1.397863
0.252200	-1.216746
0.252300	-1.035305
0.252400	-1.078799
0.252500	-1.325156
0.252600	-1.590340
0.252700	-1.716603
0.252800	-1.625720
0.252900	-1.466999
0.253000	-1.453367
0.253100	-1.524775
0.253200	-1.708488
0.253300	-1.821443
0.253400	-1.851954
0.253500	-1.818847
0.253600	-1.812355
0.253700	-1.809434
0.253800	-1.855849
0.253900	-1.892202
0.254000	-1.919143
0.254100	-1.972050
0.254200	-2.010350
0.254300	-2.042484
0.254400	-2.114542
0.254500	-2.130122
0.254600	-2.148947
0.254700	-2.183678
0.254800	-2.239831
0.254900	-2.255735
0.255000	-2.143754
0.255100	-1.992823
0.255200	-1.967830
0.255300	-2.147974
0.255400	-2.384270
0.255500	-2.463469
0.255600	-2.346294
0.255700	-2.101883
0.255800	-2.019114
0.255900	-2.158036
0.256000	-2.402122
0.256100	-2.576424
0.256200	-2.583889
0.256300	-2.447564
0.256400	-2.332661
0.256500	-2.342724
0.256600	-2.432958
0.256700	-2.492032
0.256800	-2.480022
0.256900	-2.444643
0.257000	-2.393359
0.257100	-2.396929
0.257200	-2.303449
0.257300	-2.221979
0.257400	-2.078188
0.257500	-2.008403
0.257600	-2.017167
0.257700	-2.021062
0.257800	-1.990551
0.257900	-1.804565
0.258000	-1.711085
0.258100	-1.487448
0.258200	-1.440059
0.258300	-1.418312
0.258400	-1.353395
0.258500	-1.257968
0.258600	-1.158970
0.258700	-1.021348
0.258800	-0.951887
0.258900	-0.911314
0.259000	-0.882751
0.259100	-0.889567
0.259200	-0.855811
0.259300	-0.889567
0.259400	-0.822703
0.259500	-0.798360
0.259600	-0.769796
0.259700	-0.742532
0.259800	-0.760059
0.259900	-0.791219
0.260000	-0.837309
0.260100	-0.774341
0.260200	-0.591276
0.260300	-0.316680
0.260400	-0.153740
0.260500	-0.366341
0.260600	-0.607181
0.260700	-0.624708
0.260800	-0.415353
0.260900	-0.243649
0.261000	-0.065779
0.261100	-0.109597
0.261200	-0.301100
0.261300	-0.404317
0.261400	-0.307592
0.261500	-0.100833
0.261600	-0.009626
0.261700	0.053668
0.261800	-0.023583
0.261900	-0.038514
0.262000	-0.213463
0.262100	-0.162504
0.262200	-0.150819
0.262300	-0.110246
0.262400	-0.117062
0.262500	-0.040461
0.262600	-0.126800
0.262700	-0.112194
0.262800	-0.158933
0.262900	-0.213463
0.263000	-0.228069
0.263100	-0.215086
0.263200	-0.141406
0.263300	-0.181979
0.263400	-0.441320
0.263500	-0.586732
0.263600	-0.547133
0.263700	-0.378675
0.263800	-0.203077
0.263900	-0.244948
0.264000	-0.423792
0.264100	-0.672422
0.264200	-0.646780
0.264300	-0.472479
0.264400	-0.323172
0.264500	-0.291363
0.264600	-0.420222
0.264700	-0.512078
0.264800	-0.508508
0.264900	-0.538694
0.265000	-0.467286
0.265100	-0.530255
0.265200	-0.545510
0.265300	-0.589004
0.265400	-0.586083
0.265500	-0.554599
0.265600	-0.596145
0.265700	-0.614646
0.265800	-0.626656
0.265900	-0.598093
0.266000	-0.556871
0.266100	-0.546484
0.266200	-0.658465
0.266300	-0.762656
0.266400	-0.751295
0.266500	-0.709749
0.266600	-0.612699
0.266700	-0.678589
0.266800	-0.662035
0.266900	-0.640937
0.267000	-0.639964
0.267100	-0.664956
0.267200	-0.633797
0.267300	-0.663983
0.267400	-0.642885
0.267500	-0.632823
0.267600	-0.647429
0.267700	-0.630226
0.267800	-0.658140
0.267900	-0.663658
0.268000	-0.656517
0.268100	-0.677291
0.268200	-0.658789
0.268300	-0.684431
0.268400	-0.729873
0.268500	-0.784727
0.268600	-1.056078
0.268700	-1.244660
0.268800	-1.252775
0.268900	-1.008364
0.269000	-0.877233
0.269100	-1.009013
0.269200	-1.294646
0.269300	-1.541004
0.269400	-1.601701
0.269500	-1.487772
0.269600	-1.394942
0.269700	-1.372870
0.269800	-1.549768
0.269900	-1.687715
0.270000	-1.756851
0.270100	-1.821768
0.270200	-1.724068
0.270300	-1.745491
0.270400	-1.726990
0.270500	-1.796775
0.270600	-1.829233
0.270700	-1.841243
0.270800	-1.882789
0.270900	-1.944460
0.271000	-1.963286
0.271100	-2.014895
0.271200	-2.004508
0.271300	-2.058064
0.271400	-2.055467
0.271500	-2.133367
0.271600	-2.122007
0.271700	-2.005806
0.271800	-1.837348
0.271900	-1.879868
0.272000	-2.114542
0.272100	-2.291764
0.272200	-2.292738
0.272300	-2.114217
0.272400	-1.906484
0.272500	-1.908107
0.272600	-2.108050
0.272700	-2.333311
0.272800	-2.426141
0.272900	-2.334284
0.273000	-2.206723
0.273100	-2.168422
0.273200	-2.173291
0.273300	-2.239831
0.273400	-2.234637
0.273500	-2.197959
0.273600	-2.162580
0.273700	-2.171993
0.273800	-2.179458
0.273900	-2.129797
0.274000	-1.982761
0.274100	-1.889930
0.274200	-1.803591
0.274300	-1.759123
0.274400	-1.794503
0.274500	-1.699076
0.274600	-1.570216
0.274700	-1.500106
0.274800	-1.289128
0.274900	-1.309901
0.275000	-1.278092
0.275100	-1.189481
0.275200	-1.077825
0.275300	-0.943123
0.275400	-0.828546
0.275500	-0.765252
0.275600	-0.776288
0.275700	-0.722407
0.275800	-0.722407
0.275900	-0.703906
0.276000	-0.713644
0.276100	-0.682808
0.276200	-0.635420
0.276300	-0.587057
0.276400	-0.575372
0.276500	-0.564985
0.276600	-0.589978
0.276700	-0.617892
0.276800	-0.511754
0.276900	-0.347191
0.277000	-0.033320
0.277100	-0.056690
0.277200	-0.249816
0.277300	-0.498771
0.277400	-0.368613
0.277500	-0.308241
0.277600	-0.011249
0.277700	-0.013521
0.277800	-0.068051
0.277900	-0.270914
0.278000	-0.256633
0.278100	-0.156661
0.278200	0.013419
0.278300	0.147472
0.278400	0.120531
0.278500	0.136760
0.278600	0.011472
0.278700	-0.021635
0.278800	0.000436
0.278900	0.034517
0.279000	0.043930
0.279100	0.039711
0.279200	0.049123
0.279300	-0.010275
0.279400	-0.043058
0.279500	-0.017091
0.279600	-0.154065
0.279700	-0.041759
0.279800	-0.070972
0.279900	0.041658
0.280000	-0.020986
0.280100	-0.303048
0.280200	-0.357577
0.280300	-0.285845
0.280400	-0.072595
0.280500	0.024131
0.280600	-0.060910
0.280700	-0.288442
0.280800	-0.443267
0.280900	-0.391334
0.281000	-0.159258
0.281100	-0.065129
0.281200	-0.112843
0.281300	-0.248843
0.281400	-0.286819
0.281500	-0.281625
0.281600	-0.262150
0.281700	-0.225148
0.281800	-0.296556
0.281900	-0.338752
0.282000	-0.371859
0.282100	-0.357902
0.282200	-0.318303
0.282300	-0.357253
0.282400	-0.382570
0.282500	-0.389711
0.282600	-0.371535
0.282700	-0.345243
0.282800	-0.380947
0.282900	-0.505911
0.283000	-0.560117
0.283100	-0.592899
0.283200	-0.527009
0.283300	-0.466637
0.283400	-0.508508
0.283500	-0.475076
0.283600	-0.467935
0.283700	-0.475725
0.283800	-0.480594
0.283900	-0.471506
0.284000	-0.449759
0.284100	-0.430608
0.284200	-0.445864
0.284300	-0.432556
0.284400	-0.451706
0.284500	-0.430608
0.284600	-0.455601
0.284700	-0.423143
0.284800	-0.463391
0.284900	-0.458522
0.285000	-0.461768
0.285100	-0.509806
0.285200	-0.652947
0.285300	-0.885023
0.285400	-1.030111
0.285500	-0.873014
0.285600	-0.664632
0.285700	-0.644832
0.285800	-0.848670
0.285900	-1.154426
0.286000	-1.334894
0.286100	-1.278741
0.286200	-1.138846
0.286300	-1.019725
0.286400	-1.131056
0.286500	-1.263810
0.286600	-1.458235
0.286700	-1.445577
0.286800	-1.447524
0.286900	-1.383906
0.287000	-1.399161
0.287100	-1.451094
0.287200	-1.520555
0.287300	-1.563725
0.287400	-1.599104
0.287500	-1.606245
0.287600	-1.647467
0.287700	-1.685118
0.287800	-1.749710
0.287900	-1.768861
0.288000	-1.796126
0.288100	-1.828259
0.288200	-1.878245
0.288300	-1.829558
0.288400	-1.693558
0.288500	-1.613061
0.288600	-1.664670
0.288700	-1.894799
0.288800	-2.005806
0.288900	-1.920116
0.289000	-1.711410
0.289100	-1.568593
0.289200	-1.662398
0.289300	-1.876622
0.289400	-2.053195
0.289500	-2.041510
0.289600	-1.952899
0.289700	-1.856823
0.289800	-1.836699
0.289900	-1.881816
0.290000	-1.904536
0.290100	-1.923687
0.290200	-1.910703
0.290300	-1.895773
0.290400	-1.853252
0.290500	-1.817548
0.290600	-1.704918
0.290700	-1.581901
0.290800	-1.521853
0.290900	-1.517634
0.291000	-1.471543
0.291100	-1.458884
0.291200	-1.303409
0.291300	-1.188183
0.291400	-1.102818
0.291500	-0.930465
0.291600	-0.922025
0.291700	-0.874312
0.291800	-0.808746
0.291900	-0.722407
0.292000	-0.583811
0.292100	-0.537071
0.292200	-0.447162
0.292300	-0.482217
0.292400	-0.435153
0.292500	-0.425090
0.292600	-0.476374
0.292700	-0.450408
0.292800	-0.417950
0.292900	-0.350437
0.293000	-0.383869
0.293100	-0.318952
0.293200	-0.411783
0.293300	-0.412432
0.293400	-0.413406
0.293500	-0.266370
0.293600	-0.081683
0.293700	0.167271
0.293800	0.004656
0.293900	-0.178084
0.294000	-0.317005
0.294100	-0.160881
0.294200	-0.009950
0.294300	0.189018
0.294400	0.178956
0.294500	0.053018
0.294600	-0.042733
0.294700	0.018937
0.294800	0.118584
0.294900	0.232187
0.295000	0.299051
0.295100	0.232837
0.295200	0.224722
0.295300	0.273409
0.295400	0.256206
0.295500	0.274383
0.295600	0.280550
0.295700	0.296455
0.295800	0.275032
0.295900	0.339948
0.296000	0.235109
0.296100	0.291586
0.296200	0.193887
0.296300	0.148770
0.296400	0.194861
0.296500	0.214660
0.296600	0.266593
0.296700	0.050097
0.296800	-0.119659
0.296900	-0.139783
0.297000	-0.008003
0.297100	0.175061
0.297200	0.242249
0.297300	0.045228
0.297400	-0.132318
0.297500	-0.182953
0.297600	-0.021635
0.297700	0.147147
0.297800	0.175386
0.297900	0.095539
0.298000	-0.012547
0.298100	-0.007678
0.298200	-0.019363
0.298300	0.041658
0.298400	0.025104
0.298500	-0.029425
0.298600	-0.059611
0.298700	-0.087525
0.298800	-0.062208
0.298900	-0.081034
0.299000	-0.094342
0.299100	-0.137836
0.299200	-0.128747
0.299300	-0.088499
0.299400	-0.061884
0.299500	-0.112518
0.299600	-0.255010
0.299700	-0.293310
0.299800	-0.303372
0.299900	-0.138809
0.300000	-0.192690
0.300100	-0.202427
0.300200	-0.174189
0.300300	-0.173540
0.300400	-0.167048
0.300500	-0.155688
0.300600	-0.149521
0.300700	-0.161206
0.300800	-0.178408
0.300900	-0.192041
0.301000	-0.197559
0.301100	-0.183926
0.301200	-0.199506
0.301300	-0.210542
0.301400	-0.209568
0.301500	-0.203401
0.301600	-0.216384
0.301700	-0.298179
0.301800	-0.306943
0.301900	-0.496174
0.302000	-0.725978
0.302100	-0.786675
0.302200	-0.649377
0.302300	-0.441969
0.302400	-0.484489
0.302500	-0.750646
0.302600	-1.017128
0.302700	-1.131705
0.302800	-1.026865
0.302900	-0.885348
0.303000	-0.838283
0.303100	-1.007066
0.303200	-1.192078
0.303300	-1.332297
0.303400	-1.320288
0.303500	-1.287830
0.303600	-1.237519
0.303700	-1.279066
0.303800	-1.321261
0.303900	-1.374168
0.304000	-1.371572
0.304100	-1.377414
0.304200	-1.430321
0.304300	-1.470569
0.304400	-1.485500
0.304500	-1.520555
0.304600	-1.468946
0.304700	-1.508221
0.304800	-1.564698
0.304900	-1.598455
0.305000	-1.484202
0.305100	-1.318340
0.305200	-1.366378
0.305300	-1.489395
0.305400	-1.676679
0.305500	-1.782169
0.305600	-1.625720
0.305700	-1.408250
0.305800	-1.345930
0.305900	-1.476412
0.306000	-1.695830
0.306100	-1.836374
0.306200	-1.820469
0.306300	-1.678951
0.306400	-1.567620
0.306500	-1.542302
0.306600	-1.580603
0.306700	-1.647142
0.306800	-1.625720
0.306900	-1.608842
0.307000	-1.566321
0.307100	-1.552689
0.307200	-1.494264
0.307300	-1.370598
0.307400	-1.278417
0.307500	-1.227782
0.307600	-1.206035
0.307700	-1.207658
0.307800	-1.162541
0.307900	-0.972011
0.308000	-0.896383
0.308100	-0.653596
0.308200	-0.662035
0.308300	-0.646455
0.308400	-0.577644
0.308500	-0.472155
0.308600	-0.370561
0.308700	-0.247544
0.308800	-0.207296
0.308900	-0.196910
0.309000	-0.211840
0.309100	-0.165425
0.309200	-0.177759
0.309300	-0.156661
0.309400	-0.128098
0.309500	-0.121931
0.309600	-0.126151
0.309700	-0.099535
0.309800	-0.101158
0.309900	-0.085903
0.310000	-0.181005
0.310100	0.004980
0.310200	-0.013196
0.310300	0.338326
0.310400	0.393180
0.310500	0.277953
0.310600	-0.036891
0.310700	-0.087850
0.310800	0.174736
0.310900	0.411356
0.311000	0.546058
0.311100	0.520091
0.311200	0.336054
0.311300	0.251987
0.311400	0.297753
0.311500	0.586955
0.311600	0.625256
0.311700	0.684654
0.311800	0.631747
0.311900	0.549953
0.312000	0.552549
0.312100	0.535347
0.312200	0.629475
0.312300	0.630774
0.312400	0.645704
0.312500	0.634669
0.312600	0.646029
0.312700	0.651222
0.312800	0.552549
0.312900	0.582086
0.313000	0.517170
0.313100	0.668425
0.313200	0.632396
0.313300	0.700883
0.313400	0.399022
0.313500	0.333457
0.313600	0.345791
0.313700	0.481141
0.313800	0.702506
0.313900	0.627203
0.314000	0.462965
0.314100	0.246469
0.314200	0.233810
0.314300	0.384416
0.314400	0.604807
0.314500	0.647003
0.314600	0.531127
0.314700	0.417199
0.314800	0.416874
0.314900	0.393180
0.315000	0.494774
0.315100	0.480817
0.315200	0.470755
0.315300	0.383118
0.315400	0.347089
0.315500	0.393829
0.315600	0.389285
0.315700	0.375652
0.315800	0.386688
0.315900	0.396101
0.316000	0.427261
0.316100	0.461017
0.316200	0.344168
0.316300	0.264970
0.316400	0.284770
0.316500	0.377600
0.316600	0.457772
0.316700	0.396101
0.316800	0.402917
0.316900	0.438297
0.317000	0.433103
0.317100	0.415251
0.317200	0.421418
0.317300	0.425638
0.317400	0.395452
0.317500	0.412006
0.317600	0.443490
0.317700	0.403566
0.317800	0.396750
0.317900	0.382469
0.318000	0.364941
0.318100	0.384416
0.318200	0.298402
0.318300	0.283471
0.318400	0.208493
0.318500	0.134813
0.318600	-0.080060
0.318700	-0.300776
0.318800	-0.221253
0.318900	-0.096938
0.319000	0.099434
0.319100	-0.094991
0.319200	-0.341673
0.319300	-0.632823
0.319400	-0.675668
0.319500	-0.564985
0.319600	-0.438398
0.319700	-0.478971
0.319800	-0.658140
0.319900	-0.856784
0.320000	-0.977854
0.320100	-0.960326
0.320200	-0.873663
0.320300	-0.905796
0.320400	-0.917481
0.320500	-0.978503
0.320600	-1.000574
0.320700	-1.003820
0.320800	-1.023944
0.320900	-1.064842
0.321000	-1.090808
0.321100	-1.116775
0.321200	-1.092106
0.321300	-1.097300
0.321400	-1.147610
0.321500	-1.178121
0.321600	-1.169032
0.321700	-1.034655
0.321800	-0.911639
0.321900	-0.982398
0.322000	-1.146636
0.322100	-1.362159
0.322200	-1.355343
0.322300	-1.225834
0.322400	-1.034006
0.322500	-1.039200
0.322600	-1.187209
0.322700	-1.427075
0.322800	-1.534188
0.322900	-1.494913
0.323000	-1.366703
0.323100	-1.288803
0.323200	-1.271276
0.323300	-1.338789
0.323400	-1.354044
0.323500	-1.373844
0.323600	-1.332622
0.323700	-1.291725
0.323800	-1.268030
0.323900	-1.189481
0.324000	-1.051858
0.324100	-0.969090
0.324200	-0.944097
0.324300	-0.908068
0.324400	-0.908718
0.324500	-0.788622
0.324600	-0.662035
0.324700	-0.542589
0.324800	-0.304021
0.324900	-0.335831
0.325000	-0.302074
0.325100	-0.212814
0.325200	-0.134590
0.325300	-0.015793
0.325400	0.054966
0.325500	0.155911
0.325600	0.169219
0.325700	0.181228
0.325800	0.183176
0.325900	0.192913
0.326000	0.188369
0.326100	0.245820
0.326200	0.287366
0.326300	0.339624
0.326400	0.320474
0.326500	0.342545
0.326600	0.287366
0.326700	0.371108
0.326800	0.385390
0.326900	0.619413
0.327000	0.846945
0.327100	0.899527
0.327200	0.500941
0.327300	0.449332
0.327400	0.418497
0.327500	0.713542
0.327600	0.899203
0.327700	0.989436
0.327800	0.870639
0.327900	0.654468
0.328000	0.659337
0.328100	0.737561
0.328200	0.909589
0.328300	0.994305
0.328400	0.957952
0.328500	0.945942
0.328600	0.904071
0.328700	0.924844
0.328800	0.932634
0.328900	0.949513
0.329000	0.954706
0.329100	0.968338
0.329200	1.028386
0.329300	1.028061
0.329400	0.936529
0.329500	0.915756
0.329600	0.875184
0.329700	0.897904
0.329800	0.981646
0.329900	1.073178
0.330000	1.000797
0.330100	0.759632
0.330200	0.682057
0.330300	0.752492
0.330400	0.938802
0.330500	1.069932
0.330600	0.968338
0.330700	0.754764
0.330800	0.608377
0.330900	0.657389
0.331000	0.830716
0.331100	0.973532
0.331200	0.909589
0.331300	0.750869
0.331400	0.682707
0.331500	0.670373
0.331600	0.663881
0.331700	0.719060
0.331800	0.646354
0.331900	0.618439
0.332000	0.549304
0.332100	0.557094
0.332200	0.551576
0.332300	0.523013
0.332400	0.487633
0.332500	0.460693
0.332600	0.502239
0.332700	0.527881
0.332800	0.481791
0.332900	0.341247
0.333000	0.279576
0.333100	0.266593
0.333200	0.266268
0.333300	0.350011
0.333400	0.308140
0.333500	0.323070
0.333600	0.333457
0.333700	0.340598
0.333800	0.339948
0.333900	0.343519
0.334000	0.343194
0.334100	0.339299
0.334200	0.328264
0.334300	0.313333
0.334400	0.339299
0.334500	0.327939
0.334600	0.320474
0.334700	0.317228
0.334800	0.298727
0.334900	0.279576
0.335000	0.266918
0.335100	0.232187
0.335200	0.164674
0.335300	-0.137836
0.335400	-0.198857
0.335500	-0.097912
0.335600	0.118908
0.335700	0.159806
0.335800	-0.008328
0.335900	-0.245597
0.336000	-0.400098
0.336100	-0.298828
0.336200	-0.119984
0.336300	0.008551
0.336400	-0.078762
0.336500	-0.193339
0.336600	-0.276107
0.336700	-0.262150
0.336800	-0.179382
0.336900	-0.114466
0.337000	-0.085903
0.337100	-0.108948
0.337200	-0.087850
0.337300	-0.073244
0.337400	-0.063831
0.337500	-0.100509
0.337600	-0.139783
0.337700	-0.168346
0.337800	-0.170294
0.337900	-0.130046
0.338000	-0.163802
0.338100	-0.238781
0.338200	-0.265072
0.338300	-0.233912
0.338400	-0.071621
0.338500	-0.012872
0.338600	-0.113167
0.338700	-0.325768
0.338800	-0.467935
0.338900	-0.430608
0.339000	-0.249816
0.339100	-0.144652
0.339200	-0.219306
0.339300	-0.438723
0.339400	-0.615295
0.339500	-0.654570
0.339600	-0.561090
0.339700	-0.440021
0.339800	-0.424441
0.339900	-0.437100
0.340000	-0.502016
0.340100	-0.475076
0.340200	-0.440995
0.340300	-0.440670
0.340400	-0.413406
0.340500	-0.401071
0.340600	-0.362122
0.340700	-0.239430
0.340800	-0.204699
0.340900	-0.183277
0.341000	-0.185874
0.341100	-0.204375
0.341200	-0.044681
0.341300	0.058861
0.341400	0.292884
0.341500	0.304569
0.341600	0.293533
0.341700	0.339624
0.341800	0.410707
0.341900	0.479194
0.342000	0.599289
0.342100	0.677189
0.342200	0.691146
0.342300	0.755413
0.342400	0.732692
0.342500	0.782029
0.342600	0.718735
0.342700	0.784950
0.342800	0.757036
0.342900	0.849217
0.343000	0.831365
0.343100	0.896606
0.343200	0.834611
0.343300	0.827470
0.343400	0.794687
0.343500	0.926467
0.343600	1.132252
0.343700	1.449693
0.343800	1.266954
0.343900	1.088109
0.344000	0.936854
0.344100	1.073503
0.344200	1.292271
0.344300	1.503249
0.344400	1.566867
0.344500	1.353617
0.344600	1.247803
0.344700	1.230276
0.344800	1.396137
0.344900	1.476309
0.345000	1.547392
0.345100	1.528891
0.345200	1.462676
0.345300	1.505521
0.345400	1.488318
0.345500	1.509091
0.345600	1.516881
0.345700	1.493836
0.345800	1.423726
0.345900	1.469168
0.346000	1.406848
0.346100	1.376987
0.346200	1.249426
0.346300	1.214371
0.346400	1.217617
0.346500	1.247479
0.346600	1.235145
0.346700	1.077722
0.346800	0.757036
0.346900	0.751843
0.347000	0.814811
0.347100	1.049484
0.347200	1.009236
0.347300	0.885895
0.347400	0.586955
0.347500	0.494125
0.347600	0.582411
0.347700	0.772616
0.347800	0.787222
0.347900	0.696988
0.348000	0.527881
0.348100	0.482764
0.348200	0.436025
0.348300	0.434726
0.348400	0.411681
0.348500	0.318851
0.348600	0.238679
0.348700	0.192913
0.348800	0.192264
0.348900	0.152989
0.349000	0.060159
0.349100	0.002708
0.349200	-0.004757
0.349300	-0.037865
0.349400	0.005954
0.349500	-0.135888
0.349600	-0.268318
0.349700	-0.341024
0.349800	-0.399124
0.349900	-0.410809
0.350000	-0.398799
0.350100	-0.411133
0.350200	-0.380298
0.350300	-0.422818
0.350400	-0.422494
0.350500	-0.426064
0.350600	-0.421196
0.350700	-0.431907
0.350800	-0.458198
0.350900	-0.456575
0.351000	-0.477673
0.351100	-0.475725
0.351200	-0.497148
0.351300	-0.541291
0.351400	-0.574074
0.351500	-0.597119
0.351600	-0.651324
0.351700	-0.711696
0.351800	-0.805500
0.351900	-1.019725
0.352000	-1.303085
0.352100	-1.356641
0.352200	-1.188507
0.352300	-1.069386
0.352400	-1.061920
0.352500	-1.362159
0.352600	-1.664670
0.352700	-1.752632
0.352800	-1.734455
0.352900	-1.601052
0.353000	-1.565997
0.353100	-1.673758
0.353200	-1.846436
0.353300	-1.969453
0.353400	-1.899668
0.353500	-1.916546
0.353600	-1.872727
0.353700	-1.885061
0.353800	-1.933424
0.353900	-1.913300
0.354000	-1.936346
0.354100	-1.931801
0.354200	-1.995744
0.354300	-2.038589
0.354400	-2.097014
0.354500	-2.051572
0.354600	-2.040212
0.354700	-2.049625
0.354800	-2.107401
0.354900	-2.099611
0.355000	-1.972699
0.355100	-1.821443
0.355200	-1.765290
0.355300	-1.887983
0.355400	-2.059362
0.355500	-2.134341
0.355600	-1.937644
0.355700	-1.703944
0.355800	-1.611438
0.355900	-1.677328
0.356000	-1.892851
0.356100	-2.024957
0.356200	-1.966532
0.356300	-1.829882
0.356400	-1.698751
0.356500	-1.665319
0.356600	-1.660126
0.356700	-1.684469
0.356800	-1.661749
0.356900	-1.599753
0.357000	-1.557233
0.357100	-1.505300
0.357200	-1.436164
0.357300	-1.324183
0.357400	-1.196297
0.357500	-1.148584
0.357600	-1.117748
0.357700	-1.089185
0.357800	-1.070035
0.357900	-0.884049
0.358000	-0.792193
0.358100	-0.536422
0.358200	-0.556546
0.358300	-0.548756
0.358400	-0.466312
0.358500	-0.410809
0.358600	-0.302074
0.358700	-0.190093
0.358800	-0.147898
0.358900	-0.152766
0.359000	-0.151793
0.359100	-0.167373
0.359200	-0.127774
0.359300	-0.187172
0.359400	-0.136213
0.359500	-0.106676
0.359600	-0.117712
0.359700	-0.046953
0.359800	-0.105702
0.359900	-0.068700
0.360000	-0.185549
0.360100	-0.078437
0.360200	0.061133
0.360300	0.315605
0.360400	0.457447
0.360500	0.197782
0.360600	0.045553
0.360700	-0.043382
0.360800	0.155262
0.360900	0.458745
0.361000	0.521714
0.361100	0.568779
0.361200	0.357476
0.361300	0.376302
0.361400	0.449657
0.361500	0.595394
0.361600	0.742105
0.361700	0.729446
0.361800	0.684654
0.361900	0.633695
0.362000	0.735613
0.362100	0.721332
0.362200	0.765475
0.362300	0.781379
0.362400	0.793714
0.362500	0.802802
0.362600	0.877131
0.362700	0.756387
0.362800	0.776186
0.362900	0.644406
0.363000	0.724253
0.363100	0.765150
0.363200	0.919651
0.363300	0.913160
0.363400	0.742430
0.363500	0.580788
0.363600	0.717761
0.363700	0.876157
0.363800	1.175421
0.363900	1.121866
0.364000	1.044615
0.364100	0.866744
0.364200	0.958601
0.364300	1.146534
0.364400	2.050494
0.364500	2.591248
0.364600	2.237453
0.364700	1.964804
0.364800	2.225119
0.364900	2.383515
0.365000	3.099219
0.365100	3.207630
0.365200	3.406924
0.365300	3.207630
0.365400	3.322532
0.365500	3.819794
0.365600	4.139509
0.365700	4.324522
0.365800	4.586786
0.365900	5.266792
0.366000	5.840661
0.366100	6.421673
0.366200	6.142852
0.366300	5.928300
0.366400	6.117534
0.366500	7.155244
0.366600	7.590195
0.366700	7.460034
0.366800	7.565851
0.366900	7.820980
0.367000	7.776186
0.367100	7.877784
0.367200	7.750544
0.367300	7.948220
0.367400	7.898557
0.367500	7.886872
0.367600	7.944000
0.367700	7.834288
0.367800	7.605776
0.367900	7.385054
0.368000	7.005933
0.368100	6.677448
0.368200	6.223674
0.368300	5.644286
0.368400	5.312884
0.368500	4.235911
0.368600	2.260823
0.368700	0.810916
0.368800	0.726850
0.368900	0.855059
0.369000	0.835909
0.369100	0.617466
0.369200	0.288989
0.369300	-0.088499
0.369400	-0.177759
0.369500	-0.119659
0.369600	-0.047927
0.369700	-0.105053
0.369800	-0.327716
0.369900	-0.556546
0.370000	-0.726952
0.370100	-0.721109
0.370200	-0.758436
0.370300	-0.810369
0.370400	-0.894111
0.370500	-1.040822
0.370600	-1.114503
0.370700	-1.175849
0.370800	-1.282636
0.370900	-1.389099
0.371000	-1.549443
0.371100	-1.676030
0.371200	-1.753930
0.371300	-1.849682
0.371400	-1.978866
0.371500	-2.076241
0.371600	-2.157711
0.371700	-2.044432
0.371800	-2.022035
0.371900	-2.145377
0.372000	-2.411860
0.372100	-2.652052
0.372200	-2.700415
0.372300	-2.563440
0.372400	-2.423545
0.372500	-2.463144
0.372600	-2.670553
0.372700	-2.918860
0.372800	-3.071414
0.372900	-3.011366
0.373000	-2.897762
0.373100	-2.819212
0.373200	-2.830573
0.373300	-2.904253
0.373400	-2.936712
0.373500	-2.932817
0.373600	-2.899709
0.373700	-2.832520
0.373800	-2.781885
0.373900	-2.707231
0.374000	-2.555975
0.374100	-2.448862
0.374200	-2.365120
0.374300	-2.339153
0.374400	-2.296957
0.374500	-2.177511
0.374600	-1.959066
0.374700	-1.823391
0.374800	-1.520555
0.374900	-1.512441
0.375000	-1.411495
0.375100	-1.293347
0.375200	-1.129758
0.375300	-0.957729
0.375400	-0.849319
0.375500	-0.725653
0.375600	-0.734417
0.375700	-0.683133
0.375800	-0.685081
0.375900	-0.641262
0.376000	-0.630875
0.376100	-0.593873
0.376200	-0.527009
0.376300	-0.496498
0.376400	-0.449110
0.376500	-0.501367
0.376600	-0.482866
0.376700	-0.482217
0.376800	-0.514675
0.376900	-0.217683
0.377000	-0.144327
0.377100	0.069247
0.377200	-0.447487
0.377300	-0.404317
0.377400	-0.550054
0.377500	-0.184575
0.377600	-0.064480
0.377700	0.087099
0.377800	-0.009950
0.377900	-0.214437
0.378000	-0.151144
0.378100	-0.095640
0.378200	0.108522
0.378300	0.151042
0.378400	0.180254
0.378500	0.141629
0.378600	0.120207
0.378700	0.113715
0.378800	0.114689
0.378900	0.127672
0.379000	0.108846
0.379100	0.149744
0.379200	0.096837
0.379300	0.135138
0.379400	0.099434
0.379500	0.072169
0.379600	0.033868
0.379700	0.072169
0.379800	0.129944
0.379900	0.168569
0.380000	0.140980
0.380100	-0.146599
0.380200	-0.155688
0.380300	-0.102456
0.380400	0.138059
0.380500	0.239653
0.380600	0.177333
0.380700	-0.023907
0.380800	-0.164451
0.380900	-0.102132
0.381000	0.136760
0.381100	0.313333
0.381200	0.291910
0.381300	0.193238
0.381400	0.091968
0.381500	0.089372
0.381600	0.090021
0.381700	0.168894
0.381800	0.115663
0.381900	0.076388
0.382000	0.010498
0.382100	0.016990
0.382200	0.037763
0.382300	-0.004433
0.382400	-0.038838
0.382500	-0.042084
0.382600	-0.021960
0.382700	0.008551
0.382800	-0.061234
0.382900	-0.210867
0.383000	-0.284871
0.383100	-0.320900
0.383200	-0.289415
0.383300	-0.268318
0.383400	-0.304346
0.383500	-0.311811
0.383600	-0.313434
0.383700	-0.313434
0.383800	-0.304995
0.383900	-0.324146
0.384000	-0.330962
0.384100	-0.362122
0.384200	-0.378026
0.384300	-0.418923
0.384400	-0.440670
0.384500	-0.514026
0.384600	-0.548756
0.384700	-0.578942
0.384800	-0.635095
0.384900	-0.681510
0.385000	-0.718512
0.385100	-0.822054
0.385200	-0.959352
0.385300	-1.297892
0.385400	-1.349500
0.385500	-1.255371
0.385600	-1.064517
0.385700	-1.108011
0.385800	-1.391371
0.385900	-1.732183
0.386000	-1.912002
0.386100	-1.866236
0.386200	-1.718226
0.386300	-1.689013
0.386400	-1.871104
0.386500	-2.035668
0.386600	-2.208346
0.386700	-2.187573
0.386800	-2.190169
0.386900	-2.173940
0.387000	-2.242103
0.387100	-2.254437
0.387200	-2.279754
0.387300	-2.275859
0.387400	-2.300203
0.387500	-2.307019
0.387600	-2.351163
0.387700	-2.396929
0.387800	-2.378103
0.387900	-2.333635
0.388000	-2.376480
0.388100	-2.392060
0.388200	-2.408289
0.388300	-2.325521
0.388400	-2.084680
0.388500	-1.981463
0.388600	-2.093768
0.388700	-2.273912
0.388800	-2.375831
0.388900	-2.263525
0.389000	-2.038265
0.389100	-1.848708
0.389200	-1.847410
0.389300	-1.986980
0.389400	-2.152518
0.389500	-2.131420
0.389600	-1.955171
0.389700	-1.744517
0.389800	-1.641300
0.389900	-1.610140
0.390000	-1.590989
0.390100	-1.542627
0.390200	-1.448173
0.390300	-1.333596
0.390400	-1.222913
0.390500	-1.128460
0.390600	-0.989538
0.390700	-0.812641
0.390800	-0.701310
0.390900	-0.619840
0.391000	-0.556871
0.391100	-0.493577
0.391200	-0.265072
0.391300	-0.070647
0.391400	0.201677
0.391500	0.298077
0.391600	0.303920
0.391700	0.417199
0.391800	0.505485
0.391900	0.606755
0.392000	0.726525
0.392100	0.793714
0.392200	0.887842
0.392300	0.860902
0.392400	0.912835
0.392500	0.876806
0.392600	0.858305
0.392700	0.851164
0.392800	0.842401
0.392900	0.890763
0.393000	0.827145
0.393100	0.919976
0.393200	0.772291
0.393300	0.828119
0.393400	0.809618
0.393500	0.952434
0.393600	1.058572
0.393700	1.427621
0.393800	1.200739
0.393900	0.911537
0.394000	0.822926
0.394100	0.850191
0.394200	1.136796
0.394300	1.298763
0.394400	1.333168
0.394500	1.195546
0.394600	1.046563
0.394700	1.104987
0.394800	1.287078
0.394900	1.417884
0.395000	1.469168
0.395100	1.481827
0.395200	1.397760
0.395300	1.388022
0.395400	1.322132
0.395500	1.391917
0.395600	1.374715
0.395700	1.372118
0.395800	1.329273
0.395900	1.438008
0.396000	1.317913
0.396100	1.181913
0.396200	1.156271
0.396300	1.061493
0.396400	1.125111
0.396500	1.089407
0.396600	1.074477
0.396700	0.885246
0.396800	0.619089
0.396900	0.584358
0.397000	0.606755
0.397100	0.811890
0.397200	0.766773
0.397300	0.575270
0.397400	0.267242
0.397500	0.111443
0.397600	0.182851
0.397700	0.367863
0.397800	0.411032
0.397900	0.271137
0.398000	0.048474
0.398100	-0.024881
0.398200	-0.068051
0.398300	-0.044681
0.398400	-0.064156
0.398500	-0.149845
0.398600	-0.238456
0.398700	-0.280976
0.398800	-0.221578
0.398900	-0.279353
0.399000	-0.333883
0.399100	-0.413406
0.399200	-0.408212
0.399300	-0.398150
0.399400	-0.395229
0.399500	-0.483515
0.399600	-0.636718
0.399700	-0.684107
0.399800	-0.692221
0.399900	-0.688976
0.400000	-0.637692
0.400100	-0.646455
0.400200	-0.621138
0.400300	-0.615295
0.400400	-0.606207
0.400500	-0.597119
0.400600	-0.589329
0.400700	-0.598093
0.400800	-0.610102
0.400900	-0.582188
0.401000	-0.613348
0.401100	-0.624708
0.401200	-0.644508
0.401300	-0.650350
0.401400	-0.663658
0.401500	-0.724680
0.401600	-0.722083
0.401700	-0.783104
0.401800	-0.800956
0.401900	-1.054779
0.402000	-1.314770
0.402100	-1.380011
0.402200	-1.216097
0.402300	-0.988565
0.402400	-0.997978
0.402500	-1.203114
0.402600	-1.531915
0.402700	-1.586445
0.402800	-1.510493
0.402900	-1.309577
0.403000	-1.256670
0.403100	-1.369949
0.403200	-1.533214
0.403300	-1.656555
0.403400	-1.642274
0.403500	-1.528345
0.403600	-1.450770
0.403700	-1.469271
0.403800	-1.471543
0.403900	-1.481281
0.404000	-1.473166
0.404100	-1.473815
0.404200	-1.488746
0.404300	-1.517634
0.404400	-1.515362
0.404500	-1.464727
0.404600	-1.444278
0.404700	-1.424154
0.404800	-1.464727
0.404900	-1.427725
0.405000	-1.328727
0.405100	-1.105090
0.405200	-1.077500
0.405300	-1.170655
0.405400	-1.337815
0.405500	-1.395591
0.405600	-1.217395
0.405700	-0.961624
0.405800	-0.813615
0.405900	-0.832116
0.406000	-1.042770
0.406100	-1.183963
0.406200	-1.165137
0.406300	-0.980126
0.406400	-0.812641
0.406500	-0.756489
0.406600	-0.790570
0.406700	-0.814264
0.406800	-0.799333
0.406900	-0.745128
0.407000	-0.680861
0.407100	-0.655544
0.407200	-0.596145
0.407300	-0.512078
0.407400	-0.395554
0.407500	-0.336804
0.407600	-0.308566
0.407700	-0.283573
0.407800	-0.251439
0.407900	-0.061884
0.408000	0.047176
0.408100	0.325667
0.408200	0.291261
0.408300	0.309762
0.408400	0.367213
0.408500	0.438297
0.408600	0.505485
0.408700	0.618439
0.408800	0.666802
0.408900	0.674592
0.409000	0.611948
0.409100	0.574296
0.409200	0.539566
0.409300	0.456798
0.409400	0.457447
0.409500	0.367538
0.409600	0.384416
0.409700	0.310736
0.409800	0.304569
0.409900	0.169543
0.410000	0.107548
0.410100	0.079634
0.410200	0.113391
0.410300	0.381495
0.410400	0.480168
0.410500	0.202326
0.410600	-0.083306
0.410700	-0.244948
0.410800	-0.087850
0.410900	0.104951
0.411000	0.243223
0.411100	0.078011
0.411200	-0.076814
0.411300	-0.240728
0.411400	-0.219306
0.411500	-0.026180
0.411600	0.003357
0.411700	0.058536
0.411800	-0.147898
0.411900	-0.223201
0.412000	-0.335506
0.412100	-0.318952
0.412200	-0.343945
0.412300	-0.358551
0.412400	-0.375429
0.412500	-0.404317
0.412600	-0.368938
0.412700	-0.438398
0.412800	-0.519868
0.412900	-0.568880
0.413000	-0.598093
0.413100	-0.465663
0.413200	-0.436451
0.413300	-0.376728
0.413400	-0.589004
0.413500	-0.717863
0.413600	-0.754541
0.413700	-0.626656
0.413800	-0.375105
0.413900	-0.451382
0.414000	-0.657167
0.414100	-0.920402
0.414200	-0.938904
0.414300	-0.798684
0.414400	-0.589004
0.414500	-0.564985
0.414600	-0.665281
0.414700	-0.783753
0.414800	-0.769796
0.414900	-0.794140
0.415000	-0.720135
0.415100	-0.751620
0.415200	-0.790245
0.415300	-0.854512
0.415400	-0.861004
0.415500	-0.818159
0.415600	-0.815887
0.415700	-0.842827
0.415800	-0.827897
0.415900	-0.770770
0.416000	-0.723381
0.416100	-0.665606
0.416200	-0.757462
0.416300	-0.789921
0.416400	-0.774990
0.416500	-0.718188
0.416600	-0.542265
0.416700	-0.546484
0.416800	-0.440995
0.416900	-0.363095
0.417000	-0.322847
0.417100	-0.243974
0.417200	-0.172241
0.417300	-0.080385
0.417400	-0.016118
0.417500	0.057887
0.417600	0.110469
0.417700	0.156884
0.417800	0.202975
0.417900	0.225371
0.418000	0.278927
0.418100	0.304245
0.418200	0.299051
0.418300	0.297753
0.418400	0.330536
0.418500	0.275357
0.418600	0.115663
0.418700	-0.063831
0.418800	-0.015793
0.418900	0.223748
0.419000	0.348712
0.419100	0.293858
0.419200	0.039386
0.419300	-0.112518
0.419400	-0.083631
0.419500	0.083204
0.419600	0.214985
0.419700	0.246144
0.419800	0.137734
0.419900	-0.019039
0.420000	-0.084604
0.420100	-0.056366
0.420200	-0.011898
0.420300	0.006279
0.420400	-0.014170
0.420500	-0.061559
0.420600	-0.084929
0.420700	-0.144976
0.420800	-0.180031
0.420900	-0.244623
0.421000	-0.413081
0.421100	-0.463716
0.421200	-0.506561
0.421300	-0.516947
0.421400	-0.674694
0.421500	-0.760708
0.421600	-0.845424
0.421700	-0.734092
0.421800	-0.634770
0.421900	-0.760384
0.422000	-1.028488
0.422100	-1.266732
0.422200	-1.328078
0.422300	-1.234598
0.422400	-1.067438
0.422500	-1.110932
0.422600	-1.306006
0.422700	-1.577357
0.422800	-1.718226
0.422900	-1.680250
0.423000	-1.612412
0.423100	-1.553013
0.423200	-1.612737
0.423300	-1.709462
0.423400	-1.767562
0.423500	-1.791582
0.423600	-1.804889
0.423700	-1.852279
0.423800	-1.853577
0.423900	-1.813329
0.424000	-1.740622
0.424100	-1.696479
0.424200	-1.678951
0.424300	-1.675706
0.424400	-1.727639
0.424500	-1.689663
0.424600	-1.550417
0.424700	-1.512441
0.424800	-1.309577
0.424900	-1.376440
0.425000	-1.357615
0.425100	-1.320937
0.425200	-1.262512
0.425300	-1.151505
0.425400	-1.094703
0.425500	-1.077825
0.425600	-1.057052
0.425700	-1.111906
0.425800	-1.078474
0.425900	-1.162865
0.426000	-1.120670
0.426100	-1.168383
0.426200	-1.090808
0.426300	-1.140794
0.426400	-1.083343
0.426500	-1.172927
0.426600	-1.216421
0.426700	-1.240441
0.426800	-1.161567
0.426900	-1.059973
0.427000	-0.714942
0.427100	-0.751944
0.427200	-0.984670
0.427300	-1.252125
0.427400	-1.139820
0.427500	-1.043419
0.427600	-0.691248
0.427700	-0.650999
0.427800	-0.728250
0.427900	-0.897682
0.428000	-0.936632
0.428100	-0.810694
0.428200	-0.592250
0.428300	-0.500393
0.428400	-0.450083
0.428500	-0.600040
0.428600	-0.544537
0.428700	-0.559792
0.428800	-0.500069
0.428900	-0.449434
0.429000	-0.420871
0.429100	-0.422169
0.429200	-0.329339
0.429300	-0.315382
0.429400	-0.340050
0.429500	-0.390360
0.429600	-0.438398
0.429700	-0.432231
0.429800	-0.312461
0.429900	-0.260203
0.430000	-0.235535
0.430100	-0.458198
0.430200	-0.515324
0.430300	-0.433530
0.430400	-0.211516
0.430500	-0.020662
0.430600	-0.062533
0.430700	-0.217683
0.430800	-0.341673
0.430900	-0.237482
0.431000	-0.012223
0.431100	0.176035
0.431200	0.198756
0.431300	0.100732
0.431400	0.082231
0.431500	0.090994
0.431600	0.144226
0.431700	0.232512
0.431800	0.198106
0.431900	0.194211
0.432000	0.106250
0.432100	0.134488
0.432200	0.157858
0.432300	0.151042
0.432400	0.127997
0.432500	0.119233
0.432600	0.156560
0.432700	0.178307
0.432800	0.171166
0.432900	0.020885
0.433000	-0.074218
0.433100	-0.094017
0.433200	-0.014495
0.433300	-0.000213
0.433400	-0.057339
0.433500	-0.070323
0.433600	-0.082657
0.433700	-0.095640
0.433800	-0.102781
0.433900	-0.107974
0.434000	-0.151144
0.434100	-0.156012
0.434200	-0.167697
0.434300	-0.172566
0.434400	-0.207621
0.434500	-0.194637
0.434600	-0.231640
0.434700	-0.261177
0.434800	-0.291363
0.434900	-0.311162
0.435000	-0.380623
0.435100	-0.388737
0.435200	-0.535773
0.435300	-0.781157
0.435400	-0.910016
0.435500	-0.801605
0.435600	-0.651973
0.435700	-0.588355
0.435800	-0.873014
0.435900	-1.173577
0.436000	-1.412145
0.436100	-1.421233
0.436200	-1.341061
0.436300	-1.258617
0.436400	-1.402407
0.436500	-1.629290
0.436600	-1.818847
0.436700	-1.908756
0.436800	-1.874999
0.436900	-1.885061
0.437000	-1.964909
0.437100	-2.036966
0.437200	-2.133043
0.437300	-2.180432
0.437400	-2.233014
0.437500	-2.288518
0.437600	-2.320003
0.437700	-2.469636
0.437800	-2.505664
0.437900	-2.540070
0.438000	-2.621865
0.438100	-2.693923
0.438200	-2.795518
0.438300	-2.729303
0.438400	-2.638744
0.438500	-2.612128
0.438600	-2.753971
0.438700	-3.001953
0.438800	-3.176904
0.438900	-3.130813
0.439000	-2.977609
0.439100	-2.853618
0.439200	-2.935738
0.439300	-3.174307
0.439400	-3.404763
0.439500	-3.483637
0.439600	-3.384638
0.439700	-3.291807
0.439800	-3.262270
0.439900	-3.304466
0.440000	-3.369383
0.440100	-3.407359
0.440200	-3.406385
0.440300	-3.378147
0.440400	-3.344390
0.440500	-3.306413
0.440600	-3.218775
0.440700	-3.110040
0.440800	-3.059729
0.440900	-3.035061
0.441000	-3.019156
0.441100	-3.051615
0.441200	-2.935738
0.441300	-2.805904
0.441400	-2.718591
0.441500	-2.594600
0.441600	-2.575774
0.441700	-2.552080
0.441800	-2.483917
0.441900	-2.418027
0.442000	-2.289167
0.442100	-2.239181
0.442200	-2.167449
0.442300	-2.189520
0.442400	-2.136289
0.442500	-2.200232
0.442600	-2.173291
0.442700	-2.212890
0.442800	-2.149921
0.442900	-2.177835
0.443000	-2.136938
0.443100	-2.131095
0.443200	-2.202504
0.443300	-2.199258
0.443400	-2.154465
0.443500	-2.069425
0.443600	-1.845138
0.443700	-1.605920
0.443800	-1.727639
0.443900	-2.092470
0.444000	-2.089224
0.444100	-2.040861
0.444200	-1.721147
0.444300	-1.497185
0.444400	-1.463104
0.444500	-1.610140
0.444600	-1.747763
0.444700	-1.681548
0.444800	-1.499782
0.444900	-1.322560
0.445000	-1.224211
0.445100	-1.278741
0.445200	-1.243686
0.445300	-1.350798
0.445400	-1.268030
0.445500	-1.291400
0.445600	-1.243362
0.445700	-1.237844
0.445800	-1.211228
0.445900	-1.159944
0.446000	-1.239791
0.446100	-1.288803
0.446200	-1.337166
0.446300	-1.370598
0.446400	-1.318665
0.446500	-1.308278
0.446600	-1.191104
0.446700	-1.401109
0.446800	-1.575085
0.446900	-1.603973
0.447000	-1.512765
0.447100	-1.234598
0.447200	-1.252450
0.447300	-1.349176
0.447400	-1.632861
0.447500	-1.708488
0.447600	-1.603648
0.447700	-1.388775
0.447800	-1.288479
0.447900	-1.347228
0.448000	-1.524125
0.448100	-1.529643
0.448200	-1.531915
0.448300	-1.456937
0.448400	-1.440383
0.448500	-1.513414
0.448600	-1.568593
0.448700	-1.581901
0.448800	-1.550417
0.448900	-1.527696
0.449000	-1.559180
0.449100	-1.582226
0.449200	-1.597806
0.449300	-1.568269
0.449400	-1.532565
0.449500	-1.604622
0.449600	-1.722445
0.449700	-1.783792
0.449800	-1.772107
0.449900	-1.743543
0.450000	-1.681548
0.450100	-1.693558
0.450200	-1.642274
0.450300	-1.608517
0.450400	-1.574436
0.450500	-1.565023
0.450600	-1.539381
0.450700	-1.540679
0.450800	-1.533538
0.450900	-1.515362
0.451000	-1.524775
0.451100	-1.568918
0.451200	-1.593262
0.451300	-1.602025
0.451400	-1.625720
0.451500	-1.638379
0.451600	-1.648116
0.451700	-1.696479
0.451800	-1.690961
0.451900	-1.948355
0.452000	-2.205749
0.452100	-2.272289
0.452200	-2.137587
0.452300	-1.939591
0.452400	-1.949653
0.452500	-2.212566
0.452600	-2.581942
0.452700	-2.701388
0.452800	-2.642963
0.452900	-2.497874
0.453000	-2.525789
0.453100	-2.662438
0.453200	-2.894516
0.453300	-3.024674
0.453400	-3.006497
0.453500	-2.988970
0.453600	-2.995786
0.453700	-3.021428
0.453800	-3.050316
0.453900	-3.075309
0.454000	-3.072388
0.454100	-3.087643
0.454200	-3.127243
0.454300	-3.177878
0.454400	-3.226890
0.454500	-3.239549
0.454600	-3.185992
0.454700	-3.227215
0.454800	-3.238575
0.454900	-3.273955
0.455000	-3.137954
0.455100	-3.018507
0.455200	-3.006173
0.455300	-3.137305
0.455400	-3.367435
0.455500	-3.488181
0.455600	-3.380743
0.455700	-3.187940
0.455800	-3.124646
0.455900	-3.280771
0.456000	-3.553747
0.456100	-3.736164
0.456200	-3.718636
0.456300	-3.585881
0.456400	-3.460916
0.456500	-3.471952
0.456600	-3.544983
0.456700	-3.587828
0.456800	-3.583284
0.456900	-3.521288
0.457000	-3.488181
0.457100	-3.453450
0.457200	-3.427159
0.457300	-3.340170
0.457400	-3.230461
0.457500	-3.142823
0.457600	-3.118154
0.457700	-3.114908
0.457800	-3.059080
0.457900	-2.877637
0.458000	-2.784806
0.458100	-2.508586
0.458200	-2.572853
0.458300	-2.571555
0.458400	-2.502419
0.458500	-2.409588
0.458600	-2.339802
0.458700	-2.211916
0.458800	-2.163554
0.458900	-2.119410
0.459000	-2.149597
0.459100	-2.102207
0.459200	-2.114542
0.459300	-2.107076
0.459400	-2.136613
0.459500	-2.071697
0.459600	-2.071047
0.459700	-2.021062
0.459800	-2.061635
0.459900	-1.984059
0.460000	-2.086952
0.460100	-1.956470
0.460200	-1.874675
0.460300	-1.626369
0.460400	-1.464727
0.460500	-1.734780
0.460600	-1.974971
0.460700	-2.062284
0.460800	-1.833128
0.460900	-1.636431
0.461000	-1.456937
0.461100	-1.584173
0.461200	-1.774703
0.461300	-1.866885
0.461400	-1.777625
0.461500	-1.573462
0.461600	-1.487123
0.461700	-1.465701
0.461800	-1.503677
0.461900	-1.568593
0.462000	-1.520880
0.462100	-1.537109
0.462200	-1.477386
0.462300	-1.516011
0.462400	-1.487448
0.462500	-1.552364
0.462600	-1.491018
0.462700	-1.562751
0.462800	-1.600402
0.462900	-1.588393
0.463000	-1.604947
0.463100	-1.446875
0.463200	-1.434541
0.463300	-1.311849
0.463400	-1.606569
0.463500	-1.704593
0.463600	-1.686092
0.463700	-1.541653
0.463800	-1.296269
0.463900	-1.350798
0.464000	-1.524125
0.464100	-1.796126
0.464200	-1.812030
0.464300	-1.646169
0.464400	-1.423830
0.464500	-1.394942
0.464600	-1.511791
0.464700	-1.691286
0.464800	-1.689663
0.464900	-1.725042
0.465000	-1.642598
0.465100	-1.710111
0.465200	-1.773405
0.465300	-1.886684
0.465400	-1.903887
0.465500	-1.899343
0.465600	-1.930828
0.465700	-1.986331
0.465800	-2.000613
0.465900	-1.981138
0.466000	-1.961014
0.466100	-1.958093
0.466200	-2.049625
0.466300	-2.131095
0.466400	-2.098962
0.466500	-2.092794
0.466600	-1.973023
0.466700	-2.021711
0.466800	-1.989253
0.466900	-1.960365
0.467000	-1.947057
0.467100	-1.949653
0.467200	-1.910703
0.467300	-1.881816
0.467400	-1.850980
0.467500	-1.820794
0.467600	-1.832479
0.467700	-1.836699
0.467800	-1.878570
0.467900	-1.875649
0.468000	-1.894799
0.468100	-1.924985
0.468200	-1.973023
0.468300	-2.024957
0.468400	-2.067152
0.468500	-2.129148
0.468600	-2.422571
0.468700	-2.571879
0.468800	-2.551755
0.468900	-2.304423
0.469000	-2.210618
0.469100	-2.314485
0.469200	-2.583564
0.469300	-2.851022
0.469400	-2.814344
0.469500	-2.664386
0.469600	-2.496576
0.469700	-2.529034
0.469800	-2.678668
0.469900	-2.893217
0.470000	-2.938335
0.470100	-2.870172
0.470200	-2.822783
0.470300	-2.832196
0.470400	-2.871146
0.470500	-2.933466
0.470600	-2.989294
0.470700	-3.051939
0.470800	-3.102899
0.470900	-3.148341
0.471000	-3.207740
0.471100	-3.275253
0.471200	-3.334328
0.471300	-3.333678
0.471400	-3.396323
0.471500	-3.445660
0.471600	-3.475197
0.471700	-3.328485
0.471800	-3.270384
0.471900	-3.359645
0.472000	-3.520964
0.472100	-3.749147
0.472200	-3.816661
0.472300	-3.699486
0.472400	-3.534272
0.472500	-3.537518
0.472600	-3.747524
0.472700	-4.051986
0.472800	-4.232780
0.472900	-4.217849
0.473000	-4.142870
0.473100	-4.101647
0.473200	-4.167538
0.473300	-4.278871
0.473400	-4.375598
0.473500	-4.384687
0.473600	-4.403513
0.473700	-4.403513
0.473800	-4.382739
0.473900	-4.367159
0.474000	-4.307435
0.474100	-4.230508
0.474200	-4.229534
0.474300	-4.197076
0.474400	-4.221420
0.474500	-4.132158
0.474600	-3.953636
0.474700	-3.758885
0.474800	-3.595943
0.474900	-3.632946
0.475000	-3.590750
0.475100	-3.528754
0.475200	-3.466758
0.475300	-3.339521
0.475400	-3.220074
0.475500	-3.188265
0.475600	-3.148341
0.475700	-3.175606
0.475800	-3.140875
0.475900	-3.161973
0.476000	-3.151262
0.476100	-3.049018
0.476200	-3.110040
0.476300	-2.980855
0.476400	-3.028569
0.476500	-2.947748
0.476600	-3.056159
0.476700	-3.029543
0.476800	-3.025648
0.476900	-2.826029
0.477000	-2.571230
0.477100	-2.524490
0.477200	-2.801036
0.477300	-3.007471
0.477400	-3.047720
0.477500	-2.810124
0.477600	-2.599794
0.477700	-2.579994
0.477800	-2.681264
0.477900	-2.888998
0.478000	-2.870821
0.478100	-2.898735
0.478200	-2.638744
0.478300	-2.640691
0.478400	-2.598820
0.478500	-2.623488
0.478600	-2.641016
0.478700	-2.601417
0.478800	-2.649780
0.478900	-2.575125
0.479000	-2.579994
0.479100	-2.543316
0.479200	-2.550457
0.479300	-2.453731
0.479400	-2.595899
0.479500	-2.631278
0.479600	-2.663737
0.479700	-2.658868
0.479800	-2.556624
0.479900	-2.543641
0.480000	-2.512156
0.480100	-2.819861
0.480200	-2.889647
0.480300	-2.835117
0.480400	-2.718267
0.480500	-2.475803
0.480600	-2.652376
0.480700	-2.837064
0.480800	-3.005524
0.480900	-2.954239
0.481000	-2.783508
0.481100	-2.642963
0.481200	-2.673150
0.481300	-2.809799
0.481400	-2.872120
0.481500	-2.871146
0.481600	-2.912043
0.481700	-2.849074
0.481800	-2.902955
0.481900	-2.902630
0.482000	-2.928597
0.482100	-2.883480
0.482200	-2.870172
0.482300	-2.887050
0.482400	-2.909122
0.482500	-2.889972
0.482600	-2.859461
0.482700	-2.835117
0.482800	-2.866277
0.482900	-3.016559
0.483000	-3.093486
0.483100	-3.101276
0.483200	-3.065896
0.483300	-2.950020
0.483400	-3.015586
0.483500	-2.985724
0.483600	-2.974688
0.483700	-2.950344
0.483800	-2.931843
0.483900	-2.916588
0.484000	-2.941905
0.484100	-2.940931
0.484200	-2.946449
0.484300	-2.908148
0.484400	-2.936387
0.484500	-2.946449
0.484600	-2.960406
0.484700	-2.933790
0.484800	-2.993839
0.484900	-2.964301
0.485000	-3.037657
0.485100	-3.031166
0.485200	-3.191510
0.485300	-3.413851
0.485400	-3.548554
0.485500	-3.420018
0.485600	-3.182747
0.485700	-3.139577
0.485800	-3.346013
0.485900	-3.680011
0.486000	-3.853988
0.486100	-3.827372
0.486200	-3.684555
0.486300	-3.580038
0.486400	-3.693319
0.486500	-3.866647
0.486600	-4.063671
0.486700	-4.098726
0.486800	-4.045169
0.486900	-4.052635
0.487000	-4.061074
0.487100	-4.116578
0.487200	-4.156827
0.487300	-4.228236
0.487400	-4.284714
0.487500	-4.338595
0.487600	-4.429155
0.487700	-4.481089
0.487800	-4.501862
0.487900	-4.496994
0.488000	-4.530751
0.488100	-4.619038
0.488200	-4.707326
0.488300	-4.663507
0.488400	-4.490177
0.488500	-4.415847
0.488600	-4.488230
0.488700	-4.685903
0.488800	-4.821905
0.488900	-4.748224
0.489000	-4.558341
0.489100	-4.419417
0.489200	-4.492449
0.489300	-4.687526
0.489400	-4.911816
0.489500	-4.950442
0.489600	-4.831968
0.489700	-4.732644
0.489800	-4.706677
0.489900	-4.759260
0.490000	-4.790745
0.490100	-4.779709
0.490200	-4.744978
0.490300	-4.694992
0.490400	-4.638514
0.490500	-4.576517
0.490600	-4.507705
0.490700	-4.380792
0.490800	-4.292829
0.490900	-4.258422
0.491000	-4.224341
0.491100	-4.218498
0.491200	-4.069189
0.491300	-3.962725
0.491400	-3.686827
0.491500	-3.655667
0.491600	-3.684879
0.491700	-3.618664
0.491800	-3.544983
0.491900	-3.445336
0.492000	-3.278824
0.492100	-3.225267
0.492200	-3.153209
0.492300	-3.146718
0.492400	-3.152885
0.492500	-3.079204
0.492600	-3.140551
0.492700	-3.088617
0.492800	-3.123672
0.492900	-3.037657
0.493000	-3.077906
0.493100	-3.017209
0.493200	-3.040903
0.493300	-3.098030
0.493400	-3.009094
0.493500	-3.006822
0.493600	-2.659192
0.493700	-2.397254
0.493800	-2.513130
0.493900	-2.693923
0.494000	-2.937036
0.494100	-2.742286
0.494200	-2.607584
0.494300	-2.279754
0.494400	-2.327793
0.494500	-2.487163
0.494600	-2.575774
0.494700	-2.568309
0.494800	-2.355058
0.494900	-2.260279
0.495000	-2.169721
0.495100	-2.202179
0.495200	-2.248919
0.495300	-2.296957
0.495400	-2.209320
0.495500	-2.164203
0.495600	-2.129148
0.495700	-2.144403
0.495800	-2.131420
0.495900	-2.156737
0.496000	-2.107725
0.496100	-2.180432
0.496200	-2.210943
0.496300	-2.243401
0.496400	-2.213539
0.496500	-2.156413
0.496600	-2.029825
0.496700	-2.260279
0.496800	-2.438800
0.496900	-2.496252
0.497000	-2.388165
0.497100	-2.215487
0.497200	-2.106427
0.497300	-2.346294
0.497400	-2.499173
0.497500	-2.625760
0.497600	-2.488786
0.497700	-2.327144
0.497800	-2.239506
0.497900	-2.335258
0.498000	-2.446915
0.498100	-2.481645
0.498200	-2.503392
0.498300	-2.440099
0.498400	-2.428089
0.498500	-2.494953
0.498600	-2.530333
0.498700	-2.603040
0.498800	-2.577397
0.498900	-2.582266
0.499000	-2.564414
0.499100	-2.532605
0.499200	-2.475154
0.499300	-2.437826
0.499400	-2.398876
0.499500	-2.460223
0.499600	-2.570581
0.499700	-2.609531
0.499800	-2.604013
0.499900	-2.617646
0.500000	-2.544614
0.500100	-2.563116
0.500200	-2.551755
0.500300	-2.543965
0.500400	-2.533903
0.500500	-2.542992
0.500600	-2.538447
0.500700	-2.564089
0.500800	-2.550457
0.500900	-2.575450
0.501000	-2.559221
0.501100	-2.566037
0.501200	-2.565063
0.501300	-2.579020
0.501400	-2.604013
0.501500	-2.618620
0.501600	-2.624787
0.501700	-2.715670
0.501800	-2.727030
0.501900	-2.993514
0.502000	-3.193458
0.502100	-3.294728
0.502200	-3.106145
0.502300	-2.969495
0.502400	-3.007471
0.502500	-3.270709
0.502600	-3.625805
0.502700	-3.741357
0.502800	-3.709223
0.502900	-3.585881
0.503000	-3.545308
0.503100	-3.644631
0.503200	-3.868595
0.503300	-3.965646
0.503400	-3.974734
0.503500	-3.915011
0.503600	-3.901053
0.503700	-3.916958
0.503800	-3.979928
0.503900	-4.004596
0.504000	-4.024396
0.504100	-4.025694
0.504200	-4.076654
0.504300	-4.121123
0.504400	-4.252255
0.504500	-4.228561
0.504600	-4.218174
0.504700	-4.302242
0.504800	-4.350605
0.504900	-4.395398
0.505000	-4.263940
0.505100	-4.119175
0.505200	-4.138975
0.505300	-4.318796
0.505400	-4.501862
0.505500	-4.618389
0.505600	-4.501862
0.505700	-4.325936
0.505800	-4.237324
0.505900	-4.368782
0.506000	-4.585606
0.506100	-4.753417
0.506200	-4.751794
0.506300	-4.618065
0.506400	-4.529777
0.506500	-4.529452
0.506600	-4.564183
0.506700	-4.625205
0.506800	-4.593721
0.506900	-4.582035
0.507000	-4.526856
0.507100	-4.502512
0.507200	-4.459666
0.507300	-4.337297
0.507400	-4.222069
0.507500	-4.142221
0.507600	-4.107490
0.507700	-4.106516
0.507800	-4.050363
0.507900	-3.870867
0.508000	-3.749796
0.508100	-3.472601
0.508200	-3.491751
0.508300	-3.414825
0.508400	-3.326538
0.508500	-3.177878
0.508600	-3.091214
0.508700	-2.956836
0.508800	-2.858162
0.508900	-2.838687
0.509000	-2.820511
0.509100	-2.798764
0.509200	-2.815642
0.509300	-2.797790
0.509400	-2.780262
0.509500	-2.756892
0.509600	-2.749427
0.509700	-2.750725
0.509800	-2.752023
0.509900	-2.842258
0.510000	-2.868549
0.510100	-2.817265
0.510200	-2.708205
0.510300	-2.499497
0.510400	-2.366094
0.510500	-2.558896
0.510600	-2.830897
0.510700	-2.827651
0.510800	-2.724758
0.510900	-2.393359
0.511000	-2.388165
0.511100	-2.372910
0.511200	-2.672176
0.511300	-2.738391
0.511400	-2.702038
0.511500	-2.493330
0.511600	-2.478075
0.511700	-2.397903
0.511800	-2.448862
0.511900	-2.525789
0.512000	-2.451784
0.512100	-2.480996
0.512200	-2.433607
0.512300	-2.449187
0.512400	-2.516376
0.512500	-2.488137
0.512600	-2.537149
0.512700	-2.579669
0.512800	-2.675097
0.512900	-2.645235
0.513000	-2.725732
0.513100	-2.575450
0.513200	-2.650429
0.513300	-2.585512
0.513400	-2.900683
0.513500	-3.094784
0.513600	-3.063949
0.513700	-2.963652
0.513800	-2.696844
0.513900	-2.822134
0.514000	-2.963652
0.514100	-3.209038
0.514200	-3.202546
0.514300	-3.043175
0.514400	-2.843232
0.514500	-2.808176
0.514600	-2.925027
0.514700	-3.024674
0.514800	-3.013963
0.514900	-3.025323
0.515000	-2.933466
0.515100	-2.961705
0.515200	-3.023051
0.515300	-3.072063
0.515400	-3.023051
0.515500	-2.960082
0.515600	-2.924378
0.515700	-2.975662
0.515800	-2.951318
0.515900	-2.930220
0.516000	-2.904253
0.516100	-2.864329
0.516200	-2.952941
0.516300	-3.034412
0.516400	-3.057782
0.516500	-3.038307
0.516600	-2.945151
0.516700	-2.964951
0.516800	-2.956511
0.516900	-2.943853
0.517000	-2.928273
0.517100	-2.888024
0.517200	-2.883480
0.517300	-2.859136
0.517400	-2.859461
0.517500	-2.838687
0.517600	-2.801685
0.517700	-2.819537
0.517800	-2.807203
0.517900	-2.809475
0.518000	-2.807527
0.518100	-2.827976
0.518200	-2.866277
0.518300	-2.869523
0.518400	-2.921456
0.518500	-2.946449
0.518600	-3.238900
0.518700	-3.407684
0.518800	-3.422290
0.518900	-3.235978
0.519000	-3.146393
0.519100	-3.268437
0.519200	-3.655342
0.519300	-3.917607
0.519400	-4.005245
0.519500	-3.881903
0.519600	-3.722856
0.519700	-3.861129
0.519800	-4.022124
0.519900	-4.241544
0.520000	-4.337622
0.520100	-4.294127
0.520200	-4.301917
0.520300	-4.324314
0.520400	-4.381765
0.520500	-4.465509
0.520600	-4.535944
0.520700	-4.596966
0.520800	-4.589501
0.520900	-4.696939
0.521000	-4.760558
0.521100	-4.843653
0.521200	-4.819633
0.521300	-4.842030
0.521400	-4.855338
0.521500	-4.934862
0.521600	-4.909544
0.521700	-4.806650
0.521800	-4.657664
0.521900	-4.740109
0.522000	-4.913439
0.522100	-5.131887
0.522200	-5.172136
0.522300	-5.045222
0.522400	-4.858584
0.522500	-4.828397
0.522600	-4.983225
0.522700	-5.257502
0.522800	-5.388312
0.522900	-5.308138
0.523000	-5.158503
0.523100	-5.108841
0.523200	-5.190637
0.523300	-5.254581
0.523400	-5.308138
0.523500	-5.294505
0.523600	-5.257827
0.523700	-5.216604
0.523800	-5.184145
0.523900	-5.154932
0.524000	-5.032563
0.524100	-4.901754
0.524200	-4.839758
0.524300	-4.770945
0.524400	-4.749522
0.524500	-4.622609
0.524600	-4.429480
0.524700	-4.255177
0.524800	-4.049714
0.524900	-4.068215
0.525000	-4.015957
0.525100	-3.940977
0.525200	-3.854638
0.525300	-3.730971
0.525400	-3.640736
0.525500	-3.587828
0.525600	-3.615094
0.525700	-3.621261
0.525800	-3.621585
0.525900	-3.581661
0.526000	-3.610874
0.526100	-3.555045
0.526200	-3.603409
0.526300	-3.517393
0.526400	-3.628726
0.526500	-3.519666
0.526600	-3.616717
0.526700	-3.535246
0.526800	-3.515446
0.526900	-3.320370
0.527000	-3.094135
0.527100	-3.006497
0.527200	-3.298299
0.527300	-3.515446
0.527400	-3.395674
0.527500	-3.257076
0.527600	-2.870172
0.527700	-2.879260
0.527800	-3.003901
0.527900	-3.132436
0.528000	-3.159052
0.528100	-2.941256
0.528200	-2.764682
0.528300	-2.600118
0.528400	-2.631927
0.528500	-2.664386
0.528600	-2.704959
0.528700	-2.709503
0.528800	-2.656596
0.528900	-2.595574
0.529000	-2.547211
0.529100	-2.548834
0.529200	-2.498848
0.529300	-2.550782
0.529400	-2.560194
0.529500	-2.575450
0.529600	-2.507287
0.529700	-2.557598
0.529800	-2.462819
0.529900	-2.446266
0.530000	-2.443994
0.530100	-2.758840
0.530200	-2.739365
0.530300	-2.740014
0.530400	-2.488462
0.530500	-2.333960
0.530600	-2.365769
0.530700	-2.563440
0.530800	-2.688730
0.530900	-2.655297
0.531000	-2.430361
0.531100	-2.239831
0.531200	-2.253139
0.531300	-2.364146
0.531400	-2.472881
0.531500	-2.432958
0.531600	-2.413807
0.531700	-2.311888
0.531800	-2.319029
0.531900	-2.344996
0.532000	-2.389139
0.532100	-2.364795
0.532200	-2.333311
0.532300	-2.354084
0.532400	-2.369015
0.532500	-2.344022
0.532600	-2.298580
0.532700	-2.306046
0.532800	-2.321301
0.532900	-2.486189
0.533000	-2.539421
0.533100	-2.556624
0.533200	-2.547211
0.533300	-2.454380
0.533400	-2.524166
0.533500	-2.515727
0.533600	-2.496576
0.533700	-2.514753
0.533800	-2.504042
0.533900	-2.527736
0.534000	-2.524166
0.534100	-2.535202
0.534200	-2.534877
0.534300	-2.527412
0.534400	-2.512805
0.534500	-2.520271
0.534600	-2.503717
0.534700	-2.500471
0.534800	-2.536824
0.534900	-2.561168
0.535000	-2.605312
0.535100	-2.643937
0.535200	-2.796816
0.535300	-3.098679
0.535400	-3.239549
0.535500	-3.151262
0.535600	-2.932817
0.535700	-2.917237
0.535800	-3.072713
0.535900	-3.424238
0.536000	-3.599189
0.536100	-3.560888
0.536200	-3.387560
0.536300	-3.283692
0.536400	-3.348609
0.536500	-3.495971
0.536600	-3.625156
0.536700	-3.624507
0.536800	-3.595943
0.536900	-3.514148
0.537000	-3.561862
0.537100	-3.556993
0.537200	-3.606979
0.537300	-3.630349
0.537400	-3.662158
0.537500	-3.677089
0.537600	-3.715390
0.537700	-3.763104
0.537800	-3.745901
0.537900	-3.812441
0.538000	-3.870542
0.538100	-3.923125
0.538200	-3.969541
0.538300	-3.912738
0.538400	-3.792642
0.538500	-3.739734
0.538600	-3.841654
0.538700	-4.033809
0.538800	-4.197400
0.538900	-4.140273
0.539000	-3.959154
0.539100	-3.805301
0.539200	-3.860805
0.539300	-4.063022
0.539400	-4.291530
0.539500	-4.339245
0.539600	-4.217200
0.539700	-4.073733
0.539800	-4.026668
0.539900	-4.078926
0.540000	-4.149037
0.540100	-4.162670
0.540200	-4.173381
0.540300	-4.154879
0.540400	-4.105218
0.540500	-4.104569
0.540600	-4.055881
0.540700	-3.954285
0.540800	-3.900404
0.540900	-3.830294
0.541000	-3.815363
0.541100	-3.801081
0.541200	-3.631323
0.541300	-3.483312
0.541400	-3.247664
0.541500	-3.186317
0.541600	-3.176904
0.541700	-3.105496
0.541800	-3.019481
0.541900	-2.926325
0.542000	-2.772148
0.542100	-2.693274
0.542200	-2.593627
0.542300	-2.611154
0.542400	-2.556299
0.542500	-2.572529
0.542600	-2.515402
0.542700	-2.513130
0.542800	-2.448213
0.542900	-2.460223
0.543000	-2.398227
0.543100	-2.444643
0.543200	-2.470285
0.543300	-2.503717
0.543400	-2.502419
0.543500	-2.391086
0.543600	-2.217110
0.543700	-1.972050
0.543800	-2.065854
0.543900	-2.367716
0.544000	-2.447889
0.544100	-2.318380
0.544200	-2.074293
0.544300	-1.904861
0.544400	-1.919467
0.544500	-2.095067
0.544600	-2.284948
0.544700	-2.199582
0.544800	-2.046379
0.544900	-1.905510
0.545000	-1.833777
0.545100	-1.911028
0.545200	-1.930503
0.545300	-1.944135
0.545400	-1.971076
0.545500	-1.920766
0.545600	-1.913300
0.545700	-1.919467
0.545800	-1.929529
0.545900	-1.850656
0.546000	-1.978217
0.546100	-2.062608
0.546200	-2.134666
0.546300	-2.164203
0.546400	-2.162904
0.546500	-2.112269
0.546600	-2.097663
0.546700	-2.277482
0.546800	-2.588758
0.546900	-2.614075
0.547000	-2.541369
0.547100	-2.303774
0.547200	-2.273587
0.547300	-2.476452
0.547400	-2.728653
0.547500	-2.840635
0.547600	-2.703011
0.547700	-2.489111
0.547800	-2.440099
0.547900	-2.531631
0.548000	-2.727680
0.548100	-2.760138
0.548200	-2.797141
0.548300	-2.766630
0.548400	-2.765331
0.548500	-2.851022
0.548600	-2.907175
0.548700	-2.935738
0.548800	-2.919184
0.548900	-2.947748
0.549000	-2.988321
0.549100	-3.023700
0.549200	-3.023376
0.549300	-2.986698
0.549400	-2.973390
0.549500	-3.058755
0.549600	-3.184370
0.549700	-3.229811
0.549800	-3.229487
0.549900	-3.170412
0.550000	-3.140226
0.550100	-3.124971
0.550200	-3.126918
0.550300	-3.150288
0.550400	-3.133734
0.550500	-3.090240
0.550600	-3.062001
0.550700	-3.053562
0.550800	-3.034412
0.550900	-3.006822
0.551000	-2.996760
0.551100	-2.950344
0.551200	-2.908798
0.551300	-2.901007
0.551400	-2.845828
0.551500	-2.858487
0.551600	-2.857513
0.551700	-2.882506
0.551800	-2.919833
0.551900	-3.080503
0.552000	-3.318748
0.552100	-3.283368
0.552200	-3.182747
0.552300	-2.958459
0.552400	-3.027595
0.552500	-3.322318
0.552600	-3.606330
0.552700	-3.732918
0.552800	-3.624831
0.552900	-3.470978
0.553000	-3.459617
0.553100	-3.585556
0.553200	-3.847497
0.553300	-3.945522
0.553400	-3.915660
0.553500	-3.847497
0.553600	-3.831917
0.553700	-3.847497
0.553800	-3.908194
0.553900	-3.943249
0.554000	-3.945197
0.554100	-3.907220
0.554200	-3.945522
0.554300	-3.986095
0.554400	-4.014658
0.554500	-4.042573
0.554600	-3.990964
0.554700	-4.029589
0.554800	-4.068540
0.554900	-4.130860
0.555000	-3.973111
0.555100	-3.780307
0.555200	-3.749147
0.555300	-3.887421
0.555400	-4.115280
0.555500	-4.223043
0.555600	-4.087041
0.555700	-3.872814
0.555800	-3.732918
0.555900	-3.856910
0.556000	-4.081198
0.556100	-4.258747
0.556200	-4.211033
0.556300	-4.034458
0.556400	-3.897807
0.556500	-3.874437
0.556600	-3.911765
0.556700	-3.958505
0.556800	-3.931240
0.556900	-3.872165
0.557000	-3.819258
0.557100	-3.767973
0.557200	-3.676440
0.557300	-3.536869
0.557400	-3.428133
0.557500	-3.337249
0.557600	-3.285965
0.557700	-3.273955
0.557800	-3.248637
0.557900	-3.099328
0.558000	-3.000979
0.558100	-2.915938
0.558200	-2.804281
0.558300	-2.786429
0.558400	-2.699765
0.558500	-2.634200
0.558600	-2.512481
0.558700	-2.366094
0.558800	-2.293062
0.558900	-2.239831
0.559000	-2.254437
0.559100	-2.235611
0.559200	-2.223277
0.559300	-2.223277
0.559400	-2.192766
0.559500	-2.127849
0.559600	-2.129148
0.559700	-2.062933
0.559800	-2.103506
0.559900	-2.097988
0.560000	-2.198284
0.560100	-2.057415
0.560200	-2.025606
0.560300	-1.654608
0.560400	-1.546197
0.560500	-1.745491
0.560600	-1.998341
0.560700	-2.076241
0.560800	-1.910054
0.560900	-1.727639
0.561000	-1.558856
0.561100	-1.726340
0.561200	-1.810407
0.561300	-1.962637
0.561400	-1.886035
0.561500	-1.722121
0.561600	-1.574111
0.561700	-1.497510
0.561800	-1.576708
0.561900	-1.659476
0.562000	-1.638379
0.562100	-1.583849
0.562200	-1.555610
0.562300	-1.479982
0.562400	-1.498159
0.562500	-1.441357
0.562600	-1.455963
0.562700	-1.466025
0.562800	-1.522827
0.562900	-1.525748
0.563000	-1.497834
0.563100	-1.465051
0.563200	-1.367352
0.563300	-1.393968
0.563400	-1.555610
0.563500	-1.767887
0.563600	-1.746789
0.563700	-1.615982
0.563800	-1.354369
0.563900	-1.450770
0.564000	-1.587095
0.564100	-1.840918
0.564200	-1.861367
0.564300	-1.742570
0.564400	-1.555935
0.564500	-1.500106
0.564600	-1.612087
0.564700	-1.773730
0.564800	-1.762045
0.564900	-1.813978
0.565000	-1.731858
0.565100	-1.760746
0.565200	-1.790608
0.565300	-1.898045
0.565400	-1.908756
0.565500	-1.862341
0.565600	-1.865586
0.565700	-1.870455
0.565800	-1.884737
0.565900	-1.888956
0.566000	-1.873376
0.566100	-1.849033
0.566200	-1.945758
0.566300	-2.049950
0.566400	-2.108699
0.566500	-2.095067
0.566600	-1.919467
0.566700	-2.011324
0.566800	-1.985682
0.566900	-1.989253
0.567000	-1.982112
0.567100	-1.967181
0.567200	-1.958093
0.567300	-1.932126
0.567400	-1.941214
0.567500	-1.956470
0.567600	-1.954847
0.567700	-1.957443
0.567800	-1.955820
0.567900	-1.962961
0.568000	-1.920116
0.568100	-1.984708
0.568200	-1.965883
0.568300	-2.055143
0.568400	-2.092470
0.568500	-2.200881
0.568600	-2.461521
0.568700	-2.679641
0.568800	-2.649455
0.568900	-2.433931
0.569000	-2.300528
0.569100	-2.406342
0.569200	-2.694248
0.569300	-2.989944
0.569400	-3.041877
0.569500	-2.919833
0.569600	-2.777016
0.569700	-2.803957
0.569800	-3.007796
0.569900	-3.209038
0.570000	-3.295377
0.570100	-3.318098
0.570200	-3.265516
0.570300	-3.294728
0.570400	-3.314528
0.570500	-3.322967
0.570600	-3.370357
0.570700	-3.389182
0.570800	-3.393402
0.570900	-3.462539
0.571000	-3.480066
0.571100	-3.494997
0.571200	-3.502138
0.571300	-3.510902
0.571400	-3.613471
0.571500	-3.659562
0.571600	-3.684879
0.571700	-3.527780
0.571800	-3.424238
0.571900	-3.494997
0.572000	-3.667027
0.572100	-3.874437
0.572200	-3.908519
0.572300	-3.738111
0.572400	-3.579389
0.572500	-3.533947
0.572600	-3.701758
0.572700	-3.901702
0.572800	-4.010114
0.572900	-3.969216
0.573000	-3.826399
0.573100	-3.760832
0.573200	-3.768622
0.573300	-3.808871
0.573400	-3.833864
0.573500	-3.822179
0.573600	-3.803678
0.573700	-3.747849
0.573800	-3.717663
0.573900	-3.621585
0.574000	-3.485584
0.574100	-3.384314
0.574200	-3.330433
0.574300	-3.292781
0.574400	-3.291807
0.574500	-3.180475
0.574600	-3.009743
0.574700	-2.901657
0.574800	-2.729952
0.574900	-2.694572
0.575000	-2.611803
0.575100	-2.522543
0.575200	-2.415755
0.575300	-2.292089
0.575400	-2.185301
0.575500	-2.118761
0.575600	-2.103506
0.575700	-2.104804
0.575800	-2.066828
0.575900	-2.086303
0.576000	-2.107401
0.576100	-2.075592
0.576200	-2.068451
0.576300	-2.019114
0.576400	-2.075592
0.576500	-2.121682
0.576600	-2.090198
0.576700	-2.202828
0.576800	-2.062608
0.576900	-2.001262
0.577000	-1.614035
0.577100	-1.704269
0.577200	-1.890904
0.577300	-2.195038
0.577400	-2.051572
0.577500	-1.829558
0.577600	-1.674407
0.577700	-1.455963
0.577800	-1.714980
0.577900	-1.761071
0.578000	-1.895123
0.578100	-1.679276
0.578200	-1.582875
0.578300	-1.420908
0.578400	-1.407925
0.578500	-1.487772
0.578600	-1.420584
0.578700	-1.430321
0.578800	-1.359887
0.578900	-1.373844
0.579000	-1.339438
0.579100	-1.370598
0.579200	-1.330999
0.579300	-1.368326
0.579400	-1.380660
0.579500	-1.396565
0.579600	-1.474464
0.579700	-1.474464
0.579800	-1.432269
0.579900	-1.450445
0.580000	-1.480956
0.580100	-1.813004
0.580200	-1.881816
0.580300	-1.871429
0.580400	-1.683171
0.580500	-1.548145
0.580600	-1.631887
0.580700	-1.876947
0.580800	-2.011000
0.580900	-1.966532
0.581000	-1.765940
0.581100	-1.645195
0.581200	-1.652660
0.581300	-1.782169
0.581400	-1.882140
0.581500	-1.871104
0.581600	-1.862990
0.581700	-1.798722
0.581800	-1.860069
0.581900	-1.888632
0.582000	-1.943486
0.582100	-1.935372
0.582200	-1.901615
0.582300	-1.929854
0.582400	-1.948355
0.582500	-1.927906
0.582600	-1.922388
0.582700	-1.876947
0.582800	-1.890255
0.582900	-2.009377
0.583000	-2.035668
0.583100	-2.074293
0.583200	-2.008078
0.583300	-1.882789
0.583400	-1.942188
0.583500	-1.937644
0.583600	-1.951925
0.583700	-1.912651
0.583800	-1.915248
0.583900	-1.943811
0.584000	-1.947057
0.584100	-1.937968
0.584200	-1.916221
0.584300	-1.914598
0.584400	-1.932451
0.584500	-1.926608
0.584600	-1.950627
0.584700	-1.951276
0.584800	-1.977892
0.584900	-2.001911
0.585000	-2.055143
0.585100	-2.081434
0.585200	-2.209644
0.585300	-2.501769
0.585400	-2.604987
0.585500	-2.477101
0.585600	-2.274236
0.585700	-2.173616
0.585800	-2.344346
0.585900	-2.634849
0.586000	-2.870497
0.586100	-2.790000
0.586200	-2.649130
0.586300	-2.525139
0.586400	-2.651078
0.586500	-2.845504
0.586600	-3.033438
0.586700	-3.052588
0.586800	-3.002927
0.586900	-3.010068
0.587000	-2.948072
0.587100	-3.036684
0.587200	-3.087319
0.587300	-3.075309
0.587400	-3.097381
0.587500	-3.077906
0.587600	-3.148016
0.587700	-3.205792
0.587800	-3.261621
0.587900	-3.182097
0.588000	-3.177229
0.588100	-3.204169
0.588200	-3.233382
0.588300	-3.202222
0.588400	-3.036359
0.588500	-2.996111
0.588600	-3.063949
0.588700	-3.232083
0.588800	-3.384638
0.588900	-3.377497
0.589000	-3.183071
0.589100	-3.054211
0.589200	-3.077257
0.589300	-3.267463
0.589400	-3.497594
0.589500	-3.503761
0.589600	-3.389507
0.589700	-3.247339
0.589800	-3.166193
0.589900	-3.218451
0.590000	-3.257076
0.590100	-3.281096
0.590200	-3.238251
0.590300	-3.193133
0.590400	-3.139577
0.590500	-3.042851
0.590600	-3.043500
0.590700	-2.939308
0.590800	-2.830248
0.590900	-2.776043
0.591000	-2.734496
0.591100	-2.701064
0.591200	-2.532929
0.591300	-2.369339
0.591400	-2.159659
0.591500	-2.070723
0.591600	-2.049625
0.591700	-1.975945
0.591800	-1.886035
0.591900	-1.804889
0.592000	-1.648441
0.592100	-1.577032
0.592200	-1.492316
0.592300	-1.519581
0.592400	-1.497510
0.592500	-1.543925
0.592600	-1.497510
0.592700	-1.513090
0.592800	-1.437462
0.592900	-1.458560
0.593000	-1.424803
0.593100	-1.456937
0.593200	-1.526722
0.593300	-1.503028
0.593400	-1.546197
0.593500	-1.483228
0.593600	-1.293997
0.593700	-1.091133
0.593800	-1.147610
0.593900	-1.602350
0.594000	-1.583200
0.594100	-1.691935
0.594200	-1.254722
0.594300	-1.096326
0.594400	-1.106713
0.594500	-1.184937
0.594600	-1.409872
0.594700	-1.324507
0.594800	-1.318016
0.594900	-1.104765
0.595000	-1.158321
0.595100	-1.124240
0.595200	-1.146961
0.595300	-1.238493
0.595400	-1.229080
0.595500	-1.196297
0.595600	-1.210254
0.595700	-1.207009
0.595800	-1.186884
0.595900	-1.213176
0.596000	-1.301462
0.596100	-1.310226
0.596200	-1.379362
0.596300	-1.350474
0.596400	-1.404679
0.596500	-1.320288
0.596600	-1.354369
0.596700	-1.417338
0.596800	-1.723095
0.596900	-1.734780
0.597000	-1.640326
0.597100	-1.394293
0.597200	-1.381958
0.597300	-1.504975
0.597400	-1.706216
0.597500	-1.809758
0.597600	-1.667916
0.597700	-1.451744
0.597800	-1.329376
0.597900	-1.424803
0.598000	-1.539705
0.598100	-1.562751
0.598200	-1.544899
0.598300	-1.472517
0.598400	-1.443304
0.598500	-1.484202
0.598600	-1.516985
0.598700	-1.485825
0.598800	-1.425777
0.598900	-1.438760
0.599000	-1.451744
0.599100	-1.456612
0.599200	-1.404355
0.599300	-1.359562
0.599400	-1.327429
0.599500	-1.378713
0.599600	-1.494264
0.599700	-1.506923
0.599800	-1.508221
0.599900	-1.495238
0.600000	-1.413767
0.600100	-1.455314
0.600200	-1.426426
0.600300	-1.419610
0.600400	-1.420584
0.600500	-1.380985
0.600600	-1.394617
0.600700	-1.387801
0.600800	-1.384555
0.600900	-1.372870
0.601000	-1.368651
0.601100	-1.411820
0.601200	-1.412794
0.601300	-1.387476
0.601400	-1.410846
0.601500	-1.426102
0.601600	-1.441032
0.601700	-1.447849
0.601800	-1.529643
0.601900	-1.731534
0.602000	-2.035343
0.602100	-2.069425
0.602200	-1.905510
0.602300	-1.695830
0.602400	-1.742570
0.602500	-2.010026
0.602600	-2.317406
0.602700	-2.442695
0.602800	-2.392385
0.602900	-2.241778
0.603000	-2.229769
0.603100	-2.344996
0.603200	-2.574152
0.603300	-2.698792
0.603400	-2.737093
0.603500	-2.725408
0.603600	-2.751374
0.603700	-2.830897
0.603800	-2.896788
0.603900	-2.993839
0.604000	-3.065896
0.604100	-3.112961
0.604200	-3.202871
0.604300	-3.334977
0.604400	-3.433975
