LabVIEW Measurement	
Writer_Version	2
Reader_Version	2
Separator	Tab
Decimal_Separator	.
Multi_Headings	Yes
X_Columns	One
Time_Pref	Relative
Operator	as989
Description	Time Domain Data
Date	1903/12/31
Time	19:00:00
***End_of_Header***	
	
Channels	1	
Samples	15000	
Date	1903/12/31	
Time	19:00:00	
X_Dimension	Time	
X0	0.0000000000000000E+0	
Delta_X	0.000100	
***End_of_Header***		
X_Value	Untitled	Comment
0.000000	-1.851954	Tare Values:0.000000, 0.000000, 0.000000, 0.000000\0D\0A
0.000100	-1.801319
0.000200	-1.827935
0.000300	-1.920766
0.000400	-2.015544
0.000500	-2.068775
0.000600	-2.078837
0.000700	-2.064556
0.000800	-2.062608
0.000900	-2.085005
0.001000	-2.111945
0.001100	-2.136289
0.001200	-2.144403
0.001300	-2.147649
0.001400	-2.165826
0.001500	-2.180432
0.001600	-2.194064
0.001700	-2.195687
0.001800	-2.209320
0.001900	-2.228470
0.002000	-2.246971
0.002100	-2.239181
0.002200	-2.161931
0.002300	-2.120709
0.002400	-2.152193
0.002500	-2.238208
0.002600	-2.340451
0.002700	-2.365444
0.002800	-2.295010
0.002900	-2.221979
0.003000	-2.207372
0.003100	-2.267420
0.003200	-2.366418
0.003300	-2.423545
0.003400	-2.418027
0.003500	-2.369015
0.003600	-2.328117
0.003700	-2.324222
0.003800	-2.339478
0.003900	-2.344996
0.004000	-2.347592
0.004100	-2.335583
0.004200	-2.311239
0.004300	-2.275535
0.004400	-2.209644
0.004500	-2.139210
0.004600	-2.084031
0.004700	-2.048002
0.004800	-2.025930
0.004900	-1.998016
0.005000	-1.925310
0.005100	-1.844164
0.005200	-1.784765
0.005300	-1.691610
0.005400	-1.619553
0.005500	-1.550741
0.005600	-1.469596
0.005700	-1.385853
0.005800	-1.296593
0.005900	-1.203763
0.006000	-1.124565
0.006100	-1.054455
0.006200	-1.005118
0.006300	-0.966169
0.006400	-0.938579
0.006500	-0.914885
0.006600	-0.879505
0.006700	-0.856784
0.006800	-0.829520
0.006900	-0.830493
0.007000	-0.817510
0.007100	-0.845099
0.007200	-0.822379
0.007300	-0.780508
0.007400	-0.631200
0.007500	-0.532527
0.007600	-0.546809
0.007700	-0.671448
0.007800	-0.781157
0.007900	-0.727601
0.008000	-0.637367
0.008100	-0.531878
0.008200	-0.520193
0.008300	-0.589329
0.008400	-0.674694
0.008500	-0.701634
0.008600	-0.663009
0.008700	-0.608155
0.008800	-0.562713
0.008900	-0.561090
0.009000	-0.593224
0.009100	-0.614971
0.009200	-0.636069
0.009300	-0.644508
0.009400	-0.650350
0.009500	-0.653596
0.009600	-0.656842
0.009700	-0.648727
0.009800	-0.680536
0.009900	-0.728575
0.010000	-0.759734
0.010100	-0.791219
0.010200	-0.787324
0.010300	-0.774665
0.010400	-0.768174
0.010500	-0.811668
0.010600	-0.921376
0.010700	-0.948317
0.010800	-0.920078
0.010900	-0.838608
0.011000	-0.792517
0.011100	-0.844126
0.011200	-0.954159
0.011300	-1.006092
0.011400	-0.986942
0.011500	-0.921701
0.011600	-0.890216
0.011700	-0.914885
0.011800	-0.980126
0.011900	-1.020698
0.012000	-1.033032
0.012100	-1.029787
0.012200	-1.040173
0.012300	-1.086264
0.012400	-1.117424
0.012500	-1.146636
0.012600	-1.154102
0.012700	-1.167734
0.012800	-1.201491
0.012900	-1.225834
0.013000	-1.221290
0.013100	-1.202464
0.013200	-1.180068
0.013300	-1.204736
0.013400	-1.262837
0.013500	-1.300488
0.013600	-1.311849
0.013700	-1.281013
0.013800	-1.274846
0.013900	-1.288154
0.014000	-1.291725
0.014100	-1.290751
0.014200	-1.296593
0.014300	-1.297242
0.014400	-1.293997
0.014500	-1.288803
0.014600	-1.285557
0.014700	-1.289128
0.014800	-1.297892
0.014900	-1.306655
0.015000	-1.315744
0.015100	-1.312498
0.015200	-1.330674
0.015300	-1.346254
0.015400	-1.374168
0.015500	-1.410846
0.015600	-1.460507
0.015700	-1.605920
0.015800	-1.758799
0.015900	-1.827935
0.016000	-1.773405
0.016100	-1.678302
0.016200	-1.686417
0.016300	-1.801319
0.016400	-1.966532
0.016500	-2.057740
0.016600	-2.046379
0.016700	-1.997692
0.016800	-1.978866
0.016900	-2.051897
0.017000	-2.154141
0.017100	-2.239506
0.017200	-2.276509
0.017300	-2.276509
0.017400	-2.280404
0.017500	-2.306046
0.017600	-2.344022
0.017700	-2.369989
0.017800	-2.385244
0.017900	-2.388165
0.018000	-2.416079
0.018100	-2.443669
0.018200	-2.460223
0.018300	-2.464767
0.018400	-2.457951
0.018500	-2.482619
0.018600	-2.514104
0.018700	-2.541044
0.018800	-2.505015
0.018900	-2.428414
0.019000	-2.405044
0.019100	-2.453406
0.019200	-2.548185
0.019300	-2.631603
0.019400	-2.594276
0.019500	-2.496901
0.019600	-2.420624
0.019700	-2.424194
0.019800	-2.510858
0.019900	-2.588433
0.020000	-2.599794
0.020100	-2.549808
0.020200	-2.491383
0.020300	-2.459898
0.020400	-2.459249
0.020500	-2.463144
0.020600	-2.448862
0.020700	-2.423869
0.020800	-2.400499
0.020900	-2.369015
0.021000	-2.335583
0.021100	-2.280404
0.021200	-2.208671
0.021300	-2.144403
0.021400	-2.097988
0.021500	-2.061959
0.021600	-2.014570
0.021700	-1.919792
0.021800	-1.814952
0.021900	-1.694207
0.022000	-1.618579
0.022100	-1.552040
0.022200	-1.489720
0.022300	-1.421882
0.022400	-1.347877
0.022500	-1.256020
0.022600	-1.186235
0.022700	-1.117099
0.022800	-1.081071
0.022900	-1.049262
0.023000	-1.024593
0.023100	-0.998951
0.023200	-0.977529
0.023300	-0.943772
0.023400	-0.912937
0.023500	-0.894761
0.023600	-0.882426
0.023700	-0.873338
0.023800	-0.872364
0.023900	-0.848345
0.024000	-0.762006
0.024100	-0.606856
0.024200	-0.529281
0.024300	-0.575047
0.024400	-0.718837
0.024500	-0.780183
0.024600	-0.710723
0.024700	-0.584785
0.024800	-0.494876
0.024900	-0.504613
0.025000	-0.579916
0.025100	-0.642236
0.025200	-0.622436
0.025300	-0.550054
0.025400	-0.473453
0.025500	-0.435153
0.025600	-0.449110
0.025700	-0.467286
0.025800	-0.469558
0.025900	-0.460794
0.026000	-0.441644
0.026100	-0.442618
0.026200	-0.453005
0.026300	-0.458847
0.026400	-0.467286
0.026500	-0.507859
0.026600	-0.558818
0.026700	-0.616269
0.026800	-0.671773
0.026900	-0.678914
0.027000	-0.689300
0.027100	-0.702933
0.027200	-0.808422
0.027300	-0.914885
0.027400	-0.962274
0.027500	-0.925271
0.027600	-0.869119
0.027700	-0.869768
0.027800	-0.960651
0.027900	-1.084316
0.028000	-1.145987
0.028100	-1.133004
0.028200	-1.065815
0.028300	-1.050235
0.028400	-1.110932
0.028500	-1.186235
0.028600	-1.228106
0.028700	-1.249529
0.028800	-1.246283
0.028900	-1.265109
0.029000	-1.310226
0.029100	-1.354369
0.029200	-1.371896
0.029300	-1.377090
0.029400	-1.388125
0.029500	-1.406951
0.029600	-1.407925
0.029700	-1.386503
0.029800	-1.362483
0.029900	-1.338140
0.030000	-1.355018
0.030100	-1.391371
0.030200	-1.401433
0.030300	-1.388775
0.030400	-1.350474
0.030500	-1.339763
0.030600	-1.326130
0.030700	-1.317042
0.030800	-1.307629
0.030900	-1.299190
0.031000	-1.292374
0.031100	-1.286207
0.031200	-1.285557
0.031300	-1.283610
0.031400	-1.281662
0.031500	-1.286207
0.031600	-1.286856
0.031700	-1.293672
0.031800	-1.302760
0.031900	-1.312822
0.032000	-1.324832
0.032100	-1.347877
0.032200	-1.377739
0.032300	-1.447524
0.032400	-1.591639
0.032500	-1.715305
0.032600	-1.732508
0.032700	-1.637080
0.032800	-1.548794
0.032900	-1.579305
0.033000	-1.724718
0.033100	-1.872727
0.033200	-1.937644
0.033300	-1.905510
0.033400	-1.845787
0.033500	-1.844813
0.033600	-1.911353
0.033700	-2.010026
0.033800	-2.079487
0.033900	-2.102207
0.034000	-2.094093
0.034100	-2.096365
0.034200	-2.120059
0.034300	-2.156737
0.034400	-2.186274
0.034500	-2.205425
0.034600	-2.218733
0.034700	-2.246971
0.034800	-2.281053
0.034900	-2.307669
0.035000	-2.323898
0.035100	-2.334609
0.035200	-2.359926
0.035300	-2.396929
0.035400	-2.414456
0.035500	-2.370638
0.035600	-2.304747
0.035700	-2.298256
0.035800	-2.363821
0.035900	-2.465741
0.036000	-2.520595
0.036100	-2.473531
0.036200	-2.381674
0.036300	-2.330714
0.036400	-2.360576
0.036500	-2.449187
0.036600	-2.506638
0.036700	-2.498524
0.036800	-2.440423
0.036900	-2.384595
0.037000	-2.367067
0.037100	-2.364795
0.037200	-2.358953
0.037300	-2.343373
0.037400	-2.322599
0.037500	-2.296957
0.037600	-2.261578
0.037700	-2.220031
0.037800	-2.160308
0.037900	-2.094093
0.038000	-2.047028
0.038100	-2.014570
0.038200	-1.987954
0.038300	-1.927257
0.038400	-1.831181
0.038500	-1.745491
0.038600	-1.640001
0.038700	-1.574436
0.038800	-1.524125
0.038900	-1.475438
0.039000	-1.414417
0.039100	-1.352097
0.039200	-1.273548
0.039300	-1.211228
0.039400	-1.164813
0.039500	-1.142417
0.039600	-1.109634
0.039700	-1.088211
0.039800	-1.078799
0.039900	-1.051209
0.040000	-1.023620
0.040100	-0.994083
0.040200	-0.976555
0.040300	-0.969414
0.040400	-0.956756
0.040500	-0.972985
0.040600	-0.922025
0.040700	-0.818159
0.040800	-0.663658
0.040900	-0.624059
0.041000	-0.710398
0.041100	-0.821080
0.041200	-0.837959
0.041300	-0.731171
0.041400	-0.605883
0.041500	-0.537071
0.041600	-0.579267
0.041700	-0.650999
0.041800	-0.684756
0.041900	-0.654570
0.042000	-0.582188
0.042100	-0.532527
0.042200	-0.516623
0.042300	-0.537071
0.042400	-0.548432
0.042500	-0.561090
0.042600	-0.556222
0.042700	-0.558818
0.042800	-0.558494
0.042900	-0.558818
0.043000	-0.557844
0.043100	-0.566284
0.043200	-0.612050
0.043300	-0.647104
0.043400	-0.687353
0.043500	-0.719811
0.043600	-0.714293
0.043700	-0.723381
0.043800	-0.751944
0.043900	-0.862951
0.044000	-0.942149
0.044100	-0.960651
0.044200	-0.905147
0.044300	-0.843152
0.044400	-0.873987
0.044500	-0.974608
0.044600	-1.073605
0.044700	-1.096326
0.044800	-1.048612
0.044900	-0.983047
0.045000	-0.984021
0.045100	-1.042445
0.045200	-1.100870
0.045300	-1.110283
0.045400	-1.108660
0.045500	-1.092106
0.045600	-1.110283
0.045700	-1.140794
0.045800	-1.171629
0.045900	-1.182340
0.046000	-1.202140
0.046100	-1.227133
0.046200	-1.241739
0.046300	-1.245634
0.046400	-1.236221
0.046500	-1.225510
0.046600	-1.240441
0.046700	-1.296918
0.046800	-1.349176
0.046900	-1.368975
0.047000	-1.371247
0.047100	-1.353720
0.047200	-1.357615
0.047300	-1.356316
0.047400	-1.353071
0.047500	-1.345281
0.047600	-1.338789
0.047700	-1.334569
0.047800	-1.329376
0.047900	-1.326779
0.048000	-1.318016
0.048100	-1.316393
0.048200	-1.319963
0.048300	-1.324183
0.048400	-1.334245
0.048500	-1.337815
0.048600	-1.343009
0.048700	-1.366378
0.048800	-1.390398
0.048900	-1.419285
0.049000	-1.519257
0.049100	-1.679925
0.049200	-1.774703
0.049300	-1.756202
0.049400	-1.660450
0.049500	-1.617930
0.049600	-1.689338
0.049700	-1.846436
0.049800	-1.969453
0.049900	-1.993797
0.050000	-1.937644
0.050100	-1.890579
0.050200	-1.921739
0.050300	-2.011000
0.050400	-2.106752
0.050500	-2.155439
0.050600	-2.163554
0.050700	-2.146351
0.050800	-2.160632
0.050900	-2.187897
0.051000	-2.212241
0.051100	-2.228795
0.051200	-2.232041
0.051300	-2.240804
0.051400	-2.266771
0.051500	-2.292089
0.051600	-2.305721
0.051700	-2.313836
0.051800	-2.322924
0.051900	-2.347592
0.052000	-2.383621
0.052100	-2.373559
0.052200	-2.305072
0.052300	-2.246647
0.052400	-2.271315
0.052500	-2.370313
0.052600	-2.471908
0.052700	-2.495602
0.052800	-2.431984
0.052900	-2.342399
0.053000	-2.319678
0.053100	-2.392709
0.053200	-2.503392
0.053300	-2.568634
0.053400	-2.545264
0.053500	-2.483917
0.053600	-2.443669
0.053700	-2.445616
0.053800	-2.468013
0.053900	-2.472881
0.054000	-2.462170
0.054100	-2.439774
0.054200	-2.397578
0.054300	-2.354084
0.054400	-2.310265
0.054500	-2.247945
0.054600	-2.168422
0.054700	-2.090198
0.054800	-2.020088
0.054900	-1.963610
0.055000	-1.875649
0.055100	-1.776651
0.055200	-1.706541
0.055300	-1.607219
0.055400	-1.534512
0.055500	-1.462779
0.055600	-1.395915
0.055700	-1.319639
0.055800	-1.223887
0.055900	-1.135600
0.056000	-1.063219
0.056100	-1.018751
0.056200	-0.977529
0.056300	-0.954484
0.056400	-0.929491
0.056500	-0.913911
0.056600	-0.885997
0.056700	-0.868145
0.056800	-0.859381
0.056900	-0.852889
0.057000	-0.864899
0.057100	-0.876909
0.057200	-0.883725
0.057300	-0.837634
0.057400	-0.706828
0.057500	-0.605883
0.057600	-0.590627
0.057700	-0.749348
0.057800	-0.826598
0.057900	-0.822379
0.058000	-0.686703
0.058100	-0.579916
0.058200	-0.549405
0.058300	-0.614646
0.058400	-0.694818
0.058500	-0.699038
0.058600	-0.652622
0.058700	-0.560117
0.058800	-0.506236
0.058900	-0.499095
0.059000	-0.515000
0.059100	-0.529930
0.059200	-0.538045
0.059300	-0.523763
0.059400	-0.517596
0.059500	-0.518245
0.059600	-0.522140
0.059700	-0.523439
0.059800	-0.561415
0.059900	-0.603935
0.060000	-0.651973
0.060100	-0.685405
0.060200	-0.712995
0.060300	-0.710398
0.060400	-0.719486
0.060500	-0.769147
0.060600	-0.885997
0.060700	-0.940202
0.060800	-0.933061
0.060900	-0.859056
0.061000	-0.826923
0.061100	-0.873338
0.061200	-0.993433
0.061300	-1.089185
0.061400	-1.094703
0.061500	-1.026216
0.061600	-0.969090
0.061700	-0.986942
0.061800	-1.054779
0.061900	-1.114827
0.062000	-1.141118
0.062100	-1.142741
0.062200	-1.138197
0.062300	-1.155725
0.062400	-1.194999
0.062500	-1.238493
0.062600	-1.259591
0.062700	-1.283610
0.062800	-1.306980
0.062900	-1.317691
0.063000	-1.318665
0.063100	-1.306331
0.063200	-1.305682
0.063300	-1.319963
0.063400	-1.378063
0.063500	-1.418636
0.063600	-1.425777
0.063700	-1.393643
0.063800	-1.379686
0.063900	-1.384230
0.064000	-1.379362
0.064100	-1.369624
0.064200	-1.353395
0.064300	-1.343982
0.064400	-1.334245
0.064500	-1.323858
0.064600	-1.314121
0.064700	-1.314121
0.064800	-1.318016
0.064900	-1.318989
0.065000	-1.327429
0.065100	-1.325156
0.065200	-1.325806
0.065300	-1.332297
0.065400	-1.340736
0.065500	-1.357290
0.065600	-1.382283
0.065700	-1.495887
0.065800	-1.639352
0.065900	-1.700698
0.066000	-1.645519
0.066100	-1.552689
0.066200	-1.534837
0.066300	-1.644221
0.066400	-1.802293
0.066500	-1.904536
0.066600	-1.904212
0.066700	-1.840918
0.066800	-1.808135
0.066900	-1.855524
0.067000	-1.953548
0.067100	-2.037291
0.067200	-2.066503
0.067300	-2.065530
0.067400	-2.061310
0.067500	-2.073644
0.067600	-2.092470
0.067700	-2.121682
0.067800	-2.139210
0.067900	-2.147000
0.068000	-2.171019
0.068100	-2.204127
0.068200	-2.226523
0.068300	-2.221654
0.068400	-2.215162
0.068500	-2.227172
0.068600	-2.258981
0.068700	-2.269692
0.068800	-2.241778
0.068900	-2.157711
0.069000	-2.128499
0.069100	-2.163229
0.069200	-2.260929
0.069300	-2.339153
0.069400	-2.331363
0.069500	-2.252489
0.069600	-2.173616
0.069700	-2.178160
0.069800	-2.259955
0.069900	-2.364146
0.070000	-2.403745
0.070100	-2.371287
0.070200	-2.329740
0.070300	-2.314485
0.070400	-2.317081
0.070500	-2.339153
0.070600	-2.349215
0.070700	-2.351487
0.070800	-2.344346
0.070900	-2.321301
0.071000	-2.283325
0.071100	-2.226198
0.071200	-2.155764
0.071300	-2.094417
0.071400	-2.058064
0.071500	-2.025281
0.071600	-1.976594
0.071700	-1.878570
0.071800	-1.772107
0.071900	-1.652011
0.072000	-1.567295
0.072100	-1.501729
0.072200	-1.428698
0.072300	-1.351772
0.072400	-1.281338
0.072500	-1.184612
0.072600	-1.102168
0.072700	-1.033357
0.072800	-0.984345
0.072900	-0.948966
0.073000	-0.917157
0.073100	-0.909691
0.073200	-0.877558
0.073300	-0.871066
0.073400	-0.832441
0.073500	-0.822379
0.073600	-0.806799
0.073700	-0.810694
0.073800	-0.813940
0.073900	-0.784727
0.074000	-0.715267
0.074100	-0.554923
0.074200	-0.451057
0.074300	-0.493253
0.074400	-0.637692
0.074500	-0.699687
0.074600	-0.638665
0.074700	-0.503315
0.074800	-0.406914
0.074900	-0.412432
0.075000	-0.501692
0.075100	-0.569205
0.075200	-0.566608
0.075300	-0.499420
0.075400	-0.439372
0.075500	-0.409511
0.075600	-0.427687
0.075700	-0.446837
0.075800	-0.452680
0.075900	-0.455277
0.076000	-0.452031
0.076100	-0.454303
0.076200	-0.461444
0.076300	-0.470857
0.076400	-0.469234
0.076500	-0.504613
0.076600	-0.555572
0.076700	-0.603611
0.076800	-0.647754
0.076900	-0.638016
0.077000	-0.637367
0.077100	-0.639315
0.077200	-0.743181
0.077300	-0.854837
0.077400	-0.898006
0.077500	-0.870741
0.077600	-0.787324
0.077700	-0.780832
0.077800	-0.865224
0.077900	-0.999925
0.078000	-1.066140
0.078100	-1.042445
0.078200	-0.962923
0.078300	-0.928842
0.078400	-0.974608
0.078500	-1.055429
0.078600	-1.105414
0.078700	-1.121968
0.078800	-1.111581
0.078900	-1.121643
0.079000	-1.159295
0.079100	-1.211553
0.079200	-1.238818
0.079300	-1.241739
0.079400	-1.264135
0.079500	-1.289128
0.079600	-1.301137
0.079700	-1.293023
0.079800	-1.283935
0.079900	-1.277767
0.080000	-1.317367
0.080100	-1.377090
0.080200	-1.409548
0.080300	-1.419285
0.080400	-1.394293
0.080500	-1.403381
0.080600	-1.412145
0.080700	-1.425452
0.080800	-1.425128
0.080900	-1.422856
0.081000	-1.424479
0.081100	-1.417338
0.081200	-1.418312
0.081300	-1.418636
0.081400	-1.418636
0.081500	-1.421233
0.081600	-1.427075
0.081700	-1.440708
0.081800	-1.447849
0.081900	-1.457262
0.082000	-1.473815
0.082100	-1.494913
0.082200	-1.520880
0.082300	-1.576059
0.082400	-1.723744
0.082500	-1.874675
0.082600	-1.914598
0.082700	-1.836374
0.082800	-1.753281
0.082900	-1.767238
0.083000	-1.922064
0.083100	-2.083057
0.083200	-2.158360
0.083300	-2.120709
0.083400	-2.047028
0.083500	-2.036642
0.083600	-2.097663
0.083700	-2.196986
0.083800	-2.265148
0.083900	-2.279105
0.084000	-2.258656
0.084100	-2.250866
0.084200	-2.263525
0.084300	-2.296308
0.084400	-2.319678
0.084500	-2.331688
0.084600	-2.327793
0.084700	-2.347592
0.084800	-2.366094
0.084900	-2.383946
0.085000	-2.374857
0.085100	-2.354084
0.085200	-2.363172
0.085300	-2.384919
0.085400	-2.385244
0.085500	-2.320976
0.085600	-2.227496
0.085700	-2.208995
0.085800	-2.266122
0.085900	-2.369339
0.086000	-2.430686
0.086100	-2.390113
0.086200	-2.288194
0.086300	-2.224900
0.086400	-2.252165
0.086500	-2.357979
0.086600	-2.453406
0.086700	-2.476776
0.086800	-2.421273
0.086900	-2.357005
0.087000	-2.331363
0.087100	-2.341750
0.087200	-2.353759
0.087300	-2.348241
0.087400	-2.315783
0.087500	-2.263850
0.087600	-2.210618
0.087700	-2.143429
0.087800	-2.056766
0.087900	-1.957768
0.088000	-1.879219
0.088100	-1.811381
0.088200	-1.754579
0.088300	-1.677004
0.088400	-1.556259
0.088500	-1.467324
0.088600	-1.343333
0.088700	-1.254398
0.088800	-1.175849
0.088900	-1.098923
0.089000	-1.018426
0.089100	-0.927868
0.089200	-0.827897
0.089300	-0.737338
0.089400	-0.674045
0.089500	-0.627954
0.089600	-0.598417
0.089700	-0.568556
0.089800	-0.545835
0.089900	-0.519219
0.090000	-0.487735
0.090100	-0.471506
0.090200	-0.458847
0.090300	-0.454952
0.090400	-0.455926
0.090500	-0.457224
0.090600	-0.428336
0.090700	-0.319601
0.090800	-0.176136
0.090900	-0.098561
0.091000	-0.187821
0.091100	-0.307267
0.091200	-0.355630
0.091300	-0.268642
0.091400	-0.146275
0.091500	-0.080385
0.091600	-0.117387
0.091700	-0.187172
0.091800	-0.248518
0.091900	-0.223525
0.092000	-0.154714
0.092100	-0.077788
0.092200	-0.061884
0.092300	-0.072595
0.092400	-0.094017
0.092500	-0.112194
0.092600	-0.106351
0.092700	-0.092394
0.092800	-0.086876
0.092900	-0.102781
0.093000	-0.107000
0.093100	-0.122256
0.093200	-0.124528
0.093300	-0.211840
0.093400	-0.253387
0.093500	-0.277406
0.093600	-0.209893
0.093700	-0.008977
0.093800	-0.046953
0.093900	-0.402694
0.094000	-0.488384
0.094100	-0.500718
0.094200	-0.296556
0.094300	0.424015
0.094400	0.463939
0.094500	0.015691
0.094600	-0.552327
0.094700	-0.580890
0.094800	-0.139783
0.094900	0.535996
0.095000	0.796310
0.095100	0.582736
0.095200	0.286717
0.095300	0.242899
0.095400	0.300350
0.095500	0.524960
0.095600	0.565533
0.095700	0.503538
0.095800	0.352607
0.095900	0.197457
0.096000	0.150393
0.096100	0.074116
0.096200	0.007902
0.096300	0.068274
0.096400	0.227319
0.096500	0.426936
0.096600	0.510354
0.096700	0.240302
0.096800	-0.005406
0.096900	-0.050848
0.097000	0.189667
0.097100	0.354879
0.097200	0.282822
0.097300	0.292235
0.097400	0.300999
0.097500	0.357476
0.097600	0.388311
0.097700	0.438621
0.097800	0.471404
0.097900	0.503538
0.098000	0.449008
0.098100	0.409409
0.098200	0.366889
0.098300	0.317877
0.098400	0.248416
0.098500	0.220827
0.098600	0.137410
0.098700	0.002708
0.098800	-0.169969
0.098900	-0.457549
0.099000	-1.193376
0.099100	-1.271925
0.099200	-1.390722
0.099300	-1.396889
0.099400	-1.310550
0.099500	-1.264784
0.099600	-1.330999
0.099700	-1.491992
0.099800	-1.640651
0.099900	-1.687066
0.100000	-1.641624
0.100100	-1.596507
0.100200	-1.616307
0.100300	-1.705567
0.100400	-1.806837
0.100500	-1.871754
0.100600	-1.899018
0.100700	-1.911677
0.100800	-1.927582
0.100900	-1.959715
0.101000	-1.993148
0.101100	-2.015868
0.101200	-2.043458
0.101300	-2.072995
0.101400	-2.115515
0.101500	-2.153167
0.101600	-2.168422
0.101700	-2.180432
0.101800	-2.195363
0.101900	-2.234637
0.102000	-2.269692
0.102100	-2.271640
0.102200	-2.216785
0.102300	-2.168747
0.102400	-2.200232
0.102500	-2.293387
0.102600	-2.411860
0.102700	-2.462819
0.102800	-2.419650
0.102900	-2.355058
0.103000	-2.343697
0.103100	-2.415106
0.103200	-2.530657
0.103300	-2.609856
0.103400	-2.617646
0.103500	-2.591030
0.103600	-2.574152
0.103700	-2.587135
0.103800	-2.612777
0.103900	-2.631927
0.104000	-2.637121
0.104100	-2.640367
0.104200	-2.630629
0.104300	-2.607584
0.104400	-2.553054
0.104500	-2.479049
0.104600	-2.411860
0.104700	-2.367067
0.104800	-2.340776
0.104900	-2.307344
0.105000	-2.242752
0.105100	-2.151544
0.105200	-2.081110
0.105300	-1.974971
0.105400	-1.906808
0.105500	-1.840269
0.105600	-1.771133
0.105700	-1.692908
0.105800	-1.605271
0.105900	-1.516985
0.106000	-1.448498
0.106100	-1.386827
0.106200	-1.348202
0.106300	-1.300488
0.106400	-1.266732
0.106500	-1.235247
0.106600	-1.202464
0.106700	-1.174226
0.106800	-1.134627
0.106900	-1.118073
0.107000	-1.096651
0.107100	-1.105090
0.107200	-1.086589
0.107300	-1.039200
0.107400	-0.898655
0.107500	-0.760384
0.107600	-0.731171
0.107700	-0.852240
0.107800	-0.947992
0.107900	-0.939877
0.108000	-0.815238
0.108100	-0.712345
0.108200	-0.659114
0.108300	-0.722083
0.108400	-0.786999
0.108500	-0.816536
0.108600	-0.776613
0.108700	-0.700336
0.108800	-0.659439
0.108900	-0.640613
0.109000	-0.650026
0.109100	-0.645482
0.109200	-0.641262
0.109300	-0.632498
0.109400	-0.629577
0.109500	-0.631525
0.109600	-0.632174
0.109700	-0.611076
0.109800	-0.629252
0.109900	-0.659763
0.110000	-0.703257
0.110100	-0.729873
0.110200	-0.740909
0.110300	-0.729224
0.110400	-0.724355
0.110500	-0.767524
0.110600	-0.889243
0.110700	-0.946694
0.110800	-0.939553
0.110900	-0.863276
0.111000	-0.825300
0.111100	-0.862951
0.111200	-0.979476
0.111300	-1.058025
0.111400	-1.055753
0.111500	-0.987591
0.111600	-0.929815
0.111700	-0.945395
0.111800	-1.008040
0.111900	-1.055753
0.112000	-1.068087
0.112100	-1.065815
0.112200	-1.063219
0.112300	-1.101195
0.112400	-1.129433
0.112500	-1.163839
0.112600	-1.174875
0.112700	-1.179744
0.112800	-1.196297
0.112900	-1.210254
0.113000	-1.208631
0.113100	-1.193051
0.113200	-1.182340
0.113300	-1.194350
0.113400	-1.244335
0.113500	-1.282961
0.113600	-1.291725
0.113700	-1.250503
0.113800	-1.229080
0.113900	-1.233624
0.114000	-1.229729
0.114100	-1.212526
0.114200	-1.210254
0.114300	-1.207333
0.114400	-1.204412
0.114500	-1.200841
0.114600	-1.197596
0.114700	-1.194025
0.114800	-1.203763
0.114900	-1.207658
0.115000	-1.220966
0.115100	-1.232001
0.115200	-1.239791
0.115300	-1.257643
0.115400	-1.274846
0.115500	-1.301787
0.115600	-1.342359
0.115700	-1.458560
0.115800	-1.627018
0.115900	-1.713033
0.116000	-1.681873
0.116100	-1.598779
0.116200	-1.591314
0.116300	-1.707515
0.116400	-1.885711
0.116500	-2.005157
0.116600	-2.019763
0.116700	-1.965233
0.116800	-1.938293
0.116900	-1.988279
0.117000	-2.087601
0.117100	-2.181081
0.117200	-2.214513
0.117300	-2.218733
0.117400	-2.219057
0.117500	-2.238857
0.117600	-2.267096
0.117700	-2.292413
0.117800	-2.298905
0.117900	-2.298580
0.118000	-2.303449
0.118100	-2.318704
0.118200	-2.343373
0.118300	-2.352136
0.118400	-2.339802
0.118500	-2.345969
0.118600	-2.359277
0.118700	-2.380700
0.118800	-2.340451
0.118900	-2.253788
0.119000	-2.202828
0.119100	-2.233014
0.119200	-2.326819
0.119300	-2.412509
0.119400	-2.409263
0.119500	-2.333311
0.119600	-2.250866
0.119700	-2.242752
0.119800	-2.332986
0.119900	-2.438476
0.120000	-2.483593
0.120100	-2.456003
0.120200	-2.400175
0.120300	-2.372261
0.120400	-2.384270
0.120500	-2.420948
0.120600	-2.437826
0.120700	-2.444643
0.120800	-2.435879
0.120900	-2.420948
0.121000	-2.390762
0.121100	-2.334934
0.121200	-2.271640
0.121300	-2.214513
0.121400	-2.174589
0.121500	-2.141482
0.121600	-2.103181
0.121700	-2.016842
0.121800	-1.925634
0.121900	-1.836374
0.122000	-1.753930
0.122100	-1.681873
0.122200	-1.608517
0.122300	-1.530617
0.122400	-1.443954
0.122500	-1.338464
0.122600	-1.240116
0.122700	-1.165787
0.122800	-1.109634
0.122900	-1.058674
0.123000	-1.012908
0.123100	-0.980126
0.123200	-0.928842
0.123300	-0.885023
0.123400	-0.830169
0.123500	-0.791219
0.123600	-0.755190
0.123700	-0.736689
0.123800	-0.717539
0.123900	-0.681835
0.124000	-0.597768
0.124100	-0.424441
0.124200	-0.319926
0.124300	-0.328365
0.124400	-0.462093
0.124500	-0.520518
0.124600	-0.459821
0.124700	-0.321549
0.124800	-0.210867
0.124900	-0.201778
0.125000	-0.263124
0.125100	-0.328041
0.125200	-0.316680
0.125300	-0.229368
0.125400	-0.144327
0.125500	-0.085578
0.125600	-0.085253
0.125700	-0.082657
0.125800	-0.076490
0.125900	-0.051497
0.126000	-0.012872
0.126100	0.115987
0.126200	0.399347
0.126300	0.668100
0.126400	1.020596
0.126500	1.061818
0.126600	1.148481
0.126700	1.183536
0.126800	1.276042
0.126900	1.564920
0.127000	1.845034
0.127100	2.137482
0.127200	1.863859
0.127300	1.468843
0.127400	1.530189
0.127500	2.049845
0.127600	2.939849
0.127700	3.286504
0.127800	3.059296
0.127900	2.480565
0.128000	2.287439
0.128100	2.650322
0.128200	3.438084
0.128300	3.913599
0.128400	3.820119
0.128500	3.423153
0.128600	3.286828
0.128700	3.336490
0.128800	3.593559
0.128900	3.670161
0.129000	3.572786
0.129100	3.370571
0.129200	3.159916
0.129300	3.058971
0.129400	2.932709
0.129500	2.766198
0.129600	2.671095
0.129700	2.720107
0.129800	2.823973
0.129900	2.872012
0.130000	2.563334
0.130100	2.164747
0.130200	1.918389
0.130300	2.029072
0.130400	2.204021
0.130500	2.141701
0.130600	1.999859
0.130700	1.921959
0.130800	1.861912
0.130900	1.810952
0.131000	1.736948
0.131100	1.683716
0.131200	1.611335
0.131300	1.528566
0.131400	1.400357
0.131500	1.292271
0.131600	1.047212
0.131700	0.884921
0.131800	0.659986
0.131900	0.448359
0.132000	0.132541
0.132100	-0.143354
0.132200	-0.514350
0.132300	-1.286207
0.132400	-1.283285
0.132500	-1.466674
0.132600	-1.527047
0.132700	-1.504001
0.132800	-1.447849
0.132900	-1.505624
0.133000	-1.676030
0.133100	-1.877271
0.133200	-1.998990
0.133300	-2.011000
0.133400	-1.988279
0.133500	-2.017167
0.133600	-2.120709
0.133700	-2.270017
0.133800	-2.381349
0.133900	-2.448862
0.134000	-2.468662
0.134100	-2.509884
0.134200	-2.552404
0.134300	-2.616672
0.134400	-2.680940
0.134500	-2.729303
0.134600	-2.766305
0.134700	-2.809150
0.134800	-2.864329
0.134900	-2.897112
0.135000	-2.916263
0.135100	-2.933790
0.135200	-2.959757
0.135300	-3.003576
0.135400	-3.025972
0.135500	-2.987022
0.135600	-2.903929
0.135700	-2.887700
0.135800	-2.944177
0.135900	-3.048044
0.136000	-3.107768
0.136100	-3.066221
0.136200	-2.969170
0.136300	-2.893867
0.136400	-2.921132
0.136500	-3.018182
0.136600	-3.110689
0.136700	-3.117830
0.136800	-3.047395
0.136900	-2.974039
0.137000	-2.933141
0.137100	-2.928273
0.137200	-2.934115
0.137300	-2.923079
0.137400	-2.893217
0.137500	-2.851995
0.137600	-2.808176
0.137700	-2.743584
0.137800	-2.657894
0.137900	-2.571879
0.138000	-2.513454
0.138100	-2.469960
0.138200	-2.437177
0.138300	-2.379726
0.138400	-2.277158
0.138500	-2.202179
0.138600	-2.122656
0.138700	-2.046704
0.138800	-1.977243
0.138900	-1.905186
0.139000	-1.833128
0.139100	-1.754579
0.139200	-1.656231
0.139300	-1.580278
0.139400	-1.515686
0.139500	-1.483877
0.139600	-1.448822
0.139700	-1.422856
0.139800	-1.405328
0.139900	-1.387801
0.140000	-1.367677
0.140100	-1.351123
0.140200	-1.341386
0.140300	-1.336841
0.140400	-1.341710
0.140500	-1.351772
0.140600	-1.314445
0.140700	-1.227457
0.140800	-1.065491
0.140900	-1.001223
0.141000	-1.061920
0.141100	-1.217395
0.141200	-1.240765
0.141300	-1.169682
0.141400	-1.014207
0.141500	-0.938255
0.141600	-0.959028
0.141700	-1.029787
0.141800	-1.092106
0.141900	-1.057701
0.142000	-0.983047
0.142100	-0.895410
0.142200	-0.881128
0.142300	-0.887295
0.142400	-0.901252
0.142500	-0.906445
0.142600	-0.887620
0.142700	-0.862302
0.142800	-0.850942
0.142900	-0.843152
0.143000	-0.830493
0.143100	-0.837959
0.143200	-0.856135
0.143300	-0.876584
0.143400	-0.910016
0.143500	-0.929491
0.143600	-0.910990
0.143700	-0.889243
0.143800	-0.888918
0.143900	-0.964870
0.144000	-1.051209
0.144100	-1.040822
0.144200	-0.981749
0.144300	-0.875610
0.144400	-0.863601
0.144500	-0.935982
0.144600	-1.040173
0.144700	-1.077825
0.144800	-1.032383
0.144900	-0.948641
0.145000	-0.921376
0.145100	-0.971362
0.145200	-1.058674
0.145300	-1.100546
0.145400	-1.113853
0.145500	-1.095677
0.145600	-1.102168
0.145700	-1.137223
0.145800	-1.180393
0.145900	-1.227457
0.146000	-1.248555
0.146100	-1.274197
0.146200	-1.308278
0.146300	-1.323209
0.146400	-1.315094
0.146500	-1.306980
0.146600	-1.311849
0.146700	-1.371247
0.146800	-1.443954
0.146900	-1.468297
0.147000	-1.470569
0.147100	-1.455314
0.147200	-1.481930
0.147300	-1.508546
0.147400	-1.519906
0.147500	-1.522503
0.147600	-1.526073
0.147700	-1.529319
0.147800	-1.527047
0.147900	-1.524775
0.148000	-1.520880
0.148100	-1.518932
0.148200	-1.522827
0.148300	-1.527371
0.148400	-1.539705
0.148500	-1.543925
0.148600	-1.565672
0.148700	-1.581252
0.148800	-1.610464
0.148900	-1.637080
0.149000	-1.726016
0.149100	-1.885386
0.149200	-2.011649
0.149300	-2.013596
0.149400	-1.913300
0.149500	-1.849682
0.149600	-1.899668
0.149700	-2.060336
0.149800	-2.195687
0.149900	-2.238208
0.150000	-2.183353
0.150100	-2.114866
0.150200	-2.117787
0.150300	-2.196661
0.150400	-2.290790
0.150500	-2.342724
0.150600	-2.334934
0.150700	-2.311888
0.150800	-2.305396
0.150900	-2.316432
0.151000	-2.342724
0.151100	-2.354409
0.151200	-2.347592
0.151300	-2.346294
0.151400	-2.351163
0.151500	-2.370638
0.151600	-2.366743
0.151700	-2.356031
0.151800	-2.347592
0.151900	-2.352786
0.152000	-2.375506
0.152100	-2.357654
0.152200	-2.280079
0.152300	-2.192442
0.152400	-2.180107
0.152500	-2.245673
0.152600	-2.345645
0.152700	-2.380700
0.152800	-2.315134
0.152900	-2.201530
0.153000	-2.138561
0.153100	-2.172642
0.153200	-2.281377
0.153300	-2.364471
0.153400	-2.367716
0.153500	-2.311564
0.153600	-2.258656
0.153700	-2.238532
0.153800	-2.247296
0.153900	-2.267096
0.154000	-2.269692
0.154100	-2.249244
0.154200	-2.214189
0.154300	-2.174265
0.154400	-2.121033
0.154500	-2.044756
0.154600	-1.978866
0.154700	-1.933100
0.154800	-1.898694
0.154900	-1.863639
0.155000	-1.789309
0.155100	-1.689338
0.155200	-1.606894
0.155300	-1.495238
0.155400	-1.431619
0.155500	-1.373844
0.155600	-1.308927
0.155700	-1.246608
0.155800	-1.175199
0.155900	-1.094054
0.156000	-1.034655
0.156100	-0.989214
0.156200	-0.976555
0.156300	-0.948966
0.156400	-0.951887
0.156500	-0.942799
0.156600	-0.940851
0.156700	-0.913586
0.156800	-0.915209
0.156900	-0.896059
0.157000	-0.890866
0.157100	-0.905796
0.157200	-0.892813
0.157300	-0.866197
0.157400	-0.732794
0.157500	-0.612699
0.157600	-0.558494
0.157700	-0.679887
0.157800	-0.783104
0.157900	-0.774341
0.158000	-0.643534
0.158100	-0.515324
0.158200	-0.451057
0.158300	-0.488709
0.158400	-0.551028
0.158500	-0.570179
0.158600	-0.519868
0.158700	-0.437100
0.158800	-0.360823
0.158900	-0.338752
0.159000	-0.347191
0.159100	-0.363745
0.159200	-0.367315
0.159300	-0.347515
0.159400	-0.338752
0.159500	-0.331286
0.159600	-0.324795
0.159700	-0.328365
0.159800	-0.338752
0.159900	-0.394255
0.160000	-0.432231
0.160100	-0.472479
0.160200	-0.493902
0.160300	-0.500069
0.160400	-0.505587
0.160500	-0.562713
0.160600	-0.669176
0.160700	-0.748049
0.160800	-0.751620
0.160900	-0.698064
0.161000	-0.647429
0.161100	-0.690598
0.161200	-0.787648
0.161300	-0.879181
0.161400	-0.904498
0.161500	-0.862951
0.161600	-0.811992
0.161700	-0.821730
0.161800	-0.885348
0.161900	-0.948966
0.162000	-0.973959
0.162100	-0.987916
0.162200	-0.989538
0.162300	-1.008364
0.162400	-1.033032
0.162500	-1.066140
0.162600	-1.093405
0.162700	-1.118073
0.162800	-1.149233
0.162900	-1.159620
0.163000	-1.148584
0.163100	-1.131056
0.163200	-1.124565
0.163300	-1.136899
0.163400	-1.198894
0.163500	-1.245958
0.163600	-1.261214
0.163700	-1.232975
0.163800	-1.215772
0.163900	-1.227782
0.164000	-1.231677
0.164100	-1.238493
0.164200	-1.237519
0.164300	-1.246932
0.164400	-1.254073
0.164500	-1.259591
0.164600	-1.267705
0.164700	-1.278092
0.164800	-1.284584
0.164900	-1.301787
0.165000	-1.306980
0.165100	-1.324507
0.165200	-1.327429
0.165300	-1.348851
0.165400	-1.365080
0.165500	-1.390722
0.165600	-1.424479
0.165700	-1.527047
0.165800	-1.690961
0.165900	-1.781520
0.166000	-1.761071
0.166100	-1.667266
0.166200	-1.637080
0.166300	-1.734130
0.166400	-1.897071
0.166500	-2.028202
0.166600	-2.048002
0.166700	-2.005806
0.166800	-1.984384
0.166900	-2.047353
0.167000	-2.157062
0.167100	-2.258007
0.167200	-2.309291
0.167300	-2.325196
0.167400	-2.336556
0.167500	-2.363172
0.167600	-2.403096
0.167700	-2.439774
0.167800	-2.465091
0.167900	-2.491707
0.168000	-2.523192
0.168100	-2.564414
0.168200	-2.599145
0.168300	-2.611479
0.168400	-2.605312
0.168500	-2.612128
0.168600	-2.637445
0.168700	-2.650429
0.168800	-2.625436
0.168900	-2.533254
0.169000	-2.468013
0.169100	-2.483268
0.169200	-2.558247
0.169300	-2.632252
0.169400	-2.628032
0.169500	-2.548185
0.169600	-2.462495
0.169700	-2.460223
0.169800	-2.536500
0.169900	-2.630954
0.170000	-2.666982
0.170100	-2.641340
0.170200	-2.589082
0.170300	-2.556949
0.170400	-2.551431
0.170500	-2.545588
0.170600	-2.532605
0.170700	-2.516376
0.170800	-2.497225
0.170900	-2.473531
0.171000	-2.433607
0.171100	-2.362523
0.171200	-2.284623
0.171300	-2.213864
0.171400	-2.178484
0.171500	-2.146351
0.171600	-2.105453
0.171700	-2.023658
0.171800	-1.927906
0.171900	-1.840918
0.172000	-1.722770
0.172100	-1.646818
0.172200	-1.564698
0.172300	-1.478684
0.172400	-1.386827
0.172500	-1.274846
0.172600	-1.170980
0.172700	-1.080421
0.172800	-1.012259
0.172900	-0.955457
0.173000	-0.902550
0.173100	-0.865548
0.173200	-0.827247
0.173300	-0.789596
0.173400	-0.758761
0.173500	-0.717214
0.173600	-0.706828
0.173700	-0.696116
0.173800	-0.700985
0.173900	-0.688002
0.174000	-0.626007
0.174100	-0.482541
0.174200	-0.377377
0.174300	-0.383219
0.174400	-0.524737
0.174500	-0.615295
0.174600	-0.575696
0.174700	-0.450408
0.174800	-0.350437
0.174900	-0.342647
0.175000	-0.416327
0.175100	-0.507210
0.175200	-0.517272
0.175300	-0.461444
0.175400	-0.378351
0.175500	-0.345568
0.175600	-0.350761
0.175700	-0.369262
0.175800	-0.370236
0.175900	-0.357253
0.176000	-0.337453
0.176100	-0.315706
0.176200	-0.315057
0.176300	-0.305320
0.176400	-0.292337
0.176500	-0.296232
0.176600	-0.325768
0.176700	-0.359850
0.176800	-0.400422
0.176900	-0.403344
0.177000	-0.387439
0.177100	-0.362122
0.177200	-0.416327
0.177300	-0.529281
0.177400	-0.567906
0.177500	-0.541940
0.177600	-0.089798
0.177700	0.280225
0.177800	-0.046953
0.177900	-0.619190
0.178000	-0.684756
0.178100	-0.674694
0.178200	-0.144327
0.178300	0.350335
0.178400	0.215958
0.178500	-0.187821
0.178600	-0.418923
0.178700	-0.417301
0.178800	-0.255010
0.178900	-0.229368
0.179000	-0.367640
0.179100	-0.580241
0.179200	-0.794789
0.179300	-0.841529
0.179400	-0.887295
0.179500	-1.000574
0.179600	-1.049586
0.179700	-0.994407
0.179800	-0.818808
0.179900	-0.675992
0.180000	-0.760384
0.180100	-1.046665
0.180200	-1.103467
0.180300	-1.028813
0.180400	-0.672422
0.180500	-0.576995
0.180600	-0.547458
0.180700	-0.494551
0.180800	-0.396527
0.180900	-0.226771
0.181000	-0.111220
0.181100	0.030947
0.181200	0.123128
0.181300	0.164999
0.181400	0.219204
0.181500	0.214660
0.181600	0.228292
0.181700	0.203624
0.181800	0.158832
0.181900	0.116961
0.182000	0.011472
0.182100	-0.172241
0.182200	-0.367640
0.182300	-0.830493
0.182400	-1.212202
0.182500	-1.375467
0.182600	-1.421882
0.182700	-1.361510
0.182800	-1.276145
0.182900	-1.286207
0.183000	-1.417013
0.183100	-1.578655
0.183200	-1.669863
0.183300	-1.655906
0.183400	-1.598455
0.183500	-1.577032
0.183600	-1.640001
0.183700	-1.743543
0.183800	-1.827935
0.183900	-1.860069
0.184000	-1.857796
0.184100	-1.851954
0.184200	-1.863639
0.184300	-1.885061
0.184400	-1.910379
0.184500	-1.913949
0.184600	-1.909730
0.184700	-1.911353
0.184800	-1.931152
0.184900	-1.930503
0.185000	-1.920441
0.185100	-1.906484
0.185200	-1.904536
0.185300	-1.912002
0.185400	-1.910703
0.185500	-1.860069
0.185600	-1.763667
0.185700	-1.723744
0.185800	-1.748737
0.185900	-1.825014
0.186000	-1.880193
0.186100	-1.842866
0.186200	-1.738999
0.186300	-1.649090
0.186400	-1.646818
0.186500	-1.717252
0.186600	-1.798398
0.186700	-1.797099
0.186800	-1.729586
0.186900	-1.652011
0.187000	-1.597157
0.187100	-1.579954
0.187200	-1.583200
0.187300	-1.564698
0.187400	-1.538083
0.187500	-1.486149
0.187600	-1.434216
0.187700	-1.372546
0.187800	-1.290426
0.187900	-1.208307
0.188000	-1.140145
0.188100	-1.089510
0.188200	-1.049262
0.188300	-0.997328
0.188400	-0.904173
0.188500	-0.824651
0.188600	-0.752269
0.188700	-0.679238
0.188800	-0.620164
0.188900	-0.566284
0.189000	-0.514026
0.189100	-0.454627
0.189200	-0.383219
0.189300	-0.340050
0.189400	-0.306294
0.189500	-0.295582
0.189600	-0.292012
0.189700	-0.298179
0.189800	-0.313434
0.189900	-0.322198
0.190000	-0.333234
0.190100	-0.334857
0.190200	-0.347840
0.190300	-0.367640
0.190400	-0.391009
0.190500	-0.410484
0.190600	-0.402045
0.190700	-0.347515
0.190800	-0.205024
0.190900	-0.163802
0.191000	-0.232614
0.191100	-0.399449
0.191200	-0.451706
0.191300	-0.408537
0.191400	-0.285845
0.191500	-0.222551
0.191600	-0.257282
0.191700	-0.353683
0.191800	-0.431907
0.191900	-0.427687
0.192000	-0.378675
0.192100	-0.323172
0.192200	-0.327391
0.192300	-0.349788
0.192400	-0.391009
0.192500	-0.416327
0.192600	-0.446188
0.192700	-0.468584
0.192800	-0.494551
0.192900	-0.527009
0.193000	-0.561415
0.193100	-0.602961
0.193200	-0.658465
0.193300	-0.728575
0.193400	-0.785052
0.193500	-0.838932
0.193600	-0.861329
0.193700	-0.881128
0.193800	-0.914885
0.193900	-1.025243
0.194000	-1.141768
0.194100	-1.178121
0.194200	-1.164164
0.194300	-1.108336
0.194400	-1.134302
0.194500	-1.225510
0.194600	-1.352746
0.194700	-1.413118
0.194800	-1.401433
0.194900	-1.349825
0.195000	-1.343009
0.195100	-1.400460
0.195200	-1.466350
0.195300	-1.491992
0.195400	-1.502054
0.195500	-1.492641
0.195600	-1.501405
0.195700	-1.508221
0.195800	-1.524125
0.195900	-1.530942
0.196000	-1.522827
0.196100	-1.526722
0.196200	-1.524775
0.196300	-1.507896
0.196400	-1.478035
0.196500	-1.443304
0.196600	-1.417013
0.196700	-1.442331
0.196800	-1.476087
0.196900	-1.474789
0.197000	-1.441682
0.197100	-1.393319
0.197200	-1.374818
0.197300	-1.352746
0.197400	-1.327429
0.197500	-1.299514
0.197600	-1.282312
0.197700	-1.251801
0.197800	-1.224861
0.197900	-1.208956
0.198000	-1.183639
0.198100	-1.163515
0.198200	-1.118722
0.198300	-1.046665
0.198400	-1.010312
0.198500	-1.004469
0.198600	-0.989538
0.198700	-1.045691
0.198800	-1.111581
0.198900	-1.191104
0.199000	-1.219992
0.199100	-1.344307
0.199200	-1.457586
0.199300	-1.445252
0.199400	-1.355018
0.199500	-1.266732
0.199600	-1.292049
0.199700	-1.424154
0.199800	-1.551066
0.199900	-1.593911
0.200000	-1.548145
0.200100	-1.502054
0.200200	-1.504001
0.200300	-1.579305
0.200400	-1.671161
0.200500	-1.720823
0.200600	-1.743543
0.200700	-1.735104
0.200800	-1.744517
0.200900	-1.770159
0.201000	-1.803916
0.201100	-1.838971
0.201200	-1.859744
0.201300	-1.883114
0.201400	-1.910703
0.201500	-1.945109
0.201600	-1.968155
0.201700	-1.981138
0.201800	-1.984384
0.201900	-2.019763
0.202000	-2.049625
0.202100	-2.071047
0.202200	-2.019763
0.202300	-1.960365
0.202400	-1.964260
0.202500	-2.031448
0.202600	-2.129797
0.202700	-2.177511
0.202800	-2.130122
0.202900	-2.052222
0.203000	-2.015868
0.203100	-2.072670
0.203200	-2.184002
0.203300	-2.271640
0.203400	-2.271640
0.203500	-2.233988
0.203600	-2.203477
0.203700	-2.210943
0.203800	-2.236260
0.203900	-2.262227
0.204000	-2.275535
0.204100	-2.276833
0.204200	-2.268394
0.204300	-2.261902
0.204400	-2.239831
0.204500	-2.197310
0.204600	-2.152842
0.204700	-2.116489
0.204800	-2.095067
0.204900	-2.068451
0.205000	-2.004833
0.205100	-1.906484
0.205200	-1.783792
0.205300	-1.680574
0.205400	-1.603648
0.205500	-1.533214
0.205600	-1.460507
0.205700	-1.369949
0.205800	-1.283935
0.205900	-1.190455
0.206000	-1.100221
0.206100	-1.036278
0.206200	-0.997004
0.206300	-0.954808
0.206400	-0.919429
0.206500	-0.888918
0.206600	-0.850942
0.206700	-0.814589
0.206800	-0.782455
0.206900	-0.758111
0.207000	-0.746751
0.207100	-0.738312
0.207200	-0.724355
0.207300	-0.685730
0.207400	-0.562064
0.207500	-0.415353
0.207600	-0.361148
0.207700	-0.468260
0.207800	-0.564012
0.207900	-0.584136
0.208000	-0.457549
0.208100	-0.338752
0.208200	-0.278704
0.208300	-0.309215
0.208400	-0.387114
0.208500	-0.423143
0.208600	-0.397176
0.208700	-0.320251
0.208800	-0.272537
0.208900	-0.260852
0.209000	-0.278704
0.209100	-0.297854
0.209200	-0.308890
0.209300	-0.305320
0.209400	-0.304021
0.209500	-0.295907
0.209600	-0.303372
0.209700	-0.303697
0.209800	-0.331286
0.209900	-0.365692
0.210000	-0.409511
0.210100	-0.447811
0.210200	-0.479945
0.210300	-0.477348
0.210400	-0.482217
0.210500	-0.513052
0.210600	-0.620489
0.210700	-0.710723
0.210800	-0.728575
0.210900	-0.677940
0.211000	-0.628279
0.211100	-0.661386
0.211200	-0.771744
0.211300	-0.883076
0.211400	-0.923973
0.211500	-0.893787
0.211600	-0.835037
0.211700	-0.846073
0.211800	-0.914885
0.211900	-0.994407
0.212000	-1.044717
0.212100	-1.070359
0.212200	-1.075553
0.212300	-1.114178
0.212400	-1.169032
0.212500	-1.226808
0.212600	-1.272250
0.212700	-1.307954
0.212800	-1.343982
0.212900	-1.380011
0.213000	-1.391047
0.213100	-1.390722
0.213200	-1.386827
0.213300	-1.398837
0.213400	-1.457262
0.213500	-1.502378
0.213600	-1.514713
0.213700	-1.510493
0.213800	-1.477710
0.213900	-1.473815
0.214000	-1.460507
0.214100	-1.443954
0.214200	-1.410197
0.214300	-1.388775
0.214400	-1.362808
0.214500	-1.341710
0.214600	-1.313796
0.214700	-1.295619
0.214800	-1.275171
0.214900	-1.263161
0.215000	-1.253748
0.215100	-1.248880
0.215200	-1.243037
0.215300	-1.233624
0.215400	-1.246932
0.215500	-1.253099
0.215600	-1.268355
0.215700	-1.355667
0.215800	-1.492641
0.215900	-1.583200
0.216000	-1.531915
0.216100	-1.432269
0.216200	-1.370598
0.216300	-1.438111
0.216400	-1.572813
0.216500	-1.686741
0.216600	-1.686741
0.216700	-1.617281
0.216800	-1.561452
0.216900	-1.579305
0.217000	-1.657529
0.217100	-1.735429
0.217200	-1.771782
0.217300	-1.766913
0.217400	-1.766589
0.217500	-1.763343
0.217600	-1.785415
0.217700	-1.810083
0.217800	-1.818197
0.217900	-1.816250
0.218000	-1.822092
0.218100	-1.842216
0.218200	-1.847734
0.218300	-1.847734
0.218400	-1.852603
0.218500	-1.865262
0.218600	-1.882465
0.218700	-1.899668
0.218800	-1.883439
0.218900	-1.809109
0.219000	-1.763667
0.219100	-1.794503
0.219200	-1.884737
0.219300	-1.989253
0.219400	-2.014245
0.219500	-1.959391
0.219600	-1.874350
0.219700	-1.854226
0.219800	-1.931477
0.219900	-2.049300
0.220000	-2.119735
0.220100	-2.118437
0.220200	-2.069100
0.220300	-2.042160
0.220400	-2.043782
0.220500	-2.069100
0.220600	-2.096365
0.220700	-2.103830
0.220800	-2.099935
0.220900	-2.078837
0.221000	-2.046379
0.221100	-2.003534
0.221200	-1.945758
0.221300	-1.887009
0.221400	-1.837997
0.221500	-1.793529
0.221600	-1.747114
0.221700	-1.673109
0.221800	-1.578331
0.221900	-1.517634
0.222000	-1.415715
0.222100	-1.343009
0.222200	-1.272899
0.222300	-1.200517
0.222400	-1.120670
0.222500	-1.025567
0.222600	-0.933710
0.222700	-0.851591
0.222800	-0.790570
0.222900	-0.746751
0.223000	-0.708775
0.223100	-0.690274
0.223200	-0.673720
0.223300	-0.640937
0.223400	-0.622436
0.223500	-0.583811
0.223600	-0.578618
0.223700	-0.563687
0.223800	-0.578618
0.223900	-0.559792
0.224000	-0.511754
0.224100	-0.369262
0.224200	-0.250141
0.224300	-0.237482
0.224400	-0.369262
0.224500	-0.450732
0.224600	-0.421196
0.224700	-0.288117
0.224800	-0.172241
0.224900	-0.140432
0.225000	-0.181330
0.225100	-0.249492
0.225200	-0.249492
0.225300	-0.191716
0.225400	-0.104404
0.225500	-0.055716
0.225600	-0.040137
0.225700	-0.040786
0.225800	-0.042733
0.225900	-0.038838
0.226000	-0.032022
0.226100	-0.010275
0.226200	0.066326
0.226300	0.225047
0.226400	0.403891
0.226500	0.367863
0.226600	0.307815
0.226700	0.150393
0.226800	0.094565
0.226900	0.175710
0.227000	0.374030
0.227100	0.460044
0.227200	0.105276
0.227300	-0.425090
0.227400	-0.495200
0.227500	-0.499744
0.227600	0.018613
0.227700	0.308140
0.227800	-0.033320
0.227900	-0.630551
0.228000	-0.718512
0.228100	-0.724355
0.228200	-0.482541
0.228300	0.001410
0.228400	-0.077788
0.228500	-0.541615
0.228600	-0.841854
0.228700	-0.851916
0.228800	-0.773367
0.228900	-0.756489
0.229000	-0.876259
0.229100	-0.993758
0.229200	-1.042770
0.229300	-1.066789
0.229400	-1.091133
0.229500	-1.129109
0.229600	-1.148908
0.229700	-1.155725
0.229800	-1.124240
0.229900	-0.978827
0.230000	-1.199219
0.230100	-1.165137
0.230200	-1.202789
0.230300	-1.219667
0.230400	-1.220641
0.230500	-1.220316
0.230600	-1.222588
0.230700	-1.213500
0.230800	-1.202140
0.230900	-1.196297
0.231000	-1.183963
0.231100	-1.167085
0.231200	-1.139495
0.231300	-1.093405
0.231400	-0.992460
0.231500	-0.948966
0.231600	-0.866846
0.231700	-0.827247
0.231800	-0.780183
0.231900	-0.818484
0.232000	-0.813615
0.232100	-0.866846
0.232200	-1.001548
0.232300	-1.175524
0.232400	-1.274522
0.232500	-1.409872
0.232600	-1.460183
0.232700	-1.385529
0.232800	-1.276794
0.232900	-1.247906
0.233000	-1.347228
0.233100	-1.499133
0.233200	-1.576383
0.233300	-1.554636
0.233400	-1.475763
0.233500	-1.424479
0.233600	-1.466999
0.233700	-1.535486
0.233800	-1.589691
0.233900	-1.598455
0.234000	-1.571190
0.234100	-1.551715
0.234200	-1.546197
0.234300	-1.549768
0.234400	-1.560154
0.234500	-1.556259
0.234600	-1.539381
0.234700	-1.553338
0.234800	-1.576059
0.234900	-1.588717
0.235000	-1.589042
0.235100	-1.575734
0.235200	-1.580278
0.235300	-1.603324
0.235400	-1.622799
0.235500	-1.590340
0.235600	-1.511467
0.235700	-1.475763
0.235800	-1.525099
0.235900	-1.641624
0.236000	-1.745166
0.236100	-1.751009
0.236200	-1.682846
0.236300	-1.622474
0.236400	-1.651686
0.236500	-1.762045
0.236600	-1.890904
0.236700	-1.954847
0.236800	-1.942188
0.236900	-1.908431
0.237000	-1.907133
0.237100	-1.936670
0.237200	-1.982436
0.237300	-2.005482
0.237400	-2.019439
0.237500	-2.014570
0.237600	-2.003210
0.237700	-1.984059
0.237800	-1.929854
0.237900	-1.860718
0.238000	-1.800345
0.238100	-1.763343
0.238200	-1.730885
0.238300	-1.687066
0.238400	-1.599753
0.238500	-1.511791
0.238600	-1.407925
0.238700	-1.320288
0.238800	-1.247257
0.238900	-1.190455
0.239000	-1.130732
0.239100	-1.065815
0.239200	-0.974932
0.239300	-0.901901
0.239400	-0.849968
0.239500	-0.811668
0.239600	-0.793166
0.239700	-0.767200
0.239800	-0.756164
0.239900	-0.743830
0.240000	-0.716565
0.240100	-0.707152
0.240200	-0.682159
0.240300	-0.686703
0.240400	-0.685405
0.240500	-0.686703
0.240600	-0.676641
0.240700	-0.587706
0.240800	-0.446513
0.240900	-0.352060
0.241000	-0.399124
0.241100	-0.541615
0.241200	-0.584785
0.241300	-0.535448
0.241400	-0.396203
0.241500	-0.311811
0.241600	-0.292661
0.241700	-0.369587
0.241800	-0.421845
0.241900	-0.409186
0.242000	-0.346217
0.242100	-0.264098
0.242200	-0.246895
0.242300	-0.235535
0.242400	-0.265396
0.242500	-0.265396
0.242600	-0.265072
0.242700	-0.258905
0.242800	-0.254036
0.242900	-0.251439
0.243000	-0.248193
0.243100	-0.257282
0.243200	-0.268967
0.243300	-0.300127
0.243400	-0.325444
0.243500	-0.338752
0.243600	-0.320900
0.243700	-0.083955
0.243800	0.098135
0.243900	-0.266045
0.244000	-0.462417
0.244100	-0.482541
0.244200	-0.313759
0.244300	0.426287
0.244400	0.583709
0.244500	0.197457
0.244600	-0.488059
0.244700	-0.656842
0.244800	-0.562064
0.244900	0.062431
0.245000	0.428884
0.245100	0.199405
0.245200	-0.201129
0.245300	-0.385816
0.245400	-0.375105
0.245500	-0.172890
0.245600	-0.097912
0.245700	-0.129397
0.245800	-0.256957
0.245900	-0.331611
0.246000	-0.268967
0.246100	-0.242676
0.246200	-0.252088
0.246300	-0.161206
0.246400	0.016990
0.246500	0.226994
0.246600	0.351309
0.246700	0.175061
0.246800	-0.098237
0.246900	-0.186523
0.247000	-0.075191
0.247100	0.189343
0.247200	0.219853
0.247300	0.199080
0.247400	0.192588
0.247500	0.238679
0.247600	0.292235
0.247700	0.352283
0.247800	0.361695
0.247900	0.436674
0.248000	0.455500
0.248100	0.471729
0.248200	0.489256
0.248300	0.545409
0.248400	0.527232
0.248500	0.518144
0.248600	0.461342
0.248700	0.397399
0.248800	0.252311
0.248900	0.126049
0.249000	-0.299153
0.249100	-1.133328
0.249200	-1.254722
0.249300	-1.280689
0.249400	-1.192402
0.249500	-1.103467
0.249600	-1.121968
0.249700	-1.254073
0.249800	-1.403381
0.249900	-1.474140
0.250000	-1.440383
0.250100	-1.379037
0.250200	-1.379362
0.250300	-1.439085
0.250400	-1.525748
0.250500	-1.599753
0.250600	-1.628641
0.250700	-1.647142
0.250800	-1.654608
0.250900	-1.688364
0.251000	-1.735753
0.251100	-1.778598
0.251200	-1.824689
0.251300	-1.860718
0.251400	-1.910703
0.251500	-1.964909
0.251600	-2.009052
0.251700	-2.027229
0.251800	-2.043782
0.251900	-2.080136
0.252000	-2.127849
0.252100	-2.154790
0.252200	-2.115191
0.252300	-2.041510
0.252400	-2.036966
0.252500	-2.097339
0.252600	-2.206399
0.252700	-2.275535
0.252800	-2.237883
0.252900	-2.144728
0.253000	-2.092794
0.253100	-2.118437
0.253200	-2.210943
0.253300	-2.293062
0.253400	-2.297931
0.253500	-2.257683
0.253600	-2.208022
0.253700	-2.190494
0.253800	-2.194389
0.253900	-2.204451
0.254000	-2.204127
0.254100	-2.191143
0.254200	-2.166475
0.254300	-2.134017
0.254400	-2.094093
0.254500	-2.026904
0.254600	-1.962637
0.254700	-1.919792
0.254800	-1.887658
0.254900	-1.869481
0.255000	-1.819496
0.255100	-1.733481
0.255200	-1.665643
0.255300	-1.578331
0.255400	-1.520231
0.255500	-1.467324
0.255600	-1.408574
0.255700	-1.351448
0.255800	-1.277443
0.255900	-1.194999
0.256000	-1.129109
0.256100	-1.077500
0.256200	-1.035629
0.256300	-1.002522
0.256400	-0.971686
0.256500	-0.949290
0.256600	-0.909042
0.256700	-0.870741
0.256800	-0.836660
0.256900	-0.805176
0.257000	-0.788298
0.257100	-0.781481
0.257200	-0.759410
0.257300	-0.722083
0.257400	-0.586408
0.257500	-0.436775
0.257600	-0.357253
0.257700	-0.437749
0.257800	-0.539668
0.257900	-0.545835
0.258000	-0.434828
0.258100	-0.300776
0.258200	-0.226122
0.258300	-0.249816
0.258400	-0.323496
0.258500	-0.354332
0.258600	-0.319601
0.258700	-0.241377
0.258800	-0.179058
0.258900	-0.156661
0.259000	-0.160881
0.259100	-0.165750
0.259200	-0.157960
0.259300	-0.146599
0.259400	-0.137511
0.259500	-0.131344
0.259600	-0.128747
0.259700	-0.075841
0.259800	0.048150
0.259900	0.036465
0.260000	0.004331
0.260100	-0.022609
0.260200	0.032570
0.260300	0.369161
0.260400	0.656416
0.260500	0.632072
0.260600	0.038737
0.260700	-0.306294
0.260800	-0.195611
0.260900	0.411032
0.261000	0.988462
0.261100	0.936205
0.261200	0.334106
0.261300	-0.314408
0.261400	-0.438074
0.261500	-0.027478
0.261600	0.468158
0.261700	0.553523
0.261800	0.197457
0.261900	-0.155038
0.262000	-0.241053
0.262100	-0.235535
0.262200	-0.200155
0.262300	-0.315057
0.262400	-0.523439
0.262500	-0.773367
0.262600	-0.970388
0.262700	-1.035305
0.262800	-1.050235
0.262900	-1.076526
0.263000	-1.090159
0.263100	-1.076202
0.263200	-0.949290
0.263300	-0.891839
0.263400	-1.128784
0.263500	-1.164813
0.263600	-1.181367
0.263700	-1.145987
0.263800	-1.071982
0.263900	-1.089185
0.264000	-1.041147
0.264100	-0.960326
0.264200	-0.848021
0.264300	-0.766551
0.264400	-0.630875
0.264500	-0.546160
0.264600	-0.446188
0.264700	-0.359200
0.264800	-0.256957
0.264900	-0.168671
0.265000	-0.068051
0.265100	0.025429
0.265200	0.057563
0.265300	0.106899
0.265400	0.045553
0.265500	-0.014170
0.265600	-0.215735
0.265700	-0.795763
0.265800	-1.208631
0.265900	-1.301462
0.266000	-1.269328
0.266100	-1.174550
0.266200	-1.108985
0.266300	-1.184937
0.266400	-1.338140
0.266500	-1.459209
0.266600	-1.491667
0.266700	-1.433242
0.266800	-1.388775
0.266900	-1.411820
0.267000	-1.503352
0.267100	-1.598455
0.267200	-1.648765
0.267300	-1.652336
0.267400	-1.640326
0.267500	-1.646818
0.267600	-1.667916
0.267700	-1.693233
0.267800	-1.706216
0.267900	-1.708813
0.268000	-1.710436
0.268100	-1.746465
0.268200	-1.771457
0.268300	-1.779897
0.268400	-1.775677
0.268500	-1.774054
0.268600	-1.790608
0.268700	-1.807811
0.268800	-1.803267
0.268900	-1.735429
0.269000	-1.678951
0.269100	-1.702646
0.269200	-1.788011
0.269300	-1.904861
0.269400	-1.943811
0.269500	-1.886035
0.269600	-1.813653
0.269700	-1.799696
0.269800	-1.876298
0.269900	-2.001587
0.270000	-2.088575
0.270100	-2.084680
0.270200	-2.047028
0.270300	-2.036966
0.270400	-2.063257
0.270500	-2.111945
0.270600	-2.147324
0.270700	-2.166150
0.270800	-2.169072
0.270900	-2.166799
0.271000	-2.152193
0.271100	-2.109673
0.271200	-2.043133
0.271300	-1.986331
0.271400	-1.950303
0.271500	-1.933749
0.271600	-1.906484
0.271700	-1.838321
0.271800	-1.748412
0.271900	-1.677328
0.272000	-1.585147
0.272100	-1.529319
0.272200	-1.477710
0.272300	-1.411495
0.272400	-1.331973
0.272500	-1.253424
0.272600	-1.164488
0.272700	-1.099572
0.272800	-1.046016
0.272900	-1.002846
0.273000	-0.957405
0.273100	-0.922025
0.273200	-0.883076
0.273300	-0.848345
0.273400	-0.810369
0.273500	-0.769147
0.273600	-0.748374
0.273700	-0.721758
0.273800	-0.727601
0.273900	-0.693195
0.274000	-0.646455
0.274100	-0.486436
0.274200	-0.362446
0.274300	-0.331936
0.274400	-0.447811
0.274500	-0.546809
0.274600	-0.515649
0.274700	-0.386465
0.274800	-0.266370
0.274900	-0.219306
0.275000	-0.276107
0.275100	-0.349463
0.275200	-0.375429
0.275300	-0.308890
0.275400	-0.233263
0.275500	-0.178408
0.275600	-0.171917
0.275700	-0.192365
0.275800	-0.198208
0.275900	-0.204050
0.276000	-0.188146
0.276100	-0.185549
0.276200	-0.182628
0.276300	-0.189120
0.276400	-0.188470
0.276500	-0.211516
0.276600	-0.265072
0.276700	-0.305969
0.276800	-0.359200
0.276900	-0.378351
0.277000	-0.379000
0.277100	-0.380947
0.277200	-0.443267
0.277300	-0.570179
0.277400	-0.633147
0.277500	-0.633147
0.277600	-0.560117
0.277700	-0.312461
0.277800	-0.556546
0.277900	-0.725978
0.278000	-0.841854
0.278100	-0.875286
0.278200	-0.826274
0.278300	-0.785376
0.278400	-0.833415
0.278500	-0.933061
0.278600	-1.020698
0.278700	-1.065491
0.278800	-1.079448
0.278900	-1.087887
0.279000	-1.125863
0.279100	-1.178770
0.279200	-1.229405
0.279300	-1.262188
0.279400	-1.284908
0.279500	-1.300164
0.279600	-1.305682
0.279700	-1.298541
0.279800	-1.279066
0.279900	-1.256345
0.280000	-1.262188
0.280100	-1.306655
0.280200	-1.338789
0.280300	-1.324507
0.280400	-1.269328
0.280500	-1.253099
0.280600	-1.248880
0.280700	-1.239791
0.280800	-1.214474
0.280900	-1.192402
0.281000	-1.142092
0.281100	-1.004469
0.281200	-0.808097
0.281300	-0.580241
0.281400	-0.390360
0.281500	-0.193664
0.281600	0.092617
0.281700	0.278603
0.281800	0.498020
0.281900	0.755413
0.282000	0.941723
0.282100	1.100119
0.282200	1.213073
0.282300	1.118944
0.282400	0.478220
0.282500	-0.573749
0.282600	-0.934684
0.282700	-0.538370
0.282800	0.214985
0.282900	0.254584
0.283000	-0.533825
0.283100	-1.074904
0.283200	-1.170006
0.283300	-1.162865
0.283400	-1.101844
0.283500	-1.065491
0.283600	-1.118073
0.283700	-1.214474
0.283800	-1.308927
0.283900	-1.349176
0.284000	-1.356316
0.284100	-1.366703
0.284200	-1.392345
0.284300	-1.422856
0.284400	-1.458560
0.284500	-1.485500
0.284600	-1.510818
0.284700	-1.543600
0.284800	-1.596832
0.284900	-1.633834
0.285000	-1.662398
0.285100	-1.673433
0.285200	-1.695505
0.285300	-1.731209
0.285400	-1.772107
0.285500	-1.762694
0.285600	-1.695181
0.285700	-1.667591
0.285800	-1.717577
0.285900	-1.825338
0.286000	-1.936346
0.286100	-1.950952
0.286200	-1.889930
0.286300	-1.826961
0.286400	-1.842541
0.286500	-1.947706
0.286600	-2.070398
0.286700	-2.134666
0.286800	-2.117138
0.286900	-2.069425
0.287000	-2.050274
0.287100	-2.061959
0.287200	-2.087277
0.287300	-2.101883
0.287400	-2.097339
0.287500	-2.077539
0.287600	-2.040861
0.287700	-1.996393
0.287800	-1.923038
0.287900	-1.838646
0.288000	-1.773080
0.288100	-1.726665
0.288200	-1.689663
0.288300	-1.638379
0.288400	-1.545223
0.288500	-1.444278
0.288600	-1.343982
0.288700	-1.252775
0.288800	-1.181367
0.288900	-1.116126
0.289000	-1.046340
0.289100	-0.969090
0.289200	-0.884698
0.289300	-0.811018
0.289400	-0.747400
0.289500	-0.715591
0.289600	-0.683458
0.289700	-0.663009
0.289800	-0.641587
0.289900	-0.632823
0.290000	-0.605558
0.290100	-0.585434
0.290200	-0.575047
0.290300	-0.572775
0.290400	-0.585434
0.290500	-0.599391
0.290600	-0.597443
0.290700	-0.528957
0.290800	-0.405940
0.290900	-0.316031
0.291000	-0.372184
0.291100	-0.525386
0.291200	-0.618217
0.291300	-0.586408
0.291400	-0.478646
0.291500	-0.402045
0.291600	-0.419573
0.291700	-0.525062
0.291800	-0.619190
0.291900	-0.639315
0.292000	-0.588355
0.292100	-0.532527
0.292200	-0.503315
0.292300	-0.524737
0.292400	-0.550379
0.292500	-0.550379
0.292600	-0.550379
0.292700	-0.532852
0.292800	-0.525062
0.292900	-0.529606
0.293000	-0.527983
0.293100	-0.522790
0.293200	-0.539343
0.293300	-0.575372
0.293400	-0.616594
0.293500	-0.657816
0.293600	-0.652947
0.293700	-0.643859
0.293800	-0.633797
0.293900	-0.700011
0.294000	-0.799333
0.294100	-0.821080
0.294200	-0.772393
0.294300	-0.662360
0.294400	-0.624708
0.294500	-0.672097
0.294600	-0.778236
0.294700	-0.825949
0.294800	-0.784727
0.294900	-0.419248
0.295000	0.200378
0.295100	0.202975
0.295200	-0.084280
0.295300	-0.183602
0.295400	-0.067401
0.295500	0.279576
0.295600	0.513600
0.295700	0.582086
0.295800	0.504187
0.295900	0.408111
0.296000	0.424340
0.296100	0.474650
0.296200	0.440244
0.296300	0.478545
0.296400	0.626554
0.296500	0.837532
0.296600	1.037150
0.296700	0.905370
0.296800	0.638564
0.296900	0.578841
0.297000	0.795336
0.297100	1.096873
0.297200	1.127383
0.297300	1.130305
0.297400	1.146534
0.297500	1.172500
0.297600	1.223460
0.297700	1.280911
0.297800	1.316939
0.297900	1.349397
0.298000	1.344529
0.298100	1.344204
0.298200	1.327650
0.298300	1.256891
0.298400	1.214047
0.298500	1.136796
0.298600	1.048510
0.298700	0.894983
0.298800	0.697313
0.298900	0.406488
0.299000	-0.128747
0.299100	-1.139171
0.299200	-1.287505
0.299300	-1.340087
0.299400	-1.284584
0.299500	-1.214799
0.299600	-1.250178
0.299700	-1.411820
0.299800	-1.580603
0.299900	-1.662722
0.300000	-1.642923
0.300100	-1.585472
0.300200	-1.579954
0.300300	-1.663371
0.300400	-1.788336
0.300500	-1.882140
0.300600	-1.926608
0.300700	-1.947381
0.300800	-1.961014
0.300900	-2.004183
0.301000	-2.058064
0.301100	-2.099611
0.301200	-2.134990
0.301300	-2.155764
0.301400	-2.200232
0.301500	-2.244050
0.301600	-2.284948
0.301700	-2.296308
0.301800	-2.305396
0.301900	-2.328766
0.302000	-2.358953
0.302100	-2.366743
0.302200	-2.318055
0.302300	-2.226847
0.302400	-2.203802
0.302500	-2.248919
0.302600	-2.345969
0.302700	-2.405693
0.302800	-2.354733
0.302900	-2.246971
0.303000	-2.168098
0.303100	-2.176212
0.303200	-2.268069
0.303300	-2.363172
0.303400	-2.385244
0.303500	-2.342399
0.303600	-2.289816
0.303700	-2.265148
0.303800	-2.272938
0.303900	-2.307993
0.304000	-2.334609
0.304100	-2.344671
0.304200	-2.334284
0.304300	-2.315134
0.304400	-2.282351
0.304500	-2.231391
0.304600	-2.171993
0.304700	-2.127525
0.304800	-2.101558
0.304900	-2.076241
0.305000	-2.030150
0.305100	-1.941863
0.305200	-1.864613
0.305300	-1.749386
0.305400	-1.672135
0.305500	-1.601376
0.305600	-1.533214
0.305700	-1.455963
0.305800	-1.380335
0.305900	-1.277118
0.306000	-1.194025
0.306100	-1.123266
0.306200	-1.069386
0.306300	-1.021997
0.306400	-0.985643
0.306500	-0.956431
0.306600	-0.903849
0.306700	-0.861329
0.306800	-0.804202
0.306900	-0.770446
0.307000	-0.733119
0.307100	-0.718837
0.307200	-0.696766
0.307300	-0.653596
0.307400	-0.527334
0.307500	-0.371535
0.307600	-0.273835
0.307700	-0.350437
0.307800	-0.455926
0.307900	-0.493577
0.308000	-0.390685
0.308100	-0.268967
0.308200	-0.193664
0.308300	-0.219630
0.308400	-0.298179
0.308500	-0.354981
0.308600	-0.326742
0.308700	-0.264423
0.308800	-0.198208
0.308900	-0.186198
0.309000	-0.205673
0.309100	-0.220279
0.309200	-0.239430
0.309300	-0.244298
0.309400	-0.248843
0.309500	-0.248518
0.309600	-0.255983
0.309700	-0.255010
0.309800	-0.270914
0.309900	-0.310838
0.310000	-0.347515
0.310100	-0.398475
0.310200	-0.431582
0.310300	-0.432880
0.310400	-0.437425
0.310500	-0.464040
0.310600	-0.574398
0.310700	-0.667878
0.310800	-0.699038
0.310900	-0.661711
0.311000	-0.594522
0.311100	-0.621463
0.311200	-0.699687
0.311300	-0.811668
0.311400	-0.850942
0.311500	-0.811018
0.311600	-0.486436
0.311700	-0.355630
0.311800	-0.491630
0.311900	-0.760059
0.312000	-0.740259
0.312100	-0.579267
0.312200	-0.301100
0.312300	-0.162828
0.312400	-0.069998
0.312500	-0.086552
0.312600	-0.082981
0.312700	-0.047277
0.312800	-0.008003
0.312900	0.053668
0.313000	0.220827
0.313100	0.519767
0.313200	0.893685
0.313300	1.059221
0.313400	0.857332
0.313500	0.691470
0.313600	0.695690
0.313700	0.896930
0.313800	1.138419
0.313900	1.129331
0.314000	1.153025
0.314100	1.224433
0.314200	1.307526
0.314300	1.428595
0.314400	1.518829
0.314500	1.649960
0.314600	1.775248
0.314700	1.906380
0.314800	2.071267
0.314900	2.158904
0.315000	2.310484
0.315100	2.383191
0.315200	2.489978
0.315300	2.477644
0.315400	2.474398
0.315500	2.323143
0.315600	2.126122
0.315700	1.485397
0.315800	0.225371
0.315900	-0.644508
0.316000	-0.724355
0.316100	-0.126151
0.316200	0.144226
0.316300	-0.459496
0.316400	-1.095352
0.316500	-1.240116
0.316600	-1.289777
0.316700	-1.260565
0.316800	-1.226808
0.316900	-1.257643
0.317000	-1.360536
0.317100	-1.474140
0.317200	-1.557557
0.317300	-1.593586
0.317400	-1.618904
0.317500	-1.659476
0.317600	-1.712708
0.317700	-1.762369
0.317800	-1.808460
0.317900	-1.848384
0.318000	-1.887009
0.318100	-1.940565
0.318200	-1.996718
0.318300	-2.022360
0.318400	-2.034694
0.318500	-2.057740
0.318600	-2.103506
0.318700	-2.154465
0.318800	-2.168098
0.318900	-2.109348
0.319000	-2.044756
0.319100	-2.060336
0.319200	-2.133367
0.319300	-2.233339
0.319400	-2.251516
0.319500	-2.194389
0.319600	-2.099611
0.319700	-2.056441
0.319800	-2.098962
0.319900	-2.183029
0.320000	-2.232041
0.320100	-2.210943
0.320200	-2.150895
0.320300	-2.099611
0.320400	-2.085005
0.320500	-2.074942
0.320600	-2.056117
0.320700	-2.029176
0.320800	-1.996718
0.320900	-1.956470
0.321000	-1.910379
0.321100	-1.850331
0.321200	-1.751658
0.321300	-1.665968
0.321400	-1.605271
0.321500	-1.564049
0.321600	-1.529968
0.321700	-1.460183
0.321800	-1.372870
0.321900	-1.296593
0.322000	-1.194674
0.322100	-1.138846
0.322200	-1.086589
0.322300	-1.031410
0.322400	-0.965195
0.322500	-0.900278
0.322600	-0.827897
0.322700	-0.772718
0.322800	-0.732470
0.322900	-0.707801
0.323000	-0.670150
0.323100	-0.654894
0.323200	-0.637692
0.323300	-0.623735
0.323400	-0.602637
0.323500	-0.578942
0.323600	-0.574074
0.323700	-0.563362
0.323800	-0.595496
0.323900	-0.574723
0.324000	-0.551677
0.324100	-0.411783
0.324200	-0.301425
0.324300	-0.247869
0.324400	-0.382246
0.324500	-0.480269
0.324600	-0.488384
0.324700	-0.372833
0.324800	-0.243000
0.324900	-0.194313
0.325000	-0.242676
0.325100	-0.321549
0.325200	-0.337778
0.325300	-0.284547
0.325400	-0.205349
0.325500	-0.152766
0.325600	-0.155038
0.325700	-0.170294
0.325800	-0.177110
0.325900	-0.180031
0.326000	-0.174189
0.326100	-0.181005
0.326200	-0.201454
0.326300	-0.222551
0.326400	-0.249816
0.326500	-0.257282
0.326600	-0.315057
0.326700	-0.359525
0.326800	-0.424117
0.326900	-0.459172
0.327000	-0.458847
0.327100	-0.471830
0.327200	-0.525711
0.327300	-0.673720
0.327400	-0.748374
0.327500	-0.774665
0.327600	-0.718512
0.327700	-0.690923
0.327800	-0.746102
0.327900	-0.870092
0.328000	-0.966818
0.328100	-0.996355
0.328200	-0.946044
0.328300	-0.893138
0.328400	-0.918780
0.328500	-0.994407
0.328600	-1.062245
0.328700	-1.083343
0.328800	-1.086264
0.328900	-1.090159
0.329000	-1.125214
0.329100	-1.174550
0.329200	-1.208956
0.329300	-1.235247
0.329400	-1.249204
0.329500	-1.275171
0.329600	-1.299839
0.329700	-1.306331
0.329800	-1.298216
0.329900	-1.278092
0.330000	-1.284908
0.330100	-1.337815
0.330200	-1.366054
0.330300	-1.361510
0.330400	-1.353720
0.330500	-1.313472
0.330600	-1.302760
0.330700	-1.281013
0.330800	-1.249529
0.330900	-1.223562
0.331000	-1.193701
0.331100	-1.155400
0.331200	-1.037252
0.331300	-0.919753
0.331400	-0.734417
0.331500	-0.581214
0.331600	-0.404317
0.331700	-0.243325
0.331800	-0.072270
0.331900	0.079634
0.332000	0.168894
0.332100	0.227319
0.332200	0.144875
0.332300	-0.006380
0.332400	-0.705205
0.332500	-1.182340
0.332600	-1.247906
0.332700	-1.193376
0.332800	-1.075553
0.332900	-0.971686
0.333000	-1.117748
0.333100	-1.273872
0.333200	-1.382608
0.333300	-1.384880
0.333400	-1.314121
0.333500	-1.260240
0.333600	-1.294321
0.333700	-1.395266
0.333800	-1.483553
0.333900	-1.520231
0.334000	-1.507247
0.334100	-1.494588
0.334200	-1.504001
0.334300	-1.540355
0.334400	-1.574111
0.334500	-1.589042
0.334600	-1.595534
0.334700	-1.602674
0.334800	-1.635457
0.334900	-1.659801
0.335000	-1.671161
0.335100	-1.677978
0.335200	-1.688689
0.335300	-1.719200
0.335400	-1.753281
0.335500	-1.748737
0.335600	-1.686417
0.335700	-1.655257
0.335800	-1.700049
0.335900	-1.808460
0.336000	-1.926283
0.336100	-1.960040
0.336200	-1.907782
0.336300	-1.847085
0.336400	-1.857147
0.336500	-1.954847
0.336600	-2.080785
0.336700	-2.155439
0.336800	-2.141157
0.336900	-2.096689
0.337000	-2.074293
0.337100	-2.092470
0.337200	-2.129148
0.337300	-2.140184
0.337400	-2.135639
0.337500	-2.118112
0.337600	-2.087601
0.337700	-2.060012
0.337800	-2.023009
0.337900	-1.965558
0.338000	-1.915572
0.338100	-1.882789
0.338200	-1.856174
0.338300	-1.838646
0.338400	-1.777300
0.338500	-1.708164
0.338600	-1.614684
0.338700	-1.541978
0.338800	-1.493290
0.338900	-1.440059
0.339000	-1.377414
0.339100	-1.306980
0.339200	-1.223562
0.339300	-1.139171
0.339400	-1.076526
0.339500	-1.029787
0.339600	-1.014207
0.339700	-0.978827
0.339800	-0.971686
0.339900	-0.948966
0.340000	-0.931438
0.340100	-0.922350
0.340200	-0.900928
0.340300	-0.913262
0.340400	-0.915209
0.340500	-0.944746
0.340600	-0.942799
0.340700	-0.896708
0.340800	-0.770770
0.340900	-0.674369
0.341000	-0.707801
0.341100	-0.848994
0.341200	-0.924297
0.341300	-0.877882
0.341400	-0.742532
0.341500	-0.632174
0.341600	-0.593873
0.341700	-0.658140
0.341800	-0.705529
0.341900	-0.695143
0.342000	-0.612050
0.342100	-0.514675
0.342200	-0.456575
0.342300	-0.428012
0.342400	-0.414379
0.342500	-0.391334
0.342600	-0.370885
0.342700	-0.329339
0.342800	-0.299802
0.342900	-0.273186
0.343000	-0.242026
0.343100	-0.215735
0.343200	-0.203726
0.343300	-0.221902
0.343400	-0.234886
0.343500	-0.183277
0.343600	0.025754
0.343700	0.360397
0.343800	0.587280
0.343900	0.387987
0.344000	-0.160556
0.344100	-0.185549
0.344200	0.195185
0.344300	0.891737
0.344400	1.219889
0.344500	0.854735
0.344600	0.161104
0.344700	-0.159258
0.344800	0.083529
0.344900	0.786897
0.345000	1.205932
0.345100	1.124138
0.345200	0.725551
0.345300	0.535347
0.345400	0.472702
0.345500	0.563261
0.345600	0.538592
0.345700	0.362994
0.345800	0.072818
0.345900	-0.190418
0.346000	-0.374131
0.346100	-0.562713
0.346200	-0.793166
0.346300	-0.947667
0.346400	-0.961949
0.346500	-0.954484
0.346600	-1.008040
0.346700	-1.153452
0.346800	-1.224861
0.346900	-1.269328
0.347000	-1.293023
0.347100	-1.311524
0.347200	-1.322235
0.347300	-1.337815
0.347400	-1.352421
0.347500	-1.358913
0.347600	-1.365729
0.347700	-1.371247
0.347800	-1.362808
0.347900	-1.371247
0.348000	-1.370923
0.348100	-1.367352
0.348200	-1.353071
0.348300	-1.343982
0.348400	-1.336192
0.348500	-1.312822
0.348600	-1.301787
0.348700	-1.279715
0.348800	-1.275495
0.348900	-1.262837
0.349000	-1.282961
0.349100	-1.389424
0.349200	-1.491667
0.349300	-1.505624
0.349400	-1.402732
0.349500	-1.286856
0.349600	-1.274197
0.349700	-1.382283
0.349800	-1.520880
0.349900	-1.583524
0.350000	-1.551066
0.350100	-1.482254
0.350200	-1.446226
0.350300	-1.498808
0.350400	-1.587419
0.350500	-1.638379
0.350600	-1.646818
0.350700	-1.633185
0.350800	-1.630589
0.350900	-1.644546
0.351000	-1.668889
0.351100	-1.696479
0.351200	-1.708164
0.351300	-1.714006
0.351400	-1.739973
0.351500	-1.772431
0.351600	-1.800345
0.351700	-1.800994
0.351800	-1.806188
0.351900	-1.833128
0.352000	-1.873701
0.352100	-1.904212
0.352200	-1.877921
0.352300	-1.808784
0.352400	-1.788660
0.352500	-1.847734
0.352600	-1.959391
0.352700	-2.038265
0.352800	-2.010350
0.352900	-1.924985
0.353000	-1.860718
0.353100	-1.876622
0.353200	-1.958417
0.353300	-2.039563
0.353400	-2.050923
0.353500	-1.988928
0.353600	-1.923038
0.353700	-1.887333
0.353800	-1.877271
0.353900	-1.879219
0.354000	-1.870131
0.354100	-1.845462
0.354200	-1.812355
0.354300	-1.768536
0.354400	-1.710760
0.354500	-1.630589
0.354600	-1.547820
0.354700	-1.478035
0.354800	-1.425128
0.354900	-1.373195
0.355000	-1.306331
0.355100	-1.200841
0.355200	-1.097949
0.355300	-0.968765
0.355400	-0.887620
0.355500	-0.822054
0.355600	-0.757462
0.355700	-0.685405
0.355800	-0.609778
0.355900	-0.520193
0.356000	-0.440021
0.356100	-0.384518
0.356200	-0.348165
0.356300	-0.322847
0.356400	-0.302723
0.356500	-0.287143
0.356600	-0.280002
0.356700	-0.251115
0.356800	-0.233912
0.356900	-0.205024
0.357000	-0.210217
0.357100	-0.208919
0.357200	-0.219306
0.357300	-0.199831
0.357400	-0.117712
0.357500	0.014069
0.357600	0.077687
0.357700	0.003033
0.357800	-0.150170
0.357900	-0.193664
0.358000	-0.138485
0.358100	-0.000538
0.358200	0.073142
0.358300	0.042307
0.358400	-0.032996
0.358500	-0.092394
0.358600	-0.059611
0.358700	0.007902
0.358800	0.083204
0.358900	0.093266
0.359000	0.079959
0.359100	0.055615
0.359200	0.042632
0.359300	0.084178
0.359400	0.188693
0.359500	0.317552
0.359600	0.328913
0.359700	0.428884
0.359800	0.429533
0.359900	0.342870
0.360000	0.189667
0.360100	0.032245
0.360200	-0.117387
0.360300	0.021209
0.360400	0.124102
0.360500	0.126698
0.360600	-0.499420
0.360700	-0.502990
0.360800	-0.530255
0.360900	-0.196260
0.361000	0.240951
0.361100	0.316579
0.361200	-0.255659
0.361300	-0.668202
0.361400	-0.727276
0.361500	-0.691897
0.361600	-0.149521
0.361700	0.078660
0.361800	-0.259554
0.361900	-0.717539
0.362000	-0.933710
0.362100	-0.874636
0.362200	-0.784403
0.362300	-0.804202
0.362400	-0.995056
0.362500	-1.031734
0.362600	-1.070035
0.362700	-1.104116
0.362800	-1.144364
0.362900	-1.185586
0.363000	-1.208956
0.363100	-1.208631
0.363200	-1.200517
0.363300	-1.208956
0.363400	-1.249853
0.363500	-1.293023
0.363600	-1.302111
0.363700	-1.293672
0.363800	-1.264784
0.363900	-1.250178
0.364000	-1.231677
0.364100	-1.207009
0.364200	-1.187534
0.364300	-1.165137
0.364400	-1.097624
0.364500	-1.015505
0.364600	-0.990188
0.364700	-0.963896
0.364800	-0.971037
0.364900	-0.994083
0.365000	-1.022321
0.365100	-1.066464
0.365200	-1.098923
0.365300	-1.135600
0.365400	-1.183639
0.365500	-1.201815
0.365600	-1.221939
0.365700	-1.297242
0.365800	-1.438760
0.365900	-1.555935
0.366000	-1.569242
0.366100	-1.487123
0.366200	-1.434541
0.366300	-1.491992
0.366400	-1.655581
0.366500	-1.816574
0.366600	-1.873052
0.366700	-1.851305
0.366800	-1.818197
0.366900	-1.845138
0.367000	-1.931152
0.367100	-2.053845
0.367200	-2.133692
0.367300	-2.163554
0.367400	-2.176212
0.367500	-2.199258
0.367600	-2.225549
0.367700	-2.258007
0.367800	-2.289492
0.367900	-2.298905
0.368000	-2.302800
0.368100	-2.312537
0.368200	-2.324871
0.368300	-2.322599
0.368400	-2.292089
0.368500	-2.270341
0.368600	-2.258656
0.368700	-2.247296
0.368800	-2.216785
0.368900	-2.126227
0.369000	-2.037291
0.369100	-2.012622
0.369200	-2.069100
0.369300	-2.154465
0.369400	-2.177511
0.369500	-2.107076
0.369600	-2.011324
0.369700	-1.965883
0.369800	-2.007429
0.369900	-2.111945
0.370000	-2.188871
0.370100	-2.191143
0.370200	-2.142780
0.370300	-2.104155
0.370400	-2.095716
0.370500	-2.118437
0.370600	-2.132394
0.370700	-2.136613
0.370800	-2.126227
0.370900	-2.113243
0.371000	-2.086303
0.371100	-2.058064
0.371200	-2.001262
0.371300	-1.945434
0.371400	-1.910379
0.371500	-1.891553
0.371600	-1.869157
0.371700	-1.817548
0.371800	-1.738025
0.371900	-1.655906
0.372000	-1.568918
0.372100	-1.527696
0.372200	-1.479333
0.372300	-1.438436
0.372400	-1.389424
0.372500	-1.335868
0.372600	-1.261863
0.372700	-1.211877
0.372800	-1.175524
0.372900	-1.159295
0.373000	-1.146636
0.373100	-1.136574
0.373200	-1.127810
0.373300	-1.107362
0.373400	-1.082694
0.373500	-1.060947
0.373600	-1.038875
0.373700	-1.028813
0.373800	-1.030760
0.373900	-1.033682
0.374000	-0.986942
0.374100	-0.887620
0.374200	-0.742532
0.374300	-0.720135
0.374400	-0.823677
0.374500	-0.957729
0.374600	-0.957080
0.374700	-0.844775
0.374800	-0.697739
0.374900	-0.620813
0.375000	-0.647754
0.375100	-0.697739
0.375200	-0.696116
0.375300	-0.624384
0.375400	-0.496174
0.375500	-0.411133
0.375600	-0.353683
0.375700	-0.333558
0.375800	-0.307592
0.375900	-0.288117
0.376000	-0.258905
0.376100	-0.235210
0.376200	-0.207945
0.376300	-0.185549
0.376400	-0.163478
0.376500	-0.082657
0.376600	-0.133941
0.376700	-0.093693
0.376800	-0.185549
0.376900	-0.070647
0.377000	0.263996
0.377100	0.533724
0.377200	0.533075
0.377300	-0.110246
0.377400	-0.356279
0.377500	-0.160232
0.377600	0.557094
0.377700	1.095250
0.377800	1.048186
0.377900	0.502888
0.378000	0.046851
0.378100	0.165648
0.378200	0.837857
0.378300	1.638600
0.378400	1.882036
0.378500	1.723315
0.378600	1.551612
0.378700	1.638600
0.378800	1.807707
0.378900	2.033940
0.379000	2.087821
0.379100	2.035563
0.379200	2.028747
0.379300	2.092365
0.379400	2.190064
0.379500	2.244594
0.379600	2.246217
0.379700	2.416623
0.379800	2.664279
0.379900	2.955754
0.380000	3.018074
0.380100	2.668498
0.380200	2.421167
0.380300	2.377673
0.380400	2.426685
0.380500	2.515945
0.380600	2.414675
0.380700	2.386112
0.380800	2.328661
0.380900	2.268613
0.381000	2.216355
0.381100	2.163124
0.381200	2.104699
0.381300	2.035563
0.381400	1.901511
0.381500	1.714876
0.381600	1.586017
0.381700	1.402304
0.381800	1.190677
0.381900	0.971909
0.382000	0.691795
0.382100	0.335404
0.382200	-0.116089
0.382300	-0.626331
0.382400	-1.232001
0.382500	-1.423505
0.382600	-1.556908
0.382700	-1.552689
0.382800	-1.497834
0.382900	-1.487448
0.383000	-1.609815
0.383100	-1.803267
0.383200	-1.949004
0.383300	-2.003859
0.383400	-1.975620
0.383500	-1.968804
0.383600	-2.028202
0.383700	-2.153492
0.383800	-2.278131
0.383900	-2.352461
0.384000	-2.381998
0.384100	-2.400175
0.384200	-2.434905
0.384300	-2.476127
0.384400	-2.508910
0.384500	-2.519946
0.384600	-2.521569
0.384700	-2.541693
0.384800	-2.561493
0.384900	-2.589407
0.385000	-2.586486
0.385100	-2.574152
0.385200	-2.569283
0.385300	-2.590056
0.385400	-2.606285
0.385500	-2.592653
0.385600	-2.513779
0.385700	-2.448213
0.385800	-2.468337
0.385900	-2.552729
0.386000	-2.645560
0.386100	-2.651402
0.386200	-2.567011
0.386300	-2.464767
0.386400	-2.431335
0.386500	-2.481970
0.386600	-2.569932
0.386700	-2.612777
0.386800	-2.566037
0.386900	-2.479698
0.387000	-2.411535
0.387100	-2.378752
0.387200	-2.358304
0.387300	-2.329740
0.387400	-2.281377
0.387500	-2.219706
0.387600	-2.153167
0.387700	-2.076565
0.387800	-1.974646
0.387900	-1.852279
0.388000	-1.741596
0.388100	-1.650388
0.388200	-1.567620
0.388300	-1.486149
0.388400	-1.364431
0.388500	-1.226808
0.388600	-1.072631
0.388700	-0.938904
0.388800	-0.842503
0.388900	-0.760708
0.389000	-0.670474
0.389100	-0.581214
0.389200	-0.481243
0.389300	-0.394255
0.389400	-0.317005
0.389500	-0.261177
0.389600	-0.212814
0.389700	-0.172890
0.389800	-0.144327
0.389900	-0.112518
0.390000	-0.081683
0.390100	-0.051497
0.390200	-0.016767
0.390300	-0.001511
0.390400	0.011147
0.390500	-0.001511
0.390600	0.009849
0.390700	0.051395
0.390800	0.190316
0.390900	0.289314
0.391000	0.269514
0.391100	0.126698
0.391200	0.011796
0.391300	0.036140
0.391400	0.141629
0.391500	0.248092
0.391600	0.261724
0.391700	0.191615
0.391800	0.114364
0.391900	0.097161
0.392000	0.156235
0.392100	0.290612
0.392200	0.647976
0.392300	0.740807
0.392400	0.665828
0.392500	0.599938
0.392600	0.553199
0.392700	0.544435
0.392800	0.519118
0.392900	0.395777
0.393000	0.252311
0.393100	0.160779
0.393200	0.007902
0.393300	-0.192365
0.393400	-0.268642
0.393500	-0.317654
0.393600	-0.334532
0.393700	-0.228394
0.393800	-0.038189
0.393900	-0.272537
0.394000	-0.469558
0.394100	-0.510456
0.394200	-0.398799
0.394300	0.336703
0.394400	0.765800
0.394500	0.535347
0.394600	-0.142055
0.394700	-0.535448
0.394800	-0.414379
0.394900	0.185123
0.395000	0.608053
0.395100	0.506459
0.395200	0.092293
0.395300	-0.207945
0.395400	-0.311487
0.395500	-0.222227
0.395600	-0.118361
0.395700	-0.169645
0.395800	-0.308566
0.395900	-0.396852
0.396000	-0.408537
0.396100	-0.390036
0.396200	-0.445215
0.396300	-0.390685
0.396400	-0.213463
0.396500	0.012121
0.396600	0.251013
0.396700	0.216283
0.396800	-0.071621
0.396900	-0.142380
0.397000	-0.123554
0.397100	0.023157
0.397200	0.143901
0.397300	0.167271
0.397400	0.220502
0.397500	0.337676
0.397600	0.469781
0.397700	0.559041
0.397800	0.624607
0.397900	0.742430
0.398000	0.829093
0.398100	0.880377
0.398200	0.968988
0.398300	1.008911
0.398400	1.021245
0.398500	0.960548
0.398600	0.895308
0.398700	0.808320
0.398800	0.645380
0.398900	0.461991
0.399000	0.060808
0.399100	-0.917481
0.399200	-1.228106
0.399300	-1.289777
0.399400	-1.236546
0.399500	-1.160269
0.399600	-1.167409
0.399700	-1.285882
0.399800	-1.454340
0.399900	-1.540355
0.400000	-1.532240
0.400100	-1.454989
0.400200	-1.432269
0.400300	-1.473491
0.400400	-1.559505
0.400500	-1.635782
0.400600	-1.661424
0.400700	-1.669214
0.400800	-1.665319
0.400900	-1.669863
0.401000	-1.689987
0.401100	-1.702970
0.401200	-1.701997
0.401300	-1.698102
0.401400	-1.697453
0.401500	-1.701023
0.401600	-1.703295
0.401700	-1.687715
0.401800	-1.673109
0.401900	-1.680574
0.402000	-1.692584
0.402100	-1.699400
0.402200	-1.660450
0.402300	-1.581577
0.402400	-1.549118
0.402500	-1.587095
0.402600	-1.683820
0.402700	-1.763343
0.402800	-1.748412
0.402900	-1.676679
0.403000	-1.619228
0.403100	-1.637405
0.403200	-1.730560
0.403300	-1.837348
0.403400	-1.884088
0.403500	-1.868183
0.403600	-1.837672
0.403700	-1.822417
0.403800	-1.842216
0.403900	-1.874350
0.404000	-1.897720
0.404100	-1.909730
0.404200	-1.914274
0.404300	-1.917844
0.404400	-1.912976
0.404500	-1.897720
0.404600	-1.867534
0.404700	-1.848059
0.404800	-1.834102
0.404900	-1.825014
0.405000	-1.791906
0.405100	-1.712383
0.405200	-1.628641
0.405300	-1.515037
0.405400	-1.438760
0.405500	-1.361185
0.405600	-1.285557
0.405700	-1.194674
0.405800	-1.098598
0.405900	-0.986942
0.406000	-0.890866
0.406100	-0.808422
0.406200	-0.737338
0.406300	-0.681835
0.406400	-0.628928
0.406500	-0.597119
0.406600	-0.556222
0.406700	-0.515649
0.406800	-0.491954
0.406900	-0.461768
0.407000	-0.444241
0.407100	-0.440670
0.407200	-0.434179
0.407300	-0.404966
0.407400	-0.300451
0.407500	-0.153416
0.407600	-0.036566
0.407700	-0.092070
0.407800	-0.178408
0.407900	-0.213463
0.408000	-0.111220
0.408100	0.044579
0.408200	0.163052
0.408300	0.183825
0.408400	0.141954
0.408500	0.110794
0.408600	0.148445
0.408700	0.261075
0.408800	0.942047
0.408900	1.425349
0.409000	1.725263
0.409100	2.015439
0.409200	2.284193
0.409300	2.597739
0.409400	2.978475
0.409500	3.242036
0.409600	3.432566
0.409700	3.715927
0.409800	3.808434
0.409900	3.880491
0.410000	3.585120
0.410100	3.424452
0.410200	3.108632
0.410300	3.099544
0.410400	3.041444
0.410500	2.848966
0.410600	2.103076
0.410700	1.284156
0.410800	0.941723
0.410900	1.096873
0.411000	1.437359
0.411100	1.229951
0.411200	0.393829
0.411300	-0.592899
0.411400	-0.723381
0.411500	-0.768174
0.411600	-0.778236
0.411700	-0.844775
0.411800	-0.957729
0.411900	-1.100221
0.412000	-1.195648
0.412100	-1.276145
0.412200	-1.339763
0.412300	-1.426102
0.412400	-1.524125
0.412500	-1.607868
0.412600	-1.659801
0.412700	-1.696154
0.412800	-1.744192
0.412900	-1.790283
0.413000	-1.829882
0.413100	-1.843839
0.413200	-1.852603
0.413300	-1.874026
0.413400	-1.930503
0.413500	-2.007429
0.413600	-2.046704
0.413700	-2.063907
0.413800	-2.063257
0.413900	-2.056766
0.414000	-2.057740
0.414100	-2.048002
0.414200	-2.039238
0.414300	-2.023009
0.414400	-2.003859
0.414500	-1.984059
0.414600	-1.961988
0.414700	-1.934723
0.414800	-1.896746
0.414900	-1.853252
0.415000	-1.807162
0.415100	-1.757500
0.415200	-1.699400
0.415300	-1.633834
0.415400	-1.576708
0.415500	-1.525748
0.415600	-1.502054
0.415700	-1.509844
0.415800	-1.610789
0.415900	-1.690312
0.416000	-1.664021
0.416100	-1.546522
0.416200	-1.429997
0.416300	-1.434865
0.416400	-1.541328
0.416500	-1.673758
0.416600	-1.706216
0.416700	-1.650064
0.416800	-1.575734
0.416900	-1.558856
0.417000	-1.611114
0.417100	-1.663047
0.417200	-1.679925
0.417300	-1.656880
0.417400	-1.615333
0.417500	-1.574436
0.417600	-1.568269
0.417700	-1.560803
0.417800	-1.549118
0.417900	-1.524450
0.418000	-1.501405
0.418100	-1.495562
0.418200	-1.500106
0.418300	-1.504651
0.418400	-1.486474
0.418500	-1.454989
0.418600	-1.445577
0.418700	-1.447199
0.418800	-1.429347
0.418900	-1.355667
0.419000	-1.252125
0.419100	-1.223238
0.419200	-1.266407
0.419300	-1.349176
0.419400	-1.394942
0.419500	-1.343009
0.419600	-1.257643
0.419700	-1.214799
0.419800	-1.275820
0.419900	-1.384555
0.420000	-1.490044
0.420100	-1.520555
0.420200	-1.500431
0.420300	-1.485825
0.420400	-1.510493
0.420500	-1.562751
0.420600	-1.616956
0.420700	-1.639028
0.420800	-1.645195
0.420900	-1.650388
0.421000	-1.653634
0.421100	-1.641300
0.421200	-1.591639
0.421300	-1.530617
0.421400	-1.480307
0.421500	-1.443954
0.421600	-1.416040
0.421700	-1.367028
0.421800	-1.273872
0.421900	-1.188183
0.422000	-1.085290
0.422100	-1.029137
0.422200	-0.980775
0.422300	-0.931114
0.422400	-0.862627
0.422500	-0.790894
0.422600	-0.703582
0.422700	-0.637692
0.422800	-0.587706
0.422900	-0.556546
0.423000	-0.532527
0.423100	-0.509482
0.423200	-0.495525
0.423300	-0.482217
0.423400	-0.462093
0.423500	-0.454303
0.423600	-0.447811
0.423700	-0.461119
0.423800	-0.473778
0.423900	-0.503964
0.424000	-0.490981
0.424100	-0.420871
0.424200	-0.316356
0.424300	-0.326418
0.424400	-0.483191
0.424500	-0.665606
0.424600	-0.737014
0.424700	-0.686054
0.424800	-0.627954
0.424900	-0.625357
0.425000	-0.728899
0.425100	-0.869443
0.425200	-0.975257
0.425300	-0.997004
0.425400	-0.982073
0.425500	-0.973634
0.425600	-1.015505
0.425700	-1.079448
0.425800	-1.149557
0.425900	-1.180717
0.426000	-1.200517
0.426100	-1.203763
0.426200	-1.220641
0.426300	-1.231028
0.426400	-1.234273
0.426500	-1.254073
0.426600	-1.268030
0.426700	-1.263810
0.426800	-1.260889
0.426900	-1.242063
0.427000	-1.199868
0.427100	-1.130732
0.427200	-1.087562
0.427300	-1.104441
0.427400	-1.114178
0.427500	-1.041472
0.427600	-0.911314
0.427700	-0.766226
0.427800	-0.712345
0.427900	-0.749348
0.428000	-0.786999
0.428100	-0.740909
0.428200	-0.171917
0.428300	0.764177
0.428400	1.143612
0.428500	1.143612
0.428600	1.096224
0.428700	1.290648
0.428800	1.643144
0.428900	2.181950
0.429000	2.554570
0.429100	2.798981
0.429200	2.993405
0.429300	3.267353
0.429400	3.563373
0.429500	3.873675
0.429600	4.181380
0.429700	4.523492
0.429800	4.916889
0.429900	5.275232
0.430000	5.431682
0.430100	5.320674
0.430200	5.204147
0.430300	5.316454
0.430400	5.475177
0.430500	5.707905
0.430600	5.808202
0.430700	5.892595
0.430800	6.017561
0.430900	6.157134
0.431000	6.248018
0.431100	6.333709
0.431200	6.352211
0.431300	6.318454
0.431400	6.226271
0.431500	6.049046
0.431600	5.866628
0.431700	5.657919
0.431800	5.436226
0.431900	5.260950
0.432000	5.023353
0.432100	4.714997
0.432200	4.385544
0.432300	3.948005
0.432400	2.974255
0.432500	1.598027
0.432600	0.572024
0.432700	0.405514
0.432800	0.635967
0.432900	0.474001
0.433000	-0.655219
0.433100	-1.206359
0.433200	-1.428049
0.433300	-1.567620
0.433400	-1.626044
0.433500	-1.699725
0.433600	-1.829558
0.433700	-2.027553
0.433800	-2.222303
0.433900	-2.371611
0.434000	-2.459898
0.434100	-2.529359
0.434200	-2.592004
0.434300	-2.653999
0.434400	-2.708529
0.434500	-2.745532
0.434600	-2.769551
0.434700	-2.779288
0.434800	-2.781561
0.434900	-2.782534
0.435000	-2.756892
0.435100	-2.716644
0.435200	-2.666009
0.435300	-2.620892
0.435400	-2.577397
0.435500	-2.504366
0.435600	-2.372585
0.435700	-2.251191
0.435800	-2.202828
0.435900	-2.248919
0.436000	-2.294361
0.436100	-2.266771
0.436200	-2.139859
0.436300	-1.980813
0.436400	-1.886684
0.436500	-1.901291
0.436600	-1.928556
0.436700	-1.908431
0.436800	-1.812030
0.436900	-1.683496
0.437000	-1.564698
0.437100	-1.475114
0.437200	-1.412469
0.437300	-1.342035
0.437400	-1.268679
0.437500	-1.193051
0.437600	-1.103467
0.437700	-1.013882
0.437800	-0.913911
0.437900	-0.802904
0.438000	-0.716565
0.438100	-0.648727
0.438200	-0.584460
0.438300	-0.532202
0.438400	-0.453329
0.438500	-0.355305
0.438600	-0.245921
0.438700	-0.160556
0.438800	-0.106676
0.438900	-0.066752
0.439000	-0.032996
0.439100	-0.000538
0.439200	0.026727
0.439300	0.059835
0.439400	0.061133
0.439500	0.049773
0.439600	0.016665
0.439700	-0.012872
0.439800	-0.045005
0.439900	-0.086227
0.440000	-0.113817
0.440100	-0.142055
0.440200	-0.156337
0.440300	-0.195287
0.440400	-0.249492
0.440500	-0.318303
0.440600	-0.384518
0.440700	-0.403993
0.440800	-0.372508
0.440900	-0.315706
0.441000	-0.416327
0.441100	-0.601338
0.441200	-0.769147
0.441300	-0.800632
0.441400	-0.737014
0.441500	-0.670150
0.441600	-0.687677
0.441700	-0.781806
0.441800	-0.888593
0.441900	-0.923324
0.442000	-0.876584
0.442100	-0.806799
0.442200	-0.751295
0.442300	-0.722083
0.442400	-0.715591
0.442500	-0.703257
0.442600	-0.668851
0.442700	-0.638016
0.442800	-0.612699
0.442900	-0.588355
0.443000	-0.556222
0.443100	-0.515000
0.443200	-0.502990
0.443300	-0.506885
0.443400	-0.498121
0.443500	-0.486436
0.443600	-0.450083
0.443700	-0.395229
0.443800	-0.150819
0.443900	-0.190418
0.444000	-0.460145
0.444100	-0.489358
0.444200	-0.198857
0.444300	0.674917
0.444400	1.337712
0.444500	1.272147
0.444600	0.702506
0.444700	0.434402
0.444800	0.831365
0.444900	1.599974
0.445000	2.234857
0.445100	2.350732
0.445200	2.096585
0.445300	1.943382
0.445400	2.014790
0.445500	2.268288
0.445600	2.507830
0.445700	2.508479
0.445800	2.334503
0.445900	2.183573
0.446000	2.152413
0.446100	2.088795
0.446200	1.937864
0.446300	1.749607
0.446400	1.756747
0.446500	1.789206
0.446600	1.856394
0.446700	1.663917
0.446800	1.201388
0.446900	0.917704
0.447000	0.866095
0.447100	0.831690
0.447200	0.857981
0.447300	0.820005
0.447400	0.870639
0.447500	0.923222
0.447600	1.037799
0.447700	1.186133
0.447800	1.292595
0.447900	1.429569
0.448000	1.492213
0.448100	1.554857
0.448200	1.584070
0.448300	1.547717
0.448400	1.439956
0.448500	1.266304
0.448600	1.019947
0.448700	0.723928
0.448800	0.273085
0.448900	-0.193339
0.449000	-0.862302
0.449100	-1.283935
0.449200	-1.489720
0.449300	-1.613061
0.449400	-1.615009
0.449500	-1.563400
0.449600	-1.574760
0.449700	-1.710111
0.449800	-1.881816
0.449900	-1.985682
0.450000	-1.973348
0.450100	-1.899343
0.450200	-1.859419
0.450300	-1.897396
0.450400	-1.992823
0.450500	-2.086303
0.450600	-2.146026
0.450700	-2.161931
0.450800	-2.169072
0.450900	-2.181406
0.451000	-2.206399
0.451100	-2.228470
0.451200	-2.242752
0.451300	-2.236909
0.451400	-2.236909
0.451500	-2.245673
0.451600	-2.228146
0.451700	-2.194389
0.451800	-2.151219
0.451900	-2.113243
0.452000	-2.086627
0.452100	-2.053520
0.452200	-1.972374
0.452300	-1.839944
0.452400	-1.746465
0.452500	-1.738025
0.452600	-1.795801
0.452700	-1.844489
0.452800	-1.787687
0.452900	-1.661749
0.453000	-1.539705
0.453100	-1.496211
0.453200	-1.537109
0.453300	-1.598779
0.453400	-1.611438
0.453500	-1.553338
0.453600	-1.466025
0.453700	-1.401109
0.453800	-1.377090
0.453900	-1.367677
0.454000	-1.353071
0.454100	-1.330674
0.454200	-1.320937
0.454300	-1.310875
0.454400	-1.309252
0.454500	-1.297567
0.454600	-1.273872
0.454700	-1.267056
0.454800	-1.270627
0.454900	-1.290426
0.455000	-1.300488
0.455100	-1.265109
0.455200	-1.230703
0.455300	-1.154426
0.455400	-1.096326
0.455500	-1.056727
0.455600	-1.009338
0.455700	-0.954159
0.455800	-0.874961
0.455900	-0.774341
0.456000	-0.666255
0.456100	-0.566284
0.456200	-0.477348
0.456300	-0.416976
0.456400	-0.331286
0.456500	-0.275134
0.456600	-0.200480
0.456700	-0.134265
0.456800	-0.060585
0.456900	0.010174
0.457000	0.050097
0.457100	0.097811
0.457200	0.118584
0.457300	0.164674
0.457400	0.257505
0.457500	0.413953
0.457600	0.528855
0.457700	0.476597
0.457800	0.365915
0.457900	0.286068
0.458000	0.362020
0.458100	0.654793
0.458200	1.476309
0.458300	1.633731
0.458400	1.242285
0.458500	1.000797
0.458600	1.149130
0.458700	1.775248
0.458800	2.347811
0.458900	2.733739
0.459000	2.785997
0.459100	2.738284
0.459200	2.670770
0.459300	2.567878
0.459400	2.523410
0.459500	2.465959
0.459600	2.387086
0.459700	2.352680
0.459800	2.304317
0.459900	2.183248
0.460000	1.926504
0.460100	1.828805
0.460200	1.667163
0.460300	1.812575
0.460400	1.847630
0.460500	1.800566
0.460600	1.244233
0.460700	0.439920
0.460800	0.153963
0.460900	0.334431
0.461000	0.840453
0.461100	0.891413
0.461200	0.418822
0.461300	-0.388737
0.461400	-0.673720
0.461500	-0.586732
0.461600	-0.032347
0.461700	0.357476
0.461800	0.265944
0.461900	0.066002
0.462000	0.084178
0.462100	0.248741
0.462200	0.668425
0.462300	0.987813
0.462400	1.209503
0.462500	1.350696
0.462600	1.409445
0.462700	1.442552
0.462800	1.363030
0.462900	1.184185
0.463000	1.076100
0.463100	1.052080
0.463200	1.023193
0.463300	0.990410
0.463400	0.621361
0.463500	0.309438
0.463600	0.223099
0.463700	0.357800
0.463800	0.777809
0.463900	1.024491
0.464000	1.294868
0.464100	1.681769
0.464200	2.082952
0.464300	2.488680
0.464400	2.911935
0.464500	3.347201
0.464600	3.666915
0.464700	3.956768
0.464800	4.186898
0.464900	4.276808
0.465000	4.325171
0.465100	4.319978
0.465200	4.273562
0.465300	4.119060
0.465400	4.007728
0.465500	3.805837
0.465600	3.588691
0.465700	3.089807
0.465800	2.049845
0.465900	1.073503
0.466000	0.897904
0.466100	1.524671
0.466200	2.177081
0.466300	2.053415
0.466400	1.148157
0.466500	0.094565
0.466600	-0.301425
0.466700	-0.007029
0.466800	0.454201
0.466900	0.438297
0.467000	-0.195611
0.467100	-0.823677
0.467200	-0.901252
0.467300	-0.935333
0.467400	-0.948966
0.467500	-0.970713
0.467600	-1.010636
0.467700	-1.049262
0.467800	-1.085615
0.467900	-1.107362
0.468000	-1.123915
0.468100	-1.164164
0.468200	-1.197271
0.468300	-1.209605
0.468400	-1.204736
0.468500	-1.209605
0.468600	-1.237195
0.468700	-1.279390
0.468800	-1.308603
0.468900	-1.272574
0.469000	-1.201166
0.469100	-1.198894
0.469200	-1.275171
0.469300	-1.388450
0.469400	-1.449796
0.469500	-1.416364
0.469600	-1.328078
0.469700	-1.276469
0.469800	-1.301787
0.469900	-1.399161
0.470000	-1.479982
0.470100	-1.487772
0.470200	-1.446226
0.470300	-1.406627
0.470400	-1.394617
0.470500	-1.417987
0.470600	-1.445901
0.470700	-1.464402
0.470800	-1.483228
0.470900	-1.501080
0.471000	-1.516985
0.471100	-1.501729
0.471200	-1.469271
0.471300	-1.431944
0.471400	-1.411820
0.471500	-1.405977
0.471600	-1.392345
0.471700	-1.356966
0.471800	-1.281662
0.471900	-1.227457
0.472000	-1.162216
0.472100	-1.096001
0.472200	-1.038550
0.472300	-0.986942
0.472400	-0.928842
0.472500	-0.871391
0.472600	-0.807448
0.472700	-0.770770
0.472800	-0.740259
0.472900	-0.731496
0.473000	-0.728250
0.473100	-0.724680
0.473200	-0.727276
0.473300	-0.717539
0.473400	-0.709100
0.473500	-0.691248
0.473600	-0.681510
0.473700	-0.662684
0.473800	-0.663334
0.473900	-0.645806
0.474000	-0.597768
0.474100	-0.450732
0.474200	-0.271888
0.474300	-0.168671
0.474400	-0.219630
0.474500	-0.318303
0.474600	-0.305969
0.474700	-0.181979
0.474800	-0.012872
0.474900	0.081906
0.475000	0.073792
0.475100	0.016016
0.475200	-0.009950
0.475300	0.034842
0.475400	0.133839
0.475500	0.300999
0.475600	0.673294
0.475700	0.828768
0.475800	1.094601
0.475900	1.413664
0.476000	1.774599
0.476100	2.016737
0.476200	2.167019
0.476300	2.240050
0.476400	2.423114
0.476500	2.507181
0.476600	2.413052
0.476700	2.238427
0.476800	1.869053
0.476900	1.651907
0.477000	1.659697
0.477100	1.734351
0.477200	1.571736
0.477300	0.792740
0.477400	0.231214
0.477500	0.207195
0.477600	0.688549
0.477700	1.283832
0.477800	1.177044
0.477900	0.534048
0.478000	-0.148871
0.478100	-0.228719
0.478200	0.243223
0.478300	0.928090
0.478400	1.070257
0.478500	0.750220
0.478600	0.352607
0.478700	0.282498
0.478800	0.416225
0.478900	0.609027
0.479000	0.604158
0.479100	0.429208
0.479200	0.240951
0.479300	0.184798
0.479400	0.229915
0.479500	0.214660
0.479600	0.177333
0.479700	0.177982
0.479800	0.287691
0.479900	0.424340
0.480000	0.477571
0.480100	0.217581
0.480200	-0.040461
0.480300	-0.079411
0.480400	0.056264
0.480500	0.250039
0.480600	0.265295
0.480700	0.359099
0.480800	0.573647
0.480900	0.816434
0.481000	1.032930
0.481100	1.288700
0.481200	1.496433
0.481300	1.656452
0.481400	1.789206
0.481500	1.972919
0.481600	2.113787
0.481700	2.248164
0.481800	2.353004
0.481900	2.427334
0.482000	2.532498
0.482100	2.506856
0.482200	2.539964
0.482300	2.447782
0.482400	1.998885
0.482500	0.975804
0.482600	0.303271
0.482700	0.498669
0.482800	1.208529
0.482900	1.616528
0.483000	1.075126
0.483100	-0.215411
0.483200	-0.987266
0.483300	-1.039200
0.483400	-0.997004
0.483500	-0.958379
0.483600	-0.970064
0.483700	-1.054130
0.483800	-1.138846
0.483900	-1.173901
0.484000	-1.173577
0.484100	-1.142417
0.484200	-1.139820
0.484300	-1.156698
0.484400	-1.178445
0.484500	-1.194999
0.484600	-1.200192
0.484700	-1.195973
0.484800	-1.216746
0.484900	-1.254073
0.485000	-1.290426
0.485100	-1.308603
0.485200	-1.339763
0.485300	-1.389424
0.485400	-1.465051
0.485500	-1.506598
0.485600	-1.493939
0.485700	-1.480956
0.485800	-1.548794
0.485900	-1.684469
0.486000	-1.853901
0.486100	-1.953873
0.486200	-1.958742
0.486300	-1.924985
0.486400	-1.948355
0.486500	-2.061959
0.486600	-2.232365
0.486700	-2.363821
0.486800	-2.400175
0.486900	-2.389464
0.487000	-2.394657
0.487100	-2.431659
0.487200	-2.489760
0.487300	-2.539097
0.487400	-2.564089
0.487500	-2.574152
0.487600	-2.563765
0.487700	-2.551755
0.487800	-2.529684
0.487900	-2.470934
0.488000	-2.401149
0.488100	-2.340451
0.488200	-2.287869
0.488300	-2.235611
0.488400	-2.156413
0.488500	-2.037940
0.488600	-1.909730
0.488700	-1.791906
0.488800	-1.708813
0.488900	-1.617281
0.489000	-1.524450
0.489100	-1.428049
0.489200	-1.317042
0.489300	-1.194999
0.489400	-1.104116
0.489500	-1.033682
0.489600	-0.978827
0.489700	-0.928842
0.489800	-0.880803
0.489900	-0.846073
0.490000	-0.792842
0.490100	-0.763629
0.490200	-0.719811
0.490300	-0.695792
0.490400	-0.671773
0.490500	-0.671448
0.490600	-0.649377
0.490700	-0.601014
0.490800	-0.468260
0.490900	-0.339401
0.491000	-0.318303
0.491100	-0.440670
0.491200	-0.548756
0.491300	-0.540317
0.491400	-0.442618
0.491500	-0.334532
0.491600	-0.304346
0.491700	-0.347191
0.491800	-0.424766
0.491900	-0.427038
0.492000	-0.362446
0.492100	-0.268642
0.492200	-0.194962
0.492300	-0.155363
0.492400	-0.140108
0.492500	-0.129397
0.492600	-0.109272
0.492700	-0.080709
0.492800	-0.046304
0.492900	0.127348
0.493000	0.362669
0.493100	0.594096
0.493200	0.698287
0.493300	0.602860
0.493400	0.445113
0.493500	0.305543
0.493600	0.249715
0.493700	0.422068
0.493800	0.517819
0.493900	0.339299
0.494000	-0.303372
0.494100	-0.464040
0.494200	-0.239105
0.494300	0.506459
0.494400	1.068634
0.494500	1.000797
0.494600	0.535996
0.494700	0.200054
0.494800	0.501590
0.494900	1.276366
0.495000	1.985902
0.495100	2.215706
0.495200	1.998885
0.495300	1.892423
0.495400	2.039458
0.495500	2.261472
0.495600	2.463687
0.495700	2.471801
0.495800	2.366961
0.495900	2.315028
0.496000	2.332231
0.496100	2.241024
0.496200	2.099506
0.496300	2.014141
0.496400	2.056012
0.496500	2.192661
0.496600	2.260823
0.496700	2.072890
0.496800	1.573359
0.496900	1.175421
0.497000	0.982620
0.497100	0.931661
0.497200	0.842401
0.497300	0.645704
0.497400	0.511328
0.497500	0.379872
0.497600	0.271137
0.497700	0.200054
0.497800	0.109171
0.497900	0.090670
0.498000	0.069572
0.498100	0.064379
0.498200	-0.008328
0.498300	-0.062533
0.498400	-0.153416
0.498500	-0.239754
0.498600	-0.347840
0.498700	-0.530580
0.498800	-0.693844
0.498900	-0.909367
0.499000	-1.397863
0.499100	-1.318665
0.499200	-1.471543
0.499300	-1.571839
0.499400	-1.538407
0.499500	-1.473491
0.499600	-1.480307
0.499700	-1.590989
0.499800	-1.773730
0.499900	-1.910703
0.500000	-1.956470
0.500100	-1.933749
0.500200	-1.938942
0.500300	-2.015219
0.500400	-2.152193
0.500500	-2.270991
0.500600	-2.332661
0.500700	-2.363497
0.500800	-2.384595
0.500900	-2.414781
0.501000	-2.454056
0.501100	-2.480996
0.501200	-2.500796
0.501300	-2.505340
0.501400	-2.502743
0.501500	-2.526438
0.501600	-2.533579
0.501700	-2.531631
0.501800	-2.522218
0.501900	-2.529034
0.502000	-2.551755
0.502100	-2.578047
0.502200	-2.570906
0.502300	-2.506638
0.502400	-2.482944
0.502500	-2.539421
0.502600	-2.637445
0.502700	-2.728004
0.502800	-2.716968
0.502900	-2.624137
0.503000	-2.522543
0.503100	-2.491383
0.503200	-2.537149
0.503300	-2.600118
0.503400	-2.611479
0.503500	-2.562142
0.503600	-2.490084
0.503700	-2.443994
0.503800	-2.436528
0.503900	-2.436204
0.504000	-2.419650
0.504100	-2.389788
0.504200	-2.352136
0.504300	-2.289492
0.504400	-2.204127
0.504500	-2.121033
0.504600	-2.024307
0.504700	-1.941539
0.504800	-1.896746
0.504900	-1.866560
0.505000	-1.839944
0.505100	-1.768861
0.505200	-1.717577
0.505300	-1.643247
0.505400	-1.613386
0.505500	-1.608517
0.505600	-1.617930
0.505700	-1.610789
0.505800	-1.604622
0.505900	-1.590016
0.506000	-1.576383
0.506100	-1.575410
0.506200	-1.593262
0.506300	-1.628966
0.506400	-1.657529
0.506500	-1.705567
0.506600	-1.743868
0.506700	-1.787362
0.506800	-1.822092
0.506900	-1.862665
0.507000	-1.913949
0.507100	-1.979515
0.507200	-2.039238
0.507300	-2.074942
0.507400	-2.038265
0.507500	-1.928556
0.507600	-1.838971
0.507700	-1.891878
0.507800	-2.045081
0.507900	-2.137587
0.508000	-2.077215
0.508100	-1.951276
0.508200	-1.820145
0.508300	-1.800670
0.508400	-1.846761
0.508500	-1.899343
0.508600	-1.864288
0.508700	-1.766264
0.508800	-1.658178
0.508900	-1.596183
0.509000	-1.571190
0.509100	-1.551390
0.509200	-1.525424
0.509300	-1.480631
0.509400	-1.434541
0.509500	-1.398837
0.509600	-1.380335
0.509700	-1.350798
0.509800	-1.308927
0.509900	-1.294646
0.510000	-1.296918
0.510100	-1.318989
0.510200	-1.322235
0.510300	-1.299190
0.510400	-1.243037
0.510500	-1.215772
0.510600	-1.235896
0.510700	-1.308603
0.510800	-1.312173
0.510900	-1.248555
0.511000	-1.138197
0.511100	-1.092431
0.511200	-1.132355
0.511300	-1.242713
0.511400	-1.297892
0.511500	-1.279066
0.511600	-1.190779
0.511700	-1.133004
0.511800	-1.163839
0.511900	-1.226159
0.512000	-1.264784
0.512100	-1.277443
0.512200	-1.250503
0.512300	-1.237844
0.512400	-1.249204
0.512500	-1.276469
0.512600	-1.303734
0.512700	-1.312822
0.512800	-1.315744
0.512900	-1.332946
0.513000	-1.344956
0.513100	-1.346903
0.513200	-1.342035
0.513300	-1.344956
0.513400	-1.387801
0.513500	-1.459209
0.513600	-1.504326
0.513700	-1.522827
0.513800	-1.514063
0.513900	-1.525748
0.514000	-1.548469
0.514100	-1.562102
0.514200	-1.576708
0.514300	-1.587095
0.514400	-1.602999
0.514500	-1.615009
0.514600	-1.633185
0.514700	-1.644221
0.514800	-1.660126
0.514900	-1.680899
0.515000	-1.706216
0.515100	-1.729586
0.515200	-1.756527
0.515300	-1.777625
0.515400	-1.797099
0.515500	-1.820469
0.515600	-1.846111
0.515700	-1.899343
0.515800	-2.016193
0.515900	-2.126551
0.516000	-2.129797
0.516100	-1.998665
0.516200	-1.860069
0.516300	-1.813329
0.516400	-1.884412
0.516500	-1.991525
0.516600	-2.019763
0.516700	-1.954522
0.516800	-1.850331
0.516900	-1.802293
0.517000	-1.836699
0.517100	-1.925959
0.517200	-1.981138
0.517300	-1.979190
0.517400	-1.963286
0.517500	-1.957119
0.517600	-1.987630
0.517700	-2.031124
0.517800	-2.082732
0.517900	-2.137587
0.518000	-2.174589
0.518100	-2.235286
0.518200	-2.303124
0.518300	-2.363497
0.518400	-2.407316
0.518500	-2.457301
0.518600	-2.510858
0.518700	-2.585837
0.518800	-2.645560
0.518900	-2.646534
0.519000	-2.616023
0.519100	-2.639717
0.519200	-2.725083
0.519300	-2.861733
0.519400	-2.957161
0.519500	-2.949046
0.519600	-2.873093
0.519700	-2.820511
0.519800	-2.862057
0.519900	-2.969495
0.520000	-3.073686
0.520100	-3.102899
0.520200	-3.050965
0.520300	-2.975337
0.520400	-2.929246
0.520500	-2.934440
0.520600	-2.957485
0.520700	-2.962029
0.520800	-2.951318
0.520900	-2.921456
0.521000	-2.886726
0.521100	-2.818888
0.521200	-2.734171
0.521300	-2.640367
0.521400	-2.568309
0.521500	-2.518648
0.521600	-2.468986
0.521700	-2.401149
0.521800	-2.292089
0.521900	-2.197959
0.522000	-2.092470
0.522100	-1.996718
0.522200	-1.924011
0.522300	-1.861691
0.522400	-1.791257
0.522500	-1.727314
0.522600	-1.645195
0.522700	-1.582875
0.522800	-1.544250
0.522900	-1.518608
0.523000	-1.507247
0.523100	-1.496211
0.523200	-1.496211
0.523300	-1.475763
0.523400	-1.460183
0.523500	-1.442006
0.523600	-1.430321
0.523700	-1.437462
0.523800	-1.437137
0.523900	-1.445252
0.524000	-1.411820
0.524100	-1.330999
0.524200	-1.153777
0.524300	-1.079448
0.524400	-1.128784
0.524500	-1.245958
0.524600	-1.264784
0.524700	-1.154426
0.524800	-0.991486
0.524900	-0.876259
0.525000	-0.870092
0.525100	-0.926570
0.525200	-0.949290
0.525300	-0.909367
0.525400	-0.810369
0.525500	-0.733443
0.525600	-0.679887
0.525700	-0.680861
0.525800	-0.678264
0.525900	-0.665930
0.526000	-0.635744
0.526100	-0.602961
0.526200	-0.567257
0.526300	-0.534799
0.526400	-0.505262
0.526500	-0.487410
0.526600	-0.506236
0.526700	-0.525062
0.526800	-0.553625
0.526900	-0.564336
0.527000	-0.551028
0.527100	-0.543563
0.527200	-0.554274
0.527300	-0.663983
0.527400	-0.745128
0.527500	-0.771744
0.527600	-0.715916
0.527700	-0.659439
0.527800	-0.683782
0.527900	-0.797710
0.528000	-0.934035
0.528100	-1.012908
0.528200	-1.013882
0.528300	-0.986293
0.528400	-1.021672
0.528500	-1.130407
0.528600	-1.268679
0.528700	-1.361185
0.528800	-1.440059
0.528900	-1.496536
0.529000	-1.571839
0.529100	-1.653959
0.529200	-1.738350
0.529300	-1.811706
0.529400	-1.869806
0.529500	-1.936346
0.529600	-1.998990
0.529700	-2.047028
0.529800	-2.057415
0.529900	-2.064556
0.530000	-2.081759
0.530100	-2.155114
0.530200	-2.226847
0.530300	-2.271640
0.530400	-2.274886
0.530500	-2.268069
0.530600	-2.303449
0.530700	-2.342074
0.530800	-2.372261
0.530900	-2.395631
0.531000	-2.403421
0.531100	-2.411211
0.531200	-2.414781
0.531300	-2.405044
0.531400	-2.401149
0.531500	-2.386867
0.531600	-2.367392
0.531700	-2.351163
0.531800	-2.345969
0.531900	-2.323573
0.532000	-2.313836
0.532100	-2.309616
0.532200	-2.318380
0.532300	-2.338504
0.532400	-2.400175
0.532500	-2.553703
0.532600	-2.669904
0.532700	-2.678018
0.532800	-2.577397
0.532900	-2.500796
0.533000	-2.543965
0.533100	-2.701064
0.533200	-2.846802
0.533300	-2.893217
0.533400	-2.851346
0.533500	-2.800062
0.533600	-2.822783
0.533700	-2.917561
0.533800	-3.022727
0.533900	-3.097381
0.534000	-3.119128
0.534100	-3.126594
0.534200	-3.148341
0.534300	-3.180799
0.534400	-3.210661
0.534500	-3.229487
0.534600	-3.233057
0.534700	-3.246690
0.534800	-3.270060
0.534900	-3.291482
0.535000	-3.303817
0.535100	-3.292781
0.535200	-3.290184
0.535300	-3.300895
0.535400	-3.316800
0.535500	-3.306738
0.535600	-3.234031
0.535700	-3.157429
0.535800	-3.166842
0.535900	-3.255778
0.536000	-3.375225
0.536100	-3.433975
0.536200	-3.397622
0.536300	-3.331082
0.536400	-3.310958
0.536500	-3.393402
0.536600	-3.532974
0.536700	-3.637490
0.536800	-3.645605
0.536900	-3.601461
0.537000	-3.569976
0.537100	-3.570625
0.537200	-3.582960
0.537300	-3.587179
0.537400	-3.572248
0.537500	-3.542387
0.537600	-3.498568
0.537700	-3.443713
0.537800	-3.361268
0.537900	-3.253181
0.538000	-3.148341
0.538100	-3.063624
0.538200	-2.989944
0.538300	-2.909771
0.538400	-2.790000
0.538500	-2.631927
0.538600	-2.503717
0.538700	-2.343697
0.538800	-2.216785
0.538900	-2.093119
0.539000	-1.973348
0.539100	-1.845462
0.539200	-1.721147
0.539300	-1.578980
0.539400	-1.467324
0.539500	-1.373519
0.539600	-1.295944
0.539700	-1.228106
0.539800	-1.179094
0.539900	-1.124565
0.540000	-1.082044
0.540100	-1.019725
0.540200	-0.984670
0.540300	-0.942799
0.540400	-0.930465
0.540500	-0.918780
0.540600	-0.909042
0.540700	-0.861978
0.540800	-0.718188
0.540900	-0.585109
0.541000	-0.523114
0.541100	-0.639964
0.541200	-0.757138
0.541300	-0.766226
0.541400	-0.659114
0.541500	-0.527009
0.541600	-0.486436
0.541700	-0.529281
0.541800	-0.620489
0.541900	-0.651973
0.542000	-0.605883
0.542100	-0.518245
0.542200	-0.457873
0.542300	-0.454952
0.542400	-0.467611
0.542500	-0.485787
0.542600	-0.472804
0.542700	-0.453654
0.542800	-0.433530
0.542900	-0.423792
0.543000	-0.415028
0.543100	-0.402370
0.543200	-0.399449
0.543300	-0.424117
0.543400	-0.441320
0.543500	-0.479620
0.543600	-0.499420
0.543700	-0.490331
0.543800	-0.498771
0.543900	-0.531878
0.544000	-0.670474
0.544100	-0.757138
0.544200	-0.799333
0.544300	-0.763305
0.544400	-0.766875
0.544500	-0.828546
0.544600	-0.984345
0.544700	-1.117099
0.544800	-1.186235
0.544900	-1.176173
0.545000	-1.145987
0.545100	-1.184937
0.545200	-1.285233
0.545300	-1.389424
0.545400	-1.443304
0.545500	-1.475438
0.545600	-1.480631
0.545700	-1.530942
0.545800	-1.585796
0.545900	-1.652336
0.546000	-1.696479
0.546100	-1.722445
0.546200	-1.754904
0.546300	-1.779897
0.546400	-1.780221
0.546500	-1.769510
0.546600	-1.746465
0.546700	-1.742570
0.546800	-1.774054
0.546900	-1.801968
0.547000	-1.807811
0.547100	-1.769185
0.547200	-1.737701
0.547300	-1.728288
0.547400	-1.714980
0.547500	-1.703295
0.547600	-1.690312
0.547700	-1.677653
0.547800	-1.658178
0.547900	-1.642598
0.548000	-1.615009
0.548100	-1.594235
0.548200	-1.569242
0.548300	-1.549443
0.548400	-1.528670
0.548500	-1.507247
0.548600	-1.491667
0.548700	-1.478035
0.548800	-1.494913
0.548900	-1.521529
0.549000	-1.566970
0.549100	-1.692259
0.549200	-1.878894
0.549300	-2.013596
0.549400	-2.021711
0.549500	-1.979840
0.549600	-1.980813
0.549700	-2.118761
0.549800	-2.314809
0.549900	-2.477750
0.550000	-2.548185
0.550100	-2.535526
0.550200	-2.541044
0.550300	-2.613426
0.550400	-2.744233
0.550500	-2.874392
0.550600	-2.969819
0.550700	-3.014937
0.550800	-3.033438
0.550900	-3.057132
0.551000	-3.102899
0.551100	-3.153859
0.551200	-3.197678
0.551300	-3.220723
0.551400	-3.256752
0.551500	-3.294728
0.551600	-3.346662
0.551700	-3.380419
0.551800	-3.417421
0.551900	-3.456371
0.552000	-3.506358
0.552100	-3.556668
0.552200	-3.581012
0.552300	-3.539790
0.552400	-3.517393
0.552500	-3.570625
0.552600	-3.685853
0.552700	-3.792966
0.552800	-3.813740
0.552900	-3.734216
0.553000	-3.631323
0.553100	-3.591399
0.553200	-3.618015
0.553300	-3.666703
0.553400	-3.666703
0.553500	-3.594969
0.553600	-3.494997
0.553700	-3.401517
0.553800	-3.352180
0.553900	-3.325239
0.554000	-3.301869
0.554100	-3.268437
0.554200	-3.210985
0.554300	-3.144770
0.554400	-3.070765
0.554500	-2.973390
0.554600	-2.870821
0.554700	-2.779613
0.554800	-2.715021
0.554900	-2.663737
0.555000	-2.607908
0.555100	-2.517349
0.555200	-2.429712
0.555300	-2.359602
0.555400	-2.267096
0.555500	-2.206723
0.555600	-2.154790
0.555700	-2.094093
0.555800	-2.036317
0.555900	-1.967181
0.556000	-1.902264
0.556100	-1.862990
0.556200	-1.843190
0.556300	-1.836699
0.556400	-1.847085
0.556500	-1.864937
0.556600	-1.880842
0.556700	-1.890255
0.556800	-1.897071
0.556900	-1.916871
0.557000	-1.937644
0.557100	-1.984708
0.557200	-2.008078
0.557300	-2.039887
0.557400	-1.973997
0.557500	-1.848708
0.557600	-1.725367
0.557700	-1.733157
0.557800	-1.855849
0.557900	-1.941863
0.558000	-1.892527
0.558100	-1.754579
0.558200	-1.644546
0.558300	-1.593262
0.558400	-1.626369
0.558500	-1.661099
0.558600	-1.633185
0.558700	-1.543600
0.558800	-1.431944
0.558900	-1.346903
0.559000	-1.303734
0.559100	-1.275495
0.559200	-1.261863
0.559300	-1.245634
0.559400	-1.229405
0.559500	-1.201491
0.559600	-1.183963
0.559700	-1.141768
0.559800	-1.120670
0.559900	-1.097949
0.560000	-1.107686
0.560100	-1.085290
0.560200	-1.097300
0.560300	-1.058025
0.560400	-1.027839
0.560500	-1.006092
0.560600	-1.040498
0.560700	-1.142092
0.560800	-1.185586
0.560900	-1.150531
0.561000	-1.086589
0.561100	-1.077500
0.561200	-1.167085
0.561300	-1.322235
0.561400	-1.421233
0.561500	-1.431944
0.561600	-1.396889
0.561700	-1.407276
0.561800	-1.492641
0.561900	-1.601376
0.562000	-1.673109
0.562100	-1.718226
0.562200	-1.762694
0.562300	-1.826637
0.562400	-1.908431
0.562500	-1.988603
0.562600	-2.065530
0.562700	-2.114866
0.562800	-2.175888
0.562900	-2.242103
0.563000	-2.280404
0.563100	-2.304423
0.563200	-2.316432
0.563300	-2.330714
0.563400	-2.387191
0.563500	-2.483268
0.563600	-2.543316
0.563700	-2.579994
0.563800	-2.574476
0.563900	-2.598495
0.564000	-2.636472
0.564100	-2.660491
0.564200	-2.673799
0.564300	-2.672176
0.564400	-2.673799
0.564500	-2.666333
0.564600	-2.657570
0.564700	-2.646858
0.564800	-2.644262
0.564900	-2.637445
0.565000	-2.630629
0.565100	-2.624787
0.565200	-2.604338
0.565300	-2.592328
0.565400	-2.575125
0.565500	-2.581617
0.565600	-2.577722
0.565700	-2.616997
0.565800	-2.734171
0.565900	-2.856539
0.566000	-2.891919
0.566100	-2.804931
0.566200	-2.702038
0.566300	-2.680615
0.566400	-2.766305
0.566500	-2.877637
0.566600	-2.920158
0.566700	-2.875041
0.566800	-2.779288
0.566900	-2.739689
0.567000	-2.761112
0.567100	-2.835442
0.567200	-2.890296
0.567300	-2.901007
0.567400	-2.897112
0.567500	-2.889972
0.567600	-2.900683
0.567700	-2.924053
0.567800	-2.939633
0.567900	-2.949046
0.568000	-2.967872
0.568100	-2.985399
0.568200	-3.000006
0.568300	-3.024674
0.568400	-3.030841
0.568500	-3.030192
0.568600	-3.044474
0.568700	-3.088942
0.568800	-3.124971
0.568900	-3.101925
0.569000	-3.024349
0.569100	-2.991566
0.569200	-3.066870
0.569300	-3.190537
0.569400	-3.268437
0.569500	-3.241496
0.569600	-3.141200
0.569700	-3.074011
0.569800	-3.102899
0.569900	-3.213258
0.570000	-3.297000
0.570100	-3.285965
0.570200	-3.206766
0.570300	-3.137954
0.570400	-3.107768
0.570500	-3.100302
0.570600	-3.066221
0.570700	-3.016559
0.570800	-2.962678
0.570900	-2.912368
0.571000	-2.873742
0.571100	-2.812721
0.571200	-2.724109
0.571300	-2.629655
0.571400	-2.563116
0.571500	-2.529359
0.571600	-2.498848
0.571700	-2.461196
0.571800	-2.382323
0.571900	-2.314485
0.572000	-2.255411
0.572100	-2.200881
0.572200	-2.167773
0.572300	-2.135315
0.572400	-2.087926
0.572500	-2.031448
0.572600	-1.964260
0.572700	-1.906159
0.572800	-1.858770
0.572900	-1.841567
0.573000	-1.827610
0.573100	-1.815601
0.573200	-1.814627
0.573300	-1.806512
0.573400	-1.798398
0.573500	-1.784441
0.573600	-1.775677
0.573700	-1.789959
0.573800	-1.791906
0.573900	-1.813978
0.574000	-1.785090
0.574100	-1.696803
0.574200	-1.536784
0.574300	-1.461806
0.574400	-1.507896
0.574500	-1.613710
0.574600	-1.637729
0.574700	-1.544250
0.574800	-1.378388
0.574900	-1.274846
0.575000	-1.239142
0.575100	-1.292374
0.575200	-1.303409
0.575300	-1.271276
0.575400	-1.168383
0.575500	-1.083343
0.575600	-1.018426
0.575700	-1.010312
0.575800	-1.000574
0.575900	-0.983696
0.576000	-0.960651
0.576100	-0.921376
0.576200	-0.902875
0.576300	-0.888918
0.576400	-0.895085
0.576500	-0.910340
0.576600	-0.934360
0.576700	-0.978178
0.576800	-1.015505
0.576900	-1.081071
0.577000	-1.110283
0.577100	-1.133004
0.577200	-1.153452
0.577300	-1.260889
0.577400	-1.393968
0.577500	-1.441032
0.577600	-1.413443
0.577700	-1.367028
0.577800	-1.391371
0.577900	-1.522178
0.578000	-1.684145
0.578100	-1.767238
0.578200	-1.760422
0.578300	-1.714655
0.578400	-1.729911
0.578500	-1.825987
0.578600	-1.948030
0.578700	-2.007429
0.578800	-2.039563
0.578900	-2.042809
0.579000	-2.092145
0.579100	-2.159334
0.579200	-2.234637
0.579300	-2.285921
0.579400	-2.296308
0.579500	-2.321301
0.579600	-2.340451
0.579700	-2.349540
0.579800	-2.327468
0.579900	-2.289492
0.580000	-2.246322
0.580100	-2.244699
0.580200	-2.258981
0.580300	-2.243401
0.580400	-2.184652
0.580500	-2.104804
0.580600	-2.058713
0.580700	-2.029825
0.580800	-1.995420
0.580900	-1.952250
0.581000	-1.911353
0.581100	-1.869157
0.581200	-1.827610
0.581300	-1.799047
0.581400	-1.766913
0.581500	-1.739324
0.581600	-1.715629
0.581700	-1.702646
0.581800	-1.690312
0.581900	-1.688364
0.582000	-1.679276
0.582100	-1.679276
0.582200	-1.689663
0.582300	-1.698751
0.582400	-1.763343
0.582500	-1.897071
0.582600	-1.998665
0.582700	-1.983410
0.582800	-1.892527
0.582900	-1.810732
0.583000	-1.837023
0.583100	-1.964909
0.583200	-2.094742
0.583300	-2.142780
0.583400	-2.110971
0.583500	-2.054494
0.583600	-2.067477
0.583700	-2.143105
0.583800	-2.262876
0.583900	-2.342399
0.584000	-2.379726
0.584100	-2.389788
0.584200	-2.406991
0.584300	-2.438476
0.584400	-2.492681
0.584500	-2.543641
0.584600	-2.576424
0.584700	-2.605636
0.584800	-2.617970
0.584900	-2.647183
0.585000	-2.684510
0.585100	-2.695870
0.585200	-2.710477
0.585300	-2.733847
0.585400	-2.765007
0.585500	-2.774744
0.585600	-2.735794
0.585700	-2.674448
0.585800	-2.677369
0.585900	-2.782534
0.586000	-2.909447
0.586100	-2.986698
0.586200	-2.960731
0.586300	-2.882506
0.586400	-2.848100
0.586500	-2.918210
0.586600	-3.046421
0.586700	-3.138928
0.586800	-3.144446
0.586900	-3.081152
0.587000	-3.035710
0.587100	-3.042202
0.587200	-3.072388
0.587300	-3.099978
0.587400	-3.113610
0.587500	-3.109066
0.587600	-3.098355
0.587700	-3.083424
0.587800	-3.043175
0.587900	-2.983776
0.588000	-2.931194
0.588100	-2.900683
0.588200	-2.879585
0.588300	-2.866926
0.588400	-2.821809
0.588500	-2.742611
0.588600	-2.688730
0.588700	-2.613102
0.588800	-2.584863
0.588900	-2.559545
0.589000	-2.539421
0.589100	-2.512481
0.589200	-2.480996
0.589300	-2.435554
0.589400	-2.408289
0.589500	-2.398876
0.589600	-2.403096
0.589700	-2.399526
0.589800	-2.396929
0.589900	-2.379401
0.590000	-2.367392
0.590100	-2.330714
0.590200	-2.298580
0.590300	-2.269043
0.590400	-2.260929
0.590500	-2.247296
0.590600	-2.233664
0.590700	-2.184002
0.590800	-2.045405
0.590900	-1.901615
0.591000	-1.855849
0.591100	-1.950627
0.591200	-2.070074
0.591300	-2.065205
0.591400	-1.967830
0.591500	-1.830207
0.591600	-1.771457
0.591700	-1.798073
0.591800	-1.868508
0.591900	-1.900966
0.592000	-1.874675
0.592100	-1.803916
0.592200	-1.733806
0.592300	-1.698751
0.592400	-1.682522
0.592500	-1.685768
0.592600	-1.678627
0.592700	-1.654608
0.592800	-1.619877
0.592900	-1.586445
0.593000	-1.550092
0.593100	-1.530942
0.593200	-1.535486
0.593300	-1.558207
0.593400	-1.570541
0.593500	-1.590989
0.593600	-1.604297
0.593700	-1.597806
0.593800	-1.570216
0.593900	-1.588068
0.594000	-1.669538
0.594100	-1.733481
0.594200	-1.703620
0.594300	-1.613710
0.594400	-1.525099
0.594500	-1.535486
0.594600	-1.640326
0.594700	-1.738350
0.594800	-1.740622
0.594900	-1.657204
0.595000	-1.573787
0.595100	-1.564698
0.595200	-1.617605
0.595300	-1.671161
0.595400	-1.673433
0.595500	-1.660450
0.595600	-1.648441
0.595700	-1.664994
0.595800	-1.694856
0.595900	-1.727639
0.596000	-1.742894
0.596100	-1.752632
0.596200	-1.777300
0.596300	-1.805863
0.596400	-1.818522
0.596500	-1.811706
0.596600	-1.801644
0.596700	-1.819171
0.596800	-1.885386
0.596900	-1.951601
0.597000	-1.989253
0.597100	-1.965558
0.597200	-1.961663
0.597300	-1.986007
0.597400	-2.001262
0.597500	-2.004183
0.597600	-2.002560
0.597700	-2.003534
0.597800	-1.993472
0.597900	-1.994446
0.598000	-1.996393
0.598100	-2.000288
0.598200	-2.009377
0.598300	-2.015868
0.598400	-2.018790
0.598500	-2.018465
0.598600	-2.013272
0.598700	-2.008078
0.598800	-2.017816
0.598900	-2.034045
0.599000	-2.058389
0.599100	-2.161282
0.599200	-2.309291
0.599300	-2.402447
0.599400	-2.374208
0.599500	-2.298256
0.599600	-2.251516
0.599700	-2.341425
0.599800	-2.493655
0.599900	-2.625111
0.600000	-2.654648
0.600100	-2.603689
0.600200	-2.557922
0.600300	-2.572529
0.600400	-2.658219
0.600500	-2.751050
0.600600	-2.798439
0.600700	-2.807527
0.600800	-2.792272
0.600900	-2.778964
0.601000	-2.778964
0.601100	-2.792596
0.601200	-2.796491
