LabVIEW Measurement	
Writer_Version	2
Reader_Version	2
Separator	Tab
Decimal_Separator	.
Multi_Headings	Yes
X_Columns	One
Time_Pref	Relative
Operator	as989
Description	Time Domain Data
Date	1903/12/31
Time	19:00:00
***End_of_Header***	
	
Channels	1	
Samples	15000	
Date	1903/12/31	
Time	19:00:00	
X_Dimension	Time	
X0	0.0000000000000000E+0	
Delta_X	0.000100	
***End_of_Header***		
X_Value	Untitled	Comment
0.000000	-1.223562	Tare Values:0.000000, 0.000000, 0.000000, 0.000000\0D\0A
0.000100	-1.219667
0.000200	-1.188183
0.000300	-1.173901
0.000400	-1.154751
0.000500	-1.132679
0.000600	-1.138522
0.000700	-1.145338
0.000800	-1.131056
0.000900	-1.062569
0.001000	-0.919104
0.001100	-0.803553
0.001200	-0.808746
0.001300	-0.943772
0.001400	-1.011285
0.001500	-0.968116
0.001600	-0.846398
0.001700	-0.732794
0.001800	-0.709100
0.001900	-0.770446
0.002000	-0.830169
0.002100	-0.827897
0.002200	-0.773691
0.002300	-0.700660
0.002400	-0.657167
0.002500	-0.651973
0.002600	-0.658789
0.002700	-0.670474
0.002800	-0.672746
0.002900	-0.666255
0.003000	-0.666904
0.003100	-0.672746
0.003200	-0.673071
0.003300	-0.670150
0.003400	-0.708450
0.003500	-0.758761
0.003600	-0.811992
0.003700	-0.853214
0.003800	-0.868794
0.003900	-0.872689
0.004000	-0.877233
0.004100	-0.949290
0.004200	-1.074579
0.004300	-1.133004
0.004400	-1.120994
0.004500	-1.058025
0.004600	-1.041472
0.004700	-1.108011
0.004800	-1.234598
0.004900	-1.299839
0.005000	-1.295619
0.005100	-1.239467
0.005200	-1.217071
0.005300	-1.254722
0.005400	-1.326455
0.005500	-1.373844
0.005600	-1.387476
0.005700	-1.382932
0.005800	-1.403056
0.005900	-1.446226
0.006000	-1.495887
0.006100	-1.517634
0.006200	-1.524450
0.006300	-1.536460
0.006400	-1.561128
0.006500	-1.581901
0.006600	-1.568918
0.006700	-1.547495
0.006800	-1.534188
0.006900	-1.557882
0.007000	-1.616307
0.007100	-1.650388
0.007200	-1.663371
0.007300	-1.648765
0.007400	-1.630589
0.007500	-1.634808
0.007600	-1.620202
0.007700	-1.602350
0.007800	-1.585147
0.007900	-1.567944
0.008000	-1.553663
0.008100	-1.543600
0.008200	-1.524450
0.008300	-1.520555
0.008400	-1.508870
0.008500	-1.503677
0.008600	-1.504001
0.008700	-1.503028
0.008800	-1.505624
0.008900	-1.514388
0.009000	-1.524450
0.009100	-1.545873
0.009200	-1.589691
0.009300	-1.706541
0.009400	-1.852603
0.009500	-1.893501
0.009600	-1.832154
0.009700	-1.738675
0.009800	-1.742894
0.009900	-1.864937
0.010000	-2.020412
0.010100	-2.106102
0.010200	-2.095391
0.010300	-2.041510
0.010400	-2.025930
0.010500	-2.080136
0.010600	-2.176537
0.010700	-2.255086
0.010800	-2.290141
0.010900	-2.288843
0.011000	-2.290466
0.011100	-2.319354
0.011200	-2.364471
0.011300	-2.395631
0.011400	-2.405044
0.011500	-2.408939
0.011600	-2.441397
0.011700	-2.474180
0.011800	-2.509559
0.011900	-2.526762
0.012000	-2.534228
0.012100	-2.552729
0.012200	-2.580968
0.012300	-2.615049
0.012400	-2.589732
0.012500	-2.514753
0.012600	-2.487812
0.012700	-2.535526
0.012800	-2.632901
0.012900	-2.726381
0.013000	-2.714372
0.013100	-2.634849
0.013200	-2.577397
0.013300	-2.604662
0.013400	-2.703985
0.013500	-2.790974
0.013600	-2.815642
0.013700	-2.769551
0.013800	-2.728004
0.013900	-2.713723
0.014000	-2.735470
0.014100	-2.753322
0.014200	-2.740663
0.014300	-2.712424
0.014400	-2.679641
0.014500	-2.655947
0.014600	-2.628357
0.014700	-2.569607
0.014800	-2.487163
0.014900	-2.408614
0.015000	-2.349540
0.015100	-2.296308
0.015200	-2.237234
0.015300	-2.136938
0.015400	-2.021711
0.015500	-1.889606
0.015600	-1.802293
0.015700	-1.734455
0.015800	-1.667591
0.015900	-1.596183
0.016000	-1.518932
0.016100	-1.437462
0.016200	-1.360861
0.016300	-1.313147
0.016400	-1.285233
0.016500	-1.273223
0.016600	-1.254722
0.016700	-1.249529
0.016800	-1.229405
0.016900	-1.214149
0.017000	-1.196946
0.017100	-1.189481
0.017200	-1.175199
0.017300	-1.181042
0.017400	-1.177147
0.017500	-1.158970
0.017600	-1.067438
0.017700	-0.928842
0.017800	-0.824651
0.017900	-0.886646
0.018000	-0.998627
0.018100	-1.041147
0.018200	-0.969090
0.018300	-0.826598
0.018400	-0.729548
0.018500	-0.723381
0.018600	-0.783104
0.018700	-0.835037
0.018800	-0.814589
0.018900	-0.750646
0.019000	-0.681186
0.019100	-0.652622
0.019200	-0.650026
0.019300	-0.667878
0.019400	-0.675992
0.019500	-0.660088
0.019600	-0.633797
0.019700	-0.613997
0.019800	-0.624059
0.019900	-0.618866
0.020000	-0.625682
0.020100	-0.650675
0.020200	-0.692871
0.020300	-0.731496
0.020400	-0.768823
0.020500	-0.777911
0.020600	-0.786999
0.020700	-0.797710
0.020800	-0.903200
0.020900	-1.006741
0.021000	-1.048937
0.021100	-1.024918
0.021200	-0.970713
0.021300	-0.987266
0.021400	-1.094054
0.021500	-1.226159
0.021600	-1.282961
0.021700	-1.264460
0.021800	-1.216097
0.021900	-1.207658
0.022000	-1.271600
0.022100	-1.350149
0.022200	-1.390722
0.022300	-1.405328
0.022400	-1.410846
0.022500	-1.445577
0.022600	-1.496861
0.022700	-1.551715
0.022800	-1.581901
0.022900	-1.603973
0.023000	-1.632536
0.023100	-1.672135
0.023200	-1.698102
0.023300	-1.714655
0.023400	-1.724068
0.023500	-1.739973
0.023600	-1.803267
0.023700	-1.873376
0.023800	-1.923687
0.023900	-1.953873
0.024000	-1.970751
0.024100	-1.981138
0.024200	-2.004508
0.024300	-2.014570
0.024400	-2.024957
0.024500	-2.025281
0.024600	-2.023334
0.024700	-2.023983
0.024800	-2.021711
0.024900	-2.018140
0.025000	-2.023658
0.025100	-2.026904
0.025200	-2.037291
0.025300	-2.047677
0.025400	-2.058713
0.025500	-2.076241
0.025600	-2.091172
0.025700	-2.114542
0.025800	-2.132069
0.025900	-2.190494
0.026000	-2.319354
0.026100	-2.432958
0.026200	-2.435230
0.026300	-2.333311
0.026400	-2.244375
0.026500	-2.260604
0.026600	-2.386542
0.026700	-2.515402
0.026800	-2.553378
0.026900	-2.502419
0.027000	-2.424519
0.027100	-2.404070
0.027200	-2.456003
0.027300	-2.529034
0.027400	-2.574801
0.027500	-2.572529
0.027600	-2.555650
0.027700	-2.542667
0.027800	-2.543641
0.027900	-2.569932
0.028000	-2.584214
0.028100	-2.601092
0.028200	-2.614075
0.028300	-2.645560
0.028400	-2.680290
0.028500	-2.705933
0.028600	-2.718267
0.028700	-2.733198
0.028800	-2.767279
0.028900	-2.807852
0.029000	-2.835442
0.029100	-2.801036
0.029200	-2.740663
0.029300	-2.752997
0.029400	-2.834792
0.029500	-2.958783
0.029600	-3.023376
0.029700	-2.987022
0.029800	-2.912368
0.029900	-2.877313
0.030000	-2.924702
0.030100	-3.031815
0.030200	-3.115558
0.030300	-3.124646
0.030400	-3.070765
0.030500	-3.022727
0.030600	-3.009419
0.030700	-3.019156
0.030800	-3.032139
0.030900	-3.041552
0.031000	-3.028244
0.031100	-3.005848
0.031200	-2.982154
0.031300	-2.950020
0.031400	-2.901657
0.031500	-2.844854
0.031600	-2.803957
0.031700	-2.774420
0.031800	-2.755918
0.031900	-2.691651
0.032000	-2.610830
0.032100	-2.525789
0.032200	-2.418351
0.032300	-2.358304
0.032400	-2.300852
0.032500	-2.242427
0.032600	-2.170694
0.032700	-2.097663
0.032800	-2.000613
0.032900	-1.923687
0.033000	-1.865911
0.033100	-1.824040
0.033200	-1.787362
0.033300	-1.762045
0.033400	-1.741920
0.033500	-1.706541
0.033600	-1.675056
0.033700	-1.638703
0.033800	-1.606245
0.033900	-1.613061
0.034000	-1.583524
0.034100	-1.602350
0.034200	-1.539381
0.034300	-1.441357
0.034400	-1.298216
0.034500	-1.261214
0.034600	-1.367677
0.034700	-1.489395
0.034800	-1.518932
0.034900	-1.414741
0.035000	-1.290102
0.035100	-1.235247
0.035200	-1.260240
0.035300	-1.349500
0.035400	-1.378713
0.035500	-1.345930
0.035600	-1.267381
0.035700	-1.207982
0.035800	-1.196622
0.035900	-1.202789
0.036000	-1.214149
0.036100	-1.204736
0.036200	-1.194674
0.036300	-1.181042
0.036400	-1.169682
0.036500	-1.150531
0.036600	-1.133978
0.036700	-1.150856
0.036800	-1.172603
0.036900	-1.218693
0.037000	-1.252125
0.037100	-1.281662
0.037200	-1.273872
0.037300	-1.266407
0.037400	-1.281338
0.037500	-1.372221
0.037600	-1.448173
0.037700	-1.458560
0.037800	-1.408574
0.037900	-1.338140
0.038000	-1.362483
0.038100	-1.451744
0.038200	-1.553013
0.038300	-1.584498
0.038400	-1.532889
0.038500	-1.463753
0.038600	-1.451419
0.038700	-1.507247
0.038800	-1.573462
0.038900	-1.589042
0.039000	-1.591314
0.039100	-1.578980
0.039200	-1.594235
0.039300	-1.608517
0.039400	-1.638703
0.039500	-1.648116
0.039600	-1.654283
0.039700	-1.665643
0.039800	-1.684145
0.039900	-1.687391
0.040000	-1.678627
0.040100	-1.670188
0.040200	-1.680250
0.040300	-1.741596
0.040400	-1.785739
0.040500	-1.800670
0.040600	-1.803591
0.040700	-1.773405
0.040800	-1.772107
0.040900	-1.761720
0.041000	-1.752632
0.041100	-1.734455
0.041200	-1.714980
0.041300	-1.699076
0.041400	-1.683820
0.041500	-1.667591
0.041600	-1.656880
0.041700	-1.649414
0.041800	-1.637729
0.041900	-1.633510
0.042000	-1.626044
0.042100	-1.633834
0.042200	-1.629290
0.042300	-1.632861
0.042400	-1.639677
0.042500	-1.665319
0.042600	-1.753281
0.042700	-1.891878
0.042800	-1.994770
0.042900	-1.964909
0.043000	-1.874675
0.043100	-1.823391
0.043200	-1.892202
0.043300	-2.049300
0.043400	-2.174265
0.043500	-2.209644
0.043600	-2.159659
0.043700	-2.119086
0.043800	-2.146351
0.043900	-2.254112
0.044000	-2.356681
0.044100	-2.413807
0.044200	-2.430036
0.044300	-2.442371
0.044400	-2.475154
0.044500	-2.519946
0.044600	-2.563765
0.044700	-2.593627
0.044800	-2.611803
0.044900	-2.634849
0.045000	-2.675097
0.045100	-2.718267
0.045200	-2.733522
0.045300	-2.736443
0.045400	-2.746830
0.045500	-2.774095
0.045600	-2.807527
0.045700	-2.809799
0.045800	-2.744883
0.045900	-2.690677
0.046000	-2.713073
0.046100	-2.799413
0.046200	-2.909447
0.046300	-2.938335
0.046400	-2.878936
0.046500	-2.797465
0.046600	-2.774095
0.046700	-2.841284
0.046800	-2.947098
0.046900	-3.016559
0.047000	-2.998707
0.047100	-2.936712
0.047200	-2.893542
0.047300	-2.884129
0.047400	-2.902955
0.047500	-2.904578
0.047600	-2.886726
0.047700	-2.856215
0.047800	-2.822783
0.047900	-2.785456
0.048000	-2.729952
0.048100	-2.654324
0.048200	-2.587135
0.048300	-2.539746
0.048400	-2.492357
0.048500	-2.448538
0.048600	-2.375182
0.048700	-2.269692
0.048800	-2.153816
0.048900	-2.051248
0.049000	-1.990551
0.049100	-1.929529
0.049200	-1.864288
0.049300	-1.800345
0.049400	-1.719849
0.049500	-1.627343
0.049600	-1.561452
0.049700	-1.510493
0.049800	-1.482579
0.049900	-1.452717
0.050000	-1.435514
0.050100	-1.414092
0.050200	-1.394617
0.050300	-1.366054
0.050400	-1.359562
0.050500	-1.344307
0.050600	-1.357290
0.050700	-1.358913
0.050800	-1.363133
0.050900	-1.312498
0.051000	-1.194999
0.051100	-1.063868
0.051200	-1.055429
0.051300	-1.179419
0.051400	-1.283610
0.051500	-1.260889
0.051600	-1.152479
0.051700	-1.034655
0.051800	-1.005768
0.051900	-1.067438
0.052000	-1.155400
0.052100	-1.164813
0.052200	-1.120020
0.052300	-1.038226
0.052400	-0.972660
0.052500	-0.957405
0.052600	-0.966169
0.052700	-0.979476
0.052800	-0.978178
0.052900	-0.954159
0.053000	-0.940851
0.053100	-0.934360
0.053200	-0.935009
0.053300	-0.946044
0.053400	-0.961624
0.053500	-1.000574
0.053600	-1.045042
0.053700	-1.086264
0.053800	-1.106063
0.053900	-1.111906
0.054000	-1.125214
0.054100	-1.180068
0.054200	-1.305357
0.054300	-1.364106
0.054400	-1.368651
0.054500	-1.298865
0.054600	-1.269653
0.054700	-1.317042
0.054800	-1.429997
0.054900	-1.510493
0.055000	-1.520555
0.055100	-1.456288
0.055200	-1.398512
0.055300	-1.410197
0.055400	-1.477386
0.055500	-1.535161
0.055600	-1.546197
0.055700	-1.548145
0.055800	-1.543600
0.055900	-1.559830
0.056000	-1.593911
0.056100	-1.617930
0.056200	-1.625395
0.056300	-1.642598
0.056400	-1.663371
0.056500	-1.674732
0.056600	-1.669538
0.056700	-1.648441
0.056800	-1.634808
0.056900	-1.650064
0.057000	-1.704593
0.057100	-1.743868
0.057200	-1.747114
0.057300	-1.742245
0.057400	-1.716603
0.057500	-1.708813
0.057600	-1.707839
0.057700	-1.697128
0.057800	-1.691935
0.057900	-1.682522
0.058000	-1.672784
0.058100	-1.674083
0.058200	-1.673758
0.058300	-1.671161
0.058400	-1.677004
0.058500	-1.680574
0.058600	-1.692584
0.058700	-1.694531
0.058800	-1.711410
0.058900	-1.719200
0.059000	-1.739973
0.059100	-1.757176
0.059200	-1.790608
0.059300	-1.904861
0.059400	-2.053195
0.059500	-2.125902
0.059600	-2.076890
0.059700	-1.980489
0.059800	-1.969128
0.059900	-2.081759
0.060000	-2.263525
0.060100	-2.376480
0.060200	-2.389464
0.060300	-2.338504
0.060400	-2.308642
0.060500	-2.352786
0.060600	-2.456977
0.060700	-2.536500
0.060800	-2.569283
0.060900	-2.566362
0.061000	-2.564414
0.061100	-2.574476
0.061200	-2.593951
0.061300	-2.614725
0.061400	-2.621865
0.061500	-2.624137
0.061600	-2.634849
0.061700	-2.657245
0.061800	-2.668281
0.061900	-2.651078
0.062000	-2.641990
0.062100	-2.641016
0.062200	-2.658543
0.062300	-2.664061
0.062400	-2.620892
0.062500	-2.525139
0.062600	-2.472881
0.062700	-2.493655
0.062800	-2.582266
0.062900	-2.666009
0.063000	-2.639717
0.063100	-2.552729
0.063200	-2.471908
0.063300	-2.468662
0.063400	-2.549159
0.063500	-2.641016
0.063600	-2.665360
0.063700	-2.618944
0.063800	-2.545264
0.063900	-2.500147
0.064000	-2.486839
0.064100	-2.483917
0.064200	-2.468013
0.064300	-2.445616
0.064400	-2.411535
0.064500	-2.367067
0.064600	-2.322599
0.064700	-2.266771
0.064800	-2.193740
0.064900	-2.131095
0.065000	-2.086952
0.065100	-2.040212
0.065200	-2.000938
0.065300	-1.906159
0.065400	-1.806512
0.065500	-1.681873
0.065600	-1.600078
0.065700	-1.533863
0.065800	-1.465376
0.065900	-1.384880
0.066000	-1.295295
0.066100	-1.182989
0.066200	-1.083992
0.066300	-0.996030
0.066400	-0.923973
0.066500	-0.868794
0.066600	-0.815238
0.066700	-0.767524
0.066800	-0.724030
0.066900	-0.681186
0.067000	-0.628928
0.067100	-0.587057
0.067200	-0.554274
0.067300	-0.538045
0.067400	-0.527334
0.067500	-0.493902
0.067600	-0.419248
0.067700	-0.254360
0.067800	-0.147249
0.067900	-0.174189
0.068000	-0.310513
0.068100	-0.383544
0.068200	-0.344919
0.068300	-0.220929
0.068400	-0.124528
0.068500	-0.126151
0.068600	-0.209893
0.068700	-0.289740
0.068800	-0.309215
0.068900	-0.261501
0.069000	-0.205673
0.069100	-0.176461
0.069200	-0.191716
0.069300	-0.213139
0.069400	-0.235535
0.069500	-0.237482
0.069600	-0.225797
0.069700	-0.215411
0.069800	-0.209893
0.069900	-0.205024
0.070000	-0.189769
0.070100	-0.194637
0.070200	-0.225148
0.070300	-0.251764
0.070400	-0.271563
0.070500	-0.255659
0.070600	-0.221578
0.070700	-0.200480
0.070800	-0.247544
0.070900	-0.329663
0.071000	-0.338427
0.071100	-0.281625
0.071200	-0.168996
0.071300	-0.127449
0.071400	-0.178084
0.071500	-0.282599
0.071600	-0.341998
0.071700	-0.327716
0.071800	-0.253062
0.071900	-0.215411
0.072000	-0.261826
0.072100	-0.345243
0.072200	-0.399124
0.072300	-0.424117
0.072400	-0.417950
0.072500	-0.430284
0.072600	-0.464040
0.072700	-0.510780
0.072800	-0.533176
0.072900	-0.549405
0.073000	-0.580565
0.073100	-0.625033
0.073200	-0.661386
0.073300	-0.683133
0.073400	-0.693195
0.073500	-0.712021
0.073600	-0.767849
0.073700	-0.855486
0.073800	-0.916183
0.073900	-0.957080
0.074000	-0.982398
0.074100	-1.005768
0.074200	-1.027839
0.074300	-1.045367
0.074400	-1.063543
0.074500	-1.077176
0.074600	-1.097300
0.074700	-1.119696
0.074800	-1.148259
0.074900	-1.175199
0.075000	-1.208956
0.075100	-1.251152
0.075200	-1.292374
0.075300	-1.333920
0.075400	-1.376440
0.075500	-1.429023
0.075600	-1.471868
0.075700	-1.527371
0.075800	-1.588393
0.075900	-1.663047
0.076000	-1.831505
0.076100	-2.002885
0.076200	-2.083057
0.076300	-2.045730
0.076400	-1.994446
0.076500	-2.041510
0.076600	-2.209644
0.076700	-2.401149
0.076800	-2.527412
0.076900	-2.536175
0.077000	-2.509559
0.077100	-2.522218
0.077200	-2.623164
0.077300	-2.758191
0.077400	-2.877637
0.077500	-2.936712
0.077600	-2.966898
0.077700	-3.004225
0.077800	-3.062975
0.077900	-3.140875
0.078000	-3.204818
0.078100	-3.253181
0.078200	-3.287263
0.078300	-3.334003
0.078400	-3.386586
0.078500	-3.423588
0.078600	-3.439169
0.078700	-3.457345
0.078800	-3.485909
0.078900	-3.523236
0.079000	-3.543685
0.079100	-3.508630
0.079200	-3.435273
0.079300	-3.411903
0.079400	-3.462214
0.079500	-3.562511
0.079600	-3.632297
0.079700	-3.596268
0.079800	-3.501164
0.079900	-3.418720
0.080000	-3.424887
0.080100	-3.512200
0.080200	-3.599838
0.080300	-3.604058
0.080400	-3.543360
0.080500	-3.469679
0.080600	-3.425861
0.080700	-3.418720
0.080800	-3.414825
0.080900	-3.394700
0.081000	-3.363216
0.081100	-3.313554
0.081200	-3.259673
0.081300	-3.200274
0.081400	-3.117181
0.081500	-3.029867
0.081600	-2.958134
0.081700	-2.895490
0.081800	-2.849723
0.081900	-2.776043
0.082000	-2.667956
0.082100	-2.563116
0.082200	-2.424194
0.082300	-2.330389
0.082400	-2.246647
0.082500	-2.175239
0.082600	-2.092145
0.082700	-2.006780
0.082800	-1.910054
0.082900	-1.831181
0.083000	-1.759123
0.083100	-1.714655
0.083200	-1.679925
0.083300	-1.647791
0.083400	-1.628966
0.083500	-1.604297
0.083600	-1.576708
0.083700	-1.554961
0.083800	-1.550741
0.083900	-1.533863
0.084000	-1.548794
0.084100	-1.538732
0.084200	-1.525099
0.084300	-1.419935
0.084400	-1.283935
0.084500	-1.203114
0.084600	-1.283610
0.084700	-1.407600
0.084800	-1.451744
0.084900	-1.373844
0.085000	-1.247581
0.085100	-1.167085
0.085200	-1.186560
0.085300	-1.252775
0.085400	-1.313796
0.085500	-1.292698
0.085600	-1.221290
0.085700	-1.150207
0.085800	-1.115476
0.085900	-1.115476
0.086000	-1.123266
0.086100	-1.114503
0.086200	-1.112555
0.086300	-1.109958
0.086400	-1.097949
0.086500	-1.092106
0.086600	-1.087238
0.086700	-1.088536
0.086800	-1.122293
0.086900	-1.148259
0.087000	-1.196622
0.087100	-1.211553
0.087200	-1.210254
0.087300	-1.205386
0.087400	-1.226483
0.087500	-1.324832
0.087600	-1.411495
0.087700	-1.442006
0.087800	-1.399486
0.087900	-1.323209
0.088000	-1.339763
0.088100	-1.432918
0.088200	-1.541653
0.088300	-1.591963
0.088400	-1.559505
0.088500	-1.490369
0.088600	-1.478359
0.088700	-1.531591
0.088800	-1.591314
0.088900	-1.617605
0.089000	-1.631887
0.089100	-1.615982
0.089200	-1.627667
0.089300	-1.640326
0.089400	-1.675381
0.089500	-1.698751
0.089600	-1.696154
0.089700	-1.701348
0.089800	-1.715954
0.089900	-1.726340
0.090000	-1.710111
0.090100	-1.699076
0.090200	-1.696803
0.090300	-1.743868
0.090400	-1.803591
0.090500	-1.834751
0.090600	-1.840269
0.090700	-1.852928
0.090800	-1.848384
0.090900	-1.854875
0.091000	-1.847734
0.091100	-1.844813
0.091200	-1.836049
0.091300	-1.833128
0.091400	-1.828584
0.091500	-1.830532
0.091600	-1.827610
0.091700	-1.835400
0.091800	-1.848384
0.091900	-1.856823
0.092000	-1.868508
0.092100	-1.882789
0.092200	-1.897071
0.092300	-1.909405
0.092400	-1.938942
0.092500	-1.962637
0.092600	-2.053845
0.092700	-2.206074
0.092800	-2.337530
0.092900	-2.342399
0.093000	-2.270017
0.093100	-2.208346
0.093200	-2.260604
0.093300	-2.414456
0.093400	-2.546562
0.093500	-2.600118
0.093600	-2.566037
0.093700	-2.523192
0.093800	-2.540395
0.093900	-2.621216
0.094000	-2.723460
0.094100	-2.776692
0.094200	-2.794869
0.094300	-2.797465
0.094400	-2.817589
0.094500	-2.837064
0.094600	-2.862707
0.094700	-2.885103
0.094800	-2.896139
0.094900	-2.913342
0.095000	-2.941905
0.095100	-2.966249
0.095200	-2.975013
0.095300	-2.963652
0.095400	-2.971118
0.095500	-2.992540
0.095600	-3.014612
0.095700	-3.009419
0.095800	-2.942554
0.095900	-2.867575
0.096000	-2.868224
0.096100	-2.936063
0.096200	-3.030517
0.096300	-3.045123
0.096400	-2.967872
0.096500	-2.854917
0.096600	-2.796167
0.096700	-2.827651
0.096800	-2.908473
0.096900	-2.960082
0.097000	-2.924053
0.097100	-2.838363
0.097200	-2.777990
0.097300	-2.749102
0.097400	-2.750401
0.097500	-2.746181
0.097600	-2.726381
0.097700	-2.699441
0.097800	-2.663737
0.097900	-2.623164
0.098000	-2.578047
0.098100	-2.501769
0.098200	-2.428414
0.098300	-2.370638
0.098400	-2.332986
0.098500	-2.305396
0.098600	-2.247945
0.098700	-2.154465
0.098800	-2.075267
0.098900	-1.965883
0.099000	-1.895448
0.099100	-1.840918
0.099200	-1.775028
0.099300	-1.697128
0.099400	-1.614359
0.099500	-1.518608
0.099600	-1.458235
0.099700	-1.407276
0.099800	-1.370273
0.099900	-1.333596
0.100000	-1.310226
0.100100	-1.293997
0.100200	-1.269653
0.100300	-1.236221
0.100400	-1.196297
0.100500	-1.179094
0.100600	-1.160593
0.100700	-1.153777
0.100800	-1.136574
0.100900	-1.081071
0.101000	-0.950913
0.101100	-0.804851
0.101200	-0.766226
0.101300	-0.860679
0.101400	-0.977204
0.101500	-0.967791
0.101600	-0.857109
0.101700	-0.726302
0.101800	-0.667878
0.101900	-0.713319
0.102000	-0.783429
0.102100	-0.817185
0.102200	-0.768498
0.102300	-0.689625
0.102400	-0.641262
0.102500	-0.644832
0.102600	-0.661061
0.102700	-0.674045
0.102800	-0.674369
0.102900	-0.661711
0.103000	-0.653272
0.103100	-0.659114
0.103200	-0.675668
0.103300	-0.669176
0.103400	-0.682484
0.103500	-0.715591
0.103600	-0.750971
0.103700	-0.790245
0.103800	-0.809071
0.103900	-0.801605
0.104000	-0.790245
0.104100	-0.811343
0.104200	-0.911639
0.104300	-0.981424
0.104400	-0.979476
0.104500	-0.916832
0.104600	-0.858083
0.104700	-0.892488
0.104800	-1.009338
0.104900	-1.114178
0.105000	-1.130083
0.105100	-1.067763
0.105200	-1.009338
0.105300	-1.025243
0.105400	-1.104765
0.105500	-1.184612
0.105600	-1.213176
0.105700	-1.223562
0.105800	-1.233300
0.105900	-1.271276
0.106000	-1.322884
0.106100	-1.382932
0.106200	-1.406302
0.106300	-1.422856
0.106400	-1.440059
0.106500	-1.453691
0.106600	-1.457911
0.106700	-1.445252
0.106800	-1.434541
0.106900	-1.446875
0.107000	-1.504001
0.107100	-1.543600
0.107200	-1.554636
0.107300	-1.510493
0.107400	-1.495562
0.107500	-1.504651
0.107600	-1.509519
0.107700	-1.505300
0.107800	-1.509519
0.107900	-1.514063
0.108000	-1.517958
0.108100	-1.523152
0.108200	-1.531915
0.108300	-1.532889
0.108400	-1.540355
0.108500	-1.537433
0.108600	-1.543276
0.108700	-1.544899
0.108800	-1.540030
0.108900	-1.537433
0.109000	-1.538407
0.109100	-1.541004
0.109200	-1.558531
0.109300	-1.647467
0.109400	-1.784765
0.109500	-1.838971
0.109600	-1.801319
0.109700	-1.698751
0.109800	-1.656880
0.109900	-1.735429
0.110000	-1.878570
0.110100	-1.973023
0.110200	-1.977243
0.110300	-1.909730
0.110400	-1.863314
0.110500	-1.886035
0.110600	-1.973023
0.110700	-2.051572
0.110800	-2.092145
0.110900	-2.085978
0.111000	-2.078188
0.111100	-2.081110
0.111200	-2.111620
0.111300	-2.130771
0.111400	-2.140184
0.111500	-2.130771
0.111600	-2.134017
0.111700	-2.129472
0.111800	-2.154141
0.111900	-2.166150
0.112000	-2.164203
0.112100	-2.161931
0.112200	-2.176212
0.112300	-2.183029
0.112400	-2.169396
0.112500	-2.089224
0.112600	-2.036966
0.112700	-2.056766
0.112800	-2.151219
0.112900	-2.244699
0.113000	-2.267420
0.113100	-2.186274
0.113200	-2.092470
0.113300	-2.076565
0.113400	-2.165826
0.113500	-2.274236
0.113600	-2.314809
0.113700	-2.278781
0.113800	-2.216461
0.113900	-2.192117
0.114000	-2.204451
0.114100	-2.230742
0.114200	-2.250217
0.114300	-2.246647
0.114400	-2.237234
0.114500	-2.225224
0.114600	-2.198284
0.114700	-2.160308
0.114800	-2.103506
0.114900	-2.065854
0.115000	-2.046055
0.115100	-2.037615
0.115200	-2.022035
0.115300	-1.974971
0.115400	-1.915897
0.115500	-1.864288
0.115600	-1.786064
0.115700	-1.738350
0.115800	-1.697128
0.115900	-1.651362
0.116000	-1.593586
0.116100	-1.532240
0.116200	-1.463104
0.116300	-1.418961
0.116400	-1.398188
0.116500	-1.383581
0.116600	-1.378063
0.116700	-1.379037
0.116800	-1.378713
0.116900	-1.372221
0.117000	-1.362159
0.117100	-1.359562
0.117200	-1.368001
0.117300	-1.383257
0.117400	-1.413443
0.117500	-1.413443
0.117600	-1.370923
0.117700	-1.236221
0.117800	-1.175849
0.117900	-1.182016
0.118000	-1.330025
0.118100	-1.410846
0.118200	-1.386503
0.118300	-1.290426
0.118400	-1.196297
0.118500	-1.189157
0.118600	-1.231352
0.118700	-1.304383
0.118800	-1.304383
0.118900	-1.253099
0.119000	-1.177147
0.119100	-1.122617
0.119200	-1.097300
0.119300	-1.091782
0.119400	-1.094379
0.119500	-1.080097
0.119600	-1.043744
0.119700	-1.021997
0.119800	-0.997004
0.119900	-0.983047
0.120000	-0.988565
0.120100	-1.027515
0.120200	-1.039849
0.120300	-1.072631
0.120400	-1.097624
0.120500	-1.114178
0.120600	-1.101195
0.120700	-1.102168
0.120800	-1.149882
0.120900	-1.265758
0.121000	-1.314445
0.121100	-1.272574
0.121200	-1.184288
0.121300	-1.146312
0.121400	-1.188183
0.121500	-1.296269
0.121600	-1.368975
0.121700	-1.349825
0.121800	-1.256670
0.121900	-1.203114
0.122000	-1.227782
0.122100	-1.298541
0.122200	-1.349825
0.122300	-1.372221
0.122400	-1.356641
0.122500	-1.351123
0.122600	-1.371896
0.122700	-1.423505
0.122800	-1.466674
0.122900	-1.479658
0.123000	-1.490694
0.123100	-1.508221
0.123200	-1.521204
0.123300	-1.527696
0.123400	-1.522178
0.123500	-1.522178
0.123600	-1.552040
0.123700	-1.624097
0.123800	-1.680574
0.123900	-1.696803
0.124000	-1.679276
0.124100	-1.687066
0.124200	-1.714331
0.124300	-1.735429
0.124400	-1.751658
0.124500	-1.766264
0.124600	-1.784116
0.124700	-1.788985
0.124800	-1.797424
0.124900	-1.805863
0.125000	-1.818847
0.125100	-1.829558
0.125200	-1.838321
0.125300	-1.853577
0.125400	-1.863314
0.125500	-1.880193
0.125600	-1.893501
0.125700	-1.914598
0.125800	-1.945109
0.125900	-1.989577
0.126000	-2.111296
0.126100	-2.242427
0.126200	-2.302475
0.126300	-2.243401
0.126400	-2.172642
0.126500	-2.172317
0.126600	-2.278456
0.126700	-2.424194
0.126800	-2.516700
0.126900	-2.520271
0.127000	-2.465091
0.127100	-2.445616
0.127200	-2.497225
0.127300	-2.584538
0.127400	-2.655622
0.127500	-2.681913
0.127600	-2.652376
0.127700	-2.628682
0.127800	-2.630629
0.127900	-2.644911
0.128000	-2.645235
0.128100	-2.642639
0.128200	-2.631603
0.128300	-2.619918
0.128400	-2.626085
0.128500	-2.651402
0.128600	-2.632252
0.128700	-2.611803
0.128800	-2.600443
0.128900	-2.610505
0.129000	-2.618295
0.129100	-2.562467
0.129200	-2.452108
0.129300	-2.389139
0.129400	-2.421273
0.129500	-2.507612
0.129600	-2.551431
0.129700	-2.514428
0.129800	-2.413807
0.129900	-2.323898
0.130000	-2.318380
0.130100	-2.393034
0.130200	-2.474180
0.130300	-2.492357
0.130400	-2.444643
0.130500	-2.376480
0.130600	-2.337206
0.130700	-2.328117
0.130800	-2.333635
0.130900	-2.329091
0.131000	-2.307993
0.131100	-2.263850
0.131200	-2.212890
0.131300	-2.149921
0.131400	-2.061310
0.131500	-1.970102
0.131600	-1.893176
0.131700	-1.839620
0.131800	-1.788660
0.131900	-1.730235
0.132000	-1.626369
0.132100	-1.544250
0.132200	-1.442655
0.132300	-1.351772
0.132400	-1.287830
0.132500	-1.223887
0.132600	-1.158970
0.132700	-1.090159
0.132800	-1.005118
0.132900	-0.929491
0.133000	-0.876909
0.133100	-0.843801
0.133200	-0.820756
0.133300	-0.794465
0.133400	-0.786999
0.133500	-0.767200
0.133600	-0.745777
0.133700	-0.731171
0.133800	-0.717539
0.133900	-0.719162
0.134000	-0.736365
0.134100	-0.762331
0.134200	-0.757138
0.134300	-0.687028
0.134400	-0.562064
0.134500	-0.487735
0.134600	-0.549730
0.134700	-0.692546
0.134800	-0.779209
0.134900	-0.728575
0.135000	-0.634770
0.135100	-0.551677
0.135200	-0.574074
0.135300	-0.654570
0.135400	-0.737987
0.135500	-0.760059
0.135600	-0.729548
0.135700	-0.680536
0.135800	-0.654894
0.135900	-0.681186
0.136000	-0.712670
0.136100	-0.735715
0.136200	-0.741233
0.136300	-0.742207
0.136400	-0.735391
0.136500	-0.737987
0.136600	-0.747400
0.136700	-0.758111
0.136800	-0.777586
0.136900	-0.822054
0.137000	-0.857758
0.137100	-0.897682
0.137200	-0.882751
0.137300	-0.874961
0.137400	-0.883400
0.137500	-0.977529
0.137600	-1.090484
0.137700	-1.120994
0.137800	-1.064842
0.137900	-0.994083
0.138000	-0.980775
0.138100	-1.057701
0.138200	-1.180717
0.138300	-1.246932
0.138400	-1.232975
0.138500	-1.159944
0.138600	-1.133328
0.138700	-1.169682
0.138800	-1.236221
0.138900	-1.281338
0.139000	-1.303409
0.139100	-1.279715
0.139200	-1.274846
0.139300	-1.282312
0.139400	-1.316717
0.139500	-1.343333
0.139600	-1.353720
0.139700	-1.360211
0.139800	-1.370598
0.139900	-1.363782
0.140000	-1.337491
0.140100	-1.312498
0.140200	-1.294646
0.140300	-1.324507
0.140400	-1.365729
0.140500	-1.385204
0.140600	-1.368975
0.140700	-1.329051
0.140800	-1.320612
0.140900	-1.324183
0.141000	-1.319639
0.141100	-1.305357
0.141200	-1.295619
0.141300	-1.288154
0.141400	-1.273548
0.141500	-1.264135
0.141600	-1.257968
0.141700	-1.243362
0.141800	-1.243037
0.141900	-1.230703
0.142000	-1.227133
0.142100	-1.224536
0.142200	-1.221939
0.142300	-1.229729
0.142400	-1.234598
0.142500	-1.248555
0.142600	-1.307629
0.142700	-1.442006
0.142800	-1.568593
0.142900	-1.590340
0.143000	-1.516660
0.143100	-1.441032
0.143200	-1.456612
0.143300	-1.575085
0.143400	-1.705892
0.143500	-1.767238
0.143600	-1.734455
0.143700	-1.679925
0.143800	-1.664670
0.143900	-1.714331
0.144000	-1.799047
0.144100	-1.872078
0.144200	-1.891878
0.144300	-1.889606
0.144400	-1.889281
0.144500	-1.913625
0.144600	-1.939267
0.144700	-1.956470
0.144800	-1.973023
0.144900	-1.977568
0.145000	-1.988603
0.145100	-2.024307
0.145200	-2.047028
0.145300	-2.047677
0.145400	-2.051572
0.145500	-2.077539
0.145600	-2.113568
0.145700	-2.119735
0.145800	-2.071372
0.145900	-2.004183
0.146000	-2.010350
0.146100	-2.094093
0.146200	-2.201530
0.146300	-2.258656
0.146400	-2.234637
0.146500	-2.165501
0.146600	-2.131420
0.146700	-2.179783
0.146800	-2.288194
0.146900	-2.385893
0.147000	-2.407965
0.147100	-2.387191
0.147200	-2.357330
0.147300	-2.357330
0.147400	-2.385244
0.147500	-2.421597
0.147600	-2.443669
0.147700	-2.460547
0.147800	-2.454380
0.147900	-2.434581
0.148000	-2.411860
0.148100	-2.360251
0.148200	-2.308318
0.148300	-2.269692
0.148400	-2.251516
0.148500	-2.244699
0.148600	-2.209969
0.148700	-2.125902
0.148800	-2.062608
0.148900	-1.961663
0.149000	-1.908431
0.149100	-1.856174
0.149200	-1.809758
0.149300	-1.748737
0.149400	-1.686417
0.149500	-1.604947
0.149600	-1.535810
0.149700	-1.478035
0.149800	-1.443954
0.149900	-1.402083
0.150000	-1.379362
0.150100	-1.353071
0.150200	-1.327753
0.150300	-1.294646
0.150400	-1.260240
0.150500	-1.236221
0.150600	-1.224861
0.150700	-1.224861
0.150800	-1.219992
0.150900	-1.168383
0.151000	-1.064842
0.151100	-0.910990
0.151200	-0.848345
0.151300	-0.916832
0.151400	-1.020049
0.151500	-1.035954
0.151600	-0.945395
0.151700	-0.829520
0.151800	-0.753892
0.151900	-0.768498
0.152000	-0.824326
0.152100	-0.855486
0.152200	-0.810369
0.152300	-0.737014
0.152400	-0.666904
0.152500	-0.639315
0.152600	-0.635420
0.152700	-0.629252
0.152800	-0.616918
0.152900	-0.598742
0.153000	-0.589329
0.153100	-0.581214
0.153200	-0.568880
0.153300	-0.554599
0.153400	-0.547133
0.153500	-0.558494
0.153600	-0.588355
0.153700	-0.624708
0.153800	-0.650350
0.153900	-0.632498
0.154000	-0.605883
0.154100	-0.627305
0.154200	-0.724030
0.154300	-0.804202
0.154400	-0.800956
0.154500	-0.740584
0.154600	-0.684756
0.154700	-0.694818
0.154800	-0.777586
0.154900	-0.871715
0.155000	-0.898331
0.155100	-0.866197
0.155200	-0.812966
0.155300	-0.832116
0.155400	-0.883400
0.155500	-0.941500
0.155600	-0.978503
0.155700	-0.989214
0.155800	-0.983371
0.155900	-0.999925
0.156000	-1.026865
0.156100	-1.070359
0.156200	-1.104441
0.156300	-1.123266
0.156400	-1.138846
0.156500	-1.154426
0.156600	-1.154751
0.156700	-1.138522
0.156800	-1.120020
0.156900	-1.114503
0.157000	-1.153777
0.157100	-1.181367
0.157200	-1.190455
0.157300	-1.170980
0.157400	-1.145338
0.157500	-1.134951
0.157600	-1.134627
0.157700	-1.119047
0.157800	-1.109634
0.157900	-1.089185
0.158000	-1.071009
0.158100	-1.049262
0.158200	-1.035629
0.158300	-1.022321
0.158400	-1.017453
0.158500	-1.003171
0.158600	-0.990837
0.158700	-0.983696
0.158800	-0.979801
0.158900	-0.981099
0.159000	-0.984670
0.159100	-1.006741
0.159200	-1.021023
0.159300	-1.104765
0.159400	-1.249204
0.159500	-1.346579
0.159600	-1.339763
0.159700	-1.244335
0.159800	-1.198245
0.159900	-1.262188
0.160000	-1.419610
0.160100	-1.555610
0.160200	-1.601701
0.160300	-1.581901
0.160400	-1.549118
0.160500	-1.576708
0.160600	-1.668240
0.160700	-1.784116
0.160800	-1.852928
0.160900	-1.888307
0.161000	-1.910703
0.161100	-1.949004
0.161200	-1.999315
0.161300	-2.051572
0.161400	-2.091496
0.161500	-2.135639
0.161600	-2.178484
0.161700	-2.235286
0.161800	-2.308642
0.161900	-2.360251
0.162000	-2.392385
0.162100	-2.438476
0.162200	-2.504691
0.162300	-2.570906
0.162400	-2.610180
0.162500	-2.559870
0.162600	-2.533579
0.162700	-2.575125
0.162800	-2.697818
0.162900	-2.814019
0.163000	-2.871146
0.163100	-2.829599
0.163200	-2.771823
0.163300	-2.773121
0.163400	-2.863031
0.163500	-2.993514
0.163600	-3.061677
0.163700	-3.064598
0.163800	-3.012989
0.163900	-2.978583
0.164000	-2.974039
0.164100	-2.994163
0.164200	-3.000979
0.164300	-2.987022
0.164400	-2.963652
0.164500	-2.935089
0.164600	-2.904253
0.164700	-2.854592
0.164800	-2.772472
0.164900	-2.689379
0.165000	-2.629006
0.165100	-2.574152
0.165200	-2.529034
0.165300	-2.446590
0.165400	-2.333311
0.165500	-2.235936
0.165600	-2.109348
0.165700	-2.025281
0.165800	-1.946083
0.165900	-1.878570
0.166000	-1.788336
0.166100	-1.701997
0.166200	-1.603973
0.166300	-1.537433
0.166400	-1.477386
0.166500	-1.441032
0.166600	-1.394942
0.166700	-1.378388
0.166800	-1.352097
0.166900	-1.333920
0.167000	-1.316393
0.167100	-1.290426
0.167200	-1.286856
0.167300	-1.269977
0.167400	-1.278417
0.167500	-1.259591
0.167600	-1.222264
0.167700	-1.087887
0.167800	-0.963572
0.167900	-0.945071
0.168000	-1.061271
0.168100	-1.159944
0.168200	-1.139820
0.168300	-1.048288
0.168400	-0.932412
0.168500	-0.887620
0.168600	-0.935982
0.168700	-0.997004
0.168800	-1.022970
0.168900	-0.972336
0.169000	-0.905472
0.169100	-0.830169
0.169200	-0.822379
0.169300	-0.834064
0.169400	-0.859056
0.169500	-0.844450
0.169600	-0.832441
0.169700	-0.822379
0.169800	-0.825949
0.169900	-0.831467
0.170000	-0.839257
0.170100	-0.866846
0.170200	-0.884049
0.170300	-0.924947
0.170400	-0.977204
0.170500	-1.010312
0.170600	-1.012584
0.170700	-1.006092
0.170800	-1.067438
0.170900	-1.191753
0.171000	-1.276794
0.171100	-1.281662
0.171200	-1.229080
0.171300	-1.199868
0.171400	-1.271276
0.171500	-1.403056
0.171600	-1.516011
0.171700	-1.542951
0.171800	-1.492316
0.171900	-1.453691
0.172000	-1.481281
0.172100	-1.568593
0.172200	-1.638379
0.172300	-1.671161
0.172400	-1.668565
0.172500	-1.660450
0.172600	-1.682522
0.172700	-1.726665
0.172800	-1.773405
0.172900	-1.795477
0.173000	-1.799372
0.173100	-1.806512
0.173200	-1.813329
0.173300	-1.780546
0.173400	-1.732832
0.173500	-1.687066
0.173600	-1.681873
0.173700	-1.719849
0.173800	-1.755553
0.173900	-1.769185
0.174000	-1.772107
0.174100	-1.761071
0.174200	-1.748412
0.174300	-1.738999
0.174400	-1.729586
0.174500	-1.707190
0.174600	-1.693882
0.174700	-1.681223
0.174800	-1.678302
0.174900	-1.680250
0.175000	-1.683496
0.175100	-1.687066
0.175200	-1.693233
0.175300	-1.697128
0.175400	-1.706216
0.175500	-1.714331
0.175600	-1.727314
0.175700	-1.738350
0.175800	-1.758799
0.175900	-1.785739
0.176000	-1.892202
0.176100	-2.021711
0.176200	-2.084355
0.176300	-2.023658
0.176400	-1.918493
0.176500	-1.879868
0.176600	-1.956145
0.176700	-2.097988
0.176800	-2.190494
0.176900	-2.205100
0.177000	-2.154790
0.177100	-2.123630
0.177200	-2.166799
0.177300	-2.251191
0.177400	-2.345320
0.177500	-2.403421
0.177600	-2.427115
0.177700	-2.421597
0.177800	-2.428738
0.177900	-2.461846
0.178000	-2.495602
0.178100	-2.518972
0.178200	-2.538123
0.178300	-2.536824
0.178400	-2.547860
0.178500	-2.590705
0.178600	-2.597197
0.178700	-2.612452
0.178800	-2.624137
0.178900	-2.656271
0.179000	-2.682563
0.179100	-2.670878
0.179200	-2.593627
0.179300	-2.554352
0.179400	-2.602390
0.179500	-2.715345
0.179600	-2.787728
0.179700	-2.793895
0.179800	-2.707880
0.179900	-2.637121
0.180000	-2.642314
0.180100	-2.726057
0.180200	-2.825704
0.180300	-2.859461
0.180400	-2.832845
0.180500	-2.778315
0.180600	-2.743260
0.180700	-2.740663
0.180800	-2.752023
0.180900	-2.750401
0.181000	-2.730926
0.181100	-2.699765
0.181200	-2.668605
0.181300	-2.639393
0.181400	-2.579020
0.181500	-2.503392
0.181600	-2.431010
0.181700	-2.381024
0.181800	-2.332337
0.181900	-2.281702
0.182000	-2.181730
0.182100	-2.081434
0.182200	-1.964909
0.182300	-1.853901
0.182400	-1.766589
0.182500	-1.684794
0.182600	-1.598779
0.182700	-1.510818
0.182800	-1.412469
0.182900	-1.314770
0.183000	-1.235572
0.183100	-1.175849
0.183200	-1.132355
0.183300	-1.087238
0.183400	-1.064517
0.183500	-1.034006
0.183600	-0.992135
0.183700	-0.957080
0.183800	-0.913586
0.183900	-0.890541
0.184000	-0.890541
0.184100	-0.875610
0.184200	-0.872689
0.184300	-0.785052
0.184400	-0.666255
0.184500	-0.545835
0.184600	-0.595821
0.184700	-0.728899
0.184800	-0.806799
0.184900	-0.785052
0.185000	-0.669176
0.185100	-0.615295
0.185200	-0.607181
0.185300	-0.686379
0.185400	-0.749023
0.185500	-0.762656
0.185600	-0.727601
0.185700	-0.666904
0.185800	-0.641262
0.185900	-0.638341
0.186000	-0.668527
0.186100	-0.682808
0.186200	-0.679238
0.186300	-0.676966
0.186400	-0.678264
0.186500	-0.684756
0.186600	-0.687677
0.186700	-0.715267
0.186800	-0.737014
0.186900	-0.775314
0.187000	-0.806474
0.187100	-0.849319
0.187200	-0.854512
0.187300	-0.854188
0.187400	-0.851267
0.187500	-0.925920
0.187600	-1.031085
0.187700	-1.084316
0.187800	-1.052832
0.187900	-0.995056
0.188000	-0.981749
0.188100	-1.056078
0.188200	-1.173252
0.188300	-1.240441
0.188400	-1.219992
0.188500	-1.152154
0.188600	-1.126837
0.188700	-1.159620
0.188800	-1.224211
0.188900	-1.250503
0.189000	-1.249529
0.189100	-1.214149
0.189200	-1.200517
0.189300	-1.207333
0.189400	-1.229405
0.189500	-1.243686
0.189600	-1.228431
0.189700	-1.218693
0.189800	-1.222588
0.189900	-1.218369
0.190000	-1.192078
0.190100	-1.165787
0.190200	-1.141118
0.190300	-1.152479
0.190400	-1.191104
0.190500	-1.216097
0.190600	-1.205710
0.190700	-1.166111
0.190800	-1.143066
0.190900	-1.141118
0.191000	-1.131056
0.191100	-1.114503
0.191200	-1.099572
0.191300	-1.086264
0.191400	-1.074904
0.191500	-1.064517
0.191600	-1.051858
0.191700	-1.041147
0.191800	-1.034331
0.191900	-1.028488
0.192000	-1.022646
0.192100	-1.018102
0.192200	-1.012584
0.192300	-1.009013
0.192400	-1.018102
0.192500	-1.035629
0.192600	-1.079123
0.192700	-1.218369
0.192800	-1.364431
0.192900	-1.408574
0.193000	-1.353071
0.193100	-1.282961
0.193200	-1.313472
0.193300	-1.444927
0.193400	-1.594884
0.193500	-1.674083
0.193600	-1.666617
0.193700	-1.633185
0.193800	-1.632211
0.193900	-1.695830
0.194000	-1.783792
0.194100	-1.850331
0.194200	-1.870455
0.194300	-1.869806
0.194400	-1.865262
0.194500	-1.879219
0.194600	-1.908756
0.194700	-1.942513
0.194800	-1.954198
0.194900	-1.965883
0.195000	-1.980813
0.195100	-2.019763
0.195200	-2.071372
0.195300	-2.098637
0.195400	-2.117787
0.195500	-2.147974
0.195600	-2.191792
0.195700	-2.236260
0.195800	-2.228470
0.195900	-2.168098
0.196000	-2.161931
0.196100	-2.245024
0.196200	-2.361874
0.196300	-2.434256
0.196400	-2.420299
0.196500	-2.341101
0.196600	-2.301826
0.196700	-2.356031
0.196800	-2.473855
0.196900	-2.569932
0.197000	-2.584214
0.197100	-2.534228
0.197200	-2.486514
0.197300	-2.476776
0.197400	-2.498199
0.197500	-2.508261
0.197600	-2.505340
0.197700	-2.489111
0.197800	-2.476452
0.197900	-2.467364
0.198000	-2.436528
0.198100	-2.370313
0.198200	-2.301501
0.198300	-2.246322
0.198400	-2.224900
0.198500	-2.199582
0.198600	-2.159334
0.198700	-2.074293
0.198800	-1.999639
0.198900	-1.896746
0.199000	-1.830532
0.199100	-1.771133
0.199200	-1.713682
0.199300	-1.650713
0.199400	-1.579954
0.199500	-1.497834
0.199600	-1.421882
0.199700	-1.368975
0.199800	-1.334894
0.199900	-1.312173
0.200000	-1.293023
0.200100	-1.276469
0.200200	-1.250503
0.200300	-1.227782
0.200400	-1.204736
0.200500	-1.191753
0.200600	-1.178770
0.200700	-1.192727
0.200800	-1.188507
0.200900	-1.184937
0.201000	-1.082044
0.201100	-0.951238
0.201200	-0.874636
0.201300	-0.960975
0.201400	-1.094379
0.201500	-1.145338
0.201600	-1.081071
0.201700	-0.959352
0.201800	-0.870741
0.201900	-0.874961
0.202000	-0.925596
0.202100	-0.967142
0.202200	-0.921701
0.202300	-0.835687
0.202400	-0.736040
0.202500	-0.682159
0.202600	-0.646780
0.202700	-0.639639
0.202800	-0.626656
0.202900	-0.598417
0.203000	-0.556546
0.203100	-0.536097
0.203200	-0.522790
0.203300	-0.521167
0.203400	-0.547782
0.203500	-0.572126
0.203600	-0.588355
0.203700	-0.629252
0.203800	-0.675019
0.203900	-0.698064
0.204000	-0.707477
0.204100	-0.730197
0.204200	-0.835362
0.204300	-0.957729
0.204400	-0.999601
0.204500	-0.964221
0.204600	-0.919753
0.204700	-0.937281
0.204800	-1.047963
0.204900	-1.181367
0.205000	-1.241090
0.205100	-1.207009
0.205200	-1.153128
0.205300	-1.148259
0.205400	-1.221290
0.205500	-1.297892
0.205600	-1.328402
0.205700	-1.336192
0.205800	-1.332622
0.205900	-1.360861
0.206000	-1.396565
0.206100	-1.437137
0.206200	-1.468622
0.206300	-1.473166
0.206400	-1.490044
0.206500	-1.502378
0.206600	-1.485825
0.206700	-1.458884
0.206800	-1.420584
0.206900	-1.392994
0.207000	-1.419610
0.207100	-1.457911
0.207200	-1.457911
0.207300	-1.419610
0.207400	-1.379686
0.207500	-1.362808
0.207600	-1.349825
0.207700	-1.329701
0.207800	-1.300164
0.207900	-1.268355
0.208000	-1.236221
0.208100	-1.210254
0.208200	-1.180393
0.208300	-1.157347
0.208400	-1.132679
0.208500	-1.121968
0.208600	-1.113529
0.208700	-1.108660
0.208800	-1.099572
0.208900	-1.103142
0.209000	-1.101844
0.209100	-1.110932
0.209200	-1.136250
0.209300	-1.203438
0.209400	-1.337166
0.209500	-1.451744
0.209600	-1.444603
0.209700	-1.349500
0.209800	-1.264784
0.209900	-1.280364
0.210000	-1.402407
0.210100	-1.508870
0.210200	-1.533863
0.210300	-1.479658
0.210400	-1.397863
0.210500	-1.388125
0.210600	-1.444927
0.210700	-1.520880
0.210800	-1.565023
0.210900	-1.569892
0.211000	-1.556584
0.211100	-1.545873
0.211200	-1.554312
0.211300	-1.577357
0.211400	-1.602350
0.211500	-1.624097
0.211600	-1.635457
0.211700	-1.653959
0.211800	-1.684145
0.211900	-1.713033
0.212000	-1.724393
0.212100	-1.729911
0.212200	-1.750035
0.212300	-1.768861
0.212400	-1.764966
0.212500	-1.693233
0.212600	-1.614035
0.212700	-1.605271
0.212800	-1.679601
0.212900	-1.759448
0.213000	-1.803267
0.213100	-1.732183
0.213200	-1.623772
0.213300	-1.577032
0.213400	-1.633510
0.213500	-1.738675
0.213600	-1.807486
0.213700	-1.791906
0.213800	-1.737376
0.213900	-1.699076
0.214000	-1.693233
0.214100	-1.706865
0.214200	-1.705243
0.214300	-1.695505
0.214400	-1.685118
0.214500	-1.672460
0.214600	-1.640975
0.214700	-1.579629
0.214800	-1.493290
0.214900	-1.408899
0.215000	-1.351772
0.215100	-1.305032
0.215200	-1.279715
0.215300	-1.223562
0.215400	-1.136250
0.215500	-1.075877
0.215600	-0.981749
0.215700	-0.930140
0.215800	-0.884374
0.215900	-0.844126
0.216000	-0.796088
0.216100	-0.738637
0.216200	-0.679238
0.216300	-0.634446
0.216400	-0.603611
0.216500	-0.597443
0.216600	-0.600365
0.216700	-0.612050
0.216800	-0.624708
0.216900	-0.628279
0.217000	-0.621787
0.217100	-0.621138
0.217200	-0.620164
0.217300	-0.641911
0.217400	-0.655219
0.217500	-0.667553
0.217600	-0.630226
0.217700	-0.530580
0.217800	-0.388737
0.217900	-0.341024
0.218000	-0.436451
0.218100	-0.546809
0.218200	-0.563038
0.218300	-0.466962
0.218400	-0.344594
0.218500	-0.278380
0.218600	-0.324146
0.218700	-0.400098
0.218800	-0.449759
0.218900	-0.421520
0.219000	-0.362771
0.219100	-0.309539
0.219200	-0.313434
0.219300	-0.320251
0.219400	-0.343620
0.219500	-0.366341
0.219600	-0.380298
0.219700	-0.386465
0.219800	-0.405616
0.219900	-0.418923
0.220000	-0.447811
0.220100	-0.484814
0.220200	-0.534150
0.220300	-0.589653
0.220400	-0.657816
0.220500	-0.706828
0.220600	-0.722407
0.220700	-0.738637
0.220800	-0.766875
0.220900	-0.896383
0.221000	-1.000574
0.221100	-1.021348
0.221200	-0.965519
0.221300	-0.930140
0.221400	-0.967142
0.221500	-1.092756
0.221600	-1.212526
0.221700	-1.259591
0.221800	-1.208956
0.221900	-1.156698
0.222000	-1.176822
0.222100	-1.261214
0.222200	-1.330674
0.222300	-1.346254
0.222400	-1.354693
0.222500	-1.358264
0.222600	-1.397214
0.222700	-1.434216
0.222800	-1.471868
0.222900	-1.481605
0.223000	-1.485825
0.223100	-1.502703
0.223200	-1.523476
0.223300	-1.525748
0.223400	-1.513414
0.223500	-1.496861
0.223600	-1.493615
0.223700	-1.540679
0.223800	-1.580927
0.223900	-1.592288
0.224000	-1.569567
0.224100	-1.551390
0.224200	-1.561777
0.224300	-1.568269
0.224400	-1.576059
0.224500	-1.579629
0.224600	-1.582550
0.224700	-1.592612
0.224800	-1.601701
0.224900	-1.612087
0.225000	-1.618254
0.225100	-1.627018
0.225200	-1.626694
0.225300	-1.623123
0.225400	-1.630264
0.225500	-1.624097
0.225600	-1.628316
0.225700	-1.632861
0.225800	-1.646493
0.225900	-1.680574
0.226000	-1.766589
0.226100	-1.907133
0.226200	-1.992174
0.226300	-1.971725
0.226400	-1.879219
0.226500	-1.828584
0.226600	-1.904212
0.226700	-2.048002
0.226800	-2.178809
0.226900	-2.198284
0.227000	-2.151869
0.227100	-2.093119
0.227200	-2.108699
0.227300	-2.180432
0.227400	-2.262551
0.227500	-2.303449
0.227600	-2.301826
0.227700	-2.297282
0.227800	-2.292413
0.227900	-2.311564
0.228000	-2.339802
0.228100	-2.347268
0.228200	-2.352136
0.228300	-2.354084
0.228400	-2.363821
0.228500	-2.377779
0.228600	-2.396604
0.228700	-2.395306
0.228800	-2.394981
0.228900	-2.405044
0.229000	-2.426466
0.229100	-2.416729
0.229200	-2.332661
0.229300	-2.261253
0.229400	-2.264174
0.229500	-2.358628
0.229600	-2.443669
0.229700	-2.474504
0.229800	-2.404394
0.229900	-2.313511
0.230000	-2.294361
0.230100	-2.371287
0.230200	-2.471259
0.230300	-2.511832
0.230400	-2.477101
0.230500	-2.421273
0.230600	-2.398876
0.230700	-2.407640
0.230800	-2.417378
0.230900	-2.409588
0.231000	-2.389139
0.231100	-2.370638
0.231200	-2.347268
0.231300	-2.300203
0.231400	-2.223601
0.231500	-2.132394
0.231600	-2.056117
0.231700	-2.003210
0.231800	-1.969778
0.231900	-1.936346
0.232000	-1.855524
0.232100	-1.751658
0.232200	-1.678627
0.232300	-1.564374
0.232400	-1.475438
0.232500	-1.400460
0.232600	-1.322560
0.232700	-1.237844
0.232800	-1.145338
0.232900	-1.056078
0.233000	-0.987591
0.233100	-0.936307
0.233200	-0.895410
0.233300	-0.863925
0.233400	-0.836660
0.233500	-0.817835
0.233600	-0.779858
0.233700	-0.753243
0.233800	-0.714942
0.233900	-0.704555
0.234000	-0.684431
0.234100	-0.691572
0.234200	-0.678914
0.234300	-0.614971
0.234400	-0.469558
0.234500	-0.346217
0.234600	-0.340699
0.234700	-0.442293
0.234800	-0.531553
0.234900	-0.500069
0.235000	-0.380623
0.235100	-0.253387
0.235200	-0.206972
0.235300	-0.244623
0.235400	-0.305644
0.235500	-0.328690
0.235600	-0.285196
0.235700	-0.222876
0.235800	-0.172890
0.235900	-0.157311
0.236000	-0.165750
0.236100	-0.177110
0.236200	-0.192041
0.236300	-0.184900
0.236400	-0.181979
0.236500	-0.174189
0.236600	-0.167373
0.236700	-0.175487
0.236800	-0.223201
0.236900	-0.243000
0.237000	-0.287143
0.237100	-0.314408
0.237200	-0.343620
0.237300	-0.337129
0.237400	-0.327391
0.237500	-0.371535
0.237600	-0.481243
0.237700	-0.547458
0.237800	-0.530255
0.237900	-0.463067
0.238000	-0.427363
0.238100	-0.480919
0.238200	-0.601338
0.238300	-0.675668
0.238400	-0.679563
0.238500	-0.609453
0.238600	-0.572126
0.238700	-0.599066
0.238800	-0.663009
0.238900	-0.712345
0.239000	-0.725004
0.239100	-0.738637
0.239200	-0.754217
0.239300	-0.790570
0.239400	-0.825300
0.239500	-0.857758
0.239600	-0.877558
0.239700	-0.899629
0.239800	-0.923648
0.239900	-0.941825
0.240000	-0.928517
0.240100	-0.908393
0.240200	-0.885997
0.240300	-0.891839
0.240400	-0.940202
0.240500	-0.970064
0.240600	-0.983696
0.240700	-0.956756
0.240800	-0.934684
0.240900	-0.940851
0.241000	-0.935982
0.241100	-0.930465
0.241200	-0.923973
0.241300	-0.915534
0.241400	-0.910340
0.241500	-0.907095
0.241600	-0.905147
0.241700	-0.901901
0.241800	-0.906770
0.241900	-0.908718
0.242000	-0.915858
0.242100	-0.921052
0.242200	-0.925596
0.242300	-0.926894
0.242400	-0.940851
0.242500	-0.963572
0.242600	-0.999925
0.242700	-1.108660
0.242800	-1.255047
0.242900	-1.315094
0.243000	-1.274522
0.243100	-1.190455
0.243200	-1.180068
0.243300	-1.284259
0.243400	-1.437787
0.243500	-1.552689
0.243600	-1.579629
0.243700	-1.556908
0.243800	-1.559180
0.243900	-1.631238
0.244000	-1.733157
0.244100	-1.835400
0.244200	-1.900966
0.244300	-1.936021
0.244400	-1.969453
0.244500	-1.991849
0.244600	-2.035668
0.244700	-2.076890
0.244800	-2.110322
0.244900	-2.147000
0.245000	-2.184976
0.245100	-2.221979
0.245200	-2.260929
0.245300	-2.283649
0.245400	-2.289816
0.245500	-2.304423
0.245600	-2.327468
0.245700	-2.346619
0.245800	-2.307344
0.245900	-2.220356
0.246000	-2.167449
0.246100	-2.207697
0.246200	-2.310590
0.246300	-2.378428
0.246400	-2.354084
0.246500	-2.250217
0.246600	-2.162904
0.246700	-2.159009
0.246800	-2.242103
0.246900	-2.321301
0.247000	-2.324547
0.247100	-2.257683
0.247200	-2.190819
0.247300	-2.157062
0.247400	-2.145702
0.247500	-2.130771
0.247600	-2.095716
0.247700	-2.048327
0.247800	-2.008403
0.247900	-1.961338
0.248000	-1.900641
0.248100	-1.817873
0.248200	-1.731858
0.248300	-1.651362
0.248400	-1.588393
0.248500	-1.537433
0.248600	-1.483228
0.248700	-1.389424
0.248800	-1.292698
0.248900	-1.176498
0.249000	-1.098923
0.249100	-1.045691
0.249200	-0.997653
0.249300	-0.942799
0.249400	-0.878531
0.249500	-0.804527
0.249600	-0.743830
0.249700	-0.693520
0.249800	-0.670799
0.249900	-0.656842
0.250000	-0.644832
0.250100	-0.643534
0.250200	-0.641911
0.250300	-0.629577
0.250400	-0.632498
0.250500	-0.612699
0.250600	-0.615945
0.250700	-0.616594
0.250800	-0.628279
0.250900	-0.617568
0.251000	-0.554274
0.251100	-0.417625
0.251200	-0.330637
0.251300	-0.376403
0.251400	-0.524088
0.251500	-0.578942
0.251600	-0.545835
0.251700	-0.419573
0.251800	-0.337778
0.251900	-0.335831
0.252000	-0.411783
0.252100	-0.472479
0.252200	-0.482541
0.252300	-0.424117
0.252400	-0.369587
0.252500	-0.352060
0.252600	-0.372508
0.252700	-0.395229
0.252800	-0.420222
0.252900	-0.425415
0.253000	-0.428985
0.253100	-0.435477
0.253200	-0.438398
0.253300	-0.444241
0.253400	-0.475076
0.253500	-0.501692
0.253600	-0.528632
0.253700	-0.571152
0.253800	-0.617892
0.253900	-0.638341
0.254000	-0.643209
0.254100	-0.651649
0.254200	-0.743181
0.254300	-0.868469
0.254400	-0.924947
0.254500	-0.883400
0.254600	-0.830818
0.254700	-0.814264
0.254800	-0.902550
0.254900	-1.032059
0.255000	-1.091782
0.255100	-1.057701
0.255200	-0.972660
0.255300	-0.938904
0.255400	-0.990837
0.255500	-1.061920
0.255600	-1.083343
0.255700	-1.066140
0.255800	-1.042445
0.255900	-1.047963
0.256000	-1.091457
0.256100	-1.122942
0.256200	-1.127810
0.256300	-1.118073
0.256400	-1.119371
0.256500	-1.138522
0.256600	-1.143390
0.256700	-1.135276
0.256800	-1.118073
0.256900	-1.108336
0.257000	-1.137223
0.257100	-1.193376
0.257200	-1.218369
0.257300	-1.211877
0.257400	-1.172278
0.257500	-1.162216
0.257600	-1.154751
0.257700	-1.134302
0.257800	-1.100546
0.257900	-1.076526
0.258000	-1.048288
0.258100	-1.019400
0.258200	-1.004794
0.258300	-0.982073
0.258400	-0.963247
0.258500	-0.950913
0.258600	-0.936307
0.258700	-0.930465
0.258800	-0.925271
0.258900	-0.913262
0.259000	-0.903200
0.259100	-0.902550
0.259200	-0.911314
0.259300	-0.955782
0.259400	-1.071658
0.259500	-1.194674
0.259600	-1.227457
0.259700	-1.146961
0.259800	-1.058674
0.259900	-1.069061
0.260000	-1.199219
0.260100	-1.347877
0.260200	-1.432918
0.260300	-1.428049
0.260400	-1.379362
0.260500	-1.386827
0.260600	-1.463104
0.260700	-1.585147
0.260800	-1.664345
0.260900	-1.710760
0.261000	-1.714655
0.261100	-1.729262
0.261200	-1.762045
0.261300	-1.807811
0.261400	-1.854226
0.261500	-1.881491
0.261600	-1.902913
0.261700	-1.922388
0.261800	-1.956470
0.261900	-1.997043
0.262000	-2.020088
0.262100	-2.032097
0.262200	-2.057740
0.262300	-2.094742
0.262400	-2.117787
0.262500	-2.092145
0.262600	-2.022360
0.262700	-2.005806
0.262800	-2.093768
0.262900	-2.219706
0.263000	-2.300528
0.263100	-2.272289
0.263200	-2.186924
0.263300	-2.148947
0.263400	-2.215162
0.263500	-2.351487
0.263600	-2.449836
0.263700	-2.459898
0.263800	-2.405693
0.263900	-2.369015
0.264000	-2.369989
0.264100	-2.399850
0.264200	-2.416729
0.264300	-2.413483
0.264400	-2.407965
0.264500	-2.395631
0.264600	-2.384919
0.264700	-2.371287
0.264800	-2.334934
0.264900	-2.281053
0.265000	-2.247621
0.265100	-2.225874
0.265200	-2.216785
0.265300	-2.177835
0.265400	-2.097014
0.265500	-2.012298
0.265600	-1.921415
0.265700	-1.881816
0.265800	-1.837348
0.265900	-1.800994
0.266000	-1.757500
0.266100	-1.703295
0.266200	-1.629939
0.266300	-1.569567
0.266400	-1.525099
0.266500	-1.507247
0.266600	-1.491992
0.266700	-1.472517
0.266800	-1.467648
0.266900	-1.450770
0.267000	-1.432269
0.267100	-1.416364
0.267200	-1.415390
0.267300	-1.414092
0.267400	-1.410846
0.267500	-1.415066
0.267600	-1.373519
0.267700	-1.271276
0.267800	-1.115476
0.267900	-1.051209
0.268000	-1.104116
0.268100	-1.213176
0.268200	-1.226159
0.268300	-1.103791
0.268400	-0.958379
0.268500	-0.855486
0.268600	-0.847372
0.268700	-0.896059
0.268800	-0.915858
0.268900	-0.886971
0.269000	-0.789596
0.269100	-0.711047
0.269200	-0.663658
0.269300	-0.662360
0.269400	-0.662360
0.269500	-0.668202
0.269600	-0.645806
0.269700	-0.613023
0.269800	-0.575696
0.269900	-0.544212
0.270000	-0.537071
0.270100	-0.539019
0.270200	-0.567257
0.270300	-0.566608
0.270400	-0.580890
0.270500	-0.591276
0.270600	-0.583486
0.270700	-0.569205
0.270800	-0.575696
0.270900	-0.660737
0.271000	-0.745777
0.271100	-0.731171
0.271200	-0.640288
0.271300	-0.543563
0.271400	-0.521816
0.271500	-0.583811
0.271600	-0.653272
0.271700	-0.652298
0.271800	-0.562064
0.271900	-0.458198
0.272000	-0.416651
0.272100	-0.450083
0.272200	-0.499095
0.272300	-0.500718
0.272400	-0.493902
0.272500	-0.472155
0.272600	-0.482217
0.272700	-0.509482
0.272800	-0.540317
0.272900	-0.559143
0.273000	-0.573424
0.273100	-0.596145
0.273200	-0.623735
0.273300	-0.630875
0.273400	-0.636069
0.273500	-0.634770
0.273600	-0.640937
0.273700	-0.693195
0.273800	-0.743181
0.273900	-0.762331
0.274000	-0.772069
0.274100	-0.743830
0.274200	-0.738961
0.274300	-0.729873
0.274400	-0.715267
0.274500	-0.695467
0.274600	-0.675343
0.274700	-0.648727
0.274800	-0.637367
0.274900	-0.622112
0.275000	-0.605233
0.275100	-0.594847
0.275200	-0.591601
0.275300	-0.578293
0.275400	-0.573749
0.275500	-0.573424
0.275600	-0.570828
0.275700	-0.579591
0.275800	-0.590952
0.275900	-0.620813
0.276000	-0.694493
0.276100	-0.846398
0.276200	-0.953185
0.276300	-0.954159
0.276400	-0.883725
0.276500	-0.829195
0.276600	-0.891839
0.276700	-1.036927
0.276800	-1.171629
0.276900	-1.201166
0.277000	-1.155725
0.277100	-1.091782
0.277200	-1.096651
0.277300	-1.149557
0.277400	-1.239791
0.277500	-1.284908
0.277600	-1.298865
0.277700	-1.287180
0.277800	-1.278092
0.277900	-1.291725
0.278000	-1.311524
0.278100	-1.318016
0.278200	-1.320937
0.278300	-1.330350
0.278400	-1.335868
0.278500	-1.351772
0.278600	-1.361510
0.278700	-1.353071
0.278800	-1.353720
0.278900	-1.366378
0.279000	-1.390722
0.279100	-1.398837
0.279200	-1.353720
0.279300	-1.309252
0.279400	-1.333596
0.279500	-1.454016
0.279600	-1.586445
0.279700	-1.669538
0.279800	-1.639352
0.279900	-1.586770
0.280000	-1.600078
0.280100	-1.711734
0.280200	-1.867859
0.280300	-1.972699
0.280400	-1.995095
0.280500	-1.975945
0.280600	-1.971076
0.280700	-1.989902
0.280800	-2.019439
0.280900	-2.036317
0.281000	-2.039563
0.281100	-2.039563
0.281200	-2.040861
0.281300	-2.023009
0.281400	-1.993797
0.281500	-1.940890
0.281600	-1.890255
0.281700	-1.856174
0.281800	-1.845138
0.281900	-1.827286
0.282000	-1.755877
0.282100	-1.655257
0.282200	-1.551390
0.282300	-1.440383
0.282400	-1.367677
0.282500	-1.306980
0.282600	-1.239142
0.282700	-1.164813
0.282800	-1.078149
0.282900	-0.975581
0.283000	-0.901577
0.283100	-0.844450
0.283200	-0.802579
0.283300	-0.764279
0.283400	-0.741882
0.283500	-0.713319
0.283600	-0.684431
0.283700	-0.655219
0.283800	-0.635420
0.283900	-0.617568
0.284000	-0.611725
0.284100	-0.613673
0.284200	-0.603286
0.284300	-0.546160
0.284400	-0.421520
0.284500	-0.282275
0.284600	-0.264423
0.284700	-0.364718
0.284800	-0.477348
0.284900	-0.460794
0.285000	-0.364069
0.285100	-0.243325
0.285200	-0.211191
0.285300	-0.261501
0.285400	-0.355630
0.285500	-0.393931
0.285600	-0.370885
0.285700	-0.322198
0.285800	-0.288442
0.285900	-0.305969
0.286000	-0.345893
0.286100	-0.393281
0.286200	-0.436451
0.286300	-0.455601
0.286400	-0.476699
0.286500	-0.495849
0.286600	-0.504613
0.286700	-0.537720
0.286800	-0.576021
0.286900	-0.623085
0.287000	-0.660088
0.287100	-0.714942
0.287200	-0.741558
0.287300	-0.749997
0.287400	-0.737663
0.287500	-0.773367
0.287600	-0.875935
0.287700	-0.940527
0.287800	-0.921701
0.287900	-0.843477
0.288000	-0.794789
0.288100	-0.811668
0.288200	-0.920727
0.288300	-0.999601
0.288400	-1.000574
0.288500	-0.909042
0.288600	-0.837634
0.288700	-0.834713
0.288800	-0.894436
0.288900	-0.938255
0.289000	-0.938579
0.289100	-0.921052
0.289200	-0.906445
0.289300	-0.912613
0.289400	-0.928517
0.289500	-0.934360
0.289600	-0.923973
0.289700	-0.918780
0.289800	-0.925596
0.289900	-0.925271
0.290000	-0.902550
0.290100	-0.869443
0.290200	-0.834064
0.290300	-0.824975
0.290400	-0.860030
0.290500	-0.877882
0.290600	-0.876909
0.290700	-0.841204
0.290800	-0.815563
0.290900	-0.819457
0.291000	-0.816536
0.291100	-0.822379
0.291200	-0.822703
0.291300	-0.825949
0.291400	-0.833739
0.291500	-0.857434
0.291600	-0.863601
0.291700	-0.876259
0.291800	-0.888593
0.291900	-0.897357
0.292000	-0.921701
0.292100	-0.946044
0.292200	-0.975906
0.292300	-1.002197
0.292400	-1.038226
0.292500	-1.083667
0.292600	-1.137873
0.292700	-1.263486
0.292800	-1.423505
0.292900	-1.520231
0.293000	-1.496211
0.293100	-1.419935
0.293200	-1.405653
0.293300	-1.508870
0.293400	-1.691286
0.293500	-1.822092
0.293600	-1.862990
0.293700	-1.821119
0.293800	-1.798398
0.293900	-1.845787
0.294000	-1.947381
0.294100	-2.051572
0.294200	-2.099286
0.294300	-2.126876
0.294400	-2.131744
0.294500	-2.147324
0.294600	-2.186599
0.294700	-2.224251
0.294800	-2.246322
0.294900	-2.268069
0.295000	-2.283325
0.295100	-2.308642
0.295200	-2.335583
0.295300	-2.352136
0.295400	-2.348891
0.295500	-2.350838
0.295600	-2.352136
0.295700	-2.357330
0.295800	-2.322599
0.295900	-2.241778
0.296000	-2.160957
0.296100	-2.166150
0.296200	-2.235611
0.296300	-2.293711
0.296400	-2.269043
0.296500	-2.152842
0.296600	-2.039887
0.296700	-2.000938
0.296800	-2.044432
0.296900	-2.100260
0.297000	-2.102207
0.297100	-2.050274
0.297200	-1.980489
0.297300	-1.950627
0.297400	-1.946083
0.297500	-1.945109
0.297600	-1.942837
0.297700	-1.945109
0.297800	-1.943811
0.297900	-1.938293
0.298000	-1.920441
0.298100	-1.870455
0.298200	-1.808135
0.298300	-1.756851
0.298400	-1.730560
0.298500	-1.708488
0.298600	-1.685768
0.298700	-1.607219
0.298800	-1.533538
0.298900	-1.449147
0.299000	-1.361834
0.299100	-1.295295
0.299200	-1.236221
0.299300	-1.170006
0.299400	-1.099572
0.299500	-1.013882
0.299600	-0.925271
0.299700	-0.858407
0.299800	-0.809071
0.299900	-0.773042
0.300000	-0.735391
0.300100	-0.725978
0.300200	-0.698713
0.300300	-0.674045
0.300400	-0.641262
0.300500	-0.611400
0.300600	-0.592899
0.300700	-0.570828
0.300800	-0.576670
0.300900	-0.531878
0.301000	-0.464689
0.301100	-0.302723
0.301200	-0.197559
0.301300	-0.170618
0.301400	-0.292012
0.301500	-0.334532
0.301600	-0.292986
0.301700	-0.156337
0.301800	-0.046304
0.301900	-0.001187
0.302000	-0.046953
0.302100	-0.100184
0.302200	-0.095315
0.302300	-0.041435
0.302400	0.035491
0.302500	0.082231
0.302600	0.108846
0.302700	0.103004
0.302800	0.100083
0.302900	0.096837
0.303000	0.107223
0.303100	0.111118
0.303200	0.116636
0.303300	0.130593
0.303400	0.111443
0.303500	0.093916
0.303600	0.050097
0.303700	0.016665
0.303800	-0.033320
0.303900	-0.048900
0.304000	-0.060261
0.304100	-0.070647
0.304200	-0.149196
0.304300	-0.283248
0.304400	-0.349463
0.304500	-0.344270
0.304600	-0.307267
0.304700	-0.314084
0.304800	-0.409511
0.304900	-0.552651
0.305000	-0.644508
0.305100	-0.651973
0.305200	-0.615295
0.305300	-0.613348
0.305400	-0.686379
0.305500	-0.785701
0.305600	-0.832765
0.305700	-0.860355
0.305800	-0.882751
0.305900	-0.932087
0.306000	-0.993109
0.306100	-1.047963
0.306200	-1.099572
0.306300	-1.134951
0.306400	-1.178121
0.306500	-1.225185
0.306600	-1.253748
0.306700	-1.253099
0.306800	-1.238493
0.306900	-1.226808
0.307000	-1.255047
0.307100	-1.316717
0.307200	-1.354044
0.307300	-1.364756
0.307400	-1.326779
0.307500	-1.317691
0.307600	-1.323858
0.307700	-1.318016
0.307800	-1.307304
0.307900	-1.286856
0.308000	-1.269004
0.308100	-1.242063
0.308200	-1.220641
0.308300	-1.206684
0.308400	-1.195648
0.308500	-1.187209
0.308600	-1.179744
0.308700	-1.176173
0.308800	-1.175199
0.308900	-1.171304
0.309000	-1.168708
0.309100	-1.173577
0.309200	-1.188507
0.309300	-1.222913
0.309400	-1.345281
0.309500	-1.485500
0.309600	-1.546522
0.309700	-1.508221
0.309800	-1.438436
0.309900	-1.462455
0.310000	-1.605596
0.310100	-1.784441
0.310200	-1.896746
0.310300	-1.925634
0.310400	-1.901940
0.310500	-1.907458
0.310600	-1.981138
0.310700	-2.089873
0.310800	-2.169396
0.310900	-2.212890
0.311000	-2.219057
0.311100	-2.231067
0.311200	-2.245673
0.311300	-2.266771
0.311400	-2.285272
0.311500	-2.277807
0.311600	-2.281702
0.311700	-2.284299
0.311800	-2.283000
0.311900	-2.299879
0.312000	-2.288194
0.312100	-2.266122
0.312200	-2.249568
0.312300	-2.246971
0.312400	-2.241454
0.312500	-2.181730
0.312600	-2.073644
0.312700	-1.995420
0.312800	-2.015868
0.312900	-2.083706
0.313000	-2.107401
0.313100	-2.046055
0.313200	-1.918818
0.313300	-1.824040
0.313400	-1.827286
0.313500	-1.919467
0.313600	-1.992823
0.313700	-1.996393
0.313800	-1.947706
0.313900	-1.916546
0.314000	-1.921739
0.314100	-1.951276
0.314200	-1.965558
0.314300	-1.952250
0.314400	-1.933100
0.314500	-1.912651
0.314600	-1.892527
0.314700	-1.858770
0.314800	-1.788011
0.314900	-1.721147
0.315000	-1.680574
0.315100	-1.684469
0.315200	-1.692908
0.315300	-1.703295
0.315400	-1.670512
0.315500	-1.650388
0.315600	-1.608192
0.315700	-1.582875
0.315800	-1.575734
0.315900	-1.560154
0.316000	-1.538407
0.316100	-1.507572
0.316200	-1.467648
0.316300	-1.435190
0.316400	-1.424479
0.316500	-1.423830
0.316600	-1.423180
0.316700	-1.414092
0.316800	-1.404030
0.316900	-1.394617
0.317000	-1.363133
0.317100	-1.326779
0.317200	-1.282636
0.317300	-1.255696
0.317400	-1.220966
0.317500	-1.194674
0.317600	-1.149557
0.317700	-1.044393
0.317800	-0.886971
0.317900	-0.800632
0.318000	-0.852240
0.318100	-0.991486
0.318200	-1.060622
0.318300	-1.025892
0.318400	-0.958379
0.318500	-0.914560
0.318600	-0.980126
0.318700	-1.102493
0.318800	-1.214149
0.318900	-1.247906
0.319000	-1.234273
0.319100	-1.199219
0.319200	-1.199868
0.319300	-1.225185
0.319400	-1.248880
0.319500	-1.261863
0.319600	-1.254073
0.319700	-1.232001
0.319800	-1.212202
0.319900	-1.187858
0.320000	-1.166111
0.320100	-1.145662
0.320200	-1.122617
0.320300	-1.086589
0.320400	-1.068737
0.320500	-1.042121
0.320600	-0.984345
0.320700	-0.911639
0.320800	-0.831467
0.320900	-0.827247
0.321000	-0.832765
0.321100	-0.750971
0.321200	-0.589004
0.321300	-0.421845
0.321400	-0.298179
0.321500	-0.283897
0.321600	-0.304021
0.321700	-0.271888
0.321800	-0.158933
0.321900	-0.020337
0.322000	0.058861
0.322100	0.054966
0.322200	0.041658
0.322300	0.074116
0.322400	0.128646
0.322500	0.194861
0.322600	0.222450
0.322700	0.235433
0.322800	0.226670
0.322900	0.220178
0.323000	0.213362
0.323100	0.203624
0.323200	0.177009
0.323300	0.157858
0.323400	0.143901
0.323500	0.132216
0.323600	0.091968
0.323700	0.008875
0.323800	-0.084929
0.323900	-0.150494
0.324000	-0.180031
0.324100	-0.197234
0.324200	-0.253062
0.324300	-0.304021
0.324400	-0.349463
0.324500	-0.398150
0.324600	-0.439372
0.324700	-0.483840
0.324800	-0.529606
0.324900	-0.578618
0.325000	-0.638341
0.325100	-0.700985
0.325200	-0.767200
0.325300	-0.838608
0.325400	-0.906445
0.325500	-0.980450
0.325600	-1.045042
0.325700	-1.117099
0.325800	-1.185911
0.325900	-1.269004
0.326000	-1.380985
0.326100	-1.568918
0.326200	-1.711734
0.326300	-1.766264
0.326400	-1.707839
0.326500	-1.667591
0.326600	-1.710436
0.326700	-1.858121
0.326800	-2.003210
0.326900	-2.054169
0.327000	-2.018465
0.327100	-1.951925
0.327200	-1.933100
0.327300	-1.979190
0.327400	-2.051897
0.327500	-2.099286
0.327600	-2.115515
0.327700	-2.100909
0.327800	-2.101234
0.327900	-2.116489
0.328000	-2.156737
0.328100	-2.190494
0.328200	-2.218733
0.328300	-2.239506
0.328400	-2.255086
0.328500	-2.274236
0.328600	-2.304747
0.328700	-2.304098
0.328800	-2.296308
0.328900	-2.294361
0.329000	-2.295010
0.329100	-2.272614
0.329200	-2.196337
0.329300	-2.097663
0.329400	-2.055467
0.329500	-2.109673
0.329600	-2.179783
0.329700	-2.215487
0.329800	-2.152193
0.329900	-2.055792
0.330000	-2.003534
0.330100	-2.042484
0.330200	-2.135964
0.330300	-2.185301
0.330400	-2.145377
0.330500	-2.052871
0.330600	-1.980164
0.330700	-1.946083
0.330800	-1.928231
0.330900	-1.913949
0.331000	-1.887983
0.331100	-1.870131
0.331200	-1.849357
0.331300	-1.832479
0.331400	-1.786064
0.331500	-1.726990
0.331600	-1.678627
0.331700	-1.664670
0.331800	-1.661749
0.331900	-1.667591
0.332000	-1.640001
0.332100	-1.578655
0.332200	-1.541978
0.332300	-1.459858
0.332400	-1.404355
0.332500	-1.350798
0.332600	-1.288154
0.332700	-1.219018
0.332800	-1.131056
0.332900	-1.050884
0.333000	-0.972336
0.333100	-0.906445
0.333200	-0.859706
0.333300	-0.819457
0.333400	-0.787973
0.333500	-0.753243
0.333600	-0.707801
0.333700	-0.668527
0.333800	-0.625357
0.333900	-0.589653
0.334000	-0.567257
0.334100	-0.551028
0.334200	-0.517921
0.334300	-0.454952
0.334400	-0.304021
0.334500	-0.124528
0.334600	-0.037540
0.334700	-0.086876
0.334800	-0.156986
0.334900	-0.129721
0.335000	0.014069
0.335100	0.161753
0.335200	0.246794
0.335300	0.240951
0.335400	0.171166
0.335500	0.129295
0.335600	0.136760
0.335700	0.179281
0.335800	0.201028
0.335900	0.206545
0.336000	0.175061
0.336100	0.147796
0.336200	0.113391
0.336300	0.096188
0.336400	0.083529
0.336500	0.064703
0.336600	0.038737
0.336700	-0.016767
0.336800	-0.085578
0.336900	-0.166399
0.337000	-0.241377
0.337100	-0.330637
0.337200	-0.406265
0.337300	-0.453329
0.337400	-0.500718
0.337500	-0.557844
0.337600	-0.698388
0.337700	-0.808746
0.337800	-0.838283
0.337900	-0.799658
0.338000	-0.782131
0.338100	-0.829195
0.338200	-0.956756
0.338300	-1.064192
0.338400	-1.101844
0.338500	-1.045367
0.338600	-0.997653
0.338700	-1.014207
0.338800	-1.082044
0.338900	-1.129109
0.339000	-1.136250
0.339100	-1.133978
0.339200	-1.141443
0.339300	-1.176822
0.339400	-1.217720
0.339500	-1.247257
0.339600	-1.261863
0.339700	-1.269004
0.339800	-1.280364
0.339900	-1.288479
0.340000	-1.263486
0.340100	-1.215448
0.340200	-1.171954
0.340300	-1.148584
0.340400	-1.169032
0.340500	-1.191429
0.340600	-1.183639
0.340700	-1.139820
0.340800	-1.110283
0.340900	-1.112555
0.341000	-1.108336
0.341100	-1.108011
0.341200	-1.115152
0.341300	-1.114503
0.341400	-1.120020
0.341500	-1.120345
0.341600	-1.126512
0.341700	-1.126837
0.341800	-1.129433
0.341900	-1.145987
0.342000	-1.161567
0.342100	-1.176822
0.342200	-1.198245
0.342300	-1.215772
0.342400	-1.234598
0.342500	-1.265433
0.342600	-1.317367
0.342700	-1.424154
0.342800	-1.589367
0.342900	-1.696803
0.343000	-1.683496
0.343100	-1.608517
0.343200	-1.578980
0.343300	-1.674083
0.343400	-1.840918
0.343500	-1.972374
0.343600	-2.013921
0.343700	-1.959391
0.343800	-1.920116
0.343900	-1.944785
0.344000	-2.030799
0.344100	-2.107076
0.344200	-2.140508
0.344300	-2.139859
0.344400	-2.123954
0.344500	-2.115191
0.344600	-2.129472
0.344700	-2.130771
0.344800	-2.121682
0.344900	-2.104479
0.345000	-2.102857
0.345100	-2.103506
0.345200	-2.092470
0.345300	-2.080136
0.345400	-2.042160
0.345500	-2.012622
0.345600	-1.999964
0.345700	-1.996718
0.345800	-1.961338
0.345900	-1.870780
0.346000	-1.789309
0.346100	-1.785415
0.346200	-1.860393
0.346300	-1.932775
0.346400	-1.926933
0.346500	-1.818522
0.346600	-1.702970
0.346700	-1.667591
0.346800	-1.725367
0.346900	-1.809434
0.347000	-1.837997
0.347100	-1.788011
0.347200	-1.712059
0.347300	-1.656555
0.347400	-1.628966
0.347500	-1.615982
0.347600	-1.588717
0.347700	-1.552364
0.347800	-1.516985
0.347900	-1.477061
0.348000	-1.423180
0.348100	-1.335543
0.348200	-1.229405
0.348300	-1.132030
0.348400	-1.065815
0.348500	-1.009338
0.348600	-0.951562
0.348700	-0.854512
0.348800	-0.743181
0.348900	-0.663009
0.349000	-0.554274
0.349100	-0.480269
0.349200	-0.418599
0.349300	-0.351410
0.349400	-0.269616
0.349500	-0.189444
0.349600	-0.107974
0.349700	-0.051822
0.349800	-0.021960
0.349900	-0.004757
0.350000	0.006279
0.350100	0.005305
0.350200	-0.003134
0.350300	-0.007029
0.350400	0.001734
0.350500	-0.012547
0.350600	-0.030724
0.350700	-0.056690
0.350800	-0.116413
0.350900	-0.156661
0.351000	-0.166723
0.351100	-0.092719
0.351200	-0.026504
0.351300	-0.081683
0.351400	-0.264747
0.351500	-0.411458
0.351600	-0.445215
0.351700	-0.411783
0.351800	-0.366017
0.351900	-0.414379
0.352000	-0.539343
0.352100	-0.696441
0.352200	-0.791219
0.352300	-0.813615
0.352400	-0.799009
0.352500	-0.798360
0.352600	-0.840880
0.352700	-0.890541
0.352800	-0.945395
0.352900	-0.973959
0.353000	-0.982722
0.353100	-0.989863
0.353200	-0.997653
0.353300	-1.000574
0.353400	-1.012908
0.353500	-1.041147
0.353600	-1.064192
0.353700	-1.093405
0.353800	-1.115476
0.353900	-1.133328
0.354000	-1.108011
0.354100	-1.082694
0.354200	-1.093405
0.354300	-1.169682
0.354400	-1.201491
0.354500	-1.145013
0.354600	-1.028813
0.354700	-0.960326
0.354800	-0.974283
0.354900	-1.059648
0.355000	-1.105739
0.355100	-1.061920
0.355200	-0.959028
0.355300	-0.873663
0.355400	-0.868145
0.355500	-0.915858
0.355600	-0.936632
0.355700	-0.923973
0.355800	-0.884049
0.355900	-0.869443
0.356000	-0.874636
0.356100	-0.887620
0.356200	-0.905147
0.356300	-0.902550
0.356400	-0.905472
0.356500	-0.908718
0.356600	-0.901252
0.356700	-0.883725
0.356800	-0.856135
0.356900	-0.828221
0.357000	-0.835687
0.357100	-0.891190
0.357200	-0.936307
0.357300	-0.952861
0.357400	-0.921376
0.357500	-0.927868
0.357600	-0.953834
0.357700	-0.971037
0.357800	-0.985643
0.357900	-0.995381
0.358000	-1.008364
0.358100	-1.019725
0.358200	-1.025243
0.358300	-1.036603
0.358400	-1.046340
0.358500	-1.056402
0.358600	-1.060622
0.358700	-1.070359
0.358800	-1.073605
0.358900	-1.080746
0.359000	-1.098923
0.359100	-1.112231
0.359200	-1.132030
0.359300	-1.166760
0.359400	-1.280689
0.359500	-1.428049
0.359600	-1.491667
0.359700	-1.450445
0.359800	-1.353395
0.359900	-1.340087
0.360000	-1.429997
0.360100	-1.583200
0.360200	-1.689663
0.360300	-1.688040
0.360400	-1.622799
0.360500	-1.584822
0.360600	-1.624097
0.360700	-1.713357
0.360800	-1.802617
0.360900	-1.837997
0.361000	-1.851305
0.361100	-1.839295
0.361200	-1.848384
0.361300	-1.871754
0.361400	-1.905835
0.361500	-1.925959
0.361600	-1.946732
0.361700	-1.957768
0.361800	-1.973023
0.361900	-1.996393
0.362000	-2.007754
0.362100	-2.016842
0.362200	-2.026255
0.362300	-2.033720
0.362400	-2.042809
0.362500	-2.010675
0.362600	-1.923362
0.362700	-1.862665
0.362800	-1.887658
0.362900	-1.963610
0.363000	-2.018790
0.363100	-1.996069
0.363200	-1.876622
0.363300	-1.782169
0.363400	-1.775028
0.363500	-1.852279
0.363600	-1.927257
0.363700	-1.936021
0.363800	-1.883763
0.363900	-1.813653
0.364000	-1.775028
0.364100	-1.754255
0.364200	-1.743543
0.364300	-1.719849
0.364400	-1.694207
0.364500	-1.660450
0.364600	-1.615982
0.364700	-1.556908
0.364800	-1.470894
0.364900	-1.385529
0.365000	-1.325806
0.365100	-1.288479
0.365200	-1.254398
0.365300	-1.220641
0.365400	-1.141768
0.365500	-1.067438
0.365600	-0.998951
0.365700	-0.909367
0.365800	-0.852889
0.365900	-0.799333
0.366000	-0.738961
0.366100	-0.663658
0.366200	-0.572451
0.366300	-0.488709
0.366400	-0.411133
0.366500	-0.366341
0.366600	-0.316031
0.366700	-0.279029
0.366800	-0.239430
0.366900	-0.195611
0.367000	-0.142055
0.367100	-0.093693
0.367200	-0.040137
0.367300	0.006279
0.367400	0.020560
0.367500	0.057563
0.367600	0.089372
0.367700	0.221152
0.367800	0.383767
0.367900	0.531452
0.368000	0.533399
0.368100	0.441543
0.368200	0.427261
0.368300	0.499643
0.368400	0.662583
0.368500	0.783327
0.368600	0.829093
0.368700	0.797284
0.368800	0.754115
0.368900	0.775537
0.369000	0.844348
0.369100	0.932634
0.369200	0.978725
0.369300	0.998200
0.369400	0.986515
0.369500	0.969961
0.369600	0.951785
0.369700	0.954057
0.369800	0.951785
0.369900	0.939775
0.370000	0.914458
0.370100	0.865446
0.370200	0.794038
0.370300	0.737886
0.370400	0.665179
0.370500	0.587280
0.370600	0.536645
0.370700	0.486335
0.370800	0.435051
0.370900	0.301972
0.371000	0.141629
0.371100	0.047176
0.371200	0.031271
0.371300	0.058536
0.371400	0.015367
0.371500	-0.100509
0.371600	-0.269940
0.371700	-0.365367
0.371800	-0.375429
0.371900	-0.345893
0.372000	-0.358227
0.372100	-0.440021
0.372200	-0.533501
0.372300	-0.583811
0.372400	-0.629577
0.372500	-0.667553
0.372600	-0.724355
0.372700	-0.796088
0.372800	-0.862627
0.372900	-0.919429
0.373000	-0.955457
0.373100	-1.005768
0.373200	-1.065166
0.373300	-1.117424
0.373400	-1.148584
0.373500	-1.162541
0.373600	-1.189157
0.373700	-1.259266
0.373800	-1.351123
0.373900	-1.420584
0.374000	-1.466674
0.374100	-1.480956
0.374200	-1.518608
0.374300	-1.573137
0.374400	-1.614359
0.374500	-1.658178
0.374600	-1.681548
0.374700	-1.701348
0.374800	-1.724068
0.374900	-1.738350
0.375000	-1.751658
0.375100	-1.756851
0.375200	-1.761395
0.375300	-1.770484
0.375400	-1.786388
0.375500	-1.799696
0.375600	-1.829882
0.375700	-1.860069
0.375800	-1.899018
0.375900	-1.948355
0.376000	-2.029501
0.376100	-2.188547
0.376200	-2.339153
0.376300	-2.383621
0.376400	-2.325196
0.376500	-2.259955
0.376600	-2.288518
0.376700	-2.418351
0.376800	-2.574801
0.376900	-2.651078
0.377000	-2.629331
0.377100	-2.564089
0.377200	-2.555650
0.377300	-2.598171
0.377400	-2.679317
0.377500	-2.722162
0.377600	-2.728653
0.377700	-2.713398
0.377800	-2.693274
0.377900	-2.692300
0.378000	-2.691975
0.378100	-2.690353
0.378200	-2.664386
0.378300	-2.656596
0.378400	-2.641990
0.378500	-2.632577
0.378600	-2.634524
0.378700	-2.619269
0.378800	-2.588109
0.378900	-2.574801
0.379000	-2.579994
0.379100	-2.579345
0.379200	-2.513130
0.379300	-2.413807
0.379400	-2.364471
0.379500	-2.416729
0.379600	-2.507937
0.379700	-2.555326
0.379800	-2.504691
0.379900	-2.381674
0.380000	-2.310265
0.380100	-2.336556
0.380200	-2.431010
0.380300	-2.501769
0.380400	-2.503392
0.380500	-2.449187
0.380600	-2.410886
0.380700	-2.409588
0.380800	-2.424843
0.380900	-2.432633
0.381000	-2.425492
0.381100	-2.422896
0.381200	-2.423869
0.381300	-2.417702
0.381400	-2.397903
0.381500	-2.348241
0.381600	-2.303449
0.381700	-2.270341
0.381800	-2.265473
0.381900	-2.267420
0.382000	-2.246322
0.382100	-2.185625
0.382200	-2.134341
0.382300	-2.041186
0.382400	-1.986656
0.382500	-1.938618
0.382600	-1.897071
0.382700	-1.834102
0.382800	-1.763343
0.382900	-1.676355
0.383000	-1.603648
0.383100	-1.538083
0.383200	-1.483877
0.383300	-1.436813
0.383400	-1.392345
0.383500	-1.367028
0.383600	-1.323534
0.383700	-1.281013
0.383800	-1.245309
0.383900	-1.193051
0.384000	-1.178121
0.384100	-1.145987
0.384200	-1.144040
0.384300	-1.100546
0.384400	-1.008040
0.384500	-0.861329
0.384600	-0.792517
0.384700	-0.874961
0.384800	-0.986617
0.384900	-1.030436
0.385000	-0.948641
0.385100	-0.826274
0.385200	-0.750646
0.385300	-0.765252
0.385400	-0.849644
0.385500	-0.893787
0.385600	-0.889892
0.385700	-0.797710
0.385800	-0.728575
0.385900	-0.682484
0.386000	-0.692221
0.386100	-0.700336
0.386200	-0.702933
0.386300	-0.696766
0.386400	-0.677940
0.386500	-0.675019
0.386600	-0.668527
0.386700	-0.676641
0.386800	-0.700660
0.386900	-0.728250
0.387000	-0.744479
0.387100	-0.776613
0.387200	-0.813940
0.387300	-0.818159
0.387400	-0.819133
0.387500	-0.821080
0.387600	-0.910665
0.387700	-0.998627
0.387800	-1.022970
0.387900	-0.971686
0.388000	-0.918780
0.388100	-0.918780
0.388200	-1.014207
0.388300	-1.121643
0.388400	-1.154426
0.388500	-1.096326
0.388600	-1.023295
0.388700	-1.002846
0.388800	-1.050884
0.388900	-1.102818
0.389000	-1.113204
0.389100	-1.117748
0.389200	-1.107686
0.389300	-1.125538
0.389400	-1.149882
0.389500	-1.191753
0.389600	-1.219992
0.389700	-1.238168
0.389800	-1.270951
0.389900	-1.301462
0.390000	-1.310226
0.390100	-1.307954
0.390200	-1.305357
0.390300	-1.321586
0.390400	-1.363133
0.390500	-1.412469
0.390600	-1.447849
0.390700	-1.446550
0.390800	-1.437137
0.390900	-1.454665
0.391000	-1.468622
0.391100	-1.478359
0.391200	-1.492966
0.391300	-1.501405
0.391400	-1.519906
0.391500	-1.534512
0.391600	-1.556908
0.391700	-1.589367
0.391800	-1.626694
0.391900	-1.665319
0.392000	-1.709462
0.392100	-1.764641
0.392200	-1.822092
0.392300	-1.878894
0.392400	-1.944135
0.392500	-2.005806
0.392600	-2.078513
0.392700	-2.196661
0.392800	-2.371936
0.392900	-2.511507
0.393000	-2.548509
0.393100	-2.471583
0.393200	-2.419650
0.393300	-2.474829
0.393400	-2.621216
0.393500	-2.752673
0.393600	-2.796491
0.393700	-2.751050
0.393800	-2.696844
0.393900	-2.694897
0.394000	-2.749427
0.394100	-2.825055
0.394200	-2.857513
0.394300	-2.853294
0.394400	-2.831871
0.394500	-2.818888
0.394600	-2.817914
0.394700	-2.817265
0.394800	-2.820186
0.394900	-2.831871
0.395000	-2.839337
0.395100	-2.849074
0.395200	-2.867251
0.395300	-2.880883
0.395400	-2.873093
0.395500	-2.866926
0.395600	-2.871146
0.395700	-2.880234
0.395800	-2.864005
0.395900	-2.788377
0.396000	-2.693923
0.396100	-2.668605
0.396200	-2.732224
0.396300	-2.794219
0.396400	-2.789026
0.396500	-2.678992
0.396600	-2.539746
0.396700	-2.456003
0.396800	-2.466065
0.396900	-2.514428
0.397000	-2.522543
0.397100	-2.456652
0.397200	-2.352786
0.397300	-2.285921
0.397400	-2.252814
0.397500	-2.224575
0.397600	-2.179134
0.397700	-2.128823
0.397800	-2.086303
0.397900	-2.041510
0.398000	-1.980489
0.398100	-1.905186
0.398200	-1.804240
0.398300	-1.719849
0.398400	-1.669863
0.398500	-1.634808
0.398600	-1.603324
0.398700	-1.537109
0.398800	-1.450121
0.398900	-1.374168
0.399000	-1.273872
0.399100	-1.210254
0.399200	-1.156049
0.399300	-1.098923
0.399400	-1.032059
0.399500	-0.973309
0.399600	-0.896059
0.399700	-0.844126
0.399800	-0.809395
0.399900	-0.788947
0.400000	-0.771419
0.400100	-0.761357
0.400200	-0.768823
0.400300	-0.773042
0.400400	-0.776937
0.400500	-0.771419
0.400600	-0.777586
0.400700	-0.791868
0.400800	-0.813940
0.400900	-0.824002
0.401000	-0.787648
0.401100	-0.685730
0.401200	-0.554274
0.401300	-0.540642
0.401400	-0.644183
0.401500	-0.769147
0.401600	-0.744154
0.401700	-0.659439
0.401800	-0.535448
0.401900	-0.490007
0.402000	-0.520518
0.402100	-0.592250
0.402200	-0.607830
0.402300	-0.554274
0.402400	-0.484164
0.402500	-0.424117
0.402600	-0.400098
0.402700	-0.382246
0.402800	-0.366341
0.402900	-0.345243
0.403000	-0.307916
0.403100	-0.264747
0.403200	-0.229043
0.403300	-0.178084
0.403400	-0.123879
0.403500	-0.098886
0.403600	-0.091420
0.403700	-0.084604
0.403800	-0.089798
0.403900	-0.077139
0.404000	-0.044356
0.404100	-0.006705
0.404200	-0.010600
0.404300	-0.107650
0.404400	-0.169645
0.404500	-0.151793
0.404600	-0.062533
0.404700	-0.006380
0.404800	-0.043058
0.404900	-0.158609
0.405000	-0.256308
0.405100	-0.264423
0.405200	-0.197559
0.405300	-0.149845
0.405400	-0.193015
0.405500	-0.304021
0.405600	-0.389711
0.405700	-0.436451
0.405800	-0.475725
0.405900	-0.531553
0.406000	-0.630875
0.406100	-0.746427
0.406200	-0.851591
0.406300	-0.942474
0.406400	-1.018102
0.406500	-1.104441
0.406600	-1.190130
0.406700	-1.245309
0.406800	-1.283285
0.406900	-1.317367
0.407000	-1.352097
0.407100	-1.442006
0.407200	-1.526722
0.407300	-1.579629
0.407400	-1.637405
0.407500	-1.677653
0.407600	-1.706541
0.407700	-1.739973
0.407800	-1.761720
0.407900	-1.764641
0.408000	-1.774703
0.408100	-1.788011
0.408200	-1.793854
0.408300	-1.798398
0.408400	-1.805863
0.408500	-1.803267
0.408600	-1.807162
0.408700	-1.817224
0.408800	-1.838646
0.408900	-1.861042
0.409000	-1.884737
0.409100	-1.917844
0.409200	-1.971400
0.409300	-2.036317
0.409400	-2.171993
0.409500	-2.351812
0.409600	-2.472557
0.409700	-2.479698
0.409800	-2.413158
0.409900	-2.401473
0.410000	-2.497550
0.410100	-2.681264
0.410200	-2.829599
0.410300	-2.860759
0.410400	-2.825704
0.410500	-2.798764
0.410600	-2.833819
0.410700	-2.934115
0.410800	-3.033762
0.410900	-3.068493
0.411000	-3.068818
0.411100	-3.062001
0.411200	-3.071739
0.411300	-3.084722
0.411400	-3.104522
0.411500	-3.115558
0.411600	-3.115558
0.411700	-3.112961
0.411800	-3.139577
0.411900	-3.158403
0.412000	-3.188589
0.412100	-3.184370
0.412200	-3.185668
0.412300	-3.190861
0.412400	-3.211959
0.412500	-3.191186
0.412600	-3.102574
0.412700	-3.023700
0.412800	-3.036034
0.412900	-3.130164
0.413000	-3.206117
0.413100	-3.195730
0.413200	-3.086345
0.413300	-2.984101
0.413400	-2.964951
0.413500	-3.038307
0.413600	-3.131787
0.413700	-3.157104
0.413800	-3.105171
0.413900	-3.026297
0.414000	-2.987022
0.414100	-2.982478
0.414200	-2.997734
0.414300	-2.984101
0.414400	-2.957810
0.414500	-2.929246
0.414600	-2.902630
0.414700	-2.863680
0.414800	-2.802983
0.414900	-2.722486
0.415000	-2.645885
0.415100	-2.596223
0.415200	-2.554027
0.415300	-2.513130
0.415400	-2.422246
0.415500	-2.334609
0.415600	-2.229769
0.415700	-2.126227
0.415800	-2.050923
0.415900	-1.986656
0.416000	-1.910379
0.416100	-1.821119
0.416200	-1.723744
0.416300	-1.633185
0.416400	-1.546846
0.416500	-1.496211
0.416600	-1.459858
0.416700	-1.429672
0.416800	-1.404030
0.416900	-1.373195
0.417000	-1.336192
0.417100	-1.310226
0.417200	-1.288479
0.417300	-1.284584
0.417400	-1.268679
0.417500	-1.287830
0.417600	-1.251476
0.417700	-1.196297
0.417800	-1.055104
0.417900	-0.953185
0.418000	-0.951238
0.418100	-1.082369
0.418200	-1.152479
0.418300	-1.110283
0.418400	-0.974608
0.418500	-0.861004
0.418600	-0.819457
0.418700	-0.875610
0.418800	-0.934684
0.418900	-0.934035
0.419000	-0.864250
0.419100	-0.772069
0.419200	-0.703906
0.419300	-0.676641
0.419400	-0.675992
0.419500	-0.684107
0.419600	-0.683133
0.419700	-0.662684
0.419800	-0.638341
0.419900	-0.627954
0.420000	-0.622112
0.420100	-0.628603
0.420200	-0.654570
0.420300	-0.664632
0.420400	-0.675668
0.420500	-0.689300
0.420600	-0.694169
0.420700	-0.675992
0.420800	-0.659763
0.420900	-0.682159
0.421000	-0.768498
0.421100	-0.796737
0.421200	-0.743830
0.421300	-0.651973
0.421400	-0.599716
0.421500	-0.636393
0.421600	-0.753567
0.421700	-0.827572
0.421800	-0.810369
0.421900	-0.740909
0.422000	-0.695792
0.422100	-0.743181
0.422200	-0.831792
0.422300	-0.898006
0.422400	-0.929166
0.422500	-0.935009
0.422600	-0.951887
0.422700	-0.992135
0.422800	-1.040173
0.422900	-1.096001
0.423000	-1.138522
0.423100	-1.174875
0.423200	-1.214474
0.423300	-1.230054
0.423400	-1.233949
0.423500	-1.231028
0.423600	-1.237844
0.423700	-1.283610
0.423800	-1.359562
0.423900	-1.405328
0.424000	-1.419285
0.424100	-1.382283
0.424200	-1.379362
0.424300	-1.392670
0.424400	-1.396240
0.424500	-1.393968
0.424600	-1.391047
0.424700	-1.386178
0.424800	-1.380335
0.424900	-1.382283
0.425000	-1.381634
0.425100	-1.385204
0.425200	-1.386827
0.425300	-1.394617
0.425400	-1.392994
0.425500	-1.405653
0.425600	-1.415390
0.425700	-1.433892
0.425800	-1.455314
0.425900	-1.497185
0.426000	-1.545873
0.426100	-1.677328
0.426200	-1.833128
0.426300	-1.899343
0.426400	-1.862990
0.426500	-1.773080
0.426600	-1.782818
0.426700	-1.893501
0.426800	-2.059038
0.426900	-2.153167
0.427000	-2.157062
0.427100	-2.110322
0.427200	-2.085005
0.427300	-2.138561
0.427400	-2.224251
0.427500	-2.309941
0.427600	-2.346943
0.427700	-2.356681
0.427800	-2.359277
0.427900	-2.366418
0.428000	-2.381024
0.428100	-2.414781
0.428200	-2.444643
0.428300	-2.492032
0.428400	-2.535202
0.428500	-2.578696
0.428600	-2.627059
0.428700	-2.661465
0.428800	-2.694248
0.428900	-2.743260
0.429000	-2.797790
0.429100	-2.842258
0.429200	-2.839986
0.429300	-2.793246
0.429400	-2.790974
0.429500	-2.878287
0.429600	-3.017533
0.429700	-3.127892
0.429800	-3.131462
0.429900	-3.056483
0.430000	-3.009094
0.430100	-3.047395
0.430200	-3.167816
0.430300	-3.271683
0.430400	-3.302194
0.430500	-3.266489
0.430600	-3.227539
0.430700	-3.209363
0.430800	-3.217477
0.430900	-3.222346
0.431000	-3.218775
0.431100	-3.209038
0.431200	-3.187291
0.431300	-3.150288
0.431400	-3.094460
0.431500	-3.019805
0.431600	-2.936387
0.431700	-2.872120
0.431800	-2.819537
0.431900	-2.771823
0.432000	-2.701388
0.432100	-2.580643
0.432200	-2.472557
0.432300	-2.345320
0.432400	-2.251191
0.432500	-2.179458
0.432600	-2.113892
0.432700	-2.035992
0.432800	-1.953224
0.432900	-1.864613
0.433000	-1.777300
0.433100	-1.709138
0.433200	-1.657854
0.433300	-1.621825
0.433400	-1.589691
0.433500	-1.587744
0.433600	-1.555610
0.433700	-1.545223
0.433800	-1.513414
0.433900	-1.507572
0.434000	-1.502378
0.434100	-1.530293
0.434200	-1.537433
0.434300	-1.519581
0.434400	-1.438760
0.434500	-1.294646
0.434600	-1.203763
0.434700	-1.261214
0.434800	-1.400460
0.434900	-1.456937
0.435000	-1.386827
0.435100	-1.256670
0.435200	-1.163190
0.435300	-1.170655
0.435400	-1.238493
0.435500	-1.304059
0.435600	-1.298541
0.435700	-1.244011
0.435800	-1.185911
0.435900	-1.151830
0.436000	-1.178121
0.436100	-1.199543
0.436200	-1.219018
0.436300	-1.227133
0.436400	-1.238493
0.436500	-1.248230
0.436600	-1.266732
0.436700	-1.264135
0.436800	-1.280364
0.436900	-1.310550
0.437000	-1.352746
0.437100	-1.389748
0.437200	-1.421233
0.437300	-1.407600
0.437400	-1.387152
0.437500	-1.387801
0.437600	-1.457911
0.437700	-1.539705
0.437800	-1.544574
0.437900	-1.484851
0.438000	-1.380660
0.438100	-1.353071
0.438200	-1.412794
0.438300	-1.510493
0.438400	-1.527047
0.438500	-1.479333
0.438600	-1.401758
0.438700	-1.370923
0.438800	-1.405328
0.438900	-1.466999
0.439000	-1.489071
0.439100	-1.495238
0.439200	-1.473166
0.439300	-1.476736
0.439400	-1.501405
0.439500	-1.524450
0.439600	-1.532565
0.439700	-1.526398
0.439800	-1.539381
0.439900	-1.554961
0.440000	-1.561777
0.440100	-1.550092
0.440200	-1.530293
0.440300	-1.529319
0.440400	-1.570865
0.440500	-1.627992
0.440600	-1.654608
0.440700	-1.666942
0.440800	-1.667916
0.440900	-1.662398
0.441000	-1.664021
0.441100	-1.655257
0.441200	-1.648441
0.441300	-1.642274
0.441400	-1.634484
0.441500	-1.620202
0.441600	-1.605920
0.441700	-1.596183
0.441800	-1.598455
0.441900	-1.607868
0.442000	-1.615658
0.442100	-1.631562
0.442200	-1.638054
0.442300	-1.646493
0.442400	-1.664994
0.442500	-1.679601
0.442600	-1.709462
0.442700	-1.763667
0.442800	-1.899343
0.442900	-2.022360
0.443000	-2.041510
0.443100	-1.950303
0.443200	-1.857796
0.443300	-1.891878
0.443400	-2.032422
0.443500	-2.191792
0.443600	-2.268069
0.443700	-2.229769
0.443800	-2.166150
0.443900	-2.158360
0.444000	-2.234637
0.444100	-2.335907
0.444200	-2.412834
0.444300	-2.426791
0.444400	-2.426141
0.444500	-2.418351
0.444600	-2.438151
0.444700	-2.462819
0.444800	-2.482944
0.444900	-2.482619
0.445000	-2.495278
0.445100	-2.517674
0.445200	-2.541369
0.445300	-2.550782
0.445400	-2.544939
0.445500	-2.534877
0.445600	-2.541044
0.445700	-2.560844
0.445800	-2.559545
0.445900	-2.493655
0.446000	-2.410561
0.446100	-2.386542
0.446200	-2.442695
0.446300	-2.536500
0.446400	-2.584214
0.446500	-2.532929
0.446600	-2.433931
0.446700	-2.369989
0.446800	-2.396604
0.446900	-2.478724
0.447000	-2.539421
0.447100	-2.528061
0.447200	-2.459898
0.447300	-2.402122
0.447400	-2.382323
0.447500	-2.379726
0.447600	-2.374857
0.447700	-2.361225
0.447800	-2.342399
0.447900	-2.312862
0.448000	-2.283974
0.448100	-2.246322
0.448200	-2.183353
0.448300	-2.120709
0.448400	-2.065205
0.448500	-2.020412
0.448600	-1.992174
0.448700	-1.927906
0.448800	-1.827935
0.448900	-1.732508
0.449000	-1.613061
0.449100	-1.540679
0.449200	-1.480956
0.449300	-1.422531
0.449400	-1.359238
0.449500	-1.283610
0.449600	-1.197271
0.449700	-1.140145
0.449800	-1.087562
0.449900	-1.058999
0.450000	-1.034331
0.450100	-1.019075
0.450200	-1.014531
0.450300	-0.992135
0.450400	-0.980126
0.450500	-0.945720
0.450600	-0.940527
0.450700	-0.921701
0.450800	-0.938255
0.450900	-0.933710
0.451000	-0.905796
0.451100	-0.794140
0.451200	-0.655868
0.451300	-0.612050
0.451400	-0.706178
0.451500	-0.845099
0.451600	-0.874636
0.451700	-0.795763
0.451800	-0.689949
0.451900	-0.656193
0.452000	-0.709100
0.452100	-0.823677
0.452200	-0.888593
0.452300	-0.896708
0.452400	-0.842178
0.452500	-0.818808
0.452600	-0.817510
0.452700	-0.857758
0.452800	-0.890866
0.452900	-0.922025
0.453000	-0.941825
0.453100	-0.953510
0.453200	-0.973959
0.453300	-0.993758
0.453400	-1.016803
0.453500	-1.051209
0.453600	-1.110932
0.453700	-1.167085
0.453800	-1.224211
0.453900	-1.257643
0.454000	-1.265109
0.454100	-1.263810
0.454200	-1.297242
0.454300	-1.418312
0.454400	-1.492316
0.454500	-1.521853
0.454600	-1.483877
0.454700	-1.431944
0.454800	-1.474140
0.454900	-1.592937
0.455000	-1.714980
0.455100	-1.759772
0.455200	-1.731534
0.455300	-1.679925
0.455400	-1.677004
0.455500	-1.744517
0.455600	-1.812030
0.455700	-1.834426
0.455800	-1.847085
0.455900	-1.851954
0.456000	-1.872403
0.456100	-1.903887
0.456200	-1.924011
0.456300	-1.931801
0.456400	-1.923362
0.456500	-1.922713
0.456600	-1.921415
0.456700	-1.909081
0.456800	-1.870455
0.456900	-1.830856
0.457000	-1.808135
0.457100	-1.843839
0.457200	-1.871104
0.457300	-1.868832
0.457400	-1.814952
0.457500	-1.780221
0.457600	-1.763992
0.457700	-1.744192
0.457800	-1.725691
0.457900	-1.707190
0.458000	-1.686417
0.458100	-1.670512
0.458200	-1.659476
0.458300	-1.654283
0.458400	-1.646169
0.458500	-1.642598
0.458600	-1.640651
0.458700	-1.646169
0.458800	-1.652660
0.458900	-1.654932
0.459000	-1.662398
0.459100	-1.683820
0.459200	-1.703620
0.459300	-1.736727
0.459400	-1.823391
0.459500	-1.983085
0.459600	-2.089873
0.459700	-2.091496
0.459800	-2.000288
0.459900	-1.961338
0.460000	-2.040537
0.460100	-2.204451
0.460200	-2.342399
0.460300	-2.379077
0.460400	-2.339478
0.460500	-2.301177
0.460600	-2.321301
0.460700	-2.405693
0.460800	-2.485540
0.460900	-2.528061
0.461000	-2.532929
0.461100	-2.534552
0.461200	-2.534877
0.461300	-2.553054
0.461400	-2.567660
0.461500	-2.577073
0.461600	-2.579669
0.461700	-2.580319
0.461800	-2.604013
0.461900	-2.623164
0.462000	-2.617970
0.462100	-2.610830
0.462200	-2.616672
0.462300	-2.642639
0.462400	-2.673150
0.462500	-2.670228
0.462600	-2.601092
0.462700	-2.543641
0.462800	-2.570257
0.462900	-2.656271
0.463000	-2.765007
0.463100	-2.793570
0.463200	-2.729627
0.463300	-2.652701
0.463400	-2.636472
0.463500	-2.706906
0.463600	-2.816616
0.463700	-2.877637
0.463800	-2.864654
0.463900	-2.817265
0.464000	-2.790649
0.464100	-2.802983
0.464200	-2.828625
0.464300	-2.831547
0.464400	-2.816291
0.464500	-2.814993
0.464600	-2.792596
0.464700	-2.760787
0.464800	-2.697818
0.464900	-2.619593
0.465000	-2.548509
0.465100	-2.492357
0.465200	-2.460547
0.465300	-2.426466
0.465400	-2.344671
0.465500	-2.248594
0.465600	-2.164203
0.465700	-2.054169
0.465800	-1.977243
0.465900	-1.915572
0.466000	-1.852603
0.466100	-1.780546
0.466200	-1.701023
0.466300	-1.616632
0.466400	-1.551066
0.466500	-1.493939
0.466600	-1.457911
0.466700	-1.401433
0.466800	-1.380335
0.466900	-1.339438
0.467000	-1.310226
0.467100	-1.268679
0.467200	-1.242388
0.467300	-1.203763
0.467400	-1.199543
0.467500	-1.194025
0.467600	-1.178445
0.467700	-1.129758
0.467800	-0.994083
0.467900	-0.865548
0.468000	-0.829844
0.468100	-0.942799
0.468200	-1.035305
0.468300	-1.012908
0.468400	-0.893787
0.468500	-0.760059
0.468600	-0.706178
0.468700	-0.735066
0.468800	-0.800956
0.468900	-0.799009
0.469000	-0.729548
0.469100	-0.640937
0.469200	-0.579591
0.469300	-0.576021
0.469400	-0.580565
0.469500	-0.588680
0.469600	-0.577644
0.469700	-0.564336
0.469800	-0.561739
0.469900	-0.563362
0.470000	-0.578618
0.470100	-0.577644
0.470200	-0.584460
0.470300	-0.627305
0.470400	-0.658789
0.470500	-0.692871
0.470600	-0.699038
0.470700	-0.680861
0.470800	-0.653272
0.470900	-0.688002
0.471000	-0.777911
0.471100	-0.824975
0.471200	-0.822379
0.471300	-0.748049
0.471400	-0.713319
0.471500	-0.766226
0.471600	-0.879830
0.471700	-0.974283
0.471800	-0.991811
0.471900	-0.941176
0.472000	-0.891839
0.472100	-0.921376
0.472200	-1.003171
0.472300	-1.075228
0.472400	-1.106063
0.472500	-1.128460
0.472600	-1.143715
0.472700	-1.188507
0.472800	-1.244985
0.472900	-1.311524
0.473000	-1.365729
0.473100	-1.408574
0.473200	-1.457262
0.473300	-1.495562
0.473400	-1.524450
0.473500	-1.534512
0.473600	-1.542627
0.473700	-1.580927
0.473800	-1.656880
0.473900	-1.704918
0.474000	-1.720173
0.474100	-1.691935
0.474200	-1.686741
0.474300	-1.708164
0.474400	-1.719200
0.474500	-1.732183
0.474600	-1.746465
0.474700	-1.758150
0.474800	-1.767238
0.474900	-1.788011
0.475000	-1.806512
0.475100	-1.829882
0.475200	-1.852928
0.475300	-1.883439
0.475400	-1.911353
0.475500	-1.936346
0.475600	-1.963286
0.475700	-1.992498
0.475800	-2.033071
0.475900	-2.072670
0.476000	-2.130122
0.476100	-2.251516
0.476200	-2.407640
0.476300	-2.497225
0.476400	-2.464118
0.476500	-2.387516
0.476600	-2.363497
0.476700	-2.482944
0.476800	-2.636796
0.476900	-2.732548
0.477000	-2.725408
0.477100	-2.661140
0.477200	-2.629331
0.477300	-2.672176
0.477400	-2.769551
0.477500	-2.865952
0.477600	-2.905876
0.477700	-2.906850
0.477800	-2.907175
0.477900	-2.924702
0.478000	-2.953590
0.478100	-2.984426
0.478200	-2.993514
0.478300	-2.992540
0.478400	-2.993839
0.478500	-3.002927
0.478600	-3.023376
0.478700	-3.018832
0.478800	-3.014287
0.478900	-3.007146
0.479000	-3.014937
0.479100	-3.028894
0.479200	-2.996760
0.479300	-2.914640
0.479400	-2.870821
0.479500	-2.895490
0.479600	-2.979557
0.479700	-3.062975
0.479800	-3.046097
0.479900	-2.953266
0.480000	-2.862057
0.480100	-2.839337
0.480200	-2.901007
0.480300	-2.980855
0.480400	-2.997734
0.480500	-2.938984
0.480600	-2.857513
0.480700	-2.800711
0.480800	-2.781236
0.480900	-2.786429
0.481000	-2.778639
0.481100	-2.766954
0.481200	-2.741637
0.481300	-2.707880
0.481400	-2.675746
0.481500	-2.621541
0.481600	-2.559221
0.481700	-2.502094
0.481800	-2.464442
0.481900	-2.431335
0.482000	-2.399201
0.482100	-2.319029
0.482200	-2.243726
0.482300	-2.147324
0.482400	-2.064880
0.482500	-1.994121
0.482600	-1.934073
0.482700	-1.865262
0.482800	-1.789634
0.482900	-1.698426
0.483000	-1.612737
0.483100	-1.549443
0.483200	-1.512441
0.483300	-1.480956
0.483400	-1.456937
0.483500	-1.448173
0.483600	-1.424154
0.483700	-1.407925
0.483800	-1.375142
0.483900	-1.379686
0.484000	-1.363457
0.484100	-1.384880
0.484200	-1.382608
0.484300	-1.389424
0.484400	-1.314770
0.484500	-1.186884
0.484600	-1.091133
0.484700	-1.117099
0.484800	-1.247581
0.484900	-1.311524
0.485000	-1.248230
0.485100	-1.119696
0.485200	-1.018751
0.485300	-1.007715
0.485400	-1.071658
0.485500	-1.122617
0.485600	-1.095677
0.485700	-1.030760
0.485800	-0.944097
0.485900	-0.904173
0.486000	-0.899629
0.486100	-0.914885
0.486200	-0.930789
0.486300	-0.928842
0.486400	-0.919429
0.486500	-0.910340
0.486600	-0.902226
0.486700	-0.904498
0.486800	-0.912288
0.486900	-0.928842
0.487000	-0.963247
0.487100	-0.979801
0.487200	-0.995381
0.487300	-0.969414
0.487400	-0.957405
0.487500	-0.943772
0.487600	-0.998951
0.487700	-1.079123
0.487800	-1.105414
0.487900	-1.079772
0.488000	-1.007390
0.488100	-0.995706
0.488200	-1.061596
0.488300	-1.163515
0.488400	-1.229405
0.488500	-1.223562
0.488600	-1.160918
0.488700	-1.133328
0.488800	-1.180717
0.488900	-1.252125
0.489000	-1.296269
0.489100	-1.322884
0.489200	-1.332297
0.489300	-1.354369
0.489400	-1.386827
0.489500	-1.432593
0.489600	-1.488746
0.489700	-1.520231
0.489800	-1.547171
0.489900	-1.579629
0.490000	-1.591314
0.490100	-1.591639
0.490200	-1.568918
0.490300	-1.557233
0.490400	-1.599753
0.490500	-1.658178
0.490600	-1.675056
0.490700	-1.675381
0.490800	-1.638054
0.490900	-1.631562
0.491000	-1.636756
0.491100	-1.634159
0.491200	-1.622149
0.491300	-1.612087
0.491400	-1.596507
0.491500	-1.580927
0.491600	-1.570541
0.491700	-1.548469
0.491800	-1.543925
0.491900	-1.537758
0.492000	-1.528345
0.492100	-1.531915
0.492200	-1.537433
0.492300	-1.547820
0.492400	-1.555285
0.492500	-1.576059
0.492600	-1.601701
0.492700	-1.641624
0.492800	-1.774379
0.492900	-1.908107
0.493000	-1.947381
0.493100	-1.865586
0.493200	-1.785415
0.493300	-1.802617
0.493400	-1.929205
0.493500	-2.069425
0.493600	-2.124604
0.493700	-2.092145
0.493800	-2.031448
0.493900	-2.021062
0.494000	-2.087601
0.494100	-2.186924
0.494200	-2.253463
0.494300	-2.278456
0.494400	-2.280404
0.494500	-2.289492
0.494600	-2.311239
0.494700	-2.344671
0.494800	-2.363172
0.494900	-2.374857
0.495000	-2.378428
0.495100	-2.398227
0.495200	-2.423545
0.495300	-2.441721
0.495400	-2.435554
0.495500	-2.431659
0.495600	-2.438476
0.495700	-2.461196
0.495800	-2.458275
0.495900	-2.408614
0.496000	-2.318055
0.496100	-2.302800
0.496200	-2.350514
0.496300	-2.445292
0.496400	-2.493655
0.496500	-2.447564
0.496600	-2.360900
0.496700	-2.307669
0.496800	-2.340451
0.496900	-2.446915
0.497000	-2.541693
0.497100	-2.568634
0.497200	-2.533903
0.497300	-2.503717
0.497400	-2.510209
0.497500	-2.535851
0.497600	-2.566362
0.497700	-2.578047
0.497800	-2.581617
0.497900	-2.583564
0.498000	-2.574801
0.498100	-2.548185
0.498200	-2.499173
0.498300	-2.444643
0.498400	-2.421597
0.498500	-2.418676
0.498600	-2.433931
0.498700	-2.419650
0.498800	-2.356031
0.498900	-2.313511
0.499000	-2.236260
0.499100	-2.189845
0.499200	-2.157711
0.499300	-2.116489
0.499400	-2.055467
0.499500	-1.998990
0.499600	-1.927582
0.499700	-1.862016
0.499800	-1.818522
0.499900	-1.782818
0.500000	-1.754579
0.500100	-1.727314
0.500200	-1.708488
0.500300	-1.692908
0.500400	-1.660775
0.500500	-1.635782
0.500600	-1.604297
0.500700	-1.603973
0.500800	-1.592937
0.500900	-1.595209
0.501000	-1.575085
0.501100	-1.466674
0.501200	-1.332297
0.501300	-1.225185
0.501400	-1.316068
0.501500	-1.416364
0.501600	-1.456612
0.501700	-1.344307
0.501800	-1.212202
0.501900	-1.118722
0.502000	-1.130083
0.502100	-1.213825
0.502200	-1.244335
0.502300	-1.201166
0.502400	-1.100221
0.502500	-1.022646
0.502600	-0.993109
0.502700	-1.003496
0.502800	-1.003496
0.502900	-0.986293
0.503000	-0.959352
0.503100	-0.937930
0.503200	-0.924297
0.503300	-0.923648
0.503400	-0.919104
0.503500	-0.911639
0.503600	-0.918130
0.503700	-0.944097
0.503800	-0.970064
0.503900	-0.992460
0.504000	-0.972336
0.504100	-0.954159
0.504200	-0.954159
0.504300	-1.045367
0.504400	-1.127810
0.504500	-1.146636
0.504600	-1.098273
0.504700	-1.009338
0.504800	-1.022646
0.504900	-1.110608
0.505000	-1.229080
0.505100	-1.274522
0.505200	-1.240441
0.505300	-1.161242
0.505400	-1.141768
0.505500	-1.198569
0.505600	-1.270302
0.505700	-1.300488
0.505800	-1.312822
0.505900	-1.296593
0.506000	-1.316717
0.506100	-1.362159
0.506200	-1.406951
0.506300	-1.438111
0.506400	-1.461481
0.506500	-1.499782
0.506600	-1.541328
0.506700	-1.570541
0.506800	-1.580603
0.506900	-1.577032
0.507000	-1.596507
0.507100	-1.658827
0.507200	-1.713033
0.507300	-1.742245
0.507400	-1.757825
0.507500	-1.748412
0.507600	-1.753605
0.507700	-1.769835
0.507800	-1.779897
0.507900	-1.790608
0.508000	-1.803591
0.508100	-1.822417
0.508200	-1.849682
0.508300	-1.877921
0.508400	-1.903887
0.508500	-1.937644
0.508600	-1.963610
0.508700	-1.991849
0.508800	-2.015868
0.508900	-2.047028
0.509000	-2.065530
0.509100	-2.093119
0.509200	-2.113892
0.509300	-2.139534
0.509400	-2.207048
0.509500	-2.350838
0.509600	-2.452757
0.509700	-2.444967
0.509800	-2.332661
0.509900	-2.244375
0.510000	-2.279430
0.510100	-2.413807
0.510200	-2.544614
0.510300	-2.574801
0.510400	-2.508910
0.510500	-2.427115
0.510600	-2.413158
0.510700	-2.474180
0.510800	-2.553703
0.510900	-2.597197
0.511000	-2.587135
0.511100	-2.555650
0.511200	-2.532605
0.511300	-2.533579
0.511400	-2.535202
0.511500	-2.536500
0.511600	-2.521894
0.511700	-2.498524
0.511800	-2.500471
0.511900	-2.498848
0.512000	-2.493006
0.512100	-2.464442
0.512200	-2.445941
0.512300	-2.444318
0.512400	-2.456003
0.512500	-2.435554
0.512600	-2.353759
0.512700	-2.259630
0.512800	-2.240804
0.512900	-2.286895
0.513000	-2.363497
0.513100	-2.375182
0.513200	-2.291439
0.513300	-2.179783
0.513400	-2.109024
0.513500	-2.135315
0.513600	-2.222628
0.513700	-2.281053
0.513800	-2.258007
0.513900	-2.186274
0.514000	-2.122332
0.514100	-2.091496
0.514200	-2.098962
0.514300	-2.116489
0.514400	-2.125577
0.514500	-2.117463
0.514600	-2.089873
0.514700	-2.063257
0.514800	-2.030799
0.514900	-1.978541
0.515000	-1.927582
0.515100	-1.895773
0.515200	-1.871104
0.515300	-1.853252
0.515400	-1.800345
0.515500	-1.722445
0.515600	-1.634484
0.515700	-1.533538
0.515800	-1.476412
0.515900	-1.425777
0.516000	-1.386178
0.516100	-1.332297
0.516200	-1.276145
0.516300	-1.210904
0.516400	-1.160593
0.516500	-1.126837
0.516600	-1.113853
0.516700	-1.105090
0.516800	-1.106063
0.516900	-1.119696
0.517000	-1.110932
0.517100	-1.125863
0.517200	-1.112555
0.517300	-1.136574
0.517400	-1.138846
0.517500	-1.186560
0.517600	-1.186884
0.517700	-1.182989
0.517800	-1.079123
0.517900	-0.965519
0.518000	-0.956756
0.518100	-1.079448
0.518200	-1.218044
0.518300	-1.238493
0.518400	-1.144689
0.518500	-1.031734
0.518600	-0.990188
0.518700	-1.031734
0.518800	-1.115152
0.518900	-1.140794
0.519000	-1.099572
0.519100	-1.009338
0.519200	-0.942149
0.519300	-0.918780
0.519400	-0.917806
0.519500	-0.919753
0.519600	-0.909691
0.519700	-0.890866
0.519800	-0.870741
0.519900	-0.853214
0.520000	-0.838283
0.520100	-0.827247
0.520200	-0.839257
0.520300	-0.879181
0.520400	-0.920402
0.520500	-0.967142
0.520600	-0.993758
0.520700	-0.996030
0.520800	-1.005443
0.520900	-1.058999
0.521000	-1.188832
0.521100	-1.274522
0.521200	-1.305682
0.521300	-1.272899
0.521400	-1.246932
0.521500	-1.318016
0.521600	-1.453042
0.521700	-1.585796
0.521800	-1.650713
0.521900	-1.632861
0.522000	-1.607543
0.522100	-1.644221
0.522200	-1.728288
0.522300	-1.812030
0.522400	-1.854226
0.522500	-1.875324
0.522600	-1.883763
0.522700	-1.904212
0.522800	-1.929854
0.522900	-1.950303
0.523000	-1.951925
0.523100	-1.955496
0.523200	-1.968479
0.523300	-1.972374
0.523400	-1.956145
0.523500	-1.933100
0.523600	-1.903563
0.523700	-1.889606
0.523800	-1.923687
0.523900	-1.940241
0.524000	-1.936021
0.524100	-1.918818
0.524200	-1.870455
0.524300	-1.835400
0.524400	-1.806512
0.524500	-1.777949
0.524600	-1.740298
0.524700	-1.700374
0.524800	-1.659152
0.524900	-1.625395
0.525000	-1.598130
0.525100	-1.572164
0.525200	-1.551715
0.525300	-1.527371
0.525400	-1.512116
0.525500	-1.497510
0.525600	-1.480631
0.525700	-1.462130
0.525800	-1.463429
0.525900	-1.463753
0.526000	-1.479009
0.526100	-1.550741
0.526200	-1.688689
0.526300	-1.756851
0.526400	-1.714331
0.526500	-1.606245
0.526600	-1.552689
0.526700	-1.622799
0.526800	-1.780221
0.526900	-1.895773
0.527000	-1.919467
0.527100	-1.867534
0.527200	-1.842541
0.527300	-1.882465
0.527400	-1.995744
0.527500	-2.099611
0.527600	-2.159659
0.527700	-2.170370
0.527800	-2.189845
0.527900	-2.221654
0.528000	-2.257358
0.528100	-2.293387
0.528200	-2.316757
0.528300	-2.332337
0.528400	-2.366743
0.528500	-2.408614
0.528600	-2.442046
0.528700	-2.451784
0.528800	-2.440748
0.528900	-2.449511
0.529000	-2.484242
0.529100	-2.512156
0.529200	-2.502743
0.529300	-2.423545
0.529400	-2.368690
0.529500	-2.394981
0.529600	-2.492357
0.529700	-2.594925
0.529800	-2.618620
0.529900	-2.568958
0.530000	-2.508910
0.530100	-2.516700
0.530200	-2.617321
0.530300	-2.738391
0.530400	-2.805255
0.530500	-2.806878
0.530600	-2.778315
0.530700	-2.773121
0.530800	-2.785456
0.530900	-2.818563
0.531000	-2.835442
0.531100	-2.835766
0.531200	-2.820186
0.531300	-2.798114
0.531400	-2.759813
0.531500	-2.704310
0.531600	-2.627708
0.531700	-2.545588
0.531800	-2.478075
0.531900	-2.420299
0.532000	-2.365444
0.532100	-2.261578
0.532200	-2.144728
0.532300	-1.997692
0.532400	-1.875973
0.532500	-1.782493
0.532600	-1.696803
0.532700	-1.611114
0.532800	-1.527371
0.532900	-1.440708
0.533000	-1.369949
0.533100	-1.301787
0.533200	-1.265109
0.533300	-1.239467
0.533400	-1.223887
0.533500	-1.217395
0.533600	-1.212202
0.533700	-1.200517
0.533800	-1.186884
0.533900	-1.179094
0.534000	-1.174226
0.534100	-1.172927
0.534200	-1.174550
0.534300	-1.172278
0.534400	-1.122942
0.534500	-0.987591
0.534600	-0.877882
0.534700	-0.877233
0.534800	-1.030760
0.534900	-1.114503
0.535000	-1.101519
0.535100	-0.975906
0.535200	-0.871391
0.535300	-0.856135
0.535400	-0.906770
0.535500	-0.979152
0.535600	-0.971037
0.535700	-0.904498
0.535800	-0.812966
0.535900	-0.753892
0.536000	-0.740259
0.536100	-0.728575
0.536200	-0.724030
0.536300	-0.701310
0.536400	-0.662360
0.536500	-0.639964
0.536600	-0.616918
0.536700	-0.602961
0.536800	-0.575696
0.536900	-0.578293
0.537000	-0.579267
0.537100	-0.592899
0.537200	-0.601988
0.537300	-0.586408
0.537400	-0.550704
0.537500	-0.522790
0.537600	-0.556222
0.537700	-0.644183
0.537800	-0.676641
0.537900	-0.643209
0.538000	-0.551677
0.538100	-0.508183
0.538200	-0.555897
0.538300	-0.649377
0.538400	-0.718837
0.538500	-0.704555
0.538600	-0.635095
0.538700	-0.582188
0.538800	-0.604584
0.538900	-0.667878
0.539000	-0.715591
0.539100	-0.729873
0.539200	-0.723057
0.539300	-0.721109
0.539400	-0.732470
0.539500	-0.758111
0.539600	-0.776937
0.539700	-0.789596
0.539800	-0.806474
0.539900	-0.826923
0.540000	-0.843477
0.540100	-0.843801
0.540200	-0.839257
0.540300	-0.846073
0.540400	-0.891190
0.540500	-0.974608
0.540600	-1.038550
0.540700	-1.079123
0.540800	-1.098598
0.540900	-1.132355
0.541000	-1.187534
0.541100	-1.230054
0.541200	-1.273223
0.541300	-1.311849
0.541400	-1.351772
0.541500	-1.391047
0.541600	-1.431944
0.541700	-1.477061
0.541800	-1.524125
0.541900	-1.565347
0.542000	-1.600402
0.542100	-1.635133
0.542200	-1.658178
0.542300	-1.682197
0.542400	-1.710111
0.542500	-1.737701
0.542600	-1.769835
0.542700	-1.831505
0.542800	-1.965883
0.542900	-2.134990
0.543000	-2.206074
0.543100	-2.163878
0.543200	-2.082732
0.543300	-2.085005
0.543400	-2.206074
0.543500	-2.374533
0.543600	-2.481645
0.543700	-2.472232
0.543800	-2.418027
0.543900	-2.400824
0.544000	-2.467688
0.544100	-2.577722
0.544200	-2.673474
0.544300	-2.706257
0.544400	-2.720539
0.544500	-2.735470
0.544600	-2.772797
0.544700	-2.815642
0.544800	-2.858487
0.544900	-2.888349
0.545000	-2.912368
0.545100	-2.946774
0.545200	-2.977934
0.545300	-3.008769
0.545400	-3.010717
0.545500	-3.019481
0.545600	-3.032789
0.545700	-3.064273
0.545800	-3.076608
0.545900	-3.039605
0.546000	-2.951318
0.546100	-2.923079
0.546200	-2.960731
0.546300	-3.046746
0.546400	-3.109066
0.546500	-3.079853
0.546600	-2.982478
0.546700	-2.902630
0.546800	-2.900358
0.546900	-2.963003
0.547000	-3.036034
0.547100	-3.052913
0.547200	-3.000006
0.547300	-2.932168
0.547400	-2.901981
0.547500	-2.900358
0.547600	-2.905876
0.547700	-2.890945
0.547800	-2.861084
0.547900	-2.828950
0.548000	-2.785456
0.548100	-2.728978
0.548200	-2.639393
0.548300	-2.542018
0.548400	-2.464767
0.548500	-2.411860
0.548600	-2.365120
0.548700	-2.305072
0.548800	-2.188547
0.548900	-2.083057
0.549000	-1.980813
0.549100	-1.887983
0.549200	-1.815276
0.549300	-1.745815
0.549400	-1.665968
0.549500	-1.590989
0.549600	-1.496861
0.549700	-1.415066
0.549800	-1.356316
0.549900	-1.314770
0.550000	-1.275171
0.550100	-1.247257
0.550200	-1.219018
0.550300	-1.197596
0.550400	-1.157997
0.550500	-1.126512
0.550600	-1.087238
0.550700	-1.071982
0.550800	-1.066140
0.550900	-1.055753
0.551000	-1.028164
0.551100	-0.938579
0.551200	-0.785701
0.551300	-0.699362
0.551400	-0.738637
0.551500	-0.876584
0.551600	-0.910016
0.551700	-0.852240
0.551800	-0.718188
0.551900	-0.643859
0.552000	-0.659114
0.552100	-0.738637
0.552200	-0.800956
0.552300	-0.779858
0.552400	-0.732145
0.552500	-0.664956
0.552600	-0.646455
0.552700	-0.664956
0.552800	-0.689625
0.552900	-0.703582
0.553000	-0.710398
0.553100	-0.701959
0.553200	-0.709749
0.553300	-0.729548
0.553400	-0.734742
0.553500	-0.765901
0.553600	-0.805176
0.553700	-0.858083
0.553800	-0.904823
0.553900	-0.953185
0.554000	-0.988565
0.554100	-0.999276
0.554200	-1.034006
0.554300	-1.114503
0.554400	-1.236221
0.554500	-1.278741
0.554600	-1.248555
0.554700	-1.178770
0.554800	-1.173901
0.554900	-1.261538
0.555000	-1.371572
0.555100	-1.414417
0.555200	-1.364106
0.555300	-1.287180
0.555400	-1.256345
0.555500	-1.303734
0.555600	-1.359562
0.555700	-1.373195
0.555800	-1.367352
0.555900	-1.342684
0.556000	-1.340412
0.556100	-1.354044
0.556200	-1.381309
0.556300	-1.409223
0.556400	-1.421233
0.556500	-1.431295
0.556600	-1.449472
0.556700	-1.446875
0.556800	-1.426426
0.556900	-1.401433
0.557000	-1.388450
0.557100	-1.416364
0.557200	-1.459209
0.557300	-1.467973
0.557400	-1.441682
0.557500	-1.398188
0.557600	-1.383906
0.557700	-1.372221
0.557800	-1.350798
0.557900	-1.324183
0.558000	-1.296593
0.558100	-1.269653
0.558200	-1.237844
0.558300	-1.216097
0.558400	-1.194999
0.558500	-1.173577
0.558600	-1.163839
0.558700	-1.158321
0.558800	-1.151830
0.558900	-1.139820
0.559000	-1.140145
0.559100	-1.139171
0.559200	-1.151830
0.559300	-1.163515
0.559400	-1.223238
0.559500	-1.349825
0.559600	-1.487123
0.559700	-1.493939
0.559800	-1.422531
0.559900	-1.341061
0.560000	-1.369949
0.560100	-1.517958
0.560200	-1.666293
0.560300	-1.750035
0.560400	-1.722445
0.560500	-1.682846
0.560600	-1.693233
0.560700	-1.783467
0.560800	-1.894799
0.560900	-1.971076
0.561000	-2.000938
0.561100	-1.997692
0.561200	-2.025281
0.561300	-2.070074
0.561400	-2.117787
0.561500	-2.157062
0.561600	-2.176537
0.561700	-2.188547
0.561800	-2.209969
0.561900	-2.258007
0.562000	-2.288194
0.562100	-2.311564
0.562200	-2.320652
0.562300	-2.344996
0.562400	-2.374857
0.562500	-2.389464
0.562600	-2.350838
0.562700	-2.282026
0.562800	-2.276184
0.562900	-2.344346
0.563000	-2.449836
0.563100	-2.504691
0.563200	-2.456003
0.563300	-2.346294
0.563400	-2.282676
0.563500	-2.327468
0.563600	-2.423869
0.563700	-2.493979
0.563800	-2.478724
0.563900	-2.416404
0.564000	-2.370962
0.564100	-2.361549
0.564200	-2.384595
0.564300	-2.411535
0.564400	-2.423545
0.564500	-2.422571
0.564600	-2.409912
0.564700	-2.397578
0.564800	-2.363172
0.564900	-2.308967
0.565000	-2.258332
0.565100	-2.228470
0.565200	-2.217434
0.565300	-2.215162
0.565400	-2.189196
0.565500	-2.127849
0.565600	-2.081110
0.565700	-2.022360
0.565800	-1.973023
0.565900	-1.934398
0.566000	-1.891878
0.566100	-1.843839
0.566200	-1.793204
0.566300	-1.723744
0.566400	-1.674083
0.566500	-1.653959
0.566600	-1.651037
0.566700	-1.649090
0.566800	-1.651362
0.566900	-1.653309
0.567000	-1.654608
0.567100	-1.649090
0.567200	-1.644221
0.567300	-1.647142
0.567400	-1.661424
0.567500	-1.679601
0.567600	-1.681873
0.567700	-1.667266
0.567800	-1.557557
0.567900	-1.431944
0.568000	-1.373519
0.568100	-1.476736
0.568200	-1.607543
0.568300	-1.625720
0.568400	-1.529968
0.568500	-1.391047
0.568600	-1.304708
0.568700	-1.331648
0.568800	-1.387152
0.568900	-1.418312
0.569000	-1.369949
0.569100	-1.276794
0.569200	-1.193051
0.569300	-1.154102
0.569400	-1.160269
0.569500	-1.173901
0.569600	-1.167409
0.569700	-1.132355
0.569800	-1.092756
0.569900	-1.069710
0.570000	-1.057701
0.570100	-1.040173
0.570200	-1.042770
0.570300	-1.028164
0.570400	-1.032708
0.570500	-1.032383
0.570600	-1.027515
0.570700	-1.001548
0.570800	-0.960651
0.570900	-0.950264
0.571000	-1.020698
0.571100	-1.068737
0.571200	-1.077825
0.571300	-1.006741
0.571400	-0.937930
0.571500	-0.937281
0.571600	-1.034331
0.571700	-1.132679
0.571800	-1.151830
0.571900	-1.097949
0.572000	-1.026216
0.572100	-1.008040
0.572200	-1.057052
0.572300	-1.120670
0.572400	-1.142092
0.572500	-1.140794
0.572600	-1.118073
0.572700	-1.124240
0.572800	-1.152479
0.572900	-1.191104
0.573000	-1.204736
0.573100	-1.212851
0.573200	-1.219018
0.573300	-1.226483
0.573400	-1.219992
0.573500	-1.204412
0.573600	-1.183639
0.573700	-1.183639
0.573800	-1.235572
0.573900	-1.277767
0.574000	-1.296269
0.574100	-1.284908
0.574200	-1.259266
0.574300	-1.268355
0.574400	-1.268679
0.574500	-1.272899
0.574600	-1.271600
0.574700	-1.272574
0.574800	-1.265433
0.574900	-1.261863
0.575000	-1.269004
0.575100	-1.276469
0.575200	-1.283285
0.575300	-1.303085
0.575400	-1.322235
0.575500	-1.339114
0.575600	-1.361510
0.575700	-1.399810
0.575800	-1.440383
0.575900	-1.477061
0.576000	-1.521853
0.576100	-1.622149
0.576200	-1.786388
0.576300	-1.907133
0.576400	-1.901940
0.576500	-1.815601
0.576600	-1.751982
0.576700	-1.813978
0.576800	-1.970427
0.576900	-2.101234
0.577000	-2.132069
0.577100	-2.078513
0.577200	-2.024307
0.577300	-2.035668
0.577400	-2.119410
0.577500	-2.225549
0.577600	-2.289492
0.577700	-2.308967
0.577800	-2.304747
0.577900	-2.309616
0.578000	-2.336881
0.578100	-2.379726
0.578200	-2.418676
0.578300	-2.440748
0.578400	-2.469960
0.578500	-2.489760
0.578600	-2.521894
0.578700	-2.528061
0.578800	-2.539097
0.578900	-2.538772
0.579000	-2.548834
0.579100	-2.561168
0.579200	-2.538772
0.579300	-2.460547
0.579400	-2.394332
0.579500	-2.402771
0.579600	-2.466065
0.579700	-2.554677
0.579800	-2.560519
0.579900	-2.483268
0.580000	-2.382323
0.580100	-2.345320
0.580200	-2.388490
0.580300	-2.474180
0.580400	-2.523517
0.580500	-2.495602
0.580600	-2.423545
0.580700	-2.367067
0.580800	-2.338829
0.580900	-2.327468
0.581000	-2.318704
0.581100	-2.295659
0.581200	-2.268394
0.581300	-2.223277
0.581400	-2.166150
0.581500	-2.085329
0.581600	-2.003210
0.581700	-1.940241
0.581800	-1.901291
0.581900	-1.871429
0.582000	-1.836049
0.582100	-1.772431
0.582200	-1.695505
0.582300	-1.653309
0.582400	-1.566646
0.582500	-1.514388
0.582600	-1.462130
0.582700	-1.409872
0.582800	-1.345281
0.582900	-1.277118
0.583000	-1.206359
0.583100	-1.160269
0.583200	-1.129758
0.583300	-1.121968
0.583400	-1.116450
0.583500	-1.116450
0.583600	-1.115152
0.583700	-1.121968
0.583800	-1.127486
0.583900	-1.139171
0.584000	-1.158646
0.584100	-1.189481
0.584200	-1.217395
0.584300	-1.235572
0.584400	-1.207982
0.584500	-1.087887
0.584600	-0.994407
0.584700	-0.972985
0.584800	-1.124240
0.584900	-1.211553
0.585000	-1.214474
0.585100	-1.083992
0.585200	-0.964870
0.585300	-0.922350
0.585400	-0.959677
0.585500	-1.027839
0.585600	-1.022321
0.585700	-0.960002
0.585800	-0.854188
0.585900	-0.777262
0.586000	-0.739610
0.586100	-0.720460
0.586200	-0.695143
0.586300	-0.660088
0.586400	-0.618866
0.586500	-0.585434
0.586600	-0.552327
0.586700	-0.521167
0.586800	-0.479296
0.586900	-0.461119
0.587000	-0.481243
0.587100	-0.500718
0.587200	-0.513701
0.587300	-0.499420
0.587400	-0.465663
0.587500	-0.440021
0.587600	-0.467286
0.587700	-0.554274
0.587800	-0.599391
0.587900	-0.579267
0.588000	-0.498121
0.588100	-0.437425
0.588200	-0.479296
0.588300	-0.573424
0.588400	-0.654245
0.588500	-0.652622
0.588600	-0.592575
0.588700	-0.536097
0.588800	-0.555572
0.588900	-0.633147
0.589000	-0.695467
0.589100	-0.728250
0.589200	-0.756813
0.589300	-0.782455
0.589400	-0.843152
0.589500	-0.917157
0.589600	-0.988889
0.589700	-1.036927
0.589800	-1.090484
0.589900	-1.152803
0.590000	-1.207658
0.590100	-1.238168
0.590200	-1.256020
0.590300	-1.266732
0.590400	-1.308927
0.590500	-1.388125
0.590600	-1.448173
0.590700	-1.478359
0.590800	-1.459858
0.590900	-1.463429
0.591000	-1.482904
0.591100	-1.491343
0.591200	-1.491667
0.591300	-1.491018
0.591400	-1.480631
0.591500	-1.473815
0.591600	-1.466674
0.591700	-1.458235
0.591800	-1.449472
0.591900	-1.444603
0.592000	-1.443954
0.592100	-1.434541
0.592200	-1.430646
0.592300	-1.420908
0.592400	-1.420584
0.592500	-1.430646
0.592600	-1.435514
0.592700	-1.468946
0.592800	-1.564049
0.592900	-1.711410
0.593000	-1.785415
0.593100	-1.726016
0.593200	-1.642923
0.593300	-1.613386
0.593400	-1.733157
0.593500	-1.897720
0.593600	-2.011649
0.593700	-2.028202
0.593800	-1.974322
0.593900	-1.954198
0.594000	-2.004833
0.594100	-2.122981
0.594200	-2.211592
0.594300	-2.248594
0.594400	-2.256709
0.594500	-2.263201
0.594600	-2.287869
0.594700	-2.330065
0.594800	-2.354409
0.594900	-2.371287
0.595000	-2.375182
0.595100	-2.382647
0.595200	-2.424194
0.595300	-2.456328
0.595400	-2.464118
0.595500	-2.466065
0.595600	-2.488462
0.595700	-2.536175
0.595800	-2.569932
0.595900	-2.564414
0.596000	-2.503717
0.596100	-2.493979
0.596200	-2.560194
0.596300	-2.683536
0.596400	-2.808176
0.596500	-2.829274
0.596600	-2.772472
0.596700	-2.717293
0.596800	-2.740988
0.596900	-2.850048
0.597000	-2.981504
0.597100	-3.049018
0.597200	-3.026297
0.597300	-2.988321
0.597400	-2.982154
0.597500	-3.002602
0.597600	-3.039930
0.597700	-3.063949
0.597800	-3.065572
0.597900	-3.059405
