LabVIEW Measurement	
Writer_Version	2
Reader_Version	2
Separator	Tab
Decimal_Separator	.
Multi_Headings	Yes
X_Columns	One
Time_Pref	Relative
Operator	as989
Description	Time Domain Data
Date	1903/12/31
Time	19:00:00
***End_of_Header***	
	
Channels	1	
Samples	15000	
Date	1903/12/31	
Time	19:00:00	
X_Dimension	Time	
X0	0.0000000000000000E+0	
Delta_X	0.000100	
***End_of_Header***		
X_Value	Untitled	Comment
0.000000	-0.917481	Tare Values:0.000000, 0.000000, 0.000000, 0.000000\0D\0A
0.000100	-0.882751
0.000200	-1.015505
0.000300	-1.116126
0.000400	-1.108336
0.000500	-1.016154
0.000600	-0.911314
0.000700	-0.896708
0.000800	-0.966818
0.000900	-1.063219
0.001000	-1.098273
0.001100	-1.058025
0.001200	-0.987916
0.001300	-0.939553
0.001400	-0.931114
0.001500	-0.943772
0.001600	-0.946369
0.001700	-0.952861
0.001800	-0.935982
0.001900	-0.930140
0.002000	-0.940851
0.002100	-0.960326
0.002200	-0.961300
0.002300	-0.998627
0.002400	-1.048612
0.002500	-1.103467
0.002600	-1.162541
0.002700	-1.199219
0.002800	-1.216421
0.002900	-1.216421
0.003000	-1.265109
0.003100	-1.381309
0.003200	-1.442331
0.003300	-1.444603
0.003400	-1.379686
0.003500	-1.340087
0.003600	-1.374168
0.003700	-1.478684
0.003800	-1.543925
0.003900	-1.530942
0.004000	-1.467973
0.004100	-1.419285
0.004200	-1.435190
0.004300	-1.495238
0.004400	-1.547820
0.004500	-1.563075
0.004600	-1.550741
0.004700	-1.543276
0.004800	-1.567295
0.004900	-1.609166
0.005000	-1.646493
0.005100	-1.658503
0.005200	-1.663047
0.005300	-1.675706
0.005400	-1.695181
0.005500	-1.693233
0.005600	-1.679276
0.005700	-1.664021
0.005800	-1.678302
0.005900	-1.728937
0.006000	-1.755553
0.006100	-1.756851
0.006200	-1.723095
0.006300	-1.693882
0.006400	-1.687715
0.006500	-1.671811
0.006600	-1.644870
0.006700	-1.623123
0.006800	-1.603648
0.006900	-1.579954
0.007000	-1.557882
0.007100	-1.535486
0.007200	-1.523476
0.007300	-1.516336
0.007400	-1.506273
0.007500	-1.498808
0.007600	-1.482254
0.007700	-1.471543
0.007800	-1.462455
0.007900	-1.460507
0.008000	-1.466350
0.008100	-1.484202
0.008200	-1.575734
0.008300	-1.706865
0.008400	-1.750360
0.008500	-1.693882
0.008600	-1.592937
0.008700	-1.574436
0.008800	-1.671486
0.008900	-1.814627
0.009000	-1.911677
0.009100	-1.909405
0.009200	-1.864288
0.009300	-1.850331
0.009400	-1.896097
0.009500	-1.987954
0.009600	-2.063582
0.009700	-2.110647
0.009800	-2.124928
0.009900	-2.119086
0.010000	-2.138885
0.010100	-2.172967
0.010200	-2.198933
0.010300	-2.217759
0.010400	-2.229769
0.010500	-2.251516
0.010600	-2.276833
0.010700	-2.295334
0.010800	-2.302475
0.010900	-2.304747
0.011000	-2.310914
0.011100	-2.333635
0.011200	-2.343697
0.011300	-2.320652
0.011400	-2.230418
0.011500	-2.189845
0.011600	-2.219706
0.011700	-2.300852
0.011800	-2.381674
0.011900	-2.378428
0.012000	-2.291115
0.012100	-2.207048
0.012200	-2.221329
0.012300	-2.293711
0.012400	-2.383296
0.012500	-2.403745
0.012600	-2.374208
0.012700	-2.332012
0.012800	-2.309616
0.012900	-2.311564
0.013000	-2.322599
0.013100	-2.313186
0.013200	-2.292413
0.013300	-2.277482
0.013400	-2.262227
0.013500	-2.240155
0.013600	-2.177835
0.013700	-2.109024
0.013800	-2.049625
0.013900	-2.014245
0.014000	-1.994121
0.014100	-1.965233
0.014200	-1.883439
0.014300	-1.799696
0.014400	-1.710436
0.014500	-1.631562
0.014600	-1.571839
0.014700	-1.510168
0.014800	-1.446875
0.014900	-1.379037
0.015000	-1.298865
0.015100	-1.230054
0.015200	-1.174550
0.015300	-1.139495
0.015400	-1.115801
0.015500	-1.102818
0.015600	-1.102493
0.015700	-1.098598
0.015800	-1.086589
0.015900	-1.079772
0.016000	-1.069386
0.016100	-1.072631
0.016200	-1.094703
0.016300	-1.114503
0.016400	-1.123591
0.016500	-1.063219
0.016600	-0.936307
0.016700	-0.848670
0.016800	-0.897682
0.016900	-1.040822
0.017000	-1.129109
0.017100	-1.083343
0.017200	-0.970064
0.017300	-0.892813
0.017400	-0.903200
0.017500	-0.973309
0.017600	-1.046990
0.017700	-1.038875
0.017800	-0.985643
0.017900	-0.922350
0.018000	-0.894111
0.018100	-0.896708
0.018200	-0.911639
0.018300	-0.924622
0.018400	-0.917157
0.018500	-0.906770
0.018600	-0.899305
0.018700	-0.908393
0.018800	-0.902226
0.018900	-0.913262
0.019000	-0.933710
0.019100	-0.981749
0.019200	-1.027190
0.019300	-1.076526
0.019400	-1.093405
0.019500	-1.089510
0.019600	-1.097624
0.019700	-1.164488
0.019800	-1.285557
0.019900	-1.333271
0.020000	-1.314121
0.020100	-1.253424
0.020200	-1.247906
0.020300	-1.334569
0.020400	-1.450770
0.020500	-1.501405
0.020600	-1.477710
0.020700	-1.411495
0.020800	-1.389424
0.020900	-1.433892
0.021000	-1.511142
0.021100	-1.545548
0.021200	-1.542302
0.021300	-1.534512
0.021400	-1.552040
0.021500	-1.584822
0.021600	-1.624746
0.021700	-1.655257
0.021800	-1.659152
0.021900	-1.673433
0.022000	-1.693558
0.022100	-1.699076
0.022200	-1.683496
0.022300	-1.662073
0.022400	-1.641624
0.022500	-1.660126
0.022600	-1.704918
0.022700	-1.736078
0.022800	-1.717252
0.022900	-1.673109
0.023000	-1.669214
0.023100	-1.666617
0.023200	-1.660450
0.023300	-1.653634
0.023400	-1.647142
0.023500	-1.641949
0.023600	-1.640326
0.023700	-1.632211
0.023800	-1.618579
0.023900	-1.618579
0.024000	-1.616307
0.024100	-1.627018
0.024200	-1.632211
0.024300	-1.647467
0.024400	-1.651686
0.024500	-1.670512
0.024600	-1.694207
0.024700	-1.718550
0.024800	-1.781195
0.024900	-1.919792
0.025000	-2.060012
0.025100	-2.101558
0.025200	-2.023658
0.025300	-1.926608
0.025400	-1.925959
0.025500	-2.049300
0.025600	-2.191143
0.025700	-2.259630
0.025800	-2.213215
0.025900	-2.143105
0.026000	-2.126551
0.026100	-2.196661
0.026200	-2.298256
0.026300	-2.366743
0.026400	-2.382972
0.026500	-2.371611
0.026600	-2.367067
0.026700	-2.391736
0.026800	-2.426141
0.026900	-2.447239
0.027000	-2.445292
0.027100	-2.437502
0.027200	-2.445292
0.027300	-2.469960
0.027400	-2.472557
0.027500	-2.466065
0.027600	-2.449511
0.027700	-2.455029
0.027800	-2.462819
0.027900	-2.469960
0.028000	-2.415106
0.028100	-2.337206
0.028200	-2.315783
0.028300	-2.369989
0.028400	-2.470609
0.028500	-2.544290
0.028600	-2.516051
0.028700	-2.426791
0.028800	-2.368366
0.028900	-2.394981
0.029000	-2.505340
0.029100	-2.608882
0.029200	-2.631278
0.029300	-2.579669
0.029400	-2.523841
0.029500	-2.507937
0.029600	-2.519946
0.029700	-2.533579
0.029800	-2.524166
0.029900	-2.498848
0.030000	-2.459249
0.030100	-2.418027
0.030200	-2.358628
0.030300	-2.282351
0.030400	-2.196012
0.030500	-2.124928
0.030600	-2.070398
0.030700	-2.026580
0.030800	-1.956470
0.030900	-1.858121
0.031000	-1.777625
0.031100	-1.677978
0.031200	-1.589367
0.031300	-1.524125
0.031400	-1.460183
0.031500	-1.383581
0.031600	-1.299514
0.031700	-1.192727
0.031800	-1.109634
0.031900	-1.049262
0.032000	-1.010961
0.032100	-0.977529
0.032200	-0.949290
0.032300	-0.924297
0.032400	-0.898655
0.032500	-0.872364
0.032600	-0.860355
0.032700	-0.834713
0.032800	-0.853214
0.032900	-0.842827
0.033000	-0.876259
0.033100	-0.853214
0.033200	-0.774341
0.033300	-0.613997
0.033400	-0.556222
0.033500	-0.629252
0.033600	-0.768498
0.033700	-0.822703
0.033800	-0.740584
0.033900	-0.615620
0.034000	-0.539343
0.034100	-0.560441
0.034200	-0.650675
0.034300	-0.699362
0.034400	-0.686703
0.034500	-0.598742
0.034600	-0.517596
0.034700	-0.483515
0.034800	-0.482866
0.034900	-0.502666
0.035000	-0.505587
0.035100	-0.504613
0.035200	-0.479296
0.035300	-0.472155
0.035400	-0.478971
0.035500	-0.484489
0.035600	-0.503964
0.035700	-0.540642
0.035800	-0.589004
0.035900	-0.629577
0.036000	-0.665606
0.036100	-0.664632
0.036200	-0.670474
0.036300	-0.688002
0.036400	-0.765577
0.036500	-0.853214
0.036600	-0.874312
0.036700	-0.842178
0.036800	-0.766551
0.036900	-0.775314
0.037000	-0.854188
0.037100	-0.958379
0.037200	-1.009663
0.037300	-0.981424
0.037400	-0.909042
0.037500	-0.881128
0.037600	-0.940851
0.037700	-1.018102
0.037800	-1.063219
0.037900	-1.087562
0.038000	-1.095352
0.038100	-1.121968
0.038200	-1.165787
0.038300	-1.224536
0.038400	-1.263810
0.038500	-1.286856
0.038600	-1.317691
0.038700	-1.343658
0.038800	-1.356316
0.038900	-1.348526
0.039000	-1.331324
0.039100	-1.324183
0.039200	-1.369949
0.039300	-1.423180
0.039400	-1.446550
0.039500	-1.435190
0.039600	-1.397538
0.039700	-1.398512
0.039800	-1.395915
0.039900	-1.390073
0.040000	-1.371896
0.040100	-1.350798
0.040200	-1.327753
0.040300	-1.297892
0.040400	-1.276794
0.040500	-1.252775
0.040600	-1.234273
0.040700	-1.219667
0.040800	-1.199543
0.040900	-1.190130
0.041000	-1.175849
0.041100	-1.170331
0.041200	-1.170655
0.041300	-1.179744
0.041400	-1.203438
0.041500	-1.269977
0.041600	-1.415715
0.041700	-1.535486
0.041800	-1.534188
0.041900	-1.449472
0.042000	-1.381634
0.042100	-1.441032
0.042200	-1.594235
0.042300	-1.743868
0.042400	-1.793854
0.042500	-1.754255
0.042600	-1.704918
0.042700	-1.715954
0.042800	-1.788985
0.042900	-1.881491
0.043000	-1.934398
0.043100	-1.952250
0.043200	-1.956470
0.043300	-1.962961
0.043400	-1.986007
0.043500	-2.015219
0.043600	-2.037291
0.043700	-2.061310
0.043800	-2.088575
0.043900	-2.121682
0.044000	-2.153167
0.044100	-2.164527
0.044200	-2.170045
0.044300	-2.177511
0.044400	-2.203477
0.044500	-2.229769
0.044600	-2.240480
0.044700	-2.181406
0.044800	-2.122656
0.044900	-2.141807
0.045000	-2.227172
0.045100	-2.344022
0.045200	-2.402771
0.045300	-2.363172
0.045400	-2.290790
0.045500	-2.271964
0.045600	-2.332661
0.045700	-2.444967
0.045800	-2.525789
0.045900	-2.542342
0.046000	-2.512156
0.046100	-2.489760
0.046200	-2.488786
0.046300	-2.501769
0.046400	-2.519622
0.046500	-2.524815
0.046600	-2.516051
0.046700	-2.501769
0.046800	-2.472881
0.046900	-2.423220
0.047000	-2.350838
0.047100	-2.290790
0.047200	-2.253463
0.047300	-2.239181
0.047400	-2.227496
0.047500	-2.178160
0.047600	-2.102207
0.047700	-2.044107
0.047800	-1.956470
0.047900	-1.898694
0.048000	-1.843190
0.048100	-1.791582
0.048200	-1.728288
0.048300	-1.658178
0.048400	-1.579305
0.048500	-1.505300
0.048600	-1.456937
0.048700	-1.419610
0.048800	-1.384555
0.048900	-1.364431
0.049000	-1.340412
0.049100	-1.319314
0.049200	-1.278092
0.049300	-1.259915
0.049400	-1.233949
0.049500	-1.234598
0.049600	-1.229405
0.049700	-1.232326
0.049800	-1.200517
0.049900	-1.081395
0.050000	-0.939877
0.050100	-0.900278
0.050200	-0.992460
0.050300	-1.118073
0.050400	-1.111581
0.050500	-1.015505
0.050600	-0.868469
0.050700	-0.818484
0.050800	-0.854188
0.050900	-0.923324
0.051000	-0.948317
0.051100	-0.892813
0.051200	-0.811018
0.051300	-0.740909
0.051400	-0.728250
0.051500	-0.721109
0.051600	-0.725329
0.051700	-0.714942
0.051800	-0.705205
0.051900	-0.691897
0.052000	-0.690598
0.052100	-0.697090
0.052200	-0.689625
0.052300	-0.710398
0.052400	-0.753567
0.052500	-0.807773
0.052600	-0.855162
0.052700	-0.880479
0.052800	-0.879181
0.052900	-0.868469
0.053000	-0.911314
0.053100	-1.016479
0.053200	-1.089834
0.053300	-1.098598
0.053400	-1.044393
0.053500	-0.994407
0.053600	-1.028488
0.053700	-1.130732
0.053800	-1.229080
0.053900	-1.245634
0.054000	-1.184288
0.054100	-1.119047
0.054200	-1.106063
0.054300	-1.145662
0.054400	-1.172278
0.054500	-1.163190
0.054600	-1.147935
0.054700	-1.122617
0.054800	-1.124889
0.054900	-1.129109
0.055000	-1.131056
0.055100	-1.110932
0.055200	-1.089834
0.055300	-1.090484
0.055400	-1.081720
0.055500	-1.057052
0.055600	-1.023620
0.055700	-0.990512
0.055800	-0.974608
0.055900	-1.009663
0.056000	-1.037252
0.056100	-1.029462
0.056200	-1.014207
0.056300	-0.975581
0.056400	-0.962598
0.056500	-0.951562
0.056600	-0.932412
0.056700	-0.908718
0.056800	-0.891190
0.056900	-0.876584
0.057000	-0.853539
0.057100	-0.833090
0.057200	-0.822703
0.057300	-0.813615
0.057400	-0.806474
0.057500	-0.806150
0.057600	-0.816536
0.057700	-0.823677
0.057800	-0.841529
0.057900	-0.861004
0.058000	-0.883076
0.058100	-0.908718
0.058200	-0.997653
0.058300	-1.157672
0.058400	-1.252450
0.058500	-1.235572
0.058600	-1.143390
0.058700	-1.106388
0.058800	-1.191104
0.058900	-1.358264
0.059000	-1.482254
0.059100	-1.505624
0.059200	-1.447199
0.059300	-1.398512
0.059400	-1.434865
0.059500	-1.532240
0.059600	-1.628316
0.059700	-1.668565
0.059800	-1.664345
0.059900	-1.650064
0.060000	-1.663371
0.060100	-1.691935
0.060200	-1.714980
0.060300	-1.720173
0.060400	-1.714331
0.060500	-1.716928
0.060600	-1.743868
0.060700	-1.763343
0.060800	-1.760097
0.060900	-1.731209
0.061000	-1.725691
0.061100	-1.732183
0.061200	-1.744842
0.061300	-1.716603
0.061400	-1.631887
0.061500	-1.557557
0.061600	-1.549443
0.061700	-1.612087
0.061800	-1.692584
0.061900	-1.693233
0.062000	-1.609166
0.062100	-1.525099
0.062200	-1.500106
0.062300	-1.560803
0.062400	-1.657529
0.062500	-1.709138
0.062600	-1.697128
0.062700	-1.655257
0.062800	-1.629290
0.062900	-1.625071
0.063000	-1.629615
0.063100	-1.630264
0.063200	-1.616632
0.063300	-1.589042
0.063400	-1.550741
0.063500	-1.501080
0.063600	-1.423830
0.063700	-1.337815
0.063800	-1.259266
0.063900	-1.207658
0.064000	-1.166436
0.064100	-1.125863
0.064200	-1.037252
0.064300	-0.935658
0.064400	-0.864574
0.064500	-0.760384
0.064600	-0.690598
0.064700	-0.627305
0.064800	-0.554599
0.064900	-0.474752
0.065000	-0.386790
0.065100	-0.306943
0.065200	-0.237807
0.065300	-0.194962
0.065400	-0.163802
0.065500	-0.146924
0.065600	-0.134590
0.065700	-0.121282
0.065800	-0.114790
0.065900	-0.095640
0.066000	-0.098561
0.066100	-0.081683
0.066200	-0.103430
0.066300	-0.103430
0.066400	-0.107325
0.066500	-0.057339
0.066600	0.053343
0.066700	0.185772
0.066800	0.157858
0.066900	0.012121
0.067000	-0.092070
0.067100	-0.089798
0.067200	0.008551
0.067300	0.103978
0.067400	0.116312
0.067500	0.037438
0.067600	-0.062857
0.067700	-0.103105
0.067800	-0.071946
0.067900	-0.028452
0.068000	-0.013521
0.068100	-0.041435
0.068200	-0.079736
0.068300	-0.111545
0.068400	-0.142055
0.068500	-0.162179
0.068600	-0.185549
0.068700	-0.214437
0.068800	-0.248843
0.068900	-0.287143
0.069000	-0.347840
0.069100	-0.418923
0.069200	-0.482217
0.069300	-0.551028
0.069400	-0.599066
0.069500	-0.632823
0.069600	-0.666579
0.069700	-0.753243
0.069800	-0.893787
0.069900	-0.978178
0.070000	-1.002522
0.070100	-0.967791
0.070200	-0.971037
0.070300	-1.041796
0.070400	-1.170331
0.070500	-1.261863
0.070600	-1.283610
0.070700	-1.244985
0.070800	-1.227457
0.070900	-1.271600
0.071000	-1.343333
0.071100	-1.399161
0.071200	-1.426751
0.071300	-1.447849
0.071400	-1.457911
0.071500	-1.496211
0.071600	-1.534837
0.071700	-1.569242
0.071800	-1.594235
0.071900	-1.616632
0.072000	-1.654932
0.072100	-1.681223
0.072200	-1.680899
0.072300	-1.676679
0.072400	-1.669863
0.072500	-1.699076
0.072600	-1.757825
0.072700	-1.790608
0.072800	-1.800670
0.072900	-1.768212
0.073000	-1.769835
0.073100	-1.779247
0.073200	-1.785415
0.073300	-1.786388
0.073400	-1.789634
0.073500	-1.793529
0.073600	-1.797424
0.073700	-1.807811
0.073800	-1.818847
0.073900	-1.829882
0.074000	-1.838321
0.074100	-1.849682
0.074200	-1.861042
0.074300	-1.875324
0.074400	-1.890904
0.074500	-1.913300
0.074600	-1.936670
0.074700	-1.963286
0.074800	-2.021062
0.074900	-2.141807
0.075000	-2.303774
0.075100	-2.374208
0.075200	-2.330065
0.075300	-2.242103
0.075400	-2.223601
0.075500	-2.345645
0.075600	-2.495602
0.075700	-2.592653
0.075800	-2.568309
0.075900	-2.501445
0.076000	-2.462495
0.076100	-2.503392
0.076200	-2.583564
0.076300	-2.647507
0.076400	-2.658219
0.076500	-2.641990
0.076600	-2.626410
0.076700	-2.627708
0.076800	-2.641990
0.076900	-2.652052
0.077000	-2.651727
0.077100	-2.642314
0.077200	-2.651727
0.077300	-2.680940
0.077400	-2.682887
0.077500	-2.668605
0.077600	-2.644586
0.077700	-2.649455
0.077800	-2.677045
0.077900	-2.677369
0.078000	-2.651727
0.078100	-2.565712
0.078200	-2.524166
0.078300	-2.564414
0.078400	-2.653999
0.078500	-2.739689
0.078600	-2.724109
0.078700	-2.638095
0.078800	-2.565712
0.078900	-2.577722
0.079000	-2.667956
0.079100	-2.761112
0.079200	-2.789351
0.079300	-2.739365
0.079400	-2.675422
0.079500	-2.639717
0.079600	-2.643612
0.079700	-2.654324
0.079800	-2.652052
0.079900	-2.635822
0.080000	-2.602066
0.080100	-2.563440
0.080200	-2.509559
0.080300	-2.441721
0.080400	-2.356356
0.080500	-2.297282
0.080600	-2.246971
0.080700	-2.212890
0.080800	-2.167773
0.080900	-2.083057
0.081000	-1.997043
0.081100	-1.923687
0.081200	-1.833777
0.081300	-1.765290
0.081400	-1.702646
0.081500	-1.628966
0.081600	-1.547820
0.081700	-1.456288
0.081800	-1.374168
0.081900	-1.312173
0.082000	-1.261538
0.082100	-1.218044
0.082200	-1.175199
0.082300	-1.147285
0.082400	-1.129433
0.082500	-1.098923
0.082600	-1.089834
0.082700	-1.044068
0.082800	-1.049911
0.082900	-1.022646
0.083000	-1.029137
0.083100	-0.993758
0.083200	-0.926894
0.083300	-0.770121
0.083400	-0.671773
0.083500	-0.706503
0.083600	-0.825625
0.083700	-0.886971
0.083800	-0.809071
0.083900	-0.676966
0.084000	-0.576995
0.084100	-0.568231
0.084200	-0.632174
0.084300	-0.676966
0.084400	-0.648078
0.084500	-0.561090
0.084600	-0.473778
0.084700	-0.440995
0.084800	-0.440346
0.084900	-0.439048
0.085000	-0.428336
0.085100	-0.416651
0.085200	-0.401396
0.085300	-0.386465
0.085400	-0.381921
0.085500	-0.390360
0.085600	-0.390685
0.085700	-0.413730
0.085800	-0.450408
0.085900	-0.490007
0.086000	-0.529930
0.086100	-0.538370
0.086200	-0.542589
0.086300	-0.551353
0.086400	-0.632498
0.086500	-0.742207
0.086600	-0.784078
0.086700	-0.768823
0.086800	-0.688002
0.086900	-0.692221
0.087000	-0.776613
0.087100	-0.899305
0.087200	-0.972336
0.087300	-0.961300
0.087400	-0.895410
0.087500	-0.871391
0.087600	-0.945071
0.087700	-1.033682
0.087800	-1.089185
0.087900	-1.119047
0.088000	-1.128784
0.088100	-1.154102
0.088200	-1.214149
0.088300	-1.275820
0.088400	-1.326779
0.088500	-1.356316
0.088600	-1.387476
0.088700	-1.429672
0.088800	-1.461481
0.088900	-1.485500
0.089000	-1.494913
0.089100	-1.498159
0.089200	-1.550741
0.089300	-1.627343
0.089400	-1.675056
0.089500	-1.699076
0.089600	-1.685118
0.089700	-1.714006
0.089800	-1.753281
0.089900	-1.782493
0.090000	-1.803916
0.090100	-1.813653
0.090200	-1.828584
0.090300	-1.842541
0.090400	-1.853252
0.090500	-1.863314
0.090600	-1.868183
0.090700	-1.883439
0.090800	-1.891878
0.090900	-1.902264
0.091000	-1.906808
0.091100	-1.915572
0.091200	-1.919792
0.091300	-1.930178
0.091400	-1.958417
0.091500	-2.001911
0.091600	-2.131095
0.091700	-2.256384
0.091800	-2.262876
0.091900	-2.178484
0.092000	-2.084355
0.092100	-2.092794
0.092200	-2.217110
0.092300	-2.360900
0.092400	-2.423220
0.092500	-2.387191
0.092600	-2.321301
0.092700	-2.304423
0.092800	-2.371287
0.092900	-2.460547
0.093000	-2.534877
0.093100	-2.548185
0.093200	-2.538772
0.093300	-2.538447
0.093400	-2.554352
0.093500	-2.592004
0.093600	-2.628357
0.093700	-2.644911
0.093800	-2.647183
0.093900	-2.662438
0.094000	-2.697169
0.094100	-2.716968
0.094200	-2.728978
0.094300	-2.725732
0.094400	-2.740663
0.094500	-2.767928
0.094600	-2.783508
0.094700	-2.749102
0.094800	-2.668930
0.094900	-2.660815
0.095000	-2.720214
0.095100	-2.826678
0.095200	-2.888998
0.095300	-2.851346
0.095400	-2.760787
0.095500	-2.685484
0.095600	-2.692949
0.095700	-2.769876
0.095800	-2.845504
0.095900	-2.841284
0.096000	-2.761112
0.096100	-2.680615
0.096200	-2.633875
0.096300	-2.631603
0.096400	-2.629655
0.096500	-2.610180
0.096600	-2.580319
0.096700	-2.540719
0.096800	-2.493006
0.096900	-2.427115
0.097000	-2.347592
0.097100	-2.269692
0.097200	-2.214189
0.097300	-2.160632
0.097400	-2.121358
0.097500	-2.059687
0.097600	-1.968155
0.097700	-1.891228
0.097800	-1.804889
0.097900	-1.729586
0.098000	-1.664670
0.098100	-1.605271
0.098200	-1.532565
0.098300	-1.449472
0.098400	-1.355667
0.098500	-1.277767
0.098600	-1.213500
0.098700	-1.168708
0.098800	-1.131056
0.098900	-1.098923
0.099000	-1.074254
0.099100	-1.035629
0.099200	-1.010961
0.099300	-0.973309
0.099400	-0.957080
0.099500	-0.936632
0.099600	-0.933386
0.099700	-0.927868
0.099800	-0.888269
0.099900	-0.791543
0.100000	-0.644183
0.100100	-0.586083
0.100200	-0.660412
0.100300	-0.796088
0.100400	-0.827572
0.100500	-0.744479
0.100600	-0.611400
0.100700	-0.543887
0.100800	-0.552651
0.100900	-0.632823
0.101000	-0.684756
0.101100	-0.672746
0.101200	-0.593548
0.101300	-0.531229
0.101400	-0.491630
0.101500	-0.496174
0.101600	-0.525386
0.101700	-0.539668
0.101800	-0.544861
0.101900	-0.538045
0.102000	-0.537071
0.102100	-0.544537
0.102200	-0.539668
0.102300	-0.574074
0.102400	-0.617892
0.102500	-0.657816
0.102600	-0.679887
0.102700	-0.711047
0.102800	-0.705205
0.102900	-0.712021
0.103000	-0.735066
0.103100	-0.812317
0.103200	-0.898331
0.103300	-0.909367
0.103400	-0.870092
0.103500	-0.800632
0.103600	-0.816536
0.103700	-0.898980
0.103800	-1.008364
0.103900	-1.031734
0.104000	-0.989538
0.104100	-0.934035
0.104200	-0.918455
0.104300	-0.961949
0.104400	-1.012908
0.104500	-1.036927
0.104600	-1.046990
0.104700	-1.045367
0.104800	-1.058674
0.104900	-1.083343
0.105000	-1.126512
0.105100	-1.170006
0.105200	-1.194350
0.105300	-1.223562
0.105400	-1.260565
0.105500	-1.279390
0.105600	-1.283285
0.105700	-1.285233
0.105800	-1.297892
0.105900	-1.357939
0.106000	-1.423830
0.106100	-1.455314
0.106200	-1.451419
0.106300	-1.434216
0.106400	-1.448822
0.106500	-1.467648
0.106600	-1.479333
0.106700	-1.490369
0.106800	-1.502054
0.106900	-1.511467
0.107000	-1.526398
0.107100	-1.541328
0.107200	-1.555610
0.107300	-1.575410
0.107400	-1.590340
0.107500	-1.610140
0.107600	-1.620851
0.107700	-1.634159
0.107800	-1.654283
0.107900	-1.659476
0.108000	-1.688040
0.108100	-1.714331
0.108200	-1.793854
0.108300	-1.936346
0.108400	-2.027229
0.108500	-2.014895
0.108600	-1.904536
0.108700	-1.834751
0.108800	-1.875324
0.108900	-2.028852
0.109000	-2.150895
0.109100	-2.184976
0.109200	-2.133367
0.109300	-2.089224
0.109400	-2.107725
0.109500	-2.195687
0.109600	-2.292413
0.109700	-2.369339
0.109800	-2.388490
0.109900	-2.408939
0.110000	-2.440423
0.110100	-2.479373
0.110200	-2.518323
0.110300	-2.544290
0.110400	-2.570906
0.110500	-2.609531
0.110600	-2.646534
0.110700	-2.669904
0.110800	-2.704634
0.110900	-2.708205
0.111000	-2.718916
0.111100	-2.739040
0.111200	-2.760463
0.111300	-2.758840
0.111400	-2.692949
0.111500	-2.616672
0.111600	-2.598820
0.111700	-2.682563
0.111800	-2.772797
0.111900	-2.798114
0.112000	-2.715345
0.112100	-2.583889
0.112200	-2.519622
0.112300	-2.554352
0.112400	-2.634849
0.112500	-2.670878
0.112600	-2.623813
0.112700	-2.533903
0.112800	-2.486839
0.112900	-2.467039
0.113000	-2.461846
0.113100	-2.438151
0.113200	-2.398227
0.113300	-2.374533
0.113400	-2.340776
0.113500	-2.287869
0.113600	-2.199907
0.113700	-2.094093
0.113800	-2.004833
0.113900	-1.937644
0.114000	-1.886035
0.114100	-1.838321
0.114200	-1.754579
0.114300	-1.636756
0.114400	-1.545223
0.114500	-1.430321
0.114600	-1.338789
0.114700	-1.255371
0.114800	-1.173901
0.114900	-1.069710
0.115000	-0.974283
0.115100	-0.871715
0.115200	-0.784078
0.115300	-0.714293
0.115400	-0.674369
0.115500	-0.624708
0.115600	-0.601014
0.115700	-0.586083
0.115800	-0.564661
0.115900	-0.543238
0.116000	-0.518570
0.116100	-0.508183
0.116200	-0.508508
0.116300	-0.516947
0.116400	-0.529281
0.116500	-0.492604
0.116600	-0.393931
0.116700	-0.268318
0.116800	-0.262800
0.116900	-0.381921
0.117000	-0.506236
0.117100	-0.513377
0.117200	-0.416976
0.117300	-0.322847
0.117400	-0.279029
0.117500	-0.339401
0.117600	-0.418599
0.117700	-0.456900
0.117800	-0.428985
0.117900	-0.372833
0.118000	-0.324795
0.118100	-0.317654
0.118200	-0.357902
0.118300	-0.387764
0.118400	-0.411458
0.118500	-0.408537
0.118600	-0.416002
0.118700	-0.435802
0.118800	-0.454303
0.118900	-0.490656
0.119000	-0.504288
0.119100	-0.546809
0.119200	-0.594847
0.119300	-0.647104
0.119400	-0.691248
0.119500	-0.698064
0.119600	-0.711696
0.119700	-0.750646
0.119800	-0.884698
0.119900	-0.968765
0.120000	-0.974932
0.120100	-0.915209
0.120200	-0.881453
0.120300	-0.919104
0.120400	-1.046665
0.120500	-1.163839
0.120600	-1.201166
0.120700	-1.151830
0.120800	-1.098923
0.120900	-1.118722
0.121000	-1.202464
0.121100	-1.277767
0.121200	-1.308603
0.121300	-1.309252
0.121400	-1.294970
0.121500	-1.314770
0.121600	-1.356641
0.121700	-1.392020
0.121800	-1.410197
0.121900	-1.410522
0.122000	-1.425777
0.122100	-1.436813
0.122200	-1.436164
0.122300	-1.416040
0.122400	-1.395266
0.122500	-1.393643
0.122600	-1.440383
0.122700	-1.482579
0.122800	-1.492966
0.122900	-1.470569
0.123000	-1.452068
0.123100	-1.467648
0.123200	-1.474789
0.123300	-1.471868
0.123400	-1.468946
0.123500	-1.471543
0.123600	-1.465376
0.123700	-1.459534
0.123800	-1.456937
0.123900	-1.455314
0.124000	-1.454665
0.124100	-1.459209
0.124200	-1.457262
0.124300	-1.461157
0.124400	-1.468297
0.124500	-1.475114
0.124600	-1.499133
0.124700	-1.517309
0.124800	-1.557882
0.124900	-1.658503
0.125000	-1.809758
0.125100	-1.890904
0.125200	-1.860393
0.125300	-1.769835
0.125400	-1.724393
0.125500	-1.802942
0.125600	-1.955496
0.125700	-2.082408
0.125800	-2.093119
0.125900	-2.034694
0.126000	-1.989902
0.126100	-2.013921
0.126200	-2.098637
0.126300	-2.206074
0.126400	-2.249893
0.126500	-2.250217
0.126600	-2.236585
0.126700	-2.248594
0.126800	-2.275535
0.126900	-2.300852
0.127000	-2.329740
0.127100	-2.330389
0.127200	-2.332337
0.127300	-2.346943
0.127400	-2.391411
0.127500	-2.395631
0.127600	-2.392709
0.127700	-2.400824
0.127800	-2.428089
0.127900	-2.460872
0.128000	-2.447889
0.128100	-2.370313
0.128200	-2.314160
0.128300	-2.343373
0.128400	-2.445292
0.128500	-2.508261
0.128600	-2.509884
0.128700	-2.413483
0.128800	-2.310265
0.128900	-2.271964
0.129000	-2.332337
0.129100	-2.431984
0.129200	-2.473531
0.129300	-2.456328
0.129400	-2.398876
0.129500	-2.356681
0.129600	-2.341101
0.129700	-2.348891
0.129800	-2.352136
0.129900	-2.343697
0.130000	-2.320652
0.130100	-2.282351
0.130200	-2.247621
0.130300	-2.195687
0.130400	-2.125577
0.130500	-2.064556
0.130600	-2.013596
0.130700	-1.970102
0.130800	-1.930828
0.130900	-1.845462
0.131000	-1.756527
0.131100	-1.633185
0.131200	-1.542302
0.131300	-1.484851
0.131400	-1.428049
0.131500	-1.379037
0.131600	-1.320937
0.131700	-1.236870
0.131800	-1.160918
0.131900	-1.089185
0.132000	-1.044393
0.132100	-1.015830
0.132200	-0.981424
0.132300	-0.974932
0.132400	-0.960975
0.132500	-0.947018
0.132600	-0.931438
0.132700	-0.926570
0.132800	-0.929491
0.132900	-0.953185
0.133000	-0.969739
0.133100	-0.973634
0.133200	-0.919104
0.133300	-0.794140
0.133400	-0.709424
0.133500	-0.744804
0.133600	-0.885348
0.133700	-0.972660
0.133800	-0.957729
0.133900	-0.852565
0.134000	-0.778560
0.134100	-0.753892
0.134200	-0.817510
0.134300	-0.892164
0.134400	-0.918130
0.134500	-0.890866
0.134600	-0.834388
0.134700	-0.795114
0.134800	-0.789596
0.134900	-0.802579
0.135000	-0.816861
0.135100	-0.831142
0.135200	-0.842827
0.135300	-0.835037
0.135400	-0.832116
0.135500	-0.840555
0.135600	-0.847372
0.135700	-0.860679
0.135800	-0.908393
0.135900	-0.955133
0.136000	-0.977204
0.136100	-0.966169
0.136200	-0.942149
0.136300	-0.941500
0.136400	-1.015830
0.136500	-1.116775
0.136600	-1.150207
0.136700	-1.105414
0.136800	-1.028488
0.136900	-1.022970
0.137000	-1.061271
0.137100	-1.165137
0.137200	-1.237844
0.137300	-1.245634
0.137400	-1.195324
0.137500	-1.150856
0.137600	-1.169032
0.137700	-1.238168
0.137800	-1.286531
0.137900	-1.333596
0.138000	-1.354369
0.138100	-1.380335
0.138200	-1.420584
0.138300	-1.470569
0.138400	-1.505624
0.138500	-1.523476
0.138600	-1.549118
0.138700	-1.576708
0.138800	-1.602999
0.138900	-1.601701
0.139000	-1.587419
0.139100	-1.583524
0.139200	-1.603973
0.139300	-1.652336
0.139400	-1.674407
0.139500	-1.674732
0.139600	-1.645519
0.139700	-1.621176
0.139800	-1.614035
0.139900	-1.596832
0.140000	-1.580927
0.140100	-1.558207
0.140200	-1.533538
0.140300	-1.507896
0.140400	-1.483553
0.140500	-1.467973
0.140600	-1.449796
0.140700	-1.435190
0.140800	-1.419285
0.140900	-1.402083
0.141000	-1.391047
0.141100	-1.382283
0.141200	-1.386178
0.141300	-1.388450
0.141400	-1.408250
0.141500	-1.454665
0.141600	-1.579305
0.141700	-1.722445
0.141800	-1.757176
0.141900	-1.701023
0.142000	-1.611438
0.142100	-1.628316
0.142200	-1.736403
0.142300	-1.890904
0.142400	-1.984384
0.142500	-1.987630
0.142600	-1.949978
0.142700	-1.940241
0.142800	-1.990875
0.142900	-2.070074
0.143000	-2.138885
0.143100	-2.173940
0.143200	-2.179458
0.143300	-2.181406
0.143400	-2.183678
0.143500	-2.190819
0.143600	-2.209644
0.143700	-2.226523
0.143800	-2.228795
0.143900	-2.248594
0.144000	-2.293387
0.144100	-2.313836
0.144200	-2.306695
0.144300	-2.309616
0.144400	-2.346294
0.144500	-2.386542
0.144600	-2.407965
0.144700	-2.370962
0.144800	-2.295984
0.144900	-2.284948
0.145000	-2.341425
0.145100	-2.452108
0.145200	-2.516376
0.145300	-2.506314
0.145400	-2.440099
0.145500	-2.370313
0.145600	-2.381024
0.145700	-2.456328
0.145800	-2.540719
0.145900	-2.585187
0.146000	-2.551755
0.146100	-2.501120
0.146200	-2.476127
0.146300	-2.478724
0.146400	-2.487812
0.146500	-2.481970
0.146600	-2.467039
0.146700	-2.448213
0.146800	-2.430361
0.146900	-2.396280
0.147000	-2.347592
0.147100	-2.283649
0.147200	-2.228146
0.147300	-2.179783
0.147400	-2.142780
0.147500	-2.093119
0.147600	-1.993797
0.147700	-1.894150
0.147800	-1.772431
0.147900	-1.701023
0.148000	-1.643572
0.148100	-1.592937
0.148200	-1.526398
0.148300	-1.454016
0.148400	-1.361510
0.148500	-1.288154
0.148600	-1.224536
0.148700	-1.173901
0.148800	-1.126512
0.148900	-1.080746
0.149000	-1.048288
0.149100	-1.013558
0.149200	-0.983047
0.149300	-0.938255
0.149400	-0.903200
0.149500	-0.863925
0.149600	-0.851916
0.149700	-0.834064
0.149800	-0.814589
0.149900	-0.700660
0.150000	-0.560117
0.150100	-0.465339
0.150200	-0.516298
0.150300	-0.638990
0.150400	-0.698388
0.150500	-0.644508
0.150600	-0.535773
0.150700	-0.466637
0.150800	-0.458522
0.150900	-0.532852
0.151000	-0.589978
0.151100	-0.591276
0.151200	-0.539992
0.151300	-0.482866
0.151400	-0.451057
0.151500	-0.446837
0.151600	-0.470207
0.151700	-0.482217
0.151800	-0.477997
0.151900	-0.461119
0.152000	-0.449110
0.152100	-0.449110
0.152200	-0.444565
0.152300	-0.445539
0.152400	-0.459172
0.152500	-0.512403
0.152600	-0.544537
0.152700	-0.566284
0.152800	-0.548432
0.152900	-0.552002
0.153000	-0.564012
0.153100	-0.669501
0.153200	-0.757787
0.153300	-0.791868
0.153400	-0.742856
0.153500	-0.688326
0.153600	-0.718512
0.153700	-0.793166
0.153800	-0.890216
0.153900	-0.942474
0.154000	-0.937605
0.154100	-0.898655
0.154200	-0.870741
0.154300	-0.900603
0.154400	-0.967791
0.154500	-1.008689
0.154600	-1.032708
0.154700	-1.023295
0.154800	-1.029462
0.154900	-1.055104
0.155000	-1.092106
0.155100	-1.106063
0.155200	-1.104441
0.155300	-1.110283
0.155400	-1.128135
0.155500	-1.135600
0.155600	-1.125538
0.155700	-1.111257
0.155800	-1.105090
0.155900	-1.142741
0.156000	-1.197920
0.156100	-1.225185
0.156200	-1.232326
0.156300	-1.228431
0.156400	-1.220966
0.156500	-1.221290
0.156600	-1.216746
0.156700	-1.210254
0.156800	-1.204412
0.156900	-1.198245
0.157000	-1.187858
0.157100	-1.182016
0.157200	-1.178445
0.157300	-1.184612
0.157400	-1.180717
0.157500	-1.193376
0.157600	-1.209930
0.157700	-1.221939
0.157800	-1.239142
0.157900	-1.257643
0.158000	-1.294321
0.158100	-1.323209
0.158200	-1.395591
0.158300	-1.548145
0.158400	-1.664670
0.158500	-1.688040
0.158600	-1.602674
0.158700	-1.544899
0.158800	-1.570865
0.158900	-1.702646
0.159000	-1.830207
0.159100	-1.890255
0.159200	-1.863964
0.159300	-1.798722
0.159400	-1.788336
0.159500	-1.830856
0.159600	-1.904536
0.159700	-1.949978
0.159800	-1.954847
0.159900	-1.940565
0.160000	-1.932126
0.160100	-1.928880
0.160200	-1.924336
0.160300	-1.929529
0.160400	-1.924336
0.160500	-1.905186
0.160600	-1.905186
0.160700	-1.919467
0.160800	-1.919792
0.160900	-1.890579
0.161000	-1.883439
0.161100	-1.892527
0.161200	-1.920441
0.161300	-1.920766
0.161400	-1.848384
0.161500	-1.778274
0.161600	-1.773730
0.161700	-1.850331
0.161800	-1.950952
0.161900	-1.978217
0.162000	-1.933100
0.162100	-1.841243
0.162200	-1.793854
0.162300	-1.818197
0.162400	-1.901940
0.162500	-1.977892
0.162600	-1.973348
0.162700	-1.923687
0.162800	-1.880193
0.162900	-1.851305
0.163000	-1.846436
0.163100	-1.852603
0.163200	-1.846436
0.163300	-1.838321
0.163400	-1.821119
0.163500	-1.796126
0.163600	-1.760097
0.163700	-1.699725
0.163800	-1.641949
0.163900	-1.594560
0.164000	-1.565997
0.164100	-1.540355
0.164200	-1.492316
0.164300	-1.403381
0.164400	-1.333271
0.164500	-1.243037
0.164600	-1.193051
0.164700	-1.147285
0.164800	-1.103467
0.164900	-1.049262
0.165000	-0.986942
0.165100	-0.923648
0.165200	-0.873663
0.165300	-0.827572
0.165400	-0.810694
0.165500	-0.811992
0.165600	-0.811668
0.165700	-0.835037
0.165800	-0.840231
0.165900	-0.858407
0.166000	-0.862951
0.166100	-0.893462
0.166200	-0.915209
0.166300	-0.964870
0.166400	-0.998951
0.166500	-1.001548
0.166600	-0.932737
0.166700	-0.833415
0.166800	-0.812966
0.166900	-0.955782
0.167000	-1.104765
0.167100	-1.179744
0.167200	-1.128135
0.167300	-1.056078
0.167400	-1.030760
0.167500	-1.093405
0.167600	-1.198569
0.167700	-1.262837
0.167800	-1.264460
0.167900	-1.212526
0.168000	-1.159944
0.168100	-1.148908
0.168200	-1.166436
0.168300	-1.184288
0.168400	-1.186235
0.168500	-1.172278
0.168600	-1.175849
0.168700	-1.176822
0.168800	-1.189157
0.168900	-1.189157
0.169000	-1.209605
0.169100	-1.234273
0.169200	-1.275495
0.169300	-1.315094
0.169400	-1.339438
0.169500	-1.325156
0.169600	-1.310550
0.169700	-1.320612
0.169800	-1.426751
0.169900	-1.492966
0.170000	-1.485176
0.170100	-1.398188
0.170200	-1.341061
0.170300	-1.343009
0.170400	-1.443629
0.170500	-1.533538
0.170600	-1.547820
0.170700	-1.481930
0.170800	-1.393643
0.170900	-1.376116
0.171000	-1.428698
0.171100	-1.477710
0.171200	-1.481281
0.171300	-1.454340
0.171400	-1.417338
0.171500	-1.422531
0.171600	-1.444603
0.171700	-1.467973
0.171800	-1.458235
0.171900	-1.434216
0.172000	-1.416689
0.172100	-1.417987
0.172200	-1.401109
0.172300	-1.363457
0.172400	-1.326130
0.172500	-1.299839
0.172600	-1.319639
0.172700	-1.335868
0.172800	-1.328078
0.172900	-1.302760
0.173000	-1.253424
0.173100	-1.229405
0.173200	-1.205061
0.173300	-1.177147
0.173400	-1.150207
0.173500	-1.122293
0.173600	-1.096975
0.173700	-1.066140
0.173800	-1.044393
0.173900	-1.018102
0.174000	-0.997978
0.174100	-0.980450
0.174200	-0.962274
0.174300	-0.943123
0.174400	-0.921376
0.174500	-0.913586
0.174600	-0.910990
0.174700	-0.919104
0.174800	-0.938579
0.174900	-1.021348
0.175000	-1.164813
0.175100	-1.254722
0.175200	-1.241414
0.175300	-1.163839
0.175400	-1.109634
0.175500	-1.179094
0.175600	-1.317367
0.175700	-1.445252
0.175800	-1.475763
0.175900	-1.426102
0.176000	-1.381634
0.176100	-1.406951
0.176200	-1.484526
0.176300	-1.570541
0.176400	-1.615658
0.176500	-1.618579
0.176600	-1.614684
0.176700	-1.621500
0.176800	-1.639028
0.176900	-1.667591
0.177000	-1.677653
0.177100	-1.691286
0.177200	-1.695505
0.177300	-1.706865
0.177400	-1.723095
0.177500	-1.748737
0.177600	-1.756527
0.177700	-1.760422
0.177800	-1.767887
0.177900	-1.789959
0.178000	-1.793529
0.178100	-1.731858
0.178200	-1.671486
0.178300	-1.679925
0.178400	-1.782818
0.178500	-1.882465
0.178600	-1.921739
0.178700	-1.848708
0.178800	-1.742894
0.178900	-1.712383
0.179000	-1.792555
0.179100	-1.901291
0.179200	-1.954847
0.179300	-1.931477
0.179400	-1.863639
0.179500	-1.834426
0.179600	-1.845787
0.179700	-1.871754
0.179800	-1.889281
0.179900	-1.888307
0.180000	-1.883439
0.180100	-1.879868
0.180200	-1.867209
0.180300	-1.841243
0.180400	-1.794178
0.180500	-1.738025
0.180600	-1.706541
0.180700	-1.677328
0.180800	-1.657854
0.180900	-1.596832
0.181000	-1.504326
0.181100	-1.389748
0.181200	-1.293347
0.181300	-1.227457
0.181400	-1.176173
0.181500	-1.113853
0.181600	-1.046340
0.181700	-0.968116
0.181800	-0.895410
0.181900	-0.839906
0.182000	-0.800307
0.182100	-0.782780
0.182200	-0.762006
0.182300	-0.756164
0.182400	-0.751620
0.182500	-0.744154
0.182600	-0.742532
0.182700	-0.729873
0.182800	-0.741233
0.182900	-0.740909
0.183000	-0.769147
0.183100	-0.773691
0.183200	-0.743181
0.183300	-0.648403
0.183400	-0.511429
0.183500	-0.518895
0.183600	-0.624059
0.183700	-0.755190
0.183800	-0.734092
0.183900	-0.639315
0.184000	-0.525062
0.184100	-0.483191
0.184200	-0.546160
0.184300	-0.624059
0.184400	-0.655544
0.184500	-0.609128
0.184600	-0.528308
0.184700	-0.468909
0.184800	-0.465014
0.184900	-0.486761
0.185000	-0.504288
0.185100	-0.501692
0.185200	-0.493902
0.185300	-0.479945
0.185400	-0.485787
0.185500	-0.492604
0.185600	-0.496823
0.185700	-0.515649
0.185800	-0.562064
0.185900	-0.579591
0.186000	-0.628279
0.186100	-0.644508
0.186200	-0.649052
0.186300	-0.628928
0.186400	-0.670150
0.186500	-0.772069
0.186600	-0.825949
0.186700	-0.815887
0.186800	-0.747725
0.186900	-0.688326
0.187000	-0.737663
0.187100	-0.844126
0.187200	-0.925920
0.187300	-0.924622
0.187400	-0.862302
0.187500	-0.804851
0.187600	-0.814589
0.187700	-0.879505
0.187800	-0.938904
0.187900	-0.955457
0.188000	-0.944746
0.188100	-0.922350
0.188200	-0.944097
0.188300	-0.977529
0.188400	-1.012908
0.188500	-1.015505
0.188600	-1.010636
0.188700	-1.025892
0.188800	-1.037252
0.188900	-1.034980
0.189000	-1.025892
0.189100	-1.001873
0.189200	-1.009663
0.189300	-1.062245
0.189400	-1.097624
0.189500	-1.111581
0.189600	-1.101519
0.189700	-1.080097
0.189800	-1.088211
0.189900	-1.074254
0.190000	-1.066464
0.190100	-1.059324
0.190200	-1.053806
0.190300	-1.046016
0.190400	-1.040173
0.190500	-1.039524
0.190600	-1.040822
0.190700	-1.049586
0.190800	-1.061596
0.190900	-1.076851
0.191000	-1.100546
0.191100	-1.125214
0.191200	-1.153128
0.191300	-1.192727
0.191400	-1.244011
0.191500	-1.306980
0.191600	-1.438111
0.191700	-1.629615
0.191800	-1.735429
0.191900	-1.727314
0.192000	-1.664021
0.192100	-1.669214
0.192200	-1.801319
0.192300	-1.988279
0.192400	-2.122007
0.192500	-2.147649
0.192600	-2.100260
0.192700	-2.072346
0.192800	-2.125902
0.192900	-2.223277
0.193000	-2.323249
0.193100	-2.372261
0.193200	-2.390762
0.193300	-2.396280
0.193400	-2.405044
0.193500	-2.433282
0.193600	-2.457301
0.193700	-2.486514
0.193800	-2.501769
0.193900	-2.522867
0.194000	-2.550132
0.194100	-2.563440
0.194200	-2.565712
0.194300	-2.552404
0.194400	-2.549808
0.194500	-2.565712
0.194600	-2.564089
0.194700	-2.524490
0.194800	-2.431659
0.194900	-2.371287
0.195000	-2.374857
0.195100	-2.443020
0.195200	-2.506963
0.195300	-2.468986
0.195400	-2.369339
0.195500	-2.281702
0.195600	-2.262227
0.195700	-2.318380
0.195800	-2.388490
0.195900	-2.422571
0.196000	-2.392709
0.196100	-2.336556
0.196200	-2.299229
0.196300	-2.283325
0.196400	-2.281702
0.196500	-2.277807
0.196600	-2.259955
0.196700	-2.238532
0.196800	-2.199258
0.196900	-2.149272
0.197000	-2.087601
0.197100	-2.019439
0.197200	-1.958093
0.197300	-1.918169
0.197400	-1.883114
0.197500	-1.841243
0.197600	-1.750684
0.197700	-1.656880
0.197800	-1.529643
0.197900	-1.440708
0.198000	-1.367028
0.198100	-1.295944
0.198200	-1.220641
0.198300	-1.136250
0.198400	-1.041796
0.198500	-0.957080
0.198600	-0.881453
0.198700	-0.824002
0.198800	-0.780183
0.198900	-0.749672
0.199000	-0.722732
0.199100	-0.702933
0.199200	-0.657167
0.199300	-0.639964
0.199400	-0.591926
0.199500	-0.587706
0.199600	-0.570179
0.199700	-0.574074
0.199800	-0.559792
0.199900	-0.482541
0.200000	-0.342322
0.200100	-0.217034
0.200200	-0.239105
0.200300	-0.374456
0.200400	-0.462093
0.200500	-0.425090
0.200600	-0.298828
0.200700	-0.201454
0.200800	-0.210217
0.200900	-0.285520
0.201000	-0.377377
0.201100	-0.394255
0.201200	-0.351086
0.201300	-0.283897
0.201400	-0.258580
0.201500	-0.268318
0.201600	-0.286494
0.201700	-0.311811
0.201800	-0.323821
0.201900	-0.339076
0.202000	-0.353033
0.202100	-0.368613
0.202200	-0.381272
0.202300	-0.390036
0.202400	-0.449759
0.202500	-0.502990
0.202600	-0.567582
0.202700	-0.617243
0.202800	-0.642560
0.202900	-0.643534
0.203000	-0.668527
0.203100	-0.748374
0.203200	-0.870417
0.203300	-0.920402
0.203400	-0.902875
0.203500	-0.825949
0.203600	-0.830493
0.203700	-0.904173
0.203800	-1.024593
0.203900	-1.077825
0.204000	-1.068412
0.204100	-1.008689
0.204200	-0.987266
0.204300	-1.038550
0.204400	-1.116775
0.204500	-1.153777
0.204600	-1.161567
0.204700	-1.182989
0.204800	-1.209281
0.204900	-1.256345
0.205000	-1.297567
0.205100	-1.319963
0.205200	-1.323858
0.205300	-1.349176
0.205400	-1.382608
0.205500	-1.410522
0.205600	-1.399161
0.205700	-1.375142
0.205800	-1.356641
0.205900	-1.378063
0.206000	-1.440383
0.206100	-1.469596
0.206200	-1.463104
0.206300	-1.442655
0.206400	-1.431295
0.206500	-1.425128
0.206600	-1.417662
0.206700	-1.405004
0.206800	-1.387152
0.206900	-1.369624
0.207000	-1.351448
0.207100	-1.335219
0.207200	-1.321911
0.207300	-1.305357
0.207400	-1.299514
0.207500	-1.290426
0.207600	-1.276145
0.207700	-1.276145
0.207800	-1.272574
0.207900	-1.268679
0.208000	-1.272250
0.208100	-1.288803
0.208200	-1.329051
0.208300	-1.447199
0.208400	-1.589367
0.208500	-1.620851
0.208600	-1.544899
0.208700	-1.443629
0.208800	-1.433892
0.208900	-1.544899
0.209000	-1.699400
0.209100	-1.773080
0.209200	-1.743868
0.209300	-1.680574
0.209400	-1.655906
0.209500	-1.714655
0.209600	-1.812030
0.209700	-1.874026
0.209800	-1.893501
0.209900	-1.881816
0.210000	-1.883114
0.210100	-1.905835
0.210200	-1.931477
0.210300	-1.954522
0.210400	-1.960365
0.210500	-1.981138
0.210600	-2.020088
0.210700	-2.064556
0.210800	-2.095067
0.210900	-2.109997
0.211000	-2.117463
0.211100	-2.142131
0.211200	-2.192117
0.211300	-2.225874
0.211400	-2.198609
0.211500	-2.135964
0.211600	-2.121033
0.211700	-2.184976
0.211800	-2.291115
0.211900	-2.368690
0.212000	-2.344346
0.212100	-2.256060
0.212200	-2.191143
0.212300	-2.209644
0.212400	-2.302800
0.212500	-2.378428
0.212600	-2.387516
0.212700	-2.334609
0.212800	-2.273912
0.212900	-2.249568
0.213000	-2.248594
0.213100	-2.240804
0.213200	-2.216136
0.213300	-2.178809
0.213400	-2.147000
0.213500	-2.109348
0.213600	-2.072346
0.213700	-1.999315
0.213800	-1.910054
0.213900	-1.820794
0.214000	-1.767887
0.214100	-1.718875
0.214200	-1.660450
0.214300	-1.554312
0.214400	-1.444603
0.214500	-1.326779
0.214600	-1.259591
0.214700	-1.196622
0.214800	-1.151180
0.214900	-1.099572
0.215000	-1.039200
0.215100	-0.972336
0.215200	-0.922675
0.215300	-0.876909
0.215400	-0.860030
0.215500	-0.841529
0.215600	-0.826274
0.215700	-0.827897
0.215800	-0.812966
0.215900	-0.804527
0.216000	-0.776937
0.216100	-0.772069
0.216200	-0.765577
0.216300	-0.773367
0.216400	-0.774016
0.216500	-0.761033
0.216600	-0.660737
0.216700	-0.510131
0.216800	-0.413081
0.216900	-0.479296
0.217000	-0.593224
0.217100	-0.652947
0.217200	-0.557520
0.217300	-0.436775
0.217400	-0.341673
0.217500	-0.357253
0.217600	-0.439048
0.217700	-0.492279
0.217800	-0.479620
0.217900	-0.389711
0.218000	-0.321873
0.218100	-0.274485
0.218200	-0.271563
0.218300	-0.277081
0.218400	-0.281625
0.218500	-0.265072
0.218600	-0.243000
0.218700	-0.231640
0.218800	-0.231964
0.218900	-0.219306
0.219000	-0.213463
0.219100	-0.237158
0.219200	-0.267019
0.219300	-0.291038
0.219400	-0.326418
0.219500	-0.318952
0.219600	-0.331611
0.219700	-0.332909
0.219800	-0.439697
0.219900	-0.532852
0.220000	-0.565634
0.220100	-0.535124
0.220200	-0.465988
0.220300	-0.477673
0.220400	-0.567906
0.220500	-0.680861
0.220600	-0.722083
0.220700	-0.702608
0.220800	-0.651324
0.220900	-0.652622
0.221000	-0.709424
0.221100	-0.791868
0.221200	-0.833739
0.221300	-0.863601
0.221400	-0.865224
0.221500	-0.904823
0.221600	-0.953834
0.221700	-1.005768
0.221800	-1.029787
0.221900	-1.036603
0.222000	-1.060297
0.222100	-1.090808
0.222200	-1.100546
0.222300	-1.087238
0.222400	-1.058025
0.222500	-1.039200
0.222600	-1.068412
0.222700	-1.096975
0.222800	-1.095028
0.222900	-1.074579
0.223000	-1.032059
0.223100	-1.013558
0.223200	-0.996355
0.223300	-0.972985
0.223400	-0.940851
0.223500	-0.912937
0.223600	-0.888269
0.223700	-0.863276
0.223800	-0.838283
0.223900	-0.814913
0.224000	-0.793491
0.224100	-0.762980
0.224200	-0.741233
0.224300	-0.714618
0.224400	-0.686054
0.224500	-0.660412
0.224600	-0.654570
0.224700	-0.650999
0.224800	-0.649377
0.224900	-0.702608
0.225000	-0.833739
0.225100	-0.943123
0.225200	-0.930465
0.225300	-0.837634
0.225400	-0.743830
0.225500	-0.777262
0.225600	-0.899305
0.225700	-1.030111
0.225800	-1.066789
0.225900	-1.029462
0.226000	-0.966493
0.226100	-0.966818
0.226200	-1.034980
0.226300	-1.128784
0.226400	-1.196946
0.226500	-1.220316
0.226600	-1.221290
0.226700	-1.226159
0.226800	-1.263486
0.226900	-1.292374
0.227000	-1.320612
0.227100	-1.338140
0.227200	-1.352421
0.227300	-1.389424
0.227400	-1.418312
0.227500	-1.445252
0.227600	-1.461157
0.227700	-1.479658
0.227800	-1.517634
0.227900	-1.561128
0.228000	-1.585147
0.228100	-1.541004
0.228200	-1.492966
0.228300	-1.506598
0.228400	-1.591963
0.228500	-1.705892
0.228600	-1.770808
0.228700	-1.744192
0.228800	-1.682846
0.228900	-1.693558
0.229000	-1.781844
0.229100	-1.908107
0.229200	-2.006455
0.229300	-2.034370
0.229400	-2.021711
0.229500	-2.016193
0.229600	-2.036966
0.229700	-2.071372
0.229800	-2.098962
0.229900	-2.111620
0.230000	-2.113243
0.230100	-2.101234
0.230200	-2.083706
0.230300	-2.054818
0.230400	-1.998016
0.230500	-1.937968
0.230600	-1.885711
0.230700	-1.844813
0.230800	-1.806512
0.230900	-1.731209
0.231000	-1.625071
0.231100	-1.508546
0.231200	-1.405004
0.231300	-1.330350
0.231400	-1.261214
0.231500	-1.189157
0.231600	-1.100221
0.231700	-1.007066
0.231800	-0.904173
0.231900	-0.836011
0.232000	-0.772718
0.232100	-0.735715
0.232200	-0.699687
0.232300	-0.668202
0.232400	-0.646131
0.232500	-0.622761
0.232600	-0.605558
0.232700	-0.589004
0.232800	-0.581214
0.232900	-0.571477
0.233000	-0.581864
0.233100	-0.574398
0.233200	-0.551353
0.233300	-0.444565
0.233400	-0.328365
0.233500	-0.302074
0.233600	-0.430284
0.233700	-0.577319
0.233800	-0.607181
0.233900	-0.534799
0.234000	-0.435477
0.234100	-0.402370
0.234200	-0.481892
0.234300	-0.580890
0.234400	-0.645482
0.234500	-0.620813
0.234600	-0.569205
0.234700	-0.520193
0.234800	-0.534475
0.234900	-0.564012
0.235000	-0.592899
0.235100	-0.602637
0.235200	-0.599716
0.235300	-0.587381
0.235400	-0.594522
0.235500	-0.599066
0.235600	-0.599391
0.235700	-0.607181
0.235800	-0.648078
0.235900	-0.676966
0.236000	-0.710073
0.236100	-0.731171
0.236200	-0.731820
0.236300	-0.719486
0.236400	-0.742207
0.236500	-0.838932
0.236600	-0.915534
0.236700	-0.927543
0.236800	-0.868469
0.236900	-0.813940
0.237000	-0.843152
0.237100	-0.958379
0.237200	-1.060297
0.237300	-1.074254
0.237400	-1.034655
0.237500	-0.995706
0.237600	-1.019725
0.237700	-1.096651
0.237800	-1.169357
0.237900	-1.195973
0.238000	-1.213176
0.238100	-1.207009
0.238200	-1.253424
0.238300	-1.305032
0.238400	-1.350474
0.238500	-1.361510
0.238600	-1.364431
0.238700	-1.392020
0.238800	-1.419610
0.238900	-1.429997
0.239000	-1.417662
0.239100	-1.402407
0.239200	-1.407600
0.239300	-1.454340
0.239400	-1.492966
0.239500	-1.505949
0.239600	-1.516660
0.239700	-1.496861
0.239800	-1.496536
0.239900	-1.483553
0.240000	-1.457911
0.240100	-1.433242
0.240200	-1.401109
0.240300	-1.370273
0.240400	-1.341061
0.240500	-1.314445
0.240600	-1.295944
0.240700	-1.280689
0.240800	-1.269653
0.240900	-1.268679
0.241000	-1.275820
0.241100	-1.286531
0.241200	-1.295295
0.241300	-1.324183
0.241400	-1.351772
0.241500	-1.396889
0.241600	-1.497510
0.241700	-1.668240
0.241800	-1.768536
0.241900	-1.751333
0.242000	-1.656231
0.242100	-1.610789
0.242200	-1.679925
0.242300	-1.828259
0.242400	-1.936670
0.242500	-1.942188
0.242600	-1.868832
0.242700	-1.802617
0.242800	-1.814952
0.242900	-1.882789
0.243000	-1.945758
0.243100	-1.974646
0.243200	-1.950952
0.243300	-1.914274
0.243400	-1.889606
0.243500	-1.883439
0.243600	-1.886684
0.243700	-1.875649
0.243800	-1.859419
0.243900	-1.855849
0.244000	-1.860393
0.244100	-1.876298
0.244200	-1.895448
0.244300	-1.888632
0.244400	-1.897396
0.244500	-1.919467
0.244600	-1.946083
0.244700	-1.945758
0.244800	-1.891228
0.244900	-1.839620
0.245000	-1.863639
0.245100	-1.959715
0.245200	-2.067477
0.245300	-2.093119
0.245400	-2.023334
0.245500	-1.937319
0.245600	-1.934073
0.245700	-2.002236
0.245800	-2.112269
0.245900	-2.179783
0.246000	-2.175888
0.246100	-2.129797
0.246200	-2.106102
0.246300	-2.122981
0.246400	-2.148947
0.246500	-2.159659
0.246600	-2.161606
0.246700	-2.151219
0.246800	-2.133692
0.246900	-2.110647
0.247000	-2.076890
0.247100	-2.023334
0.247200	-1.976269
0.247300	-1.950303
0.247400	-1.942513
0.247500	-1.934073
0.247600	-1.875649
0.247700	-1.803267
0.247800	-1.708813
0.247900	-1.636106
0.248000	-1.584498
0.248100	-1.542951
0.248200	-1.493290
0.248300	-1.448822
0.248400	-1.372221
0.248500	-1.302760
0.248600	-1.251152
0.248700	-1.218693
0.248800	-1.199868
0.248900	-1.181042
0.249000	-1.170331
0.249100	-1.161242
0.249200	-1.143066
0.249300	-1.135600
0.249400	-1.122617
0.249500	-1.135276
0.249600	-1.128460
0.249700	-1.156698
0.249800	-1.139495
0.249900	-1.103467
0.250000	-0.964221
0.250100	-0.837959
0.250200	-0.838283
0.250300	-0.954159
0.250400	-1.050560
0.250500	-1.022321
0.250600	-0.885348
0.250700	-0.767524
0.250800	-0.727925
0.250900	-0.778885
0.251000	-0.839257
0.251100	-0.836660
0.251200	-0.752918
0.251300	-0.643859
0.251400	-0.574398
0.251500	-0.522465
0.251600	-0.502990
0.251700	-0.481568
0.251800	-0.452355
0.251900	-0.406265
0.252000	-0.376403
0.252100	-0.347840
0.252200	-0.330962
0.252300	-0.319601
0.252400	-0.351735
0.252500	-0.391334
0.252600	-0.445864
0.252700	-0.474427
0.252800	-0.503964
0.252900	-0.501043
0.253000	-0.515649
0.253100	-0.558494
0.253200	-0.678914
0.253300	-0.738312
0.253400	-0.728899
0.253500	-0.646780
0.253600	-0.617892
0.253700	-0.669176
0.253800	-0.787324
0.253900	-0.866846
0.254000	-0.870741
0.254100	-0.818484
0.254200	-0.781481
0.254300	-0.819457
0.254400	-0.898006
0.254500	-0.964221
0.254600	-0.984021
0.254700	-0.992460
0.254800	-1.001873
0.254900	-1.034006
0.255000	-1.059973
0.255100	-1.077825
0.255200	-1.077500
0.255300	-1.083992
0.255400	-1.108985
0.255500	-1.136899
0.255600	-1.139820
0.255700	-1.133328
0.255800	-1.120020
0.255900	-1.139171
0.256000	-1.195973
0.256100	-1.217720
0.256200	-1.212851
0.256300	-1.202464
0.256400	-1.188832
0.256500	-1.163515
0.256600	-1.131705
0.256700	-1.092756
0.256800	-1.058674
0.256900	-1.015830
0.257000	-0.972660
0.257100	-0.942474
0.257200	-0.900603
0.257300	-0.860355
0.257400	-0.824002
0.257500	-0.793166
0.257600	-0.760384
0.257700	-0.739286
0.257800	-0.713968
0.257900	-0.700336
0.258000	-0.690274
0.258100	-0.695792
0.258200	-0.712345
0.258300	-0.823028
0.258400	-0.946694
0.258500	-1.001873
0.258600	-0.931438
0.258700	-0.830818
0.258800	-0.810045
0.258900	-0.925920
0.259000	-1.093729
0.259100	-1.190455
0.259200	-1.187209
0.259300	-1.126512
0.259400	-1.112555
0.259500	-1.181042
0.259600	-1.297567
0.259700	-1.390398
0.259800	-1.433892
0.259900	-1.453367
0.260000	-1.468622
0.260100	-1.501729
0.260200	-1.553338
0.260300	-1.593911
0.260400	-1.620202
0.260500	-1.636431
0.260600	-1.669863
0.260700	-1.708488
0.260800	-1.746465
0.260900	-1.763667
0.261000	-1.776975
0.261100	-1.808784
0.261200	-1.859095
0.261300	-1.904536
0.261400	-1.897720
0.261500	-1.832154
0.261600	-1.813978
0.261700	-1.855524
0.261800	-1.958093
0.261900	-2.035019
0.262000	-2.018140
0.262100	-1.929205
0.262200	-1.857472
0.262300	-1.854875
0.262400	-1.922388
0.262500	-1.997692
0.262600	-2.007105
0.262700	-1.940890
0.262800	-1.865262
0.262900	-1.808784
0.263000	-1.784116
0.263100	-1.763992
0.263200	-1.730560
0.263300	-1.691610
0.263400	-1.646818
0.263500	-1.582550
0.263600	-1.514063
0.263700	-1.405977
0.263800	-1.286856
0.263900	-1.186560
0.264000	-1.108985
0.264100	-1.045042
0.264200	-0.963572
0.264300	-0.840231
0.264400	-0.726302
0.264500	-0.592250
0.264600	-0.488059
0.264700	-0.405616
0.264800	-0.321873
0.264900	-0.243325
0.265000	-0.156986
0.265100	-0.056041
0.265200	0.031921
0.265300	0.097486
0.265400	0.143252
0.265500	0.171166
0.265600	0.202001
0.265700	0.215958
0.265800	0.234784
0.265900	0.245820
0.266000	0.267242
0.266100	0.273734
0.266200	0.282822
0.266300	0.266918
0.266400	0.266918
0.266500	0.262698
0.266600	0.334106
0.266700	0.474650
0.266800	0.578516
0.266900	0.541189
0.267000	0.406163
0.267100	0.340922
0.267200	0.417199
0.267300	0.548979
0.267400	0.654793
0.267500	0.656740
0.267600	0.593447
0.267700	0.526907
0.267800	0.545409
0.267900	0.618115
0.268000	0.706077
0.268100	0.733666
0.268200	0.722955
0.268300	0.713217
0.268400	0.700559
0.268500	0.712893
0.268600	0.717761
0.268700	0.713217
0.268800	0.690172
0.268900	0.659337
0.269000	0.633046
0.269100	0.576568
0.269200	0.519767
0.269300	0.456149
0.269400	0.391882
0.269500	0.357151
0.269600	0.334106
0.269700	0.300025
0.269800	0.179930
0.269900	0.040035
0.270000	-0.043707
0.270100	-0.056041
0.270200	-0.014495
0.270300	-0.047277
0.270400	-0.171268
0.270500	-0.344270
0.270600	-0.454952
0.270700	-0.482217
0.270800	-0.457549
0.270900	-0.479945
0.271000	-0.581539
0.271100	-0.710723
0.271200	-0.807448
0.271300	-0.867820
0.271400	-0.910665
0.271500	-0.964870
0.271600	-1.039200
0.271700	-1.120345
0.271800	-1.192078
0.271900	-1.237519
0.272000	-1.291075
0.272100	-1.349825
0.272200	-1.394293
0.272300	-1.416364
0.272400	-1.424803
0.272500	-1.438111
0.272600	-1.499457
0.272700	-1.578331
0.272800	-1.631238
0.272900	-1.644870
0.273000	-1.634159
0.273100	-1.665319
0.273200	-1.700049
0.273300	-1.722770
0.273400	-1.746465
0.273500	-1.766913
0.273600	-1.785090
0.273700	-1.805214
0.273800	-1.820469
0.273900	-1.832154
0.274000	-1.845787
0.274100	-1.866560
0.274200	-1.879219
0.274300	-1.905835
0.274400	-1.922388
0.274500	-1.953224
0.274600	-1.980164
0.274700	-2.016193
0.274800	-2.067477
0.274900	-2.131420
0.275000	-2.298580
0.275100	-2.452433
0.275200	-2.509884
0.275300	-2.445616
0.275400	-2.386542
0.275500	-2.423869
0.275600	-2.580319
0.275700	-2.768577
0.275800	-2.867251
0.275900	-2.867251
0.276000	-2.826678
0.276100	-2.845504
0.276200	-2.938010
0.276300	-3.052913
0.276400	-3.134384
0.276500	-3.149964
0.276600	-3.139252
0.276700	-3.109066
0.276800	-3.092512
0.276900	-3.080503
0.277000	-3.059080
0.277100	-3.022727
0.277200	-2.971767
0.277300	-2.942879
0.277400	-2.913666
0.277500	-2.876988
0.277600	-2.824406
0.277700	-2.766954
0.277800	-2.717293
0.277900	-2.687431
0.278000	-2.656271
0.278100	-2.568309
0.278200	-2.449511
0.278300	-2.403096
0.278400	-2.430036
0.278500	-2.508910
0.278600	-2.542342
0.278700	-2.484567
0.278800	-2.367716
0.278900	-2.266771
0.279000	-2.268394
0.279100	-2.335583
0.279200	-2.401798
0.279300	-2.382972
0.279400	-2.302151
0.279500	-2.224575
0.279600	-2.170370
0.279700	-2.153816
0.279800	-2.147974
0.279900	-2.129148
0.280000	-2.093119
0.280100	-2.052546
0.280200	-2.013596
0.280300	-1.964260
0.280400	-1.890904
0.280500	-1.806188
0.280600	-1.735429
0.280700	-1.683171
0.280800	-1.640651
0.280900	-1.583849
0.281000	-1.488746
0.281100	-1.405328
0.281200	-1.303734
0.281300	-1.258293
0.281400	-1.222588
0.281500	-1.191429
0.281600	-1.150856
0.281700	-1.097949
0.281800	-1.027190
0.281900	-0.962598
0.282000	-0.920078
0.282100	-0.888593
0.282200	-0.875935
0.282300	-0.854512
0.282400	-0.849644
0.282500	-0.836011
0.282600	-0.808097
0.282700	-0.786675
0.282800	-0.757138
0.282900	-0.749997
0.283000	-0.747400
0.283100	-0.730197
0.283200	-0.701634
0.283300	-0.586408
0.283400	-0.437425
0.283500	-0.346217
0.283600	-0.440021
0.283700	-0.565959
0.283800	-0.615945
0.283900	-0.523763
0.284000	-0.403344
0.284100	-0.319926
0.284200	-0.339401
0.284300	-0.406589
0.284400	-0.439372
0.284500	-0.392632
0.284600	-0.292986
0.284700	-0.186523
0.284800	-0.120308
0.284900	-0.094342
0.285000	-0.062857
0.285100	-0.020013
0.285200	0.033543
0.285300	0.100407
0.285400	0.177658
0.285500	0.236732
0.285600	0.298077
0.285700	0.342545
0.285800	0.373705
0.285900	0.384416
0.286000	0.394803
0.286100	0.390583
0.286200	0.433753
0.286300	0.458421
0.286400	0.485686
0.286500	0.406812
0.286600	0.356502
0.286700	0.361046
0.286800	0.438621
0.286900	0.513600
0.287000	0.528855
0.287100	0.441867
0.287200	0.351633
0.287300	0.317228
0.287400	0.363318
0.287500	0.608702
0.287600	1.002744
0.287700	0.901150
0.287800	0.704129
0.287900	0.725551
0.288000	0.887193
0.288100	1.204958
0.288200	1.389970
0.288300	1.467870
0.288400	1.446123
0.288500	1.455211
0.288600	1.505196
0.288700	1.471115
0.288800	1.401330
0.288900	1.422104
0.289000	1.546418
0.289100	1.660022
0.289200	1.593807
0.289300	1.173474
0.289400	0.782353
0.289500	0.572349
0.289600	0.458421
0.289700	0.556120
0.289800	0.438946
0.289900	0.334431
0.290000	0.350984
0.290100	0.371108
0.290200	0.341571
0.290300	0.282173
0.290400	0.155911
0.290500	-0.034294
0.290600	-0.066752
0.290700	-0.121282
0.290800	-0.187821
0.290900	-0.262475
0.291000	-0.344919
0.291100	-0.425740
0.291200	-0.515973
0.291300	-0.612050
0.291400	-0.712021
0.291500	-0.828546
0.291600	-0.985968
0.291700	-1.227133
0.291800	-1.423505
0.291900	-1.512116
0.292000	-1.492641
0.292100	-1.499133
0.292200	-1.610789
0.292300	-1.809434
0.292400	-1.979515
0.292500	-2.047677
0.292600	-2.032422
0.292700	-2.005806
0.292800	-2.045730
0.292900	-2.149597
0.293000	-2.264824
0.293100	-2.342399
0.293200	-2.358628
0.293300	-2.364795
0.293400	-2.370638
0.293500	-2.373884
0.293600	-2.371936
0.293700	-2.361874
0.293800	-2.327793
0.293900	-2.287220
0.294000	-2.258981
0.294100	-2.224251
0.294200	-2.167449
0.294300	-2.094742
0.294400	-2.035019
0.294500	-1.986007
0.294600	-1.955820
0.294700	-1.917520
0.294800	-1.821119
0.294900	-1.746140
0.295000	-1.750360
0.295100	-1.829882
0.295200	-1.931152
0.295300	-1.963935
0.295400	-1.897396
0.295500	-1.805539
0.295600	-1.770159
0.295700	-1.816250
0.295800	-1.920441
0.295900	-1.998341
0.296000	-1.998341
0.296100	-1.964909
0.296200	-1.952899
0.296300	-1.965883
0.296400	-2.000613
0.296500	-2.023983
0.296600	-2.036642
0.296700	-2.041835
0.296800	-2.034045
0.296900	-2.017816
0.297000	-1.968804
0.297100	-1.896746
0.297200	-1.824364
0.297300	-1.776651
0.297400	-1.739324
0.297500	-1.702321
0.297600	-1.636106
0.297700	-1.536135
0.297800	-1.452717
0.297900	-1.336517
0.298000	-1.251476
0.298100	-1.180717
0.298200	-1.102493
0.298300	-1.032383
0.298400	-0.958379
0.298500	-0.878531
0.298600	-0.829195
0.298700	-0.789921
0.298800	-0.775639
0.298900	-0.772069
0.299000	-0.779209
0.299100	-0.807123
0.299200	-0.829520
0.299300	-0.853863
0.299400	-0.869119
0.299500	-0.892488
0.299600	-0.935982
0.299700	-0.972336
0.299800	-1.006741
0.299900	-0.989214
0.300000	-0.892488
0.300100	-0.773042
0.300200	-0.736689
0.300300	-0.861978
0.300400	-0.973959
0.300500	-0.987591
0.300600	-0.868469
0.300700	-0.744804
0.300800	-0.687677
0.300900	-0.717214
0.301000	-0.778560
0.301100	-0.777911
0.301200	-0.706178
0.301300	-0.600040
0.301400	-0.515324
0.301500	-0.474752
0.301600	-0.453005
0.301700	-0.433205
0.301800	-0.402370
0.301900	-0.360499
0.302000	-0.325444
0.302100	-0.296556
0.302200	-0.280002
0.302300	-0.246246
0.302400	-0.254036
0.302500	-0.273511
0.302600	-0.313110
0.302700	-0.353358
0.302800	-0.376728
0.302900	-0.364394
0.303000	-0.361148
0.303100	-0.385492
0.303200	-0.491954
0.303300	-0.539343
0.303400	-0.535773
0.303500	-0.455601
0.303600	-0.385492
0.303700	-0.410809
0.303800	-0.498121
0.303900	-0.572451
0.304000	-0.562389
0.304100	-0.489358
0.304200	-0.407563
0.304300	-0.405616
0.304400	-0.455277
0.304500	-0.491954
0.304600	-0.484814
0.304700	-0.462417
0.304800	-0.438074
0.304900	-0.444565
0.305000	-0.472155
0.305100	-0.503315
0.305200	-0.507534
0.305300	-0.508508
0.305400	-0.511105
0.305500	-0.524737
0.305600	-0.516298
0.305700	-0.482541
0.305800	-0.456575
0.305900	-0.453654
0.306000	-0.490656
0.306100	-0.519544
0.306200	-0.515000
0.306300	-0.457224
0.306400	-0.428661
0.306500	-0.421196
0.306600	-0.400747
0.306700	-0.368938
0.306800	-0.335831
0.306900	-0.307916
0.307000	-0.278380
0.307100	-0.253387
0.307200	-0.224174
0.307300	-0.196910
0.307400	-0.168022
0.307500	-0.151144
0.307600	-0.139783
0.307700	-0.125502
0.307800	-0.118361
0.307900	-0.108299
0.308000	-0.125826
0.308100	-0.131344
0.308200	-0.161530
0.308300	-0.261501
0.308400	-0.410809
0.308500	-0.505587
0.308600	-0.469883
0.308700	-0.397826
0.308800	-0.367315
0.308900	-0.469883
0.309000	-0.663334
0.309100	-0.804851
0.309200	-0.850293
0.309300	-0.828870
0.309400	-0.828870
0.309500	-0.910990
0.309600	-1.043419
0.309700	-1.171304
0.309800	-1.241090
0.309900	-1.276794
0.310000	-1.292698
0.310100	-1.333271
0.310200	-1.387476
0.310300	-1.442331
0.310400	-1.479658
0.310500	-1.510493
0.310600	-1.548469
0.310700	-1.603324
0.310800	-1.667916
0.310900	-1.720173
0.311000	-1.758474
0.311100	-1.809434
0.311200	-1.871429
0.311300	-1.946083
0.311400	-1.971725
0.311500	-1.935372
0.311600	-1.924985
0.311700	-1.992498
0.311800	-2.123630
0.311900	-2.262876
0.312000	-2.313186
0.312100	-2.276509
0.312200	-2.229444
0.312300	-2.251516
0.312400	-2.358304
0.312500	-2.477101
0.312600	-2.542342
0.312700	-2.526438
0.312800	-2.480672
0.312900	-2.457301
0.313000	-2.461521
0.313100	-2.483268
0.313200	-2.481321
0.313300	-2.466065
0.313400	-2.439449
0.313500	-2.407965
0.313600	-2.374857
0.313700	-2.302151
0.313800	-2.221329
0.313900	-2.150895
0.314000	-2.112919
0.314100	-2.072021
0.314200	-2.026904
0.314300	-1.928880
0.314400	-1.828259
0.314500	-1.734780
0.314600	-1.622149
0.314700	-1.531915
0.314800	-1.433567
0.314900	-1.333920
0.315000	-1.221939
0.315100	-1.105090
0.315200	-0.985643
0.315300	-0.886646
0.315400	-0.815563
0.315500	-0.750646
0.315600	-0.693844
0.315700	-0.657491
0.315800	-0.619515
0.315900	-0.589004
0.316000	-0.563687
0.316100	-0.539343
0.316200	-0.532202
0.316300	-0.533825
0.316400	-0.559467
0.316500	-0.545186
0.316600	-0.502341
0.316700	-0.364718
0.316800	-0.258905
0.316900	-0.256957
0.317000	-0.389062
0.317100	-0.452355
0.317200	-0.420222
0.317300	-0.268967
0.317400	-0.162504
0.317500	-0.124528
0.317600	-0.178408
0.317700	-0.227420
0.317800	-0.191716
0.317900	-0.096938
0.318000	0.012770
0.318100	0.076064
0.318200	0.088073
0.318300	0.095539
0.318400	0.111768
0.318500	0.142603
0.318600	0.179930
0.318700	0.207519
0.318800	0.231863
0.318900	0.246794
0.319000	0.273085
0.319100	0.273409
0.319200	0.276006
0.319300	0.251662
0.319400	0.239977
0.319500	0.247443
0.319600	0.277953
0.319700	0.299700
0.319800	0.272111
0.319900	0.190316
0.320000	0.172464
0.320100	0.209791
0.320200	0.305218
0.320300	0.332159
0.320400	0.280875
0.320500	0.161104
0.320600	0.096512
0.320700	0.105276
0.320800	0.185448
0.320900	0.235758
0.321000	0.217581
0.321100	0.162078
0.321200	0.125725
0.321300	0.126374
0.321400	0.141954
0.321500	0.140331
0.321600	0.110794
0.321700	0.072493
0.321800	0.051720
0.321900	0.041333
0.322000	0.027376
0.322100	0.011796
0.322200	0.004980
0.322300	0.007577
0.322400	0.032570
0.322500	0.079959
0.322600	-0.075516
0.322700	-0.023258
0.322800	-0.044032
0.322900	-0.037865
0.323000	-0.035592
0.323100	-0.028776
0.323200	-0.034943
0.323300	-0.030075
0.323400	-0.028776
0.323500	-0.014819
0.323600	-0.020986
0.323700	-0.008652
0.323800	0.009849
0.323900	-0.013845
0.324000	-0.044356
0.324100	-0.057015
0.324200	-0.076490
0.324300	-0.093693
0.324400	-0.120957
0.324500	-0.148871
0.324600	-0.191716
0.324700	-0.233912
0.324800	-0.290714
0.324900	-0.359850
0.325000	-0.503639
0.325100	-0.674045
0.325200	-0.741233
0.325300	-0.709100
0.325400	-0.650999
0.325500	-0.672422
0.325600	-0.822379
0.325700	-1.015830
0.325800	-1.140145
0.325900	-1.171629
0.326000	-1.156049
0.326100	-1.178121
0.326200	-1.289777
0.326300	-1.429347
0.326400	-1.557557
0.326500	-1.618254
0.326600	-1.657854
0.326700	-1.694207
0.326800	-1.756527
0.326900	-1.821119
0.327000	-1.882789
0.327100	-1.931801
0.327200	-1.960040
0.327300	-2.009701
0.327400	-2.062284
0.327500	-2.109024
0.327600	-2.123305
0.327700	-2.125253
0.327800	-2.146351
0.327900	-2.178160
0.328000	-2.202179
0.328100	-2.169072
0.328200	-2.086627
0.328300	-2.052222
0.328400	-2.081759
0.328500	-2.165501
0.328600	-2.208022
0.328700	-2.151869
0.328800	-2.024957
0.328900	-1.911353
0.329000	-1.881816
0.329100	-1.933749
0.329200	-1.988279
0.329300	-1.969453
0.329400	-1.881166
0.329500	-1.778598
0.329600	-1.707515
0.329700	-1.679925
0.329800	-1.665968
0.329900	-1.640651
0.330000	-1.599104
0.330100	-1.541653
0.330200	-1.482254
0.330300	-1.415715
0.330400	-1.329051
0.330500	-1.225185
0.330600	-1.135276
0.330700	-1.059324
0.330800	-0.990837
0.330900	-0.919104
0.331000	-0.794789
0.331100	-0.680861
0.331200	-0.534799
0.331300	-0.439048
0.331400	-0.346866
0.331500	-0.258255
0.331600	-0.174189
0.331700	-0.075191
0.331800	0.033219
0.331900	0.127672
0.332000	0.200054
0.332100	0.238679
0.332200	0.266268
0.332300	0.284120
0.332400	0.281524
0.332500	0.273085
0.332600	0.275357
0.332700	0.268541
0.332800	0.259128
0.332900	0.225696
0.333000	0.197133
0.333100	0.156560
0.333200	0.146498
0.333300	0.197133
0.333400	0.313657
0.333500	0.365915
0.333600	0.284770
0.333700	0.107223
0.333800	0.036465
0.333900	0.066002
0.334000	0.190316
0.334100	0.246144
0.334200	0.224397
0.334300	0.116636
0.334400	0.031271
0.334500	0.008875
0.334600	0.043281
0.334700	0.084178
0.334800	0.077362
0.334900	0.040684
0.335000	-0.014495
0.335100	-0.046628
0.335200	-0.070323
0.335300	-0.083955
0.335400	-0.098886
0.335500	-0.122905
0.335600	-0.156661
0.335700	-0.194313
0.335800	-0.242676
0.335900	-0.303697
0.336000	-0.354332
0.336100	-0.411458
0.336200	-0.435477
0.336300	-0.437425
0.336400	-0.465663
0.336500	-0.551028
0.336600	-0.669501
0.336700	-0.711696
0.336800	-0.705205
0.336900	-0.641262
0.337000	-0.653921
0.337100	-0.747400
0.337200	-0.882426
0.337300	-0.958054
0.337400	-0.960002
0.337500	-0.902226
0.337600	-0.889567
0.337700	-0.945395
0.337800	-1.032059
0.337900	-1.093729
0.338000	-1.117748
0.338100	-1.105414
0.338200	-1.106388
0.338300	-1.122942
0.338400	-1.163515
0.338500	-1.205061
0.338600	-1.236870
0.338700	-1.269328
0.338800	-1.293997
0.338900	-1.305682
0.339000	-1.289128
0.339100	-1.267056
0.339200	-1.250827
0.339300	-1.268679
0.339400	-1.296918
0.339500	-1.297892
0.339600	-1.248555
0.339700	-1.196946
0.339800	-1.172603
0.339900	-1.151180
0.340000	-1.130083
0.340100	-1.106713
0.340200	-1.085615
0.340300	-1.053481
0.340400	-1.022646
0.340500	-0.995056
0.340600	-0.966818
0.340700	-0.931114
0.340800	-0.910340
0.340900	-0.887295
0.341000	-0.878531
0.341100	-0.855486
0.341200	-0.852565
0.341300	-0.860679
0.341400	-0.885672
0.341500	-0.923973
0.341600	-1.010312
0.341700	-1.183963
0.341800	-1.339763
0.341900	-1.393319
0.342000	-1.339763
0.342100	-1.290426
0.342200	-1.338789
0.342300	-1.501405
0.342400	-1.679276
0.342500	-1.767562
0.342600	-1.749710
0.342700	-1.707515
0.342800	-1.719849
0.342900	-1.801644
0.343000	-1.901615
0.343100	-1.978541
0.343200	-2.008727
0.343300	-2.011649
0.343400	-2.005482
0.343500	-2.018465
0.343600	-2.039563
0.343700	-2.051248
0.343800	-2.056766
0.343900	-2.059038
0.344000	-2.063257
0.344100	-2.065205
0.344200	-2.056441
0.344300	-2.022035
0.344400	-1.994770
0.344500	-1.981463
0.344600	-1.971076
0.344700	-1.948355
0.344800	-1.853252
0.344900	-1.732832
0.345000	-1.678302
0.345100	-1.685768
0.345200	-1.727314
0.345300	-1.722770
0.345400	-1.616956
0.345500	-1.469271
0.345600	-1.372221
0.345700	-1.353071
0.345800	-1.403705
0.345900	-1.440059
0.346000	-1.418636
0.346100	-1.341386
0.346200	-1.251476
0.346300	-1.182665
0.346400	-1.147285
0.346500	-1.117748
0.346600	-1.087238
0.346700	-1.037252
0.346800	-0.989538
0.346900	-0.931763
0.347000	-0.871066
0.347100	-0.782455
0.347200	-0.702608
0.347300	-0.652298
0.347400	-0.618217
0.347500	-0.601663
0.347600	-0.564336
0.347700	-0.493577
0.347800	-0.447162
0.347900	-0.372184
0.348000	-0.340050
0.348100	-0.318303
0.348200	-0.302399
0.348300	-0.276757
0.348400	-0.248193
0.348500	-0.203401
0.348600	-0.159907
0.348700	-0.132318
0.348800	-0.117387
0.348900	-0.113492
0.349000	-0.109272
0.349100	-0.121607
0.349200	-0.125177
0.349300	-0.118685
0.349400	-0.108623
0.349500	-0.105702
0.349600	-0.123554
0.349700	-0.142380
0.349800	-0.177759
0.349900	-0.160232
0.350000	-0.092070
0.350100	0.034193
0.350200	0.048474
0.350300	-0.065454
0.350400	-0.217358
0.350500	-0.253711
0.350600	-0.184900
0.350700	-0.087201
0.350800	-0.048576
0.350900	-0.111869
0.351000	-0.200805
0.351100	-0.275783
0.351200	-0.268642
0.351300	-0.231315
0.351400	-0.203726
0.351500	-0.208919
0.351600	-0.247220
0.351700	-0.283248
0.351800	-0.307916
0.351900	-0.334532
0.352000	-0.358551
0.352100	-0.396527
0.352200	-0.414379
0.352300	-0.427363
0.352400	-0.467611
0.352500	-0.538694
0.352600	-0.589329
0.352700	-0.649701
0.352800	-0.690274
0.352900	-0.709424
0.353000	-0.724680
0.353100	-0.758111
0.353200	-0.887620
0.353300	-0.993109
0.353400	-1.022321
0.353500	-0.967467
0.353600	-0.924622
0.353700	-0.951238
0.353800	-1.080746
0.353900	-1.205386
0.354000	-1.244335
0.354100	-1.203438
0.354200	-1.159944
0.354300	-1.180393
0.354400	-1.256345
0.354500	-1.320937
0.354600	-1.354044
0.354700	-1.373519
0.354800	-1.390722
0.354900	-1.423505
0.355000	-1.462130
0.355100	-1.500106
0.355200	-1.519906
0.355300	-1.541328
0.355400	-1.578331
0.355500	-1.615982
0.355600	-1.637405
0.355700	-1.636756
0.355800	-1.642923
0.355900	-1.667916
0.356000	-1.737376
0.356100	-1.797749
0.356200	-1.824689
0.356300	-1.838971
0.356400	-1.825338
0.356500	-1.823715
0.356600	-1.819820
0.356700	-1.801644
0.356800	-1.777949
0.356900	-1.760422
0.357000	-1.731209
0.357100	-1.711410
0.357200	-1.685118
0.357300	-1.657204
0.357400	-1.627018
0.357500	-1.600078
0.357600	-1.573787
0.357700	-1.541004
0.357800	-1.511142
0.357900	-1.480307
0.358000	-1.458560
0.358100	-1.430970
0.358200	-1.406302
0.358300	-1.443304
0.358400	-1.552364
0.358500	-1.598130
0.358600	-1.536460
0.358700	-1.407925
0.358800	-1.319314
0.358900	-1.356966
0.359000	-1.471868
0.359100	-1.578006
0.359200	-1.583524
0.359300	-1.512116
0.359400	-1.436813
0.359500	-1.426426
0.359600	-1.477061
0.359700	-1.532889
0.359800	-1.555610
0.359900	-1.535810
0.360000	-1.510168
0.360100	-1.496211
0.360200	-1.497834
0.360300	-1.501405
0.360400	-1.497834
0.360500	-1.500106
0.360600	-1.491018
0.360700	-1.505300
0.360800	-1.524775
0.360900	-1.550417
0.361000	-1.555935
0.361100	-1.566970
0.361200	-1.590016
0.361300	-1.618904
0.361400	-1.621825
0.361500	-1.564698
0.361600	-1.500756
0.361700	-1.517309
0.361800	-1.617281
0.361900	-1.708813
0.362000	-1.749061
0.362100	-1.688689
0.362200	-1.609166
0.362300	-1.599429
0.362400	-1.688040
0.362500	-1.805214
0.362600	-1.874675
0.362700	-1.856174
0.362800	-1.811057
0.362900	-1.797424
0.363000	-1.813653
0.363100	-1.834102
0.363200	-1.837348
0.363300	-1.836374
0.363400	-1.841243
0.363500	-1.835400
0.363600	-1.822417
0.363700	-1.789959
0.363800	-1.733481
0.363900	-1.684145
0.364000	-1.648765
0.364100	-1.628316
0.364200	-1.607868
0.364300	-1.539381
0.364400	-1.447849
0.364500	-1.340412
0.364600	-1.242713
0.364700	-1.177472
0.364800	-1.118722
0.364900	-1.055753
0.365000	-0.969090
0.365100	-0.880154
0.365200	-0.783753
0.365300	-0.702283
0.365400	-0.643534
0.365500	-0.600689
0.365600	-0.548756
0.365700	-0.525711
0.365800	-0.477673
0.365900	-0.455601
0.366000	-0.415353
0.366100	-0.393931
0.366200	-0.363745
0.366300	-0.379000
0.366400	-0.383219
0.366500	-0.378351
0.366600	-0.334532
0.366700	-0.208270
0.366800	-0.095315
0.366900	-0.075191
0.367000	-0.202103
0.367100	-0.303048
0.367200	-0.273835
0.367300	-0.167697
0.367400	-0.042084
0.367500	0.010498
0.367600	-0.003783
0.367700	-0.069024
0.367800	-0.065129
0.367900	-0.001511
0.368000	0.106250
0.368100	0.191615
0.368200	0.239977
0.368300	0.260751
0.368400	0.289314
0.368500	0.320798
0.368600	0.367863
0.368700	0.415576
0.368800	0.445113
0.368900	0.468483
0.369000	0.483738
0.369100	0.479194
0.369200	0.456149
0.369300	0.447060
0.369400	0.425638
0.369500	0.424989
0.369600	0.449657
0.369700	0.466211
0.369800	0.455824
0.369900	0.336054
0.370000	0.281199
0.370100	0.295156
0.370200	0.375003
0.370300	0.413629
0.370400	0.368836
0.370500	0.234784
0.370600	0.133839
0.370700	0.117610
0.370800	0.177658
0.370900	0.218230
0.371000	0.189343
0.371100	0.099758
0.371200	0.024131
0.371300	-0.003134
0.371400	-0.021960
0.371500	-0.054094
0.371600	-0.131344
0.371700	-0.226771
0.371800	-0.304995
0.371900	-0.364069
0.372000	-0.429635
0.372100	-0.518895
0.372200	-0.607830
0.372300	-0.681510
0.372400	-0.740259
0.372500	-0.787324
0.372600	-0.865224
0.372700	-0.988889
0.372800	-1.103142
0.372900	-1.186884
0.373000	-1.263161
0.373100	-1.327104
0.373200	-1.414092
0.373300	-1.492316
0.373400	-1.565997
0.373500	-1.635782
0.373600	-1.692584
0.373700	-1.756851
0.373800	-1.826312
0.373900	-1.891228
0.374000	-1.962312
0.374100	-2.031773
0.374200	-2.097014
0.374300	-2.157062
0.374400	-2.203153
0.374500	-2.251516
0.374600	-2.290466
0.374700	-2.338179
0.374800	-2.370313
0.374900	-2.410886
0.375000	-2.511182
0.375100	-2.640367
0.375200	-2.678992
0.375300	-2.602390
0.375400	-2.494304
0.375500	-2.439125
0.375600	-2.503068
0.375700	-2.619593
0.375800	-2.699765
0.375900	-2.676395
0.376000	-2.606610
0.376100	-2.538447
0.376200	-2.526762
0.376300	-2.557922
0.376400	-2.582591
0.376500	-2.565063
0.376600	-2.516376
0.376700	-2.455679
0.376800	-2.401473
0.376900	-2.361874
0.377000	-2.337855
0.377100	-2.312213
0.377200	-2.291764
0.377300	-2.270341
0.377400	-2.260279
0.377500	-2.261578
0.377600	-2.259306
0.377700	-2.245673
0.377800	-2.245349
0.377900	-2.251191
0.378000	-2.263850
0.378100	-2.231391
0.378200	-2.130771
0.378300	-2.054818
0.378400	-2.057415
0.378500	-2.128174
0.378600	-2.174589
0.378700	-2.135964
0.378800	-2.005157
0.378900	-1.870780
0.379000	-1.822742
0.379100	-1.857147
0.379200	-1.903563
0.379300	-1.899018
0.379400	-1.811706
0.379500	-1.718550
0.379600	-1.667916
0.379700	-1.648116
0.379800	-1.623123
0.379900	-1.580927
0.380000	-1.539381
0.380100	-1.495887
0.380200	-1.467973
0.380300	-1.429997
0.380400	-1.359887
0.380500	-1.286207
0.380600	-1.220966
0.380700	-1.173252
0.380800	-1.146636
0.380900	-1.107362
0.381000	-1.024918
0.381100	-0.943448
0.381200	-0.832441
0.381300	-0.760708
0.381400	-0.711696
0.381500	-0.674369
0.381600	-0.630875
0.381700	-0.583486
0.381800	-0.515324
0.381900	-0.455926
0.382000	-0.402370
0.382100	-0.372508
0.382200	-0.354007
0.382300	-0.330962
0.382400	-0.335181
0.382500	-0.324470
0.382600	-0.317005
0.382700	-0.316680
0.382800	-0.305320
0.382900	-0.329988
0.383000	-0.340375
0.383100	-0.388413
0.383200	-0.376728
0.383300	-0.343296
0.383400	-0.205349
0.383500	-0.136862
0.383600	-0.162828
0.383700	-0.303372
0.383800	-0.377702
0.383900	-0.336804
0.384000	-0.251764
0.384100	-0.170943
0.384200	-0.179058
0.384300	-0.246895
0.384400	-0.319601
0.384500	-0.324795
0.384600	-0.282599
0.384700	-0.231315
0.384800	-0.206322
0.384900	-0.210867
0.385000	-0.231315
0.385100	-0.256308
0.385200	-0.271563
0.385300	-0.285845
0.385400	-0.303697
0.385500	-0.318952
0.385600	-0.342971
0.385700	-0.380298
0.385800	-0.439372
0.385900	-0.480594
0.386000	-0.548432
0.386100	-0.609128
0.386200	-0.650026
0.386300	-0.672097
0.386400	-0.702608
0.386500	-0.784403
0.386600	-0.935333
0.386700	-1.003820
0.386800	-0.991811
0.386900	-0.936956
0.387000	-0.927868
0.387100	-0.999925
0.387200	-1.116126
0.387300	-1.165462
0.387400	-1.133653
0.387500	-1.042770
0.387600	-0.990512
0.387700	-1.012259
0.387800	-1.081071
0.387900	-1.098273
0.388000	-1.096975
0.388100	-1.074904
0.388200	-1.083992
0.388300	-1.122617
0.388400	-1.173252
0.388500	-1.208631
0.388600	-1.231677
0.388700	-1.240765
0.388800	-1.244011
0.388900	-1.245958
0.389000	-1.244985
0.389100	-1.238818
0.389200	-1.245634
0.389300	-1.287505
0.389400	-1.348202
0.389500	-1.387476
0.389600	-1.406627
0.389700	-1.426751
0.389800	-1.433567
0.389900	-1.429997
0.390000	-1.424803
0.390100	-1.417987
0.390200	-1.404679
0.390300	-1.394293
0.390400	-1.376440
0.390500	-1.371572
0.390600	-1.367677
0.390700	-1.361510
0.390800	-1.367028
0.390900	-1.376765
0.391000	-1.387476
0.391100	-1.388125
0.391200	-1.402407
0.391300	-1.405004
0.391400	-1.427725
0.391500	-1.454016
0.391600	-1.508221
0.391700	-1.654932
0.391800	-1.791257
0.391900	-1.844813
0.392000	-1.776002
0.392100	-1.698102
0.392200	-1.702321
0.392300	-1.801644
0.392400	-1.943162
0.392500	-2.004833
0.392600	-1.981463
0.392700	-1.908756
0.392800	-1.885711
0.392900	-1.921090
0.393000	-2.001262
0.393100	-2.048976
0.393200	-2.062608
0.393300	-2.054818
0.393400	-2.043458
0.393500	-2.039887
0.393600	-2.052546
0.393700	-2.067152
0.393800	-2.073969
0.393900	-2.078513
0.394000	-2.084355
0.394100	-2.082732
0.394200	-2.103181
0.394300	-2.103506
0.394400	-2.087277
0.394500	-2.084031
0.394600	-2.096365
0.394700	-2.105453
0.394800	-2.059687
0.394900	-1.978217
0.395000	-1.951276
0.395100	-2.015544
0.395200	-2.117138
0.395300	-2.181730
0.395400	-2.148623
0.395500	-2.046055
0.395600	-1.971076
0.395700	-1.987954
0.395800	-2.088900
0.395900	-2.160308
0.396000	-2.151869
0.396100	-2.080785
0.396200	-2.016517
0.396300	-1.991525
0.396400	-2.000288
0.396500	-1.995095
0.396600	-1.972374
0.396700	-1.944135
0.396800	-1.914923
0.396900	-1.880517
0.397000	-1.836049
0.397100	-1.755553
0.397200	-1.667266
0.397300	-1.600727
0.397400	-1.542627
0.397500	-1.497834
0.397600	-1.426751
0.397700	-1.312822
0.397800	-1.219992
0.397900	-1.089510
0.398000	-0.995381
0.398100	-0.914560
0.398200	-0.834388
0.398300	-0.739935
0.398400	-0.655868
0.398500	-0.562389
0.398600	-0.481243
0.398700	-0.429635
0.398800	-0.401071
0.398900	-0.382246
0.399000	-0.368613
0.399100	-0.378026
0.399200	-0.376403
0.399300	-0.371859
0.399400	-0.369262
0.399500	-0.371535
0.399600	-0.389711
0.399700	-0.418923
0.399800	-0.439372
0.399900	-0.429310
0.400000	-0.352384
0.400100	-0.215735
0.400200	-0.125826
0.400300	-0.183926
0.400400	-0.290064
0.400500	-0.317329
0.400600	-0.221578
0.400700	-0.076814
0.400800	0.028350
0.400900	0.037763
0.401000	-0.005082
0.401100	-0.038189
0.401200	0.013419
0.401300	0.119233
0.401400	0.212388
0.401500	0.290612
0.401600	0.316254
0.401700	0.345466
0.401800	0.367863
0.401900	0.408435
0.402000	0.444788
0.402100	0.485361
0.402200	0.521065
0.402300	0.542487
0.402400	0.537943
0.402500	0.517495
0.402600	0.498020
0.402700	0.474650
0.402800	0.439270
0.402900	0.435700
0.403000	0.433103
0.403100	0.423041
0.403200	0.325991
0.403300	0.226020
0.403400	0.200054
0.403500	0.258154
0.403600	0.296779
0.403700	0.288989
0.403800	0.193238
0.403900	0.077362
0.404000	0.016665
0.404100	0.039061
0.404200	0.088073
0.404300	0.086775
0.404400	0.009849
0.404500	-0.086552
0.404600	-0.136537
0.404700	-0.168346
0.404800	-0.192041
0.404900	-0.252413
0.405000	-0.323821
0.405100	-0.388737
0.405200	-0.450408
0.405300	-0.512728
0.405400	-0.591926
0.405500	-0.666579
0.405600	-0.725004
0.405700	-0.762656
0.405800	-0.794465
0.405900	-0.853539
0.406000	-0.961300
0.406100	-1.073281
0.406200	-1.166436
0.406300	-1.223887
0.406400	-1.265758
0.406500	-1.343009
0.406600	-1.425128
0.406700	-1.506598
0.406800	-1.583200
0.406900	-1.644221
0.407000	-1.709138
0.407100	-1.769510
0.407200	-1.837023
0.407300	-1.896746
0.407400	-1.956470
0.407500	-2.011973
0.407600	-2.072995
0.407700	-2.125253
0.407800	-2.171344
0.407900	-2.218084
0.408000	-2.273263
0.408100	-2.329740
0.408200	-2.369989
0.408300	-2.461196
0.408400	-2.627708
0.408500	-2.751699
0.408600	-2.753971
0.408700	-2.666009
0.408800	-2.590381
0.408900	-2.610505
0.409000	-2.738391
0.409100	-2.843556
0.409200	-2.854267
0.409300	-2.768902
0.409400	-2.661789
0.409500	-2.615374
0.409600	-2.622190
0.409700	-2.656271
0.409800	-2.666009
0.409900	-2.624787
0.410000	-2.561493
0.410100	-2.498524
0.410200	-2.450485
0.410300	-2.415430
0.410400	-2.381024
0.410500	-2.341101
0.410600	-2.302151
0.410700	-2.271640
0.410800	-2.247621
0.410900	-2.237234
0.411000	-2.196661
0.411100	-2.174589
0.411200	-2.157062
0.411300	-2.150570
0.411400	-2.119735
0.411500	-2.034370
0.411600	-1.943162
0.411700	-1.913625
0.411800	-1.987630
0.411900	-2.066179
0.412000	-2.097663
0.412100	-2.024632
0.412200	-1.917520
0.412300	-1.862341
0.412400	-1.911353
0.412500	-2.009701
0.412600	-2.063257
0.412700	-2.032097
0.412800	-1.962637
0.412900	-1.908756
0.413000	-1.892527
0.413100	-1.882465
0.413200	-1.868183
0.413300	-1.840918
0.413400	-1.808135
0.413500	-1.774379
0.413600	-1.739324
0.413700	-1.688689
0.413800	-1.621176
0.413900	-1.548794
0.414000	-1.490044
0.414100	-1.443954
0.414200	-1.407276
0.414300	-1.336841
0.414400	-1.232326
0.414500	-1.119696
0.414600	-1.001223
0.414700	-0.917481
0.414800	-0.837959
0.414900	-0.758111
0.415000	-0.673071
0.415100	-0.583162
0.415200	-0.486436
0.415300	-0.408861
0.415400	-0.357577
0.415500	-0.328041
0.415600	-0.300776
0.415700	-0.292012
0.415800	-0.288442
0.415900	-0.286494
0.416000	-0.285196
0.416100	-0.287792
0.416200	-0.302074
0.416300	-0.336804
0.416400	-0.386141
0.416500	-0.428336
0.416600	-0.442618
0.416700	-0.363095
0.416800	-0.280327
0.416900	-0.294284
0.417000	-0.436775
0.417100	-0.612050
0.417200	-0.659114
0.417300	-0.618866
0.417400	-0.539343
0.417500	-0.524413
0.417600	-0.599066
0.417700	-0.703906
0.417800	-0.764279
0.417900	-0.738961
0.418000	-0.680861
0.418100	-0.626007
0.418200	-0.606207
0.418300	-0.614322
0.418400	-0.628603
0.418500	-0.626331
0.418600	-0.620164
0.418700	-0.604584
0.418800	-0.604260
0.418900	-0.598093
0.419000	-0.600040
0.419100	-0.604260
0.419200	-0.623735
0.419300	-0.626656
0.419400	-0.665930
0.419500	-0.674694
0.419600	-0.666255
0.419700	-0.647429
0.419800	-0.650675
0.419900	-0.755190
0.420000	-0.823677
0.420100	-0.814913
0.420200	-0.727925
0.420300	-0.664307
0.420400	-0.684756
0.420500	-0.796412
0.420600	-0.896708
0.420700	-0.921701
0.420800	-0.870092
0.420900	-0.818159
0.421000	-0.841529
0.421100	-0.935333
0.421200	-1.016154
0.421300	-1.062245
0.421400	-1.087562
0.421500	-1.108011
0.421600	-1.165787
0.421700	-1.226159
0.421800	-1.276794
0.421900	-1.323209
0.422000	-1.363782
0.422100	-1.422531
0.422200	-1.478359
0.422300	-1.510168
0.422400	-1.512441
0.422500	-1.506598
0.422600	-1.517634
0.422700	-1.572813
0.422800	-1.602674
0.422900	-1.612087
0.423000	-1.598130
0.423100	-1.552689
0.423200	-1.536784
0.423300	-1.526073
0.423400	-1.510493
0.423500	-1.489071
0.423600	-1.466999
0.423700	-1.449147
0.423800	-1.431944
0.423900	-1.419610
0.424000	-1.410846
0.424100	-1.406627
0.424200	-1.398512
0.424300	-1.396240
0.424400	-1.395266
0.424500	-1.390722
0.424600	-1.387152
0.424700	-1.388125
0.424800	-1.399161
0.424900	-1.386178
0.425000	-1.457586
0.425100	-1.567944
0.425200	-1.628966
0.425300	-1.572164
0.425400	-1.439085
0.425500	-1.352746
0.425600	-1.376116
0.425700	-1.492641
0.425800	-1.578980
0.425900	-1.573462
0.426000	-1.491992
0.426100	-1.407276
0.426200	-1.412145
0.426300	-1.480307
0.426400	-1.572164
0.426500	-1.615333
0.426600	-1.625720
0.426700	-1.609166
0.426800	-1.602999
0.426900	-1.608517
0.427000	-1.642274
0.427100	-1.661749
0.427200	-1.674083
0.427300	-1.677004
0.427400	-1.665643
0.427500	-1.681223
0.427600	-1.696154
0.427700	-1.689338
0.427800	-1.692259
0.427900	-1.702321
0.428000	-1.720823
0.428100	-1.716278
0.428200	-1.652660
0.428300	-1.590016
0.428400	-1.605920
0.428500	-1.702970
0.428600	-1.802942
0.428700	-1.840918
0.428800	-1.780870
0.428900	-1.703620
0.429000	-1.704918
0.429100	-1.796450
0.429200	-1.922064
0.429300	-2.006131
0.429400	-2.011000
0.429500	-1.987630
0.429600	-1.989902
0.429700	-2.014570
0.429800	-2.057415
0.429900	-2.079487
0.430000	-2.098637
0.430100	-2.111945
0.430200	-2.114542
0.430300	-2.114542
0.430400	-2.090847
0.430500	-2.047677
0.430600	-2.003859
0.430700	-1.980164
0.430800	-1.965883
0.430900	-1.957119
0.431000	-1.897720
0.431100	-1.828259
0.431200	-1.729586
0.431300	-1.643572
0.431400	-1.587095
0.431500	-1.531915
0.431600	-1.470569
0.431700	-1.398188
0.431800	-1.316068
0.431900	-1.219992
0.432000	-1.144040
0.432100	-1.076851
0.432200	-1.027190
0.432300	-0.969090
0.432400	-0.946369
0.432500	-0.896383
0.432600	-0.861004
0.432700	-0.811018
0.432800	-0.778236
0.432900	-0.757138
0.433000	-0.745777
0.433100	-0.750646
0.433200	-0.720785
0.433300	-0.664307
0.433400	-0.530580
0.433500	-0.384518
0.433600	-0.393931
0.433700	-0.502990
0.433800	-0.594847
0.433900	-0.578618
0.434000	-0.477673
0.434100	-0.369912
0.434200	-0.318628
0.434300	-0.376079
0.434400	-0.430933
0.434500	-0.456900
0.434600	-0.415353
0.434700	-0.339076
0.434800	-0.280976
0.434900	-0.252088
0.435000	-0.245597
0.435100	-0.256957
0.435200	-0.260528
0.435300	-0.250141
0.435400	-0.225797
0.435500	-0.207945
0.435600	-0.192041
0.435700	-0.193015
0.435800	-0.225473
0.435900	-0.250790
0.436000	-0.291687
0.436100	-0.321873
0.436200	-0.336480
0.436300	-0.320575
0.436400	-0.314408
0.436500	-0.347515
0.436600	-0.451057
0.436700	-0.493577
0.436800	-0.457224
0.436900	-0.368613
0.437000	-0.314733
0.437100	-0.341024
0.437200	-0.421845
0.437300	-0.463067
0.437400	-0.431582
0.437500	-0.333234
0.437600	-0.272862
0.437700	-0.268318
0.437800	-0.309215
0.437900	-0.321873
0.438000	-0.308241
0.438100	-0.292012
0.438200	-0.292337
0.438300	-0.321873
0.438400	-0.341998
0.438500	-0.357253
0.438600	-0.362446
0.438700	-0.371859
0.438800	-0.396852
0.438900	-0.404966
0.439000	-0.395878
0.439100	-0.375754
0.439200	-0.362771
0.439300	-0.385167
0.439400	-0.442618
0.439500	-0.488059
0.439600	-0.504613
0.439700	-0.491305
0.439800	-0.490656
0.439900	-0.506236
0.440000	-0.519219
0.440100	-0.531553
0.440200	-0.540317
0.440300	-0.542914
0.440400	-0.562064
0.440500	-0.564985
0.440600	-0.570828
0.440700	-0.579916
0.440800	-0.589653
0.440900	-0.601338
0.441000	-0.612699
0.441100	-0.626007
0.441200	-0.638341
0.441300	-0.661711
0.441400	-0.697415
0.441500	-0.735391
0.441600	-0.798684
0.441700	-0.914235
0.441800	-1.083343
0.441900	-1.164813
0.442000	-1.140794
0.442100	-1.072956
0.442200	-1.077500
0.442300	-1.207009
0.442400	-1.363782
0.442500	-1.486149
0.442600	-1.494913
0.442700	-1.454340
0.442800	-1.434865
0.442900	-1.483228
0.443000	-1.568918
0.443100	-1.638379
0.443200	-1.674407
0.443300	-1.671811
0.443400	-1.668565
0.443500	-1.669214
0.443600	-1.674732
0.443700	-1.694856
0.443800	-1.703944
0.443900	-1.721147
0.444000	-1.731209
0.444100	-1.752632
0.444200	-1.758150
0.444300	-1.748412
0.444400	-1.724718
0.444500	-1.713357
0.444600	-1.722770
0.444700	-1.716928
0.444800	-1.669538
0.444900	-1.555285
0.445000	-1.479982
0.445100	-1.491992
0.445200	-1.557557
0.445300	-1.591314
0.445400	-1.543925
0.445500	-1.412145
0.445600	-1.298216
0.445700	-1.267705
0.445800	-1.321586
0.445900	-1.372546
0.446000	-1.363457
0.446100	-1.294970
0.446200	-1.226159
0.446300	-1.191753
0.446400	-1.181042
0.446500	-1.164813
0.446600	-1.147610
0.446700	-1.120670
0.446800	-1.113204
0.446900	-1.098598
0.447000	-1.064517
0.447100	-0.997653
0.447200	-0.927219
0.447300	-0.866522
0.447400	-0.837959
0.447500	-0.824651
0.447600	-0.809395
0.447700	-0.757138
0.447800	-0.708775
0.447900	-0.673071
0.448000	-0.626980
0.448100	-0.607830
0.448200	-0.589653
0.448300	-0.568556
0.448400	-0.548756
0.448500	-0.519219
0.448600	-0.490331
0.448700	-0.484164
0.448800	-0.498121
0.448900	-0.510780
0.449000	-0.530580
0.449100	-0.571152
0.449200	-0.603611
0.449300	-0.641911
0.449400	-0.662035
0.449500	-0.692546
0.449600	-0.716240
0.449700	-0.755515
0.449800	-0.802255
0.449900	-0.810045
0.450000	-0.779209
0.450100	-0.656517
0.450200	-0.598742
0.450300	-0.667229
0.450400	-0.822379
0.450500	-0.919753
0.450600	-0.899954
0.450700	-0.814913
0.450800	-0.754217
0.450900	-0.777262
0.451000	-0.873987
0.451100	-0.964546
0.451200	-0.997328
0.451300	-0.960326
0.451400	-0.935982
0.451500	-0.913586
0.451600	-0.947667
0.451700	-0.966493
0.451800	-0.984670
0.451900	-0.972660
0.452000	-0.952861
0.452100	-0.945720
0.452200	-0.927868
0.452300	-0.909691
0.452400	-0.897357
0.452500	-0.910665
0.452600	-0.904173
0.452700	-0.918780
0.452800	-0.935333
0.452900	-0.930465
0.453000	-0.912937
0.453100	-0.884698
0.453200	-0.941176
0.453300	-1.027515
0.453400	-1.060622
0.453500	-0.993109
0.453600	-0.910016
0.453700	-0.872364
0.453800	-0.929815
0.453900	-1.035954
0.454000	-1.080421
0.454100	-1.040822
0.454200	-0.958703
0.454300	-0.918780
0.454400	-0.967467
0.454500	-1.030111
0.454600	-1.043744
0.454700	-1.033357
0.454800	-1.015830
0.454900	-1.018102
0.455000	-1.054130
0.455100	-1.087238
0.455200	-1.105414
0.455300	-1.094379
0.455400	-1.099896
0.455500	-1.105414
0.455600	-1.102818
0.455700	-1.082369
0.455800	-1.060947
0.455900	-1.046016
0.456000	-1.069710
0.456100	-1.122942
0.456200	-1.146636
0.456300	-1.153128
0.456400	-1.117424
0.456500	-1.112231
0.456600	-1.118398
0.456700	-1.116775
0.456800	-1.106063
0.456900	-1.090159
0.457000	-1.071658
0.457100	-1.045367
0.457200	-1.020698
0.457300	-0.994083
0.457400	-0.969414
0.457500	-0.946369
0.457600	-0.929491
0.457700	-0.914235
0.457800	-0.903200
0.457900	-0.885997
0.458000	-0.880154
0.458100	-0.885997
0.458200	-0.892488
0.458300	-0.942149
0.458400	-1.060622
0.458500	-1.186560
0.458600	-1.214799
0.458700	-1.142092
0.458800	-1.066140
0.458900	-1.070684
0.459000	-1.203763
0.459100	-1.347877
0.459200	-1.428374
0.459300	-1.402407
0.459400	-1.347877
0.459500	-1.345605
0.459600	-1.417987
0.459700	-1.517309
0.459800	-1.590665
0.459900	-1.613386
0.460000	-1.603648
0.460100	-1.589042
0.460200	-1.593911
0.460300	-1.604947
0.460400	-1.610464
0.460500	-1.592288
0.460600	-1.567295
0.460700	-1.537758
0.460800	-1.524775
0.460900	-1.530942
0.461000	-1.512765
0.461100	-1.482579
0.461200	-1.456937
0.461300	-1.446875
0.461400	-1.426751
0.461500	-1.360211
0.461600	-1.247581
0.461700	-1.193376
0.461800	-1.223562
0.461900	-1.286856
0.462000	-1.315744
0.462100	-1.254398
0.462200	-1.135276
0.462300	-1.075553
0.462400	-1.107686
0.462500	-1.203763
0.462600	-1.279066
0.462700	-1.272899
0.462800	-1.221939
0.462900	-1.176822
0.463000	-1.182016
0.463100	-1.197271
0.463200	-1.209605
0.463300	-1.207658
0.463400	-1.196622
0.463500	-1.193701
0.463600	-1.191753
0.463700	-1.172278
0.463800	-1.126188
0.463900	-1.070035
0.464000	-1.036603
0.464100	-1.019725
0.464200	-1.012259
0.464300	-0.984670
0.464400	-0.910016
0.464500	-0.820431
0.464600	-0.734742
0.464700	-0.688651
0.464800	-0.653596
0.464900	-0.613673
0.465000	-0.562389
0.465100	-0.515324
0.465200	-0.459172
0.465300	-0.414379
0.465400	-0.400422
0.465500	-0.388737
0.465600	-0.394904
0.465700	-0.410160
0.465800	-0.431907
0.465900	-0.457224
0.466000	-0.465339
0.466100	-0.507534
0.466200	-0.531229
0.466300	-0.593873
0.466400	-0.661711
0.466500	-0.717214
0.466600	-0.761682
0.466700	-0.718188
0.466800	-0.651324
0.466900	-0.642885
0.467000	-0.783753
0.467100	-0.969414
0.467200	-1.052183
0.467300	-1.046665
0.467400	-0.958054
0.467500	-0.952212
0.467600	-0.997653
0.467700	-1.107362
0.467800	-1.186235
0.467900	-1.192078
0.468000	-1.157347
0.468100	-1.109958
0.468200	-1.095352
0.468300	-1.104116
0.468400	-1.123915
0.468500	-1.141443
0.468600	-1.145338
0.468700	-1.124889
0.468800	-1.108011
0.468900	-1.092431
0.469000	-1.078149
0.469100	-1.084966
0.469200	-1.085290
0.469300	-1.095677
0.469400	-1.111257
0.469500	-1.110608
0.469600	-1.088536
0.469700	-1.052832
0.469800	-1.037901
0.469900	-1.097949
0.470000	-1.162541
0.470100	-1.147935
0.470200	-1.060622
0.470300	-0.972011
0.470400	-0.966493
0.470500	-1.042770
0.470600	-1.134951
0.470700	-1.152479
0.470800	-1.078799
0.470900	-0.998951
0.471000	-0.989863
0.471100	-1.046340
0.471200	-1.105739
0.471300	-1.112880
0.471400	-1.100221
0.471500	-1.086589
0.471600	-1.105414
0.471700	-1.135276
0.471800	-1.160918
0.471900	-1.165462
0.472000	-1.160918
0.472100	-1.173252
0.472200	-1.194999
0.472300	-1.193701
0.472400	-1.167409
0.472500	-1.139495
0.472600	-1.122293
0.472700	-1.151505
0.472800	-1.184937
0.472900	-1.196622
0.473000	-1.190130
0.473100	-1.160593
0.473200	-1.150856
0.473300	-1.145338
0.473400	-1.141118
0.473500	-1.135276
0.473600	-1.131381
0.473700	-1.129109
0.473800	-1.134951
0.473900	-1.144364
0.474000	-1.155725
0.474100	-1.178121
0.474200	-1.198894
0.474300	-1.221939
0.474400	-1.241090
0.474500	-1.256670
0.474600	-1.278417
0.474700	-1.305032
0.474800	-1.342035
0.474900	-1.374168
0.475000	-1.462130
0.475100	-1.623772
0.475200	-1.755877
0.475300	-1.774054
0.475400	-1.700374
0.475500	-1.664670
0.475600	-1.731209
0.475700	-1.901615
0.475800	-2.047677
0.475900	-2.115515
0.476000	-2.083382
0.476100	-2.044756
0.476200	-2.068775
0.476300	-2.154465
0.476400	-2.256384
0.476500	-2.320976
0.476600	-2.346619
0.476700	-2.352461
0.476800	-2.367067
0.476900	-2.392385
0.477000	-2.435879
0.477100	-2.453731
0.477200	-2.465416
0.477300	-2.474829
0.477400	-2.476127
0.477500	-2.488786
0.477600	-2.503717
0.477700	-2.496252
0.477800	-2.483268
0.477900	-2.476776
0.478000	-2.480996
0.478100	-2.455354
0.478200	-2.379726
0.478300	-2.287544
0.478400	-2.264824
0.478500	-2.337855
0.478600	-2.404394
0.478700	-2.411535
0.478800	-2.314485
0.478900	-2.178160
0.479000	-2.109997
0.479100	-2.151869
0.479200	-2.237883
0.479300	-2.281377
0.479400	-2.239181
0.479500	-2.159009
0.479600	-2.103830
0.479700	-2.082732
0.479800	-2.082083
0.479900	-2.060336
0.480000	-2.019439
0.480100	-1.970102
0.480200	-1.917520
0.480300	-1.861691
0.480400	-1.790283
0.480500	-1.702970
0.480600	-1.618904
0.480700	-1.560479
0.480800	-1.518608
0.480900	-1.476087
0.481000	-1.407276
0.481100	-1.307629
0.481200	-1.191753
0.481300	-1.092431
0.481400	-1.019400
0.481500	-0.957405
0.481600	-0.889243
0.481700	-0.814589
0.481800	-0.733119
0.481900	-0.649377
0.482000	-0.584460
0.482100	-0.546160
0.482200	-0.523763
0.482300	-0.507534
0.482400	-0.499095
0.482500	-0.499420
0.482600	-0.487410
0.482700	-0.474102
0.482800	-0.457549
0.482900	-0.450408
0.483000	-0.463067
0.483100	-0.467611
0.483200	-0.482541
0.483300	-0.442618
0.483400	-0.333883
0.483500	-0.211840
0.483600	-0.187172
0.483700	-0.297530
0.483800	-0.404966
0.483900	-0.414055
0.484000	-0.320575
0.484100	-0.241702
0.484200	-0.209893
0.484300	-0.277081
0.484400	-0.380298
0.484500	-0.443916
0.484600	-0.435802
0.484700	-0.393281
0.484800	-0.368613
0.484900	-0.388737
0.485000	-0.416327
0.485100	-0.465339
0.485200	-0.488384
0.485300	-0.490981
0.485400	-0.482217
0.485500	-0.473778
0.485600	-0.469558
0.485700	-0.481568
0.485800	-0.518245
0.485900	-0.552651
0.486000	-0.586732
0.486100	-0.641262
0.486200	-0.689949
0.486300	-0.709749
0.486400	-0.725329
0.486500	-0.772393
0.486600	-0.892813
0.486700	-0.988240
0.486800	-0.993758
0.486900	-0.943448
0.487000	-0.904173
0.487100	-0.949939
0.487200	-1.073605
0.487300	-1.180393
0.487400	-1.198569
0.487500	-1.131705
0.487600	-1.062569
0.487700	-1.066140
0.487800	-1.111906
0.487900	-1.156698
0.488000	-1.154102
0.488100	-1.140145
0.488200	-1.119371
0.488300	-1.123266
0.488400	-1.130407
0.488500	-1.127486
0.488600	-1.108011
0.488700	-1.089510
0.488800	-1.088536
0.488900	-1.077500
0.489000	-1.051534
0.489100	-1.008364
0.489200	-0.966169
0.489300	-0.950589
0.489400	-0.975581
0.489500	-0.992784
0.489600	-0.975257
0.489700	-0.947992
0.489800	-0.905147
0.489900	-0.882751
0.490000	-0.860679
0.490100	-0.840231
0.490200	-0.820431
0.490300	-0.804851
0.490400	-0.787324
0.490500	-0.777262
0.490600	-0.759085
0.490700	-0.754866
0.490800	-0.737014
0.490900	-0.728575
0.491000	-0.719162
0.491100	-0.716565
0.491200	-0.709749
0.491300	-0.702283
0.491400	-0.713319
0.491500	-0.728899
0.491600	-0.758761
0.491700	-0.858407
0.491800	-1.005118
0.491900	-1.086913
0.492000	-1.065491
0.492100	-0.982722
0.492200	-0.958703
0.492300	-1.055753
0.492400	-1.227457
0.492500	-1.356641
0.492600	-1.396240
0.492700	-1.368975
0.492800	-1.355992
0.492900	-1.410846
0.493000	-1.520555
0.493100	-1.640975
0.493200	-1.719200
0.493300	-1.779572
0.493400	-1.813653
0.493500	-1.851954
0.493600	-1.908431
0.493700	-1.970102
0.493800	-2.035668
0.493900	-2.107076
0.494000	-2.165501
0.494100	-2.234962
0.494200	-2.313186
0.494300	-2.376805
0.494400	-2.423869
0.494500	-2.483917
0.494600	-2.542342
0.494700	-2.605312
0.494800	-2.615374
0.494900	-2.566686
0.495000	-2.525139
0.495100	-2.565388
0.495200	-2.663087
0.495300	-2.741312
0.495400	-2.744883
0.495500	-2.652701
0.495600	-2.557273
0.495700	-2.541044
0.495800	-2.609856
0.495900	-2.694248
0.496000	-2.712749
0.496100	-2.656271
0.496200	-2.586486
0.496300	-2.539097
0.496400	-2.516376
0.496500	-2.507287
0.496600	-2.485865
0.496700	-2.451784
0.496800	-2.420948
0.496900	-2.391736
0.497000	-2.350838
0.497100	-2.272614
0.497200	-2.187573
0.497300	-2.122007
0.497400	-2.077539
0.497500	-2.042160
0.497600	-2.013272
0.497700	-1.933749
0.497800	-1.850006
0.497900	-1.794178
0.498000	-1.701348
0.498100	-1.635457
0.498200	-1.573462
0.498300	-1.508870
0.498400	-1.437137
0.498500	-1.359562
0.498600	-1.284259
0.498700	-1.216097
0.498800	-1.170006
0.498900	-1.143715
0.499000	-1.121319
0.499100	-1.119696
0.499200	-1.100546
0.499300	-1.090484
0.499400	-1.062894
0.499500	-1.047639
0.499600	-1.020374
0.499700	-1.013882
0.499800	-1.021348
0.499900	-0.990837
0.500000	-0.928192
0.500100	-0.755839
0.500200	-0.631525
0.500300	-0.617568
0.500400	-0.728899
0.500500	-0.788622
0.500600	-0.711696
0.500700	-0.588355
0.500800	-0.441969
0.500900	-0.397826
0.501000	-0.416002
0.501100	-0.443916
0.501200	-0.422818
0.501300	-0.332260
0.501400	-0.228394
0.501500	-0.141731
0.501600	-0.099860
0.501700	-0.075191
0.501800	-0.066428
0.501900	-0.048900
0.502000	-0.022285
0.502100	0.005305
0.502200	0.021534
0.502300	0.033868
0.502400	0.034193
0.502500	0.008226
0.502600	-0.024557
0.502700	-0.065454
0.502800	-0.116413
0.502900	-0.123554
0.503000	-0.125826
0.503100	-0.118361
0.503200	-0.190742
0.503300	-0.308566
0.503400	-0.375105
0.503500	-0.355630
0.503600	-0.297854
0.503700	-0.293959
0.503800	-0.377702
0.503900	-0.525711
0.504000	-0.626007
0.504100	-0.639964
0.504200	-0.593548
0.504300	-0.587706
0.504400	-0.655219
0.504500	-0.757462
0.504600	-0.821080
0.504700	-0.848345
0.504800	-0.859381
0.504900	-0.887944
0.505000	-0.940527
0.505100	-0.985968
0.505200	-1.012908
0.505300	-1.013558
0.505400	-1.036927
0.505500	-1.076526
0.505600	-1.101519
0.505700	-1.103791
0.505800	-1.082694
0.505900	-1.060622
0.506000	-1.078474
0.506100	-1.136899
0.506200	-1.168059
0.506300	-1.172927
0.506400	-1.132355
0.506500	-1.108985
0.506600	-1.103142
0.506700	-1.088536
0.506800	-1.072631
0.506900	-1.044393
0.507000	-1.021672
0.507100	-0.997978
0.507200	-0.974283
0.507300	-0.951887
0.507400	-0.921376
0.507500	-0.888918
0.507600	-0.857109
0.507700	-0.830818
0.507800	-0.801281
0.507900	-0.768823
0.508000	-0.744479
0.508100	-0.725329
0.508200	-0.711047
0.508300	-0.709100
0.508400	-0.789596
0.508500	-0.907744
0.508600	-0.917806
0.508700	-0.814913
0.508800	-0.686379
0.508900	-0.636069
0.509000	-0.707477
0.509100	-0.812317
0.509200	-0.859056
0.509300	-0.810369
0.509400	-0.712345
0.509500	-0.649052
0.509600	-0.649377
0.509700	-0.695143
0.509800	-0.739935
0.509900	-0.743181
0.510000	-0.722083
0.510100	-0.695143
0.510200	-0.672746
0.510300	-0.675992
0.510400	-0.674694
0.510500	-0.663009
0.510600	-0.659763
0.510700	-0.661386
0.510800	-0.676641
0.510900	-0.712021
0.511000	-0.737338
0.511100	-0.755839
0.511200	-0.776937
0.511300	-0.814264
0.511400	-0.845099
0.511500	-0.832116
0.511600	-0.762331
0.511700	-0.741882
0.511800	-0.817835
0.511900	-0.955782
0.512000	-1.067114
0.512100	-1.084641
0.512200	-1.029137
0.512300	-0.992460
0.512400	-1.054130
0.512500	-1.205061
0.512600	-1.345605
0.512700	-1.417013
0.512800	-1.419610
0.512900	-1.414092
0.513000	-1.444603
0.513100	-1.511467
0.513200	-1.577682
0.513300	-1.618579
0.513400	-1.645519
0.513500	-1.683820
0.513600	-1.725691
0.513700	-1.749710
0.513800	-1.747763
0.513900	-1.724068
0.514000	-1.710760
0.514100	-1.712708
0.514200	-1.726016
0.514300	-1.719849
0.514400	-1.674407
0.514500	-1.617930
0.514600	-1.540355
0.514700	-1.513090
0.514800	-1.510818
0.514900	-1.507247
0.515000	-1.492966
0.515100	-1.472841
0.515200	-1.441357
0.515300	-1.424154
0.515400	-1.424803
0.515500	-1.444927
0.515600	-1.461806
0.515700	-1.483553
0.515800	-1.511467
0.515900	-1.533863
0.516000	-1.553013
0.516100	-1.568269
0.516200	-1.590989
0.516300	-1.603324
0.516400	-1.650064
0.516500	-1.661749
0.516600	-1.677004
0.516700	-1.601701
0.516800	-1.487448
0.516900	-1.399810
0.517000	-1.459534
0.517100	-1.594560
0.517200	-1.641624
0.517300	-1.576383
0.517400	-1.441032
0.517500	-1.343333
0.517600	-1.330999
0.517700	-1.365729
0.517800	-1.401758
0.517900	-1.357615
0.518000	-1.257643
0.518100	-1.147935
0.518200	-1.074254
0.518300	-1.036927
0.518400	-1.024593
0.518500	-1.014856
0.518600	-0.980126
0.518700	-0.930789
0.518800	-0.890866
0.518900	-0.866522
0.519000	-0.838932
0.519100	-0.826274
0.519200	-0.815238
0.519300	-0.811018
0.519400	-0.811018
0.519500	-0.830169
0.519600	-0.824002
0.519700	-0.793491
0.519800	-0.773367
0.519900	-0.831142
0.520000	-0.911314
0.520100	-0.928517
0.520200	-0.867171
0.520300	-0.784727
0.520400	-0.749672
0.520500	-0.813940
0.520600	-0.924297
0.520700	-0.972660
0.520800	-0.934684
0.520900	-0.849968
0.521000	-0.817835
0.521100	-0.863925
0.521200	-0.925596
0.521300	-0.961949
0.521400	-0.978178
0.521500	-0.971686
0.521600	-0.997653
0.521700	-1.043744
0.521800	-1.102493
0.521900	-1.139495
0.522000	-1.156049
0.522100	-1.176822
0.522200	-1.210254
0.522300	-1.237844
0.522400	-1.249204
0.522500	-1.260889
0.522600	-1.258293
0.522700	-1.297567
0.522800	-1.357290
0.522900	-1.396240
0.523000	-1.409548
0.523100	-1.393968
0.523200	-1.389748
0.523300	-1.391047
0.523400	-1.386503
0.523500	-1.386178
0.523600	-1.380011
0.523700	-1.379686
0.523800	-1.363782
0.523900	-1.358264
0.524000	-1.353395
0.524100	-1.336517
0.524200	-1.326455
0.524300	-1.325156
0.524400	-1.324507
0.524500	-1.313796
0.524600	-1.306980
0.524700	-1.296269
0.524800	-1.297567
0.524900	-1.310550
0.525000	-1.356966
0.525100	-1.489395
0.525200	-1.605271
0.525300	-1.639028
0.525400	-1.556259
0.525500	-1.494264
0.525600	-1.515686
0.525700	-1.653309
0.525800	-1.803591
0.525900	-1.872727
0.526000	-1.857147
0.526100	-1.803916
0.526200	-1.793529
0.526300	-1.837997
0.526400	-1.927257
0.526500	-1.985682
0.526600	-2.004833
0.526700	-1.992174
0.526800	-1.968804
0.526900	-1.958417
0.527000	-1.966207
0.527100	-1.962961
0.527200	-1.950303
0.527300	-1.945434
0.527400	-1.930178
0.527500	-1.930503
0.527600	-1.937319
0.527700	-1.931477
0.527800	-1.923038
0.527900	-1.933424
0.528000	-1.953873
0.528100	-1.970427
0.528200	-1.922713
0.528300	-1.844813
0.528400	-1.833128
0.528500	-1.917844
0.528600	-2.023658
0.528700	-2.082408
0.528800	-2.038589
0.528900	-1.948030
0.529000	-1.905186
0.529100	-1.950627
0.529200	-2.063907
0.529300	-2.136938
0.529400	-2.140508
0.529500	-2.097339
0.529600	-2.056766
0.529700	-2.050599
0.529800	-2.069425
0.529900	-2.065205
0.530000	-2.047028
0.530100	-2.025930
0.530200	-1.992823
0.530300	-1.962961
0.530400	-1.915248
0.530500	-1.832154
0.530600	-1.750684
0.530700	-1.677978
0.530800	-1.631238
0.530900	-1.582226
0.531000	-1.504975
0.531100	-1.396889
0.531200	-1.279715
0.531300	-1.164488
0.531400	-1.081395
0.531500	-1.008040
0.531600	-0.935982
0.531700	-0.855811
0.531800	-0.778885
0.531900	-0.692546
0.532000	-0.636069
0.532100	-0.593224
0.532200	-0.570828
0.532300	-0.561415
0.532400	-0.566608
0.532500	-0.579267
0.532600	-0.586083
0.532700	-0.600040
0.532800	-0.607181
0.532900	-0.632498
0.533000	-0.655219
0.533100	-0.709749
0.533200	-0.727925
0.533300	-0.752918
0.533400	-0.657167
0.533500	-0.568880
0.533600	-0.523763
0.533700	-0.643859
0.533800	-0.783753
0.533900	-0.818808
0.534000	-0.771744
0.534100	-0.676966
0.534200	-0.658789
0.534300	-0.697415
0.534400	-0.796088
0.534500	-0.852889
0.534600	-0.848994
0.534700	-0.813940
0.534800	-0.786026
0.534900	-0.795438
0.535000	-0.812641
0.535100	-0.836985
0.535200	-0.859056
0.535300	-0.877233
0.535400	-0.887295
0.535500	-0.905147
0.535600	-0.922999
0.535700	-0.931114
0.535800	-0.959028
0.535900	-0.978827
0.536000	-1.021023
0.536100	-1.050884
0.536200	-1.080746
0.536300	-1.058025
0.536400	-1.028488
0.536500	-1.012908
0.536600	-1.090159
0.536700	-1.148908
0.536800	-1.116775
0.536900	-1.016154
0.537000	-0.931114
0.537100	-0.913586
0.537200	-0.991486
0.537300	-1.068412
0.537400	-1.066140
0.537500	-0.986942
0.537600	-0.916508
0.537700	-0.911314
0.537800	-0.973634
0.537900	-1.032059
0.538000	-1.039524
0.538100	-1.035954
0.538200	-1.025567
0.538300	-1.056078
0.538400	-1.106388
0.538500	-1.144364
0.538600	-1.151830
0.538700	-1.143715
0.538800	-1.157023
0.538900	-1.174226
0.539000	-1.173252
0.539100	-1.149233
0.539200	-1.121319
0.539300	-1.104765
0.539400	-1.145662
0.539500	-1.172603
0.539600	-1.173577
0.539700	-1.157347
0.539800	-1.114178
0.539900	-1.104116
0.540000	-1.097624
0.540100	-1.081720
0.540200	-1.067114
0.540300	-1.057052
0.540400	-1.047639
0.540500	-1.042445
0.540600	-1.038226
0.540700	-1.036927
0.540800	-1.041147
0.540900	-1.054779
0.541000	-1.058999
0.541100	-1.075228
0.541200	-1.089510
0.541300	-1.108660
0.541400	-1.132355
0.541500	-1.173901
0.541600	-1.221939
0.541700	-1.327429
0.541800	-1.495238
0.541900	-1.615658
0.542000	-1.622149
0.542100	-1.563400
0.542200	-1.523476
0.542300	-1.613061
0.542400	-1.773730
0.542500	-1.925634
0.542600	-1.976269
0.542700	-1.959391
0.542800	-1.933424
0.542900	-1.973997
0.543000	-2.073644
0.543100	-2.178484
0.543200	-2.241454
0.543300	-2.270991
0.543400	-2.279430
0.543500	-2.307019
0.543600	-2.344346
0.543700	-2.387516
0.543800	-2.431010
0.543900	-2.448538
0.544000	-2.467364
0.544100	-2.492032
0.544200	-2.527736
0.544300	-2.555326
0.544400	-2.566686
0.544500	-2.569932
0.544600	-2.590056
0.544700	-2.610505
0.544800	-2.622190
0.544900	-2.563440
0.545000	-2.499497
0.545100	-2.512156
0.545200	-2.600767
0.545300	-2.683861
0.545400	-2.706257
0.545500	-2.626410
0.545600	-2.518648
0.545700	-2.472232
0.545800	-2.526762
0.545900	-2.613426
0.546000	-2.650429
0.546100	-2.601741
0.546200	-2.521569
0.546300	-2.479049
0.546400	-2.467688
0.546500	-2.466390
0.546600	-2.434905
0.546700	-2.390762
0.546800	-2.344346
0.546900	-2.301826
0.547000	-2.257034
0.547100	-2.189520
0.547200	-2.094742
0.547300	-1.992498
0.547400	-1.912651
0.547500	-1.842216
0.547600	-1.766913
0.547700	-1.643247
0.547800	-1.501405
0.547900	-1.343333
0.548000	-1.205710
0.548100	-1.098923
0.548200	-0.994407
0.548300	-0.880479
0.548400	-0.763305
0.548500	-0.635095
0.548600	-0.505911
0.548700	-0.397826
0.548800	-0.310838
0.548900	-0.245272
0.549000	-0.172241
0.549100	-0.121607
0.549200	-0.061559
0.549300	-0.016442
0.549400	0.046202
0.549500	0.090021
0.549600	0.132865
0.549700	0.158183
0.549800	0.164025
0.549900	0.205572
0.550000	0.258803
0.550100	0.407786
0.550200	0.534697
0.550300	0.575919
0.550400	0.462640
0.550500	0.364617
0.550600	0.390583
0.550700	0.473027
0.550800	0.596693
0.550900	0.622010
0.551000	0.569103
0.551100	0.476922
0.551200	0.444464
0.551300	0.476273
0.551400	0.536320
0.551500	0.576893
0.551600	0.564884
0.551700	0.550927
0.551800	0.512950
0.551900	0.483738
0.552000	0.474325
0.552100	0.452903
0.552200	0.416550
0.552300	0.375652
0.552400	0.324693
0.552500	0.230565
0.552600	0.152016
0.552700	0.052369
0.552800	-0.039163
0.552900	-0.135239
0.553000	-0.192690
0.553100	-0.268967
0.553200	-0.369262
0.553300	-0.558818
0.553400	-0.694493
0.553500	-0.760059
0.553600	-0.759410
0.553700	-0.803553
0.553800	-0.896059
0.553900	-1.086264
0.554000	-1.226808
0.554100	-1.282636
0.554200	-1.246932
0.554300	-1.243037
0.554400	-1.306980
0.554500	-1.421882
0.554600	-1.509195
0.554700	-1.553338
0.554800	-1.580278
0.554900	-1.606245
0.555000	-1.664670
0.555100	-1.721472
0.555200	-1.758799
0.555300	-1.772431
0.555400	-1.780546
0.555500	-1.800994
0.555600	-1.826961
0.555700	-1.830532
0.555800	-1.811381
0.555900	-1.791906
0.556000	-1.797424
0.556100	-1.858770
0.556200	-1.895123
0.556300	-1.897720
0.556400	-1.876947
0.556500	-1.854875
0.556600	-1.857472
0.556700	-1.846111
0.556800	-1.842866
0.556900	-1.835076
0.557000	-1.826637
0.557100	-1.813004
0.557200	-1.791906
0.557300	-1.776651
0.557400	-1.759123
0.557500	-1.745491
0.557600	-1.730885
0.557700	-1.719849
0.557800	-1.706541
0.557900	-1.685118
0.558000	-1.675706
0.558100	-1.671161
0.558200	-1.681223
0.558300	-1.702646
0.558400	-1.796450
0.558500	-1.936995
0.558600	-2.000938
0.558700	-1.955496
0.558800	-1.854551
0.558900	-1.824689
0.559000	-1.907782
0.559100	-2.076890
0.559200	-2.190169
0.559300	-2.208995
0.559400	-2.156737
0.559500	-2.131744
0.559600	-2.180107
0.559700	-2.281377
0.559800	-2.373559
0.559900	-2.413483
0.560000	-2.411535
0.560100	-2.404719
0.560200	-2.405368
0.560300	-2.427764
0.560400	-2.448538
0.560500	-2.460872
0.560600	-2.472881
0.560700	-2.480672
0.560800	-2.494629
0.560900	-2.516376
0.561000	-2.537798
0.561100	-2.543641
0.561200	-2.557922
0.561300	-2.579345
0.561400	-2.601741
0.561500	-2.577397
0.561600	-2.493006
0.561700	-2.441072
0.561800	-2.468986
0.561900	-2.563116
0.562000	-2.632252
0.562100	-2.611803
0.562200	-2.498848
0.562300	-2.396929
0.562400	-2.380700
0.562500	-2.462495
0.562600	-2.545264
0.562700	-2.554352
0.562800	-2.496576
0.562900	-2.440099
0.563000	-2.412184
0.563100	-2.415755
0.563200	-2.419650
0.563300	-2.401798
0.563400	-2.381024
0.563500	-2.376480
0.563600	-2.359926
0.563700	-2.344346
0.563800	-2.296308
0.563900	-2.221654
0.564000	-2.168422
0.564100	-2.143105
0.564200	-2.129797
0.564300	-2.101234
0.564400	-2.028527
0.564500	-1.956794
0.564600	-1.853901
0.564700	-1.781195
0.564800	-1.728288
0.564900	-1.686417
0.565000	-1.630589
0.565100	-1.559180
0.565200	-1.489720
0.565300	-1.416040
0.565400	-1.359238
0.565500	-1.322884
0.565600	-1.294970
0.565700	-1.282312
0.565800	-1.266083
0.565900	-1.254722
0.566000	-1.238168
0.566100	-1.218369
0.566200	-1.204087
0.566300	-1.179744
0.566400	-1.179094
0.566500	-1.162541
0.566600	-1.140794
0.566700	-1.058025
0.566800	-0.880803
0.566900	-0.770770
0.567000	-0.757787
0.567100	-0.877558
0.567200	-0.915858
0.567300	-0.871391
0.567400	-0.714942
0.567500	-0.611725
0.567600	-0.576995
0.567700	-0.635420
0.567800	-0.701310
0.567900	-0.691897
0.568000	-0.631200
0.568100	-0.543887
0.568200	-0.505587
0.568300	-0.503964
0.568400	-0.513052
0.568500	-0.521816
0.568600	-0.529281
0.568700	-0.524088
0.568800	-0.520193
0.568900	-0.525062
0.569000	-0.529930
0.569100	-0.547133
0.569200	-0.575047
0.569300	-0.609453
0.569400	-0.646131
0.569500	-0.694818
0.569600	-0.711047
0.569700	-0.705854
0.569800	-0.706178
0.569900	-0.772393
0.570000	-0.883400
0.570100	-0.929815
0.570200	-0.896059
0.570300	-0.824975
0.570400	-0.798035
0.570500	-0.858732
0.570600	-0.979476
0.570700	-1.036927
0.570800	-0.999601
0.570900	-0.901901
0.571000	-0.853863
0.571100	-0.886321
0.571200	-0.949939
0.571300	-0.973959
0.571400	-0.963896
0.571500	-0.947343
0.571600	-0.955782
0.571700	-0.985643
0.571800	-1.028164
0.571900	-1.050560
0.572000	-1.051534
0.572100	-1.058350
0.572200	-1.072307
0.572300	-1.079448
0.572400	-1.071333
0.572500	-1.048612
0.572600	-1.033682
0.572700	-1.060622
0.572800	-1.115801
0.572900	-1.147285
0.573000	-1.158646
0.573100	-1.137548
0.573200	-1.138846
0.573300	-1.152479
0.573400	-1.156698
0.573500	-1.158321
0.573600	-1.151505
0.573700	-1.143066
0.573800	-1.130732
0.573900	-1.113853
0.574000	-1.108336
0.574100	-1.092756
0.574200	-1.083667
0.574300	-1.080097
0.574400	-1.078149
0.574500	-1.069386
0.574600	-1.064842
0.574700	-1.068737
0.574800	-1.077176
0.574900	-1.087562
0.575000	-1.124240
0.575100	-1.242388
0.575200	-1.376765
0.575300	-1.402407
0.575400	-1.340087
0.575500	-1.246932
0.575600	-1.241090
0.575700	-1.361185
0.575800	-1.511467
0.575900	-1.595858
0.576000	-1.566321
0.576100	-1.499457
0.576200	-1.461806
0.576300	-1.510818
0.576400	-1.590665
0.576500	-1.671486
0.576600	-1.694207
0.576700	-1.693882
0.576800	-1.690636
0.576900	-1.700374
0.577000	-1.725367
0.577100	-1.755553
0.577200	-1.776651
0.577300	-1.795477
0.577400	-1.807486
0.577500	-1.831505
0.577600	-1.852928
0.577700	-1.872403
0.577800	-1.865262
0.577900	-1.877271
0.578000	-1.891228
0.578100	-1.912002
0.578200	-1.875649
0.578300	-1.808135
0.578400	-1.790608
0.578500	-1.863964
0.578600	-1.987954
0.578700	-2.082408
0.578800	-2.075267
0.578900	-1.998665
0.579000	-1.958742
0.579100	-2.011324
0.579200	-2.139210
0.579300	-2.258981
0.579400	-2.307669
0.579500	-2.283649
0.579600	-2.260929
0.579700	-2.271640
0.579800	-2.299879
0.579900	-2.317731
0.580000	-2.323573
0.580100	-2.325521
0.580200	-2.313186
0.580300	-2.286246
0.580400	-2.226847
0.580500	-2.151869
0.580600	-2.078188
0.580700	-2.027553
0.580800	-2.002560
0.580900	-1.984384
0.581000	-1.946083
0.581100	-1.874350
0.581200	-1.812030
0.581300	-1.737376
0.581400	-1.663047
0.581500	-1.612087
0.581600	-1.558531
0.581700	-1.489071
0.581800	-1.412145
0.581900	-1.315094
0.582000	-1.224536
0.582100	-1.158321
0.582200	-1.100546
0.582300	-1.062894
0.582400	-1.020049
0.582500	-1.001548
0.582600	-0.944422
0.582700	-0.906445
0.582800	-0.835362
0.582900	-0.785701
0.583000	-0.737663
0.583100	-0.691572
0.583200	-0.664956
0.583300	-0.587057
0.583400	-0.469558
0.583500	-0.282599
0.583600	-0.164451
0.583700	-0.207296
0.583800	-0.296232
0.583900	-0.320251
0.584000	-0.222551
0.584100	-0.097588
0.584200	0.012770
0.584300	0.015042
0.584400	-0.036242
0.584500	-0.082008
0.584600	-0.066752
0.584700	0.001734
0.584800	0.068598
0.584900	0.107223
0.585000	0.113391
0.585100	0.078660
0.585200	0.048799
0.585300	0.023806
0.585400	0.012121
0.585500	-0.010600
0.585600	-0.031373
0.585700	-0.073244
0.585800	-0.126800
0.585900	-0.215735
0.586000	-0.277406
0.586100	-0.356928
0.586200	-0.432231
0.586300	-0.483191
0.586400	-0.534150
0.586500	-0.588031
0.586600	-0.715267
0.586700	-0.856135
0.586800	-0.922675
0.586900	-0.914885
0.587000	-0.896059
0.587100	-0.933710
0.587200	-1.059973
0.587300	-1.206684
0.587400	-1.293347
0.587500	-1.289777
0.587600	-1.263810
0.587700	-1.293997
0.587800	-1.379686
0.587900	-1.459858
0.588000	-1.511142
0.588100	-1.561128
0.588200	-1.605271
0.588300	-1.667916
0.588400	-1.727963
0.588500	-1.790608
0.588600	-1.843190
0.588700	-1.892202
0.588800	-1.950303
0.588900	-2.006780
0.589000	-2.043133
0.589100	-2.055467
0.589200	-2.058713
0.589300	-2.072670
0.589400	-2.138561
0.589500	-2.214189
0.589600	-2.240804
0.589700	-2.257358
0.589800	-2.235286
0.589900	-2.243726
0.590000	-2.248594
0.590100	-2.242752
0.590200	-2.228470
0.590300	-2.217434
0.590400	-2.196337
0.590500	-2.179134
0.590600	-2.169396
0.590700	-2.147324
0.590800	-2.132394
0.590900	-2.124928
0.591000	-2.107076
0.591100	-2.101883
0.591200	-2.083382
0.591300	-2.071697
0.591400	-2.056766
0.591500	-2.064880
0.591600	-2.063582
0.591700	-2.101558
0.591800	-2.227172
0.591900	-2.319354
0.592000	-2.319029
0.592100	-2.205749
0.592200	-2.120709
0.592300	-2.140184
0.592400	-2.254437
0.592500	-2.379077
0.592600	-2.412184
0.592700	-2.369015
0.592800	-2.300203
0.592900	-2.300852
0.593000	-2.359926
0.593100	-2.433931
0.593200	-2.473531
0.593300	-2.482619
0.593400	-2.478075
0.593500	-2.480672
0.593600	-2.493655
0.593700	-2.517349
0.593800	-2.529034
0.593900	-2.534228
0.594000	-2.554677
0.594100	-2.574801
0.594200	-2.586810
0.594300	-2.609207
0.594400	-2.604987
0.594500	-2.602715
0.594600	-2.613102
0.594700	-2.632577
0.594800	-2.627383
0.594900	-2.572853
0.595000	-2.489111
0.595100	-2.468662
0.595200	-2.534228
0.595300	-2.616023
0.595400	-2.648481
0.595500	-2.585187
0.595600	-2.476776
0.595700	-2.426141
0.595800	-2.468337
0.595900	-2.558896
0.596000	-2.607908
0.596100	-2.585512
0.596200	-2.531307
0.596300	-2.495278
0.596400	-2.492032
0.596500	-2.486514
0.596600	-2.472881
0.596700	-2.440423
0.596800	-2.416079
0.596900	-2.390113
0.597000	-2.357330
0.597100	-2.306370
0.597200	-2.224575
0.597300	-2.141482
0.597400	-2.076241
0.597500	-2.032747
0.597600	-1.993148
0.597700	-1.926608
0.597800	-1.826961
0.597900	-1.726016
0.598000	-1.631238
0.598100	-1.561128
0.598200	-1.506923
0.598300	-1.459534
0.598400	-1.396565
0.598500	-1.332297
0.598600	-1.258293
0.598700	-1.191753
0.598800	-1.140145
0.598900	-1.097300
0.599000	-1.067438
