LabVIEW Measurement	
Writer_Version	2
Reader_Version	2
Separator	Tab
Decimal_Separator	.
Multi_Headings	Yes
X_Columns	One
Time_Pref	Relative
Operator	as989
Description	Time Domain Data
Date	1903/12/31
Time	19:00:00
***End_of_Header***	
	
Channels	1	
Samples	15000	
Date	1903/12/31	
Time	19:00:00	
X_Dimension	Time	
X0	0.0000000000000000E+0	
Delta_X	0.000100	
***End_of_Header***		
X_Value	Untitled	Comment
0.000000	-1.307304	Tare Values:0.000000, 0.000000, 0.000000, 0.000000\0D\0A
0.000100	-1.273548
0.000200	-1.236870
0.000300	-1.213176
0.000400	-1.197271
0.000500	-1.201491
0.000600	-1.192727
0.000700	-1.190130
0.000800	-1.121643
0.000900	-0.992460
0.001000	-0.845424
0.001100	-0.830818
0.001200	-0.925596
0.001300	-1.039200
0.001400	-1.013558
0.001500	-0.903200
0.001600	-0.785701
0.001700	-0.748699
0.001800	-0.800956
0.001900	-0.863601
0.002000	-0.881128
0.002100	-0.825300
0.002200	-0.752269
0.002300	-0.694493
0.002400	-0.668851
0.002500	-0.670799
0.002600	-0.685730
0.002700	-0.688976
0.002800	-0.662360
0.002900	-0.645157
0.003000	-0.635095
0.003100	-0.640937
0.003200	-0.660412
0.003300	-0.684756
0.003400	-0.711696
0.003500	-0.750322
0.003600	-0.792517
0.003700	-0.823028
0.003800	-0.826274
0.003900	-0.826923
0.004000	-0.859056
0.004100	-0.994732
0.004200	-1.073930
0.004300	-1.062894
0.004400	-0.991811
0.004500	-0.958054
0.004600	-1.005768
0.004700	-1.131381
0.004800	-1.223238
0.004900	-1.238168
0.005000	-1.166111
0.005100	-1.104765
0.005200	-1.139495
0.005300	-1.213176
0.005400	-1.274522
0.005500	-1.289777
0.005600	-1.293023
0.005700	-1.287505
0.005800	-1.329376
0.005900	-1.386503
0.006000	-1.432918
0.006100	-1.447199
0.006200	-1.460832
0.006300	-1.489395
0.006400	-1.519257
0.006500	-1.531591
0.006600	-1.521529
0.006700	-1.505624
0.006800	-1.516660
0.006900	-1.582550
0.007000	-1.626044
0.007100	-1.640326
0.007200	-1.612737
0.007300	-1.598130
0.007400	-1.609815
0.007500	-1.616956
0.007600	-1.626044
0.007700	-1.623448
0.007800	-1.627343
0.007900	-1.628641
0.008000	-1.636106
0.008100	-1.638054
0.008200	-1.633185
0.008300	-1.636431
0.008400	-1.648765
0.008500	-1.655906
0.008600	-1.667591
0.008700	-1.677978
0.008800	-1.686741
0.008900	-1.696803
0.009000	-1.720173
0.009100	-1.751333
0.009200	-1.873052
0.009300	-2.018790
0.009400	-2.094093
0.009500	-2.038589
0.009600	-1.950303
0.009700	-1.923362
0.009800	-2.028527
0.009900	-2.166150
0.010000	-2.267745
0.010100	-2.277482
0.010200	-2.219382
0.010300	-2.196337
0.010400	-2.230742
0.010500	-2.323898
0.010600	-2.404070
0.010700	-2.450810
0.010800	-2.458600
0.010900	-2.447889
0.011000	-2.448538
0.011100	-2.477750
0.011200	-2.498524
0.011300	-2.516376
0.011400	-2.523841
0.011500	-2.526113
0.011600	-2.539746
0.011700	-2.565388
0.011800	-2.571230
0.011900	-2.570581
0.012000	-2.564414
0.012100	-2.582591
0.012200	-2.600767
0.012300	-2.585837
0.012400	-2.493655
0.012500	-2.441072
0.012600	-2.475803
0.012700	-2.577397
0.012800	-2.650753
0.012900	-2.648481
0.013000	-2.553378
0.013100	-2.469636
0.013200	-2.467039
0.013300	-2.546887
0.013400	-2.645885
0.013500	-2.685484
0.013600	-2.651078
0.013700	-2.593302
0.013800	-2.568309
0.013900	-2.581292
0.014000	-2.602066
0.014100	-2.602715
0.014200	-2.591679
0.014300	-2.565063
0.014400	-2.552729
0.014500	-2.526113
0.014600	-2.473855
0.014700	-2.394332
0.014800	-2.330065
0.014900	-2.297282
0.015000	-2.265473
0.015100	-2.231067
0.015200	-2.144079
0.015300	-2.058713
0.015400	-1.952575
0.015500	-1.861367
0.015600	-1.791582
0.015700	-1.733806
0.015800	-1.663696
0.015900	-1.584498
0.016000	-1.499457
0.016100	-1.410522
0.016200	-1.334569
0.016300	-1.293997
0.016400	-1.261538
0.016500	-1.232326
0.016600	-1.211877
0.016700	-1.183963
0.016800	-1.164164
0.016900	-1.143715
0.017000	-1.132679
0.017100	-1.127486
0.017200	-1.137223
0.017300	-1.147285
0.017400	-1.133328
0.017500	-1.069386
0.017600	-0.921376
0.017700	-0.833090
0.017800	-0.868794
0.017900	-1.007066
0.018000	-1.093405
0.018100	-1.049911
0.018200	-0.932087
0.018300	-0.833415
0.018400	-0.826923
0.018500	-0.875286
0.018600	-0.935333
0.018700	-0.936956
0.018800	-0.868794
0.018900	-0.792193
0.019000	-0.732794
0.019100	-0.712670
0.019200	-0.719162
0.019300	-0.722407
0.019400	-0.718837
0.019500	-0.695467
0.019600	-0.676317
0.019700	-0.660088
0.019800	-0.654245
0.019900	-0.653272
0.020000	-0.671448
0.020100	-0.686379
0.020200	-0.715916
0.020300	-0.749672
0.020400	-0.772069
0.020500	-0.762656
0.020600	-0.766551
0.020700	-0.815887
0.020800	-0.939228
0.020900	-0.986617
0.021000	-0.951887
0.021100	-0.883725
0.021200	-0.674369
0.021300	-0.954808
0.021400	-1.077176
0.021500	-1.160269
0.021600	-1.154426
0.021700	-1.094379
0.021800	-0.941500
0.021900	-1.178121
0.022000	-1.212851
0.022100	-1.270302
0.022200	-1.289777
0.022300	-1.295295
0.022400	-1.320288
0.022500	-1.369624
0.022600	-1.419610
0.022700	-1.443954
0.022800	-1.455963
0.022900	-1.477710
0.023000	-1.511142
0.023100	-1.534188
0.023200	-1.531591
0.023300	-1.525099
0.023400	-1.516985
0.023500	-1.553338
0.023600	-1.630589
0.023700	-1.679925
0.023800	-1.696803
0.023900	-1.710760
0.024000	-1.702321
0.024100	-1.718226
0.024200	-1.723095
0.024300	-1.722445
0.024400	-1.721147
0.024500	-1.717901
0.024600	-1.712708
0.024700	-1.700698
0.024800	-1.699400
0.024900	-1.692259
0.025000	-1.682522
0.025100	-1.683496
0.025200	-1.675056
0.025300	-1.679601
0.025400	-1.677978
0.025500	-1.689663
0.025600	-1.702321
0.025700	-1.726665
0.025800	-1.777625
0.025900	-1.903238
0.026000	-2.046379
0.026100	-2.075267
0.026200	-2.004183
0.026300	-1.919467
0.026400	-1.920441
0.026500	-2.040212
0.026600	-2.180757
0.026700	-2.264824
0.026800	-2.239506
0.026900	-2.177835
0.027000	-2.145702
0.027100	-2.196337
0.027200	-2.288843
0.027300	-2.365444
0.027400	-2.394332
0.027500	-2.405044
0.027600	-2.403421
0.027700	-2.416079
0.027800	-2.450810
0.027900	-2.484242
0.028000	-2.517349
0.028100	-2.546887
0.028200	-2.564089
0.028300	-2.596872
0.028400	-2.641665
0.028500	-2.670228
0.028600	-2.691975
0.028700	-2.715995
0.028800	-2.747479
0.028900	-2.778315
0.029000	-2.757541
0.029100	-2.688405
0.029200	-2.661789
0.029300	-2.725083
0.029400	-2.831222
0.029500	-2.901981
0.029600	-2.884778
0.029700	-2.787403
0.029800	-2.716319
0.029900	-2.728653
0.030000	-2.829274
0.030100	-2.909771
0.030200	-2.924053
0.030300	-2.867900
0.030400	-2.809475
0.030500	-2.785780
0.030600	-2.790324
0.030700	-2.787728
0.030800	-2.772472
0.030900	-2.741312
0.031000	-2.709828
0.031100	-2.676071
0.031200	-2.626734
0.031300	-2.535202
0.031400	-2.445292
0.031500	-2.376156
0.031600	-2.320976
0.031700	-2.277158
0.031800	-2.214838
0.031900	-2.108050
0.032000	-2.020737
0.032100	-1.890904
0.032200	-1.802293
0.032300	-1.725367
0.032400	-1.651037
0.032500	-1.574436
0.032600	-1.503352
0.032700	-1.420584
0.032800	-1.337815
0.032900	-1.285557
0.033000	-1.246283
0.033100	-1.214149
0.033200	-1.180717
0.033300	-1.174875
0.033400	-1.146312
0.033500	-1.120994
0.033600	-1.099572
0.033700	-1.071982
0.033800	-1.070035
0.033900	-1.048612
0.034000	-1.057052
0.034100	-1.017128
0.034200	-0.931763
0.034300	-0.761357
0.034400	-0.689300
0.034500	-0.742207
0.034600	-0.855811
0.034700	-0.894111
0.034800	-0.808422
0.034900	-0.683133
0.035000	-0.606207
0.035100	-0.605558
0.035200	-0.684756
0.035300	-0.725653
0.035400	-0.712670
0.035500	-0.650026
0.035600	-0.590303
0.035700	-0.564661
0.035800	-0.567582
0.035900	-0.585109
0.036000	-0.598093
0.036100	-0.618217
0.036200	-0.616594
0.036300	-0.623410
0.036400	-0.627305
0.036500	-0.630551
0.036600	-0.671448
0.036700	-0.711372
0.036800	-0.759410
0.036900	-0.801930
0.037000	-0.834713
0.037100	-0.846722
0.037200	-0.846073
0.037300	-0.858083
0.037400	-0.946044
0.037500	-1.044717
0.037600	-1.065815
0.037700	-1.011285
0.037800	-0.944746
0.037900	-0.950589
0.038000	-1.037252
0.038100	-1.149557
0.038200	-1.188507
0.038300	-1.150531
0.038400	-1.083992
0.038500	-0.996355
0.038600	-1.153777
0.038700	-1.205386
0.038800	-1.213825
0.038900	-1.181367
0.039000	-1.038550
0.039100	-1.090484
0.039200	-1.169357
0.039300	-1.210579
0.039400	-1.162541
0.039500	-1.085290
0.039600	-1.140145
0.039700	-1.221939
0.039800	-1.180717
0.039900	-0.953510
0.040000	-0.663334
0.040100	-0.486436
0.040200	-0.685730
0.040300	-0.958703
0.040400	-0.982398
0.040500	-0.678914
0.040600	-0.393606
0.040700	-0.335506
0.040800	-0.308241
0.040900	-0.301425
0.041000	-0.241377
0.041100	-0.183926
0.041200	-0.146275
0.041300	-0.120308
0.041400	-0.059936
0.041500	-0.006705
0.041600	-0.016442
0.041700	0.006279
0.041800	-0.019363
0.041900	-0.029425
0.042000	-0.087525
0.042100	-0.118361
0.042200	-0.249167
0.042300	-0.367964
0.042400	-0.560766
0.042500	-1.196622
0.042600	-1.561452
0.042700	-1.689013
0.042800	-1.705243
0.042900	-1.619877
0.043000	-1.563400
0.043100	-1.593911
0.043200	-1.743219
0.043300	-1.879868
0.043400	-1.940241
0.043500	-1.908431
0.043600	-1.861691
0.043700	-1.866885
0.043800	-1.945109
0.043900	-2.044432
0.044000	-2.106102
0.044100	-2.130771
0.044200	-2.139859
0.044300	-2.159009
0.044400	-2.174914
0.044500	-2.210294
0.044600	-2.227821
0.044700	-2.239506
0.044800	-2.257683
0.044900	-2.270991
0.045000	-2.308642
0.045100	-2.338829
0.045200	-2.343048
0.045300	-2.344671
0.045400	-2.367392
0.045500	-2.403096
0.045600	-2.412834
0.045700	-2.358628
0.045800	-2.283649
0.045900	-2.282026
0.046000	-2.371287
0.046100	-2.473531
0.046200	-2.527412
0.046300	-2.473531
0.046400	-2.389464
0.046500	-2.363497
0.046600	-2.430036
0.046700	-2.534552
0.046800	-2.601092
0.046900	-2.593302
0.047000	-2.549808
0.047100	-2.528385
0.047200	-2.538447
0.047300	-2.551755
0.047400	-2.541369
0.047500	-2.520271
0.047600	-2.503068
0.047700	-2.485216
0.047800	-2.463144
0.047900	-2.419650
0.048000	-2.343048
0.048100	-2.278456
0.048200	-2.230418
0.048300	-2.200556
0.048400	-2.178809
0.048500	-2.126551
0.048600	-2.038589
0.048700	-1.963610
0.048800	-1.854226
0.048900	-1.778598
0.049000	-1.709138
0.049100	-1.642598
0.049200	-1.572813
0.049300	-1.495238
0.049400	-1.411820
0.049500	-1.341710
0.049600	-1.297892
0.049700	-1.266083
0.049800	-1.235572
0.049900	-1.220966
0.050000	-1.204412
0.050100	-1.193701
0.050200	-1.183639
0.050300	-1.177472
0.050400	-1.169682
0.050500	-1.183639
0.050600	-1.182989
0.050700	-1.203114
0.050800	-1.148584
0.050900	-1.052507
0.051000	-0.913262
0.051100	-0.879830
0.051200	-0.983047
0.051300	-1.100546
0.051400	-1.128135
0.051500	-1.016803
0.051600	-0.905472
0.051700	-0.850942
0.051800	-0.879830
0.051900	-0.965519
0.052000	-0.992460
0.052100	-0.962274
0.052200	-0.876259
0.052300	-0.819782
0.052400	-0.782131
0.052500	-0.782455
0.052600	-0.773691
0.052700	-0.770446
0.052800	-0.736365
0.052900	-0.706828
0.053000	-0.691248
0.053100	-0.672097
0.053200	-0.668851
0.053300	-0.670799
0.053400	-0.690274
0.053500	-0.704880
0.053600	-0.733768
0.053700	-0.756164
0.053800	-0.755515
0.053900	-0.731820
0.054000	-0.751295
0.054100	-0.842827
0.054200	-0.923648
0.054300	-0.908718
0.054400	-0.726627
0.054500	-0.158609
0.054600	-0.174513
0.054700	-0.847372
0.054800	-0.997004
0.054900	-1.000899
0.055000	-0.443267
0.055100	0.162727
0.055200	0.205896
0.055300	-0.110571
0.055400	-0.329988
0.055500	-0.213463
0.055600	-0.073893
0.055700	0.055290
0.055800	-0.069349
0.055900	-0.193339
0.056000	-0.336155
0.056100	-0.352384
0.056200	-0.338752
0.056300	-0.317005
0.056400	-0.217034
0.056500	-0.016442
0.056600	0.214985
0.056700	0.453877
0.056800	0.505485
0.056900	0.250039
0.057000	0.106250
0.057100	0.127997
0.057200	0.178307
0.057300	0.301648
0.057400	0.361046
0.057500	0.401294
0.057600	0.486010
0.057700	0.602535
0.057800	0.757360
0.057900	0.863823
0.058000	0.951785
0.058100	1.055326
0.058200	1.159842
0.058300	1.232223
0.058400	1.266954
0.058500	1.296490
0.058600	1.321483
0.058700	1.361731
0.058800	1.389645
0.058900	1.356538
0.059000	1.307526
0.059100	1.144911
0.059200	0.493800
0.059300	-0.582837
0.059400	-1.146312
0.059500	-0.875610
0.059600	-0.220279
0.059700	0.021534
0.059800	-0.656517
0.059900	-1.358588
0.060000	-1.496536
0.060100	-1.522178
0.060200	-1.486149
0.060300	-1.459534
0.060400	-1.494913
0.060500	-1.594560
0.060600	-1.686092
0.060700	-1.741920
0.060800	-1.751333
0.060900	-1.759772
0.061000	-1.762694
0.061100	-1.781520
0.061200	-1.815276
0.061300	-1.835725
0.061400	-1.854875
0.061500	-1.860718
0.061600	-1.876622
0.061700	-1.902913
0.061800	-1.933100
0.061900	-1.941214
0.062000	-1.960365
0.062100	-1.988279
0.062200	-2.022360
0.062300	-2.023334
0.062400	-1.974971
0.062500	-1.945109
0.062600	-2.006131
0.062700	-2.133692
0.062800	-2.253788
0.062900	-2.304098
0.063000	-2.254437
0.063100	-2.192442
0.063200	-2.205100
0.063300	-2.313511
0.063400	-2.432958
0.063500	-2.494304
0.063600	-2.472557
0.063700	-2.422571
0.063800	-2.408939
0.063900	-2.415755
0.064000	-2.426791
0.064100	-2.414456
0.064200	-2.404394
0.064300	-2.382972
0.064400	-2.346294
0.064500	-2.306370
0.064600	-2.250542
0.064700	-2.174589
0.064800	-2.110322
0.064900	-2.060985
0.065000	-2.024957
0.065100	-1.989253
0.065200	-1.913949
0.065300	-1.828259
0.065400	-1.726990
0.065500	-1.641949
0.065600	-1.574436
0.065700	-1.509519
0.065800	-1.436164
0.065900	-1.350474
0.066000	-1.263486
0.066100	-1.167409
0.066200	-1.098923
0.066300	-1.048612
0.066400	-1.008040
0.066500	-0.973634
0.066600	-0.946044
0.066700	-0.910016
0.066800	-0.876909
0.066900	-0.841529
0.067000	-0.812317
0.067100	-0.804851
0.067200	-0.779534
0.067300	-0.787973
0.067400	-0.758436
0.067500	-0.696766
0.067600	-0.562064
0.067700	-0.441644
0.067800	-0.462093
0.067900	-0.579916
0.068000	-0.662035
0.068100	-0.627305
0.068200	-0.524413
0.068300	-0.419897
0.068400	-0.399449
0.068500	-0.458198
0.068600	-0.521491
0.068700	-0.530255
0.068800	-0.486761
0.068900	-0.409186
0.069000	-0.378026
0.069100	-0.372833
0.069200	-0.390036
0.069300	-0.399124
0.069400	-0.421520
0.069500	-0.427687
0.069600	-0.443267
0.069700	-0.460145
0.069800	-0.481568
0.069900	-0.529930
0.070000	-0.588680
0.070100	-0.658140
0.070200	-0.717863
0.070300	-0.794140
0.070400	-0.827247
0.070500	-0.851916
0.070600	-0.871066
0.070700	-0.945071
0.070800	-1.073281
0.070900	-1.142741
0.071000	-1.128784
0.071100	-1.071009
0.071200	-1.056727
0.071300	-1.128784
0.071400	-1.269653
0.071500	-1.346254
0.071600	-1.354693
0.071700	-1.300488
0.071800	-1.287505
0.071900	-1.351448
0.072000	-1.442655
0.072100	-1.487448
0.072200	-1.504001
0.072300	-1.506598
0.072400	-1.536784
0.072500	-1.592612
0.072600	-1.635457
0.072700	-1.662398
0.072800	-1.668240
0.072900	-1.683171
0.073000	-1.709787
0.073100	-1.730235
0.073200	-1.725691
0.073300	-1.713033
0.073400	-1.699076
0.073500	-1.724393
0.073600	-1.774703
0.073700	-1.800021
0.073800	-1.797099
0.073900	-1.764641
0.074000	-1.744192
0.074100	-1.731858
0.074200	-1.722121
0.074300	-1.709462
0.074400	-1.696154
0.074500	-1.675706
0.074600	-1.660450
0.074700	-1.646493
0.074800	-1.633185
0.074900	-1.617281
0.075000	-1.603324
0.075100	-1.591963
0.075200	-1.582226
0.075300	-1.571190
0.075400	-1.573787
0.075500	-1.571515
0.075600	-1.578006
0.075700	-1.588393
0.075800	-1.626694
0.075900	-1.740947
0.076000	-1.862990
0.076100	-1.900641
0.076200	-1.832479
0.076300	-1.729586
0.076400	-1.707515
0.076500	-1.800021
0.076600	-1.937319
0.076700	-1.991849
0.076800	-1.959391
0.076900	-1.876622
0.077000	-1.839944
0.077100	-1.872403
0.077200	-1.945109
0.077300	-2.001911
0.077400	-2.014245
0.077500	-2.000938
0.077600	-1.987305
0.077700	-2.001587
0.077800	-2.019114
0.077900	-2.040861
0.078000	-2.045405
0.078100	-2.047028
0.078200	-2.049300
0.078300	-2.065205
0.078400	-2.100909
0.078500	-2.112594
0.078600	-2.108374
0.078700	-2.109024
0.078800	-2.128499
0.078900	-2.140508
0.079000	-2.105453
0.079100	-2.024957
0.079200	-1.990226
0.079300	-2.044756
0.079400	-2.137912
0.079500	-2.196661
0.079600	-2.160957
0.079700	-2.065530
0.079800	-1.984059
0.079900	-2.006780
0.080000	-2.105129
0.080100	-2.177186
0.080200	-2.185301
0.080300	-2.125253
0.080400	-2.069749
0.080500	-2.045405
0.080600	-2.048002
0.080700	-2.044432
0.080800	-2.023009
0.080900	-1.994121
0.081000	-1.967830
0.081100	-1.939591
0.081200	-1.900317
0.081300	-1.836374
0.081400	-1.756202
0.081500	-1.692584
0.081600	-1.639352
0.081700	-1.603648
0.081800	-1.550741
0.081900	-1.453367
0.082000	-1.348202
0.082100	-1.226159
0.082200	-1.137548
0.082300	-1.061596
0.082400	-0.997653
0.082500	-0.912613
0.082600	-0.830493
0.082700	-0.737987
0.082800	-0.644832
0.082900	-0.573424
0.083000	-0.526360
0.083100	-0.490331
0.083200	-0.454303
0.083300	-0.440995
0.083400	-0.409511
0.083500	-0.388088
0.083600	-0.357253
0.083700	-0.340050
0.083800	-0.328365
0.083900	-0.329988
0.084000	-0.323821
0.084100	-0.303048
0.084200	-0.207621
0.084300	-0.080060
0.084400	0.018288
0.084500	-0.049549
0.084600	-0.175163
0.084700	-0.226771
0.084800	-0.168346
0.084900	-0.057339
0.085000	-0.000538
0.085100	-0.013521
0.085200	-0.101158
0.085300	-0.153740
0.085400	-0.159907
0.085500	-0.100184
0.085600	0.280875
0.085700	0.665828
0.085800	0.777160
0.085900	0.686602
0.086000	0.693742
0.086100	0.800530
0.086200	1.008262
0.086300	1.126085
0.086400	1.217617
0.086500	1.285455
0.086600	1.231899
0.086700	1.251698
0.086800	1.140691
0.086900	0.934907
0.087000	0.720358
0.087100	0.770019
0.087200	0.771967
0.087300	0.743079
0.087400	0.060159
0.087500	-0.543238
0.087600	-0.628928
0.087700	-0.158933
0.087800	0.213037
0.087900	0.272111
0.088000	-0.348814
0.088100	-0.957080
0.088200	-1.014531
0.088300	-0.836660
0.088400	-0.318628
0.088500	-0.121931
0.088600	-0.383219
0.088700	-0.844775
0.088800	-1.017777
0.088900	-1.018426
0.089000	-0.862627
0.089100	-0.855811
0.089200	-1.017453
0.089300	-1.256994
0.089400	-1.333920
0.089500	-1.368001
0.089600	-1.405653
0.089700	-1.451419
0.089800	-1.479009
0.089900	-1.492641
0.090000	-1.492641
0.090100	-1.500106
0.090200	-1.556584
0.090300	-1.619553
0.090400	-1.661749
0.090500	-1.681223
0.090600	-1.664994
0.090700	-1.681548
0.090800	-1.696479
0.090900	-1.710111
0.091000	-1.723095
0.091100	-1.720823
0.091200	-1.716278
0.091300	-1.717252
0.091400	-1.704269
0.091500	-1.695830
0.091600	-1.682846
0.091700	-1.670512
0.091800	-1.670837
0.091900	-1.658827
0.092000	-1.657529
0.092100	-1.658827
0.092200	-1.665643
0.092300	-1.679601
0.092400	-1.686417
0.092500	-1.746465
0.092600	-1.874350
0.092700	-2.000613
0.092800	-2.000288
0.092900	-1.917844
0.093000	-1.836049
0.093100	-1.871104
0.093200	-2.004183
0.093300	-2.143754
0.093400	-2.201530
0.093500	-2.167773
0.093600	-2.116814
0.093700	-2.110971
0.093800	-2.182704
0.093900	-2.279105
0.094000	-2.345969
0.094100	-2.360576
0.094200	-2.344022
0.094300	-2.338829
0.094400	-2.361549
0.094500	-2.373559
0.094600	-2.392385
0.094700	-2.393683
0.094800	-2.382323
0.094900	-2.385244
0.095000	-2.414781
0.095100	-2.415430
0.095200	-2.391736
0.095300	-2.380375
0.095400	-2.387516
0.095500	-2.408614
0.095600	-2.400175
0.095700	-2.324871
0.095800	-2.244699
0.095900	-2.238208
0.096000	-2.321301
0.096100	-2.414456
0.096200	-2.447564
0.096300	-2.398876
0.096400	-2.310914
0.096500	-2.267420
0.096600	-2.309616
0.096700	-2.407965
0.096800	-2.488137
0.096900	-2.484567
0.097000	-2.440748
0.097100	-2.404394
0.097200	-2.385569
0.097300	-2.396604
0.097400	-2.411535
0.097500	-2.411535
0.097600	-2.394008
0.097700	-2.369015
0.097800	-2.332986
0.097900	-2.297931
0.098000	-2.247621
0.098100	-2.179458
0.098200	-2.134990
0.098300	-2.099935
0.098400	-2.064231
0.098500	-2.005806
0.098600	-1.908431
0.098700	-1.800021
0.098800	-1.689338
0.098900	-1.610789
0.099000	-1.547820
0.099100	-1.491018
0.099200	-1.416364
0.099300	-1.348202
0.099400	-1.269328
0.099500	-1.194025
0.099600	-1.149557
0.099700	-1.113529
0.099800	-1.096975
0.099900	-1.075877
0.100000	-1.073605
0.100100	-1.054779
0.100200	-1.040498
0.100300	-1.025567
0.100400	-1.015505
0.100500	-1.026216
0.100600	-1.037252
0.100700	-1.061596
0.100800	-1.043419
0.100900	-0.959028
0.101000	-0.843152
0.101100	-0.805825
0.101200	-0.927868
0.101300	-1.048937
0.101400	-1.087238
0.101500	-1.000899
0.101600	-0.898655
0.101700	-0.839906
0.101800	-0.871391
0.101900	-0.947018
0.102000	-0.976880
0.102100	-0.945395
0.102200	-0.860355
0.102300	-0.801930
0.102400	-0.788947
0.102500	-0.802904
0.102600	-0.809395
0.102700	-0.800956
0.102800	-0.795438
0.102900	-0.785701
0.103000	-0.778236
0.103100	-0.778885
0.103200	-0.792193
0.103300	-0.799009
0.103400	-0.829844
0.103500	-0.891515
0.103600	-0.927219
0.103700	-0.958379
0.103800	-0.940851
0.103900	-0.945071
0.104000	-0.964546
0.104100	-1.073605
0.104200	-1.133978
0.104300	-1.123915
0.104400	-1.034980
0.104500	-1.000899
0.104600	-1.021023
0.104700	-1.117748
0.104800	-1.216421
0.104900	-1.240441
0.105000	-1.193376
0.105100	-1.128135
0.105200	-1.071658
0.105300	-1.169357
0.105400	-1.207658
0.105500	-1.211877
0.105600	-1.146312
0.105700	-0.974932
0.105800	-0.925596
0.105900	-0.919753
0.106000	-0.924297
0.106100	-0.816212
0.106200	-0.717539
0.106300	-0.696116
0.106400	-0.655868
0.106500	-0.524413
0.106600	-0.292661
0.106700	-0.027478
0.106800	0.086126
0.106900	-0.048251
0.107000	-0.155363
0.107100	-0.033320
0.107200	0.183825
0.107300	0.562287
0.107400	0.731718
0.107500	0.922572
0.107600	1.159842
0.107700	1.391593
0.107800	1.622046
0.107900	1.874246
0.108000	2.084900
0.108100	2.253033
0.108200	2.415649
0.108300	2.548727
0.108400	2.701281
0.108500	2.762303
0.108600	2.900575
0.108700	2.997950
0.108800	3.049234
0.108900	3.022293
0.109000	2.877529
0.109100	2.631171
0.109200	1.860938
0.109300	0.759957
0.109400	0.002384
0.109500	0.196159
0.109600	0.765475
0.109700	1.018324
0.109800	0.395452
0.109900	-0.684756
0.110000	-1.281662
0.110100	-1.295944
0.110200	-1.240441
0.110300	-1.179419
0.110400	-1.189157
0.110500	-1.245634
0.110600	-1.320612
0.110700	-1.352421
0.110800	-1.351772
0.110900	-1.332946
0.111000	-1.322235
0.111100	-1.326779
0.111200	-1.341710
0.111300	-1.369949
0.111400	-1.385853
0.111500	-1.391696
0.111600	-1.429023
0.111700	-1.465051
0.111800	-1.485825
0.111900	-1.495562
0.112000	-1.521853
0.112100	-1.565023
0.112200	-1.610464
0.112300	-1.609491
0.112400	-1.558531
0.112500	-1.522827
0.112600	-1.567295
0.112700	-1.693558
0.112800	-1.800345
0.112900	-1.826961
0.113000	-1.809109
0.113100	-1.774054
0.113200	-1.791906
0.113300	-1.888307
0.113400	-2.014570
0.113500	-2.130122
0.113600	-2.164203
0.113700	-2.173291
0.113800	-2.186599
0.113900	-2.233339
0.114000	-2.296957
0.114100	-2.351487
0.114200	-2.392385
0.114300	-2.425817
0.114400	-2.462819
0.114500	-2.472232
0.114600	-2.468662
0.114700	-2.452757
0.114800	-2.421597
0.114900	-2.408614
0.115000	-2.403096
0.115100	-2.382647
0.115200	-2.313511
0.115300	-2.251516
0.115400	-2.217434
0.115500	-2.158036
0.115600	-2.121682
0.115700	-2.090522
0.115800	-2.056441
0.115900	-2.012298
0.116000	-1.953224
0.116100	-1.888632
0.116200	-1.832154
0.116300	-1.800994
0.116400	-1.769185
0.116500	-1.734130
0.116600	-1.705243
0.116700	-1.687391
0.116800	-1.642923
0.116900	-1.622474
0.117000	-1.576059
0.117100	-1.566321
0.117200	-1.534188
0.117300	-1.530942
0.117400	-1.492966
0.117500	-1.420908
0.117600	-1.265433
0.117700	-1.125538
0.117800	-1.109634
0.117900	-1.198569
0.118000	-1.258293
0.118100	-1.228756
0.118200	-1.083343
0.118300	-0.966169
0.118400	-0.902875
0.118500	-0.929491
0.118600	-0.960651
0.118700	-0.956107
0.118800	-0.881777
0.118900	-0.776288
0.119000	-0.688326
0.119100	-0.638341
0.119200	-0.602637
0.119300	-0.564012
0.119400	-0.524088
0.119500	-0.483840
0.119600	-0.425740
0.119700	-0.251439
0.119800	0.115013
0.119900	0.495098
0.120000	0.894658
0.120100	1.050458
0.120200	1.129980
0.120300	1.343230
0.120400	1.643793
0.120500	2.165071
0.120600	2.439668
0.120700	2.321195
0.120800	1.910924
0.120900	1.926828
0.121000	2.512699
0.121100	3.299812
0.121200	3.637378
0.121300	3.692233
0.121400	3.272871
0.121500	3.062217
0.121600	3.339086
0.121700	3.973322
0.121800	4.607884
0.121900	4.761737
0.122000	4.601393
0.122100	4.576075
0.122200	4.644562
0.122300	4.757518
0.122400	4.845156
0.122500	4.839638
0.122600	4.817891
0.122700	4.784783
0.122800	4.793222
0.122900	4.718892
0.123000	4.618596
0.123100	4.585813
0.123200	4.646185
0.123300	4.761088
0.123400	4.904230
0.123500	4.803609
0.123600	4.517325
0.123700	4.284274
0.123800	4.184302
0.123900	4.260904
0.124000	4.255386
0.124100	4.128149
0.124200	4.027203
0.124300	3.930152
0.124400	3.790582
0.124500	3.708462
0.124600	3.550065
0.124700	3.440356
0.124800	3.293645
0.124900	3.121291
0.125000	2.919076
0.125100	2.683105
0.125200	2.432852
0.125300	2.163448
0.125400	1.888203
0.125500	1.556156
0.125600	1.173474
0.125700	0.701532
0.125800	0.112417
0.125900	-1.040822
0.126000	-1.551390
0.126100	-1.661099
0.126200	-1.664670
0.126300	-1.625720
0.126400	-1.652985
0.126500	-1.794827
0.126600	-1.987954
0.126700	-2.127200
0.126800	-2.185301
0.126900	-2.183353
0.127000	-2.205100
0.127100	-2.294685
0.127200	-2.424843
0.127300	-2.555326
0.127400	-2.638419
0.127500	-2.688080
0.127600	-2.723785
0.127700	-2.788701
0.127800	-2.843881
0.127900	-2.883480
0.128000	-2.912043
0.128100	-2.933790
0.128200	-2.954888
0.128300	-2.999681
0.128400	-3.041228
0.128500	-3.045447
0.128600	-3.033113
0.128700	-3.039605
0.128800	-3.060378
0.128900	-3.080178
0.129000	-3.046097
0.129100	-2.957485
0.129200	-2.918860
0.129300	-2.963003
0.129400	-3.070440
0.129500	-3.128216
0.129600	-3.121076
0.129700	-3.043825
0.129800	-2.979881
0.129900	-2.987996
0.130000	-3.062001
0.130100	-3.150288
0.130200	-3.165544
0.130300	-3.130489
0.130400	-3.077581
0.130500	-3.042851
0.130600	-3.029543
0.130700	-3.031166
0.130800	-3.017533
0.130900	-2.990917
0.131000	-2.938010
0.131100	-2.890621
0.131200	-2.830897
0.131300	-2.743584
0.131400	-2.638744
0.131500	-2.544614
0.131600	-2.458924
0.131700	-2.383296
0.131800	-2.303774
0.131900	-2.184976
0.132000	-2.066179
0.132100	-1.910054
0.132200	-1.792555
0.132300	-1.694856
0.132400	-1.614684
0.132500	-1.525424
0.132600	-1.425128
0.132700	-1.324507
0.132800	-1.231352
0.132900	-1.151830
0.133000	-1.098923
0.133100	-1.054779
0.133200	-1.020374
0.133300	-1.001548
0.133400	-0.966818
0.133500	-0.939228
0.133600	-0.901577
0.133700	-0.877882
0.133800	-0.863276
0.133900	-0.861004
0.134000	-0.858083
0.134100	-0.836660
0.134200	-0.755190
0.134300	-0.592575
0.134400	-0.496498
0.134500	-0.519544
0.134600	-0.650999
0.134700	-0.717539
0.134800	-0.647104
0.134900	-0.534150
0.135000	-0.454952
0.135100	-0.466962
0.135200	-0.522465
0.135300	-0.573749
0.135400	-0.562389
0.135500	-0.498446
0.135600	-0.435477
0.135700	-0.401721
0.135800	-0.405940
0.135900	-0.429959
0.136000	-0.433530
0.136100	-0.425740
0.136200	-0.410809
0.136300	-0.422818
0.136400	-0.426713
0.136500	-0.444890
0.136600	-0.450408
0.136700	-0.509157
0.136800	-0.552002
0.136900	-0.615295
0.137000	-0.669825
0.137100	-0.704880
0.137200	-0.720135
0.137300	-0.750646
0.137400	-0.852565
0.137500	-0.986942
0.137600	-1.046990
0.137700	-1.020698
0.137800	-0.977204
0.137900	-0.988240
0.138000	-1.077825
0.138100	-1.203438
0.138200	-1.266732
0.138300	-1.247906
0.138400	-1.182989
0.138500	-1.181691
0.138600	-1.242388
0.138700	-1.336517
0.138800	-1.375142
0.138900	-1.389099
0.139000	-1.379362
0.139100	-1.417338
0.139200	-1.480307
0.139300	-1.535810
0.139400	-1.571515
0.139500	-1.581252
0.139600	-1.601376
0.139700	-1.628641
0.139800	-1.655257
0.139900	-1.652336
0.140000	-1.646169
0.140100	-1.634159
0.140200	-1.673433
0.140300	-1.726340
0.140400	-1.757500
0.140500	-1.771457
0.140600	-1.753930
0.140700	-1.751009
0.140800	-1.764317
0.140900	-1.763667
0.141000	-1.757500
0.141100	-1.743543
0.141200	-1.727639
0.141300	-1.714331
0.141400	-1.700049
0.141500	-1.689987
0.141600	-1.675706
0.141700	-1.664345
0.141800	-1.659152
0.141900	-1.663371
0.142000	-1.662073
0.142100	-1.656231
0.142200	-1.657204
0.142300	-1.664345
0.142400	-1.672784
0.142500	-1.725691
0.142600	-1.857796
0.142700	-1.983085
0.142800	-1.999964
0.142900	-1.916871
0.143000	-1.831830
0.143100	-1.841243
0.143200	-1.953873
0.143300	-2.093444
0.143400	-2.144403
0.143500	-2.116814
0.143600	-2.044756
0.143700	-2.036966
0.143800	-2.095067
0.143900	-2.191792
0.144000	-2.252489
0.144100	-2.262876
0.144200	-2.260929
0.144300	-2.259630
0.144400	-2.271315
0.144500	-2.301177
0.144600	-2.321950
0.144700	-2.332012
0.144800	-2.338179
0.144900	-2.343048
0.145000	-2.358953
0.145100	-2.400824
0.145200	-2.404719
0.145300	-2.406666
0.145400	-2.408614
0.145500	-2.425492
0.145600	-2.437826
0.145700	-2.401473
0.145800	-2.328117
0.145900	-2.309291
0.146000	-2.384919
0.146100	-2.486514
0.146200	-2.530657
0.146300	-2.481970
0.146400	-2.374533
0.146500	-2.319678
0.146600	-2.364471
0.146700	-2.479373
0.146800	-2.553378
0.146900	-2.542342
0.147000	-2.478399
0.147100	-2.429387
0.147200	-2.419974
0.147300	-2.433931
0.147400	-2.429712
0.147500	-2.406666
0.147600	-2.382972
0.147700	-2.346619
0.147800	-2.313836
0.147900	-2.268069
0.148000	-2.189845
0.148100	-2.110322
0.148200	-2.048002
0.148300	-2.008403
0.148400	-1.974971
0.148500	-1.916546
0.148600	-1.818522
0.148700	-1.714655
0.148800	-1.619877
0.148900	-1.553338
0.149000	-1.502054
0.149100	-1.448173
0.149200	-1.394617
0.149300	-1.322560
0.149400	-1.247581
0.149500	-1.182340
0.149600	-1.149233
0.149700	-1.126837
0.149800	-1.099247
0.149900	-1.087887
0.150000	-1.066140
0.150100	-1.056078
0.150200	-1.025243
0.150300	-1.022321
0.150400	-1.016479
0.150500	-1.038226
0.150600	-1.047963
0.150700	-1.059973
0.150800	-1.043095
0.150900	-0.950264
0.151000	-0.815563
0.151100	-0.760384
0.151200	-0.844126
0.151300	-0.974283
0.151400	-0.994407
0.151500	-0.922999
0.151600	-0.787648
0.151700	-0.728575
0.151800	-0.746751
0.151900	-0.826598
0.152000	-0.876584
0.152100	-0.854512
0.152200	-0.785052
0.152300	-0.718837
0.152400	-0.707152
0.152500	-0.714618
0.152600	-0.726627
0.152700	-0.730522
0.152800	-0.722407
0.152900	-0.703906
0.153000	-0.684431
0.153100	-0.668527
0.153200	-0.675992
0.153300	-0.713319
0.153400	-0.725978
0.153500	-0.757138
0.153600	-0.786999
0.153700	-0.818159
0.153800	-0.819457
0.153900	-0.818484
0.154000	-0.832116
0.154100	-0.923973
0.154200	-1.014531
0.154300	-1.022646
0.154400	-0.958379
0.154500	-0.887620
0.154600	-0.973959
0.154700	-1.021023
0.154800	-1.122293
0.154900	-1.143390
0.155000	-1.069386
0.155100	-0.723057
0.155200	-0.572451
0.155300	-0.942799
0.155400	-1.150531
0.155500	-1.151505
0.155600	-1.051534
0.155700	-0.916832
0.155800	-0.989863
0.155900	-1.092106
0.156000	-1.081395
0.156100	-1.001873
0.156200	-0.930465
0.156300	-0.952212
0.156400	-0.969739
0.156500	-0.835362
0.156600	-0.543887
0.156700	-0.331286
0.156800	-0.213463
0.156900	-0.417625
0.157000	-0.579591
0.157100	-0.542265
0.157200	-0.400098
0.157300	-0.243974
0.157400	-0.155363
0.157500	-0.025206
0.157600	0.144875
0.157700	0.340922
0.157800	0.548979
0.157900	0.734640
0.158000	0.936854
0.158100	1.157894
0.158200	1.349073
0.158300	1.512986
0.158400	1.649960
0.158500	1.735325
0.158600	1.788881
0.158700	1.831401
0.158800	1.816470
0.158900	1.781091
0.159000	1.675277
0.159100	1.481827
0.159200	0.881026
0.159300	-0.264098
0.159400	-1.032383
0.159500	-0.940527
0.159600	-0.272537
0.159700	0.210116
0.159800	-0.361797
0.159900	-1.430321
0.160000	-1.407276
0.160100	-1.431619
0.160200	-1.390398
0.160300	-1.332946
0.160400	-1.355992
0.160500	-1.429023
0.160600	-1.517309
0.160700	-1.565997
0.160800	-1.579305
0.160900	-1.576059
0.161000	-1.579954
0.161100	-1.588717
0.161200	-1.608192
0.161300	-1.615333
0.161400	-1.612087
0.161500	-1.606569
0.161600	-1.611114
0.161700	-1.611438
0.161800	-1.627343
0.161900	-1.612087
0.162000	-1.594235
0.162100	-1.596183
0.162200	-1.596183
0.162300	-1.583849
0.162400	-1.503352
0.162500	-1.424803
0.162600	-1.412794
0.162700	-1.502703
0.162800	-1.586770
0.162900	-1.615009
0.163000	-1.530617
0.163100	-1.431619
0.163200	-1.404030
0.163300	-1.468946
0.163400	-1.581252
0.163500	-1.644870
0.163600	-1.621500
0.163700	-1.570216
0.163800	-1.551715
0.163900	-1.568269
0.164000	-1.592288
0.164100	-1.609491
0.164200	-1.610140
0.164300	-1.619877
0.164400	-1.623448
0.164500	-1.623772
0.164600	-1.595534
0.164700	-1.543600
0.164800	-1.504326
0.164900	-1.482254
0.165000	-1.475763
0.165100	-1.461157
0.165200	-1.405004
0.165300	-1.330025
0.165400	-1.253748
0.165500	-1.171304
0.165600	-1.123266
0.165700	-1.079123
0.165800	-1.021997
0.165900	-0.955133
0.166000	-0.882751
0.166100	-0.807448
0.166200	-0.751620
0.166300	-0.709424
0.166400	-0.686379
0.166500	-0.666255
0.166600	-0.654570
0.166700	-0.651324
0.166800	-0.631200
0.166900	-0.619190
0.167000	-0.619515
0.167100	-0.626007
0.167200	-0.655544
0.167300	-0.684756
0.167400	-0.711047
0.167500	-0.695792
0.167600	-0.606856
0.167700	-0.524413
0.167800	-0.540642
0.167900	-0.716890
0.168000	-0.858732
0.168100	-0.889243
0.168200	-0.825300
0.168300	-0.743505
0.168400	-0.745777
0.168500	-0.819782
0.168600	-0.941500
0.168700	-0.989538
0.168800	-0.981099
0.168900	-0.922025
0.169000	-0.886646
0.169100	-0.892164
0.169200	-0.907095
0.169300	-0.928517
0.169400	-0.950264
0.169500	-0.954808
0.169600	-0.946369
0.169700	-0.946044
0.169800	-0.954808
0.169900	-0.973634
0.170000	-1.025892
0.170100	-1.052183
0.170200	-1.102818
0.170300	-1.125538
0.170400	-1.154102
0.170500	-1.141118
0.170600	-1.133653
0.170700	-1.150856
0.170800	-1.245958
0.170900	-1.305682
0.171000	-1.268355
0.171100	-1.184612
0.171200	-1.116126
0.171300	-1.154102
0.171400	-1.269977
0.171500	-1.365729
0.171600	-1.371896
0.171700	-1.292698
0.171800	-1.227782
0.171900	-1.234273
0.172000	-1.311524
0.172100	-1.363457
0.172200	-1.380335
0.172300	-1.378063
0.172400	-1.377414
0.172500	-1.409223
0.172600	-1.442331
0.172700	-1.479982
0.172800	-1.498159
0.172900	-1.504001
0.173000	-1.524125
0.173100	-1.526722
0.173200	-1.517634
0.173300	-1.491992
0.173400	-1.470245
0.173500	-1.474140
0.173600	-1.522827
0.173700	-1.555935
0.173800	-1.563400
0.173900	-1.520555
0.174000	-1.509519
0.174100	-1.529968
0.174200	-1.532240
0.174300	-1.548145
0.174400	-1.549443
0.174500	-1.557557
0.174600	-1.560803
0.174700	-1.557882
0.174800	-1.565023
0.174900	-1.569892
0.175000	-1.573787
0.175100	-1.573462
0.175200	-1.569892
0.175300	-1.572813
0.175400	-1.572164
0.175500	-1.576059
0.175600	-1.572164
0.175700	-1.578980
0.175800	-1.594884
0.175900	-1.692584
0.176000	-1.822092
0.176100	-1.887009
0.176200	-1.830532
0.176300	-1.729586
0.176400	-1.690961
0.176500	-1.776975
0.176600	-1.913625
0.176700	-2.012947
0.176800	-1.999964
0.176900	-1.928231
0.177000	-1.870455
0.177100	-1.878245
0.177200	-1.947057
0.177300	-2.014895
0.177400	-2.061310
0.177500	-2.053845
0.177600	-2.042809
0.177700	-2.038589
0.177800	-2.051572
0.177900	-2.078188
0.178000	-2.101883
0.178100	-2.117138
0.178200	-2.120709
0.178300	-2.142131
0.178400	-2.163554
0.178500	-2.199582
0.178600	-2.201854
0.178700	-2.219057
0.178800	-2.235936
0.178900	-2.258656
0.179000	-2.239181
0.179100	-2.170370
0.179200	-2.126876
0.179300	-2.171993
0.179400	-2.279105
0.179500	-2.366094
0.179600	-2.377129
0.179700	-2.306695
0.179800	-2.235936
0.179900	-2.245349
0.180000	-2.343373
0.180100	-2.451459
0.180200	-2.500796
0.180300	-2.487488
0.180400	-2.448538
0.180500	-2.432633
0.180600	-2.440748
0.180700	-2.452433
0.180800	-2.441721
0.180900	-2.428089
0.181000	-2.407640
0.181100	-2.377129
0.181200	-2.329740
0.181300	-2.254437
0.181400	-2.151219
0.181500	-2.071697
0.181600	-2.014245
0.181700	-1.973023
0.181800	-1.915572
0.181900	-1.821768
0.182000	-1.722770
0.182100	-1.655906
0.182200	-1.541004
0.182300	-1.463104
0.182400	-1.384230
0.182500	-1.301137
0.182600	-1.211877
0.182700	-1.124240
0.182800	-1.032059
0.182900	-0.951887
0.183000	-0.902226
0.183100	-0.865873
0.183200	-0.835037
0.183300	-0.810694
0.183400	-0.788298
0.183500	-0.758111
0.183600	-0.729873
0.183700	-0.702283
0.183800	-0.692546
0.183900	-0.695467
0.184000	-0.703257
0.184100	-0.678264
0.184200	-0.631200
0.184300	-0.473129
0.184400	-0.388737
0.184500	-0.396852
0.184600	-0.544212
0.184700	-0.613348
0.184800	-0.586732
0.184900	-0.473778
0.185000	-0.381272
0.185100	-0.378026
0.185200	-0.446513
0.185300	-0.519219
0.185400	-0.539343
0.185500	-0.497472
0.185600	-0.458847
0.185700	-0.423468
0.185800	-0.445539
0.185900	-0.463067
0.186000	-0.504613
0.186100	-0.536097
0.186200	-0.557844
0.186300	-0.579591
0.186400	-0.601338
0.186500	-0.628603
0.186600	-0.669825
0.186700	-0.748374
0.186800	-0.810694
0.186900	-0.885023
0.187000	-0.962923
0.187100	-1.007390
0.187200	-1.034655
0.187300	-1.072956
0.187400	-1.175199
0.187500	-1.322560
0.187600	-1.391696
0.187700	-1.370598
0.187800	-1.322560
0.187900	-1.320288
0.188000	-1.406951
0.188100	-1.540030
0.188200	-1.613061
0.188300	-1.606894
0.188400	-1.546522
0.188500	-1.540355
0.188600	-1.602674
0.188700	-1.682522
0.188800	-1.722770
0.188900	-1.735429
0.189000	-1.751333
0.189100	-1.787687
0.189200	-1.832804
0.189300	-1.876298
0.189400	-1.895123
0.189500	-1.898045
0.189600	-1.923687
0.189700	-1.951276
0.189800	-1.962312
0.189900	-1.950627
0.190000	-1.932775
0.190100	-1.919467
0.190200	-1.935372
0.190300	-1.977243
0.190400	-1.995744
0.190500	-1.973348
0.190600	-1.936021
0.190700	-1.905835
0.190800	-1.895123
0.190900	-1.872727
0.191000	-1.839295
0.191100	-1.806188
0.191200	-1.775677
0.191300	-1.739648
0.191400	-1.703295
0.191500	-1.672460
0.191600	-1.653634
0.191700	-1.624422
0.191800	-1.602025
0.191900	-1.581577
0.192000	-1.553338
0.192100	-1.529643
0.192200	-1.524450
0.192300	-1.522827
0.192400	-1.530942
0.192500	-1.565023
0.192600	-1.678951
0.192700	-1.805863
0.192800	-1.829233
0.192900	-1.755877
0.193000	-1.647791
0.193100	-1.656231
0.193200	-1.751009
0.193300	-1.889606
0.193400	-1.957768
0.193500	-1.926933
0.193600	-1.854875
0.193700	-1.834102
0.193800	-1.878245
0.193900	-1.955820
0.194000	-2.016517
0.194100	-2.027553
0.194200	-2.018790
0.194300	-2.011324
0.194400	-2.017816
0.194500	-2.036317
0.194600	-2.051248
0.194700	-2.061635
0.194800	-2.076890
0.194900	-2.095716
0.195000	-2.130771
0.195100	-2.182704
0.195200	-2.210943
0.195300	-2.232365
0.195400	-2.265797
0.195500	-2.318704
0.195600	-2.366743
0.195700	-2.357330
0.195800	-2.297931
0.195900	-2.286571
0.196000	-2.366418
0.196100	-2.486514
0.196200	-2.566362
0.196300	-2.539746
0.196400	-2.432309
0.196500	-2.368041
0.196600	-2.408614
0.196700	-2.518972
0.196800	-2.601092
0.196900	-2.613751
0.197000	-2.567984
0.197100	-2.528061
0.197200	-2.523841
0.197300	-2.544939
0.197400	-2.549483
0.197500	-2.541044
0.197600	-2.528385
0.197700	-2.515402
0.197800	-2.501769
0.197900	-2.476127
0.198000	-2.403096
0.198100	-2.320003
0.198200	-2.258981
0.198300	-2.232690
0.198400	-2.204127
0.198500	-2.157062
0.198600	-2.067152
0.198700	-1.983410
0.198800	-1.869157
0.198900	-1.777625
0.199000	-1.694531
0.199100	-1.616956
0.199200	-1.526073
0.199300	-1.432269
0.199400	-1.324183
0.199500	-1.223562
0.199600	-1.153777
0.199700	-1.094379
0.199800	-1.052183
0.199900	-1.014207
0.200000	-0.989538
0.200100	-0.972985
0.200200	-0.946369
0.200300	-0.936956
0.200400	-0.913911
0.200500	-0.914560
0.200600	-0.918130
0.200700	-0.935658
0.200800	-0.915534
0.200900	-0.836985
0.201000	-0.700011
0.201100	-0.650675
0.201200	-0.716565
0.201300	-0.869119
0.201400	-0.916832
0.201500	-0.859706
0.201600	-0.744804
0.201700	-0.687028
0.201800	-0.708775
0.201900	-0.792193
0.202000	-0.853539
0.202100	-0.844775
0.202200	-0.786350
0.202300	-0.724355
0.202400	-0.696766
0.202500	-0.696116
0.202600	-0.695467
0.202700	-0.691248
0.202800	-0.663983
0.202900	-0.630551
0.203000	-0.600689
0.203100	-0.577644
0.203200	-0.564985
0.203300	-0.574074
0.203400	-0.567257
0.203500	-0.564661
0.203600	-0.579916
0.203700	-0.567257
0.203800	-0.350761
0.203900	-0.067726
0.204000	0.136760
0.204100	-0.319277
0.204200	-0.771744
0.204300	-0.633797
0.204400	0.127672
0.204500	0.748597
0.204600	0.955031
0.204700	0.401619
0.204800	-0.213463
0.204900	-0.316680
0.205000	0.244197
0.205100	0.868367
0.205200	1.077073
0.205300	0.780406
0.205400	0.433753
0.205500	0.357151
0.205600	0.438297
0.205700	0.646354
0.205800	0.567480
0.205900	0.358774
0.206000	0.151367
0.206100	-0.045330
0.206200	-0.129721
0.206300	-0.282924
0.206400	-0.444890
0.206500	-0.487735
0.206600	-0.399773
0.206700	-0.224824
0.206800	-0.213139
0.206900	-0.499420
0.207000	-0.859381
0.207100	-0.957405
0.207200	-0.832765
0.207300	-0.610427
0.207400	-0.623735
0.207500	-0.591601
0.207600	-0.479945
0.207700	-0.290714
0.207800	-0.101483
0.207900	0.075090
0.208000	0.325991
0.208100	0.548005
0.208200	0.782353
0.208300	0.968988
0.208400	1.166982
0.208500	1.332194
0.208600	1.487020
0.208700	1.657101
0.208800	1.824910
0.208900	1.936566
0.209000	1.981358
0.209100	1.981358
0.209200	1.601597
0.209300	0.709971
0.209400	0.070546
0.209500	0.282173
0.209600	1.038773
0.209700	1.653206
0.209800	1.439306
0.209900	0.586955
0.210000	-0.228719
0.210100	-0.459821
0.210200	-0.052146
0.210300	0.316579
0.210400	0.337676
0.210500	-0.152442
0.210600	-0.750322
0.210700	-1.036278
0.210800	-1.029462
0.210900	-1.007715
0.211000	-0.989538
0.211100	-0.983696
0.211200	-1.001873
0.211300	-1.010636
0.211400	-1.009663
0.211500	-1.008040
0.211600	-1.008364
0.211700	-1.023295
0.211800	-1.052507
0.211900	-1.062245
0.212000	-1.072956
0.212100	-1.098273
0.212200	-1.133978
0.212300	-1.158970
0.212400	-1.123915
0.212500	-1.081071
0.212600	-1.098598
0.212700	-1.213825
0.212800	-1.338789
0.212900	-1.415390
0.213000	-1.385529
0.213100	-1.318340
0.213200	-1.320288
0.213300	-1.413767
0.213400	-1.558856
0.213500	-1.668240
0.213600	-1.692908
0.213700	-1.690636
0.213800	-1.708164
0.213900	-1.755877
0.214000	-1.823715
0.214100	-1.882140
0.214200	-1.922713
0.214300	-1.964584
0.214400	-1.994446
0.214500	-2.015544
0.214600	-2.023983
0.214700	-2.003210
0.214800	-1.996718
0.214900	-1.998016
0.215000	-2.002885
0.215100	-2.009377
0.215200	-1.975295
0.215300	-1.922388
0.215400	-1.889281
0.215500	-1.816899
0.215600	-1.775352
0.215700	-1.737376
0.215800	-1.704593
0.215900	-1.652985
0.216000	-1.606245
0.216100	-1.560154
0.216200	-1.512116
0.216300	-1.495562
0.216400	-1.484851
0.216500	-1.487448
0.216600	-1.493290
0.216700	-1.497834
0.216800	-1.492966
0.216900	-1.487123
0.217000	-1.482254
0.217100	-1.476087
0.217200	-1.480307
0.217300	-1.487772
0.217400	-1.484851
0.217500	-1.433567
0.217600	-1.301137
0.217700	-1.154426
0.217800	-1.098598
0.217900	-1.189806
0.218000	-1.281987
0.218100	-1.265109
0.218200	-1.140145
0.218300	-1.008040
0.218400	-0.940851
0.218500	-0.973634
0.218600	-1.020049
0.218700	-1.029787
0.218800	-0.964546
0.218900	-0.878856
0.219000	-0.803228
0.219100	-0.779858
0.219200	-0.786350
0.219300	-0.777586
0.219400	-0.775639
0.219500	-0.766875
0.219600	-0.753243
0.219700	-0.742207
0.219800	-0.737987
0.219900	-0.726627
0.220000	-0.744804
0.220100	-0.772393
0.220200	-0.803228
0.220300	-0.832765
0.220400	-0.855811
0.220500	-0.852565
0.220600	-0.851267
0.220700	-0.874636
0.220800	-0.986617
0.220900	-1.051534
0.221000	-1.056402
0.221100	-1.012908
0.221200	-0.980126
0.221300	-1.028813
0.221400	-1.162541
0.221500	-1.270302
0.221600	-1.307629
0.221700	-1.289128
0.221800	-1.274846
0.221900	-1.324183
0.222000	-1.419610
0.222100	-1.501405
0.222200	-1.557557
0.222300	-1.580927
0.222400	-1.589691
0.222500	-1.625395
0.222600	-1.675056
0.222700	-1.721796
0.222800	-1.735429
0.222900	-1.737052
0.223000	-1.746140
0.223100	-1.752632
0.223200	-1.747114
0.223300	-1.724718
0.223400	-1.699400
0.223500	-1.690312
0.223600	-1.724068
0.223700	-1.748412
0.223800	-1.754255
0.223900	-1.749386
0.224000	-1.723095
0.224100	-1.726665
0.224200	-1.722770
0.224300	-1.713682
0.224400	-1.707839
0.224500	-1.696803
0.224600	-1.689338
0.224700	-1.691610
0.224800	-1.689013
0.224900	-1.692584
0.225000	-1.697777
0.225100	-1.708164
0.225200	-1.713357
0.225300	-1.714331
0.225400	-1.718550
0.225500	-1.712059
0.225600	-1.715954
0.225700	-1.712708
0.225800	-1.719524
0.225900	-1.782169
0.226000	-1.904861
0.226100	-1.963286
0.226200	-1.894474
0.226300	-1.780221
0.226400	-1.713682
0.226500	-1.782493
0.226600	-1.914598
0.226700	-1.998990
0.226800	-1.981463
0.226900	-1.913949
0.227000	-1.867209
0.227100	-1.894474
0.227200	-1.978541
0.227300	-2.045405
0.227400	-2.072346
0.227500	-2.067477
0.227600	-2.058064
0.227700	-2.069425
0.227800	-2.100909
0.227900	-2.131095
0.228000	-2.149921
0.228100	-2.162904
0.228200	-2.191792
0.228300	-2.227496
0.228400	-2.268719
0.228500	-2.295984
0.228600	-2.315134
0.228700	-2.340127
0.228800	-2.377129
0.228900	-2.414781
0.229000	-2.425492
0.229100	-2.376156
0.229200	-2.357979
0.229300	-2.407640
0.229400	-2.517674
0.229500	-2.634524
0.229600	-2.668605
0.229700	-2.618944
0.229800	-2.561168
0.229900	-2.582266
0.230000	-2.664710
0.230100	-2.776367
0.230200	-2.823756
0.230300	-2.805255
0.230400	-2.758515
0.230500	-2.740663
0.230600	-2.752023
0.230700	-2.777990
0.230800	-2.784157
0.230900	-2.766630
0.231000	-2.736443
0.231100	-2.703336
0.231200	-2.665035
0.231300	-2.611154
0.231400	-2.535202
0.231500	-2.458600
0.231600	-2.398552
0.231700	-2.333960
0.231800	-2.260604
0.231900	-2.160308
0.232000	-2.065854
0.232100	-1.999639
0.232200	-1.911353
0.232300	-1.845462
0.232400	-1.788336
0.232500	-1.733481
0.232600	-1.659152
0.232700	-1.578331
0.232800	-1.495238
0.232900	-1.431295
0.233000	-1.392020
0.233100	-1.354693
0.233200	-1.322884
0.233300	-1.295944
0.233400	-1.270302
0.233500	-1.232651
0.233600	-1.199543
0.233700	-1.176173
0.233800	-1.150207
0.233900	-1.154426
0.234000	-1.134951
0.234100	-1.128460
0.234200	-1.050235
0.234300	-0.917481
0.234400	-0.782455
0.234500	-0.790570
0.234600	-0.914235
0.234700	-0.991811
0.234800	-0.954159
0.234900	-0.823352
0.235000	-0.712670
0.235100	-0.687353
0.235200	-0.746427
0.235300	-0.814264
0.235400	-0.804202
0.235500	-0.733443
0.235600	-0.644183
0.235700	-0.597443
0.235800	-0.591926
0.235900	-0.603286
0.236000	-0.605233
0.236100	-0.590303
0.236200	-0.566284
0.236300	-0.541615
0.236400	-0.539992
0.236500	-0.540966
0.236600	-0.539019
0.236700	-0.569205
0.236800	-0.596794
0.236900	-0.632823
0.237000	-0.675668
0.237100	-0.692221
0.237200	-0.689949
0.237300	-0.608804
0.237400	-0.766875
0.237500	-0.883725
0.237600	-0.949939
0.237700	-0.954484
0.237800	-0.878531
0.237900	-0.702283
0.238000	-0.957080
0.238100	-1.075228
0.238200	-1.147285
0.238300	-1.154102
0.238400	-1.097300
0.238500	-0.986617
0.238600	-1.075877
0.238700	-1.193701
0.238800	-1.251476
0.238900	-1.278092
0.239000	-1.283285
0.239100	-1.299514
0.239200	-1.335868
0.239300	-1.383906
0.239400	-1.429023
0.239500	-1.451744
0.239600	-1.487123
0.239700	-1.520231
0.239800	-1.557233
0.239900	-1.568918
0.240000	-1.573787
0.240100	-1.589042
0.240200	-1.648116
0.240300	-1.731858
0.240400	-1.788336
0.240500	-1.812030
0.240600	-1.808135
0.240700	-1.821768
0.240800	-1.842216
0.240900	-1.850331
0.241000	-1.865262
0.241100	-1.867534
0.241200	-1.872403
0.241300	-1.867534
0.241400	-1.869806
0.241500	-1.873052
0.241600	-1.880193
0.241700	-1.895123
0.241800	-1.907782
0.241900	-1.914274
0.242000	-1.917520
0.242100	-1.930503
0.242200	-1.939267
0.242300	-1.952250
0.242400	-1.975945
0.242500	-2.014895
0.242600	-2.141807
0.242700	-2.276833
0.242800	-2.329091
0.242900	-2.252489
0.243000	-2.145377
0.243100	-2.126227
0.243200	-2.237883
0.243300	-2.375506
0.243400	-2.448213
0.243500	-2.411211
0.243600	-2.341750
0.243700	-2.311239
0.243800	-2.356031
0.243900	-2.442371
0.244000	-2.504691
0.244100	-2.512481
0.244200	-2.497225
0.244300	-2.481645
0.244400	-2.478399
0.244500	-2.488137
0.244600	-2.496576
0.244700	-2.493655
0.244800	-2.483593
0.244900	-2.491383
0.245000	-2.508586
0.245100	-2.519622
0.245200	-2.518323
0.245300	-2.517674
0.245400	-2.528061
0.245500	-2.540070
0.245600	-2.543316
0.245700	-2.485865
0.245800	-2.397254
0.245900	-2.353759
0.246000	-2.383621
0.246100	-2.451134
0.246200	-2.502743
0.246300	-2.456003
0.246400	-2.353435
0.246500	-2.285272
0.246600	-2.291439
0.246700	-2.362848
0.246800	-2.431010
0.246900	-2.438476
0.247000	-2.389464
0.247100	-2.332337
0.247200	-2.310914
0.247300	-2.316757
0.247400	-2.327468
0.247500	-2.325196
0.247600	-2.321301
0.247700	-2.302475
0.247800	-2.283325
0.247900	-2.247621
0.248000	-2.181081
0.248100	-2.110647
0.248200	-2.067152
0.248300	-2.038589
0.248400	-2.008727
0.248500	-1.960689
0.248600	-1.863314
0.248700	-1.788660
0.248800	-1.688364
0.248900	-1.609815
0.249000	-1.539705
0.249100	-1.468622
0.249200	-1.389424
0.249300	-1.298865
0.249400	-1.204412
0.249500	-1.121968
0.249600	-1.054455
0.249700	-1.014207
0.249800	-0.971362
0.249900	-0.946369
0.250000	-0.929815
0.250100	-0.926570
0.250200	-0.901577
0.250300	-0.897357
0.250400	-0.887944
0.250500	-0.893787
0.250600	-0.911963
0.250700	-0.925596
0.250800	-0.933061
0.250900	-0.848994
0.251000	-0.728250
0.251100	-0.646455
0.251200	-0.708450
0.251300	-0.863276
0.251400	-0.920402
0.251500	-0.871066
0.251600	-0.742856
0.251700	-0.670474
0.251800	-0.680861
0.251900	-0.773367
0.252000	-0.830169
0.252100	-0.814589
0.252200	-0.739935
0.252300	-0.671124
0.252400	-0.632823
0.252500	-0.634446
0.252600	-0.637367
0.252700	-0.638990
0.252800	-0.622436
0.252900	-0.604584
0.253000	-0.583162
0.253100	-0.574074
0.253200	-0.547133
0.253300	-0.540317
0.253400	-0.558818
0.253500	-0.580565
0.253600	-0.603935
0.253700	-0.612699
0.253800	-0.373807
0.253900	-0.016118
0.254000	0.199080
0.254100	-0.127774
0.254200	-0.445539
0.254300	-0.303372
0.254400	0.345791
0.254500	1.128357
0.254600	1.400357
0.254700	0.986840
0.254800	0.500616
0.254900	0.445438
0.255000	0.900176
0.255100	1.549015
0.255200	1.883334
0.255300	1.667163
0.255400	1.323755
0.255500	1.262085
0.255600	1.313044
0.255700	1.463975
0.255800	1.471115
0.255900	1.291297
0.256000	1.128357
0.256100	0.956329
0.256200	0.897255
0.256300	0.773914
0.256400	0.684979
0.256500	0.644081
0.256600	0.736912
0.256700	0.917704
0.256800	0.963794
0.256900	0.659986
0.257000	0.271462
0.257100	0.129620
0.257200	0.291586
0.257300	0.499967
0.257400	0.473676
0.257500	0.432454
0.257600	0.553523
0.257700	0.627203
0.257800	0.684979
0.257900	0.790143
0.258000	0.846296
0.258100	0.957627
0.258200	1.026763
0.258300	1.087135
0.258400	1.123813
0.258500	1.094925
0.258600	1.059870
0.258700	0.992357
0.258800	0.966716
0.258900	0.823250
0.259000	0.590525
0.259100	0.305218
0.259200	-0.368289
0.259300	-1.436164
0.259400	-1.592288
0.259500	-1.630913
0.259600	-1.596507
0.259700	-1.551066
0.259800	-1.633834
0.259900	-1.809434
0.260000	-2.000613
0.260100	-2.092145
0.260200	-2.087601
0.260300	-2.069425
0.260400	-2.108699
0.260500	-2.218084
0.260600	-2.347592
0.260700	-2.437177
0.260800	-2.479373
0.260900	-2.485216
0.261000	-2.517674
0.261100	-2.564739
0.261200	-2.612777
0.261300	-2.656271
0.261400	-2.661140
0.261500	-2.673150
0.261600	-2.698467
0.261700	-2.739689
0.261800	-2.757541
0.261900	-2.749427
0.262000	-2.752023
0.262100	-2.767928
0.262200	-2.786105
0.262300	-2.786754
0.262400	-2.720863
0.262500	-2.648481
0.262600	-2.642639
0.262700	-2.703336
0.262800	-2.806878
0.262900	-2.852969
0.263000	-2.798764
0.263100	-2.703011
0.263200	-2.642963
0.263300	-2.660166
0.263400	-2.740338
0.263500	-2.793895
0.263600	-2.769876
0.263700	-2.688730
0.263800	-2.615698
0.263900	-2.566686
0.264000	-2.548509
0.264100	-2.533579
0.264200	-2.484891
0.264300	-2.436853
0.264400	-2.381674
0.264500	-2.327144
0.264600	-2.259306
0.264700	-2.161282
0.264800	-2.069100
0.264900	-2.000288
0.265000	-1.932775
0.265100	-1.880517
0.265200	-1.806512
0.265300	-1.703620
0.265400	-1.606245
0.265500	-1.464727
0.265600	-1.369624
0.265700	-1.272899
0.265800	-1.181691
0.265900	-1.087238
0.266000	-0.987591
0.266100	-0.880479
0.266200	-0.791868
0.266300	-0.713644
0.266400	-0.665930
0.266500	-0.611400
0.266600	-0.569205
0.266700	-0.541291
0.266800	-0.491954
0.266900	-0.448785
0.267000	-0.409511
0.267100	-0.377377
0.267200	-0.371535
0.267300	-0.341673
0.267400	-0.341024
0.267500	-0.286819
0.267600	-0.176785
0.267700	-0.028776
0.267800	0.015367
0.267900	-0.082332
0.268000	-0.205349
0.268100	-0.240728
0.268200	-0.158609
0.268300	-0.047602
0.268400	-0.009950
0.268500	-0.064480
0.268600	-0.166723
0.268700	-0.221253
0.268800	-0.209244
0.268900	-0.145626
0.269000	-0.041759
0.269100	0.043281
0.269200	-0.034943
0.269300	-0.131019
0.269400	-0.152442
0.269500	-0.097263
0.269600	0.017314
0.269700	0.025104
0.269800	0.010823
0.269900	0.116961
0.270000	0.003033
0.270100	-0.152442
0.270200	-0.356604
0.270300	-0.522465
0.270400	-0.626007
0.270500	-0.562389
0.270600	-0.516623
0.270700	-0.590303
0.270800	-0.811668
0.270900	-0.889243
0.271000	-0.914560
0.271100	-0.880803
0.271200	-0.712670
0.271300	-0.792193
0.271400	-1.001873
0.271500	-1.108336
0.271600	-1.153452
0.271700	-1.134951
0.271800	-1.101844
0.271900	-1.127810
0.272000	-1.206035
0.272100	-1.286531
0.272200	-1.338789
0.272300	-1.374493
0.272400	-1.395915
0.272500	-1.440059
0.272600	-1.488421
0.272700	-1.541978
0.272800	-1.591639
0.272900	-1.635457
0.273000	-1.672460
0.273100	-1.699076
0.273200	-1.700374
0.273300	-1.690312
0.273400	-1.679276
0.273500	-1.682522
0.273600	-1.730885
0.273700	-1.767887
0.273800	-1.778923
0.273900	-1.736078
0.274000	-1.718550
0.274100	-1.718226
0.274200	-1.707190
0.274300	-1.701997
0.274400	-1.685118
0.274500	-1.664021
0.274600	-1.645844
0.274700	-1.627992
0.274800	-1.620202
0.274900	-1.613710
0.275000	-1.599104
0.275100	-1.592937
0.275200	-1.585472
0.275300	-1.579954
0.275400	-1.580927
0.275500	-1.585147
0.275600	-1.593262
0.275700	-1.614035
0.275800	-1.641300
0.275900	-1.744517
0.276000	-1.902913
0.276100	-2.009052
0.276200	-1.997043
0.276300	-1.911028
0.276400	-1.878245
0.276500	-1.969128
0.276600	-2.133043
0.276700	-2.268394
0.276800	-2.301826
0.276900	-2.267096
0.277000	-2.245024
0.277100	-2.292089
0.277200	-2.393683
0.277300	-2.479373
0.277400	-2.528710
0.277500	-2.539746
0.277600	-2.549808
0.277700	-2.576424
0.277800	-2.601092
0.277900	-2.620892
0.278000	-2.630629
0.278100	-2.638744
0.278200	-2.656596
0.278300	-2.694897
0.278400	-2.715670
0.278500	-2.716644
0.278600	-2.707555
0.278700	-2.710152
0.278800	-2.735470
0.278900	-2.760138
0.279000	-2.750401
0.279100	-2.678018
0.279200	-2.630629
0.279300	-2.651078
0.279400	-2.726381
0.279500	-2.813370
0.279600	-2.816291
0.279700	-2.754945
0.279800	-2.672825
0.279900	-2.652701
0.280000	-2.714047
0.280100	-2.797141
0.280200	-2.833819
0.280300	-2.803957
0.280400	-2.752997
0.280500	-2.714047
0.280600	-2.703011
0.280700	-2.703011
0.280800	-2.689703
0.280900	-2.668605
0.281000	-2.634524
0.281100	-2.591679
0.281200	-2.534877
0.281300	-2.452433
0.281400	-2.353435
0.281500	-2.267420
0.281600	-2.202828
0.281700	-2.160632
0.281800	-2.117138
0.281900	-2.028852
0.282000	-1.936346
0.282100	-1.871429
0.282200	-1.777300
0.282300	-1.711085
0.282400	-1.651362
0.282500	-1.587419
0.282600	-1.517309
0.282700	-1.446875
0.282800	-1.374818
0.282900	-1.312173
0.283000	-1.271276
0.283100	-1.235247
0.283200	-1.206684
0.283300	-1.187209
0.283400	-1.175849
0.283500	-1.156698
0.283600	-1.141443
0.283700	-1.133004
0.283800	-1.135925
0.283900	-1.144364
0.284000	-1.165137
0.284100	-1.162541
0.284200	-1.128784
0.284300	-1.003820
0.284400	-0.911314
0.284500	-0.912937
0.284600	-1.064517
0.284700	-1.164164
0.284800	-1.143390
0.284900	-1.035954
0.285000	-0.937281
0.285100	-0.923324
0.285200	-0.994407
0.285300	-1.069386
0.285400	-1.079448
0.285500	-1.024269
0.285600	-0.951562
0.285700	-0.922025
0.285800	-0.932087
0.285900	-0.944097
0.286000	-0.944746
0.286100	-0.934360
0.286200	-0.925271
0.286300	-0.931438
0.286400	-0.945071
0.286500	-0.959677
0.286600	-0.959677
0.286700	-0.974283
0.286800	-1.019075
0.286900	-1.066140
0.287000	-1.124240
0.287100	-1.140469
0.287200	-1.144040
0.287300	-1.136574
0.287400	-1.191753
0.287500	-1.304708
0.287600	-1.354044
0.287700	-1.350474
0.287800	-1.267056
0.287900	-1.244011
0.288000	-1.286207
0.288100	-1.400784
0.288200	-1.471543
0.288300	-1.464402
0.288400	-1.394617
0.288500	-1.347228
0.288600	-1.369300
0.288700	-1.432593
0.288800	-1.474464
0.288900	-1.482579
0.289000	-1.475438
0.289100	-1.478684
0.289200	-1.510493
0.289300	-1.548794
0.289400	-1.586121
0.289500	-1.601701
0.289600	-1.611438
0.289700	-1.629939
0.289800	-1.652011
0.289900	-1.647467
0.290000	-1.634484
0.290100	-1.613386
0.290200	-1.622474
0.290300	-1.664345
0.290400	-1.694531
0.290500	-1.697128
0.290600	-1.651686
0.290700	-1.629290
0.290800	-1.622149
0.290900	-1.604622
0.291000	-1.584173
0.291100	-1.568269
0.291200	-1.550092
0.291300	-1.526722
0.291400	-1.509195
0.291500	-1.499782
0.291600	-1.454665
0.291700	-1.430321
0.291800	-1.369300
0.291900	-1.330025
0.292000	-1.328727
0.292100	-1.320288
0.292200	-1.346903
0.292300	-1.528670
0.292400	-1.520555
0.292500	-1.563400
0.292600	-1.687066
0.292700	-1.847085
0.292800	-1.907782
0.292900	-1.855849
0.293000	-1.761071
0.293100	-1.753281
0.293200	-1.862016
0.293300	-2.028202
0.293400	-2.118437
0.293500	-2.120384
0.293600	-2.065530
0.293700	-2.056441
0.293800	-2.119086
0.293900	-2.227172
0.294000	-2.330389
0.294100	-2.368690
0.294200	-2.384595
0.294300	-2.398876
0.294400	-2.441397
0.294500	-2.483268
0.294600	-2.523517
0.294700	-2.535851
0.294800	-2.532605
0.294900	-2.545913
0.295000	-2.583889
0.295100	-2.614400
0.295200	-2.613751
0.295300	-2.596548
0.295400	-2.594600
0.295500	-2.602066
0.295600	-2.613102
0.295700	-2.562791
0.295800	-2.466390
0.295900	-2.412834
0.296000	-2.417378
0.296100	-2.467688
0.296200	-2.510858
0.296300	-2.458275
0.296400	-2.337855
0.296500	-2.226523
0.296600	-2.199907
0.296700	-2.245349
0.296800	-2.296308
0.296900	-2.288843
0.297000	-2.215162
0.297100	-2.113243
0.297200	-2.044432
0.297300	-2.009377
0.297400	-1.992498
0.297500	-1.967181
0.297600	-1.917844
0.297700	-1.852928
0.297800	-1.787687
0.297900	-1.717901
0.298000	-1.626044
0.298100	-1.517634
0.298200	-1.426102
0.298300	-1.349825
0.298400	-1.285557
0.298500	-1.216421
0.298600	-1.115476
0.298700	-1.027839
0.298800	-0.939877
0.298900	-0.855162
0.299000	-0.786675
0.299100	-0.727601
0.299200	-0.670150
0.299300	-0.596794
0.299400	-0.519544
0.299500	-0.442618
0.299600	-0.391659
0.299700	-0.352709
0.299800	-0.329988
0.299900	-0.307267
0.300000	-0.286170
0.300100	-0.278704
0.300200	-0.255983
0.300300	-0.253387
0.300400	-0.242026
0.300500	-0.269616
0.300600	-0.287143
0.300700	-0.334857
0.300800	-0.353358
0.300900	-0.320575
0.301000	-0.217034
0.301100	-0.174189
0.301200	-0.273835
0.301300	-0.444565
0.301400	-0.554599
0.301500	-0.538045
0.301600	-0.451706
0.301700	-0.411133
0.301800	-0.448136
0.301900	-0.557520
0.302000	-0.658465
0.302100	-0.677615
0.302200	-0.649701
0.302300	-0.609128
0.302400	-0.613348
0.302500	-0.647104
0.302600	-0.684756
0.302700	-0.714942
0.302800	-0.737987
0.302900	-0.745128
0.303000	-0.766875
0.303100	-0.792517
0.303200	-0.814589
0.303300	-0.845424
0.303400	-0.894111
0.303500	-0.956756
0.303600	-1.015505
0.303700	-1.062569
0.303800	-1.086264
0.303900	-1.093080
0.304000	-1.117424
0.304100	-1.203114
0.304200	-1.321911
0.304300	-1.359238
0.304400	-1.334894
0.304500	-1.259915
0.304600	-1.267705
0.304700	-1.344631
0.304800	-1.463753
0.304900	-1.527696
0.305000	-1.505949
0.305100	-1.427400
0.305200	-1.387476
0.305300	-1.423830
0.305400	-1.492316
0.305500	-1.529968
0.305600	-1.532889
0.305700	-1.513090
0.305800	-1.506273
0.305900	-1.530293
0.306000	-1.571515
0.306100	-1.604947
0.306200	-1.621500
0.306300	-1.620527
0.306400	-1.628641
0.306500	-1.631887
0.306600	-1.610789
0.306700	-1.579629
0.306800	-1.561452
0.306900	-1.575734
0.307000	-1.618254
0.307100	-1.628316
0.307200	-1.598779
0.307300	-1.546846
0.307400	-1.541004
0.307500	-1.527696
0.307600	-1.511142
0.307700	-1.496536
0.307800	-1.479333
0.307900	-1.439085
0.308000	-1.370923
0.308100	-1.270302
0.308200	-1.191104
0.308300	-1.100870
0.308400	-1.064517
0.308500	-1.003820
0.308600	-0.982722
0.308700	-0.958379
0.308800	-0.975257
0.308900	-1.050884
0.309000	-1.200517
0.309100	-1.367352
0.309200	-1.519257
0.309300	-1.656555
0.309400	-1.779247
0.309500	-1.804565
0.309600	-1.698102
0.309700	-1.619228
0.309800	-1.622799
0.309900	-1.752956
0.310000	-1.880842
0.310100	-1.927582
0.310200	-1.889606
0.310300	-1.821119
0.310400	-1.814952
0.310500	-1.886360
0.310600	-1.980489
0.310700	-2.043458
0.310800	-2.069100
0.310900	-2.072995
0.311000	-2.091172
0.311100	-2.128499
0.311200	-2.166475
0.311300	-2.201530
0.311400	-2.225549
0.311500	-2.240804
0.311600	-2.286571
0.311700	-2.335907
0.311800	-2.362199
0.311900	-2.358953
0.312000	-2.380700
0.312100	-2.407316
0.312200	-2.440099
0.312300	-2.452433
0.312400	-2.400824
0.312500	-2.318380
0.312600	-2.306370
0.312700	-2.377779
0.312800	-2.486514
0.312900	-2.546237
0.313000	-2.508586
0.313100	-2.413483
0.313200	-2.357979
0.313300	-2.382323
0.313400	-2.486514
0.313500	-2.569932
0.313600	-2.567335
0.313700	-2.510858
0.313800	-2.449187
0.313900	-2.423869
0.314000	-2.431010
0.314100	-2.441397
0.314200	-2.437826
0.314300	-2.421597
0.314400	-2.392385
0.314500	-2.361874
0.314600	-2.313836
0.314700	-2.248919
0.314800	-2.194389
0.314900	-2.152193
0.315000	-2.132718
0.315100	-2.108374
0.315200	-2.068126
0.315300	-1.986331
0.315400	-1.927257
0.315500	-1.836374
0.315600	-1.773730
0.315700	-1.713033
0.315800	-1.653959
0.315900	-1.572813
0.316000	-1.499782
0.316100	-1.408250
0.316200	-1.332946
0.316300	-1.278741
0.316400	-1.247581
0.316500	-1.228106
0.316600	-1.212851
0.316700	-1.209930
0.316800	-1.202140
0.316900	-1.182665
0.317000	-1.163839
0.317100	-1.148584
0.317200	-1.152803
0.317300	-1.149882
0.317400	-1.153128
0.317500	-1.120994
0.317600	-1.020698
0.317700	-0.864250
0.317800	-0.797386
0.317900	-0.871391
0.318000	-0.997328
0.318100	-1.013233
0.318200	-0.910665
0.318300	-0.776613
0.318400	-0.709749
0.318500	-0.740909
0.318600	-0.831142
0.318700	-0.868145
0.318800	-0.831792
0.318900	-0.738961
0.319000	-0.677291
0.319100	-0.655219
0.319200	-0.663983
0.319300	-0.660412
0.319400	-0.646780
0.319500	-0.613023
0.319600	-0.586083
0.319700	-0.562064
0.319800	-0.539019
0.319900	-0.520193
0.320000	-0.482866
0.320100	-0.447162
0.320200	-0.336480
0.320300	-0.345893
0.320400	-0.192690
0.320500	0.140980
0.320600	0.524960
0.320700	0.597991
0.320800	0.107548
0.320900	-0.165425
0.321000	-0.010600
0.321100	0.685628
0.321200	1.341283
0.321300	1.420156
0.321400	0.934257
0.321500	0.364617
0.321600	0.320474
0.321700	0.852138
0.321800	1.526943
0.321900	1.749282
0.322000	1.464624
0.322100	1.132901
0.322200	1.056625
0.322300	1.157894
0.322400	1.377960
0.322500	1.471115
0.322600	1.423726
0.322700	1.250400
0.322800	1.114076
0.322900	1.088109
0.323000	0.995279
0.323100	0.933933
0.323200	0.941723
0.323300	1.011183
0.323400	1.090057
0.323500	1.058572
0.323600	0.699909
0.323700	0.369161
0.323800	0.226345
0.323900	0.430182
0.324000	0.514898
0.324100	0.424340
0.324200	0.371108
0.324300	0.296779
0.324400	0.290937
0.324500	0.272760
0.324600	0.263347
0.324700	0.267891
0.324800	0.259777
0.324900	0.235758
0.325000	0.241276
0.325100	0.235758
0.325200	0.164350
0.325300	0.078011
0.325400	-0.063182
0.325500	-0.229368
0.325600	-0.443267
0.325700	-0.735715
0.325800	-1.065815
0.325900	-1.525748
0.326000	-1.706216
0.326100	-1.847085
0.326200	-1.850980
0.326300	-1.798722
0.326400	-1.776975
0.326500	-1.874675
0.326600	-2.054494
0.326700	-2.215162
0.326800	-2.274561
0.326900	-2.250866
0.327000	-2.233339
0.327100	-2.275535
0.327200	-2.379077
0.327300	-2.497225
0.327400	-2.570257
0.327500	-2.586161
0.327600	-2.590705
0.327700	-2.605961
0.327800	-2.629655
0.327900	-2.657894
0.328000	-2.688405
0.328100	-2.704634
0.328200	-2.713398
0.328300	-2.738391
0.328400	-2.757541
0.328500	-2.768253
0.328600	-2.764358
0.328700	-2.765007
0.328800	-2.793246
0.328900	-2.809799
0.329000	-2.801036
0.329100	-2.734496
0.329200	-2.668605
0.329300	-2.682887
0.329400	-2.758515
0.329500	-2.845504
0.329600	-2.860110
0.329700	-2.786429
0.329800	-2.677045
0.329900	-2.620567
0.330000	-2.650753
0.330100	-2.728978
0.330200	-2.774420
0.330300	-2.726706
0.330400	-2.641016
0.330500	-2.562791
0.330600	-2.507937
0.330700	-2.484891
0.330800	-2.465091
0.330900	-2.429063
0.331000	-2.390762
0.331100	-2.337530
0.331200	-2.283325
0.331300	-2.209644
0.331400	-2.123305
0.331500	-2.051248
0.331600	-2.014245
0.331700	-1.986331
0.331800	-1.962637
0.331900	-1.902589
0.332000	-1.819171
0.332100	-1.768212
0.332200	-1.691935
0.332300	-1.652985
0.332400	-1.619877
0.332500	-1.576708
0.332600	-1.536784
0.332700	-1.479982
0.332800	-1.432593
0.332900	-1.386178
0.333000	-1.353395
0.333100	-1.339763
0.333200	-1.328727
0.333300	-1.308927
0.333400	-1.306331
0.333500	-1.269328
0.333600	-1.248230
0.333700	-1.215448
0.333800	-1.191753
0.333900	-1.186560
0.334000	-1.155075
0.334100	-1.133328
0.334200	-1.038875
0.334300	-0.880803
0.334400	-0.703582
0.334500	-0.651649
0.334600	-0.737987
0.334700	-0.800307
0.334800	-0.761357
0.334900	-0.609128
0.335000	-0.457224
0.335100	-0.374780
0.335200	-0.387439
0.335300	-0.421196
0.335400	-0.397826
0.335500	-0.326742
0.335600	-0.203726
0.335700	-0.068051
0.335800	0.323395
0.335900	0.603509
0.336000	0.933608
0.336100	1.231899
0.336200	1.608413
0.336300	1.920986
0.336400	2.279973
0.336500	2.635716
0.336600	2.890188
0.336700	3.004117
0.336800	2.945367
0.336900	2.907391
0.337000	2.828518
0.337100	2.937577
0.337200	3.073253
0.337300	3.218017
0.337400	2.994704
0.337500	2.282246
0.337600	2.023229
0.337700	2.204346
0.337800	2.858055
0.337900	3.212499
0.338000	3.039496
0.338100	2.331907
0.338200	1.803812
0.338300	1.802838
0.338400	2.313405
0.338500	2.763276
0.338600	2.687973
0.338700	2.298150
0.338800	1.949874
0.338900	1.750256
0.339000	1.702542
0.339100	1.716499
0.339200	1.541874
0.339300	1.291297
0.339400	0.972233
0.339500	0.804425
0.339600	0.615518
0.339700	0.395127
0.339800	0.213686
0.339900	0.230889
0.340000	0.296130
0.340100	0.347414
0.340200	0.189667
0.340300	-0.278055
0.340400	-0.584136
0.340500	-0.679238
0.340600	-0.504288
0.340700	-0.534475
0.340800	-0.715916
0.340900	-0.815238
0.341000	-0.905472
0.341100	-0.905796
0.341200	-0.915858
0.341300	-0.861004
0.341400	-0.818159
0.341500	-0.746751
0.341600	-0.727601
0.341700	-0.663658
0.341800	-0.593873
0.341900	-0.525386
0.342000	-0.456250
0.342100	-0.370561
0.342200	-0.302723
0.342300	-0.325768
0.342400	-0.321224
0.342500	-0.469558
0.342600	-1.132355
0.342700	-1.491667
0.342800	-1.522178
0.342900	-1.441682
0.343000	-1.018102
0.343100	-0.700660
0.343200	-1.646493
0.343300	-1.451744
0.343400	-1.540679
0.343500	-1.509195
0.343600	-1.428049
0.343700	-1.372546
0.343800	-1.407925
0.343900	-1.487123
0.344000	-1.554961
0.344100	-1.568269
0.344200	-1.545548
0.344300	-1.543600
0.344400	-1.555935
0.344500	-1.577357
0.344600	-1.602350
0.344700	-1.627667
0.344800	-1.648765
0.344900	-1.691935
0.345000	-1.755228
0.345100	-1.806188
0.345200	-1.836374
0.345300	-1.850331
0.345400	-1.897720
0.345500	-1.965558
0.345600	-2.034370
0.345700	-2.047353
0.345800	-2.000613
0.345900	-2.001262
0.346000	-2.078837
0.346100	-2.214838
0.346200	-2.343373
0.346300	-2.381349
0.346400	-2.337206
0.346500	-2.306370
0.346600	-2.340127
0.346700	-2.458924
0.346800	-2.587135
0.346900	-2.651402
0.347000	-2.631603
0.347100	-2.590056
0.347200	-2.577397
0.347300	-2.589082
0.347400	-2.614400
0.347500	-2.610180
0.347600	-2.589732
0.347700	-2.570906
0.347800	-2.552404
0.347900	-2.518323
0.348000	-2.460547
0.348100	-2.372585
0.348200	-2.292738
0.348300	-2.237559
0.348400	-2.188547
0.348500	-2.124279
0.348600	-2.014570
0.348700	-1.885711
0.348800	-1.767562
0.348900	-1.663696
0.349000	-1.589691
0.349100	-1.505624
0.349200	-1.416040
0.349300	-1.319963
0.349400	-1.207658
0.349500	-1.103142
0.349600	-1.012259
0.349700	-0.946044
0.349800	-0.883400
0.349900	-0.831142
0.350000	-0.778236
0.350100	-0.739610
0.350200	-0.688976
0.350300	-0.638665
0.350400	-0.600040
0.350500	-0.568556
0.350600	-0.565634
0.350700	-0.550054
0.350800	-0.522140
0.350900	-0.448136
0.351000	-0.291363
0.351100	-0.193339
0.351200	-0.207296
0.351300	-0.362122
0.351400	-0.436126
0.351500	-0.396852
0.351600	-0.282599
0.351700	-0.193664
0.351800	-0.205998
0.351900	-0.284547
0.352000	-0.371535
0.352100	-0.381272
0.352200	-0.335506
0.352300	-0.272212
0.352400	-0.242676
0.352500	-0.265072
0.352600	-0.280976
0.352700	-0.292986
0.352800	-0.273511
0.352900	-0.144003
0.353000	0.023157
0.353100	0.108522
0.353200	0.149744
0.353300	0.311061
0.353400	0.193562
0.353500	0.106899
0.353600	-0.174838
0.353700	-0.379649
0.353800	-0.445864
0.353900	-0.325768
0.354000	-0.340375
0.354100	-0.964870
0.354200	-0.878856
0.354300	-0.947992
0.354400	-0.940527
0.354500	-0.870417
0.354600	-0.752269
0.354700	-0.974608
0.354800	-1.109309
0.354900	-1.189481
0.355000	-1.183314
0.355100	-1.114178
0.355200	-0.996355
0.355300	-1.272250
0.355400	-1.224861
0.355500	-1.275495
0.355600	-1.302760
0.355700	-1.295295
0.355800	-1.304383
0.355900	-1.342035
0.356000	-1.388775
0.356100	-1.426751
0.356200	-1.436813
0.356300	-1.451419
0.356400	-1.466999
0.356500	-1.473166
0.356600	-1.465701
0.356700	-1.425452
0.356800	-1.243686
0.356900	-1.278417
0.357000	-1.443629
0.357100	-1.473815
0.357200	-1.465051
0.357300	-1.439085
0.357400	-1.402083
0.357500	-1.314121
0.357600	-1.188832
0.357700	-1.080746
0.357800	-0.961300
0.357900	-0.859056
0.358000	-0.751944
0.358100	-0.709100
0.358200	-0.677291
0.358300	-0.664632
0.358400	-0.670799
0.358500	-0.776937
0.358600	-0.868794
0.358700	-0.982722
0.358800	-1.097624
0.358900	-1.264135
0.359000	-1.530617
0.359100	-1.530942
0.359200	-1.599104
0.359300	-1.737052
0.359400	-1.890255
0.359500	-1.935372
0.359600	-1.872403
0.359700	-1.787037
0.359800	-1.794503
0.359900	-1.920116
0.360000	-2.063907
0.360100	-2.125902
0.360200	-2.086303
0.360300	-1.996718
0.360400	-1.952250
0.360500	-1.986980
0.360600	-2.061635
0.360700	-2.110647
0.360800	-2.117787
0.360900	-2.094417
0.361000	-2.084031
0.361100	-2.082083
0.361200	-2.101234
0.361300	-2.107076
0.361400	-2.104804
0.361500	-2.102532
0.361600	-2.112269
0.361700	-2.121682
0.361800	-2.110971
0.361900	-2.086627
0.362000	-2.058389
0.362100	-2.040861
0.362200	-2.038914
0.362300	-2.012298
0.362400	-1.928556
0.362500	-1.823391
0.362600	-1.775352
0.362700	-1.802293
0.362800	-1.887658
0.362900	-1.949329
0.363000	-1.906159
0.363100	-1.815925
0.363200	-1.749710
0.363300	-1.760422
0.363400	-1.846436
0.363500	-1.928231
0.363600	-1.951276
0.363700	-1.902589
0.363800	-1.841567
0.363900	-1.809434
0.364000	-1.812679
0.364100	-1.819171
0.364200	-1.819820
0.364300	-1.803267
0.364400	-1.779247
0.364500	-1.748412
0.364600	-1.705243
0.364700	-1.641300
0.364800	-1.570541
0.364900	-1.516336
0.365000	-1.477710
0.365100	-1.443629
0.365200	-1.385529
0.365300	-1.291400
0.365400	-1.211553
0.365500	-1.090484
0.365600	-0.997328
0.365700	-0.921701
0.365800	-0.852565
0.365900	-0.777262
0.366000	-0.701959
0.366100	-0.622436
0.366200	-0.552327
0.366300	-0.499744
0.366400	-0.479620
0.366500	-0.457224
0.366600	-0.439697
0.366700	-0.425415
0.366800	-0.408212
0.366900	-0.384518
0.367000	-0.361472
0.367100	-0.348489
0.367200	-0.346542
0.367300	-0.356604
0.367400	-0.357902
0.367500	-0.341673
0.367600	-0.234886
0.367700	-0.107650
0.367800	-0.021960
0.367900	-0.107000
0.368000	-0.224174
0.368100	-0.262475
0.368200	-0.188470
0.368300	-0.075516
0.368400	-0.016767
0.368500	-0.050199
0.368600	-0.135888
0.368700	-0.198857
0.368800	-0.187821
0.368900	-0.139134
0.369000	0.019262
0.369100	0.177982
0.369200	0.217581
0.369300	0.132216
0.369400	0.177982
0.369500	0.190966
0.369600	0.289963
0.369700	0.347414
0.369800	0.396750
0.369900	0.481141
0.370000	0.496721
0.370100	0.325018
0.370200	0.033219
0.370300	-0.233587
0.370400	-0.489358
0.370500	-0.447487
0.370600	-0.524413
0.370700	-0.760059
0.370800	-0.858083
0.370900	-0.991811
0.371000	-1.052832
0.371100	-1.062245
0.371200	-1.043419
0.371300	-1.121968
0.371400	-1.273872
0.371500	-1.446550
0.371600	-1.551066
0.371700	-1.586121
0.371800	-1.589367
0.371900	-1.657204
0.372000	-1.777949
0.372100	-1.908431
0.372200	-2.006131
0.372300	-2.084031
0.372400	-2.135964
0.372500	-2.212890
0.372600	-2.289492
0.372700	-2.368041
0.372800	-2.428738
0.372900	-2.467364
0.373000	-2.496901
0.373100	-2.522867
0.373200	-2.534228
0.373300	-2.520595
0.373400	-2.493006
0.373500	-2.468662
0.373600	-2.497550
0.373700	-2.515727
0.373800	-2.501445
0.373900	-2.440748
0.374000	-2.372261
0.374100	-2.336881
0.374200	-2.294685
0.374300	-2.244375
0.374400	-2.197635
0.374500	-2.134666
0.374600	-2.072021
0.374700	-1.991849
0.374800	-1.911677
0.374900	-1.841892
0.375000	-1.781195
0.375100	-1.720498
0.375200	-1.664345
0.375300	-1.616632
0.375400	-1.571515
0.375500	-1.540355
0.375600	-1.514713
0.375700	-1.514713
0.375800	-1.525099
0.375900	-1.595858
0.376000	-1.727639
0.376100	-1.835725
0.376200	-1.810407
0.376300	-1.700374
0.376400	-1.606569
0.376500	-1.625720
0.376600	-1.726665
0.376700	-1.808135
0.376800	-1.796450
0.376900	-1.705567
0.377000	-1.612737
0.377100	-1.589367
0.377200	-1.629615
0.377300	-1.684469
0.377400	-1.683496
0.377500	-1.648116
0.377600	-1.595209
0.377700	-1.569892
0.377800	-1.550417
0.377900	-1.539381
0.378000	-1.517309
0.378100	-1.477386
0.378200	-1.454665
0.378300	-1.449147
0.378400	-1.454665
0.378500	-1.433242
0.378600	-1.400460
0.378700	-1.368001
0.378800	-1.365405
0.378900	-1.373195
0.379000	-1.360211
0.379100	-1.280040
0.379200	-1.203438
0.379300	-1.205710
0.379400	-1.280689
0.379500	-1.387152
0.379600	-1.429672
0.379700	-1.385204
0.379800	-1.311199
0.379900	-1.302760
0.380000	-1.370598
0.380100	-1.492316
0.380200	-1.572813
0.380300	-1.581577
0.380400	-1.553013
0.380500	-1.548145
0.380600	-1.583849
0.380700	-1.640651
0.380800	-1.698102
0.380900	-1.738350
0.381000	-1.777949
0.381100	-1.804240
0.381200	-1.827610
0.381300	-1.824689
0.381400	-1.815601
0.381500	-1.802293
0.381600	-1.811381
0.381700	-1.834102
0.381800	-1.864937
0.381900	-1.856823
0.382000	-1.815925
0.382100	-1.793529
0.382200	-1.733806
0.382300	-1.700049
0.382400	-1.653634
0.382500	-1.586445
0.382600	-1.504326
0.382700	-1.408250
0.382800	-1.296593
0.382900	-1.196622
0.383000	-1.113853
0.383100	-1.050235
0.383200	-0.987591
0.383300	-0.928517
0.383400	-0.883725
0.383500	-0.814589
0.383600	-0.751620
0.383700	-0.679238
0.383800	-0.629252
0.383900	-0.562064
0.384000	-0.538370
0.384100	-0.465014
0.384200	-0.370561
0.384300	-0.189120
0.384400	0.003033
0.384500	0.089696
0.384600	0.035166
0.384700	-0.035268
0.384800	0.024780
0.384900	0.154288
0.385000	0.718735
0.385100	1.287078
0.385200	1.128357
0.385300	0.831365
0.385400	0.903422
0.385500	1.639249
0.385600	2.476021
0.385700	3.242360
0.385800	3.462428
0.385900	3.603621
0.386000	3.717226
0.386100	3.858744
0.386200	3.931126
0.386300	3.842839
0.386400	3.614657
0.386500	3.272871
0.386600	3.074876
0.386700	2.704527
0.386800	2.312107
0.386900	1.859315
0.387000	1.405225
0.387100	1.097846
0.387200	1.119918
0.387300	1.091030
0.387400	0.810592
0.387500	0.028999
0.387600	-0.293635
0.387700	-0.219955
0.387800	0.403891
0.387900	0.775537
0.388000	0.582736
0.388100	-0.083306
0.388200	-0.679563
0.388300	-0.644183
0.388400	-0.027478
0.388500	0.593447
0.388600	0.628826
0.388700	0.226020
0.388800	-0.129397
0.388900	-0.194962
0.389000	-0.059936
0.389100	0.169868
0.389200	0.202975
0.389300	0.104302
0.389400	-0.093043
0.389500	-0.133941
0.389600	-0.137511
0.389700	-0.144976
0.389800	-0.116738
0.389900	0.060484
0.390000	0.324044
0.390100	0.592473
0.390200	0.695041
0.390300	0.540215
0.390400	0.519118
0.390500	0.752816
0.390600	1.251698
0.390700	1.582122
0.390800	1.744738
0.390900	1.914819
0.391000	2.089444
0.391100	2.276078
0.391200	2.452976
0.391300	2.531525
0.391400	2.570799
0.391500	2.542236
0.391600	2.472126
0.391700	2.364365
0.391800	2.266016
0.391900	2.160852
0.392000	2.080031
0.392100	2.015439
0.392200	1.891124
0.392300	1.743764
0.392400	1.544146
0.392500	1.241312
0.392600	0.399672
0.392700	-0.789596
0.392800	-1.267056
0.392900	-1.213825
0.393000	-0.672746
0.393100	-0.592899
0.393200	-1.238493
0.393300	-1.410846
0.393400	-1.543276
0.393500	-1.578331
0.393600	-1.546197
0.393700	-1.543276
0.393800	-1.606569
0.393900	-1.738350
0.394000	-1.851305
0.394100	-1.918818
0.394200	-1.945434
0.394300	-1.972374
0.394400	-2.021062
0.394500	-2.086627
0.394600	-2.150246
0.394700	-2.202828
0.394800	-2.235611
0.394900	-2.282351
0.395000	-2.328766
0.395100	-2.369989
0.395200	-2.397254
0.395300	-2.404070
0.395400	-2.421597
0.395500	-2.430036
0.395600	-2.431335
0.395700	-2.403421
0.395800	-2.318055
0.395900	-2.272289
0.396000	-2.282351
0.396100	-2.357005
0.396200	-2.434581
0.396300	-2.432633
0.396400	-2.348891
0.396500	-2.271640
0.396600	-2.276509
0.396700	-2.350189
0.396800	-2.448213
0.396900	-2.493330
0.397000	-2.484242
0.397100	-2.454056
0.397200	-2.428738
0.397300	-2.431659
0.397400	-2.447239
0.397500	-2.454056
0.397600	-2.431010
0.397700	-2.400175
0.397800	-2.371936
0.397900	-2.318704
0.398000	-2.234962
0.398100	-2.139859
0.398200	-2.045081
0.398300	-1.967505
0.398400	-1.899343
0.398500	-1.814627
0.398600	-1.690961
0.398700	-1.545223
0.398800	-1.387152
0.398900	-1.244985
0.399000	-1.123915
0.399100	-1.003171
0.399200	-0.866846
0.399300	-0.724355
0.399400	-0.584785
0.399500	-0.452355
0.399600	-0.340699
0.399700	-0.248518
0.399800	-0.182303
0.399900	-0.117062
0.400000	-0.070972
0.400100	-0.026829
0.400200	0.015042
0.400300	0.067300
0.400400	0.091644
0.400500	0.117286
0.400600	0.115987
0.400700	0.121180
0.400800	0.127023
0.400900	0.187395
0.401000	0.338001
0.401100	0.667776
0.401200	0.627203
0.401300	0.260426
0.401400	0.176359
0.401500	0.198431
0.401600	0.431805
0.401700	1.138419
0.401800	1.189703
0.401900	0.774888
0.402000	0.341896
0.402100	0.375977
0.402200	0.815136
0.402300	1.350696
0.402400	1.701568
0.402500	1.789855
0.402600	1.804461
0.402700	1.941434
0.402800	2.157931
0.402900	2.404613
0.403000	2.624355
0.403100	2.832737
0.403200	3.200489
0.403300	3.499755
0.403400	3.711059
0.403500	3.873026
0.403600	4.051871
0.403700	4.333610
0.403800	4.748105
0.403900	5.217131
0.404000	5.624486
0.404100	5.484914
0.404200	5.103526
0.404300	5.098657
0.404400	5.616047
0.404500	6.355132
0.404600	6.743989
0.404700	6.471659
0.404800	5.756593
0.404900	5.382994
0.405000	5.562490
0.405100	6.023079
0.405200	6.136685
0.405300	5.795543
0.405400	5.201226
0.405500	4.854244
0.405600	4.653326
0.405700	4.642615
0.405800	4.532581
0.405900	4.386518
0.406000	4.186249
0.406100	4.055442
0.406200	4.052521
0.406300	3.971375
0.406400	3.858420
0.406500	3.789932
0.406600	3.845436
0.406700	3.891527
0.406800	3.881140
0.406900	3.613684
0.407000	3.127134
0.407100	2.774312
0.407200	2.555544
0.407300	2.256928
0.407400	2.024852
0.407500	1.638600
0.407600	1.343879
0.407700	1.025140
0.407800	0.797609
0.407900	0.572998
0.408000	0.394154
0.408100	0.220178
0.408200	-0.019363
0.408300	-0.259229
0.408400	-0.465014
0.408500	-0.599391
0.408600	-0.782131
0.408700	-0.871391
0.408800	-0.951238
0.408900	-1.043744
0.409000	-1.140145
0.409100	-1.283935
0.409200	-1.392670
0.409300	-1.509195
0.409400	-1.657204
0.409500	-1.701672
0.409600	-1.657854
0.409700	-1.577682
0.409800	-1.596507
0.409900	-1.725367
0.410000	-1.888956
0.410100	-1.971076
0.410200	-1.964584
0.410300	-1.896746
0.410400	-1.874026
0.410500	-1.924661
0.410600	-1.997043
0.410700	-2.045405
0.410800	-2.029501
0.410900	-1.982436
0.411000	-1.932775
0.411100	-1.909081
0.411200	-1.892851
0.411300	-1.867859
0.411400	-1.823391
0.411500	-1.786388
0.411600	-1.776002
0.411700	-1.763018
0.411800	-1.776975
0.411900	-1.787037
0.412000	-1.793204
0.412100	-1.817873
0.412200	-1.872078
0.412300	-1.918169
0.412400	-1.916221
0.412500	-1.871104
0.412600	-1.871754
0.412700	-1.952250
0.412800	-2.070398
0.412900	-2.182055
0.413000	-2.188547
0.413100	-2.128174
0.413200	-2.082732
0.413300	-2.127525
0.413400	-2.232041
0.413500	-2.327793
0.413600	-2.359602
0.413700	-2.335907
0.413800	-2.293062
0.413900	-2.282026
0.414000	-2.292089
0.414100	-2.303124
0.414200	-2.296633
0.414300	-2.266771
0.414400	-2.230093
0.414500	-2.183353
0.414600	-2.128174
0.414700	-2.046055
0.414800	-1.951276
0.414900	-1.864613
0.415000	-1.794503
0.415100	-1.734130
0.415200	-1.667266
0.415300	-1.559505
0.415400	-1.465376
0.415500	-1.329376
0.415600	-1.236221
0.415700	-1.160593
0.415800	-1.086264
0.415900	-1.000250
0.416000	-0.900928
0.416100	-0.788298
0.416200	-0.687353
0.416300	-0.601663
0.416400	-0.543563
0.416500	-0.490981
0.416600	-0.442293
0.416700	-0.412432
0.416800	-0.375429
0.416900	-0.331286
0.417000	-0.300127
0.417100	-0.275134
0.417200	-0.270914
0.417300	-0.278055
0.417400	-0.283248
0.417500	-0.276107
0.417600	-0.186523
0.417700	-0.059287
0.417800	0.025104
0.417900	-0.036891
0.418000	-0.164451
0.418100	-0.201129
0.418200	-0.139134
0.418300	0.014069
0.418400	0.100407
0.418500	0.120531
0.418600	0.061133
0.418700	0.033868
0.418800	0.062756
0.418900	0.516521
0.419000	1.183536
0.419100	1.620748
0.419200	1.853148
0.419300	1.963181
0.419400	2.163124
0.419500	2.506856
0.419600	2.856432
0.419700	3.158294
0.419800	3.325778
0.419900	3.587717
0.420000	3.659774
0.420100	3.679574
0.420200	3.631860
0.420300	3.568566
0.420400	3.453339
0.420500	3.605244
0.420600	3.735078
0.420700	3.758123
0.420800	3.236518
0.420900	2.677262
0.421000	2.571124
0.421100	2.882398
0.421200	3.421206
0.421300	3.412442
0.421400	2.927515
0.421500	2.275754
0.421600	2.096585
0.421700	2.370532
0.421800	2.867467
0.421900	3.118370
0.422000	2.978150
0.422100	2.729520
0.422200	2.702580
0.422300	2.713940
0.422400	2.809043
0.422500	2.840527
0.422600	2.753539
0.422700	2.592546
0.422800	2.393577
0.422900	2.195582
0.423000	1.986227
0.423100	1.759344
0.423200	1.683716
0.423300	1.705463
0.423400	1.724938
0.423500	1.609387
0.423600	1.212424
0.423700	0.862849
0.423800	0.699909
0.423900	0.776186
0.424000	0.918353
0.424100	0.864148
0.424200	0.840778
0.424300	0.849542
0.424400	0.919976
0.424500	1.039097
0.424600	1.153025
0.424700	1.288700
0.424800	1.426972
0.424900	1.502924
0.425000	1.603220
0.425100	1.623669
0.425200	1.589912
0.425300	1.547392
0.425400	1.413664
0.425500	1.312395
0.425600	1.104663
0.425700	0.909589
0.425800	0.658688
0.425900	0.104302
0.426000	-1.039849
0.426100	-1.363782
0.426200	-1.377414
0.426300	-1.287180
0.426400	-1.040822
0.426500	-1.261538
0.426600	-1.393319
0.426700	-1.524125
0.426800	-1.548145
0.426900	-1.488421
0.427000	-1.414417
0.427100	-1.401758
0.427200	-1.462779
0.427300	-1.533863
0.427400	-1.579629
0.427500	-1.586121
0.427600	-1.591639
0.427700	-1.598779
0.427800	-1.610140
0.427900	-1.616307
0.428000	-1.612737
0.428100	-1.597481
0.428200	-1.597481
0.428300	-1.609815
0.428400	-1.635457
0.428500	-1.643247
0.428600	-1.645844
0.428700	-1.659476
0.428800	-1.687715
0.428900	-1.718550
0.429000	-1.725367
0.429100	-1.659152
0.429200	-1.590989
0.429300	-1.586770
0.429400	-1.646818
0.429500	-1.721147
0.429600	-1.735104
0.429700	-1.659152
0.429800	-1.555935
0.429900	-1.483877
0.430000	-1.488097
0.430100	-1.525099
0.430200	-1.539705
0.430300	-1.495238
0.430400	-1.416364
0.430500	-1.339438
0.430600	-1.303409
0.430700	-1.282312
0.430800	-1.258942
0.430900	-1.227457
0.431000	-1.209281
0.431100	-1.190455
0.431200	-1.167409
0.431300	-1.118398
0.431400	-1.053806
0.431500	-0.999601
0.431600	-0.973959
0.431700	-0.968441
0.431800	-0.981099
0.431900	-0.966169
0.432000	-0.927543
0.432100	-0.904823
0.432200	-0.853539
0.432300	-0.839906
0.432400	-0.822054
0.432500	-0.807448
0.432600	-0.773691
0.432700	-0.730847
0.432800	-0.682808
0.432900	-0.637042
0.433000	-0.598742
0.433100	-0.572775
0.433200	-0.553300
0.433300	-0.535773
0.433400	-0.526360
0.433500	-0.495849
0.433600	-0.471830
0.433700	-0.437100
0.433800	-0.416002
0.433900	-0.392957
0.434000	-0.384842
0.434100	-0.354981
0.434200	-0.297205
0.434300	-0.172566
0.434400	-0.010275
0.434500	0.039711
0.434600	-0.054418
0.434700	-0.163153
0.434800	-0.185549
0.434900	-0.077139
0.435000	0.013095
0.435100	0.051071
0.435200	-0.002810
0.435300	-0.078762
0.435400	-0.094991
0.435500	-0.043707
0.435600	0.155911
0.435700	0.656740
0.435800	0.990085
0.435900	1.210476
0.436000	1.504547
0.436100	1.905406
0.436200	2.237778
0.436300	2.506532
0.436400	2.679210
0.436500	2.911935
0.436600	3.193998
0.436700	3.387124
0.436800	3.317339
0.436900	3.246905
0.437000	3.124537
0.437100	3.157644
0.437200	3.456910
0.437300	3.624070
0.437400	3.628290
0.437500	3.076823
0.437600	2.865195
0.437700	3.099544
0.437800	3.799345
0.437900	4.391386
0.438000	4.334584
0.438100	3.750009
0.438200	3.312146
0.438300	3.414389
0.438400	3.984033
0.438500	4.500771
0.438600	4.445267
0.438700	4.002535
0.438800	3.609789
0.438900	3.546495
0.439000	3.469893
0.439100	3.373492
0.439200	3.046637
0.439300	2.631171
0.439400	2.266016
0.439500	2.004403
0.439600	1.797645
0.439700	1.531812
0.439800	1.253970
0.439900	1.112777
0.440000	1.095250
0.440100	1.086486
0.440200	0.898553
0.440300	0.508731
0.440400	0.115663
0.440500	-0.125177
0.440600	-0.080060
0.440700	-0.088499
0.440800	-0.314733
0.440900	-0.454303
0.441000	-0.590303
0.441100	-0.694493
0.441200	-0.796088
0.441300	-0.852240
0.441400	-0.938904
0.441500	-0.995056
0.441600	-1.080746
0.441700	-1.157672
0.441800	-1.268030
0.441900	-1.339114
0.442000	-1.394293
0.442100	-1.409548
0.442200	-1.428049
0.442300	-1.451094
0.442400	-1.476087
0.442500	-1.515362
0.442600	-1.616632
0.442700	-1.775677
0.442800	-1.875973
0.442900	-1.845138
0.443000	-1.756202
0.443100	-1.708813
0.443200	-1.800670
0.443300	-1.957119
0.443400	-2.088250
0.443500	-2.100909
0.443600	-2.067152
0.443700	-2.031448
0.443800	-2.083057
0.443900	-2.197310
0.444000	-2.314160
0.444100	-2.358304
0.444200	-2.366418
0.444300	-2.372261
0.444400	-2.399850
0.444500	-2.437826
0.444600	-2.464442
0.444700	-2.461196
0.444800	-2.450485
0.444900	-2.437502
0.445000	-2.452757
0.445100	-2.470609
0.445200	-2.466390
0.445300	-2.439774
0.445400	-2.427115
0.445500	-2.431984
0.445600	-2.449836
0.445700	-2.431335
0.445800	-2.342724
0.445900	-2.276833
0.446000	-2.279430
0.446100	-2.343697
0.446200	-2.424519
0.446300	-2.417053
0.446400	-2.325845
0.446500	-2.220680
0.446600	-2.194714
0.446700	-2.251191
0.446800	-2.341425
0.446900	-2.369339
0.447000	-2.324222
0.447100	-2.254437
0.447200	-2.206723
0.447300	-2.194389
0.447400	-2.202179
0.447500	-2.195363
0.447600	-2.168747
0.447700	-2.134341
0.447800	-2.101883
0.447900	-2.065854
0.448000	-2.006780
0.448100	-1.932775
0.448200	-1.869481
0.448300	-1.823715
0.448400	-1.797749
0.448500	-1.777625
0.448600	-1.726665
0.448700	-1.654608
0.448800	-1.609166
0.448900	-1.535810
0.449000	-1.501405
0.449100	-1.464078
0.449200	-1.425128
0.449300	-1.371247
0.449400	-1.306655
0.449500	-1.241739
0.449600	-1.192078
0.449700	-1.166111
0.449800	-1.142092
0.449900	-1.120994
0.450000	-1.101195
0.450100	-1.086264
0.450200	-1.068412
0.450300	-1.050235
0.450400	-1.040822
0.450500	-1.035305
0.450600	-1.043095
0.450700	-1.058999
0.450800	-1.058674
0.450900	-1.031410
0.451000	-0.890216
0.451100	-0.814264
0.451200	-0.813615
0.451300	-0.972336
0.451400	-1.066464
0.451500	-1.066140
0.451600	-0.964870
0.451700	-0.867820
0.451800	-0.857434
0.451900	-0.924622
0.452000	-0.998951
0.452100	-0.997328
0.452200	-0.922675
0.452300	-0.820107
0.452400	-0.749997
0.452500	-0.727925
0.452600	-0.725653
0.452700	-0.722732
0.452800	-0.709749
0.452900	-0.692871
0.453000	-0.681186
0.453100	-0.680536
0.453200	-0.691248
0.453300	-0.695143
0.453400	-0.723057
0.453500	-0.754217
0.453600	-0.794465
0.453700	-0.835037
0.453800	-0.846398
0.453900	-0.842503
0.454000	-0.848994
0.454100	-0.898980
0.454200	-1.007066
0.454300	-1.058999
0.454400	-1.050884
0.454500	-0.984021
0.454600	-0.968116
0.454700	-1.032383
0.454800	-1.153777
0.454900	-1.243686
0.455000	-1.253099
0.455100	-1.196297
0.455200	-1.149233
0.455300	-1.174550
0.455400	-1.242063
0.455500	-1.294646
0.455600	-1.317042
0.455700	-1.305682
0.455800	-1.301462
0.455900	-1.316717
0.456000	-1.350798
0.456100	-1.390073
0.456200	-1.414417
0.456300	-1.428698
0.456400	-1.447524
0.456500	-1.451419
0.456600	-1.444927
0.456700	-1.432918
0.456800	-1.417013
0.456900	-1.448173
0.457000	-1.507572
0.457100	-1.547495
0.457200	-1.562426
0.457300	-1.536135
0.457400	-1.541653
0.457500	-1.557557
0.457600	-1.560479
0.457700	-1.562102
0.457800	-1.565023
0.457900	-1.557233
0.458000	-1.555285
0.458100	-1.545548
0.458200	-1.545873
0.458300	-1.550092
0.458400	-1.558856
0.458500	-1.567295
0.458600	-1.584173
0.458700	-1.596832
0.458800	-1.612737
0.458900	-1.635782
0.459000	-1.663047
0.459100	-1.705892
0.459200	-1.750360
0.459300	-1.880193
0.459400	-2.030799
0.459500	-2.091496
0.459600	-2.035992
0.459700	-1.936995
0.459800	-1.935047
0.459900	-2.050274
0.460000	-2.191792
0.460100	-2.271964
0.460200	-2.234313
0.460300	-2.151544
0.460400	-2.096365
0.460500	-2.112919
0.460600	-2.170694
0.460700	-2.210294
0.460800	-2.191143
0.460900	-2.139210
0.461000	-2.094093
0.461100	-2.072995
0.461200	-2.060336
0.461300	-2.052871
0.461400	-2.033396
0.461500	-2.014245
0.461600	-2.002236
0.461700	-2.000613
0.461800	-1.986007
0.461900	-1.950303
0.462000	-1.914274
0.462100	-1.893501
0.462200	-1.866560
0.462300	-1.837023
0.462400	-1.757500
0.462500	-1.639677
0.462600	-1.577682
0.462700	-1.585147
0.462800	-1.657529
0.462900	-1.722445
0.463000	-1.700374
0.463100	-1.617605
0.463200	-1.559180
0.463300	-1.592288
0.463400	-1.696154
0.463500	-1.808460
0.463600	-1.859095
0.463700	-1.842866
0.463800	-1.812679
0.463900	-1.817548
0.464000	-1.849357
0.464100	-1.894150
0.464200	-1.918493
0.464300	-1.926608
0.464400	-1.924985
0.464500	-1.918493
0.464600	-1.899992
0.464700	-1.844489
0.464800	-1.785739
0.464900	-1.747114
0.465000	-1.722445
0.465100	-1.710760
0.465200	-1.684145
0.465300	-1.618254
0.465400	-1.565347
0.465500	-1.513414
0.465600	-1.465376
0.465700	-1.448173
0.465800	-1.438760
0.465900	-1.423180
0.466000	-1.407925
0.466100	-1.378713
0.466200	-1.356316
0.466300	-1.355018
0.466400	-1.374493
0.466500	-1.395915
0.466600	-1.418312
0.466700	-1.442006
0.466800	-1.475114
0.466900	-1.486799
0.467000	-1.517958
0.467100	-1.544250
0.467200	-1.575410
0.467300	-1.622799
0.467400	-1.665319
0.467500	-1.695181
0.467600	-1.645844
0.467700	-1.533538
0.467800	-1.483553
0.467900	-1.566970
0.468000	-1.722121
0.468100	-1.793529
0.468200	-1.735104
0.468300	-1.612412
0.468400	-1.536135
0.468500	-1.553013
0.468600	-1.640001
0.468700	-1.693233
0.468800	-1.671161
0.468900	-1.594560
0.469000	-1.517958
0.469100	-1.489720
0.469200	-1.490369
0.469300	-1.500106
0.469400	-1.489395
0.469500	-1.468297
0.469600	-1.443304
0.469700	-1.421882
0.469800	-1.406302
0.469900	-1.377739
0.470000	-1.360861
0.470100	-1.359238
0.470200	-1.372546
0.470300	-1.392345
0.470400	-1.388450
0.470500	-1.350149
0.470600	-1.316068
0.470700	-1.282636
0.470800	-1.346903
0.470900	-1.410522
0.471000	-1.410846
0.471100	-1.356316
0.471200	-1.246608
0.471300	-1.220641
0.471400	-1.284908
0.471500	-1.385529
0.471600	-1.426426
0.471700	-1.381309
0.471800	-1.289777
0.471900	-1.237519
0.472000	-1.269977
0.472100	-1.322235
0.472200	-1.337815
0.472300	-1.335219
0.472400	-1.321261
0.472500	-1.323858
0.472600	-1.355667
0.472700	-1.402407
0.472800	-1.437787
0.472900	-1.453367
0.473000	-1.476736
0.473100	-1.502054
0.473200	-1.523801
0.473300	-1.534512
0.473400	-1.532889
0.473500	-1.533538
0.473600	-1.583849
0.473700	-1.653959
0.473800	-1.691286
0.473900	-1.697128
0.474000	-1.677004
0.474100	-1.688040
0.474200	-1.699725
0.474300	-1.708813
0.474400	-1.715305
0.474500	-1.726016
0.474600	-1.734455
0.474700	-1.746465
0.474800	-1.753930
0.474900	-1.759448
0.475000	-1.766264
0.475100	-1.766913
0.475200	-1.773730
0.475300	-1.776002
0.475400	-1.774703
0.475500	-1.770808
0.475600	-1.759448
0.475700	-1.761071
0.475800	-1.759123
0.475900	-1.794827
0.476000	-1.899992
0.476100	-1.991200
0.476200	-1.982436
0.476300	-1.854226
0.476400	-1.746140
0.476500	-1.741920
0.476600	-1.869481
0.476700	-2.003859
0.476800	-2.054169
0.476900	-2.019114
0.477000	-1.963286
0.477100	-1.973997
0.477200	-2.069100
0.477300	-2.188547
0.477400	-2.269368
0.477500	-2.305721
0.477600	-2.321950
0.477700	-2.332337
0.477800	-2.361549
0.477900	-2.387841
0.478000	-2.412509
0.478100	-2.433931
0.478200	-2.450161
0.478300	-2.482944
0.478400	-2.531631
0.478500	-2.548185
0.478600	-2.552080
0.478700	-2.561817
0.478800	-2.575774
0.478900	-2.605312
0.479000	-2.610830
0.479100	-2.555001
0.479200	-2.471908
0.479300	-2.457951
0.479400	-2.511182
0.479500	-2.613102
0.479600	-2.659192
0.479700	-2.615049
0.479800	-2.516700
0.479900	-2.466065
0.480000	-2.501769
0.480100	-2.613426
0.480200	-2.721837
0.480300	-2.744233
0.480400	-2.710477
0.480500	-2.667632
0.480600	-2.651402
0.480700	-2.674773
0.480800	-2.700415
0.480900	-2.706582
0.481000	-2.704310
0.481100	-2.690677
0.481200	-2.656271
0.481300	-2.615698
0.481400	-2.536824
0.481500	-2.468986
0.481600	-2.419325
0.481700	-2.377129
0.481800	-2.352136
0.481900	-2.299879
0.482000	-2.215487
0.482100	-2.147000
0.482200	-2.046704
0.482300	-1.981138
0.482400	-1.919143
0.482500	-1.863964
0.482600	-1.804240
0.482700	-1.730235
0.482800	-1.642923
0.482900	-1.570216
0.483000	-1.505300
0.483100	-1.470569
0.483200	-1.428698
0.483300	-1.405653
0.483400	-1.383906
0.483500	-1.355018
0.483600	-1.324832
0.483700	-1.296269
0.483800	-1.278092
0.483900	-1.270627
0.484000	-1.280364
0.484100	-1.279066
0.484200	-1.247906
0.484300	-1.151180
0.484400	-1.008364
0.484500	-0.945395
0.484600	-1.042770
0.484700	-1.174226
0.484800	-1.195324
0.484900	-1.105414
0.485000	-0.960002
0.485100	-0.894111
0.485200	-0.915209
0.485300	-0.988565
0.485400	-1.009013
0.485500	-0.947667
0.485600	-0.858407
0.485700	-0.776613
0.485800	-0.741233
0.485900	-0.725004
0.486000	-0.708775
0.486100	-0.680861
0.486200	-0.654570
0.486300	-0.626656
0.486400	-0.595821
0.486500	-0.579916
0.486600	-0.550379
0.486700	-0.542265
0.486800	-0.569529
0.486900	-0.593224
0.487000	-0.622761
0.487100	-0.631525
0.487200	-0.609453
0.487300	-0.606532
0.487400	-0.626331
0.487500	-0.725653
0.487600	-0.801605
0.487700	-0.814264
0.487800	-0.744479
0.487900	-0.284222
0.488000	-0.259554
0.488100	-0.886321
0.488200	-0.908718
0.488300	-0.931438
0.488400	-0.767849
0.488500	-0.170294
0.488600	0.036789
0.488700	-0.183602
0.488800	-0.473129
0.488900	-0.558169
0.489000	-0.554599
0.489100	-0.469883
0.489200	-0.533825
0.489300	-0.655868
0.489400	-0.848345
0.489500	-0.990837
0.489600	-1.115152
0.489700	-1.340087
0.489800	-1.284259
0.489900	-1.310550
0.490000	-1.327753
0.490100	-1.344956
0.490200	-1.378063
0.490300	-1.461157
0.490400	-1.543276
0.490500	-1.597481
0.490600	-1.591639
0.490700	-1.602674
0.490800	-1.647142
0.490900	-1.690312
0.491000	-1.724718
0.491100	-1.752632
0.491200	-1.777949
0.491300	-1.800994
0.491400	-1.819820
0.491500	-1.840594
0.491600	-1.862016
0.491700	-1.886035
0.491800	-1.910054
0.491900	-1.936346
0.492000	-1.955820
0.492100	-1.971725
0.492200	-1.985682
0.492300	-2.009052
0.492400	-2.036966
0.492500	-2.063257
0.492600	-2.162255
0.492700	-2.319678
0.492800	-2.420299
0.492900	-2.405044
0.493000	-2.304423
0.493100	-2.245349
0.493200	-2.307344
0.493300	-2.452108
0.493400	-2.574801
0.493500	-2.591030
0.493600	-2.539421
0.493700	-2.491383
0.493800	-2.524490
0.493900	-2.629980
0.494000	-2.725408
0.494100	-2.781885
0.494200	-2.791623
0.494300	-2.799413
0.494400	-2.823107
0.494500	-2.845828
0.494600	-2.865628
0.494700	-2.859136
0.494800	-2.850372
0.494900	-2.839012
0.495000	-2.849399
0.495100	-2.848749
0.495200	-2.828301
0.495300	-2.787728
0.495400	-2.770849
0.495500	-2.777341
0.495600	-2.786105
0.495700	-2.754620
0.495800	-2.654648
0.495900	-2.579345
0.496000	-2.587459
0.496100	-2.665684
0.496200	-2.765331
0.496300	-2.790649
0.496400	-2.722486
0.496500	-2.634200
0.496600	-2.614075
0.496700	-2.689703
0.496800	-2.802983
0.496900	-2.872444
0.497000	-2.860434
0.497100	-2.810773
0.497200	-2.779938
0.497300	-2.783833
0.497400	-2.796816
0.497500	-2.786105
0.497600	-2.762086
0.497700	-2.733847
0.497800	-2.705608
0.497900	-2.664386
0.498000	-2.596872
0.498100	-2.504691
0.498200	-2.410561
0.498300	-2.344996
0.498400	-2.296957
0.498500	-2.247296
0.498600	-2.155764
0.498700	-2.043133
0.498800	-1.936670
0.498900	-1.803591
0.499000	-1.716928
0.499100	-1.628966
0.499200	-1.540355
0.499300	-1.447199
0.499400	-1.346903
0.499500	-1.242388
0.499600	-1.156698
0.499700	-1.093729
0.499800	-1.030760
0.499900	-0.982398
0.500000	-0.930789
0.500100	-0.891839
0.500200	-0.838932
0.500300	-0.806799
0.500400	-0.754866
0.500500	-0.723706
0.500600	-0.709749
0.500700	-0.699362
0.500800	-0.677615
0.500900	-0.615945
0.501000	-0.477673
0.501100	-0.332260
0.501200	-0.308241
0.501300	-0.415678
0.501400	-0.513052
0.501500	-0.485138
0.501600	-0.354007
0.501700	-0.230341
0.501800	-0.189769
0.501900	-0.260852
0.502000	-0.341348
0.502100	-0.366341
0.502200	-0.323496
0.502300	-0.261826
0.502400	-0.231964
0.502500	-0.244298
0.502600	-0.286170
0.502700	-0.310513
0.502800	-0.341348
0.502900	-0.357902
0.503000	-0.390685
0.503100	-0.437749
0.503200	-0.488059
0.503300	-0.531229
0.503400	-0.601014
0.503500	-0.680861
0.503600	-0.781806
0.503700	-0.870417
0.503800	-0.934684
0.503900	-0.979801
0.504000	-1.010961
0.504100	-1.102818
0.504200	-1.258942
0.504300	-1.367677
0.504400	-1.405977
0.504500	-1.371572
0.504600	-1.364431
0.504700	-1.447199
0.504800	-1.592612
0.504900	-1.723095
0.505000	-1.760746
0.505100	-1.732832
0.505200	-1.705892
0.505300	-1.759123
0.505400	-1.862016
0.505500	-1.944135
0.505600	-1.991200
0.505700	-2.019439
0.505800	-2.036642
0.505900	-2.086952
0.506000	-2.142780
0.506100	-2.195038
0.506200	-2.215162
0.506300	-2.229119
0.506400	-2.238857
0.506500	-2.246322
0.506600	-2.234313
0.506700	-2.200556
0.506800	-2.165177
0.506900	-2.148947
0.507000	-2.165501
0.507100	-2.164527
0.507200	-2.122656
0.507300	-2.033396
0.507400	-1.961663
0.507500	-1.907133
0.507600	-1.839944
0.507700	-1.772756
0.507800	-1.697777
0.507900	-1.626044
0.508000	-1.561452
0.508100	-1.503028
0.508200	-1.455963
0.508300	-1.418961
0.508400	-1.380660
0.508500	-1.331324
0.508600	-1.312822
0.508700	-1.278741
0.508800	-1.295619
0.508900	-1.376440
0.509000	-1.395266
0.509100	-1.417987
0.509200	-1.464727
0.509300	-1.589691
0.509400	-1.754904
0.509500	-1.839944
0.509600	-1.811381
0.509700	-1.732183
0.509800	-1.723744
0.509900	-1.837023
0.510000	-2.022360
0.510100	-2.146675
0.510200	-2.174265
0.510300	-2.140184
0.510400	-2.134017
0.510500	-2.200232
0.510600	-2.327144
0.510700	-2.432309
0.510800	-2.481321
0.510900	-2.493655
0.511000	-2.496901
0.511100	-2.521569
0.511200	-2.552729
0.511300	-2.592653
0.511400	-2.620242
0.511500	-2.626085
0.511600	-2.650104
0.511700	-2.685159
0.511800	-2.728004
0.511900	-2.745532
0.512000	-2.762735
0.512100	-2.788377
0.512200	-2.822458
0.512300	-2.848100
0.512400	-2.838038
0.512500	-2.768253
0.512600	-2.735470
0.512700	-2.779938
0.512800	-2.879585
0.512900	-2.985075
0.513000	-2.992865
0.513100	-2.930220
0.513200	-2.862057
0.513300	-2.867900
0.513400	-2.963652
0.513500	-3.081152
0.513600	-3.135682
0.513700	-3.107443
0.513800	-3.050316
0.513900	-3.019805
0.514000	-3.012664
0.514100	-3.024999
0.514200	-3.029543
0.514300	-3.016235
0.514400	-2.982154
0.514500	-2.943203
0.514600	-2.894191
0.514700	-2.812721
0.514800	-2.735470
0.514900	-2.651727
0.515000	-2.596872
0.515100	-2.548509
0.515200	-2.494953
0.515300	-2.396604
0.515400	-2.297606
0.515500	-2.193091
0.515600	-2.095391
0.515700	-2.025281
0.515800	-1.949978
0.515900	-1.869806
0.516000	-1.790608
0.516100	-1.688689
0.516200	-1.600078
0.516300	-1.523801
0.516400	-1.477061
0.516500	-1.446550
0.516600	-1.416689
0.516700	-1.409872
0.516800	-1.383581
0.516900	-1.385204
0.517000	-1.366054
0.517100	-1.363457
0.517200	-1.369624
0.517300	-1.381309
0.517400	-1.403056
0.517500	-1.397538
0.517600	-1.335868
0.517700	-1.194025
0.517800	-1.095677
0.517900	-1.122942
0.518000	-1.247581
0.518100	-1.310875
0.518200	-1.246608
0.518300	-1.126512
0.518400	-1.019725
0.518500	-1.025892
0.518600	-1.093405
0.518700	-1.157023
0.518800	-1.151830
0.518900	-1.089510
0.519000	-1.027515
0.519100	-0.994407
0.519200	-1.001548
0.519300	-1.007066
0.519400	-1.014856
0.519500	-1.009987
0.519600	-1.003820
0.519700	-0.994407
0.519800	-0.998627
0.519900	-0.993433
0.520000	-0.998951
0.520100	-1.052507
0.520200	-1.099247
0.520300	-1.152479
0.520400	-1.208307
0.520500	-1.238818
0.520600	-1.270951
0.520700	-1.304708
0.520800	-1.418961
0.520900	-1.548145
0.521000	-1.624746
0.521100	-1.633510
0.521200	-1.598779
0.521300	-1.626044
0.521400	-1.726340
0.521500	-1.860393
0.521600	-1.934398
0.521700	-1.942188
0.521800	-1.908431
0.521900	-1.911353
0.522000	-1.979840
0.522100	-2.063257
0.522200	-2.108050
0.522300	-2.126551
0.522400	-2.132718
0.522500	-2.148298
0.522600	-2.172967
0.522700	-2.195687
0.522800	-2.219706
0.522900	-2.226523
0.523000	-2.229769
0.523100	-2.233664
0.523200	-2.217759
0.523300	-2.171993
0.523400	-2.114542
0.523500	-2.054169
0.523600	-2.027878
0.523700	-2.018465
0.523800	-1.986656
0.523900	-1.923687
0.524000	-1.813004
0.524100	-1.744842
0.524200	-1.687066
0.524300	-1.630913
0.524400	-1.576708
0.524500	-1.514713
0.524600	-1.458235
0.524700	-1.410197
0.524800	-1.354044
0.524900	-1.133328
0.525000	-0.911314
0.525100	-0.689625
0.525200	-0.469883
0.525300	-0.280652
0.525400	-0.109597
0.525500	0.090670
0.525600	0.208818
0.525700	0.268865
0.525800	0.250039
0.525900	-0.080709
0.526000	-0.969090
0.526100	-1.355667
0.526200	-1.373844
0.526300	-1.291400
0.526400	-1.047314
0.526500	-1.289777
0.526600	-1.365080
0.526700	-1.506598
0.526800	-1.578980
0.526900	-1.549443
0.527000	-1.504326
0.527100	-1.514063
0.527200	-1.594235
0.527300	-1.710111
0.527400	-1.780546
0.527500	-1.813329
0.527600	-1.826637
0.527700	-1.866236
0.527800	-1.921415
0.527900	-1.979190
0.528000	-2.030799
0.528100	-2.076241
0.528200	-2.124604
0.528300	-2.194714
0.528400	-2.268394
0.528500	-2.325196
0.528600	-2.362848
0.528700	-2.398227
0.528800	-2.465741
0.528900	-2.542342
0.529000	-2.613751
0.529100	-2.626734
0.529200	-2.604987
0.529300	-2.643288
0.529400	-2.757866
0.529500	-2.918860
0.529600	-3.041552
0.529700	-3.075958
0.529800	-3.057457
0.529900	-3.071414
0.530000	-3.163272
0.530100	-3.322318
0.530200	-3.466109
0.530300	-3.528754
0.530400	-3.545308
0.530500	-3.554396
0.530600	-3.587828
0.530700	-3.638788
0.530800	-3.668001
0.530900	-3.677414
0.531000	-3.680335
0.531100	-3.664431
0.531200	-3.642683
0.531300	-3.591399
0.531400	-3.509279
0.531500	-3.418720
0.531600	-3.344714
0.531700	-3.293105
0.531800	-3.249286
0.531900	-3.182422
0.532000	-3.080503
0.532100	-2.986049
0.532200	-2.873742
0.532300	-2.781885
0.532400	-2.693598
0.532500	-2.604662
0.532600	-2.493655
0.532700	-2.386542
0.532800	-2.270666
0.532900	-2.162255
0.533000	-2.077539
0.533100	-2.006131
0.533200	-1.941214
0.533300	-1.876298
0.533400	-1.831181
0.533500	-1.777300
0.533600	-1.726016
0.533700	-1.678627
0.533800	-1.628966
0.533900	-1.603324
0.534000	-1.574436
0.534100	-1.563075
0.534200	-1.505624
0.534300	-1.393968
0.534400	-1.230378
0.534500	-1.145338
0.534600	-1.220316
0.534700	-1.336192
0.534800	-1.381309
0.534900	-1.282636
0.535000	-1.166111
0.535100	-1.091133
0.535200	-1.132355
0.535300	-1.213176
0.535400	-1.269328
0.535500	-1.232975
0.535600	-1.158970
0.535700	-1.096651
0.535800	-1.089834
0.535900	-1.112231
0.536000	-1.133004
0.536100	-1.139495
0.536200	-1.136250
0.536300	-1.122617
0.536400	-1.125214
0.536500	-1.136574
0.536600	-1.136574
0.536700	-1.145987
0.536800	-1.193376
0.536900	-1.244335
0.537000	-1.293997
0.537100	-1.343009
0.537200	-1.351448
0.537300	-1.372546
0.537400	-1.389748
0.537500	-1.508546
0.537600	-1.609166
0.537700	-1.636106
0.537800	-1.604297
0.537900	-1.541653
0.538000	-1.562751
0.538100	-1.666617
0.538200	-1.782493
0.538300	-1.822092
0.538400	-1.787687
0.538500	-1.708488
0.538600	-1.682522
0.538700	-1.734780
0.538800	-1.793854
0.538900	-1.801319
0.539000	-1.783792
0.539100	-1.744517
0.539200	-1.723419
0.539300	-1.731209
0.539400	-1.744192
0.539500	-1.753605
0.539600	-1.739324
0.539700	-1.727314
0.539800	-1.712383
0.539900	-1.688689
0.540000	-1.653959
0.540100	-1.614359
0.540200	-1.586121
0.540300	-1.606894
0.540400	-1.636756
0.540500	-1.626694
0.540600	-1.575410
0.540700	-1.523801
0.540800	-1.512116
0.540900	-1.498483
0.541000	-1.472517
0.541100	-1.454665
0.541200	-1.436813
0.541300	-1.417987
0.541400	-1.405004
0.541500	-1.387152
0.541600	-1.388125
0.541700	-1.375467
0.541800	-1.375467
0.541900	-1.360211
0.542000	-1.423505
0.542100	-1.387476
0.542200	-1.399486
0.542300	-1.417662
0.542400	-1.440383
0.542500	-1.468946
0.542600	-1.560154
0.542700	-1.716278
0.542800	-1.849357
0.542900	-1.850980
0.543000	-1.784441
0.543100	-1.735429
0.543200	-1.809109
0.543300	-1.976918
0.543400	-2.126227
0.543500	-2.184652
0.543600	-2.155114
0.543700	-2.128174
0.543800	-2.165177
0.543900	-2.272938
0.544000	-2.398227
0.544100	-2.477101
0.544200	-2.508586
0.544300	-2.520271
0.544400	-2.559870
0.544500	-2.604662
0.544600	-2.663737
0.544700	-2.716968
0.544800	-2.746181
0.544900	-2.764358
0.545000	-2.802659
0.545100	-2.837389
0.545200	-2.850048
0.545300	-2.851346
0.545400	-2.855241
0.545500	-2.867575
0.545600	-2.875690
0.545700	-2.864329
0.545800	-2.789675
0.545900	-2.712749
0.546000	-2.709178
0.546100	-2.780587
0.546200	-2.880559
0.546300	-2.904578
0.546400	-2.839986
0.546500	-2.755594
0.546600	-2.720863
0.546700	-2.778639
0.546800	-2.891270
0.546900	-2.976311
0.547000	-2.980855
0.547100	-2.948072
0.547200	-2.926974
0.547300	-2.940282
0.547400	-2.978259
0.547500	-3.014937
0.547600	-3.034412
0.547700	-3.042202
0.547800	-3.046421
0.547900	-3.030517
0.548000	-2.991891
0.548100	-2.935089
0.548200	-2.879585
0.548300	-2.852644
0.548400	-2.824081
0.548500	-2.790974
0.548600	-2.728653
0.548700	-2.641990
0.548800	-2.583889
0.548900	-2.502743
0.549000	-2.433282
0.549100	-2.367067
0.549200	-2.296633
0.549300	-2.218408
0.549400	-2.130446
0.549500	-2.034694
0.549600	-1.950627
0.549700	-1.887333
0.549800	-1.836049
0.549900	-1.787037
0.550000	-1.747438
0.550100	-1.707190
0.550200	-1.665968
0.550300	-1.626694
0.550400	-1.580603
0.550500	-1.568918
0.550600	-1.542627
0.550700	-1.546522
0.550800	-1.515686
0.550900	-1.463104
0.551000	-1.321911
0.551100	-1.164488
0.551200	-1.127486
0.551300	-1.208956
0.551400	-1.322560
0.551500	-1.277767
0.551600	-1.159295
0.551700	-1.021672
0.551800	-0.972660
0.551900	-1.016479
0.552000	-1.096975
0.552100	-1.117424
0.552200	-1.057701
0.552300	-0.984021
0.552400	-0.915534
0.552500	-0.901252
0.552600	-0.898655
0.552700	-0.914235
0.552800	-0.903524
0.552900	-0.886646
0.553000	-0.863276
0.553100	-0.847696
0.553200	-0.830169
0.553300	-0.810694
0.553400	-0.811668
0.553500	-0.853863
0.553600	-0.866522
0.553700	-0.895410
0.553800	-0.890866
0.553900	-0.868469
0.554000	-0.847372
0.554100	-0.872689
0.554200	-0.971686
0.554300	-1.007715
0.554400	-0.995706
0.554500	-0.906445
0.554600	-0.846722
0.554700	-0.871715
0.554800	-0.960002
0.554900	-1.032708
0.555000	-1.031734
0.555100	-0.953510
0.555200	-0.535448
0.555300	-0.379000
0.555400	-0.623085
0.555500	-0.808422
0.555600	-0.789271
0.555700	-0.668851
0.555800	-0.479620
0.555900	-0.553949
0.556000	-0.720460
0.556100	-0.932412
0.556200	-0.975257
0.556300	-1.020698
0.556400	-1.145662
0.556500	-1.267705
0.556600	-1.224211
0.556700	-1.089510
0.556800	-0.952536
0.556900	-1.001873
0.557000	-1.431944
0.557100	-1.356316
0.557200	-1.368975
0.557300	-1.335543
0.557400	-1.273548
0.557500	-1.262837
0.557600	-1.274522
0.557700	-1.261214
0.557800	-1.254073
0.557900	-1.233624
0.558000	-1.267381
0.558100	-1.319963
0.558200	-1.374168
0.558300	-1.394942
0.558400	-1.405977
0.558500	-1.425128
0.558600	-1.449147
0.558700	-1.467324
0.558800	-1.488097
0.558900	-1.507896
0.559000	-1.532889
0.559100	-1.556259
0.559200	-1.584173
0.559300	-1.692259
0.559400	-1.848708
0.559500	-1.943486
0.559600	-1.902589
0.559700	-1.813329
0.559800	-1.793854
0.559900	-1.900641
0.560000	-2.082083
0.560100	-2.204127
0.560200	-2.221329
0.560300	-2.165826
0.560400	-2.146351
0.560500	-2.196986
0.560600	-2.315134
0.560700	-2.410237
0.560800	-2.454380
0.560900	-2.473531
0.561000	-2.494953
0.561100	-2.531307
0.561200	-2.587135
0.561300	-2.638419
0.561400	-2.691975
0.561500	-2.732873
0.561600	-2.779613
0.561700	-2.835766
0.561800	-2.889647
0.561900	-2.922105
0.562000	-2.946125
0.562100	-2.975986
0.562200	-3.025648
0.562300	-3.061027
0.562400	-3.052264
0.562500	-2.978908
0.562600	-2.946449
0.562700	-2.981829
0.562800	-3.072063
0.562900	-3.172035
0.563000	-3.187291
0.563100	-3.123023
0.563200	-3.059729
0.563300	-3.055834
0.563400	-3.144121
0.563500	-3.266489
0.563600	-3.333354
0.563700	-3.328161
0.563800	-3.297325
0.563900	-3.287263
0.564000	-3.305115
0.564100	-3.337898
0.564200	-3.351531
0.564300	-3.348285
0.564400	-3.336600
0.564500	-3.314203
0.564600	-3.284991
0.564700	-3.236952
0.564800	-3.166842
0.564900	-3.091863
0.565000	-3.041228
0.565100	-2.987671
0.565200	-2.937685
0.565300	-2.843232
0.565400	-2.739365
0.565500	-2.605961
0.565600	-2.503068
0.565700	-2.425817
0.565800	-2.356031
0.565900	-2.283974
0.566000	-2.204451
0.566100	-2.118761
0.566200	-2.023983
0.566300	-1.947706
0.566400	-1.899343
0.566500	-1.860069
0.566600	-1.824364
0.566700	-1.792880
0.566800	-1.762045
0.566900	-1.725042
0.567000	-1.682197
0.567100	-1.651686
0.567200	-1.625720
0.567300	-1.609491
0.567400	-1.595858
0.567500	-1.557882
0.567600	-1.469271
0.567700	-1.294321
0.567800	-1.174550
0.567900	-1.171304
0.568000	-1.310875
0.568100	-1.369949
0.568200	-1.327429
0.568300	-1.176822
0.568400	-1.064517
0.568500	-1.037901
0.568600	-1.097949
0.568700	-1.159295
0.568800	-1.155075
0.568900	-1.094703
0.569000	-1.010312
0.569100	-0.976880
0.569200	-0.968441
0.569300	-0.985643
0.569400	-1.003171
0.569500	-1.005768
0.569600	-0.995381
0.569700	-0.984021
0.569800	-0.999276
0.569900	-1.004469
0.570000	-1.018751
0.570100	-1.047639
0.570200	-1.090484
0.570300	-1.138522
0.570400	-1.189157
0.570500	-1.210579
0.570600	-1.216097
0.570700	-1.219018
0.570800	-1.284259
0.570900	-1.410522
0.571000	-1.466999
0.571100	-1.469596
0.571200	-1.409223
0.571300	-1.395915
0.571400	-1.466999
0.571500	-1.589042
0.571600	-1.669863
0.571700	-1.676355
0.571800	-1.613061
0.571900	-1.575085
0.572000	-1.599429
0.572100	-1.660775
0.572200	-1.698426
0.572300	-1.712059
0.572400	-1.701672
0.572500	-1.697453
0.572600	-1.705567
0.572700	-1.719524
0.572800	-1.737052
0.572900	-1.731858
0.573000	-1.725367
0.573100	-1.720498
0.573200	-1.699076
0.573300	-1.666617
0.573400	-1.628966
0.573500	-1.600727
0.573600	-1.613386
0.573700	-1.656880
0.573800	-1.674083
0.573900	-1.662722
0.574000	-1.610140
0.574100	-1.604622
0.574200	-1.597481
0.574300	-1.583200
0.574400	-1.572488
0.574500	-1.563075
0.574600	-1.549443
0.574700	-1.537433
0.574800	-1.530293
0.574900	-1.520880
0.575000	-1.515686
0.575100	-1.520231
0.575200	-1.525099
0.575300	-1.530617
0.575400	-1.531915
0.575500	-1.542951
0.575600	-1.545548
0.575700	-1.555935
0.575800	-1.584173
0.575900	-1.628641
0.576000	-1.766589
0.576100	-1.898369
0.576200	-1.949653
0.576300	-1.882140
0.576400	-1.798073
0.576500	-1.813978
0.576600	-1.932126
0.576700	-2.095391
0.576800	-2.180757
0.576900	-2.179783
0.577000	-2.133043
0.577100	-2.139534
0.577200	-2.211916
0.577300	-2.319354
0.577400	-2.396604
0.577500	-2.441072
0.577600	-2.450485
0.577700	-2.465741
0.577800	-2.494953
0.577900	-2.534228
0.578000	-2.562467
0.578100	-2.578371
0.578200	-2.590381
0.578300	-2.611479
0.578400	-2.642314
0.578500	-2.645560
0.578600	-2.641990
0.578700	-2.634849
0.578800	-2.641990
0.578900	-2.657894
0.579000	-2.655947
0.579100	-2.602715
0.579200	-2.508261
0.579300	-2.483593
0.579400	-2.518648
0.579500	-2.594925
0.579600	-2.654324
0.579700	-2.624787
0.579800	-2.543316
0.579900	-2.493330
0.580000	-2.511832
0.580100	-2.591354
0.580200	-2.675422
0.580300	-2.712424
0.580400	-2.683861
0.580500	-2.652052
0.580600	-2.633226
0.580700	-2.636147
0.580800	-2.639393
0.580900	-2.626734
0.581000	-2.616672
0.581100	-2.608233
0.581200	-2.577073
0.581300	-2.533254
0.581400	-2.449836
0.581500	-2.360576
0.581600	-2.307344
0.581700	-2.272289
0.581800	-2.244375
0.581900	-2.192117
0.582000	-2.089224
0.582100	-2.003210
0.582200	-1.897396
0.582300	-1.816574
0.582400	-1.738025
0.582500	-1.661424
0.582600	-1.567295
0.582700	-1.476087
0.582800	-1.366378
0.582900	-1.272899
0.583000	-1.195648
0.583100	-1.132679
0.583200	-1.080097
0.583300	-1.050235
0.583400	-1.026541
0.583500	-1.006741
0.583600	-0.980450
0.583700	-0.958703
0.583800	-0.947667
0.583900	-0.961300
0.584000	-0.969739
0.584100	-1.003171
0.584200	-0.998302
0.584300	-0.947343
0.584400	-0.814589
0.584500	-0.784727
0.584600	-0.870741
0.584700	-1.038226
0.584800	-1.104765
0.584900	-1.057376
0.585000	-0.946044
0.585100	-0.896383
0.585200	-0.933386
0.585300	-1.004469
0.585400	-1.062569
0.585500	-1.034006
0.585600	-0.984345
0.585700	-0.921376
0.585800	-0.908718
0.585900	-0.916183
0.586000	-0.922350
0.586100	-0.914885
0.586200	-0.907744
0.586300	-0.893462
0.586400	-0.887944
0.586500	-0.885023
0.586600	-0.867820
0.586700	-0.868794
0.586800	-0.891515
0.586900	-0.912288
0.587000	-0.939877
0.587100	-0.952536
0.587200	-0.935658
0.587300	-0.910990
0.587400	-0.897682
0.587500	-0.980126
0.587600	-1.058674
0.587700	-1.065166
0.587800	-1.020049
0.587900	-0.941176
0.588000	-0.950264
0.588100	-1.025567
0.588200	-1.125863
0.588300	-1.148259
0.588400	-1.106713
0.588500	-1.046665
0.588600	-1.031410
0.588700	-1.080746
0.588800	-1.144040
0.588900	-1.160593
0.589000	-1.157672
0.589100	-1.147285
0.589200	-1.175524
0.589300	-1.221939
0.589400	-1.252125
0.589500	-1.245634
0.589600	-1.234273
0.589700	-1.248880
0.589800	-1.263161
0.589900	-1.266407
0.590000	-1.155400
0.590100	-0.934035
0.590200	-0.822703
0.590300	-1.099896
0.590400	-1.370598
0.590500	-1.331324
0.590600	-1.327104
0.590700	-1.190130
0.590800	-1.203114
0.590900	-1.164164
0.591000	-1.104765
0.591100	-1.049911
0.591200	-0.939228
0.591300	-0.908068
0.591400	-0.828870
0.591500	-0.786350
0.591600	-0.734742
0.591700	-0.719811
0.591800	-0.718512
0.591900	-0.723381
0.592000	-0.756164
0.592100	-0.769472
0.592200	-0.825625
0.592300	-0.879830
0.592400	-1.032383
0.592500	-1.227782
0.592600	-1.418636
0.592700	-1.568593
0.592800	-1.686741
0.592900	-1.699076
0.593000	-1.609166
0.593100	-1.550417
0.593200	-1.606245
0.593300	-1.769835
0.593400	-1.929205
0.593500	-1.978866
0.593600	-1.959391
0.593700	-1.921415
0.593800	-1.960040
0.593900	-2.071697
0.594000	-2.204127
0.594100	-2.291439
0.594200	-2.331039
0.594300	-2.356031
0.594400	-2.395955
0.594500	-2.457951
0.594600	-2.522218
0.594700	-2.565712
0.594800	-2.599469
0.594900	-2.631278
0.595000	-2.677045
0.595100	-2.725083
0.595200	-2.767603
0.595300	-2.790324
0.595400	-2.817265
0.595500	-2.856539
0.595600	-2.903929
0.595700	-2.939958
0.595800	-2.899060
0.595900	-2.854592
0.596000	-2.877962
0.596100	-2.968846
0.596200	-3.086670
0.596300	-3.135033
0.596400	-3.086994
0.596500	-3.009419
0.596600	-2.977285
0.596700	-3.039930
0.596800	-3.151587
0.596900	-3.233706
0.597000	-3.240847
0.597100	-3.201897
0.597200	-3.175281
0.597300	-3.189238
0.597400	-3.221048
0.597500	-3.236628
0.597600	-3.224618
0.597700	-3.202546
0.597800	-3.169763
0.597900	-3.138603
0.598000	-3.105820
0.598100	-3.041228
0.598200	-2.962354
0.598300	-2.902630
0.598400	-2.838687
0.598500	-2.792272
0.598600	-2.707555
0.598700	-2.593951
0.598800	-2.459574
0.598900	-2.333635
0.599000	-2.249893
0.599100	-2.170370
0.599200	-2.088250
0.599300	-1.996393
0.599400	-1.902589
0.599500	-1.797099
0.599600	-1.718550
0.599700	-1.658178
0.599800	-1.624097
0.599900	-1.586770
0.600000	-1.555935
0.600100	-1.535486
0.600200	-1.499782
0.600300	-1.482579
0.600400	-1.449147
0.600500	-1.454016
0.600600	-1.431944
0.600700	-1.450121
