LabVIEW Measurement	
Writer_Version	2
Reader_Version	2
Separator	Tab
Decimal_Separator	.
Multi_Headings	Yes
X_Columns	One
Time_Pref	Relative
Operator	as989
Description	Time Domain Data
Date	1903/12/31
Time	19:00:00
***End_of_Header***	
	
Channels	1	
Samples	15000	
Date	1903/12/31	
Time	19:00:00	
X_Dimension	Time	
X0	0.0000000000000000E+0	
Delta_X	0.000100	
***End_of_Header***		
X_Value	Untitled	Comment
0.000000	-0.337778	Tare Values:0.000000, 0.000000, 0.000000, 0.000000\0D\0A
0.000100	-0.334532
0.000200	-0.339725
0.000300	-0.344919
0.000400	-0.359200
0.000500	-0.374131
0.000600	-0.386465
0.000700	-0.409186
0.000800	-0.424441
0.000900	-0.446513
0.001000	-0.474752
0.001100	-0.578942
0.001200	-0.738312
0.001300	-0.851916
0.001400	-0.839257
0.001500	-0.746102
0.001600	-0.691248
0.001700	-0.763954
0.001800	-0.927219
0.001900	-1.063543
0.002000	-1.094379
0.002100	-1.045042
0.002200	-1.002846
0.002300	-1.039200
0.002400	-1.121319
0.002500	-1.225834
0.002600	-1.281987
0.002700	-1.287830
0.002800	-1.290426
0.002900	-1.311199
0.003000	-1.343658
0.003100	-1.378388
0.003200	-1.395915
0.003300	-1.402407
0.003400	-1.418961
0.003500	-1.448498
0.003600	-1.473815
0.003700	-1.482254
0.003800	-1.484851
0.003900	-1.497185
0.004000	-1.519906
0.004100	-1.557233
0.004200	-1.551066
0.004300	-1.473815
0.004400	-1.409548
0.004500	-1.424479
0.004600	-1.516660
0.004700	-1.617281
0.004800	-1.649414
0.004900	-1.575734
0.005000	-1.484851
0.005100	-1.468297
0.005200	-1.533863
0.005300	-1.628966
0.005400	-1.672784
0.005500	-1.647142
0.005600	-1.589042
0.005700	-1.547171
0.005800	-1.543925
0.005900	-1.562751
0.006000	-1.553663
0.006100	-1.527047
0.006200	-1.495887
0.006300	-1.459534
0.006400	-1.425777
0.006500	-1.370598
0.006600	-1.292374
0.006700	-1.218369
0.006800	-1.167085
0.006900	-1.129758
0.007000	-1.088861
0.007100	-1.010312
0.007200	-0.917481
0.007300	-0.822054
0.007400	-0.716565
0.007500	-0.651973
0.007600	-0.582188
0.007700	-0.515324
0.007800	-0.433854
0.007900	-0.347191
0.008000	-0.267344
0.008100	-0.188146
0.008200	-0.142380
0.008300	-0.104404
0.008400	-0.078113
0.008500	-0.038838
0.008600	-0.024881
0.008700	0.019262
0.008800	0.038088
0.008900	0.069572
0.009000	0.088398
0.009100	0.095214
0.009200	0.098460
0.009300	0.100732
0.009400	0.174087
0.009500	0.303595
0.009600	0.450306
0.009700	0.457122
0.009800	0.347089
0.009900	0.245495
0.010000	0.264646
0.010100	0.390583
0.010200	0.489905
0.010300	0.537943
0.010400	0.474001
0.010500	0.402917
0.010600	0.377925
0.010700	0.409084
0.010800	0.474001
0.010900	0.520416
0.011000	0.532101
0.011100	0.497371
0.011200	0.481466
0.011300	0.472053
0.011400	0.478545
0.011500	0.478869
0.011600	0.465237
0.011700	0.453227
0.011800	0.441867
0.011900	0.414927
0.012000	0.354555
0.012100	0.311710
0.012200	0.259452
0.012300	0.222450
0.012400	0.216283
0.012500	0.217257
0.012600	0.169543
0.012700	0.037763
0.012800	-0.031373
0.012900	-0.037215
0.013000	0.026078
0.013100	0.063080
0.013200	0.013095
0.013300	-0.107974
0.013400	-0.188146
0.013500	-0.190093
0.013600	-0.140432
0.013700	-0.099535
0.013800	-0.116738
0.013900	-0.178408
0.014000	-0.225473
0.014100	-0.240079
0.014200	-0.228719
0.014300	-0.220279
0.014400	-0.244298
0.014500	-0.280327
0.014600	-0.306943
0.014700	-0.309539
0.014800	-0.317654
0.014900	-0.340699
0.015000	-0.359850
0.015100	-0.370236
0.015200	-0.355955
0.015300	-0.344270
0.015400	-0.361797
0.015500	-0.427363
0.015600	-0.471506
0.015700	-0.482866
0.015800	-0.492928
0.015900	-0.481568
0.016000	-0.490007
0.016100	-0.497472
0.016200	-0.501367
0.016300	-0.501367
0.016400	-0.502016
0.016500	-0.501367
0.016600	-0.495849
0.016700	-0.495525
0.016800	-0.490981
0.016900	-0.490981
0.017000	-0.490981
0.017100	-0.484814
0.017200	-0.489033
0.017300	-0.494226
0.017400	-0.502016
0.017500	-0.516947
0.017600	-0.538045
0.017700	-0.577319
0.017800	-0.692546
0.017900	-0.848670
0.018000	-0.917481
0.018100	-0.875286
0.018200	-0.767849
0.018300	-0.742207
0.018400	-0.834064
0.018500	-0.996030
0.018600	-1.099247
0.018700	-1.101844
0.018800	-1.036278
0.018900	-1.007066
0.019000	-1.045691
0.019100	-1.142417
0.019200	-1.230378
0.019300	-1.275171
0.019400	-1.281338
0.019500	-1.269328
0.019600	-1.283935
0.019700	-1.318016
0.019800	-1.347877
0.019900	-1.372221
0.020000	-1.382608
0.020100	-1.404355
0.020200	-1.438760
0.020300	-1.460183
0.020400	-1.467648
0.020500	-1.465701
0.020600	-1.477061
0.020700	-1.495238
0.020800	-1.510818
0.020900	-1.479333
0.021000	-1.401758
0.021100	-1.351772
0.021200	-1.383906
0.021300	-1.472517
0.021400	-1.553663
0.021500	-1.547820
0.021600	-1.455639
0.021700	-1.374493
0.021800	-1.368975
0.021900	-1.443304
0.022000	-1.542302
0.022100	-1.582226
0.022200	-1.544250
0.022300	-1.475763
0.022400	-1.449147
0.022500	-1.457586
0.022600	-1.466025
0.022700	-1.459858
0.022800	-1.441357
0.022900	-1.404679
0.023000	-1.374818
0.023100	-1.334894
0.023200	-1.269653
0.023300	-1.189481
0.023400	-1.117099
0.023500	-1.070684
0.023600	-1.034006
0.023700	-0.992460
0.023800	-0.900928
0.023900	-0.809071
0.024000	-0.694493
0.024100	-0.603935
0.024200	-0.534799
0.024300	-0.468584
0.024400	-0.395878
0.024500	-0.315382
0.024600	-0.222227
0.024700	-0.131669
0.024800	-0.064480
0.024900	-0.015793
0.025000	0.030622
0.025100	0.070221
0.025200	0.097811
0.025300	0.126698
0.025400	0.163701
0.025500	0.193238
0.025600	0.218555
0.025700	0.229915
0.025800	0.243872
0.025900	0.237705
0.026000	0.264646
0.026100	0.325991
0.026200	0.479194
0.026300	0.580463
0.026400	0.564234
0.026500	0.412330
0.026600	0.339624
0.026700	0.387987
0.026800	0.515223
0.026900	0.615194
0.027000	0.619089
0.027100	0.537294
0.027200	0.474974
0.027300	0.477247
0.027400	0.557418
0.027500	0.626229
0.027600	0.671346
0.027700	0.659012
0.027800	0.649275
0.027900	0.643432
0.028000	0.652845
0.028100	0.662258
0.028200	0.670697
0.028300	0.668100
0.028400	0.674917
0.028500	0.683680
0.028600	0.658688
0.028700	0.628826
0.028800	0.584034
0.028900	0.546058
0.029000	0.544435
0.029100	0.555146
0.029200	0.547032
0.029300	0.474001
0.029400	0.354555
0.029500	0.308789
0.029600	0.336054
0.029700	0.419796
0.029800	0.426936
0.029900	0.350984
0.030000	0.224073
0.030100	0.158832
0.030200	0.176684
0.030300	0.252961
0.030400	0.288015
0.030500	0.236082
0.030600	0.152989
0.030700	0.107223
0.030800	0.093916
0.030900	0.103653
0.031000	0.093591
0.031100	0.061457
0.031200	0.014393
0.031300	-0.029750
0.031400	-0.059287
0.031500	-0.074867
0.031600	-0.094017
0.031700	-0.111220
0.031800	-0.106676
0.031900	-0.094017
0.032000	-0.083955
0.032100	-0.122256
0.032200	-0.187821
0.032300	-0.223201
0.032400	-0.217034
0.032500	-0.183277
0.032600	-0.189444
0.032700	-0.207621
0.032800	-0.221253
0.032900	-0.224174
0.033000	-0.231315
0.033100	-0.240079
0.033200	-0.243649
0.033300	-0.253062
0.033400	-0.260852
0.033500	-0.272862
0.033600	-0.282924
0.033700	-0.289740
0.033800	-0.301425
0.033900	-0.305969
0.034000	-0.319926
0.034100	-0.328041
0.034200	-0.353358
0.034300	-0.374131
0.034400	-0.419573
0.034500	-0.560441
0.034600	-0.699362
0.034700	-0.754541
0.034800	-0.675992
0.034900	-0.594198
0.035000	-0.605883
0.035100	-0.733443
0.035200	-0.897357
0.035300	-0.972011
0.035400	-0.947343
0.035500	-0.872689
0.035600	-0.864250
0.035700	-0.933061
0.035800	-1.044393
0.035900	-1.110608
0.036000	-1.130732
0.036100	-1.125538
0.036200	-1.127161
0.036300	-1.143066
0.036400	-1.174875
0.036500	-1.197920
0.036600	-1.204087
0.036700	-1.204412
0.036800	-1.225185
0.036900	-1.245309
0.037000	-1.267381
0.037100	-1.262837
0.037200	-1.263810
0.037300	-1.270951
0.037400	-1.293997
0.037500	-1.302111
0.037600	-1.255696
0.037700	-1.171954
0.037800	-1.159944
0.037900	-1.211228
0.038000	-1.312822
0.038100	-1.389748
0.038200	-1.357615
0.038300	-1.266732
0.038400	-1.206035
0.038500	-1.230378
0.038600	-1.333596
0.038700	-1.432593
0.038800	-1.461806
0.038900	-1.420259
0.039000	-1.363782
0.039100	-1.345605
0.039200	-1.352746
0.039300	-1.376440
0.039400	-1.379686
0.039500	-1.363457
0.039600	-1.338140
0.039700	-1.307954
0.039800	-1.269328
0.039900	-1.201491
0.040000	-1.125863
0.040100	-1.067763
0.040200	-1.028164
0.040300	-0.993433
0.040400	-0.947667
0.040500	-0.855486
0.040600	-0.766226
0.040700	-0.662684
0.040800	-0.590303
0.040900	-0.528632
0.041000	-0.469558
0.041100	-0.399449
0.041200	-0.323821
0.041300	-0.233912
0.041400	-0.150494
0.041500	-0.094017
0.041600	-0.060261
0.041700	-0.037865
0.041800	-0.015468
0.041900	0.003682
0.042000	0.023806
0.042100	0.050097
0.042200	0.066326
0.042300	0.087099
0.042400	0.084827
0.042500	0.077037
0.042600	0.081582
0.042700	0.088722
0.042800	0.190316
0.042900	0.338326
0.043000	0.414927
0.043100	0.341896
0.043200	0.191939
0.043300	0.157534
0.043400	0.231538
0.043500	0.369485
0.043600	0.452254
0.043700	0.436998
0.043800	0.353256
0.043900	0.285419
0.044000	0.311385
0.044100	0.374030
0.044200	0.443165
0.044300	0.469132
0.044400	0.460044
0.044500	0.452903
0.044600	0.441218
0.044700	0.437648
0.044800	0.449657
0.044900	0.463939
0.045000	0.466535
0.045100	0.470430
0.045200	0.456473
0.045300	0.420120
0.045400	0.374030
0.045500	0.338326
0.045600	0.301648
0.045700	0.311385
0.045800	0.314956
0.045900	0.312359
0.046000	0.215634
0.046100	0.120207
0.046200	0.094889
0.046300	0.134813
0.046400	0.209791
0.046500	0.200378
0.046600	0.114040
0.046700	0.003033
0.046800	-0.051497
0.046900	-0.023907
0.047000	0.050097
0.047100	0.080283
0.047200	0.030298
0.047300	-0.045005
0.047400	-0.087201
0.047500	-0.113817
0.047600	-0.111869
0.047700	-0.131669
0.047800	-0.168022
0.047900	-0.212165
0.048000	-0.255334
0.048100	-0.283897
0.048200	-0.310189
0.048300	-0.330313
0.048400	-0.321549
0.048500	-0.297205
0.048600	-0.272862
0.048700	-0.239105
0.048800	-0.264098
0.048900	-0.306943
0.049000	-0.322523
0.049100	-0.324146
0.049200	-0.313110
0.049300	-0.315382
0.049400	-0.318303
0.049500	-0.305969
0.049600	-0.301749
0.049700	-0.286819
0.049800	-0.278055
0.049900	-0.276107
0.050000	-0.275458
0.050100	-0.278704
0.050200	-0.281950
0.050300	-0.289415
0.050400	-0.304671
0.050500	-0.315706
0.050600	-0.333883
0.050700	-0.353683
0.050800	-0.380947
0.050900	-0.407888
0.051000	-0.440346
0.051100	-0.520518
0.051200	-0.665930
0.051300	-0.799009
0.051400	-0.801930
0.051500	-0.710723
0.051600	-0.628603
0.051700	-0.664956
0.051800	-0.807773
0.051900	-0.950913
0.052000	-1.002522
0.052100	-0.952212
0.052200	-0.884698
0.052300	-0.888269
0.052400	-0.966818
0.052500	-1.072631
0.052600	-1.133978
0.052700	-1.153777
0.052800	-1.150856
0.052900	-1.163839
0.053000	-1.193376
0.053100	-1.225510
0.053200	-1.250827
0.053300	-1.271600
0.053400	-1.289452
0.053500	-1.337166
0.053600	-1.380335
0.053700	-1.404679
0.053800	-1.401109
0.053900	-1.410197
0.054000	-1.439734
0.054100	-1.480307
0.054200	-1.481930
0.054300	-1.435514
0.054400	-1.356966
0.054500	-1.365405
0.054600	-1.442006
0.054700	-1.552689
0.054800	-1.610789
0.054900	-1.553987
0.055000	-1.468946
0.055100	-1.417662
0.055200	-1.461481
0.055300	-1.565672
0.055400	-1.653309
0.055500	-1.654608
0.055600	-1.602674
0.055700	-1.553338
0.055800	-1.528020
0.055900	-1.531915
0.056000	-1.532889
0.056100	-1.522503
0.056200	-1.507896
0.056300	-1.481605
0.056400	-1.437137
0.056500	-1.382932
0.056600	-1.295619
0.056700	-1.214474
0.056800	-1.148259
0.056900	-1.092106
0.057000	-1.047639
0.057100	-0.963896
0.057200	-0.847696
0.057300	-0.733119
0.057400	-0.608479
0.057500	-0.529606
0.057600	-0.456575
0.057700	-0.382570
0.057800	-0.307592
0.057900	-0.230341
0.058000	-0.151793
0.058100	-0.081034
0.058200	-0.020337
0.058300	0.008875
0.058400	0.034193
0.058500	0.041333
0.058600	0.051395
0.058700	0.057238
0.058800	0.076388
0.058900	0.088073
0.059000	0.099109
0.059100	0.102355
0.059200	0.083204
0.059300	0.086126
0.059400	0.108846
0.059500	0.224397
0.059600	0.367213
0.059700	0.415901
0.059800	0.315280
0.059900	0.171815
0.060000	0.161104
0.060100	0.254908
0.060200	0.393504
0.060300	0.443815
0.060400	0.407137
0.060500	0.318851
0.060600	0.274708
0.060700	0.323719
0.060800	0.395777
0.060900	0.460044
0.061000	0.463289
0.061100	0.450631
0.061200	0.448034
0.061300	0.452254
0.061400	0.467184
0.061500	0.469132
0.061600	0.471729
0.061700	0.466860
0.061800	0.490230
0.061900	0.473027
0.062000	0.452254
0.062100	0.409734
0.062200	0.376951
0.062300	0.358774
0.062400	0.377925
0.062500	0.398373
0.062600	0.376626
0.062700	0.271786
0.062800	0.200054
0.062900	0.198756
0.063000	0.271462
0.063100	0.333457
0.063200	0.314631
0.063300	0.201677
0.063400	0.088398
0.063500	0.047500
0.063600	0.100732
0.063700	0.171491
0.063800	0.169543
0.063900	0.092942
0.064000	0.022832
0.064100	-0.000862
0.064200	-0.008977
0.064300	-0.002485
0.064400	-0.024557
0.064500	-0.056690
0.064600	-0.091420
0.064700	-0.091745
0.064800	-0.094666
0.064900	-0.116089
0.065000	-0.136537
0.065100	-0.147249
0.065200	-0.138485
0.065300	-0.121282
0.065400	-0.116413
0.065500	-0.169969
0.065600	-0.217358
0.065700	-0.236508
0.065800	-0.237807
0.065900	-0.211191
0.066000	-0.222876
0.066100	-0.221578
0.066200	-0.228394
0.066300	-0.225473
0.066400	-0.231964
0.066500	-0.239105
0.066600	-0.251115
0.066700	-0.253062
0.066800	-0.260203
0.066900	-0.274485
0.067000	-0.285520
0.067100	-0.296556
0.067200	-0.304995
0.067300	-0.319277
0.067400	-0.336480
0.067500	-0.361797
0.067600	-0.391009
0.067700	-0.422818
0.067800	-0.514350
0.067900	-0.682484
0.068000	-0.784078
0.068100	-0.761357
0.068200	-0.660737
0.068300	-0.603611
0.068400	-0.680536
0.068500	-0.846722
0.068600	-0.985643
0.068700	-1.006417
0.068800	-0.939877
0.068900	-0.881777
0.069000	-0.894761
0.069100	-0.989863
0.069200	-1.090808
0.069300	-1.133653
0.069400	-1.132679
0.069500	-1.122617
0.069600	-1.130407
0.069700	-1.153128
0.069800	-1.180717
0.069900	-1.195324
0.070000	-1.192078
0.070100	-1.200517
0.070200	-1.220641
0.070300	-1.246932
0.070400	-1.243037
0.070500	-1.236221
0.070600	-1.234273
0.070700	-1.264135
0.070800	-1.292049
0.070900	-1.279066
0.071000	-1.206359
0.071100	-1.142741
0.071200	-1.165787
0.071300	-1.260565
0.071400	-1.363457
0.071500	-1.381309
0.071600	-1.315744
0.071700	-1.219018
0.071800	-1.181367
0.071900	-1.244660
0.072000	-1.360211
0.072100	-1.427075
0.072200	-1.410197
0.072300	-1.350474
0.072400	-1.313796
0.072500	-1.311199
0.072600	-1.328402
0.072700	-1.344631
0.072800	-1.331648
0.072900	-1.307304
0.073000	-1.282312
0.073100	-1.256670
0.073200	-1.222264
0.073300	-1.158970
0.073400	-1.096001
0.073500	-1.049586
0.073600	-1.002522
0.073700	-0.971362
0.073800	-0.896383
0.073900	-0.799658
0.074000	-0.693195
0.074100	-0.598742
0.074200	-0.535448
0.074300	-0.466637
0.074400	-0.406589
0.074500	-0.332260
0.074600	-0.252413
0.074700	-0.179058
0.074800	-0.110246
0.074900	-0.070647
0.075000	-0.044356
0.075100	-0.011573
0.075200	0.001734
0.075300	0.027701
0.075400	0.044904
0.075500	0.080608
0.075600	0.093591
0.075700	0.112417
0.075800	0.110469
0.075900	0.109171
0.076000	0.130593
0.076100	0.170841
0.076200	0.308789
0.076300	0.447060
0.076400	0.462640
0.076500	0.319824
0.076600	0.212063
0.076700	0.225047
0.076800	0.340922
0.076900	0.467834
0.077000	0.502564
0.077100	0.452578
0.077200	0.371757
0.077300	0.357151
0.077400	0.414927
0.077500	0.497371
0.077600	0.557743
0.077700	0.564234
0.077800	0.552225
0.077900	0.548654
0.078000	0.553848
0.078100	0.566506
0.078200	0.581113
0.078300	0.594420
0.078400	0.606755
0.078500	0.620062
0.078600	0.592473
0.078700	0.560989
0.078800	0.526258
0.078900	0.498993
0.079000	0.489905
0.079100	0.504187
0.079200	0.508731
0.079300	0.461017
0.079400	0.339624
0.079500	0.287366
0.079600	0.289314
0.079700	0.371108
0.079800	0.409084
0.079900	0.359099
0.080000	0.248741
0.080100	0.158183
0.080200	0.141305
0.080300	0.197782
0.080400	0.254584
0.080500	0.228292
0.080600	0.150393
0.080700	0.082231
0.080800	0.045878
0.080900	0.024131
0.081000	0.015691
0.081100	-0.021960
0.081200	-0.071296
0.081300	-0.109922
0.081400	-0.126151
0.081500	-0.144003
0.081600	-0.172566
0.081700	-0.188146
0.081800	-0.193339
0.081900	-0.191716
0.082000	-0.182628
0.082100	-0.208594
0.082200	-0.269291
0.082300	-0.317329
0.082400	-0.333883
0.082500	-0.335181
0.082600	-0.321549
0.082700	-0.332260
0.082800	-0.336804
0.082900	-0.340699
0.083000	-0.344270
0.083100	-0.341998
0.083200	-0.343945
0.083300	-0.349138
0.083400	-0.347515
0.083500	-0.352709
0.083600	-0.360174
0.083700	-0.366666
0.083800	-0.381597
0.083900	-0.390360
0.084000	-0.404317
0.084100	-0.416002
0.084200	-0.438398
0.084300	-0.459496
0.084400	-0.496823
0.084500	-0.621463
0.084600	-0.774016
0.084700	-0.843801
0.084800	-0.790894
0.084900	-0.693520
0.085000	-0.673071
0.085100	-0.779209
0.085200	-0.947018
0.085300	-1.041147
0.085400	-1.035305
0.085500	-0.966493
0.085600	-0.930789
0.085700	-0.967467
0.085800	-1.057376
0.085900	-1.140469
0.086000	-1.174550
0.086100	-1.171629
0.086200	-1.170331
0.086300	-1.170980
0.086400	-1.189806
0.086500	-1.205386
0.086600	-1.215448
0.086700	-1.219667
0.086800	-1.231677
0.086900	-1.259266
0.087000	-1.270627
0.087100	-1.266083
0.087200	-1.262837
0.087300	-1.268355
0.087400	-1.287830
0.087500	-1.301137
0.087600	-1.265109
0.087700	-1.170655
0.087800	-1.124889
0.087900	-1.158970
0.088000	-1.252125
0.088100	-1.342359
0.088200	-1.331648
0.088300	-1.242713
0.088400	-1.144689
0.088500	-1.135925
0.088600	-1.216097
0.088700	-1.311524
0.088800	-1.354044
0.088900	-1.305032
0.089000	-1.236870
0.089100	-1.207333
0.089200	-1.212202
0.089300	-1.224536
0.089400	-1.228431
0.089500	-1.204412
0.089600	-1.178445
0.089700	-1.144040
0.089800	-1.104765
0.089900	-1.047314
0.090000	-0.970064
0.090100	-0.908718
0.090200	-0.851267
0.090300	-0.813615
0.090400	-0.765252
0.090500	-0.677291
0.090600	-0.596794
0.090700	-0.478971
0.090800	-0.407563
0.090900	-0.350112
0.091000	-0.295258
0.091100	-0.236508
0.091200	-0.175487
0.091300	-0.094342
0.091400	-0.031697
0.091500	0.025104
0.091600	0.049448
0.091700	0.077037
0.091800	0.098135
0.091900	0.113391
0.092000	0.127023
0.092100	0.141305
0.092200	0.159806
0.092300	0.174412
0.092400	0.179281
0.092500	0.176684
0.092600	0.168894
0.092700	0.177658
0.092800	0.246469
0.092900	0.393829
0.093000	0.493800
0.093100	0.448359
0.093200	0.283471
0.093300	0.211739
0.093400	0.239328
0.093500	0.370135
0.093600	0.451280
0.093700	0.451605
0.093800	0.352932
0.093900	0.289963
0.094000	0.288015
0.094100	0.352932
0.094200	0.414602
0.094300	0.446736
0.094400	0.442516
0.094500	0.429533
0.094600	0.429533
0.094700	0.441867
0.094800	0.453877
0.094900	0.456473
0.095000	0.459070
0.095100	0.459070
0.095200	0.467509
0.095300	0.432779
0.095400	0.397724
0.095500	0.350660
0.095600	0.320149
0.095700	0.310087
0.095800	0.311710
0.095900	0.307490
0.096000	0.222125
0.096100	0.107873
0.096200	0.066651
0.096300	0.093266
0.096400	0.172789
0.096500	0.178631
0.096600	0.096837
0.096700	-0.029101
0.096800	-0.097263
0.096900	-0.082008
0.097000	-0.000862
0.097100	0.033543
0.097200	-0.009626
0.097300	-0.091745
0.097400	-0.127774
0.097500	-0.131344
0.097600	-0.114466
0.097700	-0.120633
0.097800	-0.155038
0.097900	-0.204699
0.098000	-0.230666
0.098100	-0.243000
0.098200	-0.254036
0.098300	-0.260852
0.098400	-0.269940
0.098500	-0.267993
0.098600	-0.252738
0.098700	-0.235859
0.098800	-0.261826
0.098900	-0.307592
0.099000	-0.323821
0.099100	-0.326093
0.099200	-0.288442
0.099300	-0.266370
0.099400	-0.261826
0.099500	-0.248518
0.099600	-0.232289
0.099700	-0.213463
0.099800	-0.196910
0.099900	-0.178408
0.100000	-0.161530
0.100100	-0.150494
0.100200	-0.145301
0.100300	-0.143029
0.100400	-0.135888
0.100500	-0.135888
0.100600	-0.146924
0.100700	-0.159907
0.100800	-0.167048
0.100900	-0.193988
0.101000	-0.220929
0.101100	-0.285845
0.101200	-0.428985
0.101300	-0.573424
0.101400	-0.606856
0.101500	-0.530580
0.101600	-0.445864
0.101700	-0.467286
0.101800	-0.602637
0.101900	-0.764279
0.102000	-0.833415
0.102100	-0.804851
0.102200	-0.737338
0.102300	-0.742207
0.102400	-0.819782
0.102500	-0.930789
0.102600	-1.010961
0.102700	-1.030111
0.102800	-1.031410
0.102900	-1.051209
0.103000	-1.084966
0.103100	-1.130083
0.103200	-1.170655
0.103300	-1.202464
0.103400	-1.216097
0.103500	-1.255047
0.103600	-1.285882
0.103700	-1.325481
0.103800	-1.331973
0.103900	-1.338789
0.104000	-1.363782
0.104100	-1.389748
0.104200	-1.395266
0.104300	-1.343658
0.104400	-1.266083
0.104500	-1.256994
0.104600	-1.318340
0.104700	-1.426751
0.104800	-1.494264
0.104900	-1.463104
0.105000	-1.378063
0.105100	-1.336517
0.105200	-1.379686
0.105300	-1.499457
0.105400	-1.600402
0.105500	-1.620527
0.105600	-1.567295
0.105700	-1.507247
0.105800	-1.488421
0.105900	-1.497834
0.106000	-1.508870
0.106100	-1.506923
0.106200	-1.483553
0.106300	-1.439085
0.106400	-1.386827
0.106500	-1.322235
0.106600	-1.237195
0.106700	-1.149882
0.106800	-1.084316
0.106900	-1.035629
0.107000	-0.996355
0.107100	-0.927543
0.107200	-0.815238
0.107300	-0.740909
0.107400	-0.640288
0.107500	-0.569529
0.107600	-0.501692
0.107700	-0.437425
0.107800	-0.363745
0.107900	-0.288766
0.108000	-0.197883
0.108100	-0.122905
0.108200	-0.058313
0.108300	-0.018714
0.108400	0.015042
0.108500	0.049448
0.108600	0.072493
0.108700	0.107548
0.108800	0.143252
0.108900	0.186746
0.109000	0.207519
0.109100	0.211414
0.109200	0.207844
0.109300	0.208493
0.109400	0.239977
0.109500	0.343843
0.109600	0.493800
0.109700	0.555146
0.109800	0.463289
0.109900	0.312684
0.110000	0.282498
0.110100	0.366240
0.110200	0.490230
0.110300	0.556120
0.110400	0.531452
0.110500	0.446736
0.110600	0.394803
0.110700	0.424989
0.110800	0.495098
0.110900	0.569428
0.111000	0.589876
0.111100	0.586306
0.111200	0.580463
0.111300	0.578191
0.111400	0.584358
0.111500	0.594420
0.111600	0.601886
0.111700	0.602535
0.111800	0.603184
0.111900	0.588903
0.112000	0.541838
0.112100	0.495098
0.112200	0.438621
0.112300	0.415576
0.112400	0.411681
0.112500	0.419146
0.112600	0.401619
0.112700	0.305218
0.112800	0.219853
0.112900	0.212388
0.113000	0.273085
0.113100	0.355204
0.113200	0.340922
0.113300	0.242249
0.113400	0.135138
0.113500	0.099109
0.113600	0.152665
0.113700	0.230565
0.113800	0.243223
0.113900	0.184149
0.114000	0.101706
0.114100	0.073142
0.114200	0.063730
0.114300	0.076713
0.114400	0.061133
0.114500	0.032570
0.114600	0.003682
0.114700	-0.019363
0.114800	-0.035592
0.114900	-0.054743
0.115000	-0.070323
0.115100	-0.063831
0.115200	-0.034619
0.115300	-0.006705
0.115400	0.007577
0.115500	-0.034943
0.115600	-0.080385
0.115700	-0.090771
0.115800	-0.053444
0.115900	-0.025530
0.116000	-0.026504
0.116100	-0.025206
0.116200	-0.019363
0.116300	-0.015144
0.116400	0.001734
0.116500	0.012121
0.116600	0.021534
0.116700	0.032894
0.116800	0.038737
0.116900	0.043605
0.117000	0.040684
0.117100	0.044904
0.117200	0.048474
0.117300	0.046202
0.117400	0.038737
0.117500	0.025429
0.117600	-0.004757
0.117700	-0.027153
0.117800	-0.111545
0.117900	-0.270914
0.118000	-0.391659
0.118100	-0.385816
0.118200	-0.295582
0.118300	-0.235859
0.118400	-0.306943
0.118500	-0.481243
0.118600	-0.631525
0.118700	-0.681186
0.118800	-0.640288
0.118900	-0.599066
0.119000	-0.621463
0.119100	-0.726302
0.119200	-0.836011
0.119300	-0.911639
0.119400	-0.934360
0.119500	-0.956107
0.119600	-0.983047
0.119700	-1.030111
0.119800	-1.078474
0.119900	-1.120994
0.120000	-1.146312
0.120100	-1.174875
0.120200	-1.229729
0.120300	-1.281987
0.120400	-1.313796
0.120500	-1.336841
0.120600	-1.352746
0.120700	-1.399161
0.120800	-1.447524
0.120900	-1.478359
0.121000	-1.431295
0.121100	-1.379362
0.121200	-1.404355
0.121300	-1.500431
0.121400	-1.623448
0.121500	-1.668240
0.121600	-1.610789
0.121700	-1.518608
0.121800	-1.479982
0.121900	-1.541653
0.122000	-1.650388
0.122100	-1.727639
0.122200	-1.707839
0.122300	-1.630264
0.122400	-1.575734
0.122500	-1.557557
0.122600	-1.570216
0.122700	-1.570541
0.122800	-1.540679
0.122900	-1.501729
0.123000	-1.459858
0.123100	-1.404679
0.123200	-1.325806
0.123300	-1.228431
0.123400	-1.140469
0.123500	-1.068087
0.123600	-1.016154
0.123700	-0.975906
0.123800	-0.885672
0.123900	-0.771095
0.124000	-0.686703
0.124100	-0.575372
0.124200	-0.490981
0.124300	-0.410160
0.124400	-0.332585
0.124500	-0.250141
0.124600	-0.156986
0.124700	-0.067726
0.124800	0.007577
0.124900	0.065677
0.125000	0.093591
0.125100	0.135462
0.125200	0.157858
0.125300	0.184798
0.125400	0.196483
0.125500	0.225696
0.125600	0.241925
0.125700	0.258154
0.125800	0.254584
0.125900	0.255557
0.126000	0.260426
0.126100	0.303595
0.126200	0.411681
0.126300	0.556120
0.126400	0.552549
0.126500	0.443165
0.126600	0.306192
0.126700	0.305218
0.126800	0.419796
0.126900	0.545084
0.127000	0.580788
0.127100	0.525934
0.127200	0.434077
0.127300	0.400970
0.127400	0.443490
0.127500	0.535347
0.127600	0.584683
0.127700	0.596043
0.127800	0.571700
0.127900	0.557743
0.128000	0.552225
0.128100	0.572349
0.128200	0.583709
0.128300	0.584683
0.128400	0.581113
0.128500	0.574946
0.128600	0.557094
0.128700	0.514573
0.128800	0.475948
0.128900	0.428235
0.129000	0.392206
0.129100	0.398698
0.129200	0.390908
0.129300	0.354879
0.129400	0.221801
0.129500	0.144226
0.129600	0.137410
0.129700	0.211414
0.129800	0.265295
0.129900	0.224397
0.130000	0.109496
0.130100	-0.011573
0.130200	-0.038838
0.130300	0.021859
0.130400	0.097486
0.130500	0.095214
0.130600	0.028350
0.130700	-0.046304
0.130800	-0.081034
0.130900	-0.081034
0.131000	-0.068375
0.131100	-0.073244
0.131200	-0.109272
0.131300	-0.151793
0.131400	-0.170618
0.131500	-0.177435
0.131600	-0.181979
0.131700	-0.187497
0.131800	-0.182303
0.131900	-0.167697
0.132000	-0.149521
0.132100	-0.147573
0.132200	-0.188146
0.132300	-0.213788
0.132400	-0.219306
0.132500	-0.181654
0.132600	-0.145950
0.132700	-0.146275
0.132800	-0.136537
0.132900	-0.124203
0.133000	-0.117062
0.133100	-0.107650
0.133200	-0.100184
0.133300	-0.092394
0.133400	-0.093693
0.133500	-0.098237
0.133600	-0.103105
0.133700	-0.108948
0.133800	-0.117387
0.133900	-0.131344
0.134000	-0.145950
0.134100	-0.166399
0.134200	-0.181979
0.134300	-0.213139
0.134400	-0.249816
0.134500	-0.355305
0.134600	-0.515973
0.134700	-0.601338
0.134800	-0.556546
0.134900	-0.441644
0.135000	-0.400098
0.135100	-0.487735
0.135200	-0.646455
0.135300	-0.763305
0.135400	-0.779858
0.135500	-0.716240
0.135600	-0.667878
0.135700	-0.701634
0.135800	-0.799009
0.135900	-0.902550
0.136000	-0.960002
0.136100	-0.972660
0.136200	-0.964546
0.136300	-0.983371
0.136400	-1.023944
0.136500	-1.072631
0.136600	-1.110608
0.136700	-1.132030
0.136800	-1.161567
0.136900	-1.197271
0.137000	-1.242713
0.137100	-1.262837
0.137200	-1.280689
0.137300	-1.306006
0.137400	-1.343982
0.137500	-1.386503
0.137600	-1.377414
0.137700	-1.310226
0.137800	-1.272574
0.137900	-1.312498
0.138000	-1.414741
0.138100	-1.526722
0.138200	-1.547495
0.138300	-1.477061
0.138400	-1.397863
0.138500	-1.389748
0.138600	-1.474140
0.138700	-1.590989
0.138800	-1.660126
0.138900	-1.638054
0.139000	-1.578006
0.139100	-1.536784
0.139200	-1.520231
0.139300	-1.530942
0.139400	-1.541978
0.139500	-1.540355
0.139600	-1.518283
0.139700	-1.477710
0.139800	-1.422207
0.139900	-1.351448
0.140000	-1.274522
0.140100	-1.211553
0.140200	-1.171954
0.140300	-1.139820
0.140400	-1.100870
0.140500	-1.024593
0.140600	-0.932737
0.140700	-0.872689
0.140800	-0.773367
0.140900	-0.700336
0.141000	-0.634121
0.141100	-0.569854
0.141200	-0.493577
0.141300	-0.410160
0.141400	-0.316680
0.141500	-0.247544
0.141600	-0.199182
0.141700	-0.169320
0.141800	-0.134914
0.141900	-0.122905
0.142000	-0.094017
0.142100	-0.066752
0.142200	-0.028776
0.142300	0.004007
0.142400	0.025429
0.142500	0.034842
0.142600	0.044255
0.142700	0.078660
0.142800	0.160130
0.142900	0.309762
0.143000	0.453877
0.143100	0.449657
0.143200	0.327290
0.143300	0.250689
0.143400	0.305218
0.143500	0.439920
0.143600	0.564559
0.143700	0.594420
0.143800	0.538268
0.143900	0.464588
0.144000	0.451929
0.144100	0.512950
0.144200	0.582411
0.144300	0.627203
0.144400	0.628177
0.144500	0.616492
0.144600	0.605456
0.144700	0.601886
0.144800	0.595070
0.144900	0.590201
0.145000	0.586955
0.145100	0.592798
0.145200	0.595394
0.145300	0.562936
0.145400	0.509380
0.145500	0.457122
0.145600	0.414927
0.145700	0.404540
0.145800	0.412655
0.145900	0.414278
0.146000	0.339948
0.146100	0.231214
0.146200	0.178307
0.146300	0.188693
0.146400	0.258479
0.146500	0.274058
0.146600	0.198756
0.146700	0.085477
0.146800	-0.000213
0.146900	-0.006380
0.147000	0.049773
0.147100	0.089696
0.147200	0.050746
0.147300	-0.022285
0.147400	-0.072270
0.147500	-0.096289
0.147600	-0.097263
0.147700	-0.109922
0.147800	-0.135239
0.147900	-0.170618
0.148000	-0.196585
0.148100	-0.212165
0.148200	-0.233912
0.148300	-0.266370
0.148400	-0.286170
0.148500	-0.281950
0.148600	-0.266370
0.148700	-0.259229
0.148800	-0.288442
0.148900	-0.341024
0.149000	-0.368613
0.149100	-0.370236
0.149200	-0.334857
0.149300	-0.320900
0.149400	-0.324146
0.149500	-0.319277
0.149600	-0.314733
0.149700	-0.299477
0.149800	-0.283248
0.149900	-0.274809
0.150000	-0.258580
0.150100	-0.241377
0.150200	-0.227420
0.150300	-0.212814
0.150400	-0.204699
0.150500	-0.200805
0.150600	-0.203401
0.150700	-0.192041
0.150800	-0.194313
0.150900	-0.193015
0.151000	-0.214762
0.151100	-0.254036
0.151200	-0.365692
0.151300	-0.523763
0.151400	-0.573100
0.151500	-0.506561
0.151600	-0.400098
0.151700	-0.393931
0.151800	-0.510131
0.151900	-0.668851
0.152000	-0.761357
0.152100	-0.744804
0.152200	-0.690598
0.152300	-0.665281
0.152400	-0.727276
0.152500	-0.823352
0.152600	-0.892488
0.152700	-0.926894
0.152800	-0.929815
0.152900	-0.944422
0.153000	-0.978827
0.153100	-1.005768
0.153200	-1.033682
0.153300	-1.047314
0.153400	-1.066140
0.153500	-1.098598
0.153600	-1.145987
0.153700	-1.161892
0.153800	-1.177147
0.153900	-1.182340
0.154000	-1.205386
0.154100	-1.249204
0.154200	-1.277118
0.154300	-1.257968
0.154400	-1.184612
0.154500	-1.172278
0.154600	-1.223238
0.154700	-1.327429
0.154800	-1.412794
0.154900	-1.403705
0.155000	-1.331324
0.155100	-1.261538
0.155200	-1.285882
0.155300	-1.376116
0.155400	-1.473815
0.155500	-1.505300
0.155600	-1.463753
0.155700	-1.413767
0.155800	-1.395915
0.155900	-1.397538
0.156000	-1.406951
0.156100	-1.398512
0.156200	-1.383581
0.156300	-1.357615
0.156400	-1.325806
0.156500	-1.286207
0.156600	-1.201166
0.156700	-1.116126
0.156800	-1.055104
0.156900	-1.012584
0.157000	-0.971037
0.157100	-0.916183
0.157200	-0.814913
0.157300	-0.732145
0.157400	-0.638016
0.157500	-0.543238
0.157600	-0.461768
0.157700	-0.386465
0.157800	-0.292661
0.157900	-0.201454
0.158000	-0.099535
0.158100	0.000112
0.158200	0.090021
0.158300	0.147472
0.158400	0.214985
0.158500	0.264321
0.158600	0.315280
0.158700	0.358125
0.158800	0.404216
0.158900	0.457122
0.159000	0.481466
0.159100	0.520091
0.159200	0.526258
0.159300	0.545733
0.159400	0.583060
0.159500	0.685628
0.159600	0.857981
0.159700	0.961847
0.159800	0.928415
0.159900	0.793389
0.160000	0.744377
0.160100	0.817408
0.160200	0.951136
0.160300	1.047212
0.160400	1.039422
0.160500	0.967689
0.160600	0.910887
0.160700	0.933608
0.160800	0.995603
0.160900	1.061493
0.161000	1.073503
0.161100	1.075126
0.161200	1.053054
0.161300	1.053054
0.161400	1.052730
0.161500	1.059870
0.161600	1.065713
0.161700	1.060844
0.161800	1.069932
0.161900	1.072854
0.162000	1.053379
0.162100	1.039422
0.162200	0.999498
0.162300	0.980023
0.162400	0.993331
0.162500	1.008911
0.162600	1.020921
0.162700	0.951785
0.162800	0.861876
0.162900	0.841427
0.163000	0.874859
0.163100	0.962171
0.163200	0.950486
0.163300	0.864797
0.163400	0.741780
0.163500	0.666153
0.163600	0.680110
0.163700	0.732368
0.163800	0.745675
0.163900	0.677838
0.164000	0.579165
0.164100	0.512301
0.164200	0.469132
0.164300	0.458096
0.164400	0.417199
0.164500	0.362345
0.164600	0.301648
0.164700	0.242899
0.164800	0.210765
0.164900	0.171815
0.165000	0.129944
0.165100	0.105601
0.165200	0.094565
0.165300	0.090345
0.165400	0.079634
0.165500	0.018613
0.165600	-0.050523
0.165700	-0.087201
0.165800	-0.104404
0.165900	-0.086552
0.166000	-0.104404
0.166100	-0.125826
0.166200	-0.146275
0.166300	-0.167697
0.166400	-0.182303
0.166500	-0.201454
0.166600	-0.218981
0.166700	-0.239105
0.166800	-0.257606
0.166900	-0.270590
0.167000	-0.287468
0.167100	-0.309864
0.167200	-0.334857
0.167300	-0.354007
0.167400	-0.369587
0.167500	-0.401071
0.167600	-0.430933
0.167700	-0.464040
0.167800	-0.540966
0.167900	-0.693195
0.168000	-0.836336
0.168100	-0.861004
0.168200	-0.782131
0.168300	-0.702933
0.168400	-0.745453
0.168500	-0.890866
0.168600	-1.057376
0.168700	-1.113529
0.168800	-1.079123
0.168900	-1.015830
0.169000	-1.018751
0.169100	-1.094054
0.169200	-1.191429
0.169300	-1.249204
0.169400	-1.248230
0.169500	-1.236870
0.169600	-1.236546
0.169700	-1.251801
0.169800	-1.275820
0.169900	-1.279390
0.170000	-1.283610
0.170100	-1.277443
0.170200	-1.296593
0.170300	-1.318989
0.170400	-1.341061
0.170500	-1.334245
0.170600	-1.332946
0.170700	-1.349176
0.170800	-1.376765
0.170900	-1.393319
0.171000	-1.337491
0.171100	-1.260240
0.171200	-1.254073
0.171300	-1.321261
0.171400	-1.425452
0.171500	-1.481281
0.171600	-1.434216
0.171700	-1.349500
0.171800	-1.301462
0.171900	-1.340412
0.172000	-1.452717
0.172100	-1.543600
0.172200	-1.547495
0.172300	-1.498483
0.172400	-1.447199
0.172500	-1.424154
0.172600	-1.433892
0.172700	-1.435839
0.172800	-1.425452
0.172900	-1.393319
0.173000	-1.363782
0.173100	-1.323209
0.173200	-1.256994
0.173300	-1.171304
0.173400	-1.092431
0.173500	-1.030760
0.173600	-0.984021
0.173700	-0.946369
0.173800	-0.885672
0.173900	-0.790570
0.174000	-0.717863
0.174100	-0.618217
0.174200	-0.553625
0.174300	-0.482217
0.174400	-0.409186
0.174500	-0.329339
0.174600	-0.255659
0.174700	-0.166723
0.174800	-0.087850
0.174900	-0.026829
0.175000	0.015042
0.175100	0.052045
0.175200	0.087424
0.175300	0.110469
0.175400	0.148445
0.175500	0.175061
0.175600	0.212063
0.175700	0.241276
0.175800	0.242249
0.175900	0.262049
0.176000	0.249715
0.176100	0.323719
0.176200	0.422068
0.176300	0.590850
0.176400	0.653170
0.176500	0.566831
0.176600	0.450955
0.176700	0.425963
0.176800	0.534373
0.176900	0.662258
0.177000	0.737236
0.177100	0.713217
0.177200	0.638564
0.177300	0.612922
0.177400	0.653494
0.177500	0.740482
0.177600	0.817408
0.177700	0.839804
0.177800	0.846620
0.177900	0.838830
0.178000	0.855709
0.178100	0.873561
0.178200	0.899852
0.178300	0.908291
0.178400	0.912186
0.178500	0.923546
0.178600	0.918028
0.178700	0.901475
0.178800	0.867394
0.178900	0.838181
0.179000	0.824549
0.179100	0.834935
0.179200	0.848892
0.179300	0.837207
0.179400	0.737561
0.179500	0.650898
0.179600	0.641160
0.179700	0.688549
0.179800	0.761255
0.179900	0.736263
0.180000	0.641485
0.180100	0.533399
0.180200	0.499318
0.180300	0.546382
0.180400	0.617141
0.180500	0.617466
0.180600	0.546707
0.180700	0.477571
0.180800	0.451605
0.180900	0.450955
0.181000	0.472053
0.181100	0.452578
0.181200	0.421743
0.181300	0.392855
0.181400	0.373705
0.181500	0.370135
0.181600	0.364292
0.181700	0.347414
0.181800	0.341247
0.181900	0.348063
0.182000	0.358774
0.182100	0.350335
0.182200	0.285419
0.182300	0.220502
0.182400	0.186421
0.182500	0.187395
0.182600	0.185772
0.182700	0.153963
0.182800	0.124102
0.182900	0.104627
0.183000	0.078336
0.183100	0.060808
0.183200	0.042307
0.183300	0.028026
0.183400	0.014069
0.183500	-0.004108
0.183600	-0.019363
0.183700	-0.038838
0.183800	-0.058638
0.183900	-0.085578
0.184000	-0.113817
0.184100	-0.144327
0.184200	-0.185874
0.184300	-0.227745
0.184400	-0.281301
0.184500	-0.380947
0.184600	-0.564012
0.184700	-0.696766
0.184800	-0.702933
0.184900	-0.621138
0.185000	-0.579267
0.185100	-0.661386
0.185200	-0.840555
0.185300	-0.990188
0.185400	-1.030760
0.185500	-0.987591
0.185600	-0.949290
0.185700	-0.984994
0.185800	-1.083667
0.185900	-1.191429
0.186000	-1.255371
0.186100	-1.265433
0.186200	-1.266407
0.186300	-1.280040
0.186400	-1.315744
0.186500	-1.360536
0.186600	-1.393968
0.186700	-1.413443
0.186800	-1.438436
0.186900	-1.470894
0.187000	-1.511467
0.187100	-1.531915
0.187200	-1.544574
0.187300	-1.564698
0.187400	-1.609491
0.187500	-1.656880
0.187600	-1.671486
0.187700	-1.627667
0.187800	-1.585796
0.187900	-1.617605
0.188000	-1.710436
0.188100	-1.828584
0.188200	-1.876622
0.188300	-1.821768
0.188400	-1.733806
0.188500	-1.707515
0.188600	-1.772431
0.188700	-1.891553
0.188800	-1.957768
0.188900	-1.946732
0.189000	-1.877271
0.189100	-1.830207
0.189200	-1.812679
0.189300	-1.820469
0.189400	-1.828259
0.189500	-1.809758
0.189600	-1.780870
0.189700	-1.742894
0.189800	-1.696803
0.189900	-1.626694
0.190000	-1.541328
0.190100	-1.461481
0.190200	-1.410846
0.190300	-1.367677
0.190400	-1.330674
0.190500	-1.249529
0.190600	-1.145013
0.190700	-1.059973
0.190800	-0.935982
0.190900	-0.846398
0.191000	-0.763954
0.191100	-0.679563
0.191200	-0.579916
0.191300	-0.477997
0.191400	-0.376403
0.191500	-0.278380
0.191600	-0.214112
0.191700	-0.154065
0.191800	-0.113492
0.191900	-0.065129
0.192000	-0.025855
0.192100	0.019911
0.192200	0.064379
0.192300	0.097161
0.192400	0.131567
0.192500	0.142278
0.192600	0.147147
0.192700	0.169219
0.192800	0.211414
0.192900	0.346765
0.193000	0.478545
0.193100	0.502239
0.193200	0.356502
0.193300	0.268541
0.193400	0.257180
0.193500	0.393504
0.193600	0.503862
0.193700	0.544110
0.193800	0.483414
0.193900	0.399347
0.194000	0.378249
0.194100	0.435375
0.194200	0.527881
0.194300	0.591824
0.194400	0.597991
0.194500	0.594745
0.194600	0.588578
0.194700	0.599289
0.194800	0.605456
0.194900	0.632396
0.195000	0.647327
0.195100	0.658038
0.195200	0.670373
0.195300	0.665828
0.195400	0.625905
0.195500	0.604807
0.195600	0.570726
0.195700	0.566506
0.195800	0.573323
0.195900	0.584034
0.196000	0.554497
0.196100	0.446087
0.196200	0.398049
0.196300	0.402917
0.196400	0.479843
0.196500	0.533724
0.196600	0.500292
0.196700	0.387987
0.196800	0.287366
0.196900	0.268216
0.197000	0.329886
0.197100	0.398049
0.197200	0.402268
0.197300	0.339299
0.197400	0.280550
0.197500	0.255233
0.197600	0.256206
0.197700	0.270163
0.197800	0.254908
0.197900	0.226020
0.198000	0.185448
0.198100	0.157534
0.198200	0.143577
0.198300	0.134813
0.198400	0.132541
0.198500	0.150068
0.198600	0.172464
0.198700	0.196483
0.198800	0.199729
0.198900	0.154937
0.199000	0.138708
0.199100	0.155262
0.199200	0.217257
0.199300	0.253610
0.199400	0.260101
0.199500	0.276655
0.199600	0.296455
0.199700	0.315605
0.199800	0.333457
0.199900	0.354230
0.200000	0.367213
0.200100	0.375003
0.200200	0.380197
0.200300	0.384092
0.200400	0.389285
0.200500	0.376951
0.200600	0.374679
0.200700	0.362994
0.200800	0.353256
0.200900	0.330211
0.201000	0.304245
0.201100	0.263023
0.201200	0.146498
0.201300	-0.022934
0.201400	-0.114790
0.201500	-0.073893
0.201600	0.012121
0.201700	0.032245
0.201800	-0.079411
0.201900	-0.259554
0.202000	-0.375754
0.202100	-0.386465
0.202200	-0.331286
0.202300	-0.315057
0.202400	-0.362771
0.202500	-0.471506
0.202600	-0.573749
0.202700	-0.627954
0.202800	-0.648078
0.202900	-0.662035
0.203000	-0.696766
0.203100	-0.744804
0.203200	-0.788298
0.203300	-0.823677
0.203400	-0.853214
0.203500	-0.889892
0.203600	-0.927868
0.203700	-0.966818
0.203800	-0.978503
0.203900	-0.997978
0.204000	-1.022646
0.204100	-1.067438
0.204200	-1.098273
0.204300	-1.080097
0.204400	-1.003820
0.204500	-0.963572
0.204600	-1.004469
0.204700	-1.103142
0.204800	-1.203114
0.204900	-1.205061
0.205000	-1.125214
0.205100	-1.039200
0.205200	-1.042770
0.205300	-1.131705
0.205400	-1.248880
0.205500	-1.312822
0.205600	-1.300164
0.205700	-1.262188
0.205800	-1.245309
0.205900	-1.261538
0.206000	-1.293672
0.206100	-1.317691
0.206200	-1.317691
0.206300	-1.312173
0.206400	-1.296593
0.206500	-1.249529
0.206600	-1.180393
0.206700	-1.101844
0.206800	-1.032383
0.206900	-0.997978
0.207000	-0.966818
0.207100	-0.940851
0.207200	-0.856135
0.207300	-0.772718
0.207400	-0.714942
0.207500	-0.627954
0.207600	-0.571801
0.207700	-0.519544
0.207800	-0.463716
0.207900	-0.410160
0.208000	-0.349463
0.208100	-0.282924
0.208200	-0.241053
0.208300	-0.206972
0.208400	-0.186198
0.208500	-0.171268
0.208600	-0.170294
0.208700	-0.155688
0.208800	-0.140432
0.208900	-0.121931
0.209000	-0.110895
0.209100	-0.096289
0.209200	-0.111220
0.209300	-0.110895
0.209400	-0.094666
0.209500	-0.014819
0.209600	0.128970
0.209700	0.278927
0.209800	0.241600
0.209900	0.118908
0.210000	0.047176
0.210100	0.112092
0.210200	0.252636
0.210300	0.379547
0.210400	0.399347
0.210500	0.345466
0.210600	0.281524
0.210700	0.291910
0.210800	0.368512
0.210900	0.456149
0.211000	0.502564
0.211100	0.506134
0.211200	0.499643
0.211300	0.489905
0.211400	0.487633
0.211500	0.490554
0.211600	0.486984
0.211700	0.471729
0.211800	0.467509
0.211900	0.455175
0.212000	0.405514
0.212100	0.366889
0.212200	0.308140
0.212300	0.253934
0.212400	0.238354
0.212500	0.223424
0.212600	0.218230
0.212700	0.126374
0.212800	0.008551
0.212900	-0.049549
0.213000	-0.039163
0.213100	0.027376
0.213200	0.041333
0.213300	-0.048251
0.213400	-0.176785
0.213500	-0.247869
0.213600	-0.232289
0.213700	-0.161855
0.213800	-0.127449
0.213900	-0.171592
0.214000	-0.235210
0.214100	-0.272862
0.214200	-0.293310
0.214300	-0.283897
0.214400	-0.298828
0.214500	-0.329339
0.214600	-0.380298
0.214700	-0.423468
0.214800	-0.433530
0.214900	-0.436126
0.215000	-0.448136
0.215100	-0.447162
0.215200	-0.436126
0.215300	-0.408861
0.215400	-0.377702
0.215500	-0.384193
0.215600	-0.419248
0.215700	-0.436775
0.215800	-0.434828
0.215900	-0.382246
0.216000	-0.359525
0.216100	-0.354332
0.216200	-0.346542
0.216300	-0.341998
0.216400	-0.337129
0.216500	-0.333883
0.216600	-0.331611
0.216700	-0.340375
0.216800	-0.346217
0.216900	-0.351735
0.217000	-0.360174
0.217100	-0.368289
0.217200	-0.386465
0.217300	-0.395554
0.217400	-0.414055
0.217500	-0.420222
0.217600	-0.448785
0.217700	-0.480594
0.217800	-0.541615
0.217900	-0.685081
0.218000	-0.836336
0.218100	-0.884374
0.218200	-0.811668
0.218300	-0.718837
0.218400	-0.720460
0.218500	-0.838283
0.218600	-0.997004
0.218700	-1.068412
0.218800	-1.038226
0.218900	-0.947667
0.219000	-0.913586
0.219100	-0.939553
0.219200	-1.028488
0.219300	-1.087562
0.219400	-1.093080
0.219500	-1.075877
0.219600	-1.056078
0.219700	-1.058999
0.219800	-1.062894
0.219900	-1.061920
0.220000	-1.047963
0.220100	-1.043419
0.220200	-1.048288
0.220300	-1.048937
0.220400	-1.063543
0.220500	-1.058999
0.220600	-1.043744
0.220700	-1.033682
0.220800	-1.044393
0.220900	-1.052183
0.221000	-1.007066
0.221100	-0.913911
0.221200	-0.860679
0.221300	-0.902226
0.221400	-1.003171
0.221500	-1.076526
0.221600	-1.032383
0.221700	-0.920402
0.221800	-0.837634
0.221900	-0.844126
0.222000	-0.941825
0.222100	-1.026216
0.222200	-1.021672
0.222300	-0.947667
0.222400	-0.876259
0.222500	-0.836660
0.222600	-0.824651
0.222700	-0.810694
0.222800	-0.771095
0.222900	-0.725653
0.223000	-0.687677
0.223100	-0.641262
0.223200	-0.567257
0.223300	-0.465014
0.223400	-0.351735
0.223500	-0.270265
0.223600	-0.194313
0.223700	-0.133616
0.223800	-0.049225
0.223900	0.075414
0.224000	0.184798
0.224100	0.300999
0.224200	0.411032
0.224300	0.499318
0.224400	0.583060
0.224500	0.677189
0.224600	0.775212
0.224700	0.885246
0.224800	0.986840
0.224900	1.068959
0.225000	1.130305
0.225100	1.190352
0.225200	1.237741
0.225300	1.267927
0.225400	1.297140
0.225500	1.329273
0.225600	1.360433
0.225700	1.376662
0.225800	1.388347
0.225900	1.382180
0.226000	1.371469
0.226100	1.394514
0.226200	1.464624
0.226300	1.617826
0.226400	1.671382
0.226500	1.580499
0.226600	1.415287
0.226700	1.336414
0.226800	1.382505
0.226900	1.466571
0.227000	1.532137
0.227100	1.480204
0.227200	1.375039
0.227300	1.279937
0.227400	1.240662
0.227500	1.270524
0.227600	1.289350
0.227700	1.292271
0.227800	1.242934
0.227900	1.191651
0.228000	1.118295
0.228100	1.072854
0.228200	1.038123
0.228300	0.999498
0.228400	0.960873
0.228500	0.904396
0.228600	0.844673
0.228700	0.769045
0.228800	0.707699
0.228900	0.620062
0.229000	0.535022
0.229100	0.496721
0.229200	0.453227
0.229300	0.438297
0.229400	0.295481
0.229500	0.163376
0.229600	0.096188
0.229700	0.118259
0.229800	0.167271
0.229900	0.145849
0.230000	0.035166
0.230100	-0.112843
0.230200	-0.192690
0.230300	-0.187821
0.230400	-0.125502
0.230500	-0.121607
0.230600	-0.193664
0.230700	-0.282924
0.230800	-0.331286
0.230900	-0.357253
0.231000	-0.356928
0.231100	-0.375429
0.231200	-0.416327
0.231300	-0.471506
0.231400	-0.517272
0.231500	-0.534475
0.231600	-0.559792
0.231700	-0.576021
0.231800	-0.587057
0.231900	-0.579267
0.232000	-0.556222
0.232100	-0.546809
0.232200	-0.589004
0.232300	-0.635095
0.232400	-0.661061
0.232500	-0.658789
0.232600	-0.616918
0.232700	-0.602961
0.232800	-0.599066
0.232900	-0.577644
0.233000	-0.558169
0.233100	-0.537396
0.233200	-0.512403
0.233300	-0.488059
0.233400	-0.468909
0.233500	-0.456250
0.233600	-0.439048
0.233700	-0.415028
0.233800	-0.407238
0.233900	-0.399449
0.234000	-0.393281
0.234100	-0.389062
0.234200	-0.387764
0.234300	-0.396203
0.234400	-0.412107
0.234500	-0.475725
0.234600	-0.616918
0.234700	-0.738961
0.234800	-0.746102
0.234900	-0.651649
0.235000	-0.577319
0.235100	-0.608804
0.235200	-0.744804
0.235300	-0.875286
0.235400	-0.916832
0.235500	-0.873987
0.235600	-0.805500
0.235700	-0.796737
0.235800	-0.852240
0.235900	-0.923648
0.236000	-0.979152
0.236100	-0.993758
0.236200	-0.981749
0.236300	-0.970388
0.236400	-0.981749
0.236500	-0.994083
0.236600	-0.998302
0.236700	-1.016479
0.236800	-1.016803
0.236900	-1.026865
0.237000	-1.046016
0.237100	-1.067763
0.237200	-1.055104
0.237300	-1.049586
0.237400	-1.067114
0.237500	-1.090484
0.237600	-1.097949
0.237700	-1.031734
0.237800	-0.948641
0.237900	-0.944746
0.238000	-1.037577
0.238100	-1.147285
0.238200	-1.195973
0.238300	-1.149557
0.238400	-1.049262
0.238500	-1.007715
0.238600	-1.053806
0.238700	-1.170331
0.238800	-1.251152
0.238900	-1.256994
0.239000	-1.203114
0.239100	-1.154426
0.239200	-1.145662
0.239300	-1.163839
0.239400	-1.183314
0.239500	-1.178121
0.239600	-1.164164
0.239700	-1.145338
0.239800	-1.120345
0.239900	-1.074579
0.240000	-1.011935
0.240100	-0.943772
0.240200	-0.903524
0.240300	-0.874312
0.240400	-0.862302
0.240500	-0.821080
0.240600	-0.749023
0.240700	-0.698064
0.240800	-0.603611
0.240900	-0.545510
0.241000	-0.486112
0.241100	-0.425740
0.241200	-0.358551
0.241300	-0.286494
0.241400	-0.207945
0.241500	-0.143354
0.241600	-0.088175
0.241700	-0.070972
0.241800	-0.041759
0.241900	-0.042733
0.242000	-0.038514
0.242100	-0.037865
0.242200	-0.027478
0.242300	-0.020013
0.242400	-0.018714
0.242500	-0.008003
0.242600	-0.028452
0.242700	-0.016442
0.242800	0.019262
0.242900	0.140980
0.243000	0.276331
0.243100	0.314307
0.243200	0.213362
0.243300	0.075414
0.243400	0.079634
0.243500	0.167596
0.243600	0.296779
0.243700	0.348712
0.243800	0.315280
0.243900	0.251013
0.244000	0.227319
0.244100	0.269839
0.244200	0.344817
0.244300	0.404865
0.244400	0.431481
0.244500	0.420445
0.244600	0.409734
0.244700	0.410707
0.244800	0.427910
0.244900	0.436998
0.245000	0.448359
0.245100	0.453552
0.245200	0.451280
0.245300	0.443815
0.245400	0.433753
0.245500	0.406163
0.245600	0.363643
0.245700	0.339299
0.245800	0.344168
0.245900	0.351958
0.246000	0.336054
0.246100	0.213037
0.246200	0.129944
0.246300	0.123128
0.246400	0.191290
0.246500	0.232187
0.246600	0.206221
0.246700	0.079309
0.246800	-0.038838
0.246900	-0.078762
0.247000	-0.036566
0.247100	0.017964
0.247200	-0.001836
0.247300	-0.076814
0.247400	-0.152117
0.247500	-0.168022
0.247600	-0.171592
0.247700	-0.158284
0.247800	-0.181654
0.247900	-0.215411
0.248000	-0.260852
0.248100	-0.271888
0.248200	-0.275783
0.248300	-0.276757
0.248400	-0.280327
0.248500	-0.272537
0.248600	-0.248193
0.248700	-0.225473
0.248800	-0.215735
0.248900	-0.253387
0.249000	-0.286170
0.249100	-0.282924
0.249200	-0.249167
0.249300	-0.207621
0.249400	-0.198857
0.249500	-0.181654
0.249600	-0.168346
0.249700	-0.157311
0.249800	-0.129072
0.249900	-0.107325
0.250000	-0.083955
0.250100	-0.070647
0.250200	-0.049549
0.250300	-0.031697
0.250400	-0.016442
0.250500	-0.008003
0.250600	-0.000862
0.250700	0.007902
0.250800	0.009849
0.250900	0.001085
0.251000	-0.031048
0.251100	-0.060585
0.251200	-0.157311
0.251300	-0.327391
0.251400	-0.432880
0.251500	-0.424441
0.251600	-0.334532
0.251700	-0.302074
0.251800	-0.383219
0.251900	-0.550054
0.252000	-0.680861
0.252100	-0.722732
0.252200	-0.677291
0.252300	-0.647754
0.252400	-0.685405
0.252500	-0.786026
0.252600	-0.887295
0.252700	-0.949290
0.252800	-0.971686
0.252900	-0.971686
0.253000	-0.993758
0.253100	-1.038226
0.253200	-1.080097
0.253300	-1.103791
0.253400	-1.123915
0.253500	-1.141768
0.253600	-1.169032
0.253700	-1.217071
0.253800	-1.240116
0.253900	-1.242713
0.254000	-1.259591
0.254100	-1.285882
0.254200	-1.324832
0.254300	-1.319314
0.254400	-1.242388
0.254500	-1.169682
0.254600	-1.189806
0.254700	-1.306006
0.254800	-1.395915
0.254900	-1.421882
0.255000	-1.335868
0.255100	-1.234273
0.255200	-1.207658
0.255300	-1.286207
0.255400	-1.408574
0.255500	-1.464402
0.255600	-1.444927
0.255700	-1.382932
0.255800	-1.333920
0.255900	-1.323858
0.256000	-1.339763
0.256100	-1.350798
0.256200	-1.331973
0.256300	-1.298541
0.256400	-1.258942
0.256500	-1.208307
0.256600	-1.143066
0.256700	-1.054779
0.256800	-0.975581
0.256900	-0.921052
0.257000	-0.875935
0.257100	-0.838932
0.257200	-0.761357
0.257300	-0.666579
0.257400	-0.595171
0.257500	-0.489682
0.257600	-0.423143
0.257700	-0.356279
0.257800	-0.283248
0.257900	-0.205349
0.258000	-0.112843
0.258100	-0.018390
0.258200	0.057563
0.258300	0.110794
0.258400	0.140980
0.258500	0.177333
0.258600	0.189992
0.258700	0.214335
0.258800	0.230889
0.258900	0.261075
0.259000	0.271462
0.259100	0.289638
0.259200	0.283147
0.259300	0.281524
0.259400	0.287691
0.259500	0.361371
0.259600	0.469781
0.259700	0.628502
0.259800	0.620387
0.259900	0.524960
0.260000	0.432454
0.260100	0.480817
0.260200	0.597991
0.260300	0.721981
0.260400	0.767747
0.260500	0.730096
0.260600	0.674917
0.260700	0.671995
0.260800	0.740807
0.260900	0.835260
0.261000	0.913160
0.261100	0.941398
0.261200	0.940424
0.261300	0.957627
0.261400	0.980673
0.261500	1.025789
0.261600	1.054028
0.261700	1.086486
0.261800	1.104014
0.261900	1.116672
0.262000	1.124138
0.262100	1.110505
0.262200	1.077073
0.262300	1.041045
0.262400	1.054353
0.262500	1.067660
0.262600	1.086811
0.262700	1.036176
0.262800	0.915756
0.262900	0.855709
0.263000	0.879728
0.263100	0.952759
0.263200	0.968014
0.263300	0.917704
0.263400	0.772291
0.263500	0.669723
0.263600	0.650248
0.263700	0.711270
0.263800	0.761255
0.263900	0.736263
0.264000	0.664530
0.264100	0.605781
0.264200	0.583385
0.264300	0.584358
0.264400	0.599614
0.264500	0.587929
0.264600	0.557094
0.264700	0.519118
0.264800	0.503213
0.264900	0.486659
0.265000	0.461017
0.265100	0.442841
0.265200	0.424989
0.265300	0.423041
0.265400	0.423041
0.265500	0.402917
0.265600	0.337352
0.265700	0.289638
0.265800	0.272436
0.265900	0.293209
0.266000	0.297428
0.266100	0.279576
0.266200	0.268216
0.266300	0.252961
0.266400	0.255882
0.266500	0.256206
0.266600	0.259777
0.266700	0.252961
0.266800	0.260101
0.266900	0.258479
0.267000	0.261075
0.267100	0.256531
0.267200	0.261724
0.267300	0.255882
0.267400	0.249715
0.267500	0.239328
0.267600	0.228942
0.267700	0.199405
0.267800	0.157209
0.267900	0.041333
0.268000	-0.110895
0.268100	-0.182303
0.268200	-0.138485
0.268300	-0.052795
0.268400	-0.029101
0.268500	-0.134590
0.268600	-0.287143
0.268700	-0.400747
0.268800	-0.405616
0.268900	-0.338103
0.269000	-0.309215
0.269100	-0.347191
0.269200	-0.446837
0.269300	-0.540966
0.269400	-0.595821
0.269500	-0.609453
0.269600	-0.611400
0.269700	-0.659439
0.269800	-0.704231
0.269900	-0.751295
0.270000	-0.795114
0.270100	-0.839257
0.270200	-0.878531
0.270300	-0.935009
0.270400	-0.999601
0.270500	-1.022321
0.270600	-1.037252
0.270700	-1.067763
0.270800	-1.121643
0.270900	-1.154426
0.271000	-1.136574
0.271100	-1.056078
0.271200	-1.028813
0.271300	-1.082694
0.271400	-1.216421
0.271500	-1.303085
0.271600	-1.320612
0.271700	-1.242388
0.271800	-1.182989
0.271900	-1.202464
0.272000	-1.304708
0.272100	-1.432918
0.272200	-1.495238
0.272300	-1.474789
0.272400	-1.424479
0.272500	-1.379362
0.272600	-1.379362
0.272700	-1.394942
0.272800	-1.396240
0.272900	-1.384555
0.273000	-1.353720
0.273100	-1.304059
0.273200	-1.244011
0.273300	-1.170006
0.273400	-1.081071
0.273500	-1.016154
0.273600	-0.957729
0.273700	-0.901252
0.273800	-0.836336
0.273900	-0.731496
0.274000	-0.625033
0.274100	-0.501692
0.274200	-0.384193
0.274300	-0.297205
0.274400	-0.205349
0.274500	-0.107325
0.274600	-0.006705
0.274700	0.112092
0.274800	0.226345
0.274900	0.325018
0.275000	0.396426
0.275100	0.468483
0.275200	0.528206
0.275300	0.576568
0.275400	0.620712
0.275500	0.663232
0.275600	0.709322
0.275700	0.733341
0.275800	0.767747
0.275900	0.761905
0.276000	0.787871
0.276100	0.803126
0.276200	0.899852
0.276300	1.042343
0.276400	1.155622
0.276500	1.120567
0.276600	0.986515
0.276700	0.913160
0.276800	0.963794
0.276900	1.084214
0.277000	1.200739
0.277100	1.208204
0.277200	1.157894
0.277300	1.081617
0.277400	1.086162
0.277500	1.135498
0.277600	1.221512
0.277700	1.272796
0.277800	1.266629
0.277900	1.237741
0.278000	1.221188
0.278100	1.220863
0.278200	1.216643
0.278300	1.216968
0.278400	1.211775
0.278500	1.189703
0.278600	1.173799
0.278700	1.143288
0.278800	1.105636
0.278900	1.031307
0.279000	0.993007
0.279100	0.970286
0.279200	0.976778
0.279300	0.955031
0.279400	0.862200
0.279500	0.736587
0.279600	0.691146
0.279700	0.732043
0.279800	0.800530
0.279900	0.808644
0.280000	0.728148
0.280100	0.581437
0.280200	0.497695
0.280300	0.497371
0.280400	0.553848
0.280500	0.593122
0.280600	0.550927
0.280700	0.464912
0.280800	0.401294
0.280900	0.359748
0.281000	0.347414
0.281100	0.326965
0.281200	0.287042
0.281300	0.231214
0.281400	0.157858
0.281500	0.111118
0.281600	0.059510
0.281700	0.020560
0.281800	-0.007354
0.281900	-0.022934
0.282000	-0.028776
0.282100	-0.023907
0.282200	-0.070972
0.282300	-0.150819
0.282400	-0.202752
0.282500	-0.228069
0.282600	-0.216709
0.282700	-0.245272
0.282800	-0.285845
0.282900	-0.321224
0.283000	-0.360823
0.283100	-0.390036
0.283200	-0.420871
0.283300	-0.449759
0.283400	-0.479620
0.283500	-0.513052
0.283600	-0.539019
0.283700	-0.567257
0.283800	-0.593224
0.283900	-0.610751
0.284000	-0.639964
0.284100	-0.646455
0.284200	-0.674694
0.284300	-0.690274
0.284400	-0.727276
0.284500	-0.775639
0.284600	-0.917806
0.284700	-1.063868
0.284800	-1.104116
0.284900	-1.050560
0.285000	-0.966169
0.285100	-0.983047
0.285200	-1.111581
0.285300	-1.275171
0.285400	-1.365729
0.285500	-1.348851
0.285600	-1.287505
0.285700	-1.257643
0.285800	-1.308927
0.285900	-1.397863
0.286000	-1.480631
0.286100	-1.500756
0.286200	-1.484202
0.286300	-1.467324
0.286400	-1.473815
0.286500	-1.485825
0.286600	-1.501729
0.286700	-1.513414
0.286800	-1.500106
0.286900	-1.509195
0.287000	-1.538407
0.287100	-1.559505
0.287200	-1.545873
0.287300	-1.539056
0.287400	-1.553338
0.287500	-1.577682
0.287600	-1.588717
0.287700	-1.515686
0.287800	-1.416364
0.287900	-1.383581
0.288000	-1.442331
0.288100	-1.540679
0.288200	-1.576383
0.288300	-1.535810
0.288400	-1.416040
0.288500	-1.313147
0.288600	-1.304708
0.288700	-1.376765
0.288800	-1.449147
0.288900	-1.444278
0.289000	-1.382283
0.289100	-1.306006
0.289200	-1.236546
0.289300	-1.210904
0.289400	-1.195324
0.289500	-1.175199
0.289600	-1.146961
0.289700	-1.097624
0.289800	-1.032708
0.289900	-0.960326
0.290000	-0.855811
0.290100	-0.759734
0.290200	-0.677940
0.290300	-0.601988
0.290400	-0.539668
0.290500	-0.457224
0.290600	-0.342322
0.290700	-0.242676
0.290800	-0.100509
0.290900	0.004331
0.291000	0.097811
0.291100	0.177009
0.291200	0.269839
0.291300	0.359099
0.291400	0.462640
0.291500	0.558067
0.291600	0.628502
0.291700	0.665504
0.291800	0.696014
0.291900	0.703155
0.292000	0.719060
0.292100	0.717437
0.292200	0.728797
0.292300	0.724902
0.292400	0.713866
0.292500	0.691470
0.292600	0.653819
0.292700	0.628826
0.292800	0.613571
0.292900	0.686277
0.293000	0.784625
0.293100	0.823575
0.293200	0.728148
0.293300	0.561962
0.293400	0.518793
0.293500	0.564234
0.293600	0.679136
0.293700	0.753141
0.293800	0.734964
0.293900	0.670373
0.294000	0.614869
0.294100	0.634019
0.294200	0.692120
0.294300	0.747623
0.294400	0.775537
0.294500	0.762878
0.294600	0.751193
0.294700	0.741456
0.294800	0.728473
0.294900	0.719709
0.295000	0.722306
0.295100	0.710621
0.295200	0.688874
0.295300	0.672320
0.295400	0.612597
0.295500	0.554497
0.295600	0.480817
0.295700	0.452578
0.295800	0.440569
0.295900	0.435051
0.296000	0.400321
0.296100	0.286068
0.296200	0.191290
0.296300	0.164999
0.296400	0.226994
0.296500	0.279901
0.296600	0.268541
0.296700	0.186097
0.296800	0.079634
0.296900	0.035491
0.297000	0.063730
0.297100	0.136436
0.297200	0.154288
0.297300	0.119558
0.297400	0.070546
0.297500	0.061782
0.297600	0.058536
0.297700	0.076388
0.297800	0.072818
0.297900	0.065352
0.298000	0.052045
0.298100	0.039711
0.298200	0.033543
0.298300	0.024131
0.298400	0.022183
0.298500	0.029648
0.298600	0.061457
0.298700	0.107223
0.298800	0.128970
0.298900	0.084178
0.299000	0.029324
0.299100	-0.004108
0.299200	-0.035268
0.299300	-0.067726
0.299400	-0.088824
0.299500	-0.112843
0.299600	-0.128098
0.299700	-0.150494
0.299800	-0.166723
0.299900	-0.180356
0.300000	-0.191392
0.300100	-0.205349
0.300200	-0.220929
0.300300	-0.235535
0.300400	-0.256308
0.300500	-0.267019
0.300600	-0.281625
0.300700	-0.298179
0.300800	-0.316680
0.300900	-0.343945
0.301000	-0.375105
0.301100	-0.412432
0.301200	-0.489682
0.301300	-0.654245
0.301400	-0.782780
0.301500	-0.800632
0.301600	-0.724030
0.301700	-0.661386
0.301800	-0.703906
0.301900	-0.852565
0.302000	-1.004145
0.302100	-1.071333
0.302200	-1.056727
0.302300	-1.019400
0.302400	-1.037577
0.302500	-1.123915
0.302600	-1.226159
0.302700	-1.295944
0.302800	-1.312822
0.302900	-1.320612
0.303000	-1.341386
0.303100	-1.368975
0.303200	-1.384230
0.303300	-1.388450
0.303400	-1.381634
0.303500	-1.380011
0.303600	-1.395266
0.303700	-1.437137
0.303800	-1.437787
0.303900	-1.409548
0.304000	-1.384880
0.304100	-1.401758
0.304200	-1.426751
0.304300	-1.421233
0.304400	-1.335219
0.304500	-1.252450
0.304600	-1.240765
0.304700	-1.323534
0.304800	-1.412145
0.304900	-1.427075
0.305000	-1.371247
0.305100	-1.280040
0.305200	-1.242063
0.305300	-1.291400
0.305400	-1.391696
0.305500	-1.461481
0.305600	-1.450445
0.305700	-1.407600
0.305800	-1.370598
0.305900	-1.358264
0.306000	-1.365729
0.306100	-1.363457
0.306200	-1.355343
0.306300	-1.333920
0.306400	-1.313796
0.306500	-1.273872
0.306600	-1.223238
0.306700	-1.142417
0.306800	-1.058674
0.306900	-0.989538
0.307000	-0.935009
0.307100	-0.891515
0.307200	-0.818484
0.307300	-0.706178
0.307400	-0.602961
0.307500	-0.465988
0.307600	-0.371859
0.307700	-0.285845
0.307800	-0.198208
0.307900	-0.097263
0.308000	0.023806
0.308100	0.149095
0.308200	0.253934
0.308300	0.351309
0.308400	0.426936
0.308500	0.506134
0.308600	0.567480
0.308700	0.637914
0.308800	0.698936
0.308900	0.768721
0.309000	0.833962
0.309100	0.895632
0.309200	0.942047
0.309300	0.975155
0.309400	1.015078
0.309500	1.081942
0.309600	1.233522
0.309700	1.401330
0.309800	1.467870
0.309900	1.393865
0.310000	1.293245
0.310100	1.310772
0.310200	1.423402
0.310300	1.544795
0.310400	1.603869
0.310500	1.573034
0.310600	1.494161
0.310700	1.465597
0.310800	1.492862
0.310900	1.568165
0.311000	1.621721
0.311100	1.624643
0.311200	1.594781
0.311300	1.568814
0.311400	1.560051
0.311500	1.549989
0.311600	1.524022
0.311700	1.490590
0.311800	1.448719
0.311900	1.399058
0.312000	1.346476
0.312100	1.272147
0.312200	1.193598
0.312300	1.103364
0.312400	1.037474
0.312500	1.005341
0.312600	0.959575
0.312700	0.887842
0.312800	0.717112
0.312900	0.605781
0.313000	0.551576
0.313100	0.579490
0.313200	0.565208
0.313300	0.495098
0.313400	0.338326
0.313500	0.199729
0.313600	0.133839
0.313700	0.147147
0.313800	0.177982
0.313900	0.139682
0.314000	0.043605
0.314100	-0.055392
0.314200	-0.122256
0.314300	-0.171268
0.314400	-0.201778
0.314500	-0.251439
0.314600	-0.315382
0.314700	-0.391659
0.314800	-0.450732
0.314900	-0.493253
0.315000	-0.531229
0.315100	-0.551677
0.315200	-0.553949
0.315300	-0.543563
0.315400	-0.542265
0.315500	-0.546484
0.315600	-0.566608
0.315700	-0.556546
0.315800	-0.526360
0.315900	-0.490656
0.316000	-0.438398
0.316100	-0.380623
0.316200	-0.313110
0.316300	-0.233912
0.316400	-0.158284
0.316500	-0.088499
0.316600	-0.020986
0.316700	0.040684
0.316800	0.103329
0.316900	0.159481
0.317000	0.220502
0.317100	0.273409
0.317200	0.321123
0.317300	0.363643
0.317400	0.401944
0.317500	0.439920
0.317600	0.458096
0.317700	0.457447
0.317800	0.455824
0.317900	0.363643
0.318000	0.216607
0.318100	0.104627
0.318200	0.122803
0.318300	0.185772
0.318400	0.204273
0.318500	0.108197
0.318600	-0.064156
0.318700	-0.210217
0.318800	-0.262150
0.318900	-0.236508
0.319000	-0.206647
0.319100	-0.237482
0.319200	-0.339076
0.319300	-0.460794
0.319400	-0.543238
0.319500	-0.578618
0.319600	-0.606207
0.319700	-0.660088
0.319800	-0.730522
0.319900	-0.799983
0.320000	-0.883725
0.320100	-0.948317
0.320200	-0.998951
0.320300	-1.080097
0.320400	-1.184612
0.320500	-1.248880
0.320600	-1.293347
0.320700	-1.353071
0.320800	-1.434865
0.320900	-1.499782
0.321000	-1.523476
0.321100	-1.473166
0.321200	-1.460832
0.321300	-1.512765
0.321400	-1.655257
0.321500	-1.759448
0.321600	-1.797749
0.321700	-1.745491
0.321800	-1.678302
0.321900	-1.678627
0.322000	-1.767562
0.322100	-1.890904
0.322200	-1.959715
0.322300	-1.952899
0.322400	-1.905835
0.322500	-1.875973
0.322600	-1.887009
0.322700	-1.919143
0.322800	-1.951925
0.322900	-1.974646
0.323000	-1.987954
0.323100	-1.996393
0.323200	-2.010350
0.323300	-2.024957
0.323400	-2.019439
0.323500	-2.020412
0.323600	-2.042809
0.323700	-2.066503
0.323800	-2.087926
0.323900	-2.074293
0.324000	-2.053195
0.324100	-2.018465
0.324200	-1.973348
0.324300	-1.951925
0.324400	-1.924661
0.324500	-1.874675
0.324600	-1.795477
0.324700	-1.699400
0.324800	-1.590340
0.324900	-1.489071
0.325000	-1.397538
0.325100	-1.302436
0.325200	-1.201815
0.325300	-1.102168
0.325400	-1.014531
0.325500	-0.908068
0.325600	-0.815563
0.325700	-0.709100
0.325800	-0.612374
0.325900	-0.511429
0.326000	-0.409511
0.326100	-0.295258
0.326200	-0.113492
0.326300	0.138383
0.326400	0.385390
0.326500	0.499643
0.326600	0.498669
0.326700	0.523986
0.326800	0.651547
0.326900	0.879078
0.327000	1.084214
0.327100	1.217942
0.327200	1.258190
0.327300	1.277665
0.327400	1.339984
0.327500	1.449693
0.327600	1.572709
0.327700	1.668137
0.327800	1.703840
0.327900	1.706437
0.328000	1.711630
0.328100	1.729807
0.328200	1.740843
0.328300	1.749931
0.328400	1.752852
0.328500	1.738895
0.328600	1.708060
0.328700	1.677225
0.328800	1.604518
0.328900	1.512662
0.329000	1.425025
0.329100	1.364977
0.329200	1.309149
0.329300	1.245856
0.329400	1.102391
0.329500	0.923546
0.329600	0.811241
0.329700	0.778783
0.329800	0.792740
0.329900	0.763527
0.330000	0.661284
0.330100	0.500616
0.330200	0.380521
0.330300	0.352607
0.330400	0.394478
0.330500	0.434402
0.330600	0.388636
0.330700	0.309762
0.330800	0.243872
0.330900	0.220827
0.331000	0.225371
0.331100	0.243872
0.331200	0.240302
0.331300	0.224397
0.331400	0.213362
0.331500	0.212063
0.331600	0.207519
0.331700	0.202975
0.331800	0.207195
0.331900	0.224397
0.332000	0.245171
0.332100	0.262373
0.332200	0.241276
0.332300	0.182526
0.332400	0.140980
0.332500	0.120207
0.332600	0.104302
0.332700	0.102355
0.332800	0.081257
0.332900	0.061457
0.333000	0.048474
0.333100	0.028999
0.333200	0.006279
0.333300	-0.018390
0.333400	-0.046628
0.333500	-0.072270
0.333600	-0.109922
0.333700	-0.151144
0.333800	-0.190742
0.333900	-0.228069
0.334000	-0.263124
0.334100	-0.295258
0.334200	-0.338103
0.334300	-0.380947
0.334400	-0.432556
0.334500	-0.499744
0.334600	-0.648727
0.334700	-0.821730
0.334800	-0.909367
0.334900	-0.870741
0.335000	-0.798035
0.335100	-0.802904
0.335200	-0.935333
0.335300	-1.118398
0.335400	-1.245958
0.335500	-1.256670
0.335600	-1.219667
0.335700	-1.209605
0.335800	-1.274522
0.335900	-1.381634
0.336000	-1.484526
0.336100	-1.521204
0.336200	-1.522503
0.336300	-1.508546
0.336400	-1.523801
0.336500	-1.547820
0.336600	-1.558856
0.336700	-1.562751
0.336800	-1.556259
0.336900	-1.554961
0.337000	-1.577682
0.337100	-1.604947
0.337200	-1.598455
0.337300	-1.574760
0.337400	-1.572164
0.337500	-1.589042
0.337600	-1.590016
0.337700	-1.532565
0.337800	-1.419610
0.337900	-1.356316
0.338000	-1.385529
0.338100	-1.475438
0.338200	-1.517958
0.338300	-1.477386
0.338400	-1.357939
0.338500	-1.241414
0.338600	-1.211877
0.338700	-1.267705
0.338800	-1.332297
0.338900	-1.332946
0.339000	-1.247906
0.339100	-1.141443
0.339200	-1.066464
0.339300	-1.027190
0.339400	-1.007066
0.339500	-0.975906
0.339600	-0.932737
0.339700	-0.876259
0.339800	-0.805825
0.339900	-0.735715
0.340000	-0.659114
0.340100	-0.571477
0.340200	-0.484814
0.340300	-0.409186
0.340400	-0.353033
0.340500	-0.306943
0.340600	-0.220929
0.340700	-0.151144
0.340800	-0.091745
0.340900	-0.020662
0.341000	0.014069
0.341100	0.055940
0.341200	0.094565
0.341300	0.154937
0.341400	0.220178
0.341500	0.278278
0.341600	0.331509
0.341700	0.348063
0.341800	0.369485
0.341900	0.369485
0.342000	0.374354
0.342100	0.371757
0.342200	0.376626
0.342300	0.380197
0.342400	0.381170
0.342500	0.378898
0.342600	0.356502
0.342700	0.340598
0.342800	0.346116
0.342900	0.412655
0.343000	0.551900
0.343100	0.625256
0.343200	0.587604
0.343300	0.424989
0.343400	0.369810
0.343500	0.408435
0.343600	0.536970
0.343700	0.615194
0.343800	0.617466
0.343900	0.530802
0.344000	0.463289
0.344100	0.471404
0.344200	0.527557
0.344300	0.609351
0.344400	0.658038
0.344500	0.662907
0.344600	0.643757
0.344700	0.628826
0.344800	0.638564
0.344900	0.650573
0.345000	0.655117
0.345100	0.646354
0.345200	0.636291
0.345300	0.612922
0.345400	0.585008
0.345500	0.554172
0.345600	0.506134
0.345700	0.462316
0.345800	0.451605
0.345900	0.451280
0.346000	0.452903
0.346100	0.362020
0.346200	0.257505
0.346300	0.230565
0.346400	0.298402
0.346500	0.392531
0.346600	0.426612
0.346700	0.383118
0.346800	0.294832
0.346900	0.261724
0.347000	0.308464
0.347100	0.403566
0.347200	0.462965
0.347300	0.441867
0.347400	0.388960
0.347500	0.349686
0.347600	0.332483
0.347700	0.349361
0.347800	0.359748
0.347900	0.358450
0.348000	0.333132
0.348100	0.313008
0.348200	0.300674
0.348300	0.298402
0.348400	0.297428
0.348500	0.310087
0.348600	0.337352
0.348700	0.360397
0.348800	0.369161
0.348900	0.330860
0.349000	0.274058
0.349100	0.244197
0.349200	0.241600
0.349300	0.267567
0.349400	0.264646
0.349500	0.256206
0.349600	0.259452
0.349700	0.263023
0.349800	0.261400
0.349900	0.251338
0.350000	0.235109
0.350100	0.203624
0.350200	0.160779
0.350300	0.100407
0.350400	0.030622
0.350500	-0.059287
0.350600	-0.150819
0.350700	-0.259878
0.350800	-0.364394
0.350900	-0.467286
0.351000	-0.574398
0.351100	-0.696441
0.351200	-0.831792
0.351300	-1.052183
0.351400	-1.259591
0.351500	-1.362159
0.351600	-1.333920
0.351700	-1.299190
0.351800	-1.345930
0.351900	-1.509519
0.352000	-1.687715
0.352100	-1.783792
0.352200	-1.768536
0.352300	-1.705243
0.352400	-1.688040
0.352500	-1.738025
0.352600	-1.821768
0.352700	-1.892851
0.352800	-1.913949
0.352900	-1.903563
0.353000	-1.893825
0.353100	-1.902913
0.353200	-1.898369
0.353300	-1.890255
0.353400	-1.872727
0.353500	-1.847410
0.353600	-1.816899
0.353700	-1.806512
0.353800	-1.782493
0.353900	-1.717901
0.354000	-1.662722
0.354100	-1.634808
0.354200	-1.623772
0.354300	-1.592612
0.354400	-1.498159
0.354500	-1.385204
0.354600	-1.340736
0.354700	-1.397214
0.354800	-1.500431
0.354900	-1.555935
0.355000	-1.524125
0.355100	-1.430970
0.355200	-1.387801
0.355300	-1.438436
0.355400	-1.559180
0.355500	-1.665319
0.355600	-1.698102
0.355700	-1.675381
0.355800	-1.640975
0.355900	-1.623772
0.356000	-1.647467
0.356100	-1.682522
0.356200	-1.700374
0.356300	-1.708813
0.356400	-1.703620
0.356500	-1.681223
0.356600	-1.640651
0.356700	-1.578980
0.356800	-1.515362
0.356900	-1.462130
0.357000	-1.417987
0.357100	-1.387152
0.357200	-1.322884
0.357300	-1.216746
0.357400	-1.118073
0.357500	-0.984021
0.357600	-0.899629
0.357700	-0.815238
0.357800	-0.738961
0.357900	-0.650999
0.358000	-0.557195
0.358100	-0.455926
0.358200	-0.359525
0.358300	-0.279353
0.358400	-0.225473
0.358500	-0.164776
0.358600	-0.105053
0.358700	-0.063506
0.358800	-0.001511
0.358900	0.053018
0.359000	0.127997
0.359100	0.160130
0.359200	0.209791
0.359300	0.220827
0.359400	0.259777
0.359500	0.303920
0.359600	0.401294
0.359700	0.568454
0.359800	0.641485
0.359900	0.573323
0.360000	0.434402
0.360100	0.413629
0.360200	0.491204
0.360300	0.621036
0.360400	0.679785
0.360500	0.623633
0.360600	0.530478
0.360700	0.440569
0.360800	0.444464
0.360900	0.472378
0.361000	0.502888
0.361100	0.481791
0.361200	0.421418
0.361300	0.359748
0.361400	0.296130
0.361500	0.249066
0.361600	0.186097
0.361700	0.124426
0.361800	0.059835
0.361900	-0.013845
0.362000	-0.079411
0.362100	-0.183602
0.362200	-0.284547
0.362300	-0.401396
0.362400	-0.478322
0.362500	-0.528308
0.362600	-0.561415
0.362700	-0.623410
0.362800	-0.773691
0.362900	-0.904823
0.363000	-0.945720
0.363100	-0.899954
0.363200	-0.865548
0.363300	-0.894111
0.363400	-1.008040
0.363500	-1.137223
0.363600	-1.191104
0.363700	-1.155725
0.363800	-1.092756
0.363900	-1.085939
0.364000	-1.145013
0.364100	-1.208956
0.364200	-1.234273
0.364300	-1.234598
0.364400	-1.211553
0.364500	-1.220966
0.364600	-1.242713
0.364700	-1.273223
0.364800	-1.291400
0.364900	-1.287505
0.365000	-1.269977
0.365100	-1.252450
0.365200	-1.221615
0.365300	-1.158321
0.365400	-1.095352
0.365500	-1.045367
0.365600	-1.049911
0.365700	-1.054130
0.365800	-1.035629
0.365900	-0.972011
0.366000	-0.898006
0.366100	-0.854512
0.366200	-0.811343
0.366300	-0.767849
0.366400	-0.714293
0.366500	-0.673396
0.366600	-0.626656
0.366700	-0.583162
0.366800	-0.544212
0.366900	-0.506885
0.367000	-0.467611
0.367100	-0.436451
0.367200	-0.396852
0.367300	-0.366341
0.367400	-0.342971
0.367500	-0.317979
0.367600	-0.294609
0.367700	-0.284222
0.367800	-0.280002
0.367900	-0.329663
0.368000	-0.443267
0.368100	-0.530580
0.368200	-0.496174
0.368300	-0.373482
0.368400	-0.285845
0.368500	-0.303697
0.368600	-0.418599
0.368700	-0.529281
0.368800	-0.537071
0.368900	-0.457549
0.369000	-0.367964
0.369100	-0.341998
0.369200	-0.378026
0.369300	-0.441969
0.369400	-0.479945
0.369500	-0.483840
0.369600	-0.470857
0.369700	-0.479296
0.369800	-0.527009
0.369900	-0.582188
0.370000	-0.629577
0.370100	-0.675019
0.370200	-0.710398
0.370300	-0.762980
0.370400	-0.851916
0.370500	-0.928192
0.370600	-0.964870
0.370700	-1.009987
0.370800	-1.077500
0.370900	-1.164488
0.371000	-1.225185
0.371100	-1.202140
0.371200	-1.174226
0.371300	-1.214799
0.371400	-1.365080
0.371500	-1.512765
0.371600	-1.598130
0.371700	-1.566646
0.371800	-1.498483
0.371900	-1.491992
0.372000	-1.572813
0.372100	-1.707515
0.372200	-1.794827
0.372300	-1.797424
0.372400	-1.751333
0.372500	-1.711734
0.372600	-1.715629
0.372700	-1.745491
0.372800	-1.762369
0.372900	-1.753930
0.373000	-1.726665
0.373100	-1.703620
0.373200	-1.677004
0.373300	-1.626694
0.373400	-1.553013
0.373500	-1.466025
0.373600	-1.408250
0.373700	-1.347228
0.373800	-1.302436
0.373900	-1.225834
0.374000	-1.114503
0.374100	-1.027190
0.374200	-0.898331
0.374300	-0.819782
0.374400	-0.744804
0.374500	-0.667229
0.374600	-0.578293
0.374700	-0.487735
0.374800	-0.386465
0.374900	-0.296881
0.375000	-0.233587
0.375100	-0.178733
0.375200	-0.131669
0.375300	-0.096614
0.375400	-0.068375
0.375500	-0.024881
0.375600	0.012770
0.375700	0.053018
0.375800	0.097486
0.375900	0.117935
0.376000	0.139682
0.376100	0.158507
0.376200	0.218230
0.376300	0.339948
0.376400	0.499643
0.376500	0.542163
0.376600	0.418497
0.376700	0.318851
0.376800	0.292235
0.376900	0.423691
0.377000	0.532425
0.377100	0.578191
0.377200	0.530478
0.377300	0.434077
0.377400	0.399672
0.377500	0.427261
0.377600	0.503213
0.377700	0.553523
0.377800	0.575595
0.377900	0.557094
0.378000	0.532750
0.378100	0.529829
0.378200	0.548654
0.378300	0.560339
0.378400	0.564884
0.378500	0.556120
0.378600	0.541514
0.378700	0.511003
0.378800	0.487309
0.378900	0.439920
0.379000	0.387987
0.379100	0.343194
0.379200	0.334106
0.379300	0.325342
0.379400	0.291910
0.379500	0.154612
0.379600	0.072493
0.379700	0.071520
0.379800	0.136760
0.379900	0.180254
0.380000	0.147796
0.380100	0.020560
0.380200	-0.073893
0.380300	-0.091745
0.380400	-0.036566
0.380500	0.007577
0.380600	-0.014819
0.380700	-0.096614
0.380800	-0.178408
0.380900	-0.216060
0.381000	-0.223201
0.381100	-0.230341
0.381200	-0.275783
0.381300	-0.333558
0.381400	-0.398799
0.381500	-0.439697
0.381600	-0.471830
0.381700	-0.506885
0.381800	-0.546484
0.381900	-0.572775
0.382000	-0.581864
0.382100	-0.586408
0.382200	-0.612050
0.382300	-0.685405
0.382400	-0.740909
0.382500	-0.772069
0.382600	-0.741558
0.382700	-0.728250
0.382800	-0.748699
0.382900	-0.768823
0.383000	-0.782780
0.383100	-0.800956
0.383200	-0.808422
0.383300	-0.818159
0.383400	-0.821730
0.383500	-0.824651
0.383600	-0.833090
0.383700	-0.841529
0.383800	-0.847696
0.383900	-0.850617
0.384000	-0.851916
0.384100	-0.862302
0.384200	-0.874636
0.384300	-0.898006
0.384400	-0.928842
0.384500	-0.963896
0.384600	-1.075553
0.384700	-1.235247
0.384800	-1.336841
0.384900	-1.292698
0.385000	-1.213825
0.385100	-1.174226
0.385200	-1.263486
0.385300	-1.422207
0.385400	-1.539381
0.385500	-1.563400
0.385600	-1.523152
0.385700	-1.499133
0.385800	-1.534188
0.385900	-1.627992
0.386000	-1.719200
0.386100	-1.781195
0.386200	-1.810732
0.386300	-1.814627
0.386400	-1.822092
0.386500	-1.845462
0.386600	-1.870131
0.386700	-1.883439
0.386800	-1.904212
0.386900	-1.912651
0.387000	-1.920766
0.387100	-1.953548
0.387200	-1.973673
0.387300	-1.967830
0.387400	-1.975620
0.387500	-2.001262
0.387600	-2.018465
0.387700	-2.009377
0.387800	-1.922064
0.387900	-1.864937
0.388000	-1.905186
0.388100	-2.025281
0.388200	-2.116489
0.388300	-2.136938
0.388400	-2.063907
0.388500	-1.985033
0.388600	-1.981463
0.388700	-2.067477
0.388800	-2.178484
0.388900	-2.227821
0.389000	-2.192442
0.389100	-2.126876
0.389200	-2.089224
0.389300	-2.080136
0.389400	-2.084355
0.389500	-2.071372
0.389600	-2.037615
0.389700	-2.001911
0.389800	-1.966207
0.389900	-1.910703
0.390000	-1.836699
0.390100	-1.757825
0.390200	-1.687391
0.390300	-1.640975
0.390400	-1.615658
0.390500	-1.590665
0.390600	-1.527047
0.390700	-1.459858
0.390800	-1.425777
0.390900	-1.358913
0.391000	-1.313472
0.391100	-1.274197
0.391200	-1.227133
0.391300	-1.174226
0.391400	-1.115801
0.391500	-1.063543
0.391600	-1.024593
0.391700	-0.992784
0.391800	-0.985643
0.391900	-0.972336
0.392000	-0.975906
0.392100	-0.959677
0.392200	-0.937605
0.392300	-0.909691
0.392400	-0.871715
0.392500	-0.853214
0.392600	-0.841529
0.392700	-0.834713
0.392800	-0.808746
0.392900	-0.725329
0.393000	-0.581864
0.393100	-0.445539
0.393200	-0.454952
0.393300	-0.568556
0.393400	-0.632823
0.393500	-0.579916
0.393600	-0.447487
0.393700	-0.343296
0.393800	-0.303697
0.393900	-0.353358
0.394000	-0.405616
0.394100	-0.399773
0.394200	-0.333883
0.394300	-0.242676
0.394400	-0.197234
0.394500	-0.159583
0.394600	-0.149845
0.394700	-0.128098
0.394800	-0.111869
0.394900	-0.081034
0.395000	-0.062857
0.395100	-0.050199
0.395200	-0.040137
0.395300	-0.050848
0.395400	-0.053120
0.395500	-0.080385
0.395600	-0.104079
0.395700	-0.144327
0.395800	-0.144327
0.395900	-0.130046
0.396000	-0.112518
0.396100	-0.146599
0.396200	-0.255010
0.396300	-0.287143
0.396400	-0.226122
0.396500	-0.127449
0.396600	-0.088499
0.396700	-0.142055
0.396800	-0.264423
0.396900	-0.335506
0.397000	-0.325768
0.397100	-0.254685
0.397200	-0.222227
0.397300	-0.280327
0.397400	-0.378026
0.397500	-0.445215
0.397600	-0.472479
0.397700	-0.473453
0.397800	-0.502990
0.397900	-0.571801
0.398000	-0.648403
0.398100	-0.706503
0.398200	-0.735391
0.398300	-0.764603
0.398400	-0.807773
0.398500	-0.853539
0.398600	-0.875286
0.398700	-0.881128
0.398800	-0.892164
0.398900	-0.935658
0.399000	-1.014207
0.399100	-1.074579
0.399200	-1.105414
0.399300	-1.093080
0.399400	-1.105414
0.399500	-1.132030
0.399600	-1.149233
0.399700	-1.172927
0.399800	-1.194350
0.399900	-1.224861
0.400000	-1.253099
0.400100	-1.283935
0.400200	-1.325156
0.400300	-1.367028
0.400400	-1.411495
0.400500	-1.463753
0.400600	-1.509844
0.400700	-1.560803
0.400800	-1.607219
0.400900	-1.664345
0.401000	-1.717252
0.401100	-1.792231
0.401200	-1.866236
0.401300	-2.033071
0.401400	-2.197959
0.401500	-2.260604
0.401600	-2.194389
0.401700	-2.097988
0.401800	-2.087601
0.401900	-2.188871
0.402000	-2.324547
0.402100	-2.382647
0.402200	-2.318704
0.402300	-2.211592
0.402400	-2.142780
0.402500	-2.159009
0.402600	-2.213215
0.402700	-2.262551
0.402800	-2.256709
0.402900	-2.229119
0.403000	-2.197310
0.403100	-2.194064
0.403200	-2.205425
0.403300	-2.210618
0.403400	-2.205425
0.403500	-2.195687
0.403600	-2.183353
0.403700	-2.190169
0.403800	-2.210618
0.403900	-2.208022
0.404000	-2.196986
0.404100	-2.186274
0.404200	-2.200556
0.404300	-2.206723
0.404400	-2.162580
0.404500	-2.061959
0.404600	-2.009377
0.404700	-2.063582
0.404800	-2.177186
0.404900	-2.252165
0.405000	-2.230742
0.405100	-2.116814
0.405200	-2.030150
0.405300	-2.049300
0.405400	-2.153816
0.405500	-2.254437
0.405600	-2.275535
0.405700	-2.215811
0.405800	-2.156737
0.405900	-2.145702
0.406000	-2.167124
0.406100	-2.192766
0.406200	-2.182379
0.406300	-2.157062
0.406400	-2.123305
0.406500	-2.098962
0.406600	-2.076565
0.406700	-2.023658
0.406800	-1.949978
0.406900	-1.892851
0.407000	-1.854875
0.407100	-1.829882
0.407200	-1.792880
0.407300	-1.712383
0.407400	-1.628316
0.407500	-1.515037
0.407600	-1.443304
0.407700	-1.389424
0.407800	-1.339438
0.407900	-1.281987
0.408000	-1.208956
0.408100	-1.123591
0.408200	-1.052183
0.408300	-0.989538
0.408400	-0.958703
0.408500	-0.922999
0.408600	-0.901577
0.408700	-0.871066
0.408800	-0.840231
0.408900	-0.800632
0.409000	-0.760384
0.409100	-0.738637
0.409200	-0.715267
0.409300	-0.701310
0.409400	-0.690598
0.409500	-0.661386
0.409600	-0.574074
0.409700	-0.404642
0.409800	-0.318952
0.409900	-0.348489
0.410000	-0.489682
0.410100	-0.516298
0.410200	-0.437100
0.410300	-0.285845
0.410400	-0.173540
0.410500	-0.172241
0.410600	-0.228394
0.410700	-0.279678
0.410800	-0.251764
0.410900	-0.166399
0.411000	-0.094342
0.411100	-0.044356
0.411200	-0.052471
0.411300	-0.065454
0.411400	-0.097263
0.411500	-0.104404
0.411600	-0.096614
0.411700	-0.094991
0.411800	-0.101483
0.411900	-0.135239
0.412000	-0.168996
0.412100	-0.237158
0.412200	-0.290064
0.412300	-0.361148
0.412400	-0.421845
0.412500	-0.466962
0.412600	-0.503315
0.412700	-0.552002
0.412800	-0.681510
0.412900	-0.820431
0.413000	-0.881777
0.413100	-0.845749
0.413200	-0.793491
0.413300	-0.797386
0.413400	-0.901577
0.413500	-1.045367
0.413600	-1.113529
0.413700	-1.080097
0.413800	-1.002522
0.413900	-0.981749
0.414000	-1.041796
0.414100	-1.125538
0.414200	-1.166436
0.414300	-1.174875
0.414400	-1.166111
0.414500	-1.188183
0.414600	-1.229729
0.414700	-1.285557
0.414800	-1.327753
0.414900	-1.348202
0.415000	-1.371572
0.415100	-1.393968
0.415200	-1.397538
0.415300	-1.379037
0.415400	-1.355667
0.415500	-1.338140
0.415600	-1.364431
0.415700	-1.403705
0.415800	-1.402407
0.415900	-1.356316
0.416000	-1.284584
0.416100	-1.248555
0.416200	-1.215123
0.416300	-1.183639
0.416400	-1.139495
0.416500	-1.096975
0.416600	-1.057376
0.416700	-1.021023
0.416800	-0.981099
0.416900	-0.954159
0.417000	-0.928842
0.417100	-0.913911
0.417200	-0.894436
0.417300	-0.886321
0.417400	-0.866846
0.417500	-0.856135
0.417600	-0.851591
0.417700	-0.856784
0.417800	-0.865548
0.417900	-0.915858
0.418000	-1.054130
0.418100	-1.179744
0.418200	-1.178445
0.418300	-1.097300
0.418400	-1.001873
0.418500	-1.032383
0.418600	-1.161242
0.418700	-1.297567
0.418800	-1.352746
0.418900	-1.321586
0.419000	-1.262512
0.419100	-1.256345
0.419200	-1.331973
0.419300	-1.441357
0.419400	-1.522503
0.419500	-1.573137
0.419600	-1.588717
0.419700	-1.602999
0.419800	-1.624746
0.419900	-1.660126
0.420000	-1.705567
0.420100	-1.746140
0.420200	-1.771782
0.420300	-1.802293
0.420400	-1.830532
0.420500	-1.867859
0.420600	-1.881816
0.420700	-1.888956
0.420800	-1.915248
0.420900	-1.939267
0.421000	-1.946732
0.421100	-1.873052
0.421200	-1.764641
0.421300	-1.734130
0.421400	-1.809434
0.421500	-1.895123
0.421600	-1.935372
0.421700	-1.860393
0.421800	-1.725042
0.421900	-1.643896
0.422000	-1.673433
0.422100	-1.785739
0.422200	-1.872078
0.422300	-1.860718
0.422400	-1.793854
0.422500	-1.736403
0.422600	-1.726340
0.422700	-1.759772
0.422800	-1.780870
0.422900	-1.774703
0.423000	-1.755228
0.423100	-1.738025
0.423200	-1.726340
0.423300	-1.694856
0.423400	-1.626369
0.423500	-1.550741
0.423600	-1.509519
0.423700	-1.475763
0.423800	-1.456937
0.423900	-1.402083
0.424000	-1.305357
0.424100	-1.229729
0.424200	-1.117748
0.424300	-1.060622
0.424400	-1.005768
0.424500	-0.948966
0.424600	-0.868145
0.424700	-0.792517
0.424800	-0.710073
0.424900	-0.634446
0.425000	-0.577644
0.425100	-0.537720
0.425200	-0.499420
0.425300	-0.479945
0.425400	-0.465663
0.425500	-0.440670
0.425600	-0.407888
0.425700	-0.387764
0.425800	-0.367964
0.425900	-0.345243
0.426000	-0.365692
0.426100	-0.345568
0.426200	-0.329663
0.426300	-0.203077
0.426400	-0.058313
0.426500	0.016341
0.426600	-0.068051
0.426700	-0.193015
0.426800	-0.194313
0.426900	-0.096614
0.427000	0.037114
0.427100	0.114689
0.427200	0.075414
0.427300	0.003682
0.427400	-0.055716
0.427500	-0.022609
0.427600	0.041983
0.427700	0.097486
0.427800	0.120531
0.427900	0.095539
0.428000	0.063405
0.428100	0.038737
0.428200	0.025754
0.428300	0.028350
0.428400	0.016990
0.428500	0.011147
0.428600	-0.011898
0.428700	-0.037540
0.428800	-0.094017
0.428900	-0.118036
0.429000	-0.179382
0.429100	-0.214437
0.429200	-0.218981
0.429300	-0.225473
0.429400	-0.263124
0.429500	-0.400747
0.429600	-0.520193
0.429700	-0.553949
0.429800	-0.511754
0.429900	-0.472804
0.430000	-0.521167
0.430100	-0.668851
0.430200	-0.828870
0.430300	-0.889892
0.430400	-0.859056
0.430500	-0.809720
0.430600	-0.835037
0.430700	-0.941825
0.430800	-1.051534
0.430900	-1.102493
0.431000	-1.121968
0.431100	-1.133328
0.431200	-1.176173
0.431300	-1.234923
0.431400	-1.305357
0.431500	-1.346579
0.431600	-1.371896
0.431700	-1.401109
0.431800	-1.439734
0.431900	-1.456937
0.432000	-1.458560
0.432100	-1.445901
0.432200	-1.461157
0.432300	-1.533538
0.432400	-1.605271
0.432500	-1.649739
0.432600	-1.629615
0.432700	-1.632536
0.432800	-1.665968
0.432900	-1.690312
0.433000	-1.717252
0.433100	-1.730235
0.433200	-1.748087
0.433300	-1.756851
0.433400	-1.759772
0.433500	-1.758474
0.433600	-1.759772
0.433700	-1.756851
0.433800	-1.751982
0.433900	-1.746789
0.434000	-1.731534
0.434100	-1.723419
0.434200	-1.711410
0.434300	-1.702646
0.434400	-1.711085
0.434500	-1.713357
0.434600	-1.780870
0.434700	-1.913625
0.434800	-2.007754
0.434900	-1.976269
0.435000	-1.866236
0.435100	-1.793529
0.435200	-1.842216
0.435300	-1.989577
0.435400	-2.121358
0.435500	-2.153492
0.435600	-2.095391
0.435700	-2.027553
0.435800	-2.037940
0.435900	-2.122332
0.436000	-2.221979
0.436100	-2.283325
0.436200	-2.296957
0.436300	-2.290466
0.436400	-2.286895
0.436500	-2.301177
0.436600	-2.334609
0.436700	-2.360251
0.436800	-2.374208
0.436900	-2.373884
0.437000	-2.380700
0.437100	-2.397254
0.437200	-2.421922
0.437300	-2.415106
0.437400	-2.419974
0.437500	-2.435554
0.437600	-2.465741
0.437700	-2.472232
0.437800	-2.421922
0.437900	-2.356356
0.438000	-2.377779
0.438100	-2.497225
0.438200	-2.610505
0.438300	-2.661140
0.438400	-2.601417
0.438500	-2.500471
0.438600	-2.478399
0.438700	-2.548834
0.438800	-2.664710
0.438900	-2.727355
0.439000	-2.692300
0.439100	-2.619593
0.439200	-2.566037
0.439300	-2.546562
0.439400	-2.548185
0.439500	-2.543965
0.439600	-2.525139
0.439700	-2.488462
0.439800	-2.444967
0.439900	-2.391736
0.440000	-2.323898
0.440100	-2.226847
0.440200	-2.145702
0.440300	-2.090198
0.440400	-2.036317
0.440500	-1.987305
0.440600	-1.898694
0.440700	-1.783792
0.440800	-1.687715
0.440900	-1.568918
0.441000	-1.472192
0.441100	-1.386503
0.441200	-1.295295
0.441300	-1.205710
0.441400	-1.102168
0.441500	-0.998627
0.441600	-0.910016
0.441700	-0.835037
0.441800	-0.781481
0.441900	-0.728250
0.442000	-0.696766
0.442100	-0.653921
0.442200	-0.619515
0.442300	-0.583811
0.442400	-0.562713
0.442500	-0.549405
0.442600	-0.544212
0.442700	-0.559467
0.442800	-0.551353
0.442900	-0.515000
0.443000	-0.395229
0.443100	-0.262150
0.443200	-0.234561
0.443300	-0.360174
0.443400	-0.467935
0.443500	-0.456575
0.443600	-0.346542
0.443700	-0.225148
0.443800	-0.167697
0.443900	-0.220929
0.444000	-0.295258
0.444100	-0.341998
0.444200	-0.300776
0.444300	-0.236833
0.444400	-0.194962
0.444500	-0.184900
0.444600	-0.214112
0.444700	-0.240728
0.444800	-0.278055
0.444900	-0.298179
0.445000	-0.309539
0.445100	-0.317654
0.445200	-0.319277
0.445300	-0.343945
0.445400	-0.385167
0.445500	-0.446837
0.445600	-0.488059
0.445700	-0.542589
0.445800	-0.560441
0.445900	-0.572126
0.446000	-0.576346
0.446100	-0.642236
0.446200	-0.780183
0.446300	-0.868469
0.446400	-0.877558
0.446500	-0.821730
0.446600	-0.809071
0.446700	-0.862627
0.446800	-1.001873
0.446900	-1.097624
0.447000	-1.109958
0.447100	-1.055429
0.447200	-1.021023
0.447300	-1.052832
0.447400	-1.127161
0.447500	-1.187858
0.447600	-1.198245
0.447700	-1.207333
0.447800	-1.224536
0.447900	-1.266732
0.448000	-1.306980
0.448100	-1.341710
0.448200	-1.357290
0.448300	-1.379037
0.448400	-1.403381
0.448500	-1.407276
0.448600	-1.390398
0.448700	-1.363782
0.448800	-1.322560
0.448900	-1.296593
0.449000	-1.309252
0.449100	-1.301787
0.449200	-1.281987
0.449300	-1.259915
0.449400	-1.228106
0.449500	-1.191104
0.449600	-1.157997
0.449700	-1.131705
0.449800	-1.094379
0.449900	-1.064517
0.450000	-1.033032
0.450100	-1.013233
0.450200	-0.988565
0.450300	-0.959352
0.450400	-0.926570
0.450500	-0.899629
0.450600	-0.872040
0.450700	-0.842178
0.450800	-0.821405
0.450900	-0.792193
0.451000	-0.777262
0.451100	-0.758436
0.451200	-0.758761
0.451300	-0.842178
0.451400	-0.966493
0.451500	-1.016479
0.451600	-0.946694
0.451700	-0.829520
0.451800	-0.769147
0.451900	-0.837959
0.452000	-0.967142
0.452100	-1.059973
0.452200	-1.046990
0.452300	-0.974608
0.452400	-0.926245
0.452500	-0.948966
0.452600	-1.024593
0.452700	-1.098598
0.452800	-1.134302
0.452900	-1.145338
0.453000	-1.158970
0.453100	-1.183963
0.453200	-1.204087
0.453300	-1.226159
0.453400	-1.254073
0.453500	-1.289452
0.453600	-1.309577
0.453700	-1.339438
0.453800	-1.368651
0.453900	-1.382283
0.454000	-1.395266
0.454100	-1.402083
0.454200	-1.422531
0.454300	-1.436813
0.454400	-1.417987
0.454500	-1.343333
0.454600	-1.296918
0.454700	-1.342035
0.454800	-1.457911
0.454900	-1.559505
0.455000	-1.582550
0.455100	-1.504326
0.455200	-1.440059
0.455300	-1.465051
0.455400	-1.574760
0.455500	-1.689013
0.455600	-1.735429
0.455700	-1.701023
0.455800	-1.666617
0.455900	-1.678951
0.456000	-1.719849
0.456100	-1.751009
0.456200	-1.756851
0.456300	-1.758150
0.456400	-1.768536
0.456500	-1.770484
0.456600	-1.764641
0.456700	-1.723419
0.456800	-1.661749
0.456900	-1.615982
0.457000	-1.591314
0.457100	-1.578331
0.457200	-1.565023
0.457300	-1.515362
0.457400	-1.458560
0.457500	-1.385529
0.457600	-1.324507
0.457700	-1.289128
0.457800	-1.264135
0.457900	-1.232326
0.458000	-1.186560
0.458100	-1.128460
0.458200	-1.078474
0.458300	-1.036927
0.458400	-1.017453
0.458500	-0.997328
0.458600	-0.976880
0.458700	-0.972336
0.458800	-0.967791
0.458900	-0.954808
0.459000	-0.944097
0.459100	-0.932087
0.459200	-0.935658
0.459300	-0.944746
0.459400	-0.959352
0.459500	-0.933710
0.459600	-0.866197
0.459700	-0.723057
0.459800	-0.609453
0.459900	-0.639315
0.460000	-0.771419
0.460100	-0.855486
0.460200	-0.807123
0.460300	-0.683782
0.460400	-0.578293
0.460500	-0.565310
0.460600	-0.643859
0.460700	-0.709100
0.460800	-0.711696
0.460900	-0.634770
0.461000	-0.555572
0.461100	-0.502016
0.461200	-0.486112
0.461300	-0.487735
0.461400	-0.473778
0.461500	-0.449759
0.461600	-0.409835
0.461700	-0.391659
0.461800	-0.364394
0.461900	-0.331611
0.462000	-0.317979
0.462100	-0.313434
0.462200	-0.328365
0.462300	-0.344919
0.462400	-0.375105
0.462500	-0.365367
0.462600	-0.354007
0.462700	-0.326418
0.462800	-0.370236
0.462900	-0.477673
0.463000	-0.508183
0.463100	-0.454303
0.463200	-0.362771
0.463300	-0.315057
0.463400	-0.374780
0.463500	-0.493902
0.463600	-0.550054
0.463700	-0.509157
0.463800	-0.409511
0.463900	-0.374131
0.464000	-0.417950
0.464100	-0.502666
0.464200	-0.550704
0.464300	-0.562389
0.464400	-0.560441
0.464500	-0.601338
0.464600	-0.670799
0.464700	-0.750646
0.464800	-0.824326
0.464900	-0.870092
0.465000	-0.918130
0.465100	-0.965195
0.465200	-1.011285
0.465300	-1.030111
0.465400	-1.031410
0.465500	-1.043744
0.465600	-1.085615
0.465700	-1.159620
0.465800	-1.210254
0.465900	-1.214474
0.466000	-1.189157
0.466100	-1.192078
0.466200	-1.212202
0.466300	-1.220641
0.466400	-1.235247
0.466500	-1.247581
0.466600	-1.266083
0.466700	-1.289452
0.466800	-1.310550
0.466900	-1.333271
0.467000	-1.360861
0.467100	-1.392670
0.467200	-1.421557
0.467300	-1.452393
0.467400	-1.484202
0.467500	-1.512441
0.467600	-1.544250
0.467700	-1.586121
0.467800	-1.626369
0.467900	-1.686092
0.468000	-1.837348
0.468100	-1.992498
0.468200	-2.059687
0.468300	-2.004508
0.468400	-1.931801
0.468500	-1.941863
0.468600	-2.083706
0.468700	-2.265473
0.468800	-2.367067
0.468900	-2.376156
0.469000	-2.326494
0.469100	-2.326494
0.469200	-2.401798
0.469300	-2.519297
0.469400	-2.610180
0.469500	-2.646534
0.469600	-2.652052
0.469700	-2.658868
0.469800	-2.691651
0.469900	-2.732548
0.470000	-2.766630
0.470100	-2.787728
0.470200	-2.795518
0.470300	-2.800062
0.470400	-2.809799
0.470500	-2.828625
0.470600	-2.820511
0.470700	-2.801360
0.470800	-2.787079
0.470900	-2.788701
0.471000	-2.780911
0.471100	-2.722811
0.471200	-2.618620
0.471300	-2.548185
0.471400	-2.583564
0.471500	-2.669255
0.471600	-2.729952
0.471700	-2.676071
0.471800	-2.549483
0.471900	-2.452108
0.472000	-2.455354
0.472100	-2.556299
0.472200	-2.639717
0.472300	-2.642314
0.472400	-2.569607
0.472500	-2.498524
0.472600	-2.464118
0.472700	-2.470609
0.472800	-2.472232
0.472900	-2.454380
0.473000	-2.424194
0.473100	-2.377779
0.473200	-2.334284
0.473300	-2.278131
0.473400	-2.192766
0.473500	-2.104155
0.473600	-2.035668
0.473700	-1.983085
0.473800	-1.942188
0.473900	-1.881491
0.474000	-1.787687
0.474100	-1.708813
0.474200	-1.606569
0.474300	-1.522503
0.474400	-1.462779
0.474500	-1.405653
0.474600	-1.333920
0.474700	-1.257643
0.474800	-1.173901
0.474900	-1.094703
0.475000	-1.033357
0.475100	-0.985319
0.475200	-0.943123
0.475300	-0.897357
0.475400	-0.861978
0.475500	-0.816536
0.475600	-0.773042
0.475700	-0.728250
0.475800	-0.688651
0.475900	-0.653921
0.476000	-0.642236
0.476100	-0.614971
0.476200	-0.579916
0.476300	-0.470207
0.476400	-0.329663
0.476500	-0.226446
0.476600	-0.304021
0.476700	-0.427038
0.476800	-0.481243
0.476900	-0.399449
0.477000	-0.273835
0.477100	-0.198857
0.477200	-0.217034
0.477300	-0.305320
0.477400	-0.363420
0.477500	-0.367315
0.477600	-0.299153
0.477700	-0.247220
0.477800	-0.225148
0.477900	-0.240728
0.478000	-0.267344
0.478100	-0.277406
0.478200	-0.288442
0.478300	-0.282924
0.478400	-0.287143
0.478500	-0.292012
0.478600	-0.298179
0.478700	-0.340375
0.478800	-0.378675
0.478900	-0.426389
0.479000	-0.467611
0.479100	-0.514026
0.479200	-0.518895
0.479300	-0.534799
0.479400	-0.553625
0.479500	-0.645482
0.479600	-0.756164
0.479700	-0.784727
0.479800	-0.727601
0.479900	-0.669825
0.480000	-0.667878
0.480100	-0.772069
0.480200	-0.885672
0.480300	-0.934684
0.480400	-0.885672
0.480500	-0.816212
0.480600	-0.807123
0.480700	-0.874961
0.480800	-0.958379
0.480900	-0.995056
0.481000	-1.013882
0.481100	-1.020374
0.481200	-1.059324
0.481300	-1.111581
0.481400	-1.155725
0.481500	-1.193701
0.481600	-1.221615
0.481700	-1.248555
0.481800	-1.265433
0.481900	-1.258617
0.482000	-1.227457
0.482100	-1.195324
0.482200	-1.169682
0.482300	-1.197920
0.482400	-1.235572
0.482500	-1.239791
0.482600	-1.189481
0.482700	-1.147285
0.482800	-1.148908
0.482900	-1.145013
0.483000	-1.134627
0.483100	-1.130407
0.483200	-1.119696
0.483300	-1.120670
0.483400	-1.123591
0.483500	-1.129109
0.483600	-1.123915
0.483700	-1.130732
0.483800	-1.151180
0.483900	-1.165137
0.484000	-1.176173
0.484100	-1.188832
0.484200	-1.197271
0.484300	-1.214149
0.484400	-1.232975
0.484500	-1.260240
0.484600	-1.339114
0.484700	-1.484202
0.484800	-1.620527
0.484900	-1.637405
0.485000	-1.551715
0.485100	-1.475763
0.485200	-1.505300
0.485300	-1.651037
0.485400	-1.783467
0.485500	-1.836049
0.485600	-1.785739
0.485700	-1.723419
0.485800	-1.717901
0.485900	-1.782169
0.486000	-1.874350
0.486100	-1.928556
0.486200	-1.942513
0.486300	-1.936346
0.486400	-1.939591
0.486500	-1.952899
0.486600	-1.982436
0.486700	-2.001262
0.486800	-2.017816
0.486900	-2.032747
0.487000	-2.040861
0.487100	-2.067152
0.487200	-2.075267
0.487300	-2.075916
0.487400	-2.077539
0.487500	-2.083057
0.487600	-2.091172
0.487700	-2.082408
0.487800	-2.014245
0.487900	-1.929854
0.488000	-1.908756
0.488100	-1.995095
0.488200	-2.087277
0.488300	-2.137262
0.488400	-2.065205
0.488500	-1.952575
0.488600	-1.907782
0.488700	-1.970751
0.488800	-2.082408
0.488900	-2.143429
0.489000	-2.114542
0.489100	-2.042809
0.489200	-1.996069
0.489300	-1.985358
0.489400	-1.991849
0.489500	-1.994770
0.489600	-1.970751
0.489700	-1.955820
0.489800	-1.935372
0.489900	-1.905835
0.490000	-1.842541
0.490100	-1.756851
0.490200	-1.679601
0.490300	-1.634808
0.490400	-1.611763
0.490500	-1.582226
0.490600	-1.517309
0.490700	-1.418312
0.490800	-1.357939
0.490900	-1.260889
0.491000	-1.196297
0.491100	-1.137873
0.491200	-1.087562
0.491300	-1.023620
0.491400	-0.950589
0.491500	-0.885023
0.491600	-0.826598
0.491700	-0.790894
0.491800	-0.776288
0.491900	-0.774665
0.492000	-0.770770
0.492100	-0.773042
0.492200	-0.764603
0.492300	-0.753892
0.492400	-0.746751
0.492500	-0.746751
0.492600	-0.760059
0.492700	-0.765577
0.492800	-0.782455
0.492900	-0.753243
0.493000	-0.644832
0.493100	-0.493577
0.493200	-0.457549
0.493300	-0.566933
0.493400	-0.708775
0.493500	-0.718512
0.493600	-0.622436
0.493700	-0.492928
0.493800	-0.438723
0.493900	-0.480594
0.494000	-0.578293
0.494100	-0.624059
0.494200	-0.595171
0.494300	-0.525386
0.494400	-0.467611
0.494500	-0.472804
0.494600	-0.493253
0.494700	-0.527009
0.494800	-0.542914
0.494900	-0.555572
0.495000	-0.563687
0.495100	-0.580890
0.495200	-0.597768
0.495300	-0.616269
0.495400	-0.667229
0.495500	-0.693520
0.495600	-0.748049
0.495700	-0.784403
0.495800	-0.820107
0.495900	-0.815238
0.496000	-0.812317
0.496100	-0.832116
0.496200	-0.949939
0.496300	-1.037901
0.496400	-1.042121
0.496500	-0.970064
0.496600	-0.903524
0.496700	-0.933710
0.496800	-1.047314
0.496900	-1.164813
0.497000	-1.181691
0.497100	-1.118073
0.497200	-1.046665
0.497300	-1.064192
0.497400	-1.150531
0.497500	-1.231677
0.497600	-1.263810
0.497700	-1.272574
0.497800	-1.276469
0.497900	-1.314121
0.498000	-1.368975
0.498100	-1.428374
0.498200	-1.464727
0.498300	-1.481281
0.498400	-1.510493
0.498500	-1.533863
0.498600	-1.544574
0.498700	-1.538083
0.498800	-1.529968
0.498900	-1.541328
0.499000	-1.598779
0.499100	-1.643896
0.499200	-1.662722
0.499300	-1.641300
0.499400	-1.615658
0.499500	-1.624422
0.499600	-1.628641
0.499700	-1.631887
0.499800	-1.631887
0.499900	-1.627018
0.500000	-1.633834
0.500100	-1.632536
0.500200	-1.631887
0.500300	-1.640326
0.500400	-1.636106
0.500500	-1.640001
0.500600	-1.641624
0.500700	-1.646169
0.500800	-1.654932
0.500900	-1.671486
0.501000	-1.689987
0.501100	-1.703944
0.501200	-1.733481
0.501300	-1.822417
0.501400	-1.980489
0.501500	-2.080460
0.501600	-2.053845
0.501700	-1.945109
0.501800	-1.876947
0.501900	-1.940890
0.502000	-2.090198
0.502100	-2.206399
0.502200	-2.221979
0.502300	-2.145377
0.502400	-2.072670
0.502500	-2.061635
0.502600	-2.121358
0.502700	-2.187248
0.502800	-2.214189
0.502900	-2.195687
0.503000	-2.158036
0.503100	-2.117138
0.503200	-2.090522
0.503300	-2.080785
0.503400	-2.054818
0.503500	-2.019439
0.503600	-1.975620
0.503700	-1.934073
0.503800	-1.907458
0.503900	-1.875324
0.504000	-1.825338
0.504100	-1.768536
0.504200	-1.726340
0.504300	-1.682846
0.504400	-1.610789
0.504500	-1.470894
0.504600	-1.330674
0.504700	-1.278741
0.504800	-1.313472
0.504900	-1.347553
0.505000	-1.303734
0.505100	-1.161892
0.505200	-1.000574
0.505300	-0.924947
0.505400	-0.961949
0.505500	-1.035629
0.505600	-1.065491
0.505700	-1.018102
0.505800	-0.941500
0.505900	-0.899954
0.506000	-0.891515
0.506100	-0.899629
0.506200	-0.905147
0.506300	-0.905472
0.506400	-0.904173
0.506500	-0.892164
0.506600	-0.874961
0.506700	-0.836985
0.506800	-0.789596
0.506900	-0.748699
0.507000	-0.742856
0.507100	-0.745777
0.507200	-0.750322
0.507300	-0.723706
0.507400	-0.674369
0.507500	-0.650999
0.507600	-0.592575
0.507700	-0.566284
0.507800	-0.558818
0.507900	-0.549730
0.508000	-0.524737
0.508100	-0.490331
0.508200	-0.456575
0.508300	-0.446837
0.508400	-0.455601
0.508500	-0.487410
0.508600	-0.527658
0.508700	-0.565634
0.508800	-0.624059
0.508900	-0.654894
0.509000	-0.709749
0.509100	-0.746102
0.509200	-0.816861
0.509300	-0.882426
0.509400	-0.957405
0.509500	-1.023295
0.509600	-1.016479
0.509700	-0.950913
0.509800	-0.856460
0.509900	-0.902550
0.510000	-1.059324
0.510100	-1.185262
0.510200	-1.189481
0.510300	-1.073930
0.510400	-0.961300
0.510500	-0.905796
0.510600	-0.947992
0.510700	-0.992135
0.510800	-0.993433
0.510900	-0.910990
0.511000	-0.803553
0.511100	-0.709100
0.511200	-0.669176
0.511300	-0.636718
0.511400	-0.618217
0.511500	-0.595496
0.511600	-0.551677
0.511700	-0.510456
0.511800	-0.471181
0.511900	-0.421845
0.512000	-0.393281
0.512100	-0.391334
0.512200	-0.392308
0.512300	-0.402370
0.512400	-0.414704
0.512500	-0.406589
0.512600	-0.379974
0.512700	-0.346866
0.512800	-0.383544
0.512900	-0.471830
0.513000	-0.512728
0.513100	-0.455277
0.513200	-0.350112
0.513300	-0.289091
0.513400	-0.318628
0.513500	-0.422818
0.513600	-0.482541
0.513700	-0.453978
0.513800	-0.357902
0.513900	-0.297854
0.514000	-0.312461
0.514100	-0.375429
0.514200	-0.403019
0.514300	-0.397501
0.514400	-0.393606
0.514500	-0.407888
0.514600	-0.443592
0.514700	-0.480269
0.514800	-0.507534
0.514900	-0.527009
0.515000	-0.554923
0.515100	-0.611725
0.515200	-0.660412
0.515300	-0.686379
0.515400	-0.694818
0.515500	-0.712995
0.515600	-0.761033
0.515700	-0.856460
0.515800	-0.936632
0.515900	-0.985643
0.516000	-0.989863
0.516100	-1.024918
0.516200	-1.078474
0.516300	-1.120670
0.516400	-1.158646
0.516500	-1.194350
0.516600	-1.227782
0.516700	-1.267056
0.516800	-1.308927
0.516900	-1.349825
0.517000	-1.380660
0.517100	-1.417987
0.517200	-1.454665
0.517300	-1.492316
0.517400	-1.540679
0.517500	-1.589042
0.517600	-1.634159
0.517700	-1.678951
0.517800	-1.737376
0.517900	-1.798073
0.518000	-1.942837
0.518100	-2.106427
0.518200	-2.192766
0.518300	-2.135315
0.518400	-2.039563
0.518500	-2.005157
0.518600	-2.107725
0.518700	-2.262551
0.518800	-2.362848
0.518900	-2.345645
0.519000	-2.272938
0.519100	-2.220680
0.519200	-2.244375
0.519300	-2.318704
0.519400	-2.377129
0.519500	-2.381349
0.519600	-2.361225
0.519700	-2.343048
0.519800	-2.329740
0.519900	-2.330065
0.520000	-2.338179
0.520100	-2.328442
0.520200	-2.322275
0.520300	-2.315134
0.520400	-2.324222
0.520500	-2.341425
0.520600	-2.352461
0.520700	-2.337206
0.520800	-2.337206
0.520900	-2.348566
0.521000	-2.377129
0.521100	-2.347268
0.521200	-2.262876
0.521300	-2.208346
0.521400	-2.260279
0.521500	-2.378103
0.521600	-2.472232
0.521700	-2.475803
0.521800	-2.378752
0.521900	-2.282676
0.522000	-2.297282
0.522100	-2.406017
0.522200	-2.507612
0.522300	-2.533579
0.522400	-2.475154
0.522500	-2.417053
0.522600	-2.403745
0.522700	-2.423220
0.522800	-2.433931
0.522900	-2.420624
0.523000	-2.403096
0.523100	-2.381349
0.523200	-2.357005
0.523300	-2.323573
0.523400	-2.249244
0.523500	-2.164852
0.523600	-2.098962
0.523700	-2.057090
0.523800	-2.034694
0.523900	-1.993472
0.524000	-1.907133
0.524100	-1.832154
0.524200	-1.760097
0.524300	-1.654932
0.524400	-1.580603
0.524500	-1.502054
0.524600	-1.415715
0.524700	-1.314121
0.524800	-1.207658
0.524900	-1.110283
0.525000	-1.024593
0.525100	-0.965195
0.525200	-0.911314
0.525300	-0.849644
0.525400	-0.814264
0.525500	-0.761682
0.525600	-0.718837
0.525700	-0.668202
0.525800	-0.634121
0.525900	-0.601338
0.526000	-0.585759
0.526100	-0.573424
0.526200	-0.556871
0.526300	-0.467611
0.526400	-0.315706
0.526500	-0.194962
0.526600	-0.218981
0.526700	-0.350112
0.526800	-0.431258
0.526900	-0.371535
0.527000	-0.250466
0.527100	-0.140432
0.527200	-0.133616
0.527300	-0.192690
0.527400	-0.270265
0.527500	-0.284547
0.527600	-0.214762
0.527700	-0.140432
0.527800	-0.102456
0.527900	-0.105053
0.528000	-0.117062
0.528100	-0.122905
0.528200	-0.126151
0.528300	-0.113167
0.528400	-0.110895
0.528500	-0.126800
0.528600	-0.149521
0.528700	-0.181005
0.528800	-0.242351
0.528900	-0.287143
0.529000	-0.354981
0.529100	-0.426064
0.529200	-0.486761
0.529300	-0.497148
0.529400	-0.528957
0.529500	-0.616594
0.529600	-0.770770
0.529700	-0.845424
0.529800	-0.817185
0.529900	-0.746102
0.530000	-0.736689
0.530100	-0.811668
0.530200	-0.951238
0.530300	-1.024269
0.530400	-0.997328
0.530500	-0.921052
0.530600	-0.880154
0.530700	-0.922675
0.530800	-1.001873
0.530900	-1.040822
0.531000	-1.039524
0.531100	-1.016154
0.531200	-1.017777
0.531300	-1.038875
0.531400	-1.076526
0.531500	-1.096651
0.531600	-1.085290
0.531700	-1.076202
0.531800	-1.072307
0.531900	-1.060622
0.532000	-1.035305
0.532100	-1.001223
0.532200	-0.967467
0.532300	-0.974283
0.532400	-0.996030
0.532500	-0.992460
0.532600	-0.975257
0.532700	-0.909691
0.532800	-0.883725
0.532900	-0.866522
0.533000	-0.846722
0.533100	-0.820431
0.533200	-0.783104
0.533300	-0.759410
0.533400	-0.730522
0.533500	-0.706828
0.533600	-0.672097
0.533700	-0.645157
0.533800	-0.630875
0.533900	-0.617568
0.534000	-0.616269
0.534100	-0.613997
0.534200	-0.622761
0.534300	-0.628928
0.534400	-0.650026
0.534500	-0.678264
0.534600	-0.746751
0.534700	-0.876909
0.534800	-1.029787
0.534900	-1.072956
0.535000	-1.006417
0.535100	-0.915534
0.535200	-0.919429
0.535300	-1.047639
0.535400	-1.206684
0.535500	-1.291725
0.535600	-1.274197
0.535700	-1.209281
0.535800	-1.195324
0.535900	-1.260889
0.536000	-1.373844
0.536100	-1.459534
0.536200	-1.506273
0.536300	-1.508546
0.536400	-1.522178
0.536500	-1.536135
0.536600	-1.560154
0.536700	-1.593262
0.536800	-1.616307
0.536900	-1.634159
0.537000	-1.647791
0.537100	-1.664994
0.537200	-1.692908
0.537300	-1.709138
0.537400	-1.714980
0.537500	-1.753605
0.537600	-1.795152
0.537700	-1.828584
0.537800	-1.804889
0.537900	-1.751982
0.538000	-1.741271
0.538100	-1.834751
0.538200	-1.975620
0.538300	-2.082083
0.538400	-2.079487
0.538500	-2.007429
0.538600	-1.973348
0.538700	-2.039563
0.538800	-2.184652
0.538900	-2.301826
0.539000	-2.337855
0.539100	-2.312213
0.539200	-2.291439
0.539300	-2.298905
0.539400	-2.330714
0.539500	-2.361225
0.539600	-2.382323
0.539700	-2.394657
0.539800	-2.393683
0.539900	-2.368366
0.540000	-2.325196
0.540100	-2.259306
0.540200	-2.167773
0.540300	-2.100584
0.540400	-2.063257
0.540500	-2.031773
0.540600	-1.972374
0.540700	-1.882789
0.540800	-1.812679
0.540900	-1.742570
0.541000	-1.666293
0.541100	-1.599753
0.541200	-1.546522
0.541300	-1.481930
0.541400	-1.417338
0.541500	-1.342684
0.541600	-1.271600
0.541700	-1.219992
0.541800	-1.195324
0.541900	-1.172927
0.542000	-1.159295
0.542100	-1.159620
0.542200	-1.140469
0.542300	-1.133653
0.542400	-1.108336
0.542500	-1.104116
0.542600	-1.095352
0.542700	-1.112880
0.542800	-1.107686
0.542900	-1.078799
0.543000	-0.979801
0.543100	-0.834713
0.543200	-0.737014
0.543300	-0.823352
0.543400	-0.933061
0.543500	-0.983371
0.543600	-0.883076
0.543700	-0.765252
0.543800	-0.660088
0.543900	-0.667553
0.544000	-0.716565
0.544100	-0.758436
0.544200	-0.722407
0.544300	-0.638990
0.544400	-0.563687
0.544500	-0.521491
0.544600	-0.505587
0.544700	-0.492279
0.544800	-0.488709
0.544900	-0.484814
0.545000	-0.471506
0.545100	-0.466962
0.545200	-0.451057
0.545300	-0.441644
0.545400	-0.437749
0.545500	-0.475725
0.545600	-0.490981
0.545700	-0.532202
0.545800	-0.545186
0.545900	-0.535773
0.546000	-0.505587
0.546100	-0.498771
0.546200	-0.567582
0.546300	-0.662360
0.546400	-0.663658
0.546500	-0.586083
0.546600	-0.493577
0.546700	-0.473778
0.546800	-0.548432
0.546900	-0.644183
0.547000	-0.661711
0.547100	-0.586408
0.547200	-0.499744
0.547300	-0.469558
0.547400	-0.516298
0.547500	-0.565310
0.547600	-0.566608
0.547700	-0.547782
0.547800	-0.517596
0.547900	-0.526685
0.548000	-0.552976
0.548100	-0.580890
0.548200	-0.595171
0.548300	-0.592575
0.548400	-0.604909
0.548500	-0.625682
0.548600	-0.625682
0.548700	-0.597768
0.548800	-0.568556
0.548900	-0.560766
0.549000	-0.591276
0.549100	-0.627305
0.549200	-0.630875
0.549300	-0.614322
0.549400	-0.573100
0.549500	-0.564661
0.549600	-0.549405
0.549700	-0.529606
0.549800	-0.509482
0.549900	-0.493577
0.550000	-0.474427
0.550100	-0.467935
0.550200	-0.457549
0.550300	-0.458847
0.550400	-0.463067
0.550500	-0.465014
0.550600	-0.478971
0.550700	-0.485787
0.550800	-0.497148
0.550900	-0.513377
0.551000	-0.543238
0.551100	-0.568556
0.551200	-0.599716
0.551300	-0.687353
0.551400	-0.844775
0.551500	-0.997978
0.551600	-1.018751
0.551700	-0.968765
0.551800	-0.927219
0.551900	-1.018426
0.552000	-1.203114
0.552100	-1.402407
0.552200	-1.509519
0.552300	-1.523801
0.552400	-1.517634
0.552500	-1.578980
0.552600	-1.708164
0.552700	-1.847085
0.552800	-1.950952
0.552900	-2.011324
0.553000	-2.058064
0.553100	-2.124604
0.553200	-2.191143
0.553300	-2.266122
0.553400	-2.335907
0.553500	-2.404070
0.553600	-2.454705
0.553700	-2.511832
0.553800	-2.577073
0.553900	-2.638095
0.554000	-2.681589
0.554100	-2.713723
0.554200	-2.756892
0.554300	-2.807203
0.554400	-2.824081
0.554500	-2.777990
0.554600	-2.708529
0.554700	-2.702687
0.554800	-2.795842
0.554900	-2.889972
0.555000	-2.932492
0.555100	-2.845828
0.555200	-2.724758
0.555300	-2.663087
0.555400	-2.711450
0.555500	-2.810449
0.555600	-2.852644
0.555700	-2.795842
0.555800	-2.696844
0.555900	-2.633226
0.556000	-2.606935
0.556100	-2.591354
0.556200	-2.556624
0.556300	-2.496576
0.556400	-2.432309
0.556500	-2.374857
0.556600	-2.311564
0.556700	-2.221005
0.556800	-2.094742
0.556900	-1.972050
0.557000	-1.879544
0.557100	-1.808460
0.557200	-1.746465
0.557300	-1.646493
0.557400	-1.518932
0.557500	-1.418312
0.557600	-1.285233
0.557700	-1.192727
0.557800	-1.119371
0.557900	-1.039200
0.558000	-0.942799
0.558100	-0.842503
0.558200	-0.731820
0.558300	-0.639639
0.558400	-0.569854
0.558500	-0.527658
0.558600	-0.486436
0.558700	-0.449434
0.558800	-0.427363
0.558900	-0.399449
0.559000	-0.376403
0.559100	-0.362771
0.559200	-0.359850
0.559300	-0.380947
0.559400	-0.424766
0.559500	-0.443916
0.559600	-0.452031
0.559700	-0.342971
0.559800	-0.238456
0.559900	-0.213788
0.560000	-0.350437
0.560100	-0.498771
0.560200	-0.527009
0.560300	-0.444241
0.560400	-0.340375
0.560500	-0.302723
0.560600	-0.364718
0.560700	-0.473129
0.560800	-0.539343
0.560900	-0.528957
0.561000	-0.483515
0.561100	-0.457873
0.561200	-0.487086
0.561300	-0.532527
0.561400	-0.591276
0.561500	-0.634121
0.561600	-0.661711
0.561700	-0.668202
0.561800	-0.686054
0.561900	-0.702283
0.562000	-0.720785
0.562100	-0.748374
0.562200	-0.786026
0.562300	-0.797710
0.562400	-0.842827
0.562500	-0.861653
0.562600	-0.858732
0.562700	-0.853539
0.562800	-0.864899
0.562900	-0.983047
0.563000	-1.055753
0.563100	-1.045691
0.563200	-0.943123
0.563300	-0.880154
0.563400	-0.893787
0.563500	-1.012908
0.563600	-1.114827
0.563700	-1.126512
0.563800	-1.042121
0.563900	-0.954159
0.564000	-0.951238
0.564100	-1.008364
0.564200	-1.075877
0.564300	-1.073930
0.564400	-1.057701
0.564500	-1.035954
0.564600	-1.054455
0.564700	-1.096001
0.564800	-1.144040
0.564900	-1.177147
0.565000	-1.201815
0.565100	-1.234273
0.565200	-1.271276
0.565300	-1.291075
0.565400	-1.302760
0.565500	-1.304708
0.565600	-1.335219
0.565700	-1.407276
0.565800	-1.469271
0.565900	-1.498159
0.566000	-1.465701
0.566100	-1.449796
0.566200	-1.465376
0.566300	-1.477061
0.566400	-1.484851
0.566500	-1.493939
0.566600	-1.501080
0.566700	-1.506923
0.566800	-1.517634
0.566900	-1.526398
0.567000	-1.540679
0.567100	-1.551715
0.567200	-1.561452
0.567300	-1.571515
0.567400	-1.576059
0.567500	-1.583524
0.567600	-1.581252
0.567700	-1.589042
0.567800	-1.599429
0.567900	-1.616632
0.568000	-1.689338
0.568100	-1.830856
0.568200	-1.910379
0.568300	-1.877271
0.568400	-1.760097
0.568500	-1.702646
0.568600	-1.771782
0.568700	-1.930503
0.568800	-2.062608
0.568900	-2.073644
0.569000	-2.016193
0.569100	-1.967505
0.569200	-1.986007
0.569300	-2.070074
0.569400	-2.160308
0.569500	-2.212241
0.569600	-2.217759
0.569700	-2.218733
0.569800	-2.220031
0.569900	-2.234962
0.570000	-2.270341
0.570100	-2.288194
0.570200	-2.308318
0.570300	-2.323249
0.570400	-2.330714
0.570500	-2.352461
0.570600	-2.373234
0.570700	-2.377454
0.570800	-2.386867
0.570900	-2.395631
0.571000	-2.418027
0.571100	-2.407640
0.571200	-2.329416
0.571300	-2.263201
0.571400	-2.285272
0.571500	-2.394332
0.571600	-2.497874
0.571700	-2.529684
0.571800	-2.444643
0.571900	-2.341101
0.572000	-2.313511
0.572100	-2.394981
0.572200	-2.505664
0.572300	-2.556299
0.572400	-2.508910
0.572500	-2.431659
0.572600	-2.378428
0.572700	-2.360576
0.572800	-2.352136
0.572900	-2.325845
0.573000	-2.282026
0.573100	-2.235936
0.573200	-2.176212
0.573300	-2.103181
0.573400	-2.013921
0.573500	-1.901291
0.573600	-1.807162
0.573700	-1.734455
0.573800	-1.677653
0.573900	-1.619877
0.574000	-1.522503
0.574100	-1.409548
0.574200	-1.299190
0.574300	-1.176498
0.574400	-1.092756
0.574500	-1.024593
0.574600	-0.956107
0.574700	-0.885997
0.574800	-0.804851
0.574900	-0.728575
0.575000	-0.669501
0.575100	-0.641587
0.575200	-0.623410
0.575300	-0.610102
0.575400	-0.606207
0.575500	-0.604260
0.575600	-0.591601
0.575700	-0.587057
0.575800	-0.575696
0.575900	-0.589329
0.576000	-0.602312
0.576100	-0.629252
0.576200	-0.642560
0.576300	-0.607181
0.576400	-0.480919
0.576500	-0.377702
0.576600	-0.403993
0.576700	-0.552002
0.576800	-0.675343
0.576900	-0.684431
0.577000	-0.587381
0.577100	-0.505587
0.577200	-0.478971
0.577300	-0.567257
0.577400	-0.646131
0.577500	-0.697090
0.577600	-0.655544
0.577700	-0.595821
0.577800	-0.546809
0.577900	-0.530255
0.578000	-0.534475
0.578100	-0.535773
0.578200	-0.542914
0.578300	-0.517921
0.578400	-0.509482
0.578500	-0.506561
0.578600	-0.502341
0.578700	-0.518570
0.578800	-0.532527
0.578900	-0.572451
0.579000	-0.606207
0.579100	-0.649701
0.579200	-0.647429
0.579300	-0.634121
0.579400	-0.614646
0.579500	-0.658140
0.579600	-0.778560
0.579700	-0.830818
0.579800	-0.786999
0.579900	-0.702283
0.580000	-0.661711
0.580100	-0.709424
0.580200	-0.835037
0.580300	-0.910340
0.580400	-0.888918
0.580500	-0.795763
0.580600	-0.732470
0.580700	-0.746102
0.580800	-0.809395
0.580900	-0.843477
0.581000	-0.849319
0.581100	-0.813290
0.581200	-0.793491
0.581300	-0.800307
0.581400	-0.823352
0.581500	-0.839257
0.581600	-0.837959
0.581700	-0.832765
0.581800	-0.836985
0.581900	-0.834388
0.582000	-0.822379
0.582100	-0.807773
0.582200	-0.782780
0.582300	-0.802579
0.582400	-0.848345
0.582500	-0.870092
0.582600	-0.870741
0.582700	-0.829844
0.582800	-0.813940
0.582900	-0.822054
0.583000	-0.820107
0.583100	-0.813290
0.583200	-0.802904
0.583300	-0.799333
0.583400	-0.792842
0.583500	-0.784727
0.583600	-0.783104
0.583700	-0.780183
0.583800	-0.781806
0.583900	-0.781806
0.584000	-0.790245
0.584100	-0.791219
0.584200	-0.796737
0.584300	-0.814913
0.584400	-0.840555
0.584500	-0.879505
0.584600	-0.930789
0.584700	-1.058350
0.584800	-1.217071
0.584900	-1.286207
0.585000	-1.224861
0.585100	-1.136250
0.585200	-1.125214
0.585300	-1.240765
0.585400	-1.412145
0.585500	-1.515686
0.585600	-1.519906
0.585700	-1.466025
0.585800	-1.445577
0.585900	-1.489395
0.586000	-1.586121
0.586100	-1.669863
0.586200	-1.697453
0.586300	-1.685118
0.586400	-1.660450
0.586500	-1.668889
0.586600	-1.683171
0.586700	-1.693558
0.586800	-1.684145
0.586900	-1.670512
0.587000	-1.655906
0.587100	-1.647791
0.587200	-1.664021
0.587300	-1.629615
0.587400	-1.585472
0.587500	-1.565997
0.587600	-1.565347
0.587700	-1.560479
0.587800	-1.489071
0.587900	-1.361510
0.588000	-1.292698
0.588100	-1.316717
0.588200	-1.413118
0.588300	-1.472517
0.588400	-1.446875
0.588500	-1.336517
0.588600	-1.249529
0.588700	-1.255371
0.588800	-1.355992
0.588900	-1.474464
0.589000	-1.533863
0.589100	-1.523801
0.589200	-1.491992
0.589300	-1.496536
0.589400	-1.542627
0.589500	-1.611763
0.589600	-1.660126
0.589700	-1.689338
0.589800	-1.707839
0.589900	-1.714331
0.590000	-1.705243
0.590100	-1.669863
0.590200	-1.625720
0.590300	-1.599429
0.590400	-1.583849
0.590500	-1.576708
0.590600	-1.560803
0.590700	-1.498808
0.590800	-1.446550
0.590900	-1.390722
0.591000	-1.326455
0.591100	-1.297567
0.591200	-1.282961
0.591300	-1.255696
0.591400	-1.241090
0.591500	-1.204412
0.591600	-1.181042
0.591700	-1.186235
0.591800	-1.201491
0.591900	-1.241739
0.592000	-1.268679
0.592100	-1.315419
0.592200	-1.342684
0.592300	-1.377414
0.592400	-1.397214
0.592500	-1.423505
0.592600	-1.443954
0.592700	-1.479982
0.592800	-1.513414
0.592900	-1.522827
0.593000	-1.455314
0.593100	-1.335219
0.593200	-1.232651
0.593300	-1.300488
0.593400	-1.449147
0.593500	-1.524450
0.593600	-1.469596
0.593700	-1.334245
0.593800	-1.237519
0.593900	-1.225510
0.594000	-1.296593
0.594100	-1.355343
0.594200	-1.338464
0.594300	-1.268679
0.594400	-1.175199
0.594500	-1.117099
0.594600	-1.085939
0.594700	-1.077500
0.594800	-1.075553
0.594900	-1.052507
0.595000	-1.013558
0.595100	-0.986293
0.595200	-0.965844
0.595300	-0.953510
0.595400	-0.961624
0.595500	-0.976880
0.595600	-0.992784
0.595700	-1.015830
0.595800	-1.049586
0.595900	-1.047963
0.596000	-1.036603
0.596100	-1.009013
0.596200	-1.076202
0.596300	-1.175199
0.596400	-1.194350
0.596500	-1.129758
0.596600	-1.030111
0.596700	-0.998627
0.596800	-1.061271
0.596900	-1.166111
0.597000	-1.208631
0.597100	-1.164813
0.597200	-1.074254
0.597300	-1.032059
0.597400	-1.070684
0.597500	-1.132679
0.597600	-1.164488
0.597700	-1.188832
0.597800	-1.192727
0.597900	-1.215448
0.598000	-1.248230
0.598100	-1.283610
0.598200	-1.323534
0.598300	-1.351123
0.598400	-1.378388
0.598500	-1.404355
0.598600	-1.418636
0.598700	-1.418312
0.598800	-1.407600
0.598900	-1.409223
0.599000	-1.461157
0.599100	-1.523801
0.599200	-1.558531
0.599300	-1.561777
0.599400	-1.544574
0.599500	-1.554636
0.599600	-1.559830
0.599700	-1.563400
0.599800	-1.564698
0.599900	-1.572164
0.600000	-1.579954
0.600100	-1.588393
0.600200	-1.594560
0.600300	-1.600727
0.600400	-1.602350
0.600500	-1.612737
0.600600	-1.618254
0.600700	-1.624746
0.600800	-1.631887
0.600900	-1.637405
0.601000	-1.652985
0.601100	-1.663371
0.601200	-1.690961
0.601300	-1.736727
0.601400	-1.868183
0.601500	-1.995095
0.601600	-2.011324
0.601700	-1.921739
0.601800	-1.821119
0.601900	-1.826961
0.602000	-1.946408
0.602100	-2.082732
0.602200	-2.145052
0.602300	-2.105778
0.602400	-2.041186
0.602500	-2.019439
0.602600	-2.079811
0.602700	-2.166150
0.602800	-2.236585
0.602900	-2.245349
0.603000	-2.243076
0.603100	-2.244699
0.603200	-2.269692
0.603300	-2.281377
0.603400	-2.295334
0.603500	-2.299554
0.603600	-2.308642
0.603700	-2.324547
0.603800	-2.331039
0.603900	-2.331363
0.604000	-2.309941
0.604100	-2.301177
0.604200	-2.311239
0.604300	-2.326494
0.604400	-2.324871
0.604500	-2.266446
0.604600	-2.183353
0.604700	-2.169396
0.604800	-2.246647
0.604900	-2.356031
