LabVIEW Measurement	
Writer_Version	2
Reader_Version	2
Separator	Tab
Decimal_Separator	.
Multi_Headings	Yes
X_Columns	One
Time_Pref	Relative
Operator	as989
Description	Time Domain Data
Date	1903/12/31
Time	19:00:00
***End_of_Header***	
	
Channels	1	
Samples	15000	
Date	1903/12/31	
Time	19:00:00	
X_Dimension	Time	
X0	0.0000000000000000E+0	
Delta_X	0.000100	
***End_of_Header***		
X_Value	Untitled	Comment
0.000000	-0.642560	Tare Values:0.000000, 0.000000, 0.000000, 0.000000\0D\0A
0.000100	-0.957729
0.000200	-1.154426
0.000300	-1.164813
0.000400	-0.917157
0.000500	-0.734742
0.000600	-0.606856
0.000700	-0.633147
0.000800	-0.829195
0.000900	-0.889567
0.001000	-0.752918
0.001100	-0.631849
0.001200	-0.490007
0.001300	-0.523114
0.001400	-0.465663
0.001500	-0.548107
0.001600	-0.505911
0.001700	-0.488059
0.001800	-0.454627
0.001900	-0.433854
0.002000	-0.442618
0.002100	-0.443916
0.002200	-0.448460
0.002300	-0.482541
0.002400	-0.609778
0.002500	-0.653596
0.002600	-0.688002
0.002700	-0.643209
0.002800	-0.667553
0.002900	-0.606856
0.003000	-0.803878
0.003100	-0.948966
0.003200	-0.974283
0.003300	-0.838283
0.003400	-0.640613
0.003500	-0.675343
0.003600	-0.831142
0.003700	-1.082694
0.003800	-1.085939
0.003900	-0.967791
0.004000	-0.817185
0.004100	-0.814264
0.004200	-0.923324
0.004300	-1.028813
0.004400	-1.030111
0.004500	-1.042121
0.004600	-1.009663
0.004700	-1.014856
0.004800	-1.045691
0.004900	-1.090808
0.005000	-1.127810
0.005100	-1.083018
0.005200	-1.112231
0.005300	-1.140794
0.005400	-1.139171
0.005500	-1.128460
0.005600	-1.113529
0.005700	-1.092756
0.005800	-1.167085
0.005900	-1.274846
0.006000	-1.288154
0.006100	-1.243686
0.006200	-1.114827
0.006300	-1.173252
0.006400	-1.206359
0.006500	-1.200192
0.006600	-1.201491
0.006700	-1.208631
0.006800	-1.189806
0.006900	-1.163190
0.007000	-1.167734
0.007100	-1.168383
0.007200	-1.183314
0.007300	-1.185911
0.007400	-1.214149
0.007500	-1.223562
0.007600	-1.215123
0.007700	-1.247906
0.007800	-1.258293
0.007900	-1.290751
0.008000	-1.366703
0.008100	-1.411495
0.008200	-1.731858
0.008300	-1.844813
0.008400	-1.803267
0.008500	-1.577682
0.008600	-1.456288
0.008700	-1.614035
0.008800	-1.865262
0.008900	-2.066179
0.009000	-2.078188
0.009100	-1.925634
0.009200	-1.838321
0.009300	-1.862990
0.009400	-2.049625
0.009500	-2.214838
0.009600	-2.295659
0.009700	-2.261902
0.009800	-2.211916
0.009900	-2.210294
0.010000	-2.301501
0.010100	-2.338504
0.010200	-2.399850
0.010300	-2.386218
0.010400	-2.411535
0.010500	-2.482619
0.010600	-2.557273
0.010700	-2.542992
0.010800	-2.556949
0.010900	-2.496901
0.011000	-2.569283
0.011100	-2.599145
0.011200	-2.653025
0.011300	-2.549483
0.011400	-2.385893
0.011500	-2.408289
0.011600	-2.552404
0.011700	-2.716319
0.011800	-2.781885
0.011900	-2.622190
0.012000	-2.442695
0.012100	-2.412834
0.012200	-2.586810
0.012300	-2.784482
0.012400	-2.875690
0.012500	-2.831222
0.012600	-2.691002
0.012700	-2.626085
0.012800	-2.624462
0.012900	-2.686133
0.013000	-2.726057
0.013100	-2.703660
0.013200	-2.669255
0.013300	-2.616997
0.013400	-2.596872
0.013500	-2.510858
0.013600	-2.365769
0.013700	-2.299879
0.013800	-2.279105
0.013900	-2.290790
0.014000	-2.292413
0.014100	-2.247621
0.014200	-2.085329
0.014300	-2.033071
0.014400	-1.926933
0.014500	-1.871429
0.014600	-1.823066
0.014700	-1.751009
0.014800	-1.661424
0.014900	-1.561452
0.015000	-1.432269
0.015100	-1.349176
0.015200	-1.344631
0.015300	-1.299839
0.015400	-1.327429
0.015500	-1.266083
0.015600	-1.277118
0.015700	-1.183963
0.015800	-1.164164
0.015900	-1.097949
0.016000	-1.064517
0.016100	-1.081395
0.016200	-1.046665
0.016300	-1.064192
0.016400	-1.001223
0.016500	-0.731171
0.016600	-0.539343
0.016700	-0.520842
0.016800	-0.772718
0.016900	-0.930140
0.017000	-0.858083
0.017100	-0.606207
0.017200	-0.408212
0.017300	-0.373157
0.017400	-0.505911
0.017500	-0.682808
0.017600	-0.634770
0.017700	-0.586408
0.017800	-0.413081
0.017900	-0.315057
0.018000	-0.347191
0.018100	-0.402370
0.018200	-0.441969
0.018300	-0.407563
0.018400	-0.376079
0.018500	-0.380298
0.018600	-0.385167
0.018700	-0.429959
0.018800	-0.421196
0.018900	-0.461768
0.019000	-0.473129
0.019100	-0.549081
0.019200	-0.567906
0.019300	-0.570179
0.019400	-0.499420
0.019500	-0.510780
0.019600	-0.527658
0.019700	-0.758436
0.019800	-0.902550
0.019900	-0.830493
0.020000	-0.688651
0.020100	-0.508508
0.020200	-0.582188
0.020300	-0.822379
0.020400	-1.011935
0.020500	-0.964546
0.020600	-0.808746
0.020700	-0.651649
0.020800	-0.705854
0.020900	-0.799009
0.021000	-0.903524
0.021100	-0.856460
0.021200	-0.867496
0.021300	-0.801605
0.021400	-0.873663
0.021500	-0.944097
0.021600	-0.968765
0.021700	-0.963896
0.021800	-0.933386
0.021900	-0.965519
0.022000	-1.045367
0.022100	-1.048937
0.022200	-1.006417
0.022300	-1.007390
0.022400	-1.009987
0.022500	-1.169357
0.022600	-1.217720
0.022700	-1.221615
0.022800	-1.182340
0.022900	-1.076526
0.023000	-1.145338
0.023100	-1.132030
0.023200	-1.116126
0.023300	-1.124565
0.023400	-1.111581
0.023500	-1.122942
0.023600	-1.118398
0.023700	-1.145338
0.023800	-1.144364
0.023900	-1.183963
0.024000	-1.212851
0.024100	-1.230054
0.024200	-1.272250
0.024300	-1.298865
0.024400	-1.347553
0.024500	-1.376116
0.024600	-1.479333
0.024700	-1.468297
0.024800	-1.639352
0.024900	-1.930828
0.025000	-2.048327
0.025100	-1.919143
0.025200	-1.690961
0.025300	-1.657529
0.025400	-1.856174
0.025500	-2.163554
0.025600	-2.326494
0.025700	-2.297282
0.025800	-2.100909
0.025900	-1.980813
0.026000	-2.069425
0.026100	-2.260604
0.026200	-2.413158
0.026300	-2.449836
0.026400	-2.372585
0.026500	-2.335258
0.026600	-2.306046
0.026700	-2.357330
0.026800	-2.379401
0.026900	-2.380051
0.027000	-2.394008
0.027100	-2.387516
0.027200	-2.450810
0.027300	-2.448862
0.027400	-2.463144
0.027500	-2.465741
0.027600	-2.442695
0.027700	-2.492681
0.027800	-2.519946
0.027900	-2.511507
0.028000	-2.367392
0.028100	-2.287220
0.028200	-2.377779
0.028300	-2.536175
0.028400	-2.733522
0.028500	-2.741312
0.028600	-2.516376
0.028700	-2.344671
0.028800	-2.352136
0.028900	-2.510209
0.029000	-2.711450
0.029100	-2.795518
0.029200	-2.722811
0.029300	-2.584538
0.029400	-2.499497
0.029500	-2.516700
0.029600	-2.555650
0.029700	-2.553378
0.029800	-2.516700
0.029900	-2.496576
0.030000	-2.434581
0.030100	-2.409912
0.030200	-2.358628
0.030300	-2.247945
0.030400	-2.152518
0.030500	-2.116164
0.030600	-2.089224
0.030700	-2.104804
0.030800	-1.995095
0.030900	-1.834751
0.031000	-1.678302
0.031100	-1.572813
0.031200	-1.623123
0.031300	-1.572164
0.031400	-1.494913
0.031500	-1.413443
0.031600	-1.317367
0.031700	-1.245634
0.031800	-1.182340
0.031900	-1.174875
0.032000	-1.202140
0.032100	-1.197271
0.032200	-1.242063
0.032300	-1.192727
0.032400	-1.168708
0.032500	-1.156049
0.032600	-1.136899
0.032700	-1.212202
0.032800	-1.177147
0.032900	-1.281662
0.033000	-1.224536
0.033100	-1.164813
0.033200	-0.915858
0.033300	-0.735066
0.033400	-0.844450
0.033500	-1.167085
0.033600	-1.306655
0.033700	-1.119371
0.033800	-0.824975
0.033900	-0.783753
0.034000	-0.657816
0.034100	-0.923324
0.034200	-1.035629
0.034300	-1.047639
0.034400	-0.845099
0.034500	-0.751944
0.034600	-0.681835
0.034700	-0.709100
0.034800	-0.701310
0.034900	-0.707477
0.035000	-0.745777
0.035100	-0.681186
0.035200	-0.697090
0.035300	-0.685081
0.035400	-0.652298
0.035500	-0.654570
0.035600	-0.681186
0.035700	-0.849968
0.035800	-0.827572
0.035900	-0.858083
0.036000	-0.861004
0.036100	-0.774990
0.036200	-0.804527
0.036300	-0.860355
0.036400	-1.122617
0.036500	-1.191429
0.036600	-1.119371
0.036700	-0.958703
0.036800	-0.807773
0.036900	-0.964221
0.037000	-1.200192
0.037100	-1.373195
0.037200	-1.310226
0.037300	-1.143390
0.037400	-1.005768
0.037500	-1.089185
0.037600	-1.193701
0.037700	-1.267381
0.037800	-1.210904
0.037900	-1.186884
0.038000	-1.118398
0.038100	-1.156698
0.038200	-1.146636
0.038300	-1.142092
0.038400	-1.085290
0.038500	-1.056727
0.038600	-1.090808
0.038700	-1.111581
0.038800	-1.072956
0.038900	-1.040822
0.039000	-1.005443
0.039100	-1.023944
0.039200	-1.174550
0.039300	-1.215123
0.039400	-1.186884
0.039500	-1.165787
0.039600	-1.084966
0.039700	-1.141443
0.039800	-1.126512
0.039900	-1.115476
0.040000	-1.091457
0.040100	-1.059973
0.040200	-1.059973
0.040300	-1.073930
0.040400	-1.062245
0.040500	-1.076202
0.040600	-1.069710
0.040700	-1.092431
0.040800	-1.114827
0.040900	-1.138522
0.041000	-1.151180
0.041100	-1.190130
0.041200	-1.194025
0.041300	-1.280040
0.041400	-1.292698
0.041500	-1.483877
0.041600	-1.765290
0.041700	-1.796126
0.041800	-1.613710
0.041900	-1.439734
0.042000	-1.442006
0.042100	-1.734130
0.042200	-1.992823
0.042300	-2.111945
0.042400	-1.987305
0.042500	-1.853577
0.042600	-1.796450
0.042700	-1.957443
0.042800	-2.113892
0.042900	-2.263201
0.043000	-2.216461
0.043100	-2.199907
0.043200	-2.225549
0.043300	-2.297931
0.043400	-2.344346
0.043500	-2.361225
0.043600	-2.356356
0.043700	-2.369989
0.043800	-2.391736
0.043900	-2.463469
0.044000	-2.504366
0.044100	-2.530982
0.044200	-2.520920
0.044300	-2.528385
0.044400	-2.588109
0.044500	-2.630305
0.044600	-2.585837
0.044700	-2.423545
0.044800	-2.364471
0.044900	-2.492357
0.045000	-2.693598
0.045100	-2.842907
0.045200	-2.762086
0.045300	-2.578696
0.045400	-2.447889
0.045500	-2.519946
0.045600	-2.714696
0.045700	-2.868874
0.045800	-2.857838
0.045900	-2.745532
0.046000	-2.632577
0.046100	-2.604987
0.046200	-2.634849
0.046300	-2.650753
0.046400	-2.607259
0.046500	-2.535202
0.046600	-2.492357
0.046700	-2.455354
0.046800	-2.385244
0.046900	-2.265473
0.047000	-2.132718
0.047100	-2.035343
0.047200	-2.004833
0.047300	-1.947057
0.047400	-1.904861
0.047500	-1.744192
0.047600	-1.604297
0.047700	-1.397538
0.047800	-1.381309
0.047900	-1.363133
0.048000	-1.331973
0.048100	-1.225185
0.048200	-1.138522
0.048300	-1.043419
0.048400	-0.957080
0.048500	-0.965519
0.048600	-0.938579
0.048700	-0.947018
0.048800	-0.905796
0.048900	-0.927219
0.049000	-0.883725
0.049100	-0.818159
0.049200	-0.883076
0.049300	-0.787648
0.049400	-0.882751
0.049500	-0.803553
0.049600	-0.942149
0.049700	-0.759734
0.049800	-0.733443
0.049900	-0.395554
0.050000	-0.382895
0.050100	-0.481568
0.050200	-0.902875
0.050300	-0.922999
0.050400	-0.760384
0.050500	-0.571477
0.050600	-0.477997
0.050700	-0.543563
0.050800	-0.740259
0.050900	-0.792517
0.051000	-0.799658
0.051100	-0.646455
0.051200	-0.539992
0.051300	-0.528632
0.051400	-0.555572
0.051500	-0.583486
0.051600	-0.597119
0.051700	-0.547782
0.051800	-0.520842
0.051900	-0.482217
0.052000	-0.511105
0.052100	-0.496174
0.052200	-0.476050
0.052300	-0.494226
0.052400	-0.572451
0.052500	-0.637042
0.052600	-0.637367
0.052700	-0.598742
0.052800	-0.534150
0.052900	-0.539343
0.053000	-0.638990
0.053100	-0.858407
0.053200	-0.838608
0.053300	-0.788622
0.053400	-0.556546
0.053500	-0.592575
0.053600	-0.736689
0.053700	-0.992784
0.053800	-1.006092
0.053900	-0.912288
0.054000	-0.740584
0.054100	-0.742532
0.054200	-0.866522
0.054300	-1.003171
0.054400	-0.994732
0.054500	-1.002197
0.054600	-0.966169
0.054700	-1.007066
0.054800	-1.073281
0.054900	-1.110932
0.055000	-1.109958
0.055100	-1.074254
0.055200	-1.088536
0.055300	-1.142741
0.055400	-1.161567
0.055500	-1.131705
0.055600	-1.127161
0.055700	-1.108011
0.055800	-1.174875
0.055900	-1.257319
0.056000	-1.276469
0.056100	-1.253748
0.056200	-1.164813
0.056300	-1.207982
0.056400	-1.247581
0.056500	-1.223562
0.056600	-1.240116
0.056700	-1.242063
0.056800	-1.241414
0.056900	-1.243362
0.057000	-1.274522
0.057100	-1.289777
0.057200	-1.286207
0.057300	-1.285233
0.057400	-1.293672
0.057500	-1.310226
0.057600	-1.317042
0.057700	-1.326455
0.057800	-1.349500
0.057900	-1.397863
0.058000	-1.400135
0.058100	-1.483228
0.058200	-1.696154
0.058300	-1.923038
0.058400	-1.842216
0.058500	-1.634808
0.058600	-1.488097
0.058700	-1.578331
0.058800	-1.888307
0.058900	-2.124928
0.059000	-2.169072
0.059100	-2.011000
0.059200	-1.849357
0.059300	-1.840594
0.059400	-1.980489
0.059500	-2.167449
0.059600	-2.220356
0.059700	-2.214838
0.059800	-2.153492
0.059900	-2.136289
0.060000	-2.179783
0.060100	-2.206723
0.060200	-2.240155
0.060300	-2.263525
0.060400	-2.286571
0.060500	-2.323249
0.060600	-2.365769
0.060700	-2.425168
0.060800	-2.420948
0.060900	-2.472881
0.061000	-2.515402
0.061100	-2.584214
0.061200	-2.599145
0.061300	-2.504691
0.061400	-2.352786
0.061500	-2.386867
0.061600	-2.552729
0.061700	-2.771498
0.061800	-2.885752
0.061900	-2.740663
0.062000	-2.575774
0.062100	-2.534552
0.062200	-2.696520
0.062300	-2.901332
0.062400	-3.021104
0.062500	-2.998058
0.062600	-2.866602
0.062700	-2.814344
0.062800	-2.829599
0.062900	-2.876664
0.063000	-2.893217
0.063100	-2.869198
0.063200	-2.838687
0.063300	-2.783833
0.063400	-2.751699
0.063500	-2.678668
0.063600	-2.588433
0.063700	-2.475803
0.063800	-2.414132
0.063900	-2.371611
0.064000	-2.344022
0.064100	-2.290141
0.064200	-2.149921
0.064300	-2.070074
0.064400	-1.865586
0.064500	-1.896746
0.064600	-1.863964
0.064700	-1.819820
0.064800	-1.735753
0.064900	-1.660126
0.065000	-1.559830
0.065100	-1.497834
0.065200	-1.455963
0.065300	-1.488746
0.065400	-1.435514
0.065500	-1.476412
0.065600	-1.405004
0.065700	-1.414092
0.065800	-1.303734
0.065900	-1.365080
0.066000	-1.303409
0.066100	-1.323534
0.066200	-1.383257
0.066300	-1.309901
0.066400	-1.293997
0.066500	-0.989214
0.066600	-0.835362
0.066700	-0.675668
0.066800	-1.041796
0.066900	-1.162216
0.067000	-1.143066
0.067100	-0.802904
0.067200	-0.645157
0.067300	-0.554923
0.067400	-0.646780
0.067500	-0.847372
0.067600	-0.860679
0.067700	-0.754217
0.067800	-0.590627
0.067900	-0.490981
0.068000	-0.458847
0.068100	-0.465014
0.068200	-0.501043
0.068300	-0.466637
0.068400	-0.433530
0.068500	-0.415353
0.068600	-0.392957
0.068700	-0.374131
0.068800	-0.383869
0.068900	-0.374456
0.069000	-0.449434
0.069100	-0.460470
0.069200	-0.502341
0.069300	-0.479620
0.069400	-0.416327
0.069500	-0.372833
0.069600	-0.395554
0.069700	-0.608479
0.069800	-0.753243
0.069900	-0.719811
0.070000	-0.564661
0.070100	-0.374780
0.070200	-0.498771
0.070300	-0.727925
0.070400	-0.947343
0.070500	-0.911963
0.070600	-0.778885
0.070700	-0.641262
0.070800	-0.681835
0.070900	-0.823677
0.071000	-0.935658
0.071100	-0.897033
0.071200	-0.928517
0.071300	-0.871715
0.071400	-0.924622
0.071500	-0.947343
0.071600	-0.971686
0.071700	-0.952536
0.071800	-0.911963
0.071900	-0.950264
0.072000	-0.961300
0.072100	-0.938904
0.072200	-0.884374
0.072300	-0.847047
0.072400	-0.824326
0.072500	-0.929166
0.072600	-0.974283
0.072700	-0.933386
0.072800	-0.880479
0.072900	-0.767200
0.073000	-0.821080
0.073100	-0.805176
0.073200	-0.793816
0.073300	-0.815887
0.073400	-0.800632
0.073500	-0.795438
0.073600	-0.812317
0.073700	-0.818159
0.073800	-0.821080
0.073900	-0.844775
0.074000	-0.871715
0.074100	-0.887944
0.074200	-0.921052
0.074300	-0.920402
0.074400	-0.957080
0.074500	-0.955782
0.074600	-1.034006
0.074700	-1.024918
0.074800	-1.187534
0.074900	-1.405004
0.075000	-1.594884
0.075100	-1.428049
0.075200	-1.231352
0.075300	-1.173252
0.075400	-1.362159
0.075500	-1.627343
0.075600	-1.815601
0.075700	-1.765615
0.075800	-1.588393
0.075900	-1.477710
0.076000	-1.559180
0.076100	-1.732508
0.076200	-1.897720
0.076300	-1.886035
0.076400	-1.843839
0.076500	-1.778923
0.076600	-1.780546
0.076700	-1.833777
0.076800	-1.853901
0.076900	-1.849357
0.077000	-1.823391
0.077100	-1.832479
0.077200	-1.905510
0.077300	-1.964584
0.077400	-1.988928
0.077500	-1.916871
0.077600	-1.917520
0.077700	-1.956145
0.077800	-2.026904
0.077900	-2.011324
0.078000	-1.895448
0.078100	-1.778598
0.078200	-1.874026
0.078300	-2.077539
0.078400	-2.270017
0.078500	-2.263201
0.078600	-2.055467
0.078700	-1.876622
0.078800	-1.894150
0.078900	-2.097014
0.079000	-2.314160
0.079100	-2.373884
0.079200	-2.278456
0.079300	-2.099935
0.079400	-2.057740
0.079500	-2.090522
0.079600	-2.138236
0.079700	-2.171993
0.079800	-2.133692
0.079900	-2.132069
0.080000	-2.097014
0.080100	-2.077215
0.080200	-2.030475
0.080300	-1.946083
0.080400	-1.834751
0.080500	-1.764317
0.080600	-1.776651
0.080700	-1.818197
0.080800	-1.739324
0.080900	-1.624422
0.081000	-1.611438
0.081100	-1.464727
0.081200	-1.493615
0.081300	-1.459209
0.081400	-1.405328
0.081500	-1.329701
0.081600	-1.263161
0.081700	-1.146636
0.081800	-1.159295
0.081900	-1.156698
0.082000	-1.200517
0.082100	-1.163515
0.082200	-1.195648
0.082300	-1.142417
0.082400	-1.140145
0.082500	-1.090484
0.082600	-1.112880
0.082700	-1.107037
0.082800	-1.143715
0.082900	-1.201491
0.083000	-1.105414
0.083100	-1.058674
0.083200	-0.786999
0.083300	-0.542265
0.083400	-0.605558
0.083500	-0.884698
0.083600	-1.060297
0.083700	-0.838932
0.083800	-0.725004
0.083900	-0.415028
0.084000	-0.474427
0.084100	-0.546809
0.084200	-0.754866
0.084300	-0.688002
0.084400	-0.542265
0.084500	-0.339401
0.084600	-0.269616
0.084700	-0.348489
0.084800	-0.338427
0.084900	-0.387764
0.085000	-0.343945
0.085100	-0.328365
0.085200	-0.304021
0.085300	-0.323821
0.085400	-0.310838
0.085500	-0.301100
0.085600	-0.385492
0.085700	-0.498121
0.085800	-0.468584
0.085900	-0.493902
0.086000	-0.513701
0.086100	-0.440670
0.086200	-0.466962
0.086300	-0.456250
0.086400	-0.795438
0.086500	-0.819133
0.086600	-0.735066
0.086700	-0.526360
0.086800	-0.409511
0.086900	-0.552002
0.087000	-0.794465
0.087100	-0.939877
0.087200	-0.900603
0.087300	-0.719162
0.087400	-0.595171
0.087500	-0.678264
0.087600	-0.792517
0.087700	-0.901252
0.087800	-0.882751
0.087900	-0.899629
0.088000	-0.802255
0.088100	-0.878856
0.088200	-0.935009
0.088300	-1.020374
0.088400	-1.024593
0.088500	-1.014207
0.088600	-1.067438
0.088700	-1.120994
0.088800	-1.104441
0.088900	-1.108011
0.089000	-1.109309
0.089100	-1.144689
0.089200	-1.302436
0.089300	-1.339763
0.089400	-1.338789
0.089500	-1.287505
0.089600	-1.230378
0.089700	-1.318989
0.089800	-1.303409
0.089900	-1.325806
0.090000	-1.310226
0.090100	-1.324507
0.090200	-1.333271
0.090300	-1.324183
0.090400	-1.337815
0.090500	-1.319314
0.090600	-1.322235
0.090700	-1.343658
0.090800	-1.355667
0.090900	-1.328078
0.091000	-1.360861
0.091100	-1.336841
0.091200	-1.372870
0.091300	-1.384230
0.091400	-1.429023
0.091500	-1.610140
0.091600	-1.827286
0.091700	-1.838646
0.091800	-1.611763
0.091900	-1.389424
0.092000	-1.389099
0.092100	-1.624097
0.092200	-1.897720
0.092300	-1.968155
0.092400	-1.887333
0.092500	-1.716928
0.092600	-1.646169
0.092700	-1.765290
0.092800	-1.920441
0.092900	-2.061635
0.093000	-2.050599
0.093100	-2.005482
0.093200	-2.018790
0.093300	-2.035668
0.093400	-2.069425
0.093500	-2.093768
0.093600	-2.107401
0.093700	-2.119086
0.093800	-2.137262
0.093900	-2.198933
0.094000	-2.207372
0.094100	-2.183029
0.094200	-2.164852
0.094300	-2.164203
0.094400	-2.204451
0.094500	-2.233014
0.094600	-2.158360
0.094700	-2.019114
0.094800	-1.946083
0.094900	-2.074942
0.095000	-2.252165
0.095100	-2.393034
0.095200	-2.288518
0.095300	-2.064880
0.095400	-1.905835
0.095500	-1.924011
0.095600	-2.118761
0.095700	-2.337855
0.095800	-2.363821
0.095900	-2.244050
0.096000	-2.134017
0.096100	-2.100260
0.096200	-2.167773
0.096300	-2.223277
0.096400	-2.257358
0.096500	-2.254112
0.096600	-2.238857
0.096700	-2.227172
0.096800	-2.171668
0.096900	-2.116164
0.097000	-2.009377
0.097100	-1.966532
0.097200	-1.996393
0.097300	-1.975620
0.097400	-1.953224
0.097500	-1.783142
0.097600	-1.657529
0.097700	-1.465701
0.097800	-1.439085
0.097900	-1.445252
0.098000	-1.371896
0.098100	-1.284584
0.098200	-1.205710
0.098300	-1.078149
0.098400	-1.005768
0.098500	-0.947667
0.098600	-0.954159
0.098700	-0.951887
0.098800	-0.923324
0.098900	-0.945720
0.099000	-0.911963
0.099100	-0.860030
0.099200	-0.861653
0.099300	-0.850617
0.099400	-0.856784
0.099500	-0.852889
0.099600	-0.874961
0.099700	-0.749672
0.099800	-0.679238
0.099900	-0.293635
0.100000	-0.325768
0.100100	-0.392632
0.100200	-0.784078
0.100300	-0.739610
0.100400	-0.576346
0.100500	-0.377052
0.100600	-0.183926
0.100700	-0.354981
0.100800	-0.496823
0.100900	-0.638990
0.101000	-0.532527
0.101100	-0.406589
0.101200	-0.342647
0.101300	-0.247220
0.101400	-0.342322
0.101500	-0.326742
0.101600	-0.368613
0.101700	-0.368289
0.101800	-0.335181
0.101900	-0.360174
0.102000	-0.348814
0.102100	-0.381272
0.102200	-0.327067
0.102300	-0.478322
0.102400	-0.518895
0.102500	-0.591926
0.102600	-0.623410
0.102700	-0.572451
0.102800	-0.475076
0.102900	-0.464040
0.103000	-0.606207
0.103100	-0.795438
0.103200	-0.780508
0.103300	-0.673396
0.103400	-0.450083
0.103500	-0.449110
0.103600	-0.591276
0.103700	-0.857434
0.103800	-0.882426
0.103900	-0.796737
0.104000	-0.624059
0.104100	-0.587381
0.104200	-0.731820
0.104300	-0.866197
0.104400	-0.910340
0.104500	-0.898006
0.104600	-0.885023
0.104700	-0.929491
0.104800	-0.974932
0.104900	-1.056402
0.105000	-1.079772
0.105100	-1.034331
0.105200	-1.068412
0.105300	-1.121319
0.105400	-1.137223
0.105500	-1.106713
0.105600	-1.068087
0.105700	-1.076202
0.105800	-1.134951
0.105900	-1.262837
0.106000	-1.271925
0.106100	-1.256994
0.106200	-1.162216
0.106300	-1.179094
0.106400	-1.238818
0.106500	-1.250827
0.106600	-1.277767
0.106700	-1.298865
0.106800	-1.294321
0.106900	-1.332297
0.107000	-1.331324
0.107100	-1.344631
0.107200	-1.358913
0.107300	-1.365729
0.107400	-1.381958
0.107500	-1.404679
0.107600	-1.395915
0.107700	-1.414092
0.107800	-1.434865
0.107900	-1.474140
0.108000	-1.493290
0.108100	-1.538732
0.108200	-1.784765
0.108300	-2.020737
0.108400	-1.925634
0.108500	-1.729586
0.108600	-1.532565
0.108700	-1.649090
0.108800	-1.884737
0.108900	-2.155114
0.109000	-2.153167
0.109100	-2.004833
0.109200	-1.843515
0.109300	-1.854551
0.109400	-2.024957
0.109500	-2.192442
0.109600	-2.268394
0.109700	-2.200556
0.109800	-2.147974
0.109900	-2.194064
0.110000	-2.212566
0.110100	-2.251191
0.110200	-2.290141
0.110300	-2.270666
0.110400	-2.293062
0.110500	-2.315134
0.110600	-2.335907
0.110700	-2.426141
0.110800	-2.398227
0.110900	-2.394332
0.111000	-2.413483
0.111100	-2.443020
0.111200	-2.495602
0.111300	-2.374208
0.111400	-2.204776
0.111500	-2.197959
0.111600	-2.316108
0.111700	-2.493979
0.111800	-2.579345
0.111900	-2.401798
0.112000	-2.216461
0.112100	-2.127200
0.112200	-2.247945
0.112300	-2.469311
0.112400	-2.614400
0.112500	-2.572853
0.112600	-2.440748
0.112700	-2.354084
0.112800	-2.391086
0.112900	-2.455354
0.113000	-2.498524
0.113100	-2.482944
0.113200	-2.472232
0.113300	-2.429387
0.113400	-2.375831
0.113500	-2.307993
0.113600	-2.192117
0.113700	-2.139859
0.113800	-2.116489
0.113900	-2.118112
0.114000	-2.127525
0.114100	-2.087277
0.114200	-1.930828
0.114300	-1.875649
0.114400	-1.845138
0.114500	-1.699400
0.114600	-1.663696
0.114700	-1.623123
0.114800	-1.505300
0.114900	-1.428374
0.115000	-1.304059
0.115100	-1.233624
0.115200	-1.174550
0.115300	-1.167734
0.115400	-1.165137
0.115500	-1.104441
0.115600	-1.114178
0.115700	-1.017777
0.115800	-1.043095
0.115900	-0.984345
0.116000	-1.054779
0.116100	-1.002846
0.116200	-1.062245
0.116300	-1.056078
0.116400	-0.965195
0.116500	-0.824975
0.116600	-0.561090
0.116700	-0.565310
0.116800	-0.804851
0.116900	-1.057052
0.117000	-0.963247
0.117100	-0.710073
0.117200	-0.543563
0.117300	-0.399449
0.117400	-0.595171
0.117500	-0.652947
0.117600	-0.747400
0.117700	-0.548107
0.117800	-0.347191
0.117900	-0.262150
0.118000	-0.260528
0.118100	-0.314733
0.118200	-0.314733
0.118300	-0.290064
0.118400	-0.248843
0.118500	-0.198532
0.118600	-0.204375
0.118700	-0.218657
0.118800	-0.252413
0.118900	-0.251439
0.119000	-0.386465
0.119100	-0.426389
0.119200	-0.490981
0.119300	-0.521167
0.119400	-0.420222
0.119500	-0.485787
0.119600	-0.449759
0.119700	-0.748374
0.119800	-0.868145
0.119900	-0.866846
0.120000	-0.715916
0.120100	-0.540642
0.120200	-0.632174
0.120300	-0.824651
0.120400	-1.060622
0.120500	-1.034980
0.120600	-0.913586
0.120700	-0.786675
0.120800	-0.818159
0.120900	-0.957405
0.121000	-1.060297
0.121100	-1.064517
0.121200	-1.097949
0.121300	-1.069061
0.121400	-1.128460
0.121500	-1.183639
0.121600	-1.232001
0.121700	-1.241414
0.121800	-1.245309
0.121900	-1.293347
0.122000	-1.350149
0.122100	-1.342035
0.122200	-1.309577
0.122300	-1.297892
0.122400	-1.307304
0.122500	-1.417987
0.122600	-1.502054
0.122700	-1.515686
0.122800	-1.502703
0.122900	-1.399486
0.123000	-1.468297
0.123100	-1.464727
0.123200	-1.477061
0.123300	-1.482579
0.123400	-1.467973
0.123500	-1.463104
0.123600	-1.446875
0.123700	-1.446550
0.123800	-1.429347
0.123900	-1.408899
0.124000	-1.421557
0.124100	-1.416364
0.124200	-1.435514
0.124300	-1.449472
0.124400	-1.469271
0.124500	-1.510168
0.124600	-1.504001
0.124700	-1.567295
0.124800	-1.643247
0.124900	-1.970751
0.125000	-2.037940
0.125100	-1.936021
0.125200	-1.668565
0.125300	-1.614359
0.125400	-1.773405
0.125500	-2.072021
0.125600	-2.228470
0.125700	-2.206399
0.125800	-2.044432
0.125900	-1.941539
0.126000	-1.992823
0.126100	-2.147649
0.126200	-2.313186
0.126300	-2.330714
0.126400	-2.291115
0.126500	-2.275210
0.126600	-2.294685
0.126700	-2.339153
0.126800	-2.373234
0.126900	-2.380051
0.127000	-2.398227
0.127100	-2.412834
0.127200	-2.482294
0.127300	-2.569932
0.127400	-2.529034
0.127500	-2.519622
0.127600	-2.540070
0.127700	-2.609856
0.127800	-2.647183
0.127900	-2.653999
0.128000	-2.493330
0.128100	-2.350514
0.128200	-2.465741
0.128300	-2.624462
0.128400	-2.801685
0.128500	-2.784806
0.128600	-2.598171
0.128700	-2.440423
0.128800	-2.435554
0.128900	-2.589732
0.129000	-2.778639
0.129100	-2.829274
0.129200	-2.695546
0.129300	-2.565712
0.129400	-2.523192
0.129500	-2.562142
0.129600	-2.566686
0.129700	-2.560194
0.129800	-2.519297
0.129900	-2.480996
0.130000	-2.411535
0.130100	-2.363172
0.130200	-2.283974
0.130300	-2.148947
0.130400	-2.057740
0.130500	-1.993472
0.130600	-1.950627
0.130700	-1.961338
0.130800	-1.847734
0.130900	-1.686417
0.131000	-1.545873
0.131100	-1.430646
0.131200	-1.457586
0.131300	-1.412794
0.131400	-1.339114
0.131500	-1.256994
0.131600	-1.190779
0.131700	-1.079123
0.131800	-1.073281
0.131900	-1.056078
0.132000	-1.070684
0.132100	-1.027190
0.132200	-1.000250
0.132300	-0.965195
0.132400	-0.875610
0.132500	-0.898006
0.132600	-0.819457
0.132700	-0.871391
0.132800	-0.791543
0.132900	-0.842503
0.133000	-0.780183
0.133100	-0.648078
0.133200	-0.466637
0.133300	-0.205349
0.133400	-0.385492
0.133500	-0.496498
0.133600	-0.711047
0.133700	-0.498446
0.133800	-0.299477
0.133900	-0.203077
0.134000	-0.167048
0.134100	-0.352060
0.134200	-0.496498
0.134300	-0.441969
0.134400	-0.318628
0.134500	-0.178733
0.134600	-0.186198
0.134700	-0.195936
0.134800	-0.319601
0.134900	-0.306294
0.135000	-0.293959
0.135100	-0.280976
0.135200	-0.288117
0.135300	-0.329988
0.135400	-0.338103
0.135500	-0.375429
0.135600	-0.334532
0.135700	-0.518245
0.135800	-0.539019
0.135900	-0.609453
0.136000	-0.629902
0.136100	-0.527658
0.136200	-0.559143
0.136300	-0.534799
0.136400	-0.907744
0.136500	-0.885997
0.136600	-0.885997
0.136700	-0.674694
0.136800	-0.594198
0.136900	-0.707801
0.137000	-0.915209
0.137100	-1.053481
0.137200	-0.997328
0.137300	-0.845749
0.137400	-0.734742
0.137500	-0.804527
0.137600	-0.926245
0.137700	-1.008689
0.137800	-0.996355
0.137900	-1.004145
0.138000	-0.972660
0.138100	-1.042770
0.138200	-1.097300
0.138300	-1.153128
0.138400	-1.146312
0.138500	-1.143715
0.138600	-1.201815
0.138700	-1.227457
0.138800	-1.214149
0.138900	-1.186884
0.139000	-1.161567
0.139100	-1.180717
0.139200	-1.300164
0.139300	-1.343333
0.139400	-1.346254
0.139500	-1.227457
0.139600	-1.237844
0.139700	-1.300488
0.139800	-1.306980
0.139900	-1.330999
0.140000	-1.322235
0.140100	-1.322560
0.140200	-1.353071
0.140300	-1.383581
0.140400	-1.400460
0.140500	-1.423505
0.140600	-1.393643
0.140700	-1.428049
0.140800	-1.428698
0.140900	-1.448173
0.141000	-1.434541
0.141100	-1.456612
0.141200	-1.519906
0.141300	-1.521853
0.141400	-1.607219
0.141500	-1.792555
0.141600	-2.071697
0.141700	-2.094417
0.141800	-1.919143
0.141900	-1.754255
0.142000	-1.794503
0.142100	-1.996069
0.142200	-2.327144
0.142300	-2.409912
0.142400	-2.343373
0.142500	-2.194389
0.142600	-2.154465
0.142700	-2.299554
0.142800	-2.489760
0.142900	-2.599794
0.143000	-2.602715
0.143100	-2.561168
0.143200	-2.555975
0.143300	-2.613751
0.143400	-2.666982
0.143500	-2.685159
0.143600	-2.716968
0.143700	-2.708854
0.143800	-2.729627
0.143900	-2.813045
0.144000	-2.868224
0.144100	-2.868874
0.144200	-2.892568
0.144300	-2.902630
0.144400	-2.997734
0.144500	-3.048693
0.144600	-2.999032
0.144700	-2.862057
0.144800	-2.815966
0.144900	-2.910096
0.145000	-3.081801
0.145100	-3.226566
0.145200	-3.103548
0.145300	-2.929246
0.145400	-2.792596
0.145500	-2.848100
0.145600	-3.017533
0.145700	-3.210661
0.145800	-3.236628
0.145900	-3.106469
0.146000	-2.956511
0.146100	-2.907175
0.146200	-2.921456
0.146300	-2.946449
0.146400	-2.919509
0.146500	-2.883480
0.146600	-2.824406
0.146700	-2.726057
0.146800	-2.641340
0.146900	-2.506963
0.147000	-2.365444
0.147100	-2.284623
0.147200	-2.228470
0.147300	-2.188222
0.147400	-2.155114
0.147500	-1.991525
0.147600	-1.852928
0.147700	-1.811381
0.147800	-1.633510
0.147900	-1.642598
0.148000	-1.590340
0.148100	-1.503352
0.148200	-1.386178
0.148300	-1.297892
0.148400	-1.214149
0.148500	-1.157347
0.148600	-1.170655
0.148700	-1.139820
0.148800	-1.114178
0.148900	-1.123915
0.149000	-1.014531
0.149100	-1.017777
0.149200	-0.906121
0.149300	-0.959352
0.149400	-0.866846
0.149500	-0.967142
0.149600	-0.915858
0.149700	-0.880479
0.149800	-0.722407
0.149900	-0.497797
0.150000	-0.314084
0.150100	-0.471830
0.150200	-0.786999
0.150300	-0.806150
0.150400	-0.557844
0.150500	-0.418923
0.150600	-0.288117
0.150700	-0.368289
0.150800	-0.440346
0.150900	-0.553300
0.151000	-0.447487
0.151100	-0.288442
0.151200	-0.177435
0.151300	-0.176785
0.151400	-0.184900
0.151500	-0.222227
0.151600	-0.223850
0.151700	-0.254360
0.151800	-0.203401
0.151900	-0.215735
0.152000	-0.214437
0.152100	-0.214437
0.152200	-0.195936
0.152300	-0.285196
0.152400	-0.390036
0.152500	-0.381597
0.152600	-0.411133
0.152700	-0.325768
0.152800	-0.367964
0.152900	-0.357253
0.153000	-0.496174
0.153100	-0.727925
0.153200	-0.688002
0.153300	-0.631200
0.153400	-0.429310
0.153500	-0.485787
0.153600	-0.643209
0.153700	-0.901252
0.153800	-0.947018
0.153900	-0.911314
0.154000	-0.782780
0.154100	-0.750971
0.154200	-0.857758
0.154300	-0.974283
0.154400	-1.015830
0.154500	-1.034980
0.154600	-1.047963
0.154700	-1.068737
0.154800	-1.158646
0.154900	-1.220641
0.155000	-1.286856
0.155100	-1.260565
0.155200	-1.297892
0.155300	-1.372870
0.155400	-1.412145
0.155500	-1.405328
0.155600	-1.394293
0.155700	-1.404679
0.155800	-1.483553
0.155900	-1.599104
0.156000	-1.614359
0.156100	-1.606894
0.156200	-1.483228
0.156300	-1.528345
0.156400	-1.554961
0.156500	-1.538732
0.156600	-1.541004
0.156700	-1.522827
0.156800	-1.538732
0.156900	-1.538407
0.157000	-1.533214
0.157100	-1.528670
0.157200	-1.521853
0.157300	-1.551390
0.157400	-1.550092
0.157500	-1.548469
0.157600	-1.539381
0.157700	-1.558856
0.157800	-1.557233
0.157900	-1.604297
0.158000	-1.614359
0.158100	-1.671161
0.158200	-1.902589
0.158300	-2.099935
0.158400	-2.028527
0.158500	-1.805539
0.158600	-1.681223
0.158700	-1.764317
0.158800	-1.999639
0.158900	-2.224900
0.159000	-2.229119
0.159100	-2.069100
0.159200	-1.928231
0.159300	-1.972374
0.159400	-2.126551
0.159500	-2.286895
0.159600	-2.338179
0.159700	-2.279754
0.159800	-2.214189
0.159900	-2.253788
0.160000	-2.300528
0.160100	-2.303774
0.160200	-2.299879
0.160300	-2.284948
0.160400	-2.285272
0.160500	-2.315459
0.160600	-2.378752
0.160700	-2.373234
0.160800	-2.321301
0.160900	-2.321950
0.161000	-2.293387
0.161100	-2.357979
0.161200	-2.310590
0.161300	-2.238532
0.161400	-2.056117
0.161500	-2.098962
0.161600	-2.246322
0.161700	-2.422571
0.161800	-2.501769
0.161900	-2.348891
0.162000	-2.163229
0.162100	-2.085978
0.162200	-2.182055
0.162300	-2.377129
0.162400	-2.504042
0.162500	-2.444318
0.162600	-2.306370
0.162700	-2.214838
0.162800	-2.217434
0.162900	-2.260279
0.163000	-2.253139
0.163100	-2.227172
0.163200	-2.180107
0.163300	-2.132394
0.163400	-2.095716
0.163500	-2.039238
0.163600	-1.955171
0.163700	-1.830207
0.163800	-1.763343
0.163900	-1.731534
0.164000	-1.719524
0.164100	-1.662073
0.164200	-1.433892
0.164300	-1.377090
0.164400	-1.309252
0.164500	-1.222913
0.164600	-1.174226
0.164700	-1.148259
0.164800	-1.047963
0.164900	-0.966818
0.165000	-0.870417
0.165100	-0.837634
0.165200	-0.810694
0.165300	-0.827247
0.165400	-0.808097
0.165500	-0.820107
0.165600	-0.826598
0.165700	-0.788298
0.165800	-0.805176
0.165900	-0.783429
0.166000	-0.768498
0.166100	-0.836985
0.166200	-0.803228
0.166300	-0.899305
0.166400	-0.749023
0.166500	-0.666579
0.166600	-0.347191
0.166700	-0.397176
0.166800	-0.592899
0.166900	-0.911963
0.167000	-0.842503
0.167100	-0.628928
0.167200	-0.404317
0.167300	-0.376079
0.167400	-0.517921
0.167500	-0.724355
0.167600	-0.730197
0.167700	-0.628928
0.167800	-0.446837
0.167900	-0.456900
0.168000	-0.435153
0.168100	-0.560117
0.168200	-0.525711
0.168300	-0.511105
0.168400	-0.512078
0.168500	-0.477348
0.168600	-0.524413
0.168700	-0.568556
0.168800	-0.576021
0.168900	-0.519544
0.169000	-0.688002
0.169100	-0.702283
0.169200	-0.742207
0.169300	-0.762331
0.169400	-0.675019
0.169500	-0.673396
0.169600	-0.641262
0.169700	-0.892164
0.169800	-0.979801
0.169900	-0.946694
0.170000	-0.749997
0.170100	-0.568880
0.170200	-0.603286
0.170300	-0.805176
0.170400	-1.042445
0.170500	-1.004794
0.170600	-0.833090
0.170700	-0.642560
0.170800	-0.616594
0.170900	-0.785376
0.171000	-0.894111
0.171100	-0.875286
0.171200	-0.830169
0.171300	-0.719811
0.171400	-0.768174
0.171500	-0.803878
0.171600	-0.871391
0.171700	-0.861978
0.171800	-0.818159
0.171900	-0.853214
0.172000	-0.889892
0.172100	-0.915534
0.172200	-0.887295
0.172300	-0.869443
0.172400	-0.884374
0.172500	-0.987591
0.172600	-1.073605
0.172700	-1.057052
0.172800	-1.028164
0.172900	-0.925920
0.173000	-0.973634
0.173100	-0.981424
0.173200	-0.974932
0.173300	-0.998627
0.173400	-1.004145
0.173500	-1.005768
0.173600	-1.025892
0.173700	-1.048937
0.173800	-1.024593
0.173900	-1.057376
0.174000	-1.046990
0.174100	-1.060947
0.174200	-1.071009
0.174300	-1.068737
0.174400	-1.107686
0.174500	-1.157672
0.174600	-1.207333
0.174700	-1.241090
0.174800	-1.359238
0.174900	-1.660126
0.175000	-1.736078
0.175100	-1.611114
0.175200	-1.377739
0.175300	-1.318340
0.175400	-1.534512
0.175500	-1.825338
0.175600	-1.999964
0.175700	-1.959391
0.175800	-1.817873
0.175900	-1.673433
0.176000	-1.729262
0.176100	-1.938942
0.176200	-2.132069
0.176300	-2.126876
0.176400	-2.093119
0.176500	-2.062933
0.176600	-2.085978
0.176700	-2.136289
0.176800	-2.164852
0.176900	-2.212890
0.177000	-2.186274
0.177100	-2.173940
0.177200	-2.218408
0.177300	-2.283325
0.177400	-2.313836
0.177500	-2.234962
0.177600	-2.246647
0.177700	-2.262551
0.177800	-2.315459
0.177900	-2.311239
0.178000	-2.176862
0.178100	-2.040537
0.178200	-2.093768
0.178300	-2.289816
0.178400	-2.497874
0.178500	-2.503392
0.178600	-2.331363
0.178700	-2.121682
0.178800	-2.105129
0.178900	-2.275210
0.179000	-2.473855
0.179100	-2.550132
0.179200	-2.453082
0.179300	-2.299229
0.179400	-2.248594
0.179500	-2.268394
0.179600	-2.323573
0.179700	-2.364795
0.179800	-2.334284
0.179900	-2.325521
0.180000	-2.251516
0.180100	-2.235286
0.180200	-2.128823
0.180300	-2.024957
0.180400	-1.961663
0.180500	-1.936346
0.180600	-1.927257
0.180700	-1.921415
0.180800	-1.842216
0.180900	-1.714331
0.181000	-1.668565
0.181100	-1.499782
0.181200	-1.519581
0.181300	-1.485176
0.181400	-1.445901
0.181500	-1.341061
0.181600	-1.272899
0.181700	-1.177796
0.181800	-1.121643
0.181900	-1.128135
0.182000	-1.145013
0.182100	-1.123266
0.182200	-1.104116
0.182300	-1.092431
0.182400	-1.034655
0.182500	-1.064517
0.182600	-1.003820
0.182700	-1.082044
0.182800	-1.001873
0.182900	-1.081720
0.183000	-0.982073
0.183100	-0.914560
0.183200	-0.752918
0.183300	-0.446837
0.183400	-0.597768
0.183500	-0.827897
0.183600	-1.045367
0.183700	-0.850293
0.183800	-0.579591
0.183900	-0.454627
0.184000	-0.454952
0.184100	-0.643209
0.184200	-0.746427
0.184300	-0.760059
0.184400	-0.601338
0.184500	-0.445539
0.184600	-0.377702
0.184700	-0.363095
0.184800	-0.463391
0.184900	-0.443267
0.185000	-0.472479
0.185100	-0.428336
0.185200	-0.406589
0.185300	-0.399773
0.185400	-0.416651
0.185500	-0.404966
0.185600	-0.421845
0.185700	-0.595821
0.185800	-0.571152
0.185900	-0.646780
0.186000	-0.614971
0.186100	-0.558169
0.186200	-0.552002
0.186300	-0.589004
0.186400	-0.910016
0.186500	-0.933386
0.186600	-0.887620
0.186700	-0.701634
0.186800	-0.579267
0.186900	-0.755515
0.187000	-0.975257
0.187100	-1.136574
0.187200	-1.070684
0.187300	-0.921376
0.187400	-0.809395
0.187500	-0.876259
0.187600	-1.001548
0.187700	-1.090159
0.187800	-1.053481
0.187900	-1.072307
0.188000	-1.014207
0.188100	-1.094379
0.188200	-1.120345
0.188300	-1.201166
0.188400	-1.168708
0.188500	-1.171954
0.188600	-1.217395
0.188700	-1.249204
0.188800	-1.224211
0.188900	-1.197596
0.189000	-1.196297
0.189100	-1.232975
0.189200	-1.341061
0.189300	-1.370598
0.189400	-1.376765
0.189500	-1.307954
0.189600	-1.248555
0.189700	-1.309901
0.189800	-1.301137
0.189900	-1.291725
0.190000	-1.293997
0.190100	-1.292698
0.190200	-1.301462
0.190300	-1.313147
0.190400	-1.357615
0.190500	-1.338464
0.190600	-1.388775
0.190700	-1.409223
0.190800	-1.424479
0.190900	-1.433892
0.191000	-1.429347
0.191100	-1.454016
0.191200	-1.508546
0.191300	-1.550741
0.191400	-1.634159
0.191500	-1.826961
0.191600	-2.110322
0.191700	-2.141807
0.191800	-1.955820
0.191900	-1.811381
0.192000	-1.836374
0.192100	-2.065854
0.192200	-2.329740
0.192300	-2.454056
0.192400	-2.379401
0.192500	-2.211916
0.192600	-2.163229
0.192700	-2.283974
0.192800	-2.436528
0.192900	-2.539746
0.193000	-2.540070
0.193100	-2.523517
0.193200	-2.477750
0.193300	-2.493979
0.193400	-2.541044
0.193500	-2.531956
0.193600	-2.570581
0.193700	-2.551431
0.193800	-2.597522
0.193900	-2.626734
0.194000	-2.650429
0.194100	-2.635822
0.194200	-2.612452
0.194300	-2.602390
0.194400	-2.641340
0.194500	-2.638419
0.194600	-2.565063
0.194700	-2.405693
0.194800	-2.294685
0.194900	-2.404070
0.195000	-2.575450
0.195100	-2.704310
0.195200	-2.606610
0.195300	-2.317731
0.195400	-2.172967
0.195500	-2.229769
0.195600	-2.437826
0.195700	-2.577397
0.195800	-2.535202
0.195900	-2.394981
0.196000	-2.283325
0.196100	-2.244699
0.196200	-2.245998
0.196300	-2.258007
0.196400	-2.245349
0.196500	-2.216461
0.196600	-2.139210
0.196700	-2.054169
0.196800	-1.926283
0.196900	-1.799696
0.197000	-1.668240
0.197100	-1.563400
0.197200	-1.534188
0.197300	-1.495238
0.197400	-1.468622
0.197500	-1.299839
0.197600	-1.189806
0.197700	-1.161567
0.197800	-0.954159
0.197900	-0.963572
0.198000	-0.913586
0.198100	-0.806474
0.198200	-0.711047
0.198300	-0.594198
0.198400	-0.509806
0.198500	-0.453329
0.198600	-0.453329
0.198700	-0.452355
0.198800	-0.428985
0.198900	-0.478646
0.199000	-0.410484
0.199100	-0.403993
0.199200	-0.346866
0.199300	-0.369587
0.199400	-0.357577
0.199500	-0.435153
0.199600	-0.491305
0.199700	-0.400098
0.199800	-0.277406
0.199900	-0.002161
0.200000	0.037763
0.200100	-0.027802
0.200200	-0.434828
0.200300	-0.472804
0.200400	-0.282924
0.200500	-0.091096
0.200600	0.005305
0.200700	-0.027153
0.200800	-0.163478
0.200900	-0.295907
0.201000	-0.222876
0.201100	-0.094666
0.201200	0.047176
0.201300	0.106250
0.201400	0.004331
0.201500	-0.035268
0.201600	-0.032996
0.201700	-0.020013
0.201800	0.002708
0.201900	-0.014170
0.202000	-0.020662
0.202100	-0.030724
0.202200	-0.055067
0.202300	-0.133616
0.202400	-0.267993
0.202500	-0.233912
0.202600	-0.318628
0.202700	-0.315382
0.202800	-0.286170
0.202900	-0.345568
0.203000	-0.476050
0.203100	-0.804202
0.203200	-0.827572
0.203300	-0.712670
0.203400	-0.572775
0.203500	-0.572775
0.203600	-0.781157
0.203700	-1.108336
0.203800	-1.182016
0.203900	-1.108336
0.204000	-0.925271
0.204100	-0.930789
0.204200	-1.087562
0.204300	-1.222913
0.204400	-1.251801
0.204500	-1.244985
0.204600	-1.266732
0.204700	-1.295619
0.204800	-1.380335
0.204900	-1.437462
0.205000	-1.454989
0.205100	-1.417338
0.205200	-1.436488
0.205300	-1.488746
0.205400	-1.513414
0.205500	-1.496536
0.205600	-1.472841
0.205700	-1.440383
0.205800	-1.490694
0.205900	-1.602674
0.206000	-1.599429
0.206100	-1.590989
0.206200	-1.443629
0.206300	-1.451744
0.206400	-1.484851
0.206500	-1.478684
0.206600	-1.490694
0.206700	-1.496211
0.206800	-1.464727
0.206900	-1.461157
0.207000	-1.476087
0.207100	-1.493290
0.207200	-1.518932
0.207300	-1.514713
0.207400	-1.538083
0.207500	-1.540679
0.207600	-1.578331
0.207700	-1.592288
0.207800	-1.609815
0.207900	-1.604947
0.208000	-1.634484
0.208100	-1.744517
0.208200	-1.928880
0.208300	-2.130122
0.208400	-2.033720
0.208500	-1.846436
0.208600	-1.739324
0.208700	-1.836699
0.208800	-2.051572
0.208900	-2.246647
0.209000	-2.295334
0.209100	-2.163229
0.209200	-2.048327
0.209300	-1.991849
0.209400	-2.153167
0.209500	-2.315134
0.209600	-2.398876
0.209700	-2.382647
0.209800	-2.350838
0.209900	-2.345320
0.210000	-2.338829
0.210100	-2.391736
0.210200	-2.422246
0.210300	-2.408939
0.210400	-2.415755
0.210500	-2.426141
0.210600	-2.457301
0.210700	-2.530657
0.210800	-2.503392
0.210900	-2.497550
0.211000	-2.530008
0.211100	-2.555975
0.211200	-2.609531
0.211300	-2.501445
0.211400	-2.346619
0.211500	-2.318055
0.211600	-2.495927
0.211700	-2.666009
0.211800	-2.705283
0.211900	-2.552404
0.212000	-2.316108
0.212100	-2.228146
0.212200	-2.336881
0.212300	-2.539746
0.212400	-2.647183
0.212500	-2.581617
0.212600	-2.422896
0.212700	-2.344346
0.212800	-2.336881
0.212900	-2.360251
0.213000	-2.382647
0.213100	-2.340776
0.213200	-2.303449
0.213300	-2.249244
0.213400	-2.218408
0.213500	-2.096689
0.213600	-1.958417
0.213700	-1.852279
0.213800	-1.799696
0.213900	-1.788985
0.214000	-1.780870
0.214100	-1.737701
0.214200	-1.573462
0.214300	-1.505624
0.214400	-1.421557
0.214500	-1.351772
0.214600	-1.363133
0.214700	-1.327429
0.214800	-1.262188
0.214900	-1.213825
0.215000	-1.130083
0.215100	-1.108985
0.215200	-1.069386
0.215300	-1.144364
0.215400	-1.108985
0.215500	-1.165462
0.215600	-1.168059
0.215700	-1.178121
0.215800	-1.117424
0.215900	-1.171304
0.216000	-1.102493
0.216100	-1.200841
0.216200	-1.123591
0.216300	-1.173901
0.216400	-1.036603
0.216500	-0.849644
0.216600	-0.592250
0.216700	-0.584136
0.216800	-0.848021
0.216900	-0.994083
0.217000	-0.946694
0.217100	-0.674369
0.217200	-0.536747
0.217300	-0.496823
0.217400	-0.638341
0.217500	-0.846073
0.217600	-0.824326
0.217700	-0.784403
0.217800	-0.622761
0.217900	-0.511429
0.218000	-0.495525
0.218100	-0.533501
0.218200	-0.530580
0.218300	-0.576346
0.218400	-0.545186
0.218500	-0.501692
0.218600	-0.508508
0.218700	-0.452031
0.218800	-0.421520
0.218900	-0.460145
0.219000	-0.431258
0.219100	-0.496174
0.219200	-0.491954
0.219300	-0.575372
0.219400	-0.467286
0.219500	-0.526685
0.219600	-0.468260
0.219700	-0.684756
0.219800	-0.819457
0.219900	-0.762331
0.220000	-0.535124
0.220100	-0.393281
0.220200	-0.432556
0.220300	-0.632498
0.220400	-0.819457
0.220500	-0.763629
0.220600	-0.586083
0.220700	-0.410809
0.220800	-0.457549
0.220900	-0.584136
0.221000	-0.659439
0.221100	-0.606532
0.221200	-0.602961
0.221300	-0.568556
0.221400	-0.657491
0.221500	-0.733443
0.221600	-0.815887
0.221700	-0.813940
0.221800	-0.783429
0.221900	-0.860679
0.222000	-0.954159
0.222100	-1.017453
0.222200	-0.999276
0.222300	-0.996355
0.222400	-1.038550
0.222500	-1.147610
0.222600	-1.282312
0.222700	-1.309577
0.222800	-1.275820
0.222900	-1.177796
0.223000	-1.242063
0.223100	-1.281013
0.223200	-1.271276
0.223300	-1.263486
0.223400	-1.253424
0.223500	-1.247257
0.223600	-1.234273
0.223700	-1.232651
0.223800	-1.216421
0.223900	-1.204412
0.224000	-1.226159
0.224100	-1.163190
0.224200	-1.167085
0.224300	-1.116126
0.224400	-1.154102
0.224500	-1.147935
0.224600	-1.142417
0.224700	-1.130407
0.224800	-1.208307
0.224900	-1.522827
0.225000	-1.573137
0.225100	-1.482904
0.225200	-1.267705
0.225300	-1.189481
0.225400	-1.319639
0.225500	-1.545223
0.225600	-1.758150
0.225700	-1.701672
0.225800	-1.578655
0.225900	-1.454016
0.226000	-1.497834
0.226100	-1.643572
0.226200	-1.771782
0.226300	-1.818522
0.226400	-1.764317
0.226500	-1.743868
0.226600	-1.766589
0.226700	-1.803591
0.226800	-1.867209
0.226900	-1.894799
0.227000	-1.899018
0.227100	-1.892851
0.227200	-1.906159
0.227300	-1.926933
0.227400	-2.036317
0.227500	-2.000613
0.227600	-1.985033
0.227700	-2.010026
0.227800	-2.043133
0.227900	-2.050599
0.228000	-1.932126
0.228100	-1.847085
0.228200	-1.906808
0.228300	-2.150246
0.228400	-2.303774
0.228500	-2.347592
0.228600	-2.120059
0.228700	-1.949004
0.228800	-1.966856
0.228900	-2.191792
0.229000	-2.429712
0.229100	-2.532280
0.229200	-2.452108
0.229300	-2.293062
0.229400	-2.275210
0.229500	-2.339153
0.229600	-2.433607
0.229700	-2.438151
0.229800	-2.419325
0.229900	-2.387516
0.230000	-2.350514
0.230100	-2.359926
0.230200	-2.253139
0.230300	-2.122332
0.230400	-2.033396
0.230500	-2.020088
0.230600	-2.018790
0.230700	-2.031773
0.230800	-1.933100
0.230900	-1.796775
0.231000	-1.774703
0.231100	-1.579954
0.231200	-1.604947
0.231300	-1.569567
0.231400	-1.503352
0.231500	-1.402083
0.231600	-1.326130
0.231700	-1.237519
0.231800	-1.179744
0.231900	-1.187858
0.232000	-1.219343
0.232100	-1.202464
0.232200	-1.192727
0.232300	-1.187858
0.232400	-1.118398
0.232500	-1.133653
0.232600	-1.062245
0.232700	-1.147935
0.232800	-1.049586
0.232900	-1.179094
0.233000	-1.079772
0.233100	-1.000899
0.233200	-0.729224
0.233300	-0.545835
0.233400	-0.550054
0.233500	-0.878531
0.233600	-1.034331
0.233700	-0.899305
0.233800	-0.619190
0.233900	-0.519219
0.234000	-0.441644
0.234100	-0.609128
0.234200	-0.730522
0.234300	-0.765901
0.234400	-0.687677
0.234500	-0.554274
0.234600	-0.528632
0.234700	-0.603935
0.234800	-0.659114
0.234900	-0.719162
0.235000	-0.738961
0.235100	-0.730522
0.235200	-0.730197
0.235300	-0.817185
0.235400	-0.869768
0.235500	-0.959677
0.235600	-1.092756
0.235700	-1.199543
0.235800	-1.186560
0.235900	-1.243362
0.236000	-1.346579
0.236100	-1.272574
0.236200	-1.339763
0.236300	-1.381309
0.236400	-1.740298
0.236500	-1.795477
0.236600	-1.723419
0.236700	-1.520880
0.236800	-1.442655
0.236900	-1.549443
0.237000	-1.818847
0.237100	-1.963935
0.237200	-1.876947
0.237300	-1.688364
0.237400	-1.569892
0.237500	-1.628316
0.237600	-1.755877
0.237700	-1.852928
0.237800	-1.791582
0.237900	-1.754579
0.238000	-1.640651
0.238100	-1.692584
0.238200	-1.728613
0.238300	-1.750684
0.238400	-1.670188
0.238500	-1.642598
0.238600	-1.644546
0.238700	-1.632211
0.238800	-1.590016
0.238900	-1.502703
0.239000	-1.456612
0.239100	-1.449796
0.239200	-1.540679
0.239300	-1.553013
0.239400	-1.516985
0.239500	-1.381309
0.239600	-1.321911
0.239700	-1.338789
0.239800	-1.310226
0.239900	-1.267705
0.240000	-1.235896
0.240100	-1.212851
0.240200	-1.195324
0.240300	-1.190455
0.240400	-1.133004
0.240500	-1.111581
0.240600	-1.091782
0.240700	-1.076851
0.240800	-1.081720
0.240900	-1.044717
0.241000	-1.028813
0.241100	-1.004145
0.241200	-1.034331
0.241300	-1.012259
0.241400	-1.038550
0.241500	-1.195324
0.241600	-1.417338
0.241700	-1.411495
0.241800	-1.195648
0.241900	-1.007066
0.242000	-0.981749
0.242100	-1.191753
0.242200	-1.451419
0.242300	-1.540355
0.242400	-1.461806
0.242500	-1.318016
0.242600	-1.274522
0.242700	-1.360211
0.242800	-1.547820
0.242900	-1.659801
0.243000	-1.648765
0.243100	-1.629939
0.243200	-1.597157
0.243300	-1.610789
0.243400	-1.666617
0.243500	-1.735429
0.243600	-1.770159
0.243700	-1.814627
0.243800	-1.825663
0.243900	-1.838646
0.244000	-1.919792
0.244100	-1.973673
0.244200	-2.000288
0.244300	-2.018140
0.244400	-2.068126
0.244500	-2.103506
0.244600	-2.059687
0.244700	-1.895448
0.244800	-1.837672
0.244900	-1.975945
0.245000	-2.220356
0.245100	-2.339802
0.245200	-2.328766
0.245300	-2.134666
0.245400	-2.001262
0.245500	-2.075916
0.245600	-2.313186
0.245700	-2.493655
0.245800	-2.511832
0.245900	-2.383296
0.246000	-2.275859
0.246100	-2.288194
0.246200	-2.337530
0.246300	-2.395306
0.246400	-2.401149
0.246500	-2.375182
0.246600	-2.371611
0.246700	-2.364146
0.246800	-2.308318
0.246900	-2.207048
0.247000	-2.110971
0.247100	-2.054818
0.247200	-2.034045
0.247300	-2.047677
0.247400	-2.026255
0.247500	-1.887658
0.247600	-1.763018
0.247700	-1.660775
0.247800	-1.536460
0.247900	-1.514713
0.248000	-1.465701
0.248100	-1.416040
0.248200	-1.314770
0.248300	-1.210254
0.248400	-1.103467
0.248500	-1.071982
0.248600	-1.030111
0.248700	-1.087887
0.248800	-1.034006
0.248900	-1.083343
0.249000	-1.003496
0.249100	-0.960975
0.249200	-0.964870
0.249300	-0.938579
0.249400	-1.018751
0.249500	-0.978178
0.249600	-1.127810
0.249700	-0.945071
0.249800	-1.024269
0.249900	-0.581214
0.250000	-0.649701
0.250100	-0.839582
0.250200	-1.146961
0.250300	-1.187534
0.250400	-0.997978
0.250500	-0.726952
0.250600	-0.702283
0.250700	-0.738312
0.250800	-0.906445
0.250900	-0.956107
0.251000	-0.907744
0.251100	-0.748049
0.251200	-0.588680
0.251300	-0.558494
0.251400	-0.527983
0.251500	-0.552002
0.251600	-0.581539
0.251700	-0.559143
0.251800	-0.516298
0.251900	-0.489358
0.252000	-0.433854
0.252100	-0.391983
0.252200	-0.396527
0.252300	-0.425415
0.252400	-0.501367
0.252500	-0.423468
0.252600	-0.458847
0.252700	-0.335831
0.252800	-0.345243
0.252900	-0.277730
0.253000	-0.373157
0.253100	-0.619840
0.253200	-0.528632
0.253300	-0.359850
0.253400	-0.122580
0.253500	-0.124852
0.253600	-0.285845
0.253700	-0.540966
0.253800	-0.562389
0.253900	-0.422169
0.254000	-0.224499
0.254100	-0.201129
0.254200	-0.295582
0.254300	-0.399773
0.254400	-0.368613
0.254500	-0.284222
0.254600	-0.232938
0.254700	-0.207296
0.254800	-0.286494
0.254900	-0.314408
0.255000	-0.311162
0.255100	-0.285845
0.255200	-0.318952
0.255300	-0.402045
0.255400	-0.412432
0.255500	-0.373482
0.255600	-0.376079
0.255700	-0.363095
0.255800	-0.404317
0.255900	-0.539019
0.256000	-0.541940
0.256100	-0.491954
0.256200	-0.388737
0.256300	-0.440670
0.256400	-0.494226
0.256500	-0.504288
0.256600	-0.549081
0.256700	-0.552651
0.256800	-0.607505
0.256900	-0.648403
0.257000	-0.736689
0.257100	-0.805825
0.257200	-0.862627
0.257300	-0.943772
0.257400	-1.039849
0.257500	-1.089510
0.257600	-1.171304
0.257700	-1.281662
0.257800	-1.392345
0.257900	-1.484526
0.258000	-1.600727
0.258100	-1.721796
0.258200	-2.023009
0.258300	-2.295659
0.258400	-2.318055
0.258500	-2.144403
0.258600	-2.133043
0.258700	-2.184976
0.258800	-2.540395
0.258900	-2.742611
0.259000	-2.854917
0.259100	-2.739689
0.259200	-2.637121
0.259300	-2.638095
0.259400	-2.793246
0.259500	-2.972741
0.259600	-3.075958
0.259700	-3.016559
0.259800	-2.964951
0.259900	-2.963652
0.260000	-2.947098
0.260100	-2.928922
0.260200	-2.884454
0.260300	-2.813694
0.260400	-2.744558
0.260500	-2.653999
0.260600	-2.649130
0.260700	-2.631603
0.260800	-2.559221
0.260900	-2.468013
0.261000	-2.448213
0.261100	-2.481321
0.261200	-2.470934
0.261300	-2.370962
0.261400	-2.225224
0.261500	-2.225549
0.261600	-2.415430
0.261700	-2.638744
0.261800	-2.725408
0.261900	-2.608233
0.262000	-2.380051
0.262100	-2.376805
0.262200	-2.508910
0.262300	-2.785780
0.262400	-2.875690
0.262500	-2.819537
0.262600	-2.666333
0.262700	-2.606285
0.262800	-2.653025
0.262900	-2.688730
0.263000	-2.720214
0.263100	-2.718916
0.263200	-2.703985
0.263300	-2.708529
0.263400	-2.673150
0.263500	-2.620892
0.263600	-2.491707
0.263700	-2.373884
0.263800	-2.338179
0.263900	-2.322924
0.264000	-2.329091
0.264100	-2.271964
0.264200	-2.104155
0.264300	-2.041510
0.264400	-1.860718
0.264500	-1.876947
0.264600	-1.872403
0.264700	-1.833453
0.264800	-1.771782
0.264900	-1.690636
0.265000	-1.609815
0.265100	-1.570865
0.265200	-1.581252
0.265300	-1.626694
0.265400	-1.629615
0.265500	-1.659801
0.265600	-1.755877
0.265700	-1.706865
0.265800	-1.763343
0.265900	-1.708164
0.266000	-1.764317
0.266100	-1.777949
0.266200	-1.787687
0.266300	-1.823391
0.266400	-1.731209
0.266500	-1.527371
0.266600	-1.241739
0.266700	-1.160269
0.266800	-1.372221
0.266900	-1.522178
0.267000	-1.528345
0.267100	-1.244011
0.267200	-1.081395
0.267300	-0.917806
0.267400	-1.047639
0.267500	-1.107362
0.267600	-1.140469
0.267700	-1.014856
0.267800	-0.835037
0.267900	-0.695467
0.268000	-0.614646
0.268100	-0.663334
0.268200	-0.624059
0.268300	-0.643534
0.268400	-0.552002
0.268500	-0.504288
0.268600	-0.512403
0.268700	-0.469883
0.268800	-0.480269
0.268900	-0.504288
0.269000	-0.553300
0.269100	-0.595171
0.269200	-0.655868
0.269300	-0.660737
0.269400	-0.654245
0.269500	-0.598417
0.269600	-0.663334
0.269700	-0.879505
0.269800	-1.174875
0.269900	-1.152479
0.270000	-1.022646
0.270100	-0.922025
0.270200	-1.016479
0.270300	-1.303085
0.270400	-1.552689
0.270500	-1.561128
0.270600	-1.442980
0.270700	-1.291400
0.270800	-1.306006
0.270900	-1.443629
0.271000	-1.554636
0.271100	-1.526398
0.271200	-1.513090
0.271300	-1.466350
0.271400	-1.513414
0.271500	-1.548794
0.271600	-1.562426
0.271700	-1.511142
0.271800	-1.461481
0.271900	-1.473166
0.272000	-1.473166
0.272100	-1.468622
0.272200	-1.391047
0.272300	-1.346903
0.272400	-1.291400
0.272500	-1.356966
0.272600	-1.417338
0.272700	-1.391371
0.272800	-1.313472
0.272900	-1.143066
0.273000	-1.150531
0.273100	-1.150207
0.273200	-1.082369
0.273300	-1.031734
0.273400	-0.966493
0.273500	-0.906121
0.273600	-0.864250
0.273700	-0.811343
0.273800	-0.779858
0.273900	-0.732470
0.274000	-0.724030
0.274100	-0.720460
0.274200	-0.725004
0.274300	-0.748699
0.274400	-0.791868
0.274500	-0.839257
0.274600	-0.930789
0.274700	-0.978503
0.274800	-1.170331
0.274900	-1.420908
0.275000	-1.581577
0.275100	-1.458560
0.275200	-1.272899
0.275300	-1.208307
0.275400	-1.324507
0.275500	-1.565997
0.275600	-1.714331
0.275700	-1.664670
0.275800	-1.470894
0.275900	-1.342359
0.276000	-1.353071
0.276100	-1.500756
0.276200	-1.579629
0.276300	-1.632536
0.276400	-1.578980
0.276500	-1.519257
0.276600	-1.476087
0.276700	-1.457911
0.276800	-1.463753
0.276900	-1.472192
0.277000	-1.446226
0.277100	-1.457262
0.277200	-1.459858
0.277300	-1.509519
0.277400	-1.508221
0.277500	-1.453367
0.277600	-1.426102
0.277700	-1.463104
0.277800	-1.506273
0.277900	-1.508221
0.278000	-1.357939
0.278100	-1.267056
0.278200	-1.339763
0.278300	-1.570541
0.278400	-1.714331
0.278500	-1.751658
0.278600	-1.581901
0.278700	-1.408250
0.278800	-1.428698
0.278900	-1.615009
0.279000	-1.850331
0.279100	-1.929205
0.279200	-1.870780
0.279300	-1.788336
0.279400	-1.784765
0.279500	-1.846111
0.279600	-1.928231
0.279700	-1.971725
0.279800	-2.011973
0.279900	-2.043782
0.280000	-2.053195
0.280100	-2.070723
0.280200	-2.026255
0.280300	-1.945434
0.280400	-1.886035
0.280500	-1.904861
0.280600	-1.953548
0.280700	-1.996393
0.280800	-1.949329
0.280900	-1.821768
0.281000	-1.808784
0.281100	-1.644546
0.281200	-1.719200
0.281300	-1.698426
0.281400	-1.678302
0.281500	-1.569567
0.281600	-1.509195
0.281700	-1.402083
0.281800	-1.355343
0.281900	-1.368326
0.282000	-1.356316
0.282100	-1.401109
0.282200	-1.370598
0.282300	-1.405328
0.282400	-1.315744
0.282500	-1.316717
0.282600	-1.303085
0.282700	-1.312173
0.282800	-1.387152
0.282900	-1.407925
0.283000	-1.386178
0.283100	-1.340412
0.283200	-1.035305
0.283300	-0.935009
0.283400	-0.890216
0.283500	-1.388775
0.283600	-1.404679
0.283700	-1.405328
0.283800	-1.113204
0.283900	-1.021672
0.284000	-0.994083
0.284100	-1.128460
0.284200	-1.261863
0.284300	-1.233949
0.284400	-1.094379
0.284500	-0.956756
0.284600	-0.930140
0.284700	-0.974283
0.284800	-1.005768
0.284900	-1.018102
0.285000	-1.035629
0.285100	-0.979476
0.285200	-0.989214
0.285300	-0.982722
0.285400	-0.943772
0.285500	-0.933386
0.285600	-0.968441
0.285700	-1.046016
0.285800	-1.004794
0.285900	-1.089185
0.286000	-1.049262
0.286100	-1.064842
0.286200	-0.944746
0.286300	-1.000899
0.286400	-1.258942
0.286500	-1.297892
0.286600	-1.199219
0.286700	-0.982073
0.286800	-0.935333
0.286900	-1.009987
0.287000	-1.284584
0.287100	-1.407925
0.287200	-1.346254
0.287300	-1.181042
0.287400	-1.122942
0.287500	-1.195648
0.287600	-1.373519
0.287700	-1.483553
0.287800	-1.475438
0.287900	-1.534188
0.288000	-1.533538
0.288100	-1.682846
0.288200	-1.776651
0.288300	-1.860069
0.288400	-1.857796
0.288500	-1.877921
0.288600	-1.974322
0.288700	-2.042484
0.288800	-2.076241
0.288900	-2.090522
0.289000	-2.108699
0.289100	-2.180432
0.289200	-2.384919
0.289300	-2.502419
0.289400	-2.547211
0.289500	-2.437502
0.289600	-2.501120
0.289700	-2.586810
0.289800	-2.651727
0.289900	-2.680290
0.290000	-2.694248
0.290100	-2.716319
0.290200	-2.740988
0.290300	-2.749427
0.290400	-2.759164
0.290500	-2.714047
0.290600	-2.694897
0.290700	-2.647832
0.290800	-2.620242
0.290900	-2.613102
0.291000	-2.565063
0.291100	-2.557598
0.291200	-2.498848
0.291300	-2.479373
0.291400	-2.423869
0.291500	-2.573827
0.291600	-2.728004
0.291700	-2.676071
0.291800	-2.433282
0.291900	-2.130122
0.292000	-2.124928
0.292100	-2.238532
0.292200	-2.462819
0.292300	-2.511507
0.292400	-2.408614
0.292500	-2.192117
0.292600	-2.117463
0.292700	-2.187573
0.292800	-2.349215
0.292900	-2.468986
0.293000	-2.468013
0.293100	-2.433931
0.293200	-2.393034
0.293300	-2.379077
0.293400	-2.414781
0.293500	-2.427440
0.293600	-2.389464
0.293700	-2.332986
0.293800	-2.299879
0.293900	-2.291764
0.294000	-2.293711
0.294100	-2.294685
0.294200	-2.251516
0.294300	-2.239831
0.294400	-2.279105
0.294500	-2.307019
0.294600	-2.314485
0.294700	-2.173291
0.294800	-2.195038
0.294900	-2.343697
0.295000	-2.638095
0.295100	-2.815642
0.295200	-2.859461
0.295300	-2.714372
0.295400	-2.647183
0.295500	-2.751050
0.295600	-3.053562
0.295700	-3.279797
0.295800	-3.323941
0.295900	-3.218775
0.296000	-3.123348
0.296100	-3.139577
0.296200	-3.201897
0.296300	-3.255778
0.296400	-3.245716
0.296500	-3.192484
0.296600	-3.144121
0.296700	-3.115882
0.296800	-3.101276
0.296900	-3.027271
0.297000	-2.906525
0.297100	-2.849399
0.297200	-2.834792
0.297300	-2.859461
0.297400	-2.864329
0.297500	-2.743584
0.297600	-2.645560
0.297700	-2.623164
0.297800	-2.483593
0.297900	-2.508586
0.298000	-2.471583
0.298100	-2.376480
0.298200	-2.274886
0.298300	-2.126551
0.298400	-2.001587
0.298500	-1.911353
0.298600	-1.883439
0.298700	-1.784116
0.298800	-1.728613
0.298900	-1.608517
0.299000	-1.537109
0.299100	-1.338464
0.299200	-1.302760
0.299300	-1.168383
0.299400	-1.139495
0.299500	-1.010961
0.299600	-0.994732
0.299700	-0.805500
0.299800	-0.658465
0.299900	-0.280652
0.300000	-0.082981
0.300100	-0.194637
0.300200	-0.453978
0.300300	-0.428985
0.300400	-0.236508
0.300500	0.034193
0.300600	0.097486
0.300700	0.149095
0.300800	-0.053120
0.300900	-0.149845
0.301000	-0.125177
0.301100	0.004980
0.301200	0.090670
0.301300	0.126698
0.301400	0.098784
0.301500	0.063080
0.301600	0.035491
0.301700	-0.003783
0.301800	0.028350
0.301900	0.014393
0.302000	0.012770
0.302100	0.008875
0.302200	-0.027153
0.302300	-0.094017
0.302400	-0.203401
0.302500	-0.167373
0.302600	-0.251115
0.302700	-0.187497
0.302800	-0.147573
0.302900	-0.175163
0.303000	-0.223850
0.303100	-0.525062
0.303200	-0.498446
0.303300	-0.396852
0.303400	-0.209893
0.303500	-0.204050
0.303600	-0.373482
0.303700	-0.595171
0.303800	-0.637042
0.303900	-0.541615
0.304000	-0.357902
0.304100	-0.354332
0.304200	-0.497148
0.304300	-0.628279
0.304400	-0.684431
0.304500	-0.658465
0.304600	-0.670799
0.304700	-0.690274
0.304800	-0.787324
0.304900	-0.859381
0.305000	-0.922999
0.305100	-0.907419
0.305200	-0.954159
0.305300	-1.055104
0.305400	-1.112880
0.305500	-1.121319
0.305600	-1.170006
0.305700	-1.207658
0.305800	-1.334894
0.305900	-1.505624
0.306000	-1.604297
0.306100	-1.638703
0.306200	-1.570216
0.306300	-1.666617
0.306400	-1.734130
0.306500	-1.774054
0.306600	-1.830856
0.306700	-1.870131
0.306800	-1.918169
0.306900	-1.942188
0.307000	-1.985358
0.307100	-2.008727
0.307200	-2.019439
0.307300	-2.065854
0.307400	-2.072670
0.307500	-2.118761
0.307600	-2.109997
0.307700	-2.190494
0.307800	-2.189520
0.307900	-2.269043
0.308000	-2.282351
0.308100	-2.356681
0.308200	-2.638095
0.308300	-2.859785
0.308400	-2.777666
0.308500	-2.547211
0.308600	-2.394657
0.308700	-2.445941
0.308800	-2.629980
0.308900	-2.896788
0.309000	-2.875041
0.309100	-2.732873
0.309200	-2.569607
0.309300	-2.562467
0.309400	-2.628357
0.309500	-2.745532
0.309600	-2.803308
0.309700	-2.783184
0.309800	-2.734821
0.309900	-2.730926
0.310000	-2.737742
0.310100	-2.793246
0.310200	-2.830573
0.310300	-2.840310
0.310400	-2.866602
0.310500	-2.881208
0.310600	-2.948721
0.310700	-3.004225
0.310800	-3.030841
0.310900	-3.045772
0.311000	-3.078555
0.311100	-3.159701
0.311200	-3.186317
0.311300	-3.133410
0.311400	-2.964301
0.311500	-2.995461
0.311600	-3.177553
0.311700	-3.394051
0.311800	-3.463188
0.311900	-3.334652
0.312000	-3.107443
0.312100	-3.051290
0.312200	-3.177878
0.312300	-3.402166
0.312400	-3.466434
0.312500	-3.379769
0.312600	-3.214556
0.312700	-3.120426
0.312800	-3.123023
0.312900	-3.131462
0.313000	-3.070440
0.313100	-2.992865
0.313200	-2.929246
0.313300	-2.873742
0.313400	-2.814993
0.313500	-2.712424
0.313600	-2.535851
0.313700	-2.382323
0.313800	-2.343373
0.313900	-2.330389
0.314000	-2.314809
0.314100	-2.242752
0.314200	-2.056441
0.314300	-1.984059
0.314400	-1.795477
0.314500	-1.780870
0.314600	-1.750360
0.314700	-1.690312
0.314800	-1.622149
0.314900	-1.528994
0.315000	-1.430321
0.315100	-1.359562
0.315200	-1.352097
0.315300	-1.397214
0.315400	-1.361510
0.315500	-1.351448
0.315600	-1.375791
0.315700	-1.356641
0.315800	-1.361834
0.315900	-1.330999
0.316000	-1.374168
0.316100	-1.374168
0.316200	-1.488097
0.316300	-1.524125
0.316400	-1.517309
0.316500	-1.404030
0.316600	-1.180068
0.316700	-1.197596
0.316800	-1.423505
0.316900	-1.801319
0.317000	-1.649414
0.317100	-1.527696
0.317200	-1.239467
0.317300	-1.260889
0.317400	-1.293023
0.317500	-1.498808
0.317600	-1.537109
0.317700	-1.415715
0.317800	-1.289777
0.317900	-1.137873
0.318000	-1.164488
0.318100	-1.204412
0.318200	-1.225185
0.318300	-1.242388
0.318400	-1.231352
0.318500	-1.218693
0.318600	-1.254398
0.318700	-1.300164
0.318800	-1.268679
0.318900	-1.336192
0.319000	-1.413767
0.319100	-1.480956
0.319200	-1.497185
0.319300	-1.607543
0.319400	-1.508870
0.319500	-1.502378
0.319600	-1.547820
0.319700	-1.713682
0.319800	-2.006780
0.319900	-1.912651
0.320000	-1.728288
0.320100	-1.639677
0.320200	-1.694207
0.320300	-1.975620
0.320400	-2.206723
0.320500	-2.189845
0.320600	-2.034694
0.320700	-1.887333
0.320800	-1.949978
0.320900	-2.111620
0.321000	-2.314809
0.321100	-2.307669
0.321200	-2.306695
0.321300	-2.261253
0.321400	-2.326170
0.321500	-2.449187
0.321600	-2.479373
0.321700	-2.498848
0.321800	-2.446266
0.321900	-2.487488
0.322000	-2.529359
0.322100	-2.526762
0.322200	-2.488462
0.322300	-2.481970
0.322400	-2.448862
0.322500	-2.576748
0.322600	-2.663412
0.322700	-2.657245
0.322800	-2.545264
0.322900	-2.495278
0.323000	-2.536824
0.323100	-2.567011
0.323200	-2.540070
0.323300	-2.556299
0.323400	-2.518972
0.323500	-2.552080
0.323600	-2.555975
0.323700	-2.587459
0.323800	-2.561817
0.323900	-2.564739
0.324000	-2.571230
0.324100	-2.556949
0.324200	-2.555650
0.324300	-2.559221
0.324400	-2.573827
0.324500	-2.563116
0.324600	-2.620567
0.324700	-2.626085
0.324800	-2.737093
0.324900	-3.011042
0.325000	-3.121725
0.325100	-2.985075
0.325200	-2.738391
0.325300	-2.681264
0.325400	-2.742286
0.325500	-3.071414
0.325600	-3.240198
0.325700	-3.265516
0.325800	-3.087968
0.325900	-2.949695
0.326000	-2.994812
0.326100	-3.144446
0.326200	-3.248313
0.326300	-3.272007
0.326400	-3.202546
0.326500	-3.145419
0.326600	-3.109715
0.326700	-3.154832
0.326800	-3.199625
0.326900	-3.200923
0.327000	-3.186317
0.327100	-3.161649
0.327200	-3.128541
0.327300	-3.177229
0.327400	-3.185019
0.327500	-3.121725
0.327600	-3.085696
0.327700	-3.084398
0.327800	-3.133085
0.327900	-3.124321
0.328000	-2.988645
0.328100	-2.848749
0.328200	-2.900683
0.328300	-3.125295
0.328400	-3.287263
0.328500	-3.315177
0.328600	-3.120426
0.328700	-2.905227
0.328800	-2.919184
0.328900	-3.125295
0.329000	-3.365488
0.329100	-3.427159
0.329200	-3.374576
0.329300	-3.240198
0.329400	-3.197353
0.329500	-3.244742
0.329600	-3.338547
0.329700	-3.391779
0.329800	-3.386586
0.329900	-3.333354
0.330000	-3.302843
0.330100	-3.274279
0.330200	-3.213582
0.330300	-3.125944
0.330400	-3.055185
0.330500	-3.045772
0.330600	-3.038956
0.330700	-3.068818
0.330800	-3.006173
0.330900	-2.861408
0.331000	-2.840310
0.331100	-2.627708
0.331200	-2.667307
0.331300	-2.641990
0.331400	-2.592004
0.331500	-2.485540
0.331600	-2.387191
0.331700	-2.247621
0.331800	-2.215487
0.331900	-2.171668
0.332000	-2.174589
0.332100	-2.121682
0.332200	-2.154141
0.332300	-2.123305
0.332400	-2.072670
0.332500	-2.091172
0.332600	-2.000613
0.332700	-2.133043
0.332800	-2.061959
0.332900	-2.208346
0.333000	-2.068126
0.333100	-2.113243
0.333200	-1.899343
0.333300	-1.672784
0.333400	-1.767887
0.333500	-2.134990
0.333600	-2.282351
0.333700	-2.083057
0.333800	-1.941539
0.333900	-1.855200
0.334000	-1.817548
0.334100	-2.019763
0.334200	-2.124279
0.334300	-2.208346
0.334400	-2.048976
0.334500	-1.908756
0.334600	-1.806188
0.334700	-1.858770
0.334800	-1.949978
0.334900	-2.009377
0.335000	-2.071047
0.335100	-2.013272
0.335200	-1.998341
0.335300	-2.043782
0.335400	-2.025281
0.335500	-2.087277
0.335600	-2.123305
0.335700	-2.258007
0.335800	-2.268069
0.335900	-2.336232
0.336000	-2.320003
0.336100	-2.267420
0.336200	-2.251840
0.336300	-2.245024
0.336400	-2.500796
0.336500	-2.542992
0.336600	-2.444967
0.336700	-2.179134
0.336800	-2.152842
0.336900	-2.193415
0.337000	-2.452108
0.337100	-2.553703
0.337200	-2.525789
0.337300	-2.334284
0.337400	-2.222628
0.337500	-2.292089
0.337600	-2.401473
0.337700	-2.490084
0.337800	-2.466714
0.337900	-2.504691
0.338000	-2.463793
0.338100	-2.531631
0.338200	-2.577397
0.338300	-2.584214
0.338400	-2.542342
0.338500	-2.579020
0.338600	-2.643937
0.338700	-2.689703
0.338800	-2.683212
0.338900	-2.643288
0.339000	-2.611154
0.339100	-2.617646
0.339200	-2.751699
0.339300	-2.803632
0.339400	-2.789351
0.339500	-2.707880
0.339600	-2.600118
0.339700	-2.637770
0.339800	-2.629980
0.339900	-2.607584
0.340000	-2.604987
0.340100	-2.574476
0.340200	-2.571879
0.340300	-2.593951
0.340400	-2.605636
0.340500	-2.579669
0.340600	-2.584538
0.340700	-2.574801
0.340800	-2.597846
0.340900	-2.586810
0.341000	-2.639717
0.341100	-2.646858
0.341200	-2.652701
0.341300	-2.696195
0.341400	-2.744558
0.341500	-2.952292
0.341600	-3.211310
0.341700	-3.226566
0.341800	-3.107768
0.341900	-2.928273
0.342000	-3.013314
0.342100	-3.162622
0.342200	-3.520964
0.342300	-3.654693
0.342400	-3.615743
0.342500	-3.477794
0.342600	-3.446309
0.342700	-3.528429
0.342800	-3.726751
0.342900	-3.827372
0.343000	-3.856261
0.343100	-3.831267
0.343200	-3.812441
0.343300	-3.816986
0.343400	-3.830943
0.343500	-3.877683
0.343600	-3.887745
0.343700	-3.914037
0.343800	-3.946495
0.343900	-3.951040
0.344000	-4.016930
0.344100	-3.986419
0.344200	-3.971813
0.344300	-4.021150
0.344400	-4.102621
0.344500	-4.121123
0.344600	-4.111385
0.344700	-3.950715
0.344800	-3.893588
0.344900	-4.003947
0.345000	-4.265888
0.345100	-4.341517
0.345200	-4.304514
0.345300	-4.100024
0.345400	-3.946820
0.345500	-4.004272
0.345600	-4.200322
0.345700	-4.374624
0.345800	-4.381116
0.345900	-4.242842
0.346000	-4.139949
0.346100	-4.109113
0.346200	-4.130536
0.346300	-4.187338
0.346400	-4.154230
0.346500	-4.140598
0.346600	-4.109762
0.346700	-4.089313
0.346800	-4.059776
0.346900	-3.971813
0.347000	-3.835487
0.347100	-3.768298
0.347200	-3.756613
0.347300	-3.763754
0.347400	-3.731620
0.347500	-3.611848
0.347600	-3.462863
0.347700	-3.261296
0.347800	-3.203845
0.347900	-3.214556
0.348000	-3.183071
0.348100	-3.120751
0.348200	-3.032139
0.348300	-2.943528
0.348400	-2.863680
0.348500	-2.824730
0.348600	-2.795193
0.348700	-2.820186
0.348800	-2.777341
0.348900	-2.851995
0.349000	-2.766630
0.349100	-2.769876
0.349200	-2.713398
0.349300	-2.740988
0.349400	-2.753322
0.349500	-2.795518
0.349600	-2.836740
0.349700	-2.765007
0.349800	-2.613102
0.349900	-2.415755
0.350000	-2.293062
0.350100	-2.525464
0.350200	-2.779938
0.350300	-2.876015
0.350400	-2.612128
0.350500	-2.428738
0.350600	-2.288194
0.350700	-2.314485
0.350800	-2.538123
0.350900	-2.639068
0.351000	-2.615698
0.351100	-2.445941
0.351200	-2.343373
0.351300	-2.270341
0.351400	-2.260604
0.351500	-2.330065
0.351600	-2.364795
0.351700	-2.299554
0.351800	-2.294361
0.351900	-2.301177
0.352000	-2.278781
0.352100	-2.228146
0.352200	-2.235611
0.352300	-2.290141
0.352400	-2.371936
0.352500	-2.352786
0.352600	-2.469311
0.352700	-2.377779
0.352800	-2.366743
0.352900	-2.369989
0.353000	-2.501120
0.353100	-2.795193
0.353200	-2.794544
0.353300	-2.652701
0.353400	-2.466065
0.353500	-2.494953
0.353600	-2.641016
0.353700	-2.929571
0.353800	-2.975662
0.353900	-2.896463
0.354000	-2.699765
0.354100	-2.643612
0.354200	-2.729303
0.354300	-2.861733
0.354400	-2.906201
0.354500	-2.869523
0.354600	-2.839337
0.354700	-2.824081
0.354800	-2.913342
0.354900	-2.972741
0.355000	-2.991891
0.355100	-2.933790
0.355200	-2.961705
0.355300	-3.023376
0.355400	-3.063624
0.355500	-3.061027
0.355600	-3.024999
0.355700	-2.994812
0.355800	-3.055510
0.355900	-3.150937
0.356000	-3.187291
0.356100	-3.188265
0.356200	-3.188265
0.356300	-3.122374
0.356400	-3.173658
0.356500	-3.198327
0.356600	-3.188914
0.356700	-3.164245
0.356800	-3.148990
0.356900	-3.148665
0.357000	-3.127567
0.357100	-3.113610
0.357200	-3.110040
0.357300	-3.114908
0.357400	-3.097706
0.357500	-3.074660
0.357600	-3.067195
0.357700	-3.047395
0.357800	-3.104522
0.357900	-3.100302
0.358000	-3.180475
0.358100	-3.231110
0.358200	-3.472601
0.358300	-3.672870
0.358400	-3.606979
0.358500	-3.460267
0.358600	-3.284017
0.358700	-3.382366
0.358800	-3.642034
0.358900	-3.913388
0.359000	-3.949092
0.359100	-3.828995
0.359200	-3.696889
0.359300	-3.691371
0.359400	-3.831592
0.359500	-3.998754
0.359600	-4.044845
0.359700	-4.059127
0.359800	-4.008167
0.359900	-3.986744
0.360000	-4.024720
0.360100	-4.069838
0.360200	-4.070487
0.360300	-4.059776
0.360400	-4.049064
0.360500	-4.068864
0.360600	-4.098726
0.360700	-4.198374
0.360800	-4.127614
0.360900	-4.106516
0.361000	-4.131185
0.361100	-4.159748
0.361200	-4.160073
0.361300	-4.075356
0.361400	-3.908194
0.361500	-3.917932
0.361600	-4.062697
0.361700	-4.275301
0.361800	-4.323664
0.361900	-4.216551
0.362000	-4.010439
0.362100	-3.927345
0.362200	-4.044520
0.362300	-4.266537
0.362400	-4.391178
0.362500	-4.383388
0.362600	-4.257773
0.362700	-4.190584
0.362800	-4.214279
0.362900	-4.265888
0.363000	-4.328209
0.363100	-4.311005
0.363200	-4.284065
0.363300	-4.272380
0.363400	-4.273678
0.363500	-4.276924
0.363600	-4.189935
0.363700	-4.106192
0.363800	-4.050363
0.363900	-4.065943
0.364000	-4.062372
0.364100	-4.043546
0.364200	-3.875086
0.364300	-3.808546
0.364400	-3.605356
0.364500	-3.622234
0.364600	-3.605681
0.364700	-3.578740
0.364800	-3.495971
0.364900	-3.399894
0.365000	-3.302518
0.365100	-3.236952
0.365200	-3.217802
0.365300	-3.207090
0.365400	-3.188265
0.365500	-3.160675
0.365600	-3.173334
0.365700	-3.123348
0.365800	-3.065896
0.365900	-3.164570
0.366000	-3.116531
0.366100	-3.216179
0.366200	-3.163596
0.366300	-3.234680
0.366400	-3.175930
0.366500	-2.990268
0.366600	-2.847776
0.366700	-2.636147
0.366800	-3.060703
0.366900	-3.147691
0.367000	-3.187940
0.367100	-2.874067
0.367200	-2.651078
0.367300	-2.613426
0.367400	-2.614400
0.367500	-2.789675
0.367600	-2.798114
0.367700	-2.678668
0.367800	-2.524166
0.367900	-2.380375
0.368000	-2.423869
0.368100	-2.381349
0.368200	-2.418027
0.368300	-2.372585
0.368400	-2.357654
0.368500	-2.335258
0.368600	-2.332986
0.368700	-2.307669
0.368800	-2.313836
0.368900	-2.316757
0.369000	-2.378752
0.369100	-2.418351
0.369200	-2.428414
0.369300	-2.524166
0.369400	-2.435230
0.369500	-2.450161
0.369600	-2.476776
0.369700	-2.651078
0.369800	-2.913666
0.369900	-2.861084
0.370000	-2.690677
0.370100	-2.554677
0.370200	-2.622839
0.370300	-2.827651
0.370400	-3.094784
0.370500	-3.062001
0.370600	-2.945800
0.370700	-2.794869
0.370800	-2.834468
0.370900	-2.981504
0.371000	-3.116856
0.371100	-3.111663
0.371200	-3.103223
0.371300	-3.055834
0.371400	-3.174957
0.371500	-3.240198
0.371600	-3.286614
0.371700	-3.285640
0.371800	-3.276876
0.371900	-3.302843
0.372000	-3.305440
0.372100	-3.301869
0.372200	-3.274929
0.372300	-3.291807
0.372400	-3.268112
0.372500	-3.408008
0.372600	-3.508305
0.372700	-3.512200
0.372800	-3.525184
0.372900	-3.532000
0.373000	-3.471952
0.373100	-3.521613
0.373200	-3.512525
0.373300	-3.551150
0.373400	-3.580363
0.373500	-3.606330
0.373600	-3.625156
0.373700	-3.605031
0.373800	-3.644955
0.373900	-3.645929
0.374000	-3.710197
0.374100	-3.749147
0.374200	-3.775763
0.374300	-3.808871
0.374400	-3.860805
0.374500	-3.907870
0.374600	-3.906247
0.374700	-3.978629
0.374800	-4.099051
0.374900	-4.348333
0.375000	-4.489853
0.375100	-4.351903
0.375200	-4.161696
0.375300	-4.017255
0.375400	-4.114955
0.375500	-4.378519
0.375600	-4.553147
0.375700	-4.490502
0.375800	-4.322691
0.375900	-4.234079
0.376000	-4.238298
0.376100	-4.407732
0.376200	-4.508679
0.376300	-4.551849
0.376400	-4.490826
0.376500	-4.472650
0.376600	-4.484659
0.376700	-4.510951
0.376800	-4.595343
0.376900	-4.612871
0.377000	-4.588203
0.377100	-4.564508
0.377200	-4.571973
0.377300	-4.689149
0.377400	-4.668376
0.377500	-4.658313
0.377600	-4.658638
0.377700	-4.703431
0.377800	-4.737837
0.377900	-4.755040
0.378000	-4.645979
0.378100	-4.511275
0.378200	-4.562560
0.378300	-4.766076
0.378400	-4.911492
0.378500	-4.942652
0.378600	-4.705703
0.378700	-4.488230
0.378800	-4.469404
0.378900	-4.634618
0.379000	-4.873515
0.379100	-4.902728
0.379200	-4.773217
0.379300	-4.610924
0.379400	-4.574894
0.379500	-4.617091
0.379600	-4.664480
0.379700	-4.668376
0.379800	-4.610274
0.379900	-4.591124
0.380000	-4.580088
0.380100	-4.582685
0.380200	-4.503810
0.380300	-4.368457
0.380400	-4.278871
0.380500	-4.264590
0.380600	-4.242193
0.380700	-4.249659
0.380800	-4.166889
0.380900	-4.006219
0.381000	-3.974734
0.381100	-3.764078
0.381200	-3.805301
0.381300	-3.801081
0.381400	-3.726426
0.381500	-3.648201
0.381600	-3.538816
0.381700	-3.429431
0.381800	-3.426510
0.381900	-3.424562
0.382000	-3.435273
0.382100	-3.396323
0.382200	-3.377173
0.382300	-3.373927
0.382400	-3.308036
0.382500	-3.300895
0.382600	-3.287587
0.382700	-3.264217
0.382800	-3.345688
0.382900	-3.284017
0.383000	-3.284666
0.383100	-3.218775
0.383200	-3.000330
0.383300	-2.781561
0.383400	-2.830573
0.383500	-3.148665
0.383600	-3.267139
0.383700	-3.083424
0.383800	-2.861733
0.383900	-2.702038
0.384000	-2.751374
0.384100	-2.873418
0.384200	-3.023700
0.384300	-2.994163
0.384400	-2.874716
0.384500	-2.688405
0.384600	-2.587135
0.384700	-2.670553
0.384800	-2.711450
0.384900	-2.686133
0.385000	-2.681264
0.385100	-2.623488
0.385200	-2.590705
0.385300	-2.575450
0.385400	-2.585512
0.385500	-2.609207
0.385600	-2.679966
0.385700	-2.672176
0.385800	-2.721188
0.385900	-2.736768
0.386000	-2.812071
0.386100	-2.726706
0.386200	-2.726057
0.386300	-2.726381
0.386400	-3.031815
0.386500	-3.172684
0.386600	-3.093810
0.386700	-2.892244
0.386800	-2.783184
0.386900	-2.929571
0.387000	-3.200274
0.387100	-3.357698
0.387200	-3.283043
0.387300	-3.063300
0.387400	-2.925027
0.387500	-3.037333
0.387600	-3.190537
0.387700	-3.271358
0.387800	-3.173983
0.387900	-3.152560
0.388000	-3.059080
0.388100	-3.138279
0.388200	-3.163921
0.388300	-3.131787
0.388400	-3.086020
0.388500	-3.065572
0.388600	-3.105820
0.388700	-3.116531
0.388800	-3.086670
0.388900	-3.081476
0.389000	-3.063624
0.389100	-3.090240
0.389200	-3.208389
0.389300	-3.276227
0.389400	-3.267463
0.389500	-3.273955
0.389600	-3.218775
0.389700	-3.277525
0.389800	-3.293430
0.389900	-3.305764
0.390000	-3.329134
0.390100	-3.337573
0.390200	-3.343416
0.390300	-3.383340
0.390400	-3.402166
0.390500	-3.425861
0.390600	-3.430405
0.390700	-3.434300
0.390800	-3.444686
0.390900	-3.464811
0.391000	-3.497269
0.391100	-3.503761
0.391200	-3.540439
0.391300	-3.549203
0.391400	-3.603409
0.391500	-3.790045
0.391600	-4.026993
0.391700	-4.097752
0.391800	-3.930266
0.391900	-3.767649
0.392000	-3.742006
0.392100	-3.930915
0.392200	-4.224990
0.392300	-4.336648
0.392400	-4.282117
0.392500	-4.110411
0.392600	-4.039976
0.392700	-4.127939
0.392800	-4.310032
0.392900	-4.455447
0.393000	-4.514846
0.393100	-4.447007
0.393200	-4.396047
0.393300	-4.396047
0.393400	-4.445060
0.393500	-4.533347
0.393600	-4.539514
0.393700	-4.566131
0.393800	-4.578140
0.393900	-4.574570
0.394000	-4.628451
0.394100	-4.629100
0.394200	-4.595668
0.394300	-4.583983
0.394400	-4.596642
0.394500	-4.674867
0.394600	-4.620337
0.394700	-4.494397
0.394800	-4.408057
0.394900	-4.480115
0.395000	-4.734267
0.395100	-4.805027
0.395200	-4.775489
0.395300	-4.539839
0.395400	-4.380792
0.395500	-4.456420
0.395600	-4.673244
0.395700	-4.831968
0.395800	-4.872541
0.395900	-4.743680
0.396000	-4.654743
0.396100	-4.633969
0.396200	-4.673244
0.396300	-4.724205
0.396400	-4.764129
0.396500	-4.767050
0.396600	-4.756663
0.396700	-4.709274
0.396800	-4.668051
0.396900	-4.588203
0.397000	-4.474273
0.397100	-4.414873
0.397200	-4.396696
0.397300	-4.386310
0.397400	-4.342490
0.397500	-4.205840
0.397600	-4.059451
0.397700	-3.910142
0.397800	-3.806274
0.397900	-3.787773
0.398000	-3.766026
0.398100	-3.659562
0.398200	-3.556668
0.398300	-3.443388
0.398400	-3.321344
0.398500	-3.297974
0.398600	-3.249286
0.398700	-3.283368
0.398800	-3.259998
0.398900	-3.296027
0.399000	-3.241821
0.399100	-3.234356
0.399200	-3.185343
0.399300	-3.271034
0.399400	-3.277850
0.399500	-3.378471
0.399600	-3.343741
0.399700	-3.368084
0.399800	-3.219100
0.399900	-2.983127
0.400000	-2.896139
0.400100	-3.047395
0.400200	-3.443713
0.400300	-3.455398
0.400400	-3.349908
0.400500	-3.055834
0.400600	-2.945800
0.400700	-3.006822
0.400800	-3.090240
0.400900	-3.260971
0.401000	-3.210336
0.401100	-3.114259
0.401200	-2.959108
0.401300	-2.889647
0.401400	-2.902306
0.401500	-2.906850
0.401600	-2.907824
0.401700	-2.897437
0.401800	-2.899060
0.401900	-2.860759
0.402000	-2.859785
0.402100	-2.786105
0.402200	-2.774744
0.402300	-2.875041
0.402400	-2.926650
0.402500	-2.912693
0.402600	-2.983776
0.402700	-2.937685
0.402800	-2.854592
0.402900	-2.828950
0.403000	-2.958459
0.403100	-3.183071
0.403200	-3.213258
0.403300	-3.083424
0.403400	-2.887050
0.403500	-2.909122
0.403600	-3.062650
0.403700	-3.349583
0.403800	-3.379120
0.403900	-3.311607
0.404000	-3.110364
0.404100	-3.073686
0.404200	-3.170412
0.404300	-3.291482
0.404400	-3.319072
0.404500	-3.286289
0.404600	-3.307063
0.404700	-3.322643
0.404800	-3.400867
0.404900	-3.430729
0.405000	-3.451503
0.405100	-3.421966
0.405200	-3.475847
0.405300	-3.539790
0.405400	-3.581012
0.405500	-3.557967
0.405600	-3.530701
0.405700	-3.544334
0.405800	-3.610549
0.405900	-3.746551
0.406000	-3.760508
0.406100	-3.768298
0.406200	-3.656965
0.406300	-3.705653
0.406400	-3.769921
0.406500	-3.774465
0.406600	-3.832890
0.406700	-3.817959
0.406800	-3.827372
0.406900	-3.832890
0.407000	-3.839057
0.407100	-3.840031
0.407200	-3.843602
0.407300	-3.841979
0.407400	-3.840031
0.407500	-3.820556
0.407600	-3.852041
0.407700	-3.822504
0.407800	-3.839382
0.407900	-3.818933
0.408000	-3.870867
0.408100	-3.831917
0.408200	-4.074382
0.408300	-4.217200
0.408400	-4.118201
0.408500	-3.924099
0.408600	-3.779658
0.408700	-3.804002
0.408800	-4.062048
0.408900	-4.245764
0.409000	-4.284065
0.409100	-4.115929
0.409200	-3.955908
0.409300	-3.959803
0.409400	-4.074382
0.409500	-4.258422
0.409600	-4.322366
0.409700	-4.322366
0.409800	-4.303540
0.409900	-4.311979
0.410000	-4.333402
0.410100	-4.385336
0.410200	-4.403188
0.410300	-4.406759
0.410400	-4.458692
0.410500	-4.532374
0.410600	-4.593721
0.410700	-4.645330
0.410800	-4.668051
0.410900	-4.639163
0.411000	-4.706028
0.411100	-4.771594
0.411200	-4.809246
0.411300	-4.756339
0.411400	-4.589501
0.411500	-4.619038
0.411600	-4.783279
0.411700	-5.016009
0.411800	-5.096831
0.411900	-4.975435
0.412000	-4.764778
0.412100	-4.674218
0.412200	-4.825800
0.412300	-5.061776
0.412400	-5.159477
0.412500	-5.107218
0.412600	-4.967645
0.412700	-4.888121
0.412800	-4.856312
0.412900	-4.851118
0.413000	-4.832292
0.413100	-4.776788
0.413200	-4.740434
0.413300	-4.700185
0.413400	-4.660585
0.413500	-4.605406
0.413600	-4.440516
0.413700	-4.333402
0.413800	-4.273678
0.413900	-4.273029
0.414000	-4.254203
0.414100	-4.198374
0.414200	-4.020825
0.414300	-3.927020
0.414400	-3.712794
0.414500	-3.734866
0.414600	-3.701758
0.414700	-3.674493
0.414800	-3.568029
0.414900	-3.484610
0.415000	-3.352180
0.415100	-3.259998
0.415200	-3.255454
0.415300	-3.266165
0.415400	-3.225592
0.415500	-3.259998
0.415600	-3.262594
0.415700	-3.203520
0.415800	-3.202222
0.415900	-3.186642
0.416000	-3.228513
0.416100	-3.243444
0.416200	-3.272657
0.416300	-3.368409
0.416400	-3.158403
0.416500	-3.129515
0.416600	-2.688405
0.416700	-2.812396
0.416800	-2.938984
0.416900	-3.269086
0.417000	-3.246041
0.417100	-2.977285
0.417200	-2.848425
0.417300	-2.741312
0.417400	-2.897762
0.417500	-3.060703
0.417600	-3.088617
0.417700	-3.049667
0.417800	-2.797465
0.417900	-2.785131
0.418000	-2.759164
0.418100	-2.923728
0.418200	-2.907824
0.418300	-2.943528
0.418400	-2.957485
0.418500	-2.985075
0.418600	-3.024674
0.418700	-3.052588
0.418800	-3.115558
0.418900	-3.136980
0.419000	-3.312580
0.419100	-3.306738
0.419200	-3.366786
0.419300	-3.419369
0.419400	-3.362891
0.419500	-3.401841
0.419600	-3.378796
0.419700	-3.651123
0.419800	-3.843602
0.419900	-3.764727
0.420000	-3.633920
0.420100	-3.479742
0.420200	-3.540439
0.420300	-3.677739
0.420400	-3.946171
0.420500	-3.921178
0.420600	-3.794265
0.420700	-3.629051
0.420800	-3.652745
0.420900	-3.793940
0.421000	-3.912089
0.421100	-3.878008
0.421200	-3.873788
0.421300	-3.832890
0.421400	-3.905598
0.421500	-3.974410
0.421600	-4.023098
0.421700	-4.007517
0.421800	-3.985770
0.421900	-3.982849
0.422000	-4.032186
0.422100	-4.028616
0.422200	-3.981875
0.422300	-3.911765
0.422400	-3.891640
0.422500	-3.978629
0.422600	-4.055556
0.422700	-4.055232
0.422800	-4.015957
0.422900	-3.873464
0.423000	-3.911765
0.423100	-3.928968
0.423200	-3.891316
0.423300	-3.885473
0.423400	-3.877359
0.423500	-3.898132
0.423600	-3.915335
0.423700	-3.921827
0.423800	-3.938705
0.423900	-3.953961
0.424000	-3.997780
0.424100	-4.031537
0.424200	-4.050363
0.424300	-4.081523
0.424400	-4.081523
0.424500	-4.157801
0.424600	-4.180522
0.424700	-4.249983
0.424800	-4.384037
0.424900	-4.626504
0.425000	-4.802430
0.425100	-4.619038
0.425200	-4.458692
0.425300	-4.269458
0.425400	-4.401565
0.425500	-4.689149
0.425600	-4.834564
0.425700	-4.818659
0.425800	-4.603458
0.425900	-4.430453
0.426000	-4.413575
0.426100	-4.563209
0.426200	-4.706028
0.426300	-4.724205
0.426400	-4.652146
0.426500	-4.587878
0.426600	-4.549901
0.426700	-4.575219
0.426800	-4.571324
0.426900	-4.568403
0.427000	-4.541787
0.427100	-4.538541
0.427200	-4.548928
0.427300	-4.556068
0.427400	-4.625205
0.427500	-4.614494
0.427600	-4.562236
0.427700	-4.628451
0.427800	-4.645654
0.427900	-4.676815
0.428000	-4.577491
0.428100	-4.459342
0.428200	-4.521338
0.428300	-4.724205
0.428400	-4.888770
0.428500	-4.943626
0.428600	-4.757312
0.428700	-4.580412
0.428800	-4.560613
0.428900	-4.717713
0.429000	-4.942977
0.429100	-5.009517
0.429200	-4.927072
0.429300	-4.800807
0.429400	-4.779384
0.429500	-4.832941
0.429600	-4.847223
0.429700	-4.850794
0.429800	-4.806001
0.429900	-4.785876
0.430000	-4.761532
0.430100	-4.758935
0.430200	-4.665454
0.430300	-4.541137
0.430400	-4.437919
0.430500	-4.462912
0.430600	-4.471351
0.430700	-4.476220
0.430800	-4.397345
0.430900	-4.256475
0.431000	-4.236675
0.431100	-4.029265
0.431200	-4.073408
0.431300	-4.035107
0.431400	-3.996482
0.431500	-3.917932
0.431600	-3.835812
0.431700	-3.739734
0.431800	-3.693319
0.431900	-3.687801
0.432000	-3.725128
0.432100	-3.684230
0.432200	-3.749472
0.432300	-3.706951
0.432400	-3.658913
0.432500	-3.626779
0.432600	-3.581012
0.432700	-3.640087
0.432800	-3.576793
0.432900	-3.646903
0.433000	-3.591723
0.433100	-3.508305
0.433200	-3.291158
0.433300	-2.971118
0.433400	-3.100302
0.433500	-3.240523
0.433600	-3.529728
0.433700	-3.309659
0.433800	-3.111013
0.433900	-2.878936
0.434000	-2.814668
0.434100	-2.991566
0.434200	-3.094135
0.434300	-3.114908
0.434400	-3.006173
0.434500	-2.769226
0.434600	-2.772148
0.434700	-2.762086
0.434800	-2.820186
0.434900	-2.758515
0.435000	-2.717293
0.435100	-2.705933
0.435200	-2.685808
0.435300	-2.653999
0.435400	-2.611479
0.435500	-2.674773
0.435600	-2.707880
0.435700	-2.770525
0.435800	-2.757866
0.435900	-2.731575
0.436000	-2.825379
0.436100	-2.676720
0.436200	-2.738716
0.436300	-2.721513
0.436400	-3.000330
0.436500	-3.062326
0.436600	-2.943528
0.436700	-2.709503
0.436800	-2.631927
0.436900	-2.733522
0.437000	-2.997734
0.437100	-3.122698
0.437200	-3.055185
0.437300	-2.876664
0.437400	-2.793570
0.437500	-2.878936
0.437600	-3.023051
0.437700	-3.114259
0.437800	-3.038956
0.437900	-3.041552
0.438000	-3.027920
0.438100	-3.136006
0.438200	-3.179825
0.438300	-3.209363
0.438400	-3.179501
0.438500	-3.179501
0.438600	-3.176255
0.438700	-3.225592
0.438800	-3.207090
0.438900	-3.161649
0.439000	-3.160350
0.439100	-3.177229
0.439200	-3.306413
0.439300	-3.352504
0.439400	-3.347311
0.439500	-3.242470
0.439600	-3.222671
0.439700	-3.325888
0.439800	-3.332380
0.439900	-3.322967
0.440000	-3.340819
0.440100	-3.358347
0.440200	-3.394376
0.440300	-3.395674
0.440400	-3.431703
0.440500	-3.467083
0.440600	-3.497269
0.440700	-3.531675
0.440800	-3.535570
0.440900	-3.567380
0.441000	-3.616717
0.441100	-3.636841
0.441200	-3.687476
0.441300	-3.726751
0.441400	-3.801081
0.441500	-3.965646
0.441600	-4.265239
0.441700	-4.348658
0.441800	-4.200646
0.441900	-4.041599
0.442000	-3.985770
0.442100	-4.235052
0.442200	-4.487905
0.442300	-4.594370
0.442400	-4.510626
0.442500	-4.369431
0.442600	-4.315225
0.442700	-4.431103
0.442800	-4.599238
0.442900	-4.692070
0.443000	-4.732968
0.443100	-4.698887
0.443200	-4.739460
0.443300	-4.772568
0.443400	-4.845276
0.443500	-4.896560
0.443600	-4.897859
0.443700	-4.902403
0.443800	-4.917009
0.443900	-4.936485
0.444000	-4.984524
0.444100	-5.052038
0.444200	-5.035159
0.444300	-5.010815
0.444400	-5.065995
0.444500	-5.098130
0.444600	-5.124421
0.444700	-4.965698
0.444800	-4.902728
0.444900	-4.992638
0.445000	-5.227316
0.445100	-5.324368
0.445200	-5.321122
0.445300	-5.099428
0.445400	-4.934862
0.445500	-5.013412
0.445600	-5.239975
0.445700	-5.398049
0.445800	-5.417200
0.445900	-5.296128
0.446000	-5.190313
0.446100	-5.159152
0.446200	-5.198103
0.446300	-5.226666
0.446400	-5.173434
0.446500	-5.114359
0.446600	-5.042625
0.446700	-5.004324
0.446800	-4.929993
0.446900	-4.790420
0.447000	-4.661559
0.447100	-4.556718
0.447200	-4.565806
0.447300	-4.526206
0.447400	-4.513872
0.447500	-4.383713
0.447600	-4.281793
0.447700	-4.224341
0.447800	-4.036081
0.447900	-4.028616
0.448000	-4.009790
0.448100	-3.930266
0.448200	-3.815687
0.448300	-3.702082
0.448400	-3.599838
0.448500	-3.577766
0.448600	-3.529079
0.448700	-3.565107
0.448800	-3.507656
0.448900	-3.513823
0.449000	-3.450854
0.449100	-3.376848
0.449200	-3.416448
0.449300	-3.321669
0.449400	-3.343091
0.449500	-3.316475
0.449600	-3.323616
0.449700	-3.258050
0.449800	-3.159701
0.449900	-2.928273
0.450000	-2.770525
0.450100	-2.922105
0.450200	-3.247664
0.450300	-3.239549
0.450400	-3.160675
0.450500	-2.907175
0.450600	-2.863680
0.450700	-2.874067
0.450800	-3.010068
0.450900	-3.120102
0.451000	-3.123023
0.451100	-2.981829
0.451200	-2.866926
0.451300	-2.872769
0.451400	-2.868874
0.451500	-2.862707
0.451600	-2.910420
0.451700	-2.893217
0.451800	-2.850372
0.451900	-2.832196
0.452000	-2.837714
0.452100	-2.819212
0.452200	-2.858162
0.452300	-2.832845
0.452400	-2.874392
0.452500	-2.901981
0.452600	-2.909771
0.452700	-2.960082
0.452800	-2.818563
0.452900	-2.902306
0.453000	-2.979557
0.453100	-3.280771
0.453200	-3.293755
0.453300	-3.152236
0.453400	-2.959757
0.453500	-3.027920
0.453600	-3.175930
0.453700	-3.514797
0.453800	-3.580688
0.453900	-3.492076
0.454000	-3.304141
0.454100	-3.263893
0.454200	-3.402815
0.454300	-3.538167
0.454400	-3.599513
0.454500	-3.556993
0.454600	-3.542387
0.454700	-3.513174
0.454800	-3.589127
0.454900	-3.609251
0.455000	-3.627103
0.455100	-3.579065
0.455200	-3.611523
0.455300	-3.644955
0.455400	-3.624507
0.455500	-3.585881
0.455600	-3.543685
0.455700	-3.513498
0.455800	-3.558940
0.455900	-3.660860
0.456000	-3.666703
0.456100	-3.639113
0.456200	-3.491102
0.456300	-3.515446
0.456400	-3.556019
0.456500	-3.541413
0.456600	-3.556344
0.456700	-3.558291
0.456800	-3.556019
0.456900	-3.539465
0.457000	-3.562186
0.457100	-3.559590
0.457200	-3.573222
0.457300	-3.597241
0.457400	-3.575494
0.457500	-3.593671
0.457600	-3.592697
0.457700	-3.631323
0.457800	-3.636841
0.457900	-3.636516
0.458000	-3.655342
0.458100	-3.700459
0.458200	-3.944872
0.458300	-4.167214
0.458400	-4.089313
0.458500	-3.922476
0.458600	-3.736164
0.458700	-3.795563
0.458800	-4.007517
0.458900	-4.284714
0.459000	-4.347359
0.459100	-4.221420
0.459200	-4.096129
0.459300	-4.062372
0.459400	-4.172732
0.459500	-4.344113
0.459600	-4.472000
0.459700	-4.473948
0.459800	-4.478817
0.459900	-4.443112
0.460000	-4.470377
0.460100	-4.551524
0.460200	-4.587878
0.460300	-4.605081
0.460400	-4.624556
0.460500	-4.669025
0.460600	-4.719336
0.460700	-4.796263
0.460800	-4.724854
0.460900	-4.698238
0.461000	-4.752444
0.461100	-4.799509
0.461200	-4.858908
0.461300	-4.791719
0.461400	-4.662533
0.461500	-4.662858
0.461600	-4.817361
0.461700	-5.047494
0.461800	-5.129615
0.461900	-5.040353
0.462000	-4.844626
0.462100	-4.806325
0.462200	-4.958557
0.462300	-5.214981
0.462400	-5.355853
0.462500	-5.345790
0.462600	-5.215630
0.462700	-5.154283
0.462800	-5.169539
0.462900	-5.230562
0.463000	-5.274706
0.463100	-5.263020
0.463200	-5.246142
0.463300	-5.226666
0.463400	-5.213358
0.463500	-5.133834
0.463600	-4.969593
0.463700	-4.880007
0.463800	-4.858584
0.463900	-4.854689
0.464000	-4.842354
0.464100	-4.814115
0.464200	-4.629100
0.464300	-4.555419
0.464400	-4.425260
0.464500	-4.338920
0.464600	-4.305812
0.464700	-4.249334
0.464800	-4.129562
0.464900	-4.017904
0.465000	-3.874762
0.465100	-3.828346
0.465200	-3.819582
0.465300	-3.792317
0.465400	-3.812117
0.465500	-3.759859
0.465600	-3.830618
0.465700	-3.739410
0.465800	-3.795238
0.465900	-3.751744
0.466000	-3.806924
0.466100	-3.811468
0.466200	-3.888719
0.466300	-3.896509
0.466400	-3.849769
0.466500	-3.667676
0.466600	-3.421316
0.466700	-3.321344
0.466800	-3.682932
0.466900	-3.801730
0.467000	-3.781281
0.467100	-3.499866
0.467200	-3.322643
0.467300	-3.143147
0.467400	-3.318423
0.467500	-3.436896
0.467600	-3.510902
0.467700	-3.390805
0.467800	-3.255778
0.467900	-3.125295
0.468000	-3.095109
0.468100	-3.165868
0.468200	-3.186642
0.468300	-3.184694
0.468400	-3.193133
0.468500	-3.161649
0.468600	-3.134384
0.468700	-3.117505
0.468800	-3.116856
0.468900	-3.073037
0.469000	-3.255129
0.469100	-3.207740
0.469200	-3.372629
0.469300	-3.397622
0.469400	-3.357049
0.469500	-3.289210
0.469600	-3.311607
0.469700	-3.527131
0.469800	-3.679361
0.469900	-3.658588
0.470000	-3.439818
0.470100	-3.284017
0.470200	-3.340170
0.470300	-3.539465
0.470400	-3.764078
0.470500	-3.717987
0.470600	-3.573871
0.470700	-3.351206
0.470800	-3.340819
0.470900	-3.487532
0.471000	-3.596917
0.471100	-3.562511
0.471200	-3.528105
0.471300	-3.477794
0.471400	-3.513823
0.471500	-3.575494
0.471600	-3.591399
0.471700	-3.561537
0.471800	-3.515771
0.471900	-3.534272
0.472000	-3.588153
0.472100	-3.581986
0.472200	-3.564783
0.472300	-3.526806
0.472400	-3.499866
0.472500	-3.585232
0.472600	-3.699486
0.472700	-3.710846
0.472800	-3.692669
0.472900	-3.551475
0.473000	-3.583933
0.473100	-3.615094
0.473200	-3.604058
0.473300	-3.641710
0.473400	-3.640087
0.473500	-3.655667
0.473600	-3.654368
0.473700	-3.695591
0.473800	-3.699810
0.473900	-3.722856
0.474000	-3.714092
0.474100	-3.721558
0.474200	-3.748174
0.474300	-3.749796
0.474400	-3.745252
0.474500	-3.809845
0.474600	-3.806274
0.474700	-3.858208
0.474800	-3.945197
0.474900	-4.265563
0.475000	-4.359693
0.475100	-4.243492
0.475200	-4.068864
0.475300	-3.971164
0.475400	-4.103270
0.475500	-4.414549
0.475600	-4.619363
0.475700	-4.583334
0.475800	-4.452525
0.475900	-4.382739
0.476000	-4.455122
0.476100	-4.647927
0.476200	-4.861505
0.476300	-4.906298
0.476400	-4.917659
0.476500	-4.920580
0.476600	-4.936485
0.476700	-4.994911
0.476800	-5.066320
0.476900	-5.074759
0.477000	-5.096831
0.477100	-5.136756
0.477200	-5.209463
0.477300	-5.259450
0.477400	-5.304568
0.477500	-5.307814
0.477600	-5.313656
0.477700	-5.373381
0.477800	-5.390908
0.477900	-5.387987
0.478000	-5.265293
0.478100	-5.147792
0.478200	-5.190313
0.478300	-5.411682
0.478400	-5.600593
0.478500	-5.630455
0.478600	-5.388961
0.478700	-5.165968
0.478800	-5.121500
0.478900	-5.265942
0.479000	-5.483416
0.479100	-5.531780
0.479200	-5.413305
0.479300	-5.230886
0.479400	-5.128641
0.479500	-5.121824
0.479600	-5.151037
0.479700	-5.143896
0.479800	-5.073461
0.479900	-5.020553
0.480000	-4.958881
0.480100	-4.949793
0.480200	-4.889744
0.480300	-4.737188
0.480400	-4.602484
0.480500	-4.574245
0.480600	-4.549901
0.480700	-4.528154
0.480800	-4.424286
0.480900	-4.218498
0.481000	-4.039002
0.481100	-3.901053
0.481200	-3.916958
0.481300	-3.857234
0.481400	-3.791993
0.481500	-3.690722
0.481600	-3.591074
0.481700	-3.494348
0.481800	-3.428782
0.481900	-3.447932
0.482000	-3.442090
0.482100	-3.457994
0.482200	-3.454099
0.482300	-3.503436
0.482400	-3.442414
0.482500	-3.470653
0.482600	-3.424238
0.482700	-3.512200
0.482800	-3.479742
0.482900	-3.547580
0.483000	-3.505708
0.483100	-3.510253
0.483200	-3.208064
0.483300	-3.032464
0.483400	-3.070116
0.483500	-3.342442
0.483600	-3.546931
0.483700	-3.339846
0.483800	-3.054536
0.483900	-2.836415
0.484000	-2.745207
0.484100	-2.869198
0.484200	-3.027920
0.484300	-3.110364
0.484400	-2.883480
0.484500	-2.735145
0.484600	-2.651078
0.484700	-2.664386
0.484800	-2.677369
0.484900	-2.765656
0.485000	-2.831547
0.485100	-2.793246
0.485200	-2.789675
0.485300	-2.802009
0.485400	-2.799737
0.485500	-2.812071
0.485600	-2.886077
0.485700	-3.029867
0.485800	-2.989944
0.485900	-3.082125
0.486000	-3.094784
0.486100	-3.030841
0.486200	-2.991566
0.486300	-3.052264
0.486400	-3.383664
0.486500	-3.488181
0.486600	-3.478443
0.486700	-3.262919
0.486800	-3.250260
0.486900	-3.332380
0.487000	-3.622559
0.487100	-3.827697
0.487200	-3.817635
0.487300	-3.685204
0.487400	-3.609576
0.487500	-3.702732
0.487600	-3.890667
0.487700	-4.033484
0.487800	-4.076005
0.487900	-4.096454
0.488000	-4.091261
0.488100	-4.203892
0.488200	-4.286012
0.488300	-4.358395
0.488400	-4.360992
0.488500	-4.371054
0.488600	-4.417470
0.488700	-4.450578
0.488800	-4.459017
0.488900	-4.429804
0.489000	-4.387283
0.489100	-4.388582
0.489200	-4.508679
0.489300	-4.536269
0.489400	-4.512249
0.489500	-4.435971
0.489600	-4.290881
0.489700	-4.329182
0.489800	-4.293153
0.489900	-4.220121
0.490000	-4.190909
0.490100	-4.143519
0.490200	-4.109762
0.490300	-4.051661
0.490400	-3.970190
0.490500	-3.915984
0.490600	-3.871191
0.490700	-3.837110
0.490800	-3.799133
0.490900	-3.800756
0.491000	-3.775439
0.491100	-3.780957
0.491200	-3.781606
0.491300	-3.850418
0.491400	-3.903001
0.491500	-4.089313
0.491600	-4.403837
0.491700	-4.496344
0.491800	-4.355149
0.491900	-4.158125
0.492000	-4.193830
0.492100	-4.400591
0.492200	-4.700185
0.492300	-4.853066
0.492400	-4.779060
0.492500	-4.648251
0.492600	-4.581062
0.492700	-4.673894
0.492800	-4.851443
0.492900	-4.976409
0.493000	-5.056582
0.493100	-5.046845
0.493200	-5.070215
0.493300	-5.047169
0.493400	-5.095533
0.493500	-5.129290
0.493600	-5.152011
0.493700	-5.187391
0.493800	-5.192260
0.493900	-5.213034
0.494000	-5.240948
0.494100	-5.257827
0.494200	-5.214981
0.494300	-5.174408
0.494400	-5.150064
0.494500	-5.157529
0.494600	-5.060802
0.494700	-4.880007
0.494800	-4.773217
0.494900	-4.830669
0.495000	-5.016333
0.495100	-5.091962
0.495200	-5.041327
0.495300	-4.768673
0.495400	-4.581062
0.495500	-4.589501
0.495600	-4.746276
0.495700	-4.879033
0.495800	-4.841705
0.495900	-4.711546
0.496000	-4.580412
0.496100	-4.525557
0.496200	-4.526531
0.496300	-4.555744
0.496400	-4.529128
0.496500	-4.470702
0.496600	-4.453824
0.496700	-4.443437
0.496800	-4.403188
0.496900	-4.268809
0.497000	-4.122096
0.497100	-4.096129
0.497200	-4.107814
0.497300	-4.109113
0.497400	-4.122421
0.497500	-3.998104
0.497600	-3.868919
0.497700	-3.857559
0.497800	-3.646903
0.497900	-3.651123
0.498000	-3.612497
0.498100	-3.533947
0.498200	-3.444686
0.498300	-3.322643
0.498400	-3.240847
0.498500	-3.190212
0.498600	-3.178527
0.498700	-3.155806
0.498800	-3.139577
0.498900	-3.141200
0.499000	-3.083099
0.499100	-3.044474
0.499200	-2.957810
0.499300	-2.983452
0.499400	-2.934764
0.499500	-3.004550
0.499600	-2.979557
0.499700	-2.977609
0.499800	-2.849074
0.499900	-2.599145
0.500000	-2.462170
0.500100	-2.601092
0.500200	-2.988645
0.500300	-3.000330
0.500400	-2.913991
0.500500	-2.695546
0.500600	-2.553378
0.500700	-2.644586
0.500800	-2.810449
0.500900	-2.977285
0.501000	-2.973065
0.501100	-2.849399
0.501200	-2.738716
0.501300	-2.713073
0.501400	-2.806229
0.501500	-2.792921
0.501600	-2.846802
0.501700	-2.866602
0.501800	-2.863680
0.501900	-2.873418
0.502000	-2.905227
0.502100	-2.867575
0.502200	-2.878611
0.502300	-2.987022
0.502400	-3.020454
0.502500	-3.003251
0.502600	-3.110364
0.502700	-3.135357
0.502800	-3.035061
0.502900	-3.049342
0.503000	-3.153209
0.503100	-3.395999
0.503200	-3.428457
0.503300	-3.284342
0.503400	-3.075958
0.503500	-3.059729
0.503600	-3.170737
0.503700	-3.487207
0.503800	-3.524210
0.503900	-3.430080
0.504000	-3.213258
0.504100	-3.174307
0.504200	-3.350557
0.504300	-3.473899
0.504400	-3.497918
0.504500	-3.462214
0.504600	-3.438195
0.504700	-3.513174
0.504800	-3.588478
0.504900	-3.647552
0.505000	-3.676765
0.505100	-3.633270
0.505200	-3.700135
0.505300	-3.747524
0.505400	-3.773816
0.505500	-3.759534
0.505600	-3.720908
0.505700	-3.695915
0.505800	-3.729672
0.505900	-3.858533
0.506000	-3.837759
0.506100	-3.808546
0.506200	-3.677414
0.506300	-3.676440
0.506400	-3.700784
0.506500	-3.677414
0.506600	-3.640411
0.506700	-3.633270
0.506800	-3.625805
0.506900	-3.585232
0.507000	-3.563809
0.507100	-3.570950
0.507200	-3.543360
0.507300	-3.533623
0.507400	-3.512200
0.507500	-3.477145
0.507600	-3.500190
0.507700	-3.515446
0.507800	-3.556344
0.507900	-3.587504
0.508000	-3.631323
0.508100	-3.678063
0.508200	-3.900404
0.508300	-4.138326
0.508400	-4.106841
0.508500	-3.969216
0.508600	-3.773491
0.508700	-3.855287
0.508800	-4.119500
0.508900	-4.439217
0.509000	-4.508679
0.509100	-4.432401
0.509200	-4.310356
0.509300	-4.295101
0.509400	-4.464210
0.509500	-4.672271
0.509600	-4.729398
0.509700	-4.697913
0.509800	-4.608652
0.509900	-4.599238
0.510000	-4.592422
0.510100	-4.596642
0.510200	-4.612222
0.510300	-4.545682
0.510400	-4.524908
0.510500	-4.504784
0.510600	-4.500889
0.510700	-4.506407
0.510800	-4.504784
0.510900	-4.492774
0.511000	-4.498292
0.511100	-4.531724
0.511200	-4.589176
0.511300	-4.533997
0.511400	-4.370405
0.511500	-4.348008
0.511600	-4.486607
0.511700	-4.751145
0.511800	-4.887797
0.511900	-4.764129
0.512000	-4.526856
0.512100	-4.445060
0.512200	-4.583334
0.512300	-4.812168
0.512400	-4.926098
0.512500	-4.860856
0.512600	-4.752119
0.512700	-4.714792
0.512800	-4.728100
0.512900	-4.775165
0.513000	-4.808273
0.513100	-4.789447
0.513200	-4.774516
0.513300	-4.744329
0.513400	-4.731345
0.513500	-4.672595
0.513600	-4.575868
0.513700	-4.478168
0.513800	-4.387932
0.513900	-4.369431
0.514000	-4.346710
0.514100	-4.320418
0.514200	-4.179548
0.514300	-4.106516
0.514400	-4.053609
0.514500	-3.906247
0.514600	-3.894562
0.514700	-3.883201
0.514800	-3.799783
0.514900	-3.738436
0.515000	-3.637490
0.515100	-3.580363
0.515200	-3.598864
0.515300	-3.630349
0.515400	-3.647228
0.515500	-3.647228
0.515600	-3.671896
0.515700	-3.634893
0.515800	-3.613795
0.515900	-3.661509
0.516000	-3.668326
0.516100	-3.702407
0.516200	-3.776412
0.516300	-3.798809
0.516400	-3.717663
0.516500	-3.643332
0.516600	-3.343091
0.516700	-3.431054
0.516800	-3.605031
0.516900	-4.013685
0.517000	-3.895535
0.517100	-3.717013
0.517200	-3.543685
0.517300	-3.486882
0.517400	-3.554396
0.517500	-3.786799
0.517600	-3.819582
0.517700	-3.721558
0.517800	-3.545957
0.517900	-3.484610
0.518000	-3.394376
0.518100	-3.474873
0.518200	-3.538491
0.518300	-3.506033
0.518400	-3.449231
0.518500	-3.409631
0.518600	-3.376524
0.518700	-3.369707
0.518800	-3.321020
0.518900	-3.396972
0.519000	-3.461565
0.519100	-3.420992
0.519200	-3.487856
0.519300	-3.485909
0.519400	-3.453126
0.519500	-3.382366
0.519600	-3.390805
0.519700	-3.564134
0.519800	-3.760832
0.519900	-3.717987
0.520000	-3.526482
0.520100	-3.365163
0.520200	-3.395350
0.520300	-3.601786
0.520400	-3.828022
0.520500	-3.775439
0.520600	-3.628402
0.520700	-3.474873
0.520800	-3.453450
0.520900	-3.546931
0.521000	-3.624507
0.521100	-3.615743
0.521200	-3.599838
0.521300	-3.521613
0.521400	-3.582310
0.521500	-3.601461
0.521600	-3.688774
0.521700	-3.697863
0.521800	-3.677089
0.521900	-3.719610
0.522000	-3.772842
0.522100	-3.797835
0.522200	-3.784527
0.522300	-3.766026
0.522400	-3.775763
0.522500	-3.866647
0.522600	-3.953636
0.522700	-3.963698
0.522800	-3.946171
0.522900	-3.813740
0.523000	-3.869893
0.523100	-3.878981
0.523200	-3.866323
0.523300	-3.844575
0.523400	-3.835487
0.523500	-3.824776
0.523600	-3.805301
0.523700	-3.774465
0.523800	-3.759534
0.523900	-3.732269
0.524000	-3.709223
0.524100	-3.654693
0.524200	-3.660211
0.524300	-3.613146
0.524400	-3.606654
0.524500	-3.577117
0.524600	-3.593996
0.524700	-3.605681
0.524800	-3.704030
0.524900	-3.947469
0.525000	-4.142221
0.525100	-3.990314
0.525200	-3.833215
0.525300	-3.643332
0.525400	-3.831592
0.525500	-4.127939
0.525600	-4.369106
0.525700	-4.349631
0.525800	-4.187663
0.525900	-4.089638
0.526000	-4.125991
0.526100	-4.315550
0.526200	-4.459666
0.526300	-4.530101
0.526400	-4.508679
0.526500	-4.455122
0.526600	-4.454148
0.526700	-4.529452
0.526800	-4.569376
0.526900	-4.581711
0.527000	-4.565806
0.527100	-4.587878
0.527200	-4.668376
0.527300	-4.702457
0.527400	-4.696939
0.527500	-4.662208
0.527600	-4.640786
0.527700	-4.699860
0.527800	-4.740109
0.527900	-4.747899
0.528000	-4.620337
0.528100	-4.517118
0.528200	-4.590475
0.528300	-4.747250
0.528400	-4.937134
0.528500	-4.977383
0.528600	-4.796912
0.528700	-4.637540
0.528800	-4.636241
0.528900	-4.837161
0.529000	-5.057881
0.529100	-5.164670
0.529200	-5.139028
0.529300	-5.021527
0.529400	-4.966671
0.529500	-5.044897
0.529600	-5.128965
0.529700	-5.206867
0.529800	-5.202322
0.529900	-5.226342
0.530000	-5.233158
0.530100	-5.241598
0.530200	-5.181224
0.530300	-5.122474
0.530400	-5.101375
0.530500	-5.140001
0.530600	-5.181873
0.530700	-5.230886
0.530800	-5.197778
0.530900	-5.081900
0.531000	-5.062749
0.531100	-4.918308
0.531200	-4.942977
0.531300	-4.923501
0.531400	-4.864751
0.531500	-4.773866
0.531600	-4.652146
0.531700	-4.549252
0.531800	-4.496669
0.531900	-4.442138
0.532000	-4.447007
0.532100	-4.351254
0.532200	-4.371379
0.532300	-4.248685
0.532400	-4.171758
0.532500	-4.052310
0.532600	-3.954610
0.532700	-3.953961
0.532800	-3.802055
0.532900	-3.793615
0.533000	-3.602759
0.533100	-3.447932
0.533200	-3.074011
0.533300	-2.735470
0.533400	-2.739040
0.533500	-2.857513
0.533600	-3.077257
0.533700	-2.740663
0.533800	-2.599794
0.533900	-2.270666
0.534000	-2.272614
0.534100	-2.388165
0.534200	-2.526113
0.534300	-2.609207
0.534400	-2.423545
0.534500	-2.271315
0.534600	-2.228795
0.534700	-2.263525
0.534800	-2.338829
0.534900	-2.373234
0.535000	-2.411211
0.535100	-2.349215
0.535200	-2.393359
0.535300	-2.383621
0.535400	-2.423869
0.535500	-2.405044
0.535600	-2.450810
0.535700	-2.554677
0.535800	-2.523517
0.535900	-2.637121
0.536000	-2.610830
0.536100	-2.576099
0.536200	-2.543965
0.536300	-2.596548
0.536400	-2.929571
0.536500	-3.007796
0.536600	-2.942554
0.536700	-2.784157
0.536800	-2.675422
0.536900	-2.790974
0.537000	-3.051939
0.537100	-3.249936
0.537200	-3.245067
0.537300	-3.083099
0.537400	-2.934115
0.537500	-3.000655
0.537600	-3.161324
0.537700	-3.282719
0.537800	-3.281745
0.537900	-3.294404
0.538000	-3.224293
0.538100	-3.269735
0.538200	-3.331731
0.538300	-3.416123
0.538400	-3.410605
0.538500	-3.379769
0.538600	-3.386261
0.538700	-3.386910
0.538800	-3.367435
0.538900	-3.343416
0.539000	-3.313879
0.539100	-3.304466
0.539200	-3.387884
0.539300	-3.420018
0.539400	-3.411254
0.539500	-3.331406
0.539600	-3.249286
0.539700	-3.290184
0.539800	-3.283692
0.539900	-3.274279
0.540000	-3.259349
0.540100	-3.237601
0.540200	-3.229811
0.540300	-3.237277
0.540400	-3.252208
0.540500	-3.290509
0.540600	-3.287263
0.540700	-3.326213
0.540800	-3.346013
0.540900	-3.399894
0.541000	-3.420018
0.541100	-3.443064
0.541200	-3.529728
0.541300	-3.595943
0.541400	-3.671896
0.541500	-3.853664
0.541600	-4.110736
0.541700	-4.234079
0.541800	-4.030238
0.541900	-3.878008
0.542000	-3.848470
0.542100	-4.077628
0.542200	-4.384037
0.542300	-4.436296
0.542400	-4.368782
0.542500	-4.168512
0.542600	-4.106192
0.542700	-4.189935
0.542800	-4.410978
0.542900	-4.543734
0.543000	-4.553147
0.543100	-4.467132
0.543200	-4.473299
0.543300	-4.520364
0.543400	-4.583334
0.543500	-4.600861
0.543600	-4.603134
0.543700	-4.571649
0.543800	-4.580737
0.543900	-4.615468
0.544000	-4.699536
0.544100	-4.587878
0.544200	-4.598265
0.544300	-4.612547
0.544400	-4.616442
0.544500	-4.620337
0.544600	-4.540813
0.544700	-4.362615
0.544800	-4.239596
0.544900	-4.342166
0.545000	-4.509328
0.545100	-4.642084
0.545200	-4.566455
0.545300	-4.330481
0.545400	-4.175328
0.545500	-4.189935
0.545600	-4.367808
0.545700	-4.576193
0.545800	-4.617091
0.545900	-4.530101
0.546000	-4.383064
0.546100	-4.310681
0.546200	-4.339894
0.546300	-4.414549
0.546400	-4.463561
0.546500	-4.462912
0.546600	-4.399618
0.546700	-4.344762
0.546800	-4.307760
0.546900	-4.253878
0.547000	-4.142545
0.547100	-4.083146
0.547200	-4.100674
0.547300	-4.026993
0.547400	-4.014334
0.547500	-3.917283
0.547600	-3.821205
0.547700	-3.794589
0.547800	-3.634244
0.547900	-3.650473
0.548000	-3.609576
0.548100	-3.525184
0.548200	-3.447932
0.548300	-3.301869
0.548400	-3.224618
0.548500	-3.170088
0.548600	-3.134059
0.548700	-3.156780
0.548800	-3.120102
0.548900	-3.178852
0.549000	-3.092188
0.549100	-3.078230
0.549200	-3.018182
0.549300	-3.042202
0.549400	-2.992540
0.549500	-3.072388
0.549600	-3.088942
0.549700	-3.056483
0.549800	-2.987996
0.549900	-2.691651
0.550000	-2.575450
0.550100	-2.654324
0.550200	-3.062650
0.550300	-3.109391
0.550400	-2.996435
0.550500	-2.766954
0.550600	-2.595250
0.550700	-2.628682
0.550800	-2.803957
0.550900	-2.947098
0.551000	-2.900358
0.551100	-2.790324
0.551200	-2.683861
0.551300	-2.626410
0.551400	-2.625436
0.551500	-2.658868
0.551600	-2.701713
0.551700	-2.725408
0.551800	-2.714696
0.551900	-2.700415
0.552000	-2.713073
0.552100	-2.681264
0.552200	-2.696844
0.552300	-2.769226
0.552400	-2.849074
0.552500	-2.856215
0.552600	-2.841284
0.552700	-2.776692
0.552800	-2.755918
0.552900	-2.716319
0.553000	-2.870497
0.553100	-3.065247
0.553200	-3.053887
0.553300	-2.921781
0.553400	-2.719890
0.553500	-2.689054
0.553600	-2.822134
0.553700	-3.060378
0.553800	-3.113935
0.553900	-3.031490
0.554000	-2.860759
0.554100	-2.820186
0.554200	-2.892568
0.554300	-3.010392
0.554400	-3.023051
0.554500	-3.044474
0.554600	-3.011042
0.554700	-3.047395
0.554800	-3.119777
0.554900	-3.171386
0.555000	-3.217802
0.555100	-3.165219
0.555200	-3.203195
0.555300	-3.291482
0.555400	-3.303167
0.555500	-3.305115
0.555600	-3.275253
0.555700	-3.271683
0.555800	-3.329134
0.555900	-3.469355
0.556000	-3.487532
0.556100	-3.486558
0.556200	-3.399245
0.556300	-3.403789
0.556400	-3.470978
0.556500	-3.472276
0.556600	-3.487532
0.556700	-3.489804
0.556800	-3.497269
0.556900	-3.522262
0.557000	-3.532974
0.557100	-3.544009
0.557200	-3.566730
0.557300	-3.574520
0.557400	-3.565432
0.557500	-3.576793
0.557600	-3.521613
0.557700	-3.549852
0.557800	-3.514472
0.557900	-3.636841
0.558000	-3.662808
0.558100	-3.703705
0.558200	-3.914361
0.558300	-4.103595
0.558400	-4.092234
0.558500	-3.825749
0.558600	-3.738111
0.558700	-3.754990
0.558800	-4.090611
0.558900	-4.331130
0.559000	-4.366185
0.559100	-4.261344
0.559200	-4.103595
0.559300	-4.106192
0.559400	-4.218498
0.559500	-4.396696
0.559600	-4.458692
0.559700	-4.443761
0.559800	-4.393775
0.559900	-4.407408
0.560000	-4.492774
0.560100	-4.516469
0.560200	-4.542760
0.560300	-4.544708
0.560400	-4.581711
0.560500	-4.634618
0.560600	-4.703756
0.560700	-4.732968
0.560800	-4.745627
0.560900	-4.756663
0.561000	-4.809571
0.561100	-4.833915
0.561200	-4.914413
0.561300	-4.843328
0.561400	-4.741732
0.561500	-4.729398
0.561600	-4.838784
0.561700	-5.044248
0.561800	-5.145519
0.561900	-5.047494
0.562000	-4.797237
0.562100	-4.713818
0.562200	-4.830994
0.562300	-5.050091
0.562400	-5.139352
0.562500	-5.090989
0.562600	-4.963426
0.562700	-4.879682
0.562800	-4.891367
0.562900	-4.929019
0.563000	-4.939406
0.563100	-4.905324
0.563200	-4.897210
0.563300	-4.895262
0.563400	-4.859233
0.563500	-4.815738
0.563600	-4.703106
0.563700	-4.597616
0.563800	-4.543085
0.563900	-4.545357
0.564000	-4.527829
0.564100	-4.482387
0.564200	-4.314576
0.564300	-4.215902
0.564400	-3.976682
0.564500	-3.963374
0.564600	-3.942600
0.564700	-3.915660
0.564800	-3.819258
0.564900	-3.741357
0.565000	-3.607628
0.565100	-3.545308
0.565200	-3.540439
0.565300	-3.517718
0.565400	-3.511226
0.565500	-3.491751
0.565600	-3.478768
0.565700	-3.454099
0.565800	-3.380743
0.565900	-3.389832
0.566000	-3.328485
0.566100	-3.309659
0.566200	-3.351206
0.566300	-3.339196
0.566400	-3.244093
0.566500	-3.043500
0.566600	-2.758191
0.566700	-2.713398
0.566800	-2.922430
0.566900	-3.239224
0.567000	-3.062326
0.567100	-2.937036
0.567200	-2.633226
0.567300	-2.492032
0.567400	-2.618944
0.567500	-2.703336
0.567600	-2.836415
0.567700	-2.740663
0.567800	-2.628682
0.567900	-2.508261
0.568000	-2.491707
0.568100	-2.524490
0.568200	-2.518323
0.568300	-2.574476
0.568400	-2.524815
0.568500	-2.507287
0.568600	-2.516700
0.568700	-2.505015
0.568800	-2.536175
0.568900	-2.563765
0.569000	-2.640042
0.569100	-2.626734
0.569200	-2.673799
0.569300	-2.756243
0.569400	-2.638419
0.569500	-2.623488
0.569600	-2.546237
0.569700	-2.790974
0.569800	-2.998383
0.569900	-2.983452
0.570000	-2.806554
0.570100	-2.686458
0.570200	-2.713073
0.570300	-2.918210
0.570400	-3.195081
0.570500	-3.192484
0.570600	-3.080827
0.570700	-2.913017
0.570800	-2.937036
0.570900	-3.111987
0.571000	-3.239224
0.571100	-3.240847
0.571200	-3.235978
0.571300	-3.169439
0.571400	-3.246690
0.571500	-3.303817
0.571600	-3.356399
0.571700	-3.348934
0.571800	-3.336275
0.571900	-3.376199
0.572000	-3.442414
0.572100	-3.508305
0.572200	-3.499217
0.572300	-3.499866
0.572400	-3.512525
0.572500	-3.634893
0.572600	-3.764727
0.572700	-3.793940
0.572800	-3.825100
0.572900	-3.805301
0.573000	-3.847172
0.573100	-3.893912
0.573200	-3.903325
0.573300	-3.941951
0.573400	-3.957531
0.573500	-3.966295
0.573600	-4.000052
0.573700	-3.983174
0.573800	-3.989016
0.573900	-3.947469
0.574000	-3.946820
0.574100	-3.916309
0.574200	-3.908194
0.574300	-3.890017
0.574400	-3.865024
0.574500	-3.857559
0.574600	-3.860156
0.574700	-3.860805
0.574800	-3.885473
0.574900	-4.120798
0.575000	-4.289258
0.575100	-4.147739
0.575200	-3.938056
0.575300	-3.834189
0.575400	-3.947794
0.575500	-4.190909
0.575600	-4.342490
0.575700	-4.332104
0.575800	-4.163643
0.575900	-4.081198
0.576000	-4.122421
0.576100	-4.275626
0.576200	-4.408706
0.576300	-4.417794
0.576400	-4.413575
0.576500	-4.357421
0.576600	-4.350930
0.576700	-4.385660
0.576800	-4.450253
0.576900	-4.478817
0.577000	-4.460964
0.577100	-4.456745
0.577200	-4.466482
0.577300	-4.492449
0.577400	-4.548278
0.577500	-4.488230
0.577600	-4.510302
0.577700	-4.503161
0.577800	-4.561262
0.577900	-4.594694
0.578000	-4.477194
0.578100	-4.342166
0.578200	-4.355474
0.578300	-4.592098
0.578400	-4.790420
0.578500	-4.835213
0.578600	-4.653120
0.578700	-4.464860
0.578800	-4.483361
0.578900	-4.686552
0.579000	-4.943626
0.579100	-4.993937
0.579200	-4.948495
0.579300	-4.816712
0.579400	-4.805027
0.579500	-4.830345
0.579600	-4.882279
0.579700	-4.894288
0.579800	-4.852741
0.579900	-4.841056
0.580000	-4.820607
0.580100	-4.805027
0.580200	-4.724529
0.580300	-4.583334
0.580400	-4.484010
0.580500	-4.440516
0.580600	-4.413899
0.580700	-4.387283
0.580800	-4.292179
0.580900	-4.142221
0.581000	-3.995832
0.581100	-3.829644
0.581200	-3.849444
0.581300	-3.805625
0.581400	-3.758560
0.581500	-3.641710
0.581600	-3.552449
0.581700	-3.438844
0.581800	-3.355750
0.581900	-3.337573
0.582000	-3.358996
0.582100	-3.305115
0.582200	-3.275902
0.582300	-3.224618
0.582400	-3.194432
0.582500	-3.135357
0.582600	-3.160350
0.582700	-3.146718
0.582800	-3.207740
0.582900	-3.245716
0.583000	-3.243119
0.583100	-3.139252
0.583200	-2.916263
0.583300	-2.699441
0.583400	-2.776043
0.583500	-3.045772
0.583600	-3.348609
0.583700	-3.217153
0.583800	-3.102574
0.583900	-2.918860
0.584000	-2.903604
0.584100	-3.023051
0.584200	-3.193458
0.584300	-3.212933
0.584400	-3.050965
0.584500	-2.945476
0.584600	-2.889647
0.584700	-3.005524
0.584800	-3.000006
0.584900	-3.065896
0.585000	-3.030517
0.585100	-3.010717
0.585200	-2.966249
0.585300	-2.950020
0.585400	-2.958459
0.585500	-2.921781
0.585600	-2.991566
0.585700	-3.026946
0.585800	-2.987347
0.585900	-3.041228
0.586000	-3.033438
0.586100	-2.919833
0.586200	-2.900358
0.586300	-2.876015
0.586400	-3.135682
0.586500	-3.227864
0.586600	-3.102899
0.586700	-2.907499
0.586800	-2.781236
0.586900	-2.891919
0.587000	-3.070765
0.587100	-3.238251
0.587200	-3.134708
0.587300	-2.951643
0.587400	-2.862382
0.587500	-2.945476
0.587600	-3.093486
0.587700	-3.146718
0.587800	-3.095109
0.587900	-3.114908
0.588000	-3.046421
0.588100	-3.129190
0.588200	-3.159052
0.588300	-3.188589
0.588400	-3.143472
0.588500	-3.116531
0.588600	-3.155806
0.588700	-3.162622
0.588800	-3.146718
0.588900	-3.109715
0.589000	-3.078555
0.589100	-3.094460
0.589200	-3.210012
0.589300	-3.280122
0.589400	-3.282719
0.589500	-3.250909
0.589600	-3.138928
0.589700	-3.162622
0.589800	-3.154508
0.589900	-3.114259
0.590000	-3.092837
0.590100	-3.073362
0.590200	-3.050316
0.590300	-3.054860
0.590400	-3.068168
0.590500	-3.085696
0.590600	-3.105820
0.590700	-3.130164
0.590800	-3.158078
0.590900	-3.175606
0.591000	-3.220723
0.591100	-3.218451
0.591200	-3.326862
0.591300	-3.366786
0.591400	-3.440467
0.591500	-3.629700
0.591600	-3.874762
0.591700	-3.945522
0.591800	-3.727400
0.591900	-3.586205
0.592000	-3.556344
0.592100	-3.744603
0.592200	-3.977980
0.592300	-4.092559
0.592400	-4.060100
0.592500	-3.920528
0.592600	-3.938381
0.592700	-4.034783
0.592800	-4.238298
0.592900	-4.400267
0.593000	-4.480764
0.593100	-4.426883
0.593200	-4.417794
0.593300	-4.486282
0.593400	-4.584307
0.593500	-4.601186
0.593600	-4.643707
0.593700	-4.629100
0.593800	-4.669025
0.593900	-4.717388
0.594000	-4.823204
0.594100	-4.785876
0.594200	-4.685903
0.594300	-4.643382
0.594400	-4.725503
0.594500	-4.708624
0.594600	-4.698887
0.594700	-4.551200
0.594800	-4.427532
0.594900	-4.512574
0.595000	-4.714792
0.595100	-4.811843
0.595200	-4.736539
0.595300	-4.542760
0.595400	-4.417470
0.595500	-4.470053
0.595600	-4.640461
0.595700	-4.793017
0.595800	-4.825476
0.595900	-4.731021
0.596000	-4.640461
0.596100	-4.611573
0.596200	-4.613520
0.596300	-4.625205
0.596400	-4.647602
0.596500	-4.622933
0.596600	-4.620012
0.596700	-4.551524
0.596800	-4.501213
0.596900	-4.439542
0.597000	-4.314576
0.597100	-4.276924
0.597200	-4.259072
0.597300	-4.226938
0.597400	-4.239596
0.597500	-4.127614
