LabVIEW Measurement	
Writer_Version	2
Reader_Version	2
Separator	Tab
Decimal_Separator	.
Multi_Headings	Yes
X_Columns	One
Time_Pref	Relative
Operator	as989
Description	Time Domain Data
Date	1903/12/31
Time	19:00:00
***End_of_Header***	
	
Channels	1	
Samples	15000	
Date	1903/12/31	
Time	19:00:00	
X_Dimension	Time	
X0	0.0000000000000000E+0	
Delta_X	0.000100	
***End_of_Header***		
X_Value	Untitled	Comment
0.000000	-1.140145	Tare Values:0.000000, 0.000000, 0.000000, 0.000000\0D\0A
0.000100	-1.136250
0.000200	-1.161242
0.000300	-1.107362
0.000400	-1.141443
0.000500	-1.227457
0.000600	-1.280364
0.000700	-1.252125
0.000800	-1.230703
0.000900	-1.257968
0.001000	-1.298216
0.001100	-1.289128
0.001200	-1.263810
0.001300	-1.243686
0.001400	-1.236546
0.001500	-1.345605
0.001600	-1.415715
0.001700	-1.401433
0.001800	-1.384230
0.001900	-1.268030
0.002000	-1.326779
0.002100	-1.342035
0.002200	-1.357939
0.002300	-1.368326
0.002400	-1.366378
0.002500	-1.365405
0.002600	-1.361510
0.002700	-1.397538
0.002800	-1.394293
0.002900	-1.365729
0.003000	-1.423505
0.003100	-1.426426
0.003200	-1.446875
0.003300	-1.429347
0.003400	-1.471543
0.003500	-1.469271
0.003600	-1.481930
0.003700	-1.541328
0.003800	-1.606245
0.003900	-1.889606
0.004000	-1.974646
0.004100	-1.852603
0.004200	-1.682846
0.004300	-1.628641
0.004400	-1.750360
0.004500	-1.992174
0.004600	-2.185950
0.004700	-2.159334
0.004800	-1.996393
0.004900	-1.877271
0.005000	-1.945758
0.005100	-2.157062
0.005200	-2.268069
0.005300	-2.343048
0.005400	-2.267420
0.005500	-2.253463
0.005600	-2.237883
0.005700	-2.304747
0.005800	-2.330389
0.005900	-2.358953
0.006000	-2.355058
0.006100	-2.362523
0.006200	-2.388490
0.006300	-2.411211
0.006400	-2.471259
0.006500	-2.429387
0.006600	-2.433607
0.006700	-2.453406
0.006800	-2.516051
0.006900	-2.482944
0.007000	-2.343048
0.007100	-2.246647
0.007200	-2.296308
0.007300	-2.435554
0.007400	-2.570257
0.007500	-2.603364
0.007600	-2.427115
0.007700	-2.247621
0.007800	-2.243076
0.007900	-2.395306
0.008000	-2.565063
0.008100	-2.625111
0.008200	-2.567660
0.008300	-2.455354
0.008400	-2.402122
0.008500	-2.398552
0.008600	-2.423545
0.008700	-2.455029
0.008800	-2.455354
0.008900	-2.454705
0.009000	-2.387841
0.009100	-2.363497
0.009200	-2.266122
0.009300	-2.133043
0.009400	-2.055467
0.009500	-2.040861
0.009600	-2.035343
0.009700	-2.046055
0.009800	-1.962312
0.009900	-1.796126
0.010000	-1.743868
0.010100	-1.507247
0.010200	-1.559830
0.010300	-1.507247
0.010400	-1.458235
0.010500	-1.343658
0.010600	-1.258293
0.010700	-1.145987
0.010800	-1.084316
0.010900	-1.065491
0.011000	-1.124240
0.011100	-1.086264
0.011200	-1.124240
0.011300	-1.083018
0.011400	-1.047963
0.011500	-0.992460
0.011600	-0.988240
0.011700	-0.970388
0.011800	-1.041472
0.011900	-1.051858
0.012000	-0.953185
0.012100	-0.962274
0.012200	-0.633147
0.012300	-0.589004
0.012400	-0.460145
0.012500	-0.993758
0.012600	-1.009013
0.012700	-0.914235
0.012800	-0.596794
0.012900	-0.476374
0.013000	-0.490331
0.013100	-0.593873
0.013200	-0.750646
0.013300	-0.761682
0.013400	-0.653596
0.013500	-0.501367
0.013600	-0.405616
0.013700	-0.464365
0.013800	-0.455277
0.013900	-0.531553
0.014000	-0.482217
0.014100	-0.507534
0.014200	-0.496498
0.014300	-0.488384
0.014400	-0.532202
0.014500	-0.448136
0.014600	-0.561739
0.014700	-0.578293
0.014800	-0.698388
0.014900	-0.738312
0.015000	-0.755190
0.015100	-0.696441
0.015200	-0.657816
0.015300	-0.707801
0.015400	-0.910665
0.015500	-1.027515
0.015600	-0.912288
0.015700	-0.784727
0.015800	-0.626331
0.015900	-0.785701
0.016000	-0.992135
0.016100	-1.121319
0.016200	-1.033682
0.016300	-0.929166
0.016400	-0.857434
0.016500	-0.917157
0.016600	-1.016154
0.016700	-1.090159
0.016800	-1.034331
0.016900	-1.085615
0.017000	-1.063543
0.017100	-1.171629
0.017200	-1.220641
0.017300	-1.260889
0.017400	-1.235896
0.017500	-1.158321
0.017600	-1.184612
0.017700	-1.272899
0.017800	-1.279390
0.017900	-1.230378
0.018000	-1.229405
0.018100	-1.249853
0.018200	-1.429023
0.018300	-1.467648
0.018400	-1.498808
0.018500	-1.492641
0.018600	-1.432918
0.018700	-1.455963
0.018800	-1.498808
0.018900	-1.484851
0.019000	-1.478684
0.019100	-1.475114
0.019200	-1.495887
0.019300	-1.508870
0.019400	-1.497834
0.019500	-1.507896
0.019600	-1.509195
0.019700	-1.514063
0.019800	-1.497185
0.019900	-1.561452
0.020000	-1.538732
0.020100	-1.565997
0.020200	-1.578331
0.020300	-1.655581
0.020400	-1.634484
0.020500	-1.791257
0.020600	-2.036642
0.020700	-2.113243
0.020800	-1.917195
0.020900	-1.726990
0.021000	-1.741920
0.021100	-1.884412
0.021200	-2.182055
0.021300	-2.274236
0.021400	-2.172642
0.021500	-2.017167
0.021600	-1.916546
0.021700	-2.050923
0.021800	-2.222303
0.021900	-2.350514
0.022000	-2.295984
0.022100	-2.276184
0.022200	-2.251191
0.022300	-2.248919
0.022400	-2.316432
0.022500	-2.341750
0.022600	-2.334284
0.022700	-2.321950
0.022800	-2.360576
0.022900	-2.430036
0.023000	-2.503068
0.023100	-2.477426
0.023200	-2.463469
0.023300	-2.444318
0.023400	-2.489111
0.023500	-2.537474
0.023600	-2.487163
0.023700	-2.340776
0.023800	-2.264824
0.023900	-2.347917
0.024000	-2.513454
0.024100	-2.622839
0.024200	-2.590705
0.024300	-2.360900
0.024400	-2.224575
0.024500	-2.260929
0.024600	-2.442371
0.024700	-2.597846
0.024800	-2.593951
0.024900	-2.499822
0.025000	-2.420624
0.025100	-2.414132
0.025200	-2.467364
0.025300	-2.519622
0.025400	-2.509235
0.025500	-2.451134
0.025600	-2.434581
0.025700	-2.415430
0.025800	-2.386867
0.025900	-2.309291
0.026000	-2.174265
0.026100	-2.113568
0.026200	-2.105778
0.026300	-2.095391
0.026400	-2.114217
0.026500	-1.965558
0.026600	-1.819171
0.026700	-1.715305
0.026800	-1.610140
0.026900	-1.625071
0.027000	-1.573787
0.027100	-1.508546
0.027200	-1.418961
0.027300	-1.339763
0.027400	-1.254398
0.027500	-1.229080
0.027600	-1.207982
0.027700	-1.224861
0.027800	-1.199543
0.027900	-1.210254
0.028000	-1.154426
0.028100	-1.110283
0.028200	-1.090808
0.028300	-1.096651
0.028400	-1.124565
0.028500	-1.147285
0.028600	-1.123266
0.028700	-1.106388
0.028800	-0.979476
0.028900	-0.635420
0.029000	-0.638990
0.029100	-0.701634
0.029200	-1.172603
0.029300	-1.176822
0.029400	-1.073605
0.029500	-0.718188
0.029600	-0.636718
0.029700	-0.718512
0.029800	-0.810045
0.029900	-0.997978
0.030000	-0.928842
0.030100	-0.805176
0.030200	-0.626007
0.030300	-0.622112
0.030400	-0.639964
0.030500	-0.629252
0.030600	-0.643209
0.030700	-0.639315
0.030800	-0.610427
0.030900	-0.620164
0.031000	-0.638341
0.031100	-0.651649
0.031200	-0.607505
0.031300	-0.737338
0.031400	-0.638016
0.031500	-0.769796
0.031600	-0.754866
0.031700	-0.796737
0.031800	-0.734742
0.031900	-0.764928
0.032000	-0.786350
0.032100	-1.061596
0.032200	-1.087562
0.032300	-1.009338
0.032400	-0.748699
0.032500	-0.729224
0.032600	-0.844775
0.032700	-1.094379
0.032800	-1.159295
0.032900	-1.066140
0.033000	-0.899629
0.033100	-0.845424
0.033200	-0.951562
0.033300	-1.059973
0.033400	-1.112880
0.033500	-1.063219
0.033600	-1.050235
0.033700	-1.019075
0.033800	-1.099572
0.033900	-1.160593
0.034000	-1.126837
0.034100	-1.073605
0.034200	-1.102493
0.034300	-1.157997
0.034400	-1.193701
0.034500	-1.165462
0.034600	-1.141768
0.034700	-1.154102
0.034800	-1.180068
0.034900	-1.298865
0.035000	-1.307304
0.035100	-1.282636
0.035200	-1.284584
0.035300	-1.177472
0.035400	-1.213500
0.035500	-1.187858
0.035600	-1.190455
0.035700	-1.207658
0.035800	-1.205710
0.035900	-1.220966
0.036000	-1.217071
0.036100	-1.199868
0.036200	-1.226808
0.036300	-1.234273
0.036400	-1.268679
0.036500	-1.246608
0.036600	-1.286531
0.036700	-1.298216
0.036800	-1.334569
0.036900	-1.333920
0.037000	-1.370598
0.037100	-1.407600
0.037200	-1.648765
0.037300	-1.857472
0.037400	-1.868183
0.037500	-1.658827
0.037600	-1.511142
0.037700	-1.580603
0.037800	-1.869806
0.037900	-2.139859
0.038000	-2.226198
0.038100	-2.046055
0.038200	-1.920766
0.038300	-1.918169
0.038400	-2.105129
0.038500	-2.298256
0.038600	-2.372261
0.038700	-2.340776
0.038800	-2.273912
0.038900	-2.295984
0.039000	-2.333311
0.039100	-2.421922
0.039200	-2.465741
0.039300	-2.451134
0.039400	-2.431335
0.039500	-2.428089
0.039600	-2.452108
0.039700	-2.495602
0.039800	-2.482294
0.039900	-2.458600
0.040000	-2.477426
0.040100	-2.470285
0.040200	-2.546562
0.040300	-2.440748
0.040400	-2.292738
0.040500	-2.305721
0.040600	-2.383296
0.040700	-2.572204
0.040800	-2.663412
0.040900	-2.538123
0.041000	-2.320327
0.041100	-2.237234
0.041200	-2.326494
0.041300	-2.501120
0.041400	-2.646534
0.041500	-2.595250
0.041600	-2.448538
0.041700	-2.370638
0.041800	-2.372585
0.041900	-2.421273
0.042000	-2.427115
0.042100	-2.428089
0.042200	-2.416404
0.042300	-2.368366
0.042400	-2.320652
0.042500	-2.264499
0.042600	-2.173940
0.042700	-2.068775
0.042800	-2.026255
0.042900	-2.053845
0.043000	-2.050274
0.043100	-2.029825
0.043200	-1.887983
0.043300	-1.804240
0.043400	-1.613386
0.043500	-1.627992
0.043600	-1.673758
0.043700	-1.656231
0.043800	-1.566646
0.043900	-1.514713
0.044000	-1.396889
0.044100	-1.314770
0.044200	-1.333271
0.044300	-1.339438
0.044400	-1.331973
0.044500	-1.284908
0.044600	-1.307304
0.044700	-1.292049
0.044800	-1.213176
0.044900	-1.245634
0.045000	-1.217071
0.045100	-1.260889
0.045200	-1.239791
0.045300	-1.320612
0.045400	-1.213500
0.045500	-1.126512
0.045600	-0.825625
0.045700	-0.836011
0.045800	-0.989538
0.045900	-1.367352
0.046000	-1.257319
0.046100	-1.077825
0.046200	-0.877233
0.046300	-0.712345
0.046400	-0.914560
0.046500	-1.086589
0.046600	-1.154426
0.046700	-1.049911
0.046800	-0.867496
0.046900	-0.708450
0.047000	-0.659439
0.047100	-0.740909
0.047200	-0.750646
0.047300	-0.749672
0.047400	-0.742207
0.047500	-0.647104
0.047600	-0.617892
0.047700	-0.618217
0.047800	-0.572775
0.047900	-0.558169
0.048000	-0.662684
0.048100	-0.688326
0.048200	-0.675668
0.048300	-0.643209
0.048400	-0.603935
0.048500	-0.572126
0.048600	-0.588031
0.048700	-0.698064
0.048800	-0.947343
0.048900	-0.862627
0.049000	-0.764603
0.049100	-0.507534
0.049200	-0.592575
0.049300	-0.766875
0.049400	-0.979152
0.049500	-0.982722
0.049600	-0.853539
0.049700	-0.673396
0.049800	-0.635744
0.049900	-0.764279
0.050000	-0.886646
0.050100	-0.884698
0.050200	-0.870417
0.050300	-0.820756
0.050400	-0.854837
0.050500	-0.910016
0.050600	-0.959677
0.050700	-0.949290
0.050800	-0.912613
0.050900	-0.952212
0.051000	-1.004145
0.051100	-0.996030
0.051200	-1.000899
0.051300	-0.977204
0.051400	-0.999276
0.051500	-1.089510
0.051600	-1.199543
0.051700	-1.219343
0.051800	-1.220316
0.051900	-1.207333
0.052000	-1.137873
0.052100	-1.146961
0.052200	-1.157672
0.052300	-1.153777
0.052400	-1.157997
0.052500	-1.164164
0.052600	-1.158646
0.052700	-1.190455
0.052800	-1.182340
0.052900	-1.195648
0.053000	-1.209605
0.053100	-1.197920
0.053200	-1.216421
0.053300	-1.214474
0.053400	-1.251801
0.053500	-1.252450
0.053600	-1.313796
0.053700	-1.339114
0.053800	-1.411820
0.053900	-1.687066
0.054000	-1.879544
0.054100	-1.767238
0.054200	-1.557882
0.054300	-1.428698
0.054400	-1.511791
0.054500	-1.832479
0.054600	-2.037940
0.054700	-2.079811
0.054800	-1.909730
0.054900	-1.776326
0.055000	-1.776651
0.055100	-1.960040
0.055200	-2.160632
0.055300	-2.204127
0.055400	-2.167773
0.055500	-2.121682
0.055600	-2.080785
0.055700	-2.146675
0.055800	-2.192766
0.055900	-2.244699
0.056000	-2.224575
0.056100	-2.216136
0.056200	-2.281702
0.056300	-2.323898
0.056400	-2.360251
0.056500	-2.307669
0.056600	-2.299229
0.056700	-2.318380
0.056800	-2.379401
0.056900	-2.356681
0.057000	-2.260279
0.057100	-2.155114
0.057200	-2.208022
0.057300	-2.358304
0.057400	-2.553378
0.057500	-2.616672
0.057600	-2.453082
0.057700	-2.247621
0.057800	-2.204451
0.057900	-2.390762
0.058000	-2.604662
0.058100	-2.728978
0.058200	-2.694572
0.058300	-2.533254
0.058400	-2.452108
0.058500	-2.445292
0.058600	-2.506638
0.058700	-2.566037
0.058800	-2.555975
0.058900	-2.558247
0.059000	-2.478724
0.059100	-2.419974
0.059200	-2.403421
0.059300	-2.307669
0.059400	-2.219057
0.059500	-2.193091
0.059600	-2.177511
0.059700	-2.181730
0.059800	-2.112269
0.059900	-1.957443
0.060000	-1.914598
0.060100	-1.679925
0.060200	-1.741271
0.060300	-1.705243
0.060400	-1.703944
0.060500	-1.589367
0.060600	-1.492966
0.060700	-1.373844
0.060800	-1.326130
0.060900	-1.331648
0.061000	-1.334245
0.061100	-1.324507
0.061200	-1.350798
0.061300	-1.320937
0.061400	-1.249853
0.061500	-1.200192
0.061600	-1.162865
0.061700	-1.161242
0.061800	-1.190130
0.061900	-1.207982
0.062000	-1.181367
0.062100	-1.156698
0.062200	-0.821405
0.062300	-0.674694
0.062400	-0.574398
0.062500	-0.934360
0.062600	-1.086913
0.062700	-1.055104
0.062800	-0.843477
0.062900	-0.609453
0.063000	-0.535124
0.063100	-0.676641
0.063200	-0.804851
0.063300	-0.850617
0.063400	-0.764928
0.063500	-0.628603
0.063600	-0.542914
0.063700	-0.574074
0.063800	-0.592899
0.063900	-0.648727
0.064000	-0.612699
0.064100	-0.641911
0.064200	-0.616918
0.064300	-0.619515
0.064400	-0.612699
0.064500	-0.626007
0.064600	-0.693195
0.064700	-0.737338
0.064800	-0.761682
0.064900	-0.804851
0.065000	-0.771744
0.065100	-0.727601
0.065200	-0.701310
0.065300	-0.694169
0.065400	-0.909691
0.065500	-1.030760
0.065600	-0.954159
0.065700	-0.860030
0.065800	-0.605883
0.065900	-0.757462
0.066000	-0.908393
0.066100	-1.093729
0.066200	-1.077176
0.066300	-0.958379
0.066400	-0.783429
0.066500	-0.788298
0.066600	-0.912937
0.066700	-1.036603
0.066800	-1.016803
0.066900	-1.095677
0.067000	-1.058999
0.067100	-1.118722
0.067200	-1.138846
0.067300	-1.165137
0.067400	-1.155075
0.067500	-1.176498
0.067600	-1.209605
0.067700	-1.273548
0.067800	-1.266407
0.067900	-1.244985
0.068000	-1.225834
0.068100	-1.212202
0.068200	-1.338464
0.068300	-1.417013
0.068400	-1.401109
0.068500	-1.390398
0.068600	-1.322884
0.068700	-1.355992
0.068800	-1.339438
0.068900	-1.336192
0.069000	-1.322235
0.069100	-1.311199
0.069200	-1.305032
0.069300	-1.302111
0.069400	-1.295619
0.069500	-1.316068
0.069600	-1.322884
0.069700	-1.332946
0.069800	-1.318016
0.069900	-1.333920
0.070000	-1.330025
0.070100	-1.329701
0.070200	-1.381634
0.070300	-1.385204
0.070400	-1.443304
0.070500	-1.502378
0.070600	-1.788660
0.070700	-1.847410
0.070800	-1.678627
0.070900	-1.479658
0.071000	-1.406951
0.071100	-1.577032
0.071200	-1.861042
0.071300	-2.042809
0.071400	-1.961014
0.071500	-1.735104
0.071600	-1.658178
0.071700	-1.717901
0.071800	-1.907133
0.071900	-2.035019
0.072000	-2.069749
0.072100	-1.986980
0.072200	-1.985358
0.072300	-1.998341
0.072400	-2.059362
0.072500	-2.093119
0.072600	-2.091496
0.072700	-2.100909
0.072800	-2.115191
0.072900	-2.218733
0.073000	-2.244375
0.073100	-2.278456
0.073200	-2.269368
0.073300	-2.275210
0.073400	-2.328766
0.073500	-2.340127
0.073600	-2.326819
0.073700	-2.198284
0.073800	-2.127200
0.073900	-2.255735
0.074000	-2.420299
0.074100	-2.576099
0.074200	-2.586486
0.074300	-2.414456
0.074400	-2.235286
0.074500	-2.252814
0.074600	-2.420299
0.074700	-2.626734
0.074800	-2.680940
0.074900	-2.620567
0.075000	-2.510209
0.075100	-2.460223
0.075200	-2.467364
0.075300	-2.486189
0.075400	-2.504366
0.075500	-2.480022
0.075600	-2.435879
0.075700	-2.393359
0.075800	-2.355058
0.075900	-2.276509
0.076000	-2.126227
0.076100	-2.014570
0.076200	-1.988279
0.076300	-1.973348
0.076400	-1.987305
0.076500	-1.874350
0.076600	-1.701348
0.076700	-1.607543
0.076800	-1.438436
0.076900	-1.487123
0.077000	-1.465376
0.077100	-1.389424
0.077200	-1.294321
0.077300	-1.200841
0.077400	-1.107037
0.077500	-1.116126
0.077600	-1.083992
0.077700	-1.107686
0.077800	-1.092431
0.077900	-1.140794
0.078000	-1.131056
0.078100	-1.076526
0.078200	-1.074579
0.078300	-1.005768
0.078400	-1.086913
0.078500	-1.035954
0.078600	-1.107362
0.078700	-1.083992
0.078800	-1.041796
0.078900	-0.760384
0.079000	-0.602961
0.079100	-0.616594
0.079200	-0.966493
0.079300	-1.055429
0.079400	-0.991486
0.079500	-0.709424
0.079600	-0.646131
0.079700	-0.627630
0.079800	-0.766875
0.079900	-0.913911
0.080000	-0.903200
0.080100	-0.739610
0.080200	-0.672097
0.080300	-0.616594
0.080400	-0.726302
0.080500	-0.701634
0.080600	-0.702283
0.080700	-0.701634
0.080800	-0.675992
0.080900	-0.688326
0.081000	-0.693844
0.081100	-0.686054
0.081200	-0.696766
0.081300	-0.723706
0.081400	-0.784403
0.081500	-0.806474
0.081600	-0.821080
0.081700	-0.774990
0.081800	-0.719486
0.081900	-0.700660
0.082000	-0.775964
0.082100	-0.935982
0.082200	-1.049586
0.082300	-0.913586
0.082400	-0.742207
0.082500	-0.618866
0.082600	-0.725653
0.082700	-0.922675
0.082800	-1.066140
0.082900	-0.987266
0.083000	-0.843477
0.083100	-0.747725
0.083200	-0.828870
0.083300	-0.959352
0.083400	-1.019400
0.083500	-0.966493
0.083600	-0.974608
0.083700	-0.946044
0.083800	-1.053806
0.083900	-1.098273
0.084000	-1.088861
0.084100	-1.037577
0.084200	-1.054130
0.084300	-1.129758
0.084400	-1.177472
0.084500	-1.178445
0.084600	-1.144040
0.084700	-1.134302
0.084800	-1.146636
0.084900	-1.304383
0.085000	-1.343009
0.085100	-1.331648
0.085200	-1.316393
0.085300	-1.201491
0.085400	-1.253099
0.085500	-1.243362
0.085600	-1.212526
0.085700	-1.217395
0.085800	-1.223562
0.085900	-1.220966
0.086000	-1.227457
0.086100	-1.223238
0.086200	-1.235247
0.086300	-1.218693
0.086400	-1.262188
0.086500	-1.237844
0.086600	-1.270627
0.086700	-1.284908
0.086800	-1.294970
0.086900	-1.367028
0.087000	-1.337491
0.087100	-1.414417
0.087200	-1.572164
0.087300	-1.853901
0.087400	-1.904861
0.087500	-1.701997
0.087600	-1.531915
0.087700	-1.462130
0.087800	-1.747763
0.087900	-1.983085
0.088000	-2.136938
0.088100	-2.007105
0.088200	-1.864288
0.088300	-1.804889
0.088400	-1.927906
0.088500	-2.100260
0.088600	-2.204776
0.088700	-2.215487
0.088800	-2.139534
0.088900	-2.182379
0.089000	-2.215162
0.089100	-2.278131
0.089200	-2.332661
0.089300	-2.325196
0.089400	-2.310590
0.089500	-2.347917
0.089600	-2.410561
0.089700	-2.472232
0.089800	-2.446266
0.089900	-2.449836
0.090000	-2.479049
0.090100	-2.527736
0.090200	-2.522543
0.090300	-2.476776
0.090400	-2.351163
0.090500	-2.292089
0.090600	-2.398552
0.090700	-2.593302
0.090800	-2.734171
0.090900	-2.646858
0.091000	-2.460872
0.091100	-2.319678
0.091200	-2.359277
0.091300	-2.556624
0.091400	-2.737417
0.091500	-2.736119
0.091600	-2.601417
0.091700	-2.476452
0.091800	-2.467039
0.091900	-2.504366
0.092000	-2.533903
0.092100	-2.510209
0.092200	-2.476127
0.092300	-2.431010
0.092400	-2.400499
0.092500	-2.348241
0.092600	-2.290790
0.092700	-2.170045
0.092800	-2.118112
0.092900	-2.106752
0.093000	-2.074942
0.093100	-2.077215
0.093200	-1.924011
0.093300	-1.813004
0.093400	-1.627992
0.093500	-1.599104
0.093600	-1.592937
0.093700	-1.578980
0.093800	-1.512765
0.093900	-1.371896
0.094000	-1.277767
0.094100	-1.230703
0.094200	-1.197920
0.094300	-1.202140
0.094400	-1.172278
0.094500	-1.174875
0.094600	-1.174550
0.094700	-1.124565
0.094800	-1.086264
0.094900	-1.014856
0.095000	-1.107686
0.095100	-1.044068
0.095200	-1.132030
0.095300	-1.080746
0.095400	-1.119371
0.095500	-0.975906
0.095600	-0.673720
0.095700	-0.624059
0.095800	-0.743505
0.095900	-1.077500
0.096000	-1.095677
0.096100	-0.936632
0.096200	-0.715591
0.096300	-0.531229
0.096400	-0.597768
0.096500	-0.731171
0.096600	-0.829844
0.096700	-0.731820
0.096800	-0.604260
0.096900	-0.484164
0.097000	-0.479296
0.097100	-0.507859
0.097200	-0.528632
0.097300	-0.514026
0.097400	-0.496823
0.097500	-0.467935
0.097600	-0.444565
0.097700	-0.438398
0.097800	-0.420222
0.097900	-0.488059
0.098000	-0.449434
0.098100	-0.667553
0.098200	-0.595171
0.098300	-0.697090
0.098400	-0.592575
0.098500	-0.575696
0.098600	-0.555248
0.098700	-0.666904
0.098800	-0.879181
0.098900	-0.874636
0.099000	-0.831467
0.099100	-0.600040
0.099200	-0.643534
0.099300	-0.744804
0.099400	-0.959028
0.099500	-1.019075
0.099600	-0.943772
0.099700	-0.773042
0.099800	-0.703906
0.099900	-0.832441
0.100000	-0.949290
0.100100	-0.971037
0.100200	-0.960651
0.100300	-0.946694
0.100400	-0.938904
0.100500	-0.996030
0.100600	-1.025243
0.100700	-1.031085
0.100800	-0.992784
0.100900	-1.039200
0.101000	-1.068412
0.101100	-1.090159
0.101200	-1.046665
0.101300	-1.029137
0.101400	-1.015180
0.101500	-1.103142
0.101600	-1.215448
0.101700	-1.209281
0.101800	-1.205061
0.101900	-1.192402
0.102000	-1.118722
0.102100	-1.174550
0.102200	-1.162865
0.102300	-1.180717
0.102400	-1.188832
0.102500	-1.207009
0.102600	-1.226808
0.102700	-1.213825
0.102800	-1.226808
0.102900	-1.243686
0.103000	-1.251152
0.103100	-1.252125
0.103200	-1.259915
0.103300	-1.265433
0.103400	-1.316068
0.103500	-1.313147
0.103600	-1.333271
0.103700	-1.340736
0.103800	-1.410846
0.103900	-1.653309
0.104000	-1.866885
0.104100	-1.857472
0.104200	-1.625395
0.104300	-1.491667
0.104400	-1.519581
0.104500	-1.824040
0.104600	-2.041835
0.104700	-2.100909
0.104800	-1.957119
0.104900	-1.824040
0.105000	-1.871754
0.105100	-2.025930
0.105200	-2.191792
0.105300	-2.240155
0.105400	-2.203153
0.105500	-2.167124
0.105600	-2.174589
0.105700	-2.243076
0.105800	-2.312862
0.105900	-2.345969
0.106000	-2.359277
0.106100	-2.370638
0.106200	-2.424843
0.106300	-2.470609
0.106400	-2.489760
0.106500	-2.459574
0.106600	-2.454705
0.106700	-2.465741
0.106800	-2.544290
0.106900	-2.590056
0.107000	-2.471583
0.107100	-2.306695
0.107200	-2.322599
0.107300	-2.464442
0.107400	-2.662438
0.107500	-2.758515
0.107600	-2.596872
0.107700	-2.407316
0.107800	-2.367392
0.107900	-2.473531
0.108000	-2.700739
0.108100	-2.825055
0.108200	-2.790324
0.108300	-2.651078
0.108400	-2.577397
0.108500	-2.588109
0.108600	-2.646209
0.108700	-2.696520
0.108800	-2.698143
0.108900	-2.673799
0.109000	-2.654648
0.109100	-2.633875
0.109200	-2.578371
0.109300	-2.491383
0.109400	-2.391086
0.109500	-2.361225
0.109600	-2.373884
0.109700	-2.360900
0.109800	-2.306695
0.109900	-2.185625
0.110000	-2.097339
0.110100	-1.874350
0.110200	-1.882465
0.110300	-1.877596
0.110400	-1.860069
0.110500	-1.778598
0.110600	-1.682522
0.110700	-1.530293
0.110800	-1.498483
0.110900	-1.473166
0.111000	-1.477386
0.111100	-1.462130
0.111200	-1.452068
0.111300	-1.429997
0.111400	-1.406302
0.111500	-1.341386
0.111600	-1.337491
0.111700	-1.315744
0.111800	-1.305032
0.111900	-1.325156
0.112000	-1.323209
0.112100	-1.301137
0.112200	-1.107037
0.112300	-0.839582
0.112400	-0.874636
0.112500	-1.057052
0.112600	-1.342035
0.112700	-1.212526
0.112800	-1.050235
0.112900	-0.788622
0.113000	-0.790570
0.113100	-0.846398
0.113200	-1.127161
0.113300	-1.099247
0.113400	-0.995706
0.113500	-0.798684
0.113600	-0.691572
0.113700	-0.687677
0.113800	-0.740584
0.113900	-0.847047
0.114000	-0.773042
0.114100	-0.714618
0.114200	-0.684107
0.114300	-0.679563
0.114400	-0.717539
0.114500	-0.722732
0.114600	-0.729548
0.114700	-0.763629
0.114800	-0.828546
0.114900	-0.829844
0.115000	-0.840555
0.115100	-0.756164
0.115200	-0.668851
0.115300	-0.647754
0.115400	-0.822379
0.115500	-1.048937
0.115600	-1.003496
0.115700	-0.875286
0.115800	-0.664956
0.115900	-0.747076
0.116000	-0.910340
0.116100	-1.119047
0.116200	-1.140469
0.116300	-1.016479
0.116400	-0.885672
0.116500	-0.872364
0.116600	-1.021997
0.116700	-1.136899
0.116800	-1.128460
0.116900	-1.170331
0.117000	-1.119047
0.117100	-1.180068
0.117200	-1.198569
0.117300	-1.250827
0.117400	-1.302111
0.117500	-1.268679
0.117600	-1.313796
0.117700	-1.321586
0.117800	-1.328402
0.117900	-1.301137
0.118000	-1.327753
0.118100	-1.313472
0.118200	-1.444603
0.118300	-1.483877
0.118400	-1.521853
0.118500	-1.491667
0.118600	-1.382283
0.118700	-1.436813
0.118800	-1.471543
0.118900	-1.481281
0.119000	-1.482904
0.119100	-1.492641
0.119200	-1.479333
0.119300	-1.484851
0.119400	-1.486149
0.119500	-1.472517
0.119600	-1.490044
0.119700	-1.453691
0.119800	-1.482254
0.119900	-1.462130
0.120000	-1.467324
0.120100	-1.440059
0.120200	-1.479982
0.120300	-1.500756
0.120400	-1.550092
0.120500	-1.674732
0.120600	-1.871104
0.120700	-2.086952
0.120800	-1.906808
0.120900	-1.774703
0.121000	-1.640326
0.121100	-1.813329
0.121200	-2.094093
0.121300	-2.243726
0.121400	-2.230418
0.121500	-2.044107
0.121600	-1.922388
0.121700	-2.001911
0.121800	-2.125253
0.121900	-2.307344
0.122000	-2.308642
0.122100	-2.285272
0.122200	-2.241129
0.122300	-2.264499
0.122400	-2.309941
0.122500	-2.329091
0.122600	-2.358628
0.122700	-2.340451
0.122800	-2.343373
0.122900	-2.410237
0.123000	-2.467364
0.123100	-2.455679
0.123200	-2.419325
0.123300	-2.466065
0.123400	-2.487163
0.123500	-2.494304
0.123600	-2.483593
0.123700	-2.362523
0.123800	-2.245673
0.123900	-2.324547
0.124000	-2.479373
0.124100	-2.645560
0.124200	-2.674123
0.124300	-2.499822
0.124400	-2.372261
0.124500	-2.347592
0.124600	-2.485540
0.124700	-2.690353
0.124800	-2.775718
0.124900	-2.730276
0.125000	-2.590056
0.125100	-2.546562
0.125200	-2.548834
0.125300	-2.597522
0.125400	-2.638095
0.125500	-2.620567
0.125600	-2.612777
0.125700	-2.584863
0.125800	-2.555975
0.125900	-2.524815
0.126000	-2.406666
0.126100	-2.331363
0.126200	-2.302800
0.126300	-2.277158
0.126400	-2.285272
0.126500	-2.201530
0.126600	-2.002236
0.126700	-1.862665
0.126800	-1.717577
0.126900	-1.752956
0.127000	-1.704918
0.127100	-1.672460
0.127200	-1.571839
0.127300	-1.474464
0.127400	-1.322235
0.127500	-1.293672
0.127600	-1.280689
0.127700	-1.258293
0.127800	-1.242063
0.127900	-1.251801
0.128000	-1.248230
0.128100	-1.160593
0.128200	-1.143066
0.128300	-1.078474
0.128400	-1.168383
0.128500	-1.142741
0.128600	-1.194025
0.128700	-1.220966
0.128800	-1.130732
0.128900	-0.815563
0.129000	-0.740909
0.129100	-0.680536
0.129200	-1.212526
0.129300	-1.325806
0.129400	-1.318989
0.129500	-0.945071
0.129600	-0.829195
0.129700	-0.770770
0.129800	-0.885997
0.129900	-1.182016
0.130000	-1.101844
0.130100	-1.021672
0.130200	-0.803228
0.130300	-0.720460
0.130400	-0.693195
0.130500	-0.749997
0.130600	-0.781481
0.130700	-0.754866
0.130800	-0.720135
0.130900	-0.709424
0.131000	-0.673396
0.131100	-0.701634
0.131200	-0.646131
0.131300	-0.738312
0.131400	-0.722732
0.131500	-0.800307
0.131600	-0.768498
0.131700	-0.875610
0.131800	-0.716240
0.131900	-0.752269
0.132000	-0.738961
0.132100	-1.017777
0.132200	-1.166111
0.132300	-1.052507
0.132400	-0.902226
0.132500	-0.739286
0.132600	-0.823677
0.132700	-1.040822
0.132800	-1.191753
0.132900	-1.145338
0.133000	-0.989538
0.133100	-0.839582
0.133200	-0.869443
0.133300	-1.013558
0.133400	-1.073605
0.133500	-1.027839
0.133600	-1.032708
0.133700	-0.980450
0.133800	-1.066464
0.133900	-1.104441
0.134000	-1.129109
0.134100	-1.100546
0.134200	-1.065491
0.134300	-1.123591
0.134400	-1.166760
0.134500	-1.165787
0.134600	-1.106388
0.134700	-1.090808
0.134800	-1.075228
0.134900	-1.220641
0.135000	-1.252775
0.135100	-1.268679
0.135200	-1.234598
0.135300	-1.132030
0.135400	-1.206035
0.135500	-1.222588
0.135600	-1.183639
0.135700	-1.217071
0.135800	-1.217720
0.135900	-1.275171
0.136000	-1.267705
0.136100	-1.307954
0.136200	-1.299514
0.136300	-1.318989
0.136400	-1.351772
0.136500	-1.395915
0.136600	-1.393319
0.136700	-1.420584
0.136800	-1.465051
0.136900	-1.483228
0.137000	-1.500756
0.137100	-1.557557
0.137200	-1.708488
0.137300	-1.943811
0.137400	-2.033396
0.137500	-1.876622
0.137600	-1.615982
0.137700	-1.582550
0.137800	-1.796450
0.137900	-2.108050
0.138000	-2.253788
0.138100	-2.137262
0.138200	-1.945758
0.138300	-1.850006
0.138400	-1.940890
0.138500	-2.129148
0.138600	-2.265797
0.138700	-2.259630
0.138800	-2.226198
0.138900	-2.184002
0.139000	-2.239181
0.139100	-2.308318
0.139200	-2.358953
0.139300	-2.385893
0.139400	-2.389788
0.139500	-2.410237
0.139600	-2.462170
0.139700	-2.530982
0.139800	-2.570581
0.139900	-2.530657
0.140000	-2.563440
0.140100	-2.565388
0.140200	-2.605961
0.140300	-2.552080
0.140400	-2.442371
0.140500	-2.352136
0.140600	-2.441397
0.140700	-2.616023
0.140800	-2.757866
0.140900	-2.761112
0.141000	-2.533903
0.141100	-2.386867
0.141200	-2.407640
0.141300	-2.591030
0.141400	-2.756568
0.141500	-2.778639
0.141600	-2.699765
0.141700	-2.587459
0.141800	-2.547211
0.141900	-2.587459
0.142000	-2.622190
0.142100	-2.638095
0.142200	-2.586486
0.142300	-2.530008
0.142400	-2.493006
0.142500	-2.452108
0.142600	-2.376480
0.142700	-2.215811
0.142800	-2.152842
0.142900	-2.144403
0.143000	-2.132718
0.143100	-2.136938
0.143200	-2.021386
0.143300	-1.865262
0.143400	-1.837023
0.143500	-1.581252
0.143600	-1.652660
0.143700	-1.620202
0.143800	-1.569567
0.143900	-1.455963
0.144000	-1.353395
0.144100	-1.295295
0.144200	-1.248555
0.144300	-1.294646
0.144400	-1.304708
0.144500	-1.328727
0.144600	-1.299190
0.144700	-1.321261
0.144800	-1.195648
0.144900	-1.257968
0.145000	-1.193051
0.145100	-1.298541
0.145200	-1.266407
0.145300	-1.319314
0.145400	-1.341710
0.145500	-1.217395
0.145600	-0.953834
0.145700	-0.817185
0.145800	-0.845099
0.145900	-1.210579
0.146000	-1.287505
0.146100	-1.172278
0.146200	-0.877882
0.146300	-0.786999
0.146400	-0.714618
0.146500	-0.898331
0.146600	-1.026865
0.146700	-0.997004
0.146800	-0.782455
0.146900	-0.747725
0.147000	-0.585759
0.147100	-0.701634
0.147200	-0.742207
0.147300	-0.735066
0.147400	-0.703582
0.147500	-0.663658
0.147600	-0.638341
0.147700	-0.650675
0.147800	-0.622761
0.147900	-0.650675
0.148000	-0.747725
0.148100	-0.760708
0.148200	-0.772393
0.148300	-0.885997
0.148400	-0.861329
0.148500	-0.759734
0.148600	-0.828546
0.148700	-0.821080
0.148800	-1.102818
0.148900	-1.140469
0.149000	-1.049262
0.149100	-0.829195
0.149200	-0.784078
0.149300	-0.847047
0.149400	-1.146312
0.149500	-1.203438
0.149600	-1.130732
0.149700	-0.926894
0.149800	-0.838283
0.149900	-0.954484
0.150000	-1.022321
0.150100	-1.069061
0.150200	-1.043419
0.150300	-1.021023
0.150400	-1.006417
0.150500	-1.045691
0.150600	-1.075228
0.150700	-1.130732
0.150800	-1.144689
0.150900	-1.163515
0.151000	-1.205386
0.151100	-1.234273
0.151200	-1.232975
0.151300	-1.200517
0.151400	-1.202789
0.151500	-1.250827
0.151600	-1.398837
0.151700	-1.421233
0.151800	-1.409548
0.151900	-1.260240
0.152000	-1.297567
0.152100	-1.353395
0.152200	-1.362483
0.152300	-1.351123
0.152400	-1.355343
0.152500	-1.363457
0.152600	-1.393319
0.152700	-1.398512
0.152800	-1.410846
0.152900	-1.428049
0.153000	-1.457262
0.153100	-1.448822
0.153200	-1.426426
0.153300	-1.428698
0.153400	-1.443629
0.153500	-1.460507
0.153600	-1.451744
0.153700	-1.497834
0.153800	-1.539705
0.153900	-1.733157
0.154000	-1.968479
0.154100	-1.923038
0.154200	-1.736078
0.154300	-1.499782
0.154400	-1.520231
0.154500	-1.728288
0.154600	-2.005806
0.154700	-2.069749
0.154800	-1.948680
0.154900	-1.808784
0.155000	-1.722445
0.155100	-1.832804
0.155200	-2.008078
0.155300	-2.071697
0.155400	-2.097014
0.155500	-2.058389
0.155600	-2.010350
0.155700	-2.014570
0.155800	-2.027878
0.155900	-2.070723
0.156000	-2.058713
0.156100	-2.086303
0.156200	-2.093119
0.156300	-2.084680
0.156400	-2.131420
0.156500	-2.090522
0.156600	-2.076890
0.156700	-2.092470
0.156800	-2.123954
0.156900	-2.158685
0.157000	-2.119735
0.157100	-1.951276
0.157200	-1.919792
0.157300	-2.042484
0.157400	-2.258656
0.157500	-2.312213
0.157600	-2.245673
0.157700	-2.015219
0.157800	-1.896097
0.157900	-1.997043
0.158000	-2.214838
0.158100	-2.352461
0.158200	-2.329091
0.158300	-2.208022
0.158400	-2.104155
0.158500	-2.060012
0.158600	-2.113243
0.158700	-2.157711
0.158800	-2.142780
0.158900	-2.109348
0.159000	-2.085005
0.159100	-2.044107
0.159200	-1.989253
0.159300	-1.845462
0.159400	-1.740298
0.159500	-1.693558
0.159600	-1.732832
0.159700	-1.753281
0.159800	-1.773730
0.159900	-1.633510
0.160000	-1.551390
0.160100	-1.518932
0.160200	-1.387476
0.160300	-1.404679
0.160400	-1.456612
0.160500	-1.430970
0.160600	-1.351772
0.160700	-1.244660
0.160800	-1.214474
0.160900	-1.244335
0.161000	-1.223562
0.161100	-1.291400
0.161200	-1.263810
0.161300	-1.330999
0.161400	-1.261538
0.161500	-1.249853
0.161600	-1.259915
0.161700	-1.283285
0.161800	-1.233300
0.161900	-1.343009
0.162000	-1.271925
0.162100	-1.319639
0.162200	-1.039524
0.162300	-0.932412
0.162400	-0.638341
0.162500	-1.019400
0.162600	-1.203114
0.162700	-1.154751
0.162800	-0.998951
0.162900	-0.808097
0.163000	-0.735715
0.163100	-0.786999
0.163200	-0.976231
0.163300	-1.011610
0.163400	-0.964870
0.163500	-0.835687
0.163600	-0.686379
0.163700	-0.730197
0.163800	-0.774990
0.163900	-0.797061
0.164000	-0.816861
0.164100	-0.770121
0.164200	-0.770770
0.164300	-0.753892
0.164400	-0.753567
0.164500	-0.708126
0.164600	-0.742532
0.164700	-0.724680
0.164800	-0.838283
0.164900	-0.876909
0.165000	-0.929815
0.165100	-0.815887
0.165200	-0.771744
0.165300	-0.736365
0.165400	-0.894436
0.165500	-1.157672
0.165600	-1.112880
0.165700	-1.017453
0.165800	-0.789271
0.165900	-0.885672
0.166000	-0.952212
0.166100	-1.201815
0.166200	-1.233624
0.166300	-1.137873
0.166400	-0.962598
0.166500	-0.900603
0.166600	-1.034006
0.166700	-1.104441
0.166800	-1.099896
0.166900	-1.083018
0.167000	-1.113529
0.167100	-1.114503
0.167200	-1.179744
0.167300	-1.192078
0.167400	-1.254073
0.167500	-1.201491
0.167600	-1.241739
0.167700	-1.279066
0.167800	-1.277443
0.167900	-1.265758
0.168000	-1.250178
0.168100	-1.244660
0.168200	-1.321911
0.168300	-1.364106
0.168400	-1.351123
0.168500	-1.343333
0.168600	-1.391047
0.168700	-1.296918
0.168800	-1.336517
0.168900	-1.320288
0.169000	-1.296918
0.169100	-1.289128
0.169200	-1.282636
0.169300	-1.277443
0.169400	-1.257319
0.169500	-1.247906
0.169600	-1.242713
0.169700	-1.271600
0.169800	-1.249204
0.169900	-1.276794
0.170000	-1.272574
0.170100	-1.325156
0.170200	-1.306331
0.170300	-1.392345
0.170400	-1.408250
0.170500	-1.521853
0.170600	-1.769185
0.170700	-1.938293
0.170800	-1.908431
0.170900	-1.657529
0.171000	-1.600078
0.171100	-1.675706
0.171200	-1.999639
0.171300	-2.238532
0.171400	-2.265148
0.171500	-2.115515
0.171600	-1.952899
0.171700	-1.976594
0.171800	-2.086303
0.171900	-2.276184
0.172000	-2.350838
0.172100	-2.290141
0.172200	-2.282351
0.172300	-2.262227
0.172400	-2.328117
0.172500	-2.363821
0.172600	-2.370638
0.172700	-2.399201
0.172800	-2.406342
0.172900	-2.431984
0.173000	-2.548834
0.173100	-2.588109
0.173200	-2.603040
0.173300	-2.580643
0.173400	-2.677369
0.173500	-2.704634
0.173600	-2.739365
0.173700	-2.628682
0.173800	-2.466065
0.173900	-2.485216
0.174000	-2.654973
0.174100	-2.867575
0.174200	-2.887700
0.174300	-2.763059
0.174400	-2.546237
0.174500	-2.456652
0.174600	-2.564739
0.174700	-2.763384
0.174800	-2.864005
0.174900	-2.773446
0.175000	-2.626410
0.175100	-2.534877
0.175200	-2.510858
0.175300	-2.531631
0.175400	-2.529034
0.175500	-2.490084
0.175600	-2.429387
0.175700	-2.373234
0.175800	-2.298905
0.175900	-2.231716
0.176000	-2.065530
0.176100	-1.932775
0.176200	-1.859419
0.176300	-1.844489
0.176400	-1.812679
0.176500	-1.754579
0.176600	-1.557882
0.176700	-1.475114
0.176800	-1.224211
0.176900	-1.253424
0.177000	-1.230703
0.177100	-1.211228
0.177200	-1.111906
0.177300	-1.042445
0.177400	-0.875610
0.177500	-0.868145
0.177600	-0.855162
0.177700	-0.877882
0.177800	-0.850942
0.177900	-0.819133
0.178000	-0.839906
0.178100	-0.790570
0.178200	-0.768498
0.178300	-0.818159
0.178400	-0.795438
0.178500	-0.847047
0.178600	-0.809720
0.178700	-0.951887
0.178800	-0.741882
0.178900	-0.729548
0.179000	-0.342647
0.179100	-0.553300
0.179200	-0.707477
0.179300	-1.012259
0.179400	-0.918780
0.179500	-0.637042
0.179600	-0.590627
0.179700	-0.414704
0.179800	-0.645157
0.179900	-0.701310
0.180000	-0.793491
0.180100	-0.642885
0.180200	-0.502990
0.180300	-0.414704
0.180400	-0.436126
0.180500	-0.500069
0.180600	-0.509482
0.180700	-0.562389
0.180800	-0.496174
0.180900	-0.453005
0.181000	-0.459172
0.181100	-0.453329
0.181200	-0.512728
0.181300	-0.489682
0.181400	-0.589653
0.181500	-0.634770
0.181600	-0.682159
0.181700	-0.647104
0.181800	-0.610751
0.181900	-0.547458
0.182000	-0.552651
0.182100	-0.760059
0.182200	-0.959677
0.182300	-0.875286
0.182400	-0.712345
0.182500	-0.543238
0.182600	-0.613023
0.182700	-0.796737
0.182800	-0.998951
0.182900	-0.937930
0.183000	-0.795114
0.183100	-0.623410
0.183200	-0.649052
0.183300	-0.769472
0.183400	-0.870741
0.183500	-0.816212
0.183600	-0.846073
0.183700	-0.771744
0.183800	-0.817185
0.183900	-0.851267
0.184000	-0.909042
0.184100	-0.876909
0.184200	-0.849644
0.184300	-0.892488
0.184400	-0.963572
0.184500	-0.990512
0.184600	-0.984345
0.184700	-0.960326
0.184800	-0.956756
0.184900	-1.063219
0.185000	-1.151505
0.185100	-1.161242
0.185200	-1.166111
0.185300	-1.175849
0.185400	-1.102168
0.185500	-1.110932
0.185600	-1.115152
0.185700	-1.115152
0.185800	-1.125214
0.185900	-1.123915
0.186000	-1.130083
0.186100	-1.141443
0.186200	-1.153777
0.186300	-1.160269
0.186400	-1.158321
0.186500	-1.174875
0.186600	-1.186884
0.186700	-1.226483
0.186800	-1.240441
0.186900	-1.289777
0.187000	-1.319314
0.187100	-1.414741
0.187200	-1.516660
0.187300	-1.807162
0.187400	-1.964584
0.187500	-1.812030
0.187600	-1.661424
0.187700	-1.618904
0.187800	-1.766264
0.187900	-2.047028
0.188000	-2.188871
0.188100	-2.166799
0.188200	-2.030150
0.188300	-1.957119
0.188400	-1.996393
0.188500	-2.129472
0.188600	-2.286246
0.188700	-2.310590
0.188800	-2.249568
0.188900	-2.162580
0.189000	-2.199582
0.189100	-2.285272
0.189200	-2.298580
0.189300	-2.279105
0.189400	-2.276509
0.189500	-2.228470
0.189600	-2.216136
0.189700	-2.366094
0.189800	-2.338829
0.189900	-2.324547
0.190000	-2.321626
0.190100	-2.355382
0.190200	-2.391086
0.190300	-2.365120
0.190400	-2.221329
0.190500	-2.165826
0.190600	-2.234962
0.190700	-2.464118
0.190800	-2.598171
0.190900	-2.576748
0.191000	-2.409263
0.191100	-2.260279
0.191200	-2.261578
0.191300	-2.424519
0.191400	-2.584863
0.191500	-2.668281
0.191600	-2.562467
0.191700	-2.455679
0.191800	-2.397578
0.191900	-2.411535
0.192000	-2.456328
0.192100	-2.486514
0.192200	-2.479373
0.192300	-2.450810
0.192400	-2.386218
0.192500	-2.339802
0.192600	-2.295984
0.192700	-2.162580
0.192800	-2.090522
0.192900	-2.044432
0.193000	-2.011324
0.193100	-1.972374
0.193200	-1.884412
0.193300	-1.712383
0.193400	-1.639028
0.193500	-1.385529
0.193600	-1.421557
0.193700	-1.389424
0.193800	-1.327429
0.193900	-1.190779
0.194000	-1.110283
0.194100	-0.969090
0.194200	-0.981424
0.194300	-0.964546
0.194400	-1.032708
0.194500	-0.986942
0.194600	-1.039200
0.194700	-1.015180
0.194800	-1.036603
0.194900	-1.008040
0.195000	-1.046990
0.195100	-1.062569
0.195200	-1.134627
0.195300	-1.105739
0.195400	-1.128784
0.195500	-1.074579
0.195600	-0.825949
0.195700	-0.705529
0.195800	-0.827572
0.195900	-1.139820
0.196000	-1.314445
0.196100	-1.043419
0.196200	-0.996355
0.196300	-0.690923
0.196400	-0.761682
0.196500	-0.803878
0.196600	-0.992784
0.196700	-0.939228
0.196800	-0.781806
0.196900	-0.674369
0.197000	-0.534150
0.197100	-0.622436
0.197200	-0.639964
0.197300	-0.667553
0.197400	-0.627630
0.197500	-0.586408
0.197600	-0.564012
0.197700	-0.531229
0.197800	-0.555572
0.197900	-0.619840
0.198000	-0.648727
0.198100	-0.720460
0.198200	-0.766875
0.198300	-0.738961
0.198400	-0.689625
0.198500	-0.598742
0.198600	-0.640937
0.198700	-0.748049
0.198800	-0.983371
0.198900	-1.061596
0.199000	-0.987916
0.199100	-0.800956
0.199200	-0.742856
0.199300	-0.875610
0.199400	-1.062894
0.199500	-1.269977
0.199600	-1.237195
0.199700	-1.084316
0.199800	-0.958054
0.199900	-0.945395
0.200000	-1.100221
0.200100	-1.213500
0.200200	-1.185262
0.200300	-1.197271
0.200400	-1.108011
0.200500	-1.156698
0.200600	-1.208956
0.200700	-1.232001
0.200800	-1.228106
0.200900	-1.147935
0.201000	-1.144040
0.201100	-1.209930
0.201200	-1.214149
0.201300	-1.205386
0.201400	-1.185262
0.201500	-1.201815
0.201600	-1.337815
0.201700	-1.398512
0.201800	-1.383257
0.201900	-1.377090
0.202000	-1.330999
0.202100	-1.335219
0.202200	-1.313472
0.202300	-1.290426
0.202400	-1.260240
0.202500	-1.259266
0.202600	-1.254398
0.202700	-1.221939
0.202800	-1.227457
0.202900	-1.207009
0.203000	-1.184288
0.203100	-1.215448
0.203200	-1.192402
0.203300	-1.206684
0.203400	-1.236546
0.203500	-1.203114
0.203600	-1.292049
0.203700	-1.269004
0.203800	-1.354693
0.203900	-1.477710
0.204000	-1.773080
0.204100	-1.779247
0.204200	-1.652660
0.204300	-1.443954
0.204400	-1.415390
0.204500	-1.664021
0.204600	-1.903887
0.204700	-2.069100
0.204800	-2.009701
0.204900	-1.877596
0.205000	-1.810083
0.205100	-1.902589
0.205200	-2.111620
0.205300	-2.217759
0.205400	-2.293387
0.205500	-2.243076
0.205600	-2.228470
0.205700	-2.210943
0.205800	-2.265148
0.205900	-2.358953
0.206000	-2.353110
0.206100	-2.347917
0.206200	-2.354733
0.206300	-2.477101
0.206400	-2.451459
0.206500	-2.420299
0.206600	-2.447564
0.206700	-2.493006
0.206800	-2.553054
0.206900	-2.552080
0.207000	-2.536175
0.207100	-2.395306
0.207200	-2.369664
0.207300	-2.504366
0.207400	-2.695546
0.207500	-2.811098
0.207600	-2.708205
0.207700	-2.537474
0.207800	-2.425168
0.207900	-2.411211
0.208000	-2.544939
0.208100	-2.700415
0.208200	-2.747804
0.208300	-2.711450
0.208400	-2.573502
0.208500	-2.459574
0.208600	-2.465741
0.208700	-2.488137
0.208800	-2.566686
0.208900	-2.512481
0.209000	-2.479698
0.209100	-2.431659
0.209200	-2.354409
0.209300	-2.289816
0.209400	-2.184327
0.209500	-2.119410
0.209600	-2.087601
0.209700	-2.057415
0.209800	-2.073644
0.209900	-1.951925
0.210000	-1.825663
0.210100	-1.714655
0.210200	-1.582550
0.210300	-1.613710
0.210400	-1.573462
0.210500	-1.510168
0.210600	-1.396889
0.210700	-1.256994
0.210800	-1.189481
0.210900	-1.125214
0.211000	-1.122942
0.211100	-1.165137
0.211200	-1.096326
0.211300	-1.160269
0.211400	-1.025567
0.211500	-1.099896
0.211600	-0.970064
0.211700	-1.048612
0.211800	-0.988889
0.211900	-1.058999
0.212000	-1.084641
0.212100	-1.035629
0.212200	-1.022321
0.212300	-0.705529
0.212400	-0.699687
0.212500	-0.740584
0.212600	-1.110932
0.212700	-1.136250
0.212800	-0.985968
0.212900	-0.879830
0.213000	-0.697415
0.213100	-0.818159
0.213200	-0.903200
0.213300	-1.064192
0.213400	-1.034331
0.213500	-0.892164
0.213600	-0.765252
0.213700	-0.715267
0.213800	-0.796088
0.213900	-0.769147
0.214000	-0.777262
0.214100	-0.824002
0.214200	-0.764279
0.214300	-0.710398
0.214400	-0.728575
0.214500	-0.750971
0.214600	-0.664307
0.214700	-0.779209
0.214800	-0.815563
0.214900	-0.852889
0.215000	-0.817510
0.215100	-0.800956
0.215200	-0.783104
0.215300	-0.813940
0.215400	-0.919429
0.215500	-1.124889
0.215600	-1.108011
0.215700	-1.017777
0.215800	-0.797386
0.215900	-0.825300
0.216000	-0.982398
0.216100	-1.131056
0.216200	-1.224861
0.216300	-1.194025
0.216400	-1.107686
0.216500	-1.056402
0.216600	-1.080097
0.216700	-1.153452
0.216800	-1.219343
0.216900	-1.267056
0.217000	-1.319963
0.217100	-1.295619
0.217200	-1.309901
0.217300	-1.349500
0.217400	-1.366378
0.217500	-1.345605
0.217600	-1.375142
0.217700	-1.433892
0.217800	-1.451744
0.217900	-1.408899
0.218000	-1.391047
0.218100	-1.381309
0.218200	-1.433892
0.218300	-1.569567
0.218400	-1.569242
0.218500	-1.559180
0.218600	-1.578980
0.218700	-1.470245
0.218800	-1.524125
0.218900	-1.501405
0.219000	-1.509844
0.219100	-1.504975
0.219200	-1.515686
0.219300	-1.496536
0.219400	-1.522503
0.219500	-1.503677
0.219600	-1.514713
0.219700	-1.476087
0.219800	-1.485825
0.219900	-1.483877
0.220000	-1.480631
0.220100	-1.506273
0.220200	-1.500756
0.220300	-1.556584
0.220400	-1.550741
0.220500	-1.588068
0.220600	-1.811381
0.220700	-2.024957
0.220800	-2.009701
0.220900	-1.832804
0.221000	-1.653634
0.221100	-1.692584
0.221200	-1.936995
0.221300	-2.191792
0.221400	-2.247621
0.221500	-2.219057
0.221600	-2.115515
0.221700	-2.081434
0.221800	-2.205425
0.221900	-2.373884
0.222000	-2.451134
0.222100	-2.481645
0.222200	-2.454705
0.222300	-2.397903
0.222400	-2.404394
0.222500	-2.415430
0.222600	-2.441072
0.222700	-2.420299
0.222800	-2.401473
0.222900	-2.379726
0.223000	-2.439125
0.223100	-2.435554
0.223200	-2.354409
0.223300	-2.355707
0.223400	-2.342724
0.223500	-2.413158
0.223600	-2.372585
0.223700	-2.273587
0.223800	-2.154465
0.223900	-2.139859
0.224000	-2.270341
0.224100	-2.477101
0.224200	-2.522218
0.224300	-2.386218
0.224400	-2.290466
0.224500	-2.226847
0.224600	-2.316432
0.224700	-2.470285
0.224800	-2.606935
0.224900	-2.653350
0.225000	-2.592004
0.225100	-2.506314
0.225200	-2.473855
0.225300	-2.511182
0.225400	-2.538772
0.225500	-2.512481
0.225600	-2.500147
0.225700	-2.479373
0.225800	-2.466390
0.225900	-2.434905
0.226000	-2.342724
0.226100	-2.225549
0.226200	-2.171344
0.226300	-2.155764
0.226400	-2.115515
0.226500	-2.124279
0.226600	-1.962312
0.226700	-1.867859
0.226800	-1.631238
0.226900	-1.637405
0.227000	-1.639352
0.227100	-1.627992
0.227200	-1.508221
0.227300	-1.446550
0.227400	-1.322884
0.227500	-1.288479
0.227600	-1.288479
0.227700	-1.267056
0.227800	-1.239142
0.227900	-1.276469
0.228000	-1.301787
0.228100	-1.298541
0.228200	-1.221939
0.228300	-1.281013
0.228400	-1.203763
0.228500	-1.235572
0.228600	-1.232326
0.228700	-1.265109
0.228800	-1.274522
0.228900	-0.996355
0.229000	-0.824651
0.229100	-0.681510
0.229200	-0.940527
0.229300	-1.241739
0.229400	-1.230054
0.229500	-1.058350
0.229600	-0.847696
0.229700	-0.752269
0.229800	-0.879830
0.229900	-0.987916
0.230000	-1.102168
0.230100	-0.949290
0.230200	-0.947667
0.230300	-0.761682
0.230400	-0.842827
0.230500	-0.861004
0.230600	-0.909042
0.230700	-0.950913
0.230800	-0.943123
0.230900	-0.956431
0.231000	-0.948641
0.231100	-1.017777
0.231200	-1.023295
0.231300	-1.092106
0.231400	-1.157347
0.231500	-1.183639
0.231600	-1.258293
0.231700	-1.254073
0.231800	-1.199219
0.231900	-1.153128
0.232000	-1.161242
0.232100	-1.335868
0.232200	-1.516336
0.232300	-1.447199
0.232400	-1.271925
0.232500	-1.030111
0.232600	-1.110608
0.232700	-1.207982
0.232800	-1.398512
0.232900	-1.405653
0.233000	-1.254398
0.233100	-1.094703
0.233200	-1.009987
0.233300	-1.101519
0.233400	-1.177147
0.233500	-1.135925
0.233600	-1.121319
0.233700	-1.070035
0.233800	-1.113204
0.233900	-1.124889
0.234000	-1.151180
0.234100	-1.101195
0.234200	-1.042121
0.234300	-1.038226
0.234400	-1.094054
0.234500	-1.087887
0.234600	-1.064842
0.234700	-1.007715
0.234800	-0.983696
0.234900	-1.037901
0.235000	-1.127486
0.235100	-1.147285
0.235200	-1.148908
0.235300	-1.048612
0.235400	-1.043419
0.235500	-1.053157
0.235600	-1.053157
0.235700	-1.067114
0.235800	-1.062245
0.235900	-1.078799
0.236000	-1.078474
0.236100	-1.107686
0.236200	-1.107362
0.236300	-1.120994
0.236400	-1.119047
0.236500	-1.127161
0.236600	-1.159620
0.236700	-1.167409
0.236800	-1.184937
0.236900	-1.221290
0.237000	-1.230378
0.237100	-1.305032
0.237200	-1.290102
0.237300	-1.643247
0.237400	-1.685768
0.237500	-1.703620
0.237600	-1.449796
0.237700	-1.401109
0.237800	-1.472841
0.237900	-1.714980
0.238000	-1.980164
0.238100	-1.972374
0.238200	-1.887009
0.238300	-1.753930
0.238400	-1.794827
0.238500	-1.955171
0.238600	-2.123954
0.238700	-2.185625
0.238800	-2.143429
0.238900	-2.119735
0.239000	-2.090198
0.239100	-2.189196
0.239200	-2.226523
0.239300	-2.257358
0.239400	-2.278781
0.239500	-2.247945
0.239600	-2.297282
0.239700	-2.351487
0.239800	-2.463793
0.239900	-2.386867
0.240000	-2.431010
0.240100	-2.485865
0.240200	-2.542992
0.240300	-2.576748
0.240400	-2.439449
0.240500	-2.322275
0.240600	-2.317081
0.240700	-2.490084
0.240800	-2.670878
0.240900	-2.643937
0.241000	-2.516700
0.241100	-2.324222
0.241200	-2.246647
0.241300	-2.368690
0.241400	-2.519946
0.241500	-2.617970
0.241600	-2.512805
0.241700	-2.362848
0.241800	-2.270017
0.241900	-2.247296
0.242000	-2.262227
0.242100	-2.297606
0.242200	-2.260604
0.242300	-2.219382
0.242400	-2.164203
0.242500	-2.093444
0.242600	-2.028202
0.242700	-1.945109
0.242800	-1.863964
0.242900	-1.818522
0.243000	-1.786713
0.243100	-1.791582
0.243200	-1.727963
0.243300	-1.555285
0.243400	-1.473166
0.243500	-1.282961
0.243600	-1.323534
0.243700	-1.280689
0.243800	-1.266083
0.243900	-1.149557
0.244000	-1.078149
0.244100	-0.919104
0.244200	-0.905147
0.244300	-0.866522
0.244400	-0.888593
0.244500	-0.853214
0.244600	-0.857758
0.244700	-0.809395
0.244800	-0.813615
0.244900	-0.756813
0.245000	-0.758111
0.245100	-0.721434
0.245200	-0.773367
0.245300	-0.773042
0.245400	-0.843477
0.245500	-0.776288
0.245600	-0.636393
0.245700	-0.392308
0.245800	-0.438074
0.245900	-0.720785
0.246000	-1.022321
0.246100	-0.843152
0.246200	-0.838932
0.246300	-0.548107
0.246400	-0.596145
0.246500	-0.725978
0.246600	-0.888269
0.246700	-0.932737
0.246800	-0.850617
0.246900	-0.753892
0.247000	-0.644183
0.247100	-0.681510
0.247200	-0.697090
0.247300	-0.783104
0.247400	-0.780183
0.247500	-0.726302
0.247600	-0.682808
0.247700	-0.696116
0.247800	-0.694818
0.247900	-0.735066
0.248000	-0.782455
0.248100	-0.841854
0.248200	-0.808746
0.248300	-0.870417
0.248400	-0.847696
0.248500	-0.789271
0.248600	-0.792193
0.248700	-0.906445
0.248800	-1.083343
0.248900	-1.291400
0.249000	-1.186560
0.249100	-1.021348
0.249200	-0.896059
0.249300	-0.990188
0.249400	-1.223562
0.249500	-1.430970
0.249600	-1.376440
0.249700	-1.249529
0.249800	-1.122293
0.249900	-1.212526
0.250000	-1.352421
0.250100	-1.446550
0.250200	-1.408899
0.250300	-1.425128
0.250400	-1.359562
0.250500	-1.444278
0.250600	-1.510493
0.250700	-1.565347
0.250800	-1.527371
0.250900	-1.509519
0.251000	-1.542951
0.251100	-1.618904
0.251200	-1.620851
0.251300	-1.610140
0.251400	-1.581577
0.251500	-1.567620
0.251600	-1.712059
0.251700	-1.755228
0.251800	-1.752307
0.251900	-1.759123
0.252000	-1.655906
0.252100	-1.715954
0.252200	-1.716278
0.252300	-1.709138
0.252400	-1.714655
0.252500	-1.699725
0.252600	-1.686741
0.252700	-1.682846
0.252800	-1.696803
0.252900	-1.688364
0.253000	-1.661749
0.253100	-1.682846
0.253200	-1.651037
0.253300	-1.650064
0.253400	-1.623772
0.253500	-1.650064
0.253600	-1.645844
0.253700	-1.650388
0.253800	-1.694531
0.253900	-1.756202
0.254000	-2.059362
0.254100	-2.128823
0.254200	-2.045730
0.254300	-1.801644
0.254400	-1.744517
0.254500	-1.896422
0.254600	-2.182704
0.254700	-2.363821
0.254800	-2.308642
0.254900	-2.166799
0.255000	-2.084680
0.255100	-2.134017
0.255200	-2.315783
0.255300	-2.472881
0.255400	-2.480022
0.255500	-2.409263
0.255600	-2.374857
0.255700	-2.416729
0.255800	-2.456328
0.255900	-2.501769
0.256000	-2.508586
0.256100	-2.490734
0.256200	-2.511182
0.256300	-2.552729
0.256400	-2.539746
0.256500	-2.615049
0.256600	-2.569607
0.256700	-2.594925
0.256800	-2.591679
0.256900	-2.664710
0.257000	-2.623488
0.257100	-2.477101
0.257200	-2.363172
0.257300	-2.417378
0.257400	-2.595250
0.257500	-2.708854
0.257600	-2.727030
0.257700	-2.503392
0.257800	-2.343697
0.257900	-2.356356
0.258000	-2.568634
0.258100	-2.731575
0.258200	-2.742611
0.258300	-2.634849
0.258400	-2.514104
0.258500	-2.463469
0.258600	-2.509884
0.258700	-2.541369
0.258800	-2.542342
0.258900	-2.498848
0.259000	-2.447564
0.259100	-2.389788
0.259200	-2.341750
0.259300	-2.275535
0.259400	-2.135315
0.259500	-2.060012
0.259600	-2.046379
0.259700	-2.023334
0.259800	-2.019439
0.259900	-1.911028
0.260000	-1.765290
0.260100	-1.622149
0.260200	-1.512441
0.260300	-1.569892
0.260400	-1.552040
0.260500	-1.479009
0.260600	-1.357290
0.260700	-1.280689
0.260800	-1.191753
0.260900	-1.175849
0.261000	-1.165462
0.261100	-1.180717
0.261200	-1.188832
0.261300	-1.179094
0.261400	-1.204087
0.261500	-1.119371
0.261600	-1.146961
0.261700	-1.051209
0.261800	-1.078149
0.261900	-1.058025
0.262000	-1.063543
0.262100	-1.072307
0.262200	-0.982722
0.262300	-0.764279
0.262400	-0.582188
0.262500	-0.535124
0.262600	-0.944097
0.262700	-0.887944
0.262800	-0.826598
0.262900	-0.506885
0.263000	-0.436451
0.263100	-0.399773
0.263200	-0.569854
0.263300	-0.716890
0.263400	-0.636718
0.263500	-0.484814
0.263600	-0.316680
0.263700	-0.319601
0.263800	-0.293635
0.263900	-0.390685
0.264000	-0.420546
0.264100	-0.331936
0.264200	-0.315057
0.264300	-0.289415
0.264400	-0.296556
0.264500	-0.277406
0.264600	-0.311162
0.264700	-0.370236
0.264800	-0.381597
0.264900	-0.376728
0.265000	-0.358227
0.265100	-0.405291
0.265200	-0.267344
0.265300	-0.309864
0.265400	-0.270914
0.265500	-0.605233
0.265600	-0.590627
0.265700	-0.527983
0.265800	-0.279678
0.265900	-0.201454
0.266000	-0.288766
0.266100	-0.563038
0.266200	-0.680861
0.266300	-0.615945
0.266400	-0.443267
0.266500	-0.349463
0.266600	-0.436775
0.266700	-0.547133
0.266800	-0.645482
0.266900	-0.622436
0.267000	-0.629902
0.267100	-0.565634
0.267200	-0.653272
0.267300	-0.730197
0.267400	-0.763629
0.267500	-0.743181
0.267600	-0.737338
0.267700	-0.799333
0.267800	-0.880154
0.267900	-0.893787
0.268000	-0.878856
0.268100	-0.889892
0.268200	-0.941500
0.268300	-1.107686
0.268400	-1.151505
0.268500	-1.148584
0.268600	-1.140794
0.268700	-1.050235
0.268800	-1.148584
0.268900	-1.148908
0.269000	-1.153777
0.269100	-1.153128
0.269200	-1.171954
0.269300	-1.196297
0.269400	-1.215772
0.269500	-1.222588
0.269600	-1.276794
0.269700	-1.275171
0.269800	-1.332297
0.269900	-1.355667
0.270000	-1.413767
0.270100	-1.417338
0.270200	-1.463104
0.270300	-1.502703
0.270400	-1.573137
0.270500	-1.610789
0.270600	-1.760097
0.270700	-2.081759
0.270800	-2.093768
0.270900	-1.933749
0.271000	-1.743543
0.271100	-1.747763
0.271200	-1.947706
0.271300	-2.290141
0.271400	-2.355058
0.271500	-2.293387
0.271600	-2.107725
0.271700	-2.113243
0.271800	-2.242427
0.271900	-2.449511
0.272000	-2.554027
0.272100	-2.606285
0.272200	-2.509884
0.272300	-2.521244
0.272400	-2.555650
0.272500	-2.643612
0.272600	-2.683212
0.272700	-2.701388
0.272800	-2.705283
0.272900	-2.755269
0.273000	-2.778639
0.273100	-2.771823
0.273200	-2.801685
0.273300	-2.800711
0.273400	-2.760138
0.273500	-2.778639
0.273600	-2.770849
0.273700	-2.727680
0.273800	-2.552404
0.273900	-2.531307
0.274000	-2.639393
0.274100	-2.797790
0.274200	-2.921781
0.274300	-2.814993
0.274400	-2.572853
0.274500	-2.465091
0.274600	-2.530657
0.274700	-2.694897
0.274800	-2.848425
0.274900	-2.824081
0.275000	-2.715021
0.275100	-2.599794
0.275200	-2.559221
0.275300	-2.604987
0.275400	-2.664061
0.275500	-2.653675
0.275600	-2.602390
0.275700	-2.574152
0.275800	-2.550457
0.275900	-2.474180
0.276000	-2.379401
0.276100	-2.234313
0.276200	-2.152193
0.276300	-2.133367
0.276400	-2.113892
0.276500	-2.085654
0.276600	-1.893176
0.276700	-1.756202
0.276800	-1.525099
0.276900	-1.515362
0.277000	-1.511791
0.277100	-1.467648
0.277200	-1.362483
0.277300	-1.260240
0.277400	-1.132030
0.277500	-1.090808
0.277600	-1.033682
0.277700	-0.993433
0.277800	-1.034980
0.277900	-0.984994
0.278000	-1.050235
0.278100	-0.970064
0.278200	-0.992135
0.278300	-0.957405
0.278400	-0.954484
0.278500	-1.005118
0.278600	-1.027190
0.278700	-1.104116
0.278800	-1.119696
0.278900	-0.960002
0.279000	-0.712670
0.279100	-0.621138
0.279200	-0.713644
0.279300	-1.082694
0.279400	-1.109309
0.279500	-0.921701
0.279600	-0.710073
0.279700	-0.606532
0.279800	-0.719162
0.279900	-0.948317
0.280000	-0.974932
0.280100	-0.960326
0.280200	-0.749023
0.280300	-0.753243
0.280400	-0.701310
0.280500	-0.845749
0.280600	-0.761033
0.280700	-0.798360
0.280800	-0.831467
0.280900	-0.814913
0.281000	-0.848345
0.281100	-0.891190
0.281200	-0.942799
0.281300	-0.981424
0.281400	-1.047639
0.281500	-1.191429
0.281600	-1.233624
0.281700	-1.265433
0.281800	-1.228106
0.281900	-1.217720
0.282000	-1.248880
0.282100	-1.401433
0.282200	-1.660126
0.282300	-1.682197
0.282400	-1.568918
0.282500	-1.365080
0.282600	-1.379686
0.282700	-1.477386
0.282800	-1.777300
0.282900	-1.787037
0.283000	-1.696154
0.283100	-1.535486
0.283200	-1.489395
0.283300	-1.627018
0.283400	-1.706865
0.283500	-1.710760
0.283600	-1.685443
0.283700	-1.680250
0.283800	-1.742894
0.283900	-1.807486
0.284000	-1.845462
0.284100	-1.807486
0.284200	-1.736078
0.284300	-1.797424
0.284400	-1.854551
0.284500	-1.866560
0.284600	-1.811381
0.284700	-1.754904
0.284800	-1.758799
0.284900	-1.813329
0.285000	-1.947057
0.285100	-1.952575
0.285200	-1.924011
0.285300	-1.933424
0.285400	-1.874026
0.285500	-1.915897
0.285600	-1.875324
0.285700	-1.884737
0.285800	-1.887658
0.285900	-1.851629
0.286000	-1.848384
0.286100	-1.863314
0.286200	-1.848384
0.286300	-1.855849
0.286400	-1.836049
0.286500	-1.825987
0.286600	-1.798722
0.286700	-1.786388
0.286800	-1.795477
0.286900	-1.761720
0.287000	-1.819496
0.287100	-1.805539
0.287200	-1.822417
0.287300	-2.064880
0.287400	-2.246647
0.287500	-2.245024
0.287600	-1.928556
0.287700	-1.786064
0.287800	-1.860393
0.287900	-2.132718
0.288000	-2.349215
0.288100	-2.360900
0.288200	-2.176212
0.288300	-2.011324
0.288400	-1.995420
0.288500	-2.138236
0.288600	-2.329740
0.288700	-2.398876
0.288800	-2.368690
0.288900	-2.322924
0.289000	-2.313511
0.289100	-2.357979
0.289200	-2.434905
0.289300	-2.449187
0.289400	-2.455029
0.289500	-2.447564
0.289600	-2.487488
0.289700	-2.546562
0.289800	-2.633226
0.289900	-2.600118
0.290000	-2.641665
0.290100	-2.630305
0.290200	-2.685808
0.290300	-2.693598
0.290400	-2.580968
0.290500	-2.434905
0.290600	-2.418351
0.290700	-2.562142
0.290800	-2.757217
0.290900	-2.823107
0.291000	-2.649130
0.291100	-2.433607
0.291200	-2.361225
0.291300	-2.513454
0.291400	-2.700739
0.291500	-2.798439
0.291600	-2.728653
0.291700	-2.600767
0.291800	-2.530008
0.291900	-2.524166
0.292000	-2.597846
0.292100	-2.623813
0.292200	-2.547860
0.292300	-2.494953
0.292400	-2.453082
0.292500	-2.413158
0.292600	-2.369015
0.292700	-2.265473
0.292800	-2.155764
0.292900	-2.084680
0.293000	-2.069425
0.293100	-2.043782
0.293200	-1.958742
0.293300	-1.765940
0.293400	-1.711410
0.293500	-1.672460
0.293600	-1.553338
0.293700	-1.542302
0.293800	-1.559505
0.293900	-1.447199
0.294000	-1.379037
0.294100	-1.243362
0.294200	-1.252125
0.294300	-1.236546
0.294400	-1.300813
0.294500	-1.248880
0.294600	-1.275820
0.294700	-1.209930
0.294800	-1.226159
0.294900	-1.119047
0.295000	-1.178770
0.295100	-1.141768
0.295200	-1.177796
0.295300	-1.266407
0.295400	-1.241739
0.295500	-1.155400
0.295600	-1.002522
0.295700	-0.675343
0.295800	-0.633147
0.295900	-0.861329
0.296000	-1.198894
0.296100	-1.044393
0.296200	-0.921376
0.296300	-0.615295
0.296400	-0.517596
0.296500	-0.638016
0.296600	-0.748374
0.296700	-0.849644
0.296800	-0.676966
0.296900	-0.546484
0.297000	-0.403344
0.297100	-0.357902
0.297200	-0.441644
0.297300	-0.528957
0.297400	-0.525062
0.297500	-0.519868
0.297600	-0.499744
0.297700	-0.471506
0.297800	-0.531878
0.297900	-0.562064
0.298000	-0.540317
0.298100	-0.697739
0.298200	-0.696441
0.298300	-0.820431
0.298400	-0.758436
0.298500	-0.692871
0.298600	-0.663334
0.298700	-0.631849
0.298800	-0.868469
0.298900	-1.059973
0.299000	-1.032383
0.299100	-0.889892
0.299200	-0.679563
0.299300	-0.734417
0.299400	-0.895410
0.299500	-1.137873
0.299600	-1.102818
0.299700	-0.953834
0.299800	-0.816536
0.299900	-0.814913
0.300000	-0.939228
0.300100	-1.036927
0.300200	-1.038226
0.300300	-1.068412
0.300400	-1.008689
0.300500	-1.056727
0.300600	-1.091782
0.300700	-1.167409
0.300800	-1.211553
0.300900	-1.148584
0.301000	-1.180717
0.301100	-1.230703
0.301200	-1.246932
0.301300	-1.206684
0.301400	-1.169032
0.301500	-1.171954
0.301600	-1.276145
0.301700	-1.354369
0.301800	-1.357615
0.301900	-1.336841
0.302000	-1.203114
0.302100	-1.247906
0.302200	-1.265433
0.302300	-1.262512
0.302400	-1.267056
0.302500	-1.282312
0.302600	-1.273548
0.302700	-1.253099
0.302800	-1.271600
0.302900	-1.272899
0.303000	-1.267705
0.303100	-1.259915
0.303200	-1.232975
0.303300	-1.269328
0.303400	-1.243362
0.303500	-1.275171
0.303600	-1.278741
0.303700	-1.341710
0.303800	-1.378713
0.303900	-1.484851
0.304000	-1.717901
0.304100	-1.899992
0.304200	-1.796126
0.304300	-1.557557
0.304400	-1.465376
0.304500	-1.602350
0.304600	-1.863639
0.304700	-2.116489
0.304800	-2.094093
0.304900	-1.948030
0.305000	-1.855524
0.305100	-1.924336
0.305200	-2.083706
0.305300	-2.291764
0.305400	-2.334934
0.305500	-2.295984
0.305600	-2.240480
0.305700	-2.215487
0.305800	-2.290466
0.305900	-2.334934
0.306000	-2.362848
0.306100	-2.368041
0.306200	-2.369989
0.306300	-2.419974
0.306400	-2.424194
0.306500	-2.463144
0.306600	-2.419974
0.306700	-2.444318
0.306800	-2.512805
0.306900	-2.538772
0.307000	-2.544939
0.307100	-2.408614
0.307200	-2.335258
0.307300	-2.401473
0.307400	-2.545588
0.307500	-2.726381
0.307600	-2.790324
0.307700	-2.630305
0.307800	-2.457951
0.307900	-2.493006
0.308000	-2.652701
0.308100	-2.846153
0.308200	-2.937361
0.308300	-2.920807
0.308400	-2.796167
0.308500	-2.748778
0.308600	-2.769876
0.308700	-2.826029
0.308800	-2.833169
0.308900	-2.819537
0.309000	-2.818239
0.309100	-2.764033
0.309200	-2.697169
0.309300	-2.559545
0.309400	-2.424519
0.309500	-2.352786
0.309600	-2.304423
0.309700	-2.277158
0.309800	-2.275859
0.309900	-2.164852
0.310000	-2.013921
0.310100	-1.948355
0.310200	-1.755553
0.310300	-1.729586
0.310400	-1.667591
0.310500	-1.608842
0.310600	-1.470245
0.310700	-1.354044
0.310800	-1.198569
0.310900	-1.141768
0.311000	-1.091133
0.311100	-1.122617
0.311200	-1.080421
0.311300	-1.083018
0.311400	-1.018102
0.311500	-0.938579
0.311600	-0.901252
0.311700	-0.815238
0.311800	-0.871066
0.311900	-0.856135
0.312000	-0.884698
0.312100	-0.871066
0.312200	-0.770770
0.312300	-0.513377
0.312400	-0.261826
0.312500	-0.276107
0.312600	-0.496498
0.312700	-0.745128
0.312800	-0.556222
0.312900	-0.378351
0.313000	-0.126800
0.313100	-0.120633
0.313200	-0.137836
0.313300	-0.343296
0.313400	-0.252413
0.313500	-0.061559
0.313600	0.039711
0.313700	0.105601
0.313800	0.058536
0.313900	0.077687
0.314000	0.096512
0.314100	0.099758
0.314200	0.193562
0.314300	0.218555
0.314400	0.229266
0.314500	0.230565
0.314600	0.241276
0.314700	0.156560
0.314800	0.156884
0.314900	0.149744
0.315000	0.150717
0.315100	0.138708
0.315200	0.255233
0.315300	0.258803
0.315400	0.290288
0.315500	0.001734
0.315600	-0.016767
0.315700	0.039711
0.315800	0.254259
0.315900	0.387337
0.316000	0.296130
0.316100	0.070870
0.316200	-0.088175
0.316300	-0.056041
0.316400	0.059510
0.316500	0.108846
0.316600	0.032245
0.316700	-0.100184
0.316800	-0.214762
0.316900	-0.212489
0.317000	-0.303372
0.317100	-0.309864
0.317200	-0.426713
0.317300	-0.496823
0.317400	-0.596794
0.317500	-0.619840
0.317600	-0.654570
0.317700	-0.761357
0.317800	-0.882751
0.317900	-0.944422
0.318000	-0.947992
0.318100	-0.983047
0.318200	-1.042121
0.318300	-1.261214
0.318400	-1.364756
0.318500	-1.413767
0.318600	-1.426751
0.318700	-1.385204
0.318800	-1.496861
0.318900	-1.534188
0.319000	-1.580278
0.319100	-1.635133
0.319200	-1.680250
0.319300	-1.719524
0.319400	-1.758474
0.319500	-1.802617
0.319600	-1.841243
0.319700	-1.866885
0.319800	-1.906808
0.319900	-1.942513
0.320000	-1.968479
0.320100	-2.011973
0.320200	-2.018140
0.320300	-2.096365
0.320400	-2.172642
0.320500	-2.204127
0.320600	-2.392709
0.320700	-2.656596
0.320800	-2.781885
0.320900	-2.525139
0.321000	-2.387516
0.321100	-2.254437
0.321200	-2.530657
0.321300	-2.854267
0.321400	-2.976960
0.321500	-2.944502
0.321600	-2.746830
0.321700	-2.662114
0.321800	-2.752673
0.321900	-2.949695
0.322000	-3.050965
0.322100	-3.053887
0.322200	-2.964626
0.322300	-2.969495
0.322400	-2.965924
0.322500	-2.980855
0.322600	-3.002927
0.322700	-2.980855
0.322800	-2.938010
0.322900	-2.956187
0.323000	-3.014937
0.323100	-3.012015
0.323200	-2.996435
0.323300	-2.962029
0.323400	-2.945800
0.323500	-2.997734
0.323600	-3.052913
0.323700	-2.991891
0.323800	-2.815317
0.323900	-2.719240
0.324000	-2.839337
0.324100	-3.016235
0.324200	-3.145095
0.324300	-3.076608
0.324400	-2.873418
0.324500	-2.719240
0.324600	-2.778964
0.324700	-2.934764
0.324800	-3.115882
0.324900	-3.164894
0.325000	-3.038631
0.325100	-2.919833
0.325200	-2.874067
0.325300	-2.906850
0.325400	-2.945800
0.325500	-2.936712
0.325600	-2.888673
0.325700	-2.827002
0.325800	-2.792921
0.325900	-2.716319
0.326000	-2.647507
0.326100	-2.543641
0.326200	-2.425817
0.326300	-2.360576
0.326400	-2.318704
0.326500	-2.313511
0.326600	-2.167124
0.326700	-1.993472
0.326800	-1.788985
0.326900	-1.708813
0.327000	-1.705243
0.327100	-1.664994
0.327200	-1.558856
0.327300	-1.438436
0.327400	-1.324183
0.327500	-1.208307
0.327600	-1.150531
0.327700	-1.126512
0.327800	-1.065491
0.327900	-1.078799
0.328000	-1.009663
0.328100	-1.021023
0.328200	-0.862951
0.328300	-0.931114
0.328400	-0.784727
0.328500	-0.866522
0.328600	-0.838283
0.328700	-0.853214
0.328800	-0.888593
0.328900	-0.710723
0.329000	-0.529281
0.329100	-0.317329
0.329200	-0.391983
0.329300	-0.719811
0.329400	-0.742532
0.329500	-0.551677
0.329600	-0.337778
0.329700	-0.174189
0.329800	-0.211516
0.329900	-0.364069
0.330000	-0.484814
0.330100	-0.370885
0.330200	-0.221902
0.330300	-0.018390
0.330400	-0.004433
0.330500	-0.063506
0.330600	-0.104404
0.330700	-0.107650
0.330800	-0.118036
0.330900	-0.023907
0.331000	-0.048576
0.331100	-0.008652
0.331200	-0.000538
0.331300	0.006603
0.331400	-0.050523
0.331500	-0.127774
0.331600	-0.138485
0.331700	-0.184251
0.331800	-0.140432
0.331900	-0.172566
0.332000	-0.098561
0.332100	-0.234561
0.332200	-0.472479
0.332300	-0.515649
0.332400	-0.475401
0.332500	-0.276107
0.332600	-0.232614
0.332700	-0.394580
0.332800	-0.647104
0.332900	-0.787973
0.333000	-0.735715
0.333100	-0.588031
0.333200	-0.554599
0.333300	-0.675019
0.333400	-0.857758
0.333500	-0.937605
0.333600	-0.980126
0.333700	-1.003496
0.333800	-1.008689
0.333900	-1.120994
0.334000	-1.226159
0.334100	-1.312173
0.334200	-1.306331
0.334300	-1.318989
0.334400	-1.394293
0.334500	-1.443954
0.334600	-1.439409
0.334700	-1.417662
0.334800	-1.393968
0.334900	-1.425777
0.335000	-1.580927
0.335100	-1.577357
0.335200	-1.583524
0.335300	-1.564374
0.335400	-1.487772
0.335500	-1.533863
0.335600	-1.504001
0.335700	-1.496211
0.335800	-1.488746
0.335900	-1.462455
0.336000	-1.487123
0.336100	-1.482904
0.336200	-1.502378
0.336300	-1.488097
0.336400	-1.488421
0.336500	-1.505300
0.336600	-1.524450
0.336700	-1.503677
0.336800	-1.525424
0.336900	-1.528020
0.337000	-1.582875
0.337100	-1.614684
0.337200	-1.663371
0.337300	-1.837672
0.337400	-2.145702
0.337500	-2.152193
0.337600	-1.949329
0.337700	-1.750684
0.337800	-1.734130
0.337900	-2.025606
0.338000	-2.245673
0.338100	-2.347917
0.338200	-2.220680
0.338300	-2.060336
0.338400	-2.023983
0.338500	-2.160308
0.338600	-2.320003
0.338700	-2.388814
0.338800	-2.357330
0.338900	-2.296957
0.339000	-2.298905
0.339100	-2.344996
0.339200	-2.378752
0.339300	-2.400824
0.339400	-2.383296
0.339500	-2.366418
0.339600	-2.375831
0.339700	-2.443344
0.339800	-2.458600
0.339900	-2.433607
0.340000	-2.453082
0.340100	-2.477426
0.340200	-2.504366
0.340300	-2.527736
0.340400	-2.466065
0.340500	-2.215811
0.340600	-2.228795
0.340700	-2.346943
0.340800	-2.567011
0.340900	-2.719240
0.341000	-2.636472
0.341100	-2.442695
0.341200	-2.326819
0.341300	-2.426141
0.341400	-2.624462
0.341500	-2.805904
0.341600	-2.801036
0.341700	-2.691326
0.341800	-2.598495
0.341900	-2.634524
0.342000	-2.713723
0.342100	-2.787403
0.342200	-2.786754
0.342300	-2.767603
0.342400	-2.740663
0.342500	-2.714696
0.342600	-2.689054
0.342700	-2.618620
0.342800	-2.496252
0.342900	-2.459249
0.343000	-2.441072
0.343100	-2.415755
0.343200	-2.404070
0.343300	-2.210618
0.343400	-2.135315
0.343500	-1.932451
0.343600	-1.962312
0.343700	-1.967181
0.343800	-1.938942
0.343900	-1.861367
0.344000	-1.766589
0.344100	-1.668565
0.344200	-1.604622
0.344300	-1.606245
0.344400	-1.599104
0.344500	-1.637080
0.344600	-1.599429
0.344700	-1.655581
0.344800	-1.538732
0.344900	-1.527371
0.345000	-1.475114
0.345100	-1.471543
0.345200	-1.491992
0.345300	-1.472841
0.345400	-1.579305
0.345500	-1.417662
0.345600	-1.313472
0.345700	-0.940202
0.345800	-0.900928
0.345900	-1.035305
0.346000	-1.338789
0.346100	-1.372870
0.346200	-1.132679
0.346300	-0.881453
0.346400	-0.749023
0.346500	-0.818484
0.346600	-0.963572
0.346700	-0.954159
0.346800	-0.845749
0.346900	-0.609778
0.347000	-0.571801
0.347100	-0.483191
0.347200	-0.519868
0.347300	-0.535448
0.347400	-0.386141
0.347500	-0.374131
0.347600	-0.283897
0.347700	-0.257282
0.347800	-0.237807
0.347900	-0.249816
0.348000	-0.170294
0.348100	-0.257282
0.348200	-0.249816
0.348300	-0.251439
0.348400	-0.256308
0.348500	-0.154389
0.348600	-0.128747
0.348700	-0.144327
0.348800	-0.281301
0.348900	-0.506236
0.349000	-0.426389
0.349100	-0.342647
0.349200	-0.062208
0.349300	-0.145301
0.349400	-0.273835
0.349500	-0.587706
0.349600	-0.613023
0.349700	-0.520842
0.349800	-0.316356
0.349900	-0.303048
0.350000	-0.466637
0.350100	-0.629577
0.350200	-0.670150
0.350300	-0.700985
0.350400	-0.659439
0.350500	-0.703257
0.350600	-0.772718
0.350700	-0.900603
0.350800	-0.956107
0.350900	-0.953185
0.351000	-0.994732
0.351100	-1.072307
0.351200	-1.138197
0.351300	-1.145662
0.351400	-1.171954
0.351500	-1.222588
0.351600	-1.337166
0.351700	-1.490044
0.351800	-1.528345
0.351900	-1.533863
0.352000	-1.464727
0.352100	-1.539056
0.352200	-1.607868
0.352300	-1.622474
0.352400	-1.666293
0.352500	-1.692908
0.352600	-1.742570
0.352700	-1.767562
0.352800	-1.781844
0.352900	-1.790283
0.353000	-1.817873
0.353100	-1.816899
0.353200	-1.845138
0.353300	-1.882140
0.353400	-1.877271
0.353500	-1.903887
0.353600	-1.909081
0.353700	-1.991849
0.353800	-1.974971
0.353900	-2.095716
0.354000	-2.336232
0.354100	-2.550457
0.354200	-2.488786
0.354300	-2.181406
0.354400	-2.053520
0.354500	-2.076890
0.354600	-2.456328
0.354700	-2.672500
0.354800	-2.703985
0.354900	-2.504691
0.355000	-2.360251
0.355100	-2.404719
0.355200	-2.558247
0.355300	-2.736768
0.355400	-2.790974
0.355500	-2.791298
0.355600	-2.672825
0.355700	-2.716968
0.355800	-2.775393
0.355900	-2.806229
0.356000	-2.816940
0.356100	-2.851671
0.356200	-2.839661
0.356300	-2.871146
0.356400	-2.938659
0.356500	-2.949695
0.356600	-2.922430
0.356700	-2.931843
0.356800	-2.952941
0.356900	-3.021428
0.357000	-3.026946
0.357100	-2.947098
0.357200	-2.781885
0.357300	-2.829274
0.357400	-2.981504
0.357500	-3.176255
0.357600	-3.238251
0.357700	-3.041877
0.357800	-2.843232
0.357900	-2.770200
0.358000	-2.905876
0.358100	-3.102250
0.358200	-3.233706
0.358300	-3.182097
0.358400	-3.003901
0.358500	-2.889322
0.358600	-2.893542
0.358700	-2.915289
0.358800	-2.942554
0.358900	-2.924378
0.359000	-2.881857
0.359100	-2.798439
0.359200	-2.724434
0.359300	-2.644262
0.359400	-2.524490
0.359500	-2.410886
0.359600	-2.346619
0.359700	-2.305072
0.359800	-2.259955
0.359900	-2.170045
0.360000	-1.980489
0.360100	-1.877271
0.360200	-1.616956
0.360300	-1.601701
0.360400	-1.571190
0.360500	-1.517634
0.360600	-1.379686
0.360700	-1.298541
0.360800	-1.102168
0.360900	-1.031085
0.361000	-0.994732
0.361100	-0.985968
0.361200	-1.022321
0.361300	-0.938255
0.361400	-0.958054
0.361500	-0.860355
0.361600	-0.819133
0.361700	-0.760384
0.361800	-0.749348
0.361900	-0.750646
0.362000	-0.761357
0.362100	-0.740259
0.362200	-0.700011
0.362300	-0.445864
0.362400	-0.241377
0.362500	-0.104728
0.362600	-0.508508
0.362700	-0.569205
0.362800	-0.656842
0.362900	-0.296556
0.363000	-0.183277
0.363100	-0.118036
0.363200	-0.250141
0.363300	-0.460794
0.363400	-0.490331
0.363500	-0.417301
0.363600	-0.216060
0.363700	-0.153416
0.363800	-0.160556
0.363900	-0.291038
0.364000	-0.366341
0.364100	-0.406589
0.364200	-0.370236
0.364300	-0.384842
0.364400	-0.394580
0.364500	-0.455277
0.364600	-0.474752
0.364700	-0.559143
0.364800	-0.663658
0.364900	-0.829520
0.365000	-0.904173
0.365100	-0.959028
0.365200	-0.937281
0.365300	-0.980126
0.365400	-1.022321
0.365500	-1.393968
0.365600	-1.565347
0.365700	-1.622474
0.365800	-1.487448
0.365900	-1.377414
0.366000	-1.434865
0.366100	-1.702646
0.366200	-1.938293
0.366300	-1.999315
0.366400	-1.878570
0.366500	-1.770484
0.366600	-1.772756
0.366700	-1.897720
0.366800	-1.993148
0.366900	-1.984708
0.367000	-2.046704
0.367100	-1.981787
0.367200	-2.023983
0.367300	-2.031448
0.367400	-2.059362
0.367500	-2.066503
0.367600	-2.060012
0.367700	-2.094742
0.367800	-2.122007
0.367900	-2.121682
0.368000	-2.078837
0.368100	-2.049300
0.368200	-2.046379
0.368300	-2.136613
0.368400	-2.188222
0.368500	-2.167773
0.368600	-2.134666
0.368700	-1.986331
0.368800	-2.017167
0.368900	-1.976918
0.369000	-1.932451
0.369100	-1.872078
0.369200	-1.830207
0.369300	-1.771457
0.369400	-1.739648
0.369500	-1.699400
0.369600	-1.649090
0.369700	-1.588068
0.369800	-1.574111
0.369900	-1.477710
0.370000	-1.468946
0.370100	-1.408899
0.370200	-1.384555
0.370300	-1.364106
0.370400	-1.284259
0.370500	-1.275171
0.370600	-1.279066
0.370700	-1.532240
0.370800	-1.577682
0.370900	-1.371572
0.371000	-1.102493
0.371100	-0.976555
0.371200	-1.117424
0.371300	-1.291725
0.371400	-1.440708
0.371500	-1.374493
0.371600	-1.158321
0.371700	-1.044393
0.371800	-1.033357
0.371900	-1.223887
0.372000	-1.331973
0.372100	-1.356966
0.372200	-1.265109
0.372300	-1.261538
0.372400	-1.229080
0.372500	-1.269977
0.372600	-1.279066
0.372700	-1.286207
0.372800	-1.274522
0.372900	-1.325481
0.373000	-1.447524
0.373100	-1.487123
0.373200	-1.502054
0.373300	-1.497510
0.373400	-1.479333
0.373500	-1.588717
0.373600	-1.669214
0.373700	-1.705567
0.373800	-1.542627
0.373900	-1.447199
0.374000	-1.572488
0.374100	-1.716603
0.374200	-1.901940
0.374300	-1.918493
0.374400	-1.750035
0.374500	-1.614684
0.374600	-1.605920
0.374700	-1.778923
0.374800	-1.974646
0.374900	-2.071047
0.375000	-2.017491
0.375100	-1.919143
0.375200	-1.894474
0.375300	-1.921090
0.375400	-1.957119
0.375500	-2.001587
0.375600	-1.989253
0.375700	-2.021062
0.375800	-2.002236
0.375900	-1.980489
0.376000	-1.880842
0.376100	-1.762369
0.376200	-1.700374
0.376300	-1.703944
0.376400	-1.730235
0.376500	-1.749710
0.376600	-1.672135
0.376700	-1.515686
0.376800	-1.492966
0.376900	-1.318340
0.377000	-1.360536
0.377100	-1.325806
0.377200	-1.269977
0.377300	-1.168059
0.377400	-1.152479
0.377500	-1.025243
0.377600	-1.031085
0.377700	-1.015505
0.377800	-1.076526
0.377900	-1.039200
0.378000	-1.112880
0.378100	-1.075228
0.378200	-1.097624
0.378300	-1.086913
0.378400	-1.021348
0.378500	-1.130083
0.378600	-1.108985
0.378700	-1.287830
0.378800	-1.174550
0.378900	-1.231028
0.379000	-0.908068
0.379100	-0.838283
0.379200	-0.796737
0.379300	-1.247257
0.379400	-1.422207
0.379500	-1.300164
0.379600	-1.099247
0.379700	-0.997978
0.379800	-0.978503
0.379900	-1.179094
0.380000	-1.275495
0.380100	-1.263486
0.380200	-1.096651
0.380300	-1.008040
0.380400	-0.959677
0.380500	-1.083018
0.380600	-1.041796
0.380700	-1.040822
0.380800	-0.978827
0.380900	-0.962598
0.381000	-0.975581
0.381100	-1.025892
0.381200	-1.073281
0.381300	-1.069386
0.381400	-1.084966
0.381500	-1.207658
0.381600	-1.219018
0.381700	-1.297242
0.381800	-1.319963
0.381900	-1.291725
0.382000	-1.345281
0.382100	-1.462779
0.382200	-1.726016
0.382300	-1.860393
0.382400	-1.793529
0.382500	-1.628316
0.382600	-1.490694
0.382700	-1.638054
0.382800	-1.837023
0.382900	-2.006455
0.383000	-1.945434
0.383100	-1.769510
0.383200	-1.653634
0.383300	-1.717577
0.383400	-1.840269
0.383500	-1.900317
0.383600	-1.788660
0.383700	-1.804565
0.383800	-1.717577
0.383900	-1.773405
0.384000	-1.813978
0.384100	-1.814952
0.384200	-1.707515
0.384300	-1.642598
0.384400	-1.661749
0.384500	-1.673758
0.384600	-1.630589
0.384700	-1.572813
0.384800	-1.498483
0.384900	-1.485825
0.385000	-1.604622
0.385100	-1.626369
0.385200	-1.614035
0.385300	-1.537109
0.385400	-1.415066
0.385500	-1.463753
0.385600	-1.408899
0.385700	-1.373195
0.385800	-1.322884
0.385900	-1.294970
0.386000	-1.256670
0.386100	-1.228106
0.386200	-1.207009
0.386300	-1.180717
0.386400	-1.157997
0.386500	-1.172603
0.386600	-1.176822
0.386700	-1.189157
0.386800	-1.161892
0.386900	-1.187534
0.387000	-1.198245
0.387100	-1.236870
0.387200	-1.205710
0.387300	-1.419935
0.387400	-1.650713
0.387500	-1.694856
0.387600	-1.541004
0.387700	-1.282961
0.387800	-1.294970
0.387900	-1.435190
0.388000	-1.808460
0.388100	-1.892202
0.388200	-1.787362
0.388300	-1.629615
0.388400	-1.567944
0.388500	-1.728288
0.388600	-1.936995
0.388700	-2.115191
0.388800	-2.107401
0.388900	-2.064556
0.389000	-2.113568
0.389100	-2.191792
0.389200	-2.311888
0.389300	-2.363172
0.389400	-2.394008
0.389500	-2.450161
0.389600	-2.453731
0.389700	-2.537474
0.389800	-2.638095
0.389900	-2.631927
0.390000	-2.602390
0.390100	-2.636147
0.390200	-2.695546
0.390300	-2.710801
0.390400	-2.669255
0.390500	-2.508261
0.390600	-2.426141
0.390700	-2.559221
0.390800	-2.739040
0.390900	-2.848425
0.391000	-2.786754
0.391100	-2.566037
0.391200	-2.449187
0.391300	-2.480996
0.391400	-2.628032
0.391500	-2.789351
0.391600	-2.794869
0.391700	-2.639393
0.391800	-2.488786
0.391900	-2.449511
0.392000	-2.497550
0.392100	-2.512481
0.392200	-2.496901
0.392300	-2.431010
0.392400	-2.356681
0.392500	-2.292089
0.392600	-2.229769
0.392700	-2.184327
0.392800	-1.972374
0.392900	-1.856823
0.393000	-1.875649
0.393100	-1.814302
0.393200	-1.818847
0.393300	-1.662073
0.393400	-1.525748
0.393500	-1.495238
0.393600	-1.263486
0.393700	-1.282636
0.393800	-1.217395
0.393900	-1.104765
0.394000	-0.990188
0.394100	-0.862951
0.394200	-0.762656
0.394300	-0.715916
0.394400	-0.669825
0.394500	-0.728250
0.394600	-0.645482
0.394700	-0.660737
0.394800	-0.584460
0.394900	-0.506236
0.395000	-0.511429
0.395100	-0.493902
0.395200	-0.509157
0.395300	-0.576995
0.395400	-0.528632
0.395500	-0.568556
0.395600	-0.350761
0.395700	-0.184575
0.395800	-0.011573
0.395900	-0.145950
0.396000	-0.552327
0.396100	-0.520842
0.396200	-0.456575
0.396300	-0.153091
0.396400	-0.178408
0.396500	-0.157635
0.396600	-0.441320
0.396700	-0.567582
0.396800	-0.506236
0.396900	-0.381272
0.397000	-0.263773
0.397100	-0.268967
0.397200	-0.391334
0.397300	-0.437749
0.397400	-0.455601
0.397500	-0.492279
0.397600	-0.501367
0.397700	-0.548432
0.397800	-0.620489
0.397900	-0.680861
0.398000	-0.785376
0.398100	-0.897033
0.398200	-1.132355
0.398300	-1.104116
0.398400	-1.204736
0.398500	-1.221290
0.398600	-1.239467
0.398700	-1.323858
0.398800	-1.533214
0.398900	-1.816899
0.399000	-1.859419
0.399100	-1.829233
0.399200	-1.646493
0.399300	-1.622799
0.399400	-1.768536
0.399500	-2.016517
0.399600	-2.055467
0.399700	-1.974646
0.399800	-1.778274
0.399900	-1.687391
0.400000	-1.794503
0.400100	-1.901615
0.400200	-1.947057
0.400300	-1.873376
0.400400	-1.868832
0.400500	-1.825338
0.400600	-1.859744
0.400700	-1.900966
0.400800	-1.909081
0.400900	-1.793854
0.401000	-1.764641
0.401100	-1.780546
0.401200	-1.779897
0.401300	-1.714331
0.401400	-1.622149
0.401500	-1.601376
0.401600	-1.670512
0.401700	-1.780221
0.401800	-1.764641
0.401900	-1.733806
0.402000	-1.627018
0.402100	-1.624746
0.402200	-1.668889
0.402300	-1.639352
0.402400	-1.628316
0.402500	-1.582550
0.402600	-1.583524
0.402700	-1.569242
0.402800	-1.553663
0.402900	-1.514713
0.403000	-1.472517
0.403100	-1.442655
0.403200	-1.374493
0.403300	-1.359238
0.403400	-1.282961
0.403500	-1.228106
0.403600	-1.162865
0.403700	-1.113529
0.403800	-1.071009
0.403900	-1.009338
0.404000	-1.221290
0.404100	-1.328402
0.404200	-1.258942
0.404300	-0.980126
0.404400	-0.770446
0.404500	-0.761682
0.404600	-0.913262
0.404700	-1.138846
0.404800	-1.140145
0.404900	-1.006092
0.405000	-0.870417
0.405100	-0.860030
0.405200	-1.027839
0.405300	-1.181367
0.405400	-1.236870
0.405500	-1.216421
0.405600	-1.188183
0.405700	-1.156374
0.405800	-1.264460
0.405900	-1.346579
0.406000	-1.417662
0.406100	-1.488421
0.406200	-1.566321
0.406300	-1.673758
0.406400	-1.737376
0.406500	-1.894474
0.406600	-1.900641
0.406700	-2.019439
0.406800	-2.126227
0.406900	-2.234962
0.407000	-2.348241
0.407100	-2.318704
0.407200	-2.240155
0.407300	-2.292738
0.407400	-2.440748
0.407500	-2.650429
0.407600	-2.799737
0.407700	-2.733522
0.407800	-2.547211
0.407900	-2.515727
0.408000	-2.717618
0.408100	-2.945476
0.408200	-3.088942
0.408300	-3.062001
0.408400	-2.948721
0.408500	-2.895814
0.408600	-2.917561
0.408700	-2.987671
0.408800	-3.016235
0.408900	-2.987347
0.409000	-2.962029
0.409100	-2.916263
0.409200	-2.850372
0.409300	-2.719565
0.409400	-2.583889
0.409500	-2.476452
0.409600	-2.393359
0.409700	-2.349215
0.409800	-2.308642
0.409900	-2.247621
0.410000	-2.036317
0.410100	-1.922064
0.410200	-1.894150
0.410300	-1.684145
0.410400	-1.662073
0.410500	-1.629290
0.410600	-1.529643
0.410700	-1.425452
0.410800	-1.267705
0.410900	-1.208307
0.411000	-1.158970
0.411100	-1.143390
0.411200	-1.122942
0.411300	-1.056402
0.411400	-1.006417
0.411500	-0.904823
0.411600	-0.841204
0.411700	-0.738637
0.411800	-0.757138
0.411900	-0.675992
0.412000	-0.769796
0.412100	-0.690598
0.412200	-0.649701
0.412300	-0.429310
0.412400	-0.235859
0.412500	-0.192690
0.412600	-0.470207
0.412700	-0.896059
0.412800	-0.752594
0.412900	-0.685405
0.413000	-0.482217
0.413100	-0.481892
0.413200	-0.604909
0.413300	-0.815563
0.413400	-0.885348
0.413500	-0.865873
0.413600	-0.708126
0.413700	-0.691897
0.413800	-0.708450
0.413900	-0.739610
0.414000	-0.795438
0.414100	-0.843477
0.414200	-0.763629
0.414300	-0.748374
0.414400	-0.701634
0.414500	-0.741558
0.414600	-0.688002
0.414700	-0.682159
0.414800	-0.754541
0.414900	-0.805176
0.415000	-0.773042
0.415100	-0.852565
0.415200	-0.748374
0.415300	-0.709100
0.415400	-0.638016
0.415500	-0.779858
0.415600	-0.943772
0.415700	-0.935658
0.415800	-0.815887
0.415900	-0.572126
0.416000	-0.626331
0.416100	-0.795763
0.416200	-1.028164
0.416300	-0.977854
0.416400	-0.815238
0.416500	-0.605883
0.416600	-0.564336
0.416700	-0.659763
0.416800	-0.709749
0.416900	-0.661386
0.417000	-0.632498
0.417100	-0.557520
0.417200	-0.542589
0.417300	-0.591926
0.417400	-0.613673
0.417500	-0.595496
0.417600	-0.539992
0.417700	-0.557520
0.417800	-0.591276
0.417900	-0.597119
0.418000	-0.557844
0.418100	-0.549730
0.418200	-0.539992
0.418300	-0.641587
0.418400	-0.735391
0.418500	-0.741882
0.418600	-0.742856
0.418700	-0.653596
0.418800	-0.740909
0.418900	-0.800632
0.419000	-0.827572
0.419100	-0.905472
0.419200	-0.941176
0.419300	-0.995706
0.419400	-1.038550
0.419500	-1.111906
0.419600	-1.145662
0.419700	-1.231028
0.419800	-1.259915
0.419900	-1.334894
0.420000	-1.345605
0.420100	-1.442006
0.420200	-1.486474
0.420300	-1.594560
0.420400	-1.653959
0.420500	-1.746140
0.420600	-1.881816
0.420700	-2.170694
0.420800	-2.395631
0.420900	-2.277807
0.421000	-2.152518
0.421100	-2.029501
0.421200	-2.238208
0.421300	-2.530982
0.421400	-2.689703
0.421500	-2.714696
0.421600	-2.522543
0.421700	-2.402447
0.421800	-2.446590
0.421900	-2.638744
0.422000	-2.780911
0.422100	-2.826678
0.422200	-2.771498
0.422300	-2.708205
0.422400	-2.705283
0.422500	-2.722811
0.422600	-2.754945
0.422700	-2.792272
0.422800	-2.756892
0.422900	-2.743260
0.423000	-2.774095
0.423100	-2.769226
0.423200	-2.801036
0.423300	-2.777341
0.423400	-2.765331
0.423500	-2.776367
0.423600	-2.808176
0.423700	-2.805580
0.423800	-2.716968
0.423900	-2.544939
0.424000	-2.609531
0.424100	-2.756568
0.424200	-2.942230
0.424300	-2.999681
0.424400	-2.813370
0.424500	-2.627059
0.424600	-2.611479
0.424700	-2.749751
0.424800	-2.933790
0.424900	-3.033762
0.425000	-2.976636
0.425100	-2.858487
0.425200	-2.802659
0.425300	-2.811098
0.425400	-2.857189
0.425500	-2.902955
0.425600	-2.892893
0.425700	-2.894840
0.425800	-2.848100
0.425900	-2.814993
0.426000	-2.774744
0.426100	-2.641016
0.426200	-2.570581
0.426300	-2.539421
0.426400	-2.540070
0.426500	-2.532605
0.426600	-2.458924
0.426700	-2.303124
0.426800	-2.200232
0.426900	-2.009701
0.427000	-2.071697
0.427100	-2.033396
0.427200	-1.999964
0.427300	-1.909730
0.427400	-1.828259
0.427500	-1.649090
0.427600	-1.606894
0.427700	-1.540679
0.427800	-1.580927
0.427900	-1.482904
0.428000	-1.503028
0.428100	-1.459534
0.428200	-1.410197
0.428300	-1.361834
0.428400	-1.319314
0.428500	-1.302436
0.428600	-1.340087
0.428700	-1.345930
0.428800	-1.343333
0.428900	-1.278417
0.429000	-1.068412
0.429100	-0.867171
0.429200	-0.891515
0.429300	-1.161567
0.429400	-1.485825
0.429500	-1.256345
0.429600	-1.091782
0.429700	-0.858083
0.429800	-0.926570
0.429900	-0.976231
0.430000	-1.198245
0.430100	-1.154426
0.430200	-1.099896
0.430300	-0.902875
0.430400	-0.808097
0.430500	-0.867171
0.430600	-0.898006
0.430700	-0.876259
0.430800	-0.950264
0.430900	-0.909042
0.431000	-0.890541
0.431100	-0.878856
0.431200	-0.892488
0.431300	-0.826923
0.431400	-0.909367
0.431500	-0.989538
0.431600	-1.077176
0.431700	-1.045042
0.431800	-1.062245
0.431900	-0.979476
0.432000	-1.022970
0.432100	-0.952861
0.432200	-1.292698
0.432300	-1.380985
0.432400	-1.334569
0.432500	-1.148584
0.432600	-1.037252
0.432700	-1.117748
0.432800	-1.349176
0.432900	-1.519257
0.433000	-1.449472
0.433100	-1.351123
0.433200	-1.234273
0.433300	-1.294646
0.433400	-1.401758
0.433500	-1.466025
0.433600	-1.399486
0.433700	-1.457911
0.433800	-1.403056
0.433900	-1.488421
0.434000	-1.532889
0.434100	-1.581577
0.434200	-1.577682
0.434300	-1.529968
0.434400	-1.586445
0.434500	-1.655906
0.434600	-1.634484
0.434700	-1.606569
0.434800	-1.580603
0.434900	-1.585147
0.435000	-1.708164
0.435100	-1.778274
0.435200	-1.783467
0.435300	-1.688364
0.435400	-1.629290
0.435500	-1.664021
0.435600	-1.677653
0.435700	-1.663047
0.435800	-1.668565
0.435900	-1.670837
0.436000	-1.657854
0.436100	-1.645195
0.436200	-1.661749
0.436300	-1.636756
0.436400	-1.646493
0.436500	-1.635782
0.436600	-1.664021
0.436700	-1.680250
0.436800	-1.700049
0.436900	-1.713033
0.437000	-1.723095
0.437100	-1.821768
0.437200	-1.783467
0.437300	-1.972699
0.437400	-2.267096
0.437500	-2.323573
0.437600	-2.153492
0.437700	-1.900966
0.437800	-1.818522
0.437900	-1.928231
0.438000	-2.254112
0.438100	-2.372910
0.438200	-2.333960
0.438300	-2.108050
0.438400	-2.021711
0.438500	-2.070723
0.438600	-2.185625
0.438700	-2.356681
0.438800	-2.345645
0.438900	-2.275859
0.439000	-2.238857
0.439100	-2.291764
0.439200	-2.327468
0.439300	-2.355707
0.439400	-2.352786
0.439500	-2.330065
0.439600	-2.385569
0.439700	-2.436853
0.439800	-2.499822
0.439900	-2.533903
0.440000	-2.487812
0.440100	-2.528385
0.440200	-2.576099
0.440300	-2.649780
0.440400	-2.604987
0.440500	-2.523192
0.440600	-2.453082
0.440700	-2.519297
0.440800	-2.767279
0.440900	-2.901007
0.441000	-2.907175
0.441100	-2.678343
0.441200	-2.508586
0.441300	-2.505989
0.441400	-2.722811
0.441500	-2.888349
0.441600	-2.876015
0.441700	-2.754296
0.441800	-2.639717
0.441900	-2.626085
0.442000	-2.646858
0.442100	-2.650104
0.442200	-2.618944
0.442300	-2.605312
0.442400	-2.608557
0.442500	-2.570257
0.442600	-2.541693
0.442700	-2.469636
0.442800	-2.332661
0.442900	-2.280079
0.443000	-2.289492
0.443100	-2.291764
0.443200	-2.326170
0.443300	-2.236585
0.443400	-2.107076
0.443500	-2.105129
0.443600	-1.897396
0.443700	-1.974971
0.443800	-1.978217
0.443900	-1.937968
0.444000	-1.848384
0.444100	-1.795801
0.444200	-1.730235
0.444300	-1.712059
0.444400	-1.753281
0.444500	-1.749386
0.444600	-1.759448
0.444700	-1.752956
0.444800	-1.811706
0.444900	-1.675056
0.445000	-1.708813
0.445100	-1.614035
0.445200	-1.642598
0.445300	-1.638054
0.445400	-1.644870
0.445500	-1.643247
0.445600	-1.531591
0.445700	-1.316068
0.445800	-1.054779
0.445900	-1.099247
0.446000	-1.478359
0.446100	-1.501405
0.446200	-1.541004
0.446300	-1.143390
0.446400	-1.102818
0.446500	-0.990188
0.446600	-1.190779
0.446700	-1.238493
0.446800	-1.250178
0.446900	-1.070035
0.447000	-0.929815
0.447100	-0.901252
0.447200	-0.928192
0.447300	-0.975257
0.447400	-0.975257
0.447500	-0.963572
0.447600	-0.903849
0.447700	-0.915858
0.447800	-0.938579
0.447900	-0.925920
0.448000	-0.988240
0.448100	-0.992460
0.448200	-1.187858
0.448300	-1.083992
0.448400	-1.231352
0.448500	-1.186560
0.448600	-1.162865
0.448700	-1.095352
0.448800	-1.199543
0.448900	-1.437462
0.449000	-1.535161
0.449100	-1.474464
0.449200	-1.235572
0.449300	-1.190779
0.449400	-1.260240
0.449500	-1.542302
0.449600	-1.664021
0.449700	-1.591963
0.449800	-1.409223
0.449900	-1.334569
0.450000	-1.411171
0.450100	-1.544899
0.450200	-1.640001
0.450300	-1.593911
0.450400	-1.595534
0.450500	-1.541004
0.450600	-1.650388
0.450700	-1.703620
0.450800	-1.699400
0.450900	-1.668240
0.451000	-1.693558
0.451100	-1.727963
0.451200	-1.799047
0.451300	-1.790608
0.451400	-1.779247
0.451500	-1.762694
0.451600	-1.797099
0.451700	-1.956794
0.451800	-1.981463
0.451900	-1.981138
0.452000	-1.960689
0.452100	-1.865586
0.452200	-1.892202
0.452300	-1.898369
0.452400	-1.909730
0.452500	-1.905186
0.452600	-1.906808
0.452700	-1.937644
0.452800	-1.944135
0.452900	-1.945434
0.453000	-1.943162
0.453100	-1.975945
0.453200	-1.974322
0.453300	-1.987954
0.453400	-1.992174
0.453500	-2.017167
0.453600	-2.003210
0.453700	-2.064880
0.453800	-2.077215
0.453900	-2.097014
0.454000	-2.284948
0.454100	-2.487488
0.454200	-2.511832
0.454300	-2.242427
0.454400	-2.126551
0.454500	-2.110322
0.454600	-2.379077
0.454700	-2.586810
0.454800	-2.739365
0.454900	-2.628357
0.455000	-2.440099
0.455100	-2.393683
0.455200	-2.557922
0.455300	-2.700739
0.455400	-2.829274
0.455500	-2.811422
0.455600	-2.784482
0.455700	-2.783184
0.455800	-2.787403
0.455900	-2.839661
0.456000	-2.894840
0.456100	-2.876015
0.456200	-2.932168
0.456300	-2.916588
0.456400	-2.911070
0.456500	-2.979232
0.456600	-3.026297
0.456700	-2.972091
0.456800	-2.959108
0.456900	-3.007796
0.457000	-3.036684
0.457100	-2.973065
0.457200	-2.848749
0.457300	-2.756243
0.457400	-2.915289
0.457500	-3.108092
0.457600	-3.167491
0.457700	-3.146069
0.457800	-2.945800
0.457900	-2.837389
0.458000	-2.904578
0.458100	-3.112312
0.458200	-3.294404
0.458300	-3.287587
0.458400	-3.157429
0.458500	-3.067844
0.458600	-3.066221
0.458700	-3.123348
0.458800	-3.153534
0.458900	-3.142174
0.459000	-3.096083
0.459100	-3.094135
0.459200	-3.085696
0.459300	-2.994812
0.459400	-2.931843
0.459500	-2.784482
0.459600	-2.729303
0.459700	-2.737093
0.459800	-2.740014
0.459900	-2.742611
0.460000	-2.582915
0.460100	-2.482944
0.460200	-2.328117
0.460300	-2.291764
0.460400	-2.310914
0.460500	-2.304098
0.460600	-2.225549
0.460700	-2.154790
0.460800	-2.050923
0.460900	-2.033720
0.461000	-2.006455
0.461100	-2.007754
0.461200	-2.058713
0.461300	-2.026580
0.461400	-2.070398
0.461500	-2.037940
0.461600	-1.993472
0.461700	-2.025606
0.461800	-1.975945
0.461900	-2.120709
0.462000	-2.048002
0.462100	-2.190819
0.462200	-2.091496
0.462300	-2.002560
0.462400	-1.669214
0.462500	-1.655906
0.462600	-1.657204
0.462700	-2.130122
0.462800	-2.063257
0.462900	-1.883114
0.463000	-1.660775
0.463100	-1.538083
0.463200	-1.511467
0.463300	-1.609166
0.463400	-1.630913
0.463500	-1.491992
0.463600	-1.330999
0.463700	-1.195648
0.463800	-1.139820
0.463900	-1.190130
0.464000	-1.097949
0.464100	-1.113204
0.464200	-1.068087
0.464300	-1.023620
0.464400	-1.009013
0.464500	-1.000250
0.464600	-0.964546
0.464700	-1.030111
0.464800	-1.116450
0.464900	-1.075553
0.465000	-1.082694
0.465100	-1.083018
0.465200	-1.053157
0.465300	-0.936632
0.465400	-0.939228
0.465500	-0.954484
0.465600	-1.247581
0.465700	-1.243037
0.465800	-1.128135
0.465900	-0.909042
0.466000	-0.960002
0.466100	-1.090808
0.466200	-1.353395
0.466300	-1.383906
0.466400	-1.285882
0.466500	-1.116450
0.466600	-1.111581
0.466700	-1.281013
0.466800	-1.376765
0.466900	-1.414092
0.467000	-1.390722
0.467100	-1.379686
0.467200	-1.440383
0.467300	-1.527371
0.467400	-1.596832
0.467500	-1.567620
0.467600	-1.497834
0.467700	-1.585796
0.467800	-1.665968
0.467900	-1.716278
0.468000	-1.681223
0.468100	-1.644546
0.468200	-1.652336
0.468300	-1.722121
0.468400	-1.874350
0.468500	-1.887658
0.468600	-1.871429
0.468700	-1.879544
0.468800	-1.782493
0.468900	-1.832804
0.469000	-1.853252
0.469100	-1.844489
0.469200	-1.856498
0.469300	-1.865911
0.469400	-1.860718
0.469500	-1.899018
0.469600	-1.912002
0.469700	-1.935372
0.469800	-1.961338
0.469900	-2.006131
0.470000	-2.024957
0.470100	-2.028527
0.470200	-2.103830
0.470300	-2.110322
0.470400	-2.190494
0.470500	-2.219706
0.470600	-2.318055
0.470700	-2.627059
0.470800	-2.833819
0.470900	-2.826029
0.471000	-2.606935
0.471100	-2.504691
0.471200	-2.639717
0.471300	-2.903280
0.471400	-3.101925
0.471500	-3.150613
0.471600	-2.982478
0.471700	-2.868874
0.471800	-2.877313
0.471900	-3.035061
0.472000	-3.201897
0.472100	-3.281745
0.472200	-3.238251
0.472300	-3.266489
0.472400	-3.253181
0.472500	-3.287587
0.472600	-3.309335
0.472700	-3.367435
0.472800	-3.367111
0.472900	-3.396972
0.473000	-3.396972
0.473100	-3.479417
0.473200	-3.534272
0.473300	-3.533623
0.473400	-3.490778
0.473500	-3.494023
0.473600	-3.478443
0.473700	-3.524859
0.473800	-3.413526
0.473900	-3.252857
0.474000	-3.243119
0.474100	-3.418070
0.474200	-3.600163
0.474300	-3.645280
0.474400	-3.537193
0.474500	-3.301220
0.474600	-3.240847
0.474700	-3.392753
0.474800	-3.635218
0.474900	-3.774140
0.475000	-3.725777
0.475100	-3.585556
0.475200	-3.581661
0.475300	-3.639113
0.475400	-3.727400
0.475500	-3.744928
0.475600	-3.712145
0.475700	-3.689099
0.475800	-3.666378
0.475900	-3.674493
0.476000	-3.622234
0.476100	-3.535570
0.476200	-3.408982
0.476300	-3.387235
0.476400	-3.403789
0.476500	-3.413202
0.476600	-3.408008
0.476700	-3.269735
0.476800	-3.211310
0.476900	-2.987671
0.477000	-3.029543
0.477100	-3.013638
0.477200	-3.008120
0.477300	-2.911070
0.477400	-2.865952
0.477500	-2.711775
0.477600	-2.630954
0.477700	-2.607908
0.477800	-2.616023
0.477900	-2.578371
0.478000	-2.531631
0.478100	-2.555650
0.478200	-2.482619
0.478300	-2.423869
0.478400	-2.399201
0.478500	-2.362523
0.478600	-2.431010
0.478700	-2.371611
0.478800	-2.529034
0.478900	-2.331688
0.479000	-2.309291
0.479100	-1.812030
0.479200	-2.005157
0.479300	-2.073320
0.479400	-2.411860
0.479500	-2.294361
0.479600	-2.071372
0.479700	-1.965558
0.479800	-1.880193
0.479900	-2.059362
0.480000	-2.203153
0.480100	-2.228795
0.480200	-2.188547
0.480300	-2.053520
0.480400	-1.984059
0.480500	-1.986331
0.480600	-2.101234
0.480700	-2.130446
0.480800	-2.141807
0.480900	-2.171019
0.481000	-2.163878
0.481100	-2.163878
0.481200	-2.195363
0.481300	-2.223601
0.481400	-2.262876
0.481500	-2.429387
0.481600	-2.366418
0.481700	-2.433607
0.481800	-2.474180
0.481900	-2.429387
0.482000	-2.422246
0.482100	-2.435230
0.482200	-2.591354
0.482300	-2.771823
0.482400	-2.676720
0.482500	-2.498848
0.482600	-2.276833
0.482700	-2.346943
0.482800	-2.505015
0.482900	-2.755594
0.483000	-2.718591
0.483100	-2.555650
0.483200	-2.391736
0.483300	-2.366094
0.483400	-2.532605
0.483500	-2.596872
0.483600	-2.536500
0.483700	-2.479373
0.483800	-2.393683
0.483900	-2.438151
0.484000	-2.445292
0.484100	-2.435230
0.484200	-2.381674
0.484300	-2.308967
0.484400	-2.333635
0.484500	-2.344996
0.484600	-2.300203
0.484700	-2.211267
0.484800	-2.180757
0.484900	-2.153492
0.485000	-2.209320
0.485100	-2.254112
0.485200	-2.239181
0.485300	-2.198284
0.485400	-2.184002
0.485500	-2.068126
0.485600	-2.072346
0.485700	-2.047677
0.485800	-2.022685
0.485900	-2.016517
0.486000	-2.020737
0.486100	-2.001911
0.486200	-2.035668
0.486300	-2.028527
0.486400	-2.039887
0.486500	-2.062933
0.486600	-2.038914
0.486700	-2.096365
0.486800	-2.054818
0.486900	-2.135639
0.487000	-2.121033
0.487100	-2.198933
0.487200	-2.211916
0.487300	-2.333635
0.487400	-2.604662
0.487500	-2.729952
0.487600	-2.641990
0.487700	-2.401149
0.487800	-2.339478
0.487900	-2.488137
0.488000	-2.732873
0.488100	-3.037982
0.488200	-3.007796
0.488300	-2.903604
0.488400	-2.806554
0.488500	-2.872444
0.488600	-3.010392
0.488700	-3.210012
0.488800	-3.281096
0.488900	-3.291482
0.489000	-3.281096
0.489100	-3.306089
0.489200	-3.345688
0.489300	-3.415149
0.489400	-3.464486
0.489500	-3.457994
0.489600	-3.445336
0.489700	-3.448581
0.489800	-3.494023
0.489900	-3.571275
0.490000	-3.538167
0.490100	-3.529403
0.490200	-3.551799
0.490300	-3.584907
0.490400	-3.574520
0.490500	-3.450529
0.490600	-3.328485
0.490700	-3.407035
0.490800	-3.587828
0.490900	-3.754341
0.491000	-3.763429
0.491100	-3.558940
0.491200	-3.352829
0.491300	-3.335301
0.491400	-3.496945
0.491500	-3.711820
0.491600	-3.721233
0.491700	-3.619313
0.491800	-3.459942
0.491900	-3.428457
0.492000	-3.464486
0.492100	-3.511551
0.492200	-3.476171
0.492300	-3.440142
0.492400	-3.422290
0.492500	-3.371979
0.492600	-3.321344
0.492700	-3.269735
0.492800	-3.149964
0.492900	-3.081476
0.493000	-3.054860
0.493100	-3.049667
0.493200	-3.054536
0.493300	-2.942554
0.493400	-2.782210
0.493500	-2.747804
0.493600	-2.497225
0.493700	-2.536824
0.493800	-2.512481
0.493900	-2.449187
0.494000	-2.357654
0.494100	-2.239181
0.494200	-2.102532
0.494300	-2.038914
0.494400	-2.059362
0.494500	-2.026255
0.494600	-2.021386
0.494700	-1.928556
0.494800	-1.952899
0.494900	-1.840269
0.495000	-1.846436
0.495100	-1.795801
0.495200	-1.795801
0.495300	-1.805539
0.495400	-1.791257
0.495500	-1.751658
0.495600	-1.706865
0.495700	-1.491667
0.495800	-1.382932
0.495900	-1.244011
0.496000	-1.721472
0.496100	-1.827610
0.496200	-1.753930
0.496300	-1.570541
0.496400	-1.379037
0.496500	-1.434216
0.496600	-1.466025
0.496700	-1.650713
0.496800	-1.674083
0.496900	-1.573462
0.497000	-1.470569
0.497100	-1.377739
0.497200	-1.371572
0.497300	-1.501729
0.497400	-1.495887
0.497500	-1.601701
0.497600	-1.558531
0.497700	-1.537433
0.497800	-1.582226
0.497900	-1.602350
0.498000	-1.645844
0.498100	-1.706216
0.498200	-1.836699
0.498300	-1.921739
0.498400	-2.013596
0.498500	-2.103181
0.498600	-1.968479
0.498700	-1.992823
0.498800	-1.912976
0.498900	-2.282676
0.499000	-2.353110
0.499100	-2.290141
0.499200	-1.971725
0.499300	-1.912002
0.499400	-1.957119
0.499500	-2.207048
0.499600	-2.352136
0.499700	-2.259306
0.499800	-2.060012
0.499900	-1.933100
0.500000	-2.000613
0.500100	-2.151869
0.500200	-2.246322
0.500300	-2.215162
0.500400	-2.196337
0.500500	-2.143754
0.500600	-2.228795
0.500700	-2.275210
0.500800	-2.301177
0.500900	-2.303449
0.501000	-2.274236
0.501100	-2.304747
0.501200	-2.346943
0.501300	-2.344996
0.501400	-2.325845
0.501500	-2.324871
0.501600	-2.333960
0.501700	-2.502094
0.501800	-2.582915
0.501900	-2.607259
0.502000	-2.512805
0.502100	-2.533579
0.502200	-2.614725
0.502300	-2.645885
0.502400	-2.664710
0.502500	-2.674448
0.502600	-2.651078
0.502700	-2.678343
0.502800	-2.670553
0.502900	-2.653350
0.503000	-2.593302
0.503100	-2.601741
0.503200	-2.558572
0.503300	-2.538123
0.503400	-2.481321
0.503500	-2.458600
0.503600	-2.408614
0.503700	-2.403745
0.503800	-2.374533
0.503900	-2.390762
0.504000	-2.528385
0.504100	-2.802659
0.504200	-2.836091
0.504300	-2.674448
0.504400	-2.502094
0.504500	-2.477426
0.504600	-2.671851
0.504700	-3.022077
0.504800	-3.208064
0.504900	-3.187940
0.505000	-3.048369
0.505100	-2.948721
0.505200	-3.060703
0.505300	-3.243119
0.505400	-3.427159
0.505500	-3.464162
0.505600	-3.466434
0.505700	-3.443713
0.505800	-3.481040
0.505900	-3.530701
0.506000	-3.620612
0.506100	-3.637165
0.506200	-3.666378
0.506300	-3.699161
0.506400	-3.717663
0.506500	-3.801730
0.506600	-3.795888
0.506700	-3.818609
0.506800	-3.820232
0.506900	-3.846848
0.507000	-3.937082
0.507100	-3.875086
0.507200	-3.708250
0.507300	-3.610549
0.507400	-3.706302
0.507500	-3.909168
0.507600	-3.978629
0.507700	-3.940328
0.507800	-3.691696
0.507900	-3.503112
0.508000	-3.559914
0.508100	-3.738761
0.508200	-3.937731
0.508300	-3.928319
0.508400	-3.821205
0.508500	-3.688774
0.508600	-3.678388
0.508700	-3.700135
0.508800	-3.740708
0.508900	-3.751419
0.509000	-3.717338
0.509100	-3.683581
0.509200	-3.646903
0.509300	-3.611848
0.509400	-3.506033
0.509500	-3.368084
0.509600	-3.296676
0.509700	-3.290509
0.509800	-3.303167
0.509900	-3.332380
0.510000	-3.225592
0.510100	-3.081152
0.510200	-3.069467
0.510300	-2.860759
0.510400	-2.919833
0.510500	-2.899385
0.510600	-2.874392
0.510700	-2.791623
0.510800	-2.688080
0.510900	-2.616997
0.511000	-2.606610
0.511100	-2.619593
0.511200	-2.657894
0.511300	-2.618295
0.511400	-2.685484
0.511500	-2.597846
0.511600	-2.592977
0.511700	-2.531956
0.511800	-2.534552
0.511900	-2.537798
0.512000	-2.574801
0.512100	-2.565063
0.512200	-2.551431
0.512300	-2.422246
0.512400	-2.155114
0.512500	-1.939591
0.512600	-2.147000
0.512700	-2.356031
0.512800	-2.492032
0.512900	-2.260279
0.513000	-2.184976
0.513100	-1.980164
0.513200	-2.056117
0.513300	-2.242427
0.513400	-2.304747
0.513500	-2.357979
0.513600	-2.196337
0.513700	-2.089224
0.513800	-2.006131
0.513900	-2.089549
0.514000	-2.177186
0.514100	-2.143429
0.514200	-2.218733
0.514300	-2.148623
0.514400	-2.154141
0.514500	-2.168098
0.514600	-2.191143
0.514700	-2.164852
0.514800	-2.360576
0.514900	-2.307344
0.515000	-2.295659
0.515100	-2.357005
0.515200	-2.324871
0.515300	-2.301501
0.515400	-2.246322
0.515500	-2.318055
0.515600	-2.551755
0.515700	-2.543641
0.515800	-2.384270
0.515900	-2.123630
0.516000	-2.058064
0.516100	-2.115840
0.516200	-2.359277
0.516300	-2.381349
0.516400	-2.288843
0.516500	-2.073320
0.516600	-1.997692
0.516700	-2.055467
0.516800	-2.174914
0.516900	-2.214838
0.517000	-2.186274
0.517100	-2.206399
0.517200	-2.221329
0.517300	-2.296308
0.517400	-2.333311
0.517500	-2.356356
0.517600	-2.340451
0.517700	-2.382647
0.517800	-2.455354
0.517900	-2.501769
0.518000	-2.477101
0.518100	-2.466065
0.518200	-2.477750
0.518300	-2.542342
0.518400	-2.691975
0.518500	-2.740663
0.518600	-2.761761
0.518700	-2.592977
0.518800	-2.643937
0.518900	-2.694248
0.519000	-2.710152
0.519100	-2.709178
0.519200	-2.714372
0.519300	-2.732873
0.519400	-2.751050
0.519500	-2.761761
0.519600	-2.768253
0.519700	-2.775718
0.519800	-2.775393
0.519900	-2.791298
0.520000	-2.784482
0.520100	-2.755918
0.520200	-2.736119
0.520300	-2.714696
0.520400	-2.707880
0.520500	-2.692949
0.520600	-2.727355
0.520700	-2.875690
0.520800	-3.071739
0.520900	-3.026622
0.521000	-2.805255
0.521100	-2.602715
0.521200	-2.642963
0.521300	-2.877637
0.521400	-3.153209
0.521500	-3.214556
0.521600	-3.086994
0.521700	-2.904578
0.521800	-2.876664
0.521900	-2.989294
0.522000	-3.142498
0.522100	-3.218126
0.522200	-3.239873
0.522300	-3.192484
0.522400	-3.196704
0.522500	-3.208389
0.522600	-3.245067
0.522700	-3.288237
0.522800	-3.302518
0.522900	-3.353803
0.523000	-3.384963
0.523100	-3.426510
0.523200	-3.531675
0.523300	-3.519016
0.523400	-3.513174
0.523500	-3.554721
0.523600	-3.670598
0.523700	-3.681958
0.523800	-3.656965
0.523900	-3.569976
0.524000	-3.518692
0.524100	-3.696889
0.524200	-3.897158
0.524300	-3.956233
0.524400	-3.882877
0.524500	-3.642034
0.524600	-3.541737
0.524700	-3.612172
0.524800	-3.783229
0.524900	-3.891316
0.525000	-3.825425
0.525100	-3.680984
0.525200	-3.576143
0.525300	-3.574845
0.525400	-3.568029
0.525500	-3.539465
0.525600	-3.476496
0.525700	-3.473899
0.525800	-3.416448
0.525900	-3.403140
0.526000	-3.335951
0.526100	-3.200274
0.526200	-3.049342
0.526300	-3.000979
0.526400	-3.030517
0.526500	-3.013638
0.526600	-3.047395
0.526700	-2.897762
0.526800	-2.822783
0.526900	-2.718267
0.527000	-2.660815
0.527100	-2.724434
0.527200	-2.718267
0.527300	-2.660815
0.527400	-2.623813
0.527500	-2.510858
0.527600	-2.487488
0.527700	-2.513454
0.527800	-2.501120
0.527900	-2.533579
0.528000	-2.524490
0.528100	-2.569283
0.528200	-2.592653
0.528300	-2.537798
0.528400	-2.590056
0.528500	-2.543641
0.528600	-2.650753
0.528700	-2.614075
0.528800	-2.673799
0.528900	-2.634849
0.529000	-2.409588
0.529100	-2.237234
0.529200	-2.029825
0.529300	-2.305721
0.529400	-2.561168
0.529500	-2.449187
0.529600	-2.303774
0.529700	-2.048651
0.529800	-1.992174
0.529900	-2.094417
0.530000	-2.273912
0.530100	-2.289816
0.530200	-2.248919
0.530300	-2.085005
0.530400	-2.018465
0.530500	-2.057090
0.530600	-2.156088
0.530700	-2.202504
0.530800	-2.232690
0.530900	-2.197310
0.531000	-2.211267
0.531100	-2.244699
0.531200	-2.238532
0.531300	-2.247296
0.531400	-2.281053
0.531500	-2.303449
0.531600	-2.407965
0.531700	-2.448538
0.531800	-2.586810
0.531900	-2.523517
0.532000	-2.484567
0.532100	-2.489111
0.532200	-2.608882
0.532300	-2.936387
0.532400	-2.902630
0.532500	-2.771498
0.532600	-2.514428
0.532700	-2.552080
0.532800	-2.686133
0.532900	-2.905552
0.533000	-2.842258
0.533100	-2.665684
0.533200	-2.405044
0.533300	-2.348566
0.533400	-2.437826
0.533500	-2.480672
0.533600	-2.435879
0.533700	-2.364795
0.533800	-2.313511
0.533900	-2.410561
0.534000	-2.491707
0.534100	-2.551431
0.534200	-2.574476
0.534300	-2.537149
0.534400	-2.575125
0.534500	-2.641990
0.534600	-2.667632
0.534700	-2.638095
0.534800	-2.602390
0.534900	-2.619269
0.535000	-2.717942
0.535100	-2.808826
0.535200	-2.803957
0.535300	-2.798764
0.535400	-2.671851
0.535500	-2.715670
0.535600	-2.760463
0.535700	-2.754296
0.535800	-2.736119
0.535900	-2.740663
0.536000	-2.750076
0.536100	-2.766630
0.536200	-2.783833
0.536300	-2.793570
0.536400	-2.822783
0.536500	-2.877962
0.536600	-2.895490
0.536700	-2.950669
0.536800	-2.946774
0.536900	-3.008120
0.537000	-3.020130
0.537100	-3.098030
0.537200	-3.162622
0.537300	-3.297000
0.537400	-3.573547
0.537500	-3.745901
0.537600	-3.744928
0.537700	-3.526157
0.537800	-3.472276
0.537900	-3.583933
0.538000	-3.935459
0.538100	-4.233754
0.538200	-4.336323
0.538300	-4.243492
0.538400	-4.148712
0.538500	-4.153906
0.538600	-4.366510
0.538700	-4.561262
0.538800	-4.590475
0.538900	-4.607678
0.539000	-4.549901
0.539100	-4.520039
0.539200	-4.523934
0.539300	-4.548603
0.539400	-4.544708
0.539500	-4.457394
0.539600	-4.395073
0.539700	-4.312304
0.539800	-4.271081
0.539900	-4.220770
0.540000	-4.107814
0.540100	-3.984472
0.540200	-3.857883
0.540300	-3.745901
0.540400	-3.691696
0.540500	-3.467732
0.540600	-3.262270
0.540700	-3.213582
0.540800	-3.331731
0.540900	-3.492400
0.541000	-3.538491
0.541100	-3.383989
0.541200	-3.137954
0.541300	-3.099978
0.541400	-3.287912
0.541500	-3.526482
0.541600	-3.623208
0.541700	-3.575494
0.541800	-3.438195
0.541900	-3.433001
0.542000	-3.492725
0.542100	-3.579389
0.542200	-3.583933
0.542300	-3.541413
0.542400	-3.533947
0.542500	-3.513823
0.542600	-3.487207
0.542700	-3.447608
0.542800	-3.327511
0.542900	-3.260647
0.543000	-3.206766
0.543100	-3.211635
0.543200	-3.208064
0.543300	-3.126269
0.543400	-2.968196
0.543500	-2.893217
0.543600	-2.644262
0.543700	-2.627708
0.543800	-2.567660
0.543900	-2.521894
0.544000	-2.365769
0.544100	-2.239506
0.544200	-2.057090
0.544300	-2.013596
0.544400	-1.996393
0.544500	-2.003210
0.544600	-1.960365
0.544700	-1.929205
0.544800	-1.898369
0.544900	-1.814627
0.545000	-1.775352
0.545100	-1.741596
0.545200	-1.789634
0.545300	-1.753281
0.545400	-1.938942
0.545500	-1.785739
0.545600	-1.895123
0.545700	-1.565997
0.545800	-1.457586
0.545900	-1.381958
0.546000	-1.818197
0.546100	-2.034694
0.546200	-1.954198
0.546300	-1.730560
0.546400	-1.583849
0.546500	-1.494588
0.546600	-1.618254
0.546700	-1.767562
0.546800	-1.795477
0.546900	-1.744192
0.547000	-1.603648
0.547100	-1.577682
0.547200	-1.557557
0.547300	-1.674083
0.547400	-1.675381
0.547500	-1.735753
0.547600	-1.749386
0.547700	-1.761720
0.547800	-1.779247
0.547900	-1.834426
0.548000	-1.840594
0.548100	-1.945434
0.548200	-1.986007
0.548300	-2.052871
0.548400	-2.093119
0.548500	-2.137262
0.548600	-2.077864
0.548700	-2.037940
0.548800	-2.014245
0.548900	-2.223926
0.549000	-2.354733
0.549100	-2.356356
0.549200	-2.091496
0.549300	-2.016193
0.549400	-2.022035
0.549500	-2.267745
0.549600	-2.429712
0.549700	-2.369339
0.549800	-2.200881
0.549900	-2.066503
0.550000	-2.110322
0.550100	-2.270341
0.550200	-2.369339
0.550300	-2.327793
0.550400	-2.366743
0.550500	-2.325196
0.550600	-2.467039
0.550700	-2.555650
0.550800	-2.643937
0.550900	-2.688730
0.551000	-2.703660
0.551100	-2.765007
0.551200	-2.784157
0.551300	-2.788377
0.551400	-2.697169
0.551500	-2.686458
0.551600	-2.683536
0.551700	-2.743909
0.551800	-2.792272
0.551900	-2.753646
0.552000	-2.678668
0.552100	-2.640042
0.552200	-2.557922
0.552300	-2.538123
0.552400	-2.511182
0.552500	-2.470934
0.552600	-2.467039
0.552700	-2.453406
0.552800	-2.472881
0.552900	-2.480022
0.553000	-2.491707
0.553100	-2.484891
0.553200	-2.545588
0.553300	-2.538772
0.553400	-2.581617
0.553500	-2.629655
0.553600	-2.660166
0.553700	-2.671527
0.553800	-2.720863
0.553900	-2.798114
0.554000	-2.874716
0.554100	-3.196704
0.554200	-3.297000
0.554300	-3.138928
0.554400	-3.041552
0.554500	-2.922755
0.554600	-3.129190
0.554700	-3.370357
0.554800	-3.577442
0.554900	-3.526482
0.555000	-3.438519
0.555100	-3.296351
0.555200	-3.425861
0.555300	-3.566730
0.555400	-3.735190
0.555500	-3.738761
0.555600	-3.706627
0.555700	-3.625156
0.555800	-3.616067
0.555900	-3.627103
0.556000	-3.649175
0.556100	-3.616392
0.556200	-3.592373
0.556300	-3.536544
0.556400	-3.524534
0.556500	-3.609251
0.556600	-3.603733
0.556700	-3.538167
0.556800	-3.538491
0.556900	-3.585556
0.557000	-3.619962
0.557100	-3.616067
0.557200	-3.456371
0.557300	-3.354776
0.557400	-3.439493
0.557500	-3.654368
0.557600	-3.826399
0.557700	-3.844251
0.557800	-3.667352
0.557900	-3.542711
0.558000	-3.584907
0.558100	-3.835487
0.558200	-4.045169
0.558300	-4.120473
0.558400	-4.029914
0.558500	-3.938381
0.558600	-3.944223
0.558700	-4.008816
0.558800	-4.086392
0.558900	-4.110411
0.559000	-4.099700
0.559100	-4.091585
0.559200	-4.028616
0.559300	-4.011088
0.559400	-3.947469
0.559500	-3.790694
0.559600	-3.715066
0.559700	-3.673519
0.559800	-3.655342
0.559900	-3.652421
0.560000	-3.549852
0.560100	-3.378471
0.560200	-3.265191
0.560300	-3.034736
0.560400	-3.082125
0.560500	-3.011691
0.560600	-2.943203
0.560700	-2.788377
0.560800	-2.701064
0.560900	-2.575125
0.561000	-2.534228
0.561100	-2.562142
0.561200	-2.557598
0.561300	-2.575774
0.561400	-2.505989
0.561500	-2.564089
0.561600	-2.428414
0.561700	-2.453731
0.561800	-2.396280
0.561900	-2.431659
0.562000	-2.434581
0.562100	-2.517349
0.562200	-2.493979
0.562300	-2.353435
0.562400	-2.152842
0.562500	-1.960040
0.562600	-2.008727
0.562700	-2.306370
0.562800	-2.389788
0.562900	-2.228795
0.563000	-1.869481
0.563100	-1.902913
0.563200	-1.798073
0.563300	-1.974971
0.563400	-2.033720
0.563500	-2.051248
0.563600	-1.843515
0.563700	-1.680574
0.563800	-1.554636
0.563900	-1.626044
0.564000	-1.711410
0.564100	-1.661749
0.564200	-1.686092
0.564300	-1.628316
0.564400	-1.618254
0.564500	-1.589042
0.564600	-1.634808
0.564700	-1.583524
0.564800	-1.641300
0.564900	-1.741271
0.565000	-1.701672
0.565100	-1.882789
0.565200	-1.822417
0.565300	-1.809109
0.565400	-1.777300
0.565500	-1.867209
0.565600	-2.089873
0.565700	-2.259955
0.565800	-2.149921
0.565900	-1.934073
0.566000	-1.891228
0.566100	-2.024307
0.566200	-2.285597
0.566300	-2.434581
0.566400	-2.368041
0.566500	-2.213215
0.566600	-2.102857
0.566700	-2.187248
0.566800	-2.348566
0.566900	-2.467364
0.567000	-2.424194
0.567100	-2.483917
0.567200	-2.431010
0.567300	-2.529034
0.567400	-2.584214
0.567500	-2.614400
0.567600	-2.579020
0.567700	-2.573827
0.567800	-2.610830
0.567900	-2.659842
0.568000	-2.634524
0.568100	-2.613426
0.568200	-2.565063
0.568300	-2.593302
0.568400	-2.698792
0.568500	-2.719565
0.568600	-2.725408
0.568700	-2.692949
0.568800	-2.518648
0.568900	-2.616023
0.569000	-2.613102
0.569100	-2.611803
0.569200	-2.609531
0.569300	-2.624137
0.569400	-2.634524
0.569500	-2.620242
0.569600	-2.627383
0.569700	-2.616023
0.569800	-2.626410
0.569900	-2.628032
0.570000	-2.624462
0.570100	-2.659517
0.570200	-2.633550
0.570300	-2.656596
0.570400	-2.691975
0.570500	-2.713723
0.570600	-2.730926
0.570700	-2.904902
0.570800	-3.097706
0.570900	-3.113610
0.571000	-2.959433
0.571100	-2.709828
0.571200	-2.759813
0.571300	-2.951318
0.571400	-3.241172
0.571500	-3.372629
0.571600	-3.285315
0.571700	-3.101601
0.571800	-3.057782
0.571900	-3.189238
0.572000	-3.344714
0.572100	-3.514148
0.572200	-3.526482
0.572300	-3.469679
0.572400	-3.427483
0.572500	-3.444362
0.572600	-3.445660
0.572700	-3.512849
0.572800	-3.527131
0.572900	-3.582960
0.573000	-3.612172
0.573100	-3.656316
0.573200	-3.740059
0.573300	-3.834189
0.573400	-3.791668
0.573500	-3.846523
0.573600	-3.913063
0.573700	-3.958830
0.573800	-3.912089
0.573900	-3.839057
0.574000	-3.799458
0.574100	-3.921178
0.574200	-4.151309
0.574300	-4.242193
0.574400	-4.223692
0.574500	-3.986744
0.574600	-3.861454
0.574700	-3.947794
0.574800	-4.162994
0.574900	-4.354825
0.575000	-4.377546
0.575100	-4.241219
0.575200	-4.114306
0.575300	-4.113008
0.575400	-4.150984
0.575500	-4.167538
0.575600	-4.143844
0.575700	-4.089962
0.575800	-4.059127
0.575900	-4.014983
0.576000	-3.983823
0.576100	-3.907545
0.576200	-3.747849
0.576300	-3.670922
0.576400	-3.699486
0.576500	-3.701433
0.576600	-3.739734
0.576700	-3.612172
0.576800	-3.497594
0.576900	-3.342118
0.577000	-3.288237
0.577100	-3.347960
0.577200	-3.353154
0.577300	-3.287912
0.577400	-3.218775
0.577500	-3.148016
0.577600	-3.052588
0.577700	-3.024349
0.577800	-3.004550
0.577900	-3.009094
0.578000	-2.968196
0.578100	-3.006497
0.578200	-2.949695
0.578300	-2.852644
0.578400	-2.789351
0.578500	-2.794869
0.578600	-2.757866
0.578700	-2.850372
0.578800	-2.748453
0.578900	-2.822134
0.579000	-2.628682
0.579100	-2.502743
0.579200	-2.204127
0.579300	-2.569607
0.579400	-2.738716
0.579500	-2.899709
0.579600	-2.660166
0.579700	-2.481970
0.579800	-2.347268
0.579900	-2.396929
0.580000	-2.583889
0.580100	-2.674773
0.580200	-2.683536
0.580300	-2.436853
0.580400	-2.328766
0.580500	-2.242103
0.580600	-2.230418
0.580700	-2.224900
0.580800	-2.175239
0.580900	-2.161282
0.581000	-2.148947
0.581100	-2.170370
0.581200	-2.131744
0.581300	-2.057090
0.581400	-2.107725
0.581500	-2.208346
0.581600	-2.171993
0.581700	-2.241129
0.581800	-2.229769
0.581900	-2.146351
0.582000	-2.109348
0.582100	-2.071372
0.582200	-2.214513
0.582300	-2.368041
0.582400	-2.383946
0.582500	-2.196012
0.582600	-1.925634
0.582700	-1.887333
0.582800	-1.984708
0.582900	-2.220356
0.583000	-2.229769
0.583100	-2.108374
0.583200	-1.885711
0.583300	-1.813978
0.583400	-1.922388
0.583500	-2.025606
0.583600	-2.053520
0.583700	-1.995095
0.583800	-2.011649
0.583900	-2.013272
0.584000	-2.128174
0.584100	-2.163878
0.584200	-2.137912
0.584300	-2.097339
0.584400	-2.152193
0.584500	-2.233988
0.584600	-2.304423
0.584700	-2.307344
0.584800	-2.291439
0.584900	-2.273587
0.585000	-2.356681
0.585100	-2.502094
0.585200	-2.551431
0.585300	-2.529034
0.585400	-2.522218
0.585500	-2.418676
0.585600	-2.478075
0.585700	-2.460223
0.585800	-2.443344
0.585900	-2.434581
0.586000	-2.475154
0.586100	-2.464442
0.586200	-2.468013
0.586300	-2.461846
0.586400	-2.515727
0.586500	-2.546887
0.586600	-2.568634
0.586700	-2.596872
0.586800	-2.584538
0.586900	-2.647832
0.587000	-2.616023
0.587100	-2.725732
0.587200	-2.765656
0.587300	-2.845828
0.587400	-3.065896
0.587500	-3.345363
0.587600	-3.325888
0.587700	-3.115233
0.587800	-2.904253
0.587900	-2.940282
0.588000	-3.172684
0.588100	-3.429106
0.588200	-3.542062
0.588300	-3.391130
0.588400	-3.259349
0.588500	-3.268762
0.588600	-3.389182
0.588700	-3.572248
0.588800	-3.648201
0.588900	-3.608926
0.589000	-3.564783
0.589100	-3.535570
0.589200	-3.560563
0.589300	-3.625480
0.589400	-3.687476
0.589500	-3.670598
0.589600	-3.663457
0.589700	-3.704030
0.589800	-3.736488
0.589900	-3.817959
0.590000	-3.798484
0.590100	-3.779334
0.590200	-3.784527
0.590300	-3.755964
0.590400	-3.782255
0.590500	-3.668001
0.590600	-3.513823
0.590700	-3.427159
0.590800	-3.559590
0.590900	-3.731944
0.591000	-3.775114
0.591100	-3.663132
0.591200	-3.391130
0.591300	-3.280771
0.591400	-3.386586
0.591500	-3.576468
0.591600	-3.644631
0.591700	-3.549527
0.591800	-3.352504
0.591900	-3.214880
0.592000	-3.174957
0.592100	-3.173658
0.592200	-3.104522
0.592300	-3.000979
0.592400	-2.881532
0.592500	-2.812071
0.592600	-2.772472
0.592700	-2.704959
0.592800	-2.559221
0.592900	-2.430686
0.593000	-2.353435
0.593100	-2.354084
0.593200	-2.348891
0.593300	-2.336232
0.593400	-2.180107
0.593500	-2.110322
0.593600	-1.886360
0.593700	-1.935696
0.593800	-1.940241
0.593900	-1.952899
0.594000	-1.924011
0.594100	-1.911353
0.594200	-1.861042
0.594300	-1.850331
0.594400	-1.882140
0.594500	-1.946083
0.594600	-1.969778
0.594700	-2.007754
0.594800	-2.101558
0.594900	-2.061635
0.595000	-2.084680
0.595100	-2.135639
0.595200	-2.169072
0.595300	-2.303124
0.595400	-2.271640
0.595500	-2.466390
0.595600	-2.312213
0.595700	-2.327468
0.595800	-1.928556
0.595900	-2.048327
0.596000	-2.143105
0.596100	-2.610505
0.596200	-2.515402
0.596300	-2.372261
0.596400	-2.183029
0.596500	-2.107076
0.596600	-2.244050
0.596700	-2.385893
0.596800	-2.519297
0.596900	-2.440099
0.597000	-2.318704
0.597100	-2.211267
0.597200	-2.224900
0.597300	-2.305721
0.597400	-2.362848
0.597500	-2.403421
0.597600	-2.392709
