LabVIEW Measurement	
Writer_Version	2
Reader_Version	2
Separator	Tab
Decimal_Separator	.
Multi_Headings	Yes
X_Columns	One
Time_Pref	Relative
Operator	as989
Description	Time Domain Data
Date	1903/12/31
Time	19:00:00
***End_of_Header***	
	
Channels	1	
Samples	15000	
Date	1903/12/31	
Time	19:00:00	
X_Dimension	Time	
X0	0.0000000000000000E+0	
Delta_X	0.000100	
***End_of_Header***		
X_Value	Untitled	Comment
0.000000	-1.890579	Tare Values:0.000000, 0.000000, 0.000000, 0.000000\0D\0A
0.000100	-1.810732
0.000200	-1.786713
0.000300	-1.743219
0.000400	-1.692584
0.000500	-1.642274
0.000600	-1.586121
0.000700	-1.518932
0.000800	-1.449472
0.000900	-1.420908
0.001000	-1.392020
0.001100	-1.402732
0.001200	-1.360211
0.001300	-1.368001
0.001400	-1.330350
0.001500	-1.320937
0.001600	-1.290751
0.001700	-1.301787
0.001800	-1.263161
0.001900	-1.295619
0.002000	-1.246608
0.002100	-1.208631
0.002200	-1.119047
0.002300	-0.927219
0.002400	-0.931763
0.002500	-1.025243
0.002600	-1.126188
0.002700	-1.098923
0.002800	-0.988889
0.002900	-0.843477
0.003000	-0.769472
0.003100	-0.822703
0.003200	-0.875935
0.003300	-0.880803
0.003400	-0.834713
0.003500	-0.728575
0.003600	-0.667553
0.003700	-0.638016
0.003800	-0.657491
0.003900	-0.665606
0.004000	-0.643534
0.004100	-0.618217
0.004200	-0.582513
0.004300	-0.577644
0.004400	-0.563362
0.004500	-0.541615
0.004600	-0.557844
0.004700	-0.550379
0.004800	-0.559792
0.004900	-0.564661
0.005000	-0.563687
0.005100	-0.502016
0.005200	-0.481568
0.005300	-0.494551
0.005400	-0.622112
0.005500	-0.666255
0.005600	-0.616918
0.005700	-0.506561
0.005800	-0.451706
0.005900	-0.490656
0.006000	-0.609778
0.006100	-0.666904
0.006200	-0.631200
0.006300	-0.502990
0.006400	-0.438398
0.006500	-0.440021
0.006600	-0.512728
0.006700	-0.551028
0.006800	-0.532202
0.006900	-0.527334
0.007000	-0.510456
0.007100	-0.535448
0.007200	-0.549730
0.007300	-0.562064
0.007400	-0.561739
0.007500	-0.558494
0.007600	-0.556222
0.007700	-0.560441
0.007800	-0.547133
0.007900	-0.519544
0.008000	-0.499420
0.008100	-0.515649
0.008200	-0.563687
0.008300	-0.586083
0.008400	-0.580241
0.008500	-0.524737
0.008600	-0.533825
0.008700	-0.534475
0.008800	-0.530255
0.008900	-0.548432
0.009000	-0.543887
0.009100	-0.556871
0.009200	-0.547458
0.009300	-0.544537
0.009400	-0.533501
0.009500	-0.546484
0.009600	-0.549081
0.009700	-0.548756
0.009800	-0.566933
0.009900	-0.575047
0.010000	-0.592575
0.010100	-0.604584
0.010200	-0.616594
0.010300	-0.641587
0.010400	-0.652947
0.010500	-0.760384
0.010600	-0.891515
0.010700	-0.991161
0.010800	-0.945071
0.010900	-0.888269
0.011000	-0.848994
0.011100	-0.957729
0.011200	-1.103791
0.011300	-1.212202
0.011400	-1.224536
0.011500	-1.157997
0.011600	-1.155400
0.011700	-1.194674
0.011800	-1.308603
0.011900	-1.381634
0.012000	-1.418636
0.012100	-1.413443
0.012200	-1.388125
0.012300	-1.413767
0.012400	-1.473166
0.012500	-1.464402
0.012600	-1.502378
0.012700	-1.541004
0.012800	-1.564049
0.012900	-1.595209
0.013000	-1.648116
0.013100	-1.676679
0.013200	-1.705892
0.013300	-1.715954
0.013400	-1.784765
0.013500	-1.823391
0.013600	-1.827286
0.013700	-1.759123
0.013800	-1.731209
0.013900	-1.787362
0.014000	-1.903563
0.014100	-2.006780
0.014200	-2.010350
0.014300	-1.908107
0.014400	-1.856823
0.014500	-1.888632
0.014600	-2.006780
0.014700	-2.129472
0.014800	-2.164203
0.014900	-2.150246
0.015000	-2.104155
0.015100	-2.093768
0.015200	-2.120384
0.015300	-2.154790
0.015400	-2.184002
0.015500	-2.194389
0.015600	-2.195363
0.015700	-2.178484
0.015800	-2.139859
0.015900	-2.110322
0.016000	-2.053845
0.016100	-2.036966
0.016200	-1.994446
0.016300	-1.985682
0.016400	-1.976594
0.016500	-1.899668
0.016600	-1.843190
0.016700	-1.753281
0.016800	-1.709787
0.016900	-1.703944
0.017000	-1.657854
0.017100	-1.628641
0.017200	-1.600078
0.017300	-1.526398
0.017400	-1.453367
0.017500	-1.426102
0.017600	-1.424479
0.017700	-1.408574
0.017800	-1.397863
0.017900	-1.397214
0.018000	-1.374168
0.018100	-1.344631
0.018200	-1.333920
0.018300	-1.313147
0.018400	-1.296918
0.018500	-1.315744
0.018600	-1.302436
0.018700	-1.291400
0.018800	-1.217720
0.018900	-1.119371
0.019000	-0.958054
0.019100	-1.016479
0.019200	-1.116775
0.019300	-1.177472
0.019400	-1.110608
0.019500	-1.000574
0.019600	-0.878856
0.019700	-0.847372
0.019800	-0.922999
0.019900	-0.939228
0.020000	-0.914235
0.020100	-0.850942
0.020200	-0.731496
0.020300	-0.673071
0.020400	-0.637367
0.020500	-0.645806
0.020600	-0.635744
0.020700	-0.635420
0.020800	-0.592899
0.020900	-0.579916
0.021000	-0.568231
0.021100	-0.569854
0.021200	-0.539019
0.021300	-0.551028
0.021400	-0.527658
0.021500	-0.558818
0.021600	-0.540642
0.021700	-0.533825
0.021800	-0.487086
0.021900	-0.452355
0.022000	-0.516623
0.022100	-0.613023
0.022200	-0.625682
0.022300	-0.562389
0.022400	-0.449110
0.022500	-0.431582
0.022600	-0.496823
0.022700	-0.596145
0.022800	-0.633797
0.022900	-0.578293
0.023000	-0.485138
0.023100	-0.435477
0.023200	-0.448136
0.023300	-0.488384
0.023400	-0.499420
0.023500	-0.514675
0.023600	-0.489358
0.023700	-0.478322
0.023800	-0.508833
0.023900	-0.516298
0.024000	-0.537720
0.024100	-0.536422
0.024200	-0.538370
0.024300	-0.557520
0.024400	-0.562389
0.024500	-0.571477
0.024600	-0.538045
0.024700	-0.514026
0.024800	-0.554599
0.024900	-0.581539
0.025000	-0.613673
0.025100	-0.609128
0.025200	-0.566933
0.025300	-0.563038
0.025400	-0.563687
0.025500	-0.571152
0.025600	-0.570179
0.025700	-0.568556
0.025800	-0.562713
0.025900	-0.562064
0.026000	-0.588355
0.026100	-0.597443
0.026200	-0.593548
0.026300	-0.596470
0.026400	-0.612699
0.026500	-0.615945
0.026600	-0.636069
0.026700	-0.642885
0.026800	-0.637692
0.026900	-0.657167
0.027000	-0.679563
0.027100	-0.719486
0.027200	-0.815238
0.027300	-0.950264
0.027400	-0.980126
0.027500	-0.920078
0.027600	-0.827572
0.027700	-0.865224
0.027800	-0.988240
0.027900	-1.131705
0.028000	-1.215123
0.028100	-1.192402
0.028200	-1.123266
0.028300	-1.115801
0.028400	-1.179094
0.028500	-1.273872
0.028600	-1.361510
0.028700	-1.389099
0.028800	-1.386503
0.028900	-1.394617
0.029000	-1.415066
0.029100	-1.442331
0.029200	-1.483228
0.029300	-1.490044
0.029400	-1.507896
0.029500	-1.545223
0.029600	-1.579954
0.029700	-1.607543
0.029800	-1.626694
0.029900	-1.655906
0.030000	-1.692908
0.030100	-1.743543
0.030200	-1.782169
0.030300	-1.758150
0.030400	-1.695830
0.030500	-1.705243
0.030600	-1.789959
0.030700	-1.903238
0.030800	-1.957119
0.030900	-1.917195
0.031000	-1.851954
0.031100	-1.845462
0.031200	-1.913300
0.031300	-2.009701
0.031400	-2.107076
0.031500	-2.120059
0.031600	-2.090847
0.031700	-2.060985
0.031800	-2.055792
0.031900	-2.061635
0.032000	-2.085329
0.032100	-2.087926
0.032200	-2.104155
0.032300	-2.098637
0.032400	-2.103830
0.032500	-2.086952
0.032600	-2.025930
0.032700	-1.979840
0.032800	-1.956794
0.032900	-1.935696
0.033000	-1.929205
0.033100	-1.905835
0.033200	-1.825014
0.033300	-1.779897
0.033400	-1.682846
0.033500	-1.666942
0.033600	-1.640651
0.033700	-1.587419
0.033800	-1.533863
0.033900	-1.506923
0.034000	-1.432918
0.034100	-1.385853
0.034200	-1.357939
0.034300	-1.332297
0.034400	-1.310875
0.034500	-1.301462
0.034600	-1.292049
0.034700	-1.263161
0.034800	-1.236870
0.034900	-1.229405
0.035000	-1.188507
0.035100	-1.218369
0.035200	-1.171954
0.035300	-1.236546
0.035400	-1.146636
0.035500	-1.104116
0.035600	-0.895085
0.035700	-0.863601
0.035800	-0.906770
0.035900	-1.040498
0.036000	-1.059324
0.036100	-0.964221
0.036200	-0.836011
0.036300	-0.738961
0.036400	-0.738312
0.036500	-0.793816
0.036600	-0.841854
0.036700	-0.795438
0.036800	-0.692546
0.036900	-0.616594
0.037000	-0.584785
0.037100	-0.604909
0.037200	-0.566933
0.037300	-0.576995
0.037400	-0.549405
0.037500	-0.534475
0.037600	-0.525711
0.037700	-0.509157
0.037800	-0.465663
0.037900	-0.443267
0.038000	-0.449434
0.038100	-0.464689
0.038200	-0.498446
0.038300	-0.498446
0.038400	-0.441320
0.038500	-0.400422
0.038600	-0.360823
0.038700	-0.487086
0.038800	-0.515649
0.038900	-0.531553
0.039000	-0.461444
0.039100	-0.352060
0.039200	-0.378026
0.039300	-0.459496
0.039400	-0.548756
0.039500	-0.540317
0.039600	-0.445215
0.039700	-0.382246
0.039800	-0.389711
0.039900	-0.431907
0.040000	-0.456575
0.040100	-0.436126
0.040200	-0.432231
0.040300	-0.412432
0.040400	-0.427363
0.040500	-0.440995
0.040600	-0.457549
0.040700	-0.466637
0.040800	-0.445215
0.040900	-0.468909
0.041000	-0.478646
0.041100	-0.480919
0.041200	-0.453654
0.041300	-0.445539
0.041400	-0.460470
0.041500	-0.505262
0.041600	-0.537720
0.041700	-0.558169
0.041800	-0.504288
0.041900	-0.482541
0.042000	-0.503315
0.042100	-0.503639
0.042200	-0.499744
0.042300	-0.511105
0.042400	-0.520193
0.042500	-0.514350
0.042600	-0.526685
0.042700	-0.507210
0.042800	-0.539668
0.042900	-0.527983
0.043000	-0.532527
0.043100	-0.534150
0.043200	-0.522140
0.043300	-0.533501
0.043400	-0.545510
0.043500	-0.570179
0.043600	-0.592899
0.043700	-0.613673
0.043800	-0.671773
0.043900	-0.806474
0.044000	-0.913262
0.044100	-0.925271
0.044200	-0.865873
0.044300	-0.803228
0.044400	-0.857109
0.044500	-1.011935
0.044600	-1.173577
0.044700	-1.206035
0.044800	-1.161242
0.044900	-1.109309
0.045000	-1.132355
0.045100	-1.219343
0.045200	-1.321911
0.045300	-1.366054
0.045400	-1.357290
0.045500	-1.355343
0.045600	-1.368001
0.045700	-1.410197
0.045800	-1.460507
0.045900	-1.502054
0.046000	-1.524125
0.046100	-1.539056
0.046200	-1.572813
0.046300	-1.625720
0.046400	-1.679601
0.046500	-1.687391
0.046600	-1.717577
0.046700	-1.748412
0.046800	-1.789634
0.046900	-1.800345
0.047000	-1.740622
0.047100	-1.666617
0.047200	-1.707190
0.047300	-1.825663
0.047400	-1.921415
0.047500	-1.958093
0.047600	-1.889281
0.047700	-1.809434
0.047800	-1.813004
0.047900	-1.897720
0.048000	-2.022360
0.048100	-2.089224
0.048200	-2.063257
0.048300	-2.021711
0.048400	-2.012947
0.048500	-2.054169
0.048600	-2.083706
0.048700	-2.087601
0.048800	-2.096365
0.048900	-2.101234
0.049000	-2.108050
0.049100	-2.120059
0.049200	-2.095391
0.049300	-2.040861
0.049400	-1.989577
0.049500	-1.968155
0.049600	-1.961338
0.049700	-1.961988
0.049800	-1.925310
0.049900	-1.868183
0.050000	-1.757176
0.050100	-1.700049
0.050200	-1.680250
0.050300	-1.681548
0.050400	-1.635133
0.050500	-1.600078
0.050600	-1.524125
0.050700	-1.466999
0.050800	-1.444278
0.050900	-1.400135
0.051000	-1.387476
0.051100	-1.352746
0.051200	-1.354044
0.051300	-1.313147
0.051400	-1.296593
0.051500	-1.256670
0.051600	-1.250178
0.051700	-1.239142
0.051800	-1.229405
0.051900	-1.214149
0.052000	-1.191429
0.052100	-1.152803
0.052200	-1.024269
0.052300	-0.863925
0.052400	-0.849319
0.052500	-0.939877
0.052600	-1.021997
0.052700	-0.982073
0.052800	-0.887620
0.052900	-0.745128
0.053000	-0.704555
0.053100	-0.726627
0.053200	-0.777911
0.053300	-0.795438
0.053400	-0.700011
0.053500	-0.594198
0.053600	-0.531878
0.053700	-0.500393
0.053800	-0.545835
0.053900	-0.551677
0.054000	-0.543563
0.054100	-0.487410
0.054200	-0.453329
0.054300	-0.434179
0.054400	-0.408537
0.054500	-0.385492
0.054600	-0.399449
0.054700	-0.405616
0.054800	-0.391983
0.054900	-0.394904
0.055000	-0.392632
0.055100	-0.365043
0.055200	-0.317329
0.055300	-0.337129
0.055400	-0.442293
0.055500	-0.472479
0.055600	-0.416002
0.055700	-0.320900
0.055800	-0.284547
0.055900	-0.305320
0.056000	-0.406265
0.056100	-0.457549
0.056200	-0.444890
0.056300	-0.344919
0.056400	-0.268642
0.056500	-0.270265
0.056600	-0.299153
0.056700	-0.329663
0.056800	-0.333558
0.056900	-0.302074
0.057000	-0.295258
0.057100	-0.312785
0.057200	-0.310189
0.057300	-0.320900
0.057400	-0.300127
0.057500	-0.296232
0.057600	-0.303697
0.057700	-0.313434
0.057800	-0.314084
0.057900	-0.282599
0.058000	-0.264098
0.058100	-0.305644
0.058200	-0.373807
0.058300	-0.392308
0.058400	-0.403019
0.058500	-0.403668
0.058600	-0.366666
0.058700	-0.375105
0.058800	-0.393281
0.058900	-0.403993
0.059000	-0.397826
0.059100	-0.409511
0.059200	-0.411783
0.059300	-0.416002
0.059400	-0.420222
0.059500	-0.442293
0.059600	-0.468260
0.059700	-0.450083
0.059800	-0.439372
0.059900	-0.446188
0.060000	-0.459172
0.060100	-0.469883
0.060200	-0.485138
0.060300	-0.506236
0.060400	-0.555897
0.060500	-0.634770
0.060600	-0.769796
0.060700	-0.832765
0.060800	-0.828546
0.060900	-0.698713
0.061000	-0.707477
0.061100	-0.797386
0.061200	-0.958703
0.061300	-1.050235
0.061400	-1.066140
0.061500	-1.005768
0.061600	-1.005768
0.061700	-1.034006
0.061800	-1.134302
0.061900	-1.207982
0.062000	-1.241414
0.062100	-1.255047
0.062200	-1.263486
0.062300	-1.271276
0.062400	-1.305357
0.062500	-1.343982
0.062600	-1.382608
0.062700	-1.409548
0.062800	-1.444927
0.062900	-1.457911
0.063000	-1.480307
0.063100	-1.508546
0.063200	-1.553338
0.063300	-1.587419
0.063400	-1.640001
0.063500	-1.668565
0.063600	-1.667591
0.063700	-1.605596
0.063800	-1.590989
0.063900	-1.631887
0.064000	-1.746465
0.064100	-1.844489
0.064200	-1.847085
0.064300	-1.786388
0.064400	-1.739973
0.064500	-1.776002
0.064600	-1.896422
0.064700	-1.982436
0.064800	-2.016517
0.064900	-1.981463
0.065000	-1.953548
0.065100	-1.973023
0.065200	-1.999964
0.065300	-2.042484
0.065400	-2.029176
0.065500	-2.027878
0.065600	-2.045730
0.065700	-2.027878
0.065800	-2.029501
0.065900	-1.962312
0.066000	-1.921415
0.066100	-1.894474
0.066200	-1.894150
0.066300	-1.912976
0.066400	-1.902589
0.066500	-1.828909
0.066600	-1.790932
0.066700	-1.729586
0.066800	-1.674732
0.066900	-1.638054
0.067000	-1.597481
0.067100	-1.550741
0.067200	-1.487772
0.067300	-1.419935
0.067400	-1.367677
0.067500	-1.316717
0.067600	-1.306655
0.067700	-1.278092
0.067800	-1.261538
0.067900	-1.250827
0.068000	-1.223238
0.068100	-1.222264
0.068200	-1.172927
0.068300	-1.187209
0.068400	-1.142417
0.068500	-1.175524
0.068600	-1.136574
0.068700	-1.144040
0.068800	-1.050235
0.068900	-0.947992
0.069000	-0.790570
0.069100	-0.895410
0.069200	-0.960002
0.069300	-1.008040
0.069400	-0.964546
0.069500	-0.847696
0.069600	-0.759410
0.069700	-0.744154
0.069800	-0.780508
0.069900	-0.831142
0.070000	-0.770770
0.070100	-0.687677
0.070200	-0.596794
0.070300	-0.578942
0.070400	-0.549081
0.070500	-0.561739
0.070600	-0.552002
0.070700	-0.504938
0.070800	-0.468909
0.070900	-0.453978
0.071000	-0.419897
0.071100	-0.409186
0.071200	-0.381272
0.071300	-0.408212
0.071400	-0.397176
0.071500	-0.384842
0.071600	-0.397501
0.071700	-0.403993
0.071800	-0.393606
0.071900	-0.348814
0.072000	-0.451057
0.072100	-0.558169
0.072200	-0.600040
0.072300	-0.518245
0.072400	-0.416651
0.072500	-0.381597
0.072600	-0.460470
0.072700	-0.558818
0.072800	-0.570179
0.072900	-0.490981
0.073000	-0.390036
0.073100	-0.343945
0.073200	-0.379974
0.073300	-0.425415
0.073400	-0.431258
0.073500	-0.425740
0.073600	-0.406589
0.073700	-0.375105
0.073800	-0.398475
0.073900	-0.413406
0.074000	-0.422494
0.074100	-0.415028
0.074200	-0.418274
0.074300	-0.431907
0.074400	-0.402045
0.074500	-0.383869
0.074600	-0.392957
0.074700	-0.384193
0.074800	-0.433854
0.074900	-0.483840
0.075000	-0.485463
0.075100	-0.482217
0.075200	-0.439697
0.075300	-0.442942
0.075400	-0.458198
0.075500	-0.465339
0.075600	-0.479620
0.075700	-0.489682
0.075800	-0.482217
0.075900	-0.492928
0.076000	-0.502016
0.076100	-0.494226
0.076200	-0.501692
0.076300	-0.515324
0.076400	-0.508183
0.076500	-0.519219
0.076600	-0.519219
0.076700	-0.522140
0.076800	-0.551028
0.076900	-0.572126
0.077000	-0.586083
0.077100	-0.618541
0.077200	-0.731820
0.077300	-0.833090
0.077400	-0.879505
0.077500	-0.825625
0.077600	-0.773367
0.077700	-0.780832
0.077800	-0.907095
0.077900	-1.022321
0.078000	-1.099572
0.078100	-1.068737
0.078200	-1.032708
0.078300	-1.055429
0.078400	-1.145987
0.078500	-1.243362
0.078600	-1.337166
0.078700	-1.370923
0.078800	-1.376116
0.078900	-1.360861
0.079000	-1.387152
0.079100	-1.440059
0.079200	-1.472517
0.079300	-1.500756
0.079400	-1.528994
0.079500	-1.564049
0.079600	-1.604947
0.079700	-1.657529
0.079800	-1.658178
0.079900	-1.686092
0.080000	-1.720173
0.080100	-1.766913
0.080200	-1.796126
0.080300	-1.766589
0.080400	-1.710760
0.080500	-1.704918
0.080600	-1.804240
0.080700	-1.908431
0.080800	-1.973023
0.080900	-1.926933
0.081000	-1.854226
0.081100	-1.842541
0.081200	-1.921415
0.081300	-2.069425
0.081400	-2.151544
0.081500	-2.159983
0.081600	-2.136938
0.081700	-2.093444
0.081800	-2.094417
0.081900	-2.140833
0.082000	-2.147649
0.082100	-2.156737
0.082200	-2.164527
0.082300	-2.159659
0.082400	-2.153492
0.082500	-2.122332
0.082600	-2.083706
0.082700	-2.031124
0.082800	-2.020088
0.082900	-2.010675
0.083000	-2.029825
0.083100	-1.987954
0.083200	-1.894474
0.083300	-1.854551
0.083400	-1.777949
0.083500	-1.766913
0.083600	-1.749386
0.083700	-1.703944
0.083800	-1.664670
0.083900	-1.600078
0.084000	-1.527047
0.084100	-1.476412
0.084200	-1.452717
0.084300	-1.438760
0.084400	-1.412145
0.084500	-1.418636
0.084600	-1.409872
0.084700	-1.402083
0.084800	-1.365729
0.084900	-1.351772
0.085000	-1.340736
0.085100	-1.331324
0.085200	-1.351448
0.085300	-1.311199
0.085400	-1.298216
0.085500	-1.181042
0.085600	-1.067763
0.085700	-0.956431
0.085800	-1.030760
0.085900	-1.119047
0.086000	-1.116126
0.086100	-1.047963
0.086200	-0.924622
0.086300	-0.853863
0.086400	-0.864574
0.086500	-0.917157
0.086600	-0.960975
0.086700	-0.877233
0.086800	-0.839906
0.086900	-0.753892
0.087000	-0.740259
0.087100	-0.713319
0.087200	-0.715591
0.087300	-0.719486
0.087400	-0.699038
0.087500	-0.656193
0.087600	-0.628928
0.087700	-0.598742
0.087800	-0.606207
0.087900	-0.582837
0.088000	-0.576346
0.088100	-0.599066
0.088200	-0.588031
0.088300	-0.590303
0.088400	-0.565634
0.088500	-0.520842
0.088600	-0.521491
0.088700	-0.630551
0.088800	-0.691897
0.088900	-0.658789
0.089000	-0.548756
0.089100	-0.491630
0.089200	-0.459172
0.089300	-0.593548
0.089400	-0.656517
0.089500	-0.669501
0.089600	-0.591601
0.089700	-0.491954
0.089800	-0.482217
0.089900	-0.514350
0.090000	-0.569854
0.090100	-0.576995
0.090200	-0.559792
0.090300	-0.527983
0.090400	-0.563362
0.090500	-0.552651
0.090600	-0.573424
0.090700	-0.561415
0.090800	-0.568556
0.090900	-0.569854
0.091000	-0.574074
0.091100	-0.566608
0.091200	-0.565310
0.091300	-0.561739
0.091400	-0.553625
0.091500	-0.603286
0.091600	-0.652622
0.091700	-0.685405
0.091800	-0.658465
0.091900	-0.630875
0.092000	-0.623085
0.092100	-0.651649
0.092200	-0.645482
0.092300	-0.651649
0.092400	-0.644508
0.092500	-0.657167
0.092600	-0.678589
0.092700	-0.666579
0.092800	-0.663658
0.092900	-0.658140
0.093000	-0.653272
0.093100	-0.657816
0.093200	-0.669176
0.093300	-0.677615
0.093400	-0.681186
0.093500	-0.687353
0.093600	-0.693844
0.093700	-0.717539
0.093800	-0.782780
0.093900	-0.929166
0.094000	-1.025892
0.094100	-1.030111
0.094200	-0.916832
0.094300	-0.876909
0.094400	-0.924947
0.094500	-1.093080
0.094600	-1.196622
0.094700	-1.230378
0.094800	-1.189806
0.094900	-1.159295
0.095000	-1.189157
0.095100	-1.292374
0.095200	-1.392994
0.095300	-1.437462
0.095400	-1.451744
0.095500	-1.439734
0.095600	-1.429672
0.095700	-1.454665
0.095800	-1.483877
0.095900	-1.528670
0.096000	-1.542951
0.096100	-1.574760
0.096200	-1.612412
0.096300	-1.641949
0.096400	-1.705892
0.096500	-1.708813
0.096600	-1.737052
0.096700	-1.774703
0.096800	-1.802617
0.096900	-1.829882
0.097000	-1.757825
0.097100	-1.726340
0.097200	-1.778274
0.097300	-1.874350
0.097400	-1.970751
0.097500	-2.005482
0.097600	-1.948030
0.097700	-1.889281
0.097800	-1.914598
0.097900	-2.020088
0.098000	-2.127525
0.098100	-2.174589
0.098200	-2.170694
0.098300	-2.128174
0.098400	-2.106427
0.098500	-2.130771
0.098600	-2.142456
0.098700	-2.168098
0.098800	-2.183353
0.098900	-2.185301
0.099000	-2.197635
0.099100	-2.181730
0.099200	-2.126876
0.099300	-2.086303
0.099400	-2.016193
0.099500	-2.003210
0.099600	-2.011000
0.099700	-2.017167
0.099800	-1.951601
0.099900	-1.877921
0.100000	-1.833777
0.100100	-1.748087
0.100200	-1.723744
0.100300	-1.700374
0.100400	-1.654283
0.100500	-1.614684
0.100600	-1.548794
0.100700	-1.466350
0.100800	-1.435839
0.100900	-1.410846
0.101000	-1.417987
0.101100	-1.394942
0.101200	-1.410522
0.101300	-1.387476
0.101400	-1.353720
0.101500	-1.328402
0.101600	-1.307954
0.101700	-1.298865
0.101800	-1.269977
0.101900	-1.280689
0.102000	-1.259591
0.102100	-1.225185
0.102200	-1.112231
0.102300	-0.989538
0.102400	-0.977854
0.102500	-1.053806
0.102600	-1.125214
0.102700	-1.110283
0.102800	-0.960002
0.102900	-0.865548
0.103000	-0.811018
0.103100	-0.849968
0.103200	-0.896059
0.103300	-0.920078
0.103400	-0.834064
0.103500	-0.757462
0.103600	-0.683458
0.103700	-0.671124
0.103800	-0.684107
0.103900	-0.687028
0.104000	-0.713968
0.104100	-0.671773
0.104200	-0.665281
0.104300	-0.643859
0.104400	-0.630226
0.104500	-0.599716
0.104600	-0.611076
0.104700	-0.611725
0.104800	-0.635095
0.104900	-0.621787
0.105000	-0.653272
0.105100	-0.591926
0.105200	-0.567257
0.105300	-0.578293
0.105400	-0.720785
0.105500	-0.742532
0.105600	-0.696116
0.105700	-0.574074
0.105800	-0.536097
0.105900	-0.568556
0.106000	-0.662360
0.106100	-0.703257
0.106200	-0.667553
0.106300	-0.575372
0.106400	-0.491630
0.106500	-0.497797
0.106600	-0.544861
0.106700	-0.567906
0.106800	-0.566284
0.106900	-0.547133
0.107000	-0.523439
0.107100	-0.561090
0.107200	-0.573424
0.107300	-0.606856
0.107400	-0.587706
0.107500	-0.573424
0.107600	-0.582513
0.107700	-0.591276
0.107800	-0.590627
0.107900	-0.584136
0.108000	-0.562389
0.108100	-0.548432
0.108200	-0.592575
0.108300	-0.624384
0.108400	-0.642885
0.108500	-0.576346
0.108600	-0.566284
0.108700	-0.578293
0.108800	-0.571477
0.108900	-0.573424
0.109000	-0.569529
0.109100	-0.573100
0.109200	-0.578293
0.109300	-0.577644
0.109400	-0.577319
0.109500	-0.576346
0.109600	-0.576670
0.109700	-0.579267
0.109800	-0.573424
0.109900	-0.587057
0.110000	-0.616269
0.110100	-0.629902
0.110200	-0.648727
0.110300	-0.677940
0.110400	-0.696766
0.110500	-0.796412
0.110600	-0.946044
0.110700	-1.014856
0.110800	-0.970064
0.110900	-0.896708
0.111000	-0.881128
0.111100	-0.965519
0.111200	-1.108011
0.111300	-1.217071
0.111400	-1.203763
0.111500	-1.164488
0.111600	-1.123266
0.111700	-1.167409
0.111800	-1.247257
0.111900	-1.342684
0.112000	-1.363133
0.112100	-1.381634
0.112200	-1.369300
0.112300	-1.392670
0.112400	-1.434865
0.112500	-1.469271
0.112600	-1.498159
0.112700	-1.520231
0.112800	-1.546846
0.112900	-1.568593
0.113000	-1.630589
0.113100	-1.670188
0.113200	-1.689987
0.113300	-1.721796
0.113400	-1.734455
0.113500	-1.784765
0.113600	-1.769835
0.113700	-1.703620
0.113800	-1.690312
0.113900	-1.759772
0.114000	-1.867209
0.114100	-1.936995
0.114200	-1.937319
0.114300	-1.863639
0.114400	-1.822742
0.114500	-1.857796
0.114600	-1.968479
0.114700	-2.067802
0.114800	-2.107725
0.114900	-2.090847
0.115000	-2.079162
0.115100	-2.088250
0.115200	-2.102207
0.115300	-2.111945
0.115400	-2.134017
0.115500	-2.133692
0.115600	-2.145052
0.115700	-2.142131
0.115800	-2.130771
0.115900	-2.062933
0.116000	-2.030475
0.116100	-2.010026
0.116200	-2.007754
0.116300	-2.003534
0.116400	-1.982761
0.116500	-1.895123
0.116600	-1.844164
0.116700	-1.798398
0.116800	-1.734780
0.116900	-1.693233
0.117000	-1.642274
0.117100	-1.595534
0.117200	-1.523476
0.117300	-1.472841
0.117400	-1.410522
0.117500	-1.373195
0.117600	-1.360861
0.117700	-1.332297
0.117800	-1.300813
0.117900	-1.313472
0.118000	-1.257319
0.118100	-1.273548
0.118200	-1.199219
0.118300	-1.201166
0.118400	-1.166760
0.118500	-1.171304
0.118600	-1.184612
0.118700	-1.127161
0.118800	-1.100546
0.118900	-0.937605
0.119000	-0.835037
0.119100	-0.836985
0.119200	-0.985643
0.119300	-1.029137
0.119400	-0.964221
0.119500	-0.866197
0.119600	-0.737987
0.119700	-0.714293
0.119800	-0.767524
0.119900	-0.790570
0.120000	-0.773367
0.120100	-0.694493
0.120200	-0.627630
0.120300	-0.566933
0.120400	-0.551353
0.120500	-0.542589
0.120600	-0.541615
0.120700	-0.536097
0.120800	-0.496174
0.120900	-0.489033
0.121000	-0.495525
0.121100	-0.463067
0.121200	-0.434828
0.121300	-0.500069
0.121400	-0.464689
0.121500	-0.476374
0.121600	-0.458198
0.121700	-0.448136
0.121800	-0.442942
0.121900	-0.405616
0.122000	-0.496823
0.122100	-0.578293
0.122200	-0.578618
0.122300	-0.510456
0.122400	-0.389062
0.122500	-0.393281
0.122600	-0.449759
0.122700	-0.559143
0.122800	-0.583162
0.122900	-0.520193
0.123000	-0.427687
0.123100	-0.408861
0.123200	-0.432556
0.123300	-0.471181
0.123400	-0.460794
0.123500	-0.462417
0.123600	-0.422818
0.123700	-0.427687
0.123800	-0.432231
0.123900	-0.443916
0.124000	-0.458522
0.124100	-0.445864
0.124200	-0.468584
0.124300	-0.500393
0.124400	-0.511105
0.124500	-0.486112
0.124600	-0.465988
0.124700	-0.472479
0.124800	-0.510456
0.124900	-0.560766
0.125000	-0.584460
0.125100	-0.564985
0.125200	-0.525386
0.125300	-0.528308
0.125400	-0.538370
0.125500	-0.518895
0.125600	-0.535448
0.125700	-0.530580
0.125800	-0.532527
0.125900	-0.541615
0.126000	-0.534150
0.126100	-0.517921
0.126200	-0.526035
0.126300	-0.544537
0.126400	-0.551028
0.126500	-0.570179
0.126600	-0.572126
0.126700	-0.584460
0.126800	-0.621463
0.126900	-0.639315
0.127000	-0.653596
0.127100	-0.689625
0.127200	-0.782455
0.127300	-0.917157
0.127400	-0.935333
0.127500	-0.902875
0.127600	-0.803228
0.127700	-0.818159
0.127800	-0.928517
0.127900	-1.074579
0.128000	-1.155075
0.128100	-1.107686
0.128200	-1.070035
0.128300	-1.080097
0.128400	-1.146636
0.128500	-1.238818
0.128600	-1.306980
0.128700	-1.311849
0.128800	-1.329051
0.128900	-1.331324
0.129000	-1.358588
0.129100	-1.401109
0.129200	-1.436813
0.129300	-1.451419
0.129400	-1.485500
0.129500	-1.523476
0.129600	-1.578655
0.129700	-1.613061
0.129800	-1.654283
0.129900	-1.669538
0.130000	-1.732832
0.130100	-1.781844
0.130200	-1.805214
0.130300	-1.774703
0.130400	-1.732832
0.130500	-1.731209
0.130600	-1.815276
0.130700	-1.923038
0.130800	-1.996393
0.130900	-1.960365
0.131000	-1.887658
0.131100	-1.857472
0.131200	-1.938942
0.131300	-2.080136
0.131400	-2.126551
0.131500	-2.121033
0.131600	-2.094093
0.131700	-2.086303
0.131800	-2.121033
0.131900	-2.155439
0.132000	-2.167773
0.132100	-2.178160
0.132200	-2.170370
0.132300	-2.175239
0.132400	-2.168747
0.132500	-2.140833
0.132600	-2.091172
0.132700	-2.044107
0.132800	-2.026904
0.132900	-2.014570
0.133000	-2.035019
0.133100	-1.971725
0.133200	-1.903887
0.133300	-1.845787
0.133400	-1.769185
0.133500	-1.743219
0.133600	-1.719200
0.133700	-1.671161
0.133800	-1.626694
0.133900	-1.540679
0.134000	-1.493290
0.134100	-1.449796
0.134200	-1.415066
0.134300	-1.405653
0.134400	-1.384880
0.134500	-1.387476
0.134600	-1.362808
0.134700	-1.348851
0.134800	-1.326779
0.134900	-1.316393
0.135000	-1.291075
0.135100	-1.283935
0.135200	-1.283285
0.135300	-1.268679
0.135400	-1.263486
0.135500	-1.144689
0.135600	-1.033357
0.135700	-0.953834
0.135800	-1.061596
0.135900	-1.113529
0.136000	-1.144364
0.136100	-1.057376
0.136200	-0.931114
0.136300	-0.865873
0.136400	-0.873014
0.136500	-0.936956
0.136600	-0.932412
0.136700	-0.878207
0.136800	-0.779858
0.136900	-0.686703
0.137000	-0.695143
0.137100	-0.651973
0.137200	-0.650675
0.137300	-0.645806
0.137400	-0.623410
0.137500	-0.571477
0.137600	-0.557520
0.137700	-0.527009
0.137800	-0.487735
0.137900	-0.487410
0.138000	-0.473453
0.138100	-0.500393
0.138200	-0.471181
0.138300	-0.495849
0.138400	-0.452355
0.138500	-0.429635
0.138600	-0.394904
0.138700	-0.514350
0.138800	-0.577319
0.138900	-0.566933
0.139000	-0.491954
0.139100	-0.400422
0.139200	-0.426064
0.139300	-0.515649
0.139400	-0.593548
0.139500	-0.571801
0.139600	-0.471830
0.139700	-0.388088
0.139800	-0.392957
0.139900	-0.432556
0.140000	-0.496498
0.140100	-0.477673
0.140200	-0.473778
0.140300	-0.438723
0.140400	-0.448136
0.140500	-0.464040
0.140600	-0.469558
0.140700	-0.448136
0.140800	-0.438723
0.140900	-0.456575
0.141000	-0.471830
0.141100	-0.451382
0.141200	-0.450083
0.141300	-0.424441
0.141400	-0.434179
0.141500	-0.507210
0.141600	-0.552327
0.141700	-0.575696
0.141800	-0.558818
0.141900	-0.572775
0.142000	-0.580890
0.142100	-0.589329
0.142200	-0.604260
0.142300	-0.615620
0.142400	-0.611076
0.142500	-0.631525
0.142600	-0.631525
0.142700	-0.626980
0.142800	-0.634446
0.142900	-0.653272
0.143000	-0.655868
0.143100	-0.652622
0.143200	-0.670474
0.143300	-0.695143
0.143400	-0.700660
0.143500	-0.714293
0.143600	-0.751295
0.143700	-0.757138
0.143800	-0.847047
0.143900	-0.966818
0.144000	-1.057701
0.144100	-1.061596
0.144200	-0.959352
0.144300	-0.934035
0.144400	-0.985968
0.144500	-1.142417
0.144600	-1.249529
0.144700	-1.265758
0.144800	-1.221939
0.144900	-1.180717
0.145000	-1.237195
0.145100	-1.333920
0.145200	-1.405328
0.145300	-1.437462
0.145400	-1.437137
0.145500	-1.413767
0.145600	-1.424154
0.145700	-1.455314
0.145800	-1.513090
0.145900	-1.548469
0.146000	-1.597806
0.146100	-1.612737
0.146200	-1.638054
0.146300	-1.685443
0.146400	-1.738999
0.146500	-1.759448
0.146600	-1.789959
0.146700	-1.816250
0.146800	-1.862341
0.146900	-1.885386
0.147000	-1.843515
0.147100	-1.777300
0.147200	-1.814627
0.147300	-1.945434
0.147400	-2.018465
0.147500	-2.053520
0.147600	-1.999964
0.147700	-1.940565
0.147800	-1.962637
0.147900	-2.073320
0.148000	-2.196986
0.148100	-2.262227
0.148200	-2.246647
0.148300	-2.214189
0.148400	-2.213864
0.148500	-2.238532
0.148600	-2.286895
0.148700	-2.292738
0.148800	-2.302475
0.148900	-2.298256
0.149000	-2.308642
0.149100	-2.291115
0.149200	-2.261253
0.149300	-2.212890
0.149400	-2.175888
0.149500	-2.175888
0.149600	-2.162904
0.149700	-2.141482
0.149800	-2.082083
0.149900	-2.003534
0.150000	-1.923687
0.150100	-1.866236
0.150200	-1.839944
0.150300	-1.810732
0.150400	-1.750035
0.150500	-1.698426
0.150600	-1.623123
0.150700	-1.541328
0.150800	-1.505624
0.150900	-1.493290
0.151000	-1.458560
0.151100	-1.445252
0.151200	-1.413767
0.151300	-1.396240
0.151400	-1.354044
0.151500	-1.341710
0.151600	-1.318989
0.151700	-1.292049
0.151800	-1.288479
0.151900	-1.299514
0.152000	-1.284584
0.152100	-1.254073
0.152200	-1.149233
0.152300	-0.984021
0.152400	-0.981749
0.152500	-1.077500
0.152600	-1.139495
0.152700	-1.123915
0.152800	-1.021672
0.152900	-0.913262
0.153000	-0.895410
0.153100	-0.906445
0.153200	-0.969090
0.153300	-0.950264
0.153400	-0.861329
0.153500	-0.754866
0.153600	-0.716240
0.153700	-0.679887
0.153800	-0.699687
0.153900	-0.694169
0.154000	-0.674045
0.154100	-0.626331
0.154200	-0.602637
0.154300	-0.570828
0.154400	-0.553949
0.154500	-0.540317
0.154600	-0.534799
0.154700	-0.540642
0.154800	-0.524737
0.154900	-0.536422
0.155000	-0.530580
0.155100	-0.488709
0.155200	-0.452680
0.155300	-0.478322
0.155400	-0.578618
0.155500	-0.623410
0.155600	-0.567906
0.155700	-0.457549
0.155800	-0.442293
0.155900	-0.481892
0.156000	-0.607505
0.156100	-0.641262
0.156200	-0.614322
0.156300	-0.510131
0.156400	-0.447162
0.156500	-0.458198
0.156600	-0.527658
0.156700	-0.554923
0.156800	-0.549730
0.156900	-0.529930
0.157000	-0.533825
0.157100	-0.561415
0.157200	-0.573424
0.157300	-0.571152
0.157400	-0.552327
0.157500	-0.565634
0.157600	-0.589978
0.157700	-0.604584
0.157800	-0.591601
0.157900	-0.559792
0.158000	-0.535773
0.158100	-0.560117
0.158200	-0.598093
0.158300	-0.619515
0.158400	-0.643209
0.158500	-0.616269
0.158600	-0.591601
0.158700	-0.626007
0.158800	-0.626331
0.158900	-0.608155
0.159000	-0.616918
0.159100	-0.614322
0.159200	-0.618217
0.159300	-0.623410
0.159400	-0.623085
0.159500	-0.633472
0.159600	-0.642885
0.159700	-0.648727
0.159800	-0.667229
0.159900	-0.668851
0.160000	-0.709749
0.160100	-0.704880
0.160200	-0.730847
0.160300	-0.745128
0.160400	-0.771744
0.160500	-0.864250
0.160600	-0.973309
0.160700	-1.066789
0.160800	-1.024593
0.160900	-0.973309
0.161000	-0.945720
0.161100	-1.050560
0.161200	-1.206359
0.161300	-1.300164
0.161400	-1.312173
0.161500	-1.267381
0.161600	-1.239467
0.161700	-1.296593
0.161800	-1.429347
0.161900	-1.493290
0.162000	-1.527371
0.162100	-1.533538
0.162200	-1.516985
0.162300	-1.533863
0.162400	-1.570541
0.162500	-1.605596
0.162600	-1.645519
0.162700	-1.681873
0.162800	-1.718875
0.162900	-1.762045
0.163000	-1.801968
0.163100	-1.834102
0.163200	-1.851954
0.163300	-1.887983
0.163400	-1.929205
0.163500	-1.961014
0.163600	-1.944460
0.163700	-1.887983
0.163800	-1.866560
0.163900	-1.917195
0.164000	-2.025930
0.164100	-2.091172
0.164200	-2.093444
0.164300	-2.028852
0.164400	-1.979190
0.164500	-2.044432
0.164600	-2.150246
0.164700	-2.255411
0.164800	-2.283325
0.164900	-2.240804
0.165000	-2.219706
0.165100	-2.237234
0.165200	-2.267096
0.165300	-2.290466
0.165400	-2.296633
0.165500	-2.307019
0.165600	-2.298256
0.165700	-2.277158
0.165800	-2.280404
0.165900	-2.252814
0.166000	-2.194064
0.166100	-2.190819
0.166200	-2.187897
0.166300	-2.207048
0.166400	-2.166150
0.166500	-2.098312
0.166600	-2.043458
0.166700	-1.937319
0.166800	-1.930503
0.166900	-1.912326
0.167000	-1.874675
0.167100	-1.841567
0.167200	-1.794827
0.167300	-1.713033
0.167400	-1.657204
0.167500	-1.630264
0.167600	-1.623772
0.167700	-1.603324
0.167800	-1.601701
0.167900	-1.587095
0.168000	-1.553013
0.168100	-1.535486
0.168200	-1.480631
0.168300	-1.504326
0.168400	-1.480631
0.168500	-1.475763
0.168600	-1.462130
0.168700	-1.432593
0.168800	-1.362159
0.168900	-1.233624
0.169000	-1.113853
0.169100	-1.186560
0.169200	-1.276794
0.169300	-1.346579
0.169400	-1.250503
0.169500	-1.155725
0.169600	-1.016479
0.169700	-1.001873
0.169800	-1.077176
0.169900	-1.088211
0.170000	-1.094054
0.170100	-0.984021
0.170200	-0.919753
0.170300	-0.866522
0.170400	-0.874961
0.170500	-0.889567
0.170600	-0.885672
0.170700	-0.872364
0.170800	-0.841854
0.170900	-0.807448
0.171000	-0.765901
0.171100	-0.741882
0.171200	-0.774665
0.171300	-0.780832
0.171400	-0.784403
0.171500	-0.757138
0.171600	-0.780183
0.171700	-0.737987
0.171800	-0.739610
0.171900	-0.708126
0.172000	-0.791543
0.172100	-0.883725
0.172200	-0.861004
0.172300	-0.796412
0.172400	-0.675668
0.172500	-0.699038
0.172600	-0.749348
0.172700	-0.863925
0.172800	-0.880154
0.172900	-0.823028
0.173000	-0.729224
0.173100	-0.682808
0.173200	-0.703906
0.173300	-0.766551
0.173400	-0.769796
0.173500	-0.771744
0.173600	-0.740909
0.173700	-0.733443
0.173800	-0.759085
0.173900	-0.771419
0.174000	-0.770446
0.174100	-0.765252
0.174200	-0.780508
0.174300	-0.785052
0.174400	-0.801930
0.174500	-0.788298
0.174600	-0.777262
0.174700	-0.771095
0.174800	-0.826923
0.174900	-0.866522
0.175000	-0.885997
0.175100	-0.873014
0.175200	-0.830169
0.175300	-0.837959
0.175400	-0.848670
0.175500	-0.866846
0.175600	-0.856784
0.175700	-0.857434
0.175800	-0.873014
0.175900	-0.868794
0.176000	-0.878531
0.176100	-0.892813
0.176200	-0.885023
0.176300	-0.886971
0.176400	-0.895734
0.176500	-0.884374
0.176600	-0.902550
0.176700	-0.893462
0.176800	-0.905147
0.176900	-0.912613
0.177000	-0.932087
0.177100	-0.963572
0.177200	-1.067114
0.177300	-1.193376
0.177400	-1.194674
0.177500	-1.126512
0.177600	-1.100221
0.177700	-1.123591
0.177800	-1.265433
0.177900	-1.405328
0.178000	-1.474464
0.178100	-1.443304
0.178200	-1.404679
0.178300	-1.410846
0.178400	-1.489071
0.178500	-1.600402
0.178600	-1.669863
0.178700	-1.683820
0.178800	-1.697777
0.178900	-1.692259
0.179000	-1.722121
0.179100	-1.769185
0.179200	-1.803916
0.179300	-1.847410
0.179400	-1.862990
0.179500	-1.897071
0.179600	-1.946408
0.179700	-2.004508
0.179800	-2.005482
0.179900	-2.039563
0.180000	-2.068126
0.180100	-2.110971
0.180200	-2.143429
0.180300	-2.107401
0.180400	-2.058713
0.180500	-2.077215
0.180600	-2.185301
0.180700	-2.306370
0.180800	-2.357330
0.180900	-2.310590
0.181000	-2.220031
0.181100	-2.223277
0.181200	-2.297282
0.181300	-2.428089
0.181400	-2.500796
0.181500	-2.530333
0.181600	-2.513454
0.181700	-2.468662
0.181800	-2.490734
0.181900	-2.514104
0.182000	-2.520595
0.182100	-2.538772
0.182200	-2.545588
0.182300	-2.542992
0.182400	-2.534552
0.182500	-2.492032
0.182600	-2.427115
0.182700	-2.360900
0.182800	-2.370962
0.182900	-2.376805
0.183000	-2.392060
0.183100	-2.339478
0.183200	-2.257358
0.183300	-2.220031
0.183400	-2.150570
0.183500	-2.138885
0.183600	-2.103181
0.183700	-2.052222
0.183800	-2.016842
0.183900	-1.948680
0.184000	-1.898694
0.184100	-1.846436
0.184200	-1.827610
0.184300	-1.795477
0.184400	-1.792231
0.184500	-1.787362
0.184600	-1.772756
0.184700	-1.767238
0.184800	-1.753281
0.184900	-1.710760
0.185000	-1.704918
0.185100	-1.698426
0.185200	-1.727314
0.185300	-1.663696
0.185400	-1.708813
0.185500	-1.559830
0.185600	-1.443304
0.185700	-1.359238
0.185800	-1.453042
0.185900	-1.531915
0.186000	-1.538407
0.186100	-1.471868
0.186200	-1.310550
0.186300	-1.277443
0.186400	-1.259915
0.186500	-1.326779
0.186600	-1.342684
0.186700	-1.268030
0.186800	-1.192078
0.186900	-1.122617
0.187000	-1.108336
0.187100	-1.101519
0.187200	-1.078149
0.187300	-1.063219
0.187400	-1.042770
0.187500	-1.034331
0.187600	-1.006092
0.187700	-0.996355
0.187800	-0.967142
0.187900	-0.958703
0.188000	-0.943448
0.188100	-0.909042
0.188200	-0.930789
0.188300	-0.920727
0.188400	-0.905147
0.188500	-0.862302
0.188600	-0.852240
0.188700	-0.978178
0.188800	-0.994732
0.188900	-0.974283
0.189000	-0.865224
0.189100	-0.796088
0.189200	-0.817835
0.189300	-0.900928
0.189400	-0.978178
0.189500	-0.963247
0.189600	-0.873014
0.189700	-0.792517
0.189800	-0.803228
0.189900	-0.855486
0.190000	-0.907744
0.190100	-0.889243
0.190200	-0.860355
0.190300	-0.845099
0.190400	-0.877882
0.190500	-0.892813
0.190600	-0.914235
0.190700	-0.887944
0.190800	-0.875610
0.190900	-0.907095
0.191000	-0.933710
0.191100	-0.931114
0.191200	-0.921376
0.191300	-0.913586
0.191400	-0.929166
0.191500	-0.971037
0.191600	-1.017453
0.191700	-1.036603
0.191800	-1.009338
0.191900	-0.968765
0.192000	-0.983696
0.192100	-0.978827
0.192200	-0.985968
0.192300	-0.968116
0.192400	-0.971037
0.192500	-0.966169
0.192600	-0.980775
0.192700	-0.964870
0.192800	-0.962923
0.192900	-0.954484
0.193000	-0.952212
0.193100	-0.950913
0.193200	-0.946694
0.193300	-0.975906
0.193400	-0.987266
0.193500	-0.987916
0.193600	-0.990188
0.193700	-1.023620
0.193800	-1.078474
0.193900	-1.202789
0.194000	-1.306331
0.194100	-1.299839
0.194200	-1.226808
0.194300	-1.158970
0.194400	-1.247257
0.194500	-1.409548
0.194600	-1.534512
0.194700	-1.551715
0.194800	-1.500106
0.194900	-1.474789
0.195000	-1.533214
0.195100	-1.637080
0.195200	-1.726016
0.195300	-1.778923
0.195400	-1.778923
0.195500	-1.793529
0.195600	-1.809109
0.195700	-1.837348
0.195800	-1.896746
0.195900	-1.927582
0.196000	-1.947057
0.196100	-1.984059
0.196200	-2.013596
0.196300	-2.055467
0.196400	-2.093444
0.196500	-2.145377
0.196600	-2.160957
0.196700	-2.212890
0.196800	-2.240804
0.196900	-2.265797
0.197000	-2.203802
0.197100	-2.162255
0.197200	-2.211916
0.197300	-2.334284
0.197400	-2.406666
0.197500	-2.412184
0.197600	-2.327144
0.197700	-2.260929
0.197800	-2.265148
0.197900	-2.376480
0.198000	-2.482619
0.198100	-2.502094
0.198200	-2.461846
0.198300	-2.425817
0.198400	-2.433931
0.198500	-2.456652
0.198600	-2.483917
0.198700	-2.494953
0.198800	-2.484242
0.198900	-2.492357
0.199000	-2.493006
0.199100	-2.489760
0.199200	-2.437177
0.199300	-2.378103
0.199400	-2.342399
0.199500	-2.348566
0.199600	-2.339478
0.199700	-2.329091
0.199800	-2.267096
0.199900	-2.206399
0.200000	-2.125577
0.200100	-2.062608
0.200200	-2.043133
0.200300	-2.025930
0.200400	-1.963935
0.200500	-1.921090
0.200600	-1.867534
0.200700	-1.795801
0.200800	-1.771133
0.200900	-1.759448
0.201000	-1.741596
0.201100	-1.735429
0.201200	-1.729586
0.201300	-1.715629
0.201400	-1.704918
0.201500	-1.690636
0.201600	-1.666293
0.201700	-1.715305
0.201800	-1.666293
0.201900	-1.701023
0.202000	-1.645844
0.202100	-1.641624
0.202200	-1.508546
0.202300	-1.363457
0.202400	-1.392345
0.202500	-1.464402
0.202600	-1.529319
0.202700	-1.497185
0.202800	-1.399810
0.202900	-1.271925
0.203000	-1.261214
0.203100	-1.326779
0.203200	-1.369300
0.203300	-1.352421
0.203400	-1.284259
0.203500	-1.149557
0.203600	-1.110932
0.203700	-1.088211
0.203800	-1.098923
0.203900	-1.111581
0.204000	-1.113853
0.204100	-1.078149
0.204200	-1.044717
0.204300	-1.030760
0.204400	-1.015830
0.204500	-1.004145
0.204600	-1.009013
0.204700	-1.003820
0.204800	-1.005118
0.204900	-1.018102
0.205000	-1.009663
0.205100	-0.996030
0.205200	-0.968765
0.205300	-1.003820
0.205400	-1.129433
0.205500	-1.154426
0.205600	-1.096326
0.205700	-1.007390
0.205800	-0.966169
0.205900	-1.000899
0.206000	-1.102818
0.206100	-1.141768
0.206200	-1.107686
0.206300	-0.999925
0.206400	-0.961949
0.206500	-0.987591
0.206600	-1.034980
0.206700	-1.077825
0.206800	-1.059648
0.206900	-1.020049
0.207000	-1.011610
0.207100	-1.052507
0.207200	-1.048937
0.207300	-1.073605
0.207400	-1.075228
0.207500	-1.089834
0.207600	-1.101195
0.207700	-1.119047
0.207800	-1.112880
0.207900	-1.094054
0.208000	-1.075553
0.208100	-1.112880
0.208200	-1.149882
0.208300	-1.153452
0.208400	-1.151505
0.208500	-1.145662
0.208600	-1.125538
0.208700	-1.141443
0.208800	-1.122293
0.208900	-1.107686
0.209000	-1.108011
0.209100	-1.109309
0.209200	-1.095352
0.209300	-1.100546
0.209400	-1.078149
0.209500	-1.085939
0.209600	-1.083992
0.209700	-1.069710
0.209800	-1.068412
0.209900	-1.085939
0.210000	-1.075553
0.210100	-1.088211
0.210200	-1.098598
0.210300	-1.100870
0.210400	-1.150856
0.210500	-1.234598
0.210600	-1.378063
0.210700	-1.445577
0.210800	-1.395591
0.210900	-1.318016
0.211000	-1.316068
0.211100	-1.427725
0.211200	-1.564374
0.211300	-1.646818
0.211400	-1.647142
0.211500	-1.604297
0.211600	-1.605920
0.211700	-1.670837
0.211800	-1.760746
0.211900	-1.821119
0.212000	-1.846761
0.212100	-1.857472
0.212200	-1.886684
0.212300	-1.894799
0.212400	-1.959715
0.212500	-2.008403
0.212600	-2.032747
0.212700	-2.064231
0.212800	-2.093444
0.212900	-2.115191
0.213000	-2.162255
0.213100	-2.219382
0.213200	-2.244375
0.213300	-2.267096
0.213400	-2.324222
0.213500	-2.363172
0.213600	-2.344022
0.213700	-2.284299
0.213800	-2.273912
0.213900	-2.315459
0.214000	-2.431335
0.214100	-2.490734
0.214200	-2.466714
0.214300	-2.381998
0.214400	-2.335583
0.214500	-2.400175
0.214600	-2.516376
0.214700	-2.604662
0.214800	-2.626734
0.214900	-2.577397
0.215000	-2.558896
0.215100	-2.539097
0.215200	-2.581617
0.215300	-2.588433
0.215400	-2.580643
0.215500	-2.561168
0.215600	-2.546237
0.215700	-2.557922
0.215800	-2.518972
0.215900	-2.475478
0.216000	-2.435554
0.216100	-2.403745
0.216200	-2.408289
0.216300	-2.415106
0.216400	-2.386542
0.216500	-2.313836
0.216600	-2.258007
0.216700	-2.175888
0.216800	-2.155764
0.216900	-2.136613
0.217000	-2.105453
0.217100	-2.056441
0.217200	-2.003534
0.217300	-1.933749
0.217400	-1.878894
0.217500	-1.877596
0.217600	-1.825663
0.217700	-1.825663
0.217800	-1.813329
0.217900	-1.799047
0.218000	-1.787037
0.218100	-1.758150
0.218200	-1.738999
0.218300	-1.712383
0.218400	-1.698751
0.218500	-1.702321
0.218600	-1.675706
0.218700	-1.649414
0.218800	-1.542302
0.218900	-1.428698
0.219000	-1.321261
0.219100	-1.393319
0.219200	-1.453042
0.219300	-1.487123
0.219400	-1.409223
0.219500	-1.294646
0.219600	-1.207009
0.219700	-1.221939
0.219800	-1.288479
0.219900	-1.300164
0.220000	-1.251152
0.220100	-1.165787
0.220200	-1.075228
0.220300	-1.049262
0.220400	-1.027190
0.220500	-1.031410
0.220600	-1.046340
0.220700	-1.012908
0.220800	-0.962923
0.220900	-0.921701
0.221000	-0.913262
0.221100	-0.891515
0.221200	-0.892813
0.221300	-0.874312
0.221400	-0.908068
0.221500	-0.871066
0.221600	-0.894111
0.221700	-0.851267
0.221800	-0.814913
0.221900	-0.819457
0.222000	-0.919753
0.222100	-1.001223
0.222200	-0.988565
0.222300	-0.924297
0.222400	-0.826598
0.222500	-0.868794
0.222600	-0.932737
0.222700	-1.024918
0.222800	-1.019725
0.222900	-0.933386
0.223000	-0.866522
0.223100	-0.836660
0.223200	-0.875935
0.223300	-0.941176
0.223400	-0.941825
0.223500	-0.949290
0.223600	-0.919104
0.223700	-0.944422
0.223800	-0.949615
0.223900	-0.959677
0.224000	-0.975581
0.224100	-0.970713
0.224200	-0.994732
0.224300	-1.015505
0.224400	-1.025243
0.224500	-1.022646
0.224600	-1.017128
0.224700	-1.001873
0.224800	-1.039200
0.224900	-1.099572
0.225000	-1.115152
0.225100	-1.111906
0.225200	-1.100546
0.225300	-1.116775
0.225400	-1.098923
0.225500	-1.081071
0.225600	-1.080421
0.225700	-1.086264
0.225800	-1.061271
0.225900	-1.071009
0.226000	-1.064192
0.226100	-1.069386
0.226200	-1.067438
0.226300	-1.071982
0.226400	-1.070684
0.226500	-1.082044
0.226600	-1.073281
0.226700	-1.082044
0.226800	-1.081071
0.226900	-1.093080
0.227000	-1.118398
0.227100	-1.141118
0.227200	-1.269328
0.227300	-1.378388
0.227400	-1.377090
0.227500	-1.291400
0.227600	-1.232975
0.227700	-1.259591
0.227800	-1.410197
0.227900	-1.538083
0.228000	-1.555285
0.228100	-1.526398
0.228200	-1.479982
0.228300	-1.505624
0.228400	-1.573137
0.228500	-1.679925
0.228600	-1.712059
0.228700	-1.705892
0.228800	-1.706865
0.228900	-1.696479
0.229000	-1.714331
0.229100	-1.763343
0.229200	-1.808460
0.229300	-1.826637
0.229400	-1.837023
0.229500	-1.865262
0.229600	-1.899018
0.229700	-1.967505
0.229800	-1.975945
0.229900	-2.005806
0.230000	-2.052222
0.230100	-2.109673
0.230200	-2.121682
0.230300	-2.078513
0.230400	-2.038914
0.230500	-2.060985
0.230600	-2.155439
0.230700	-2.250217
0.230800	-2.305396
0.230900	-2.258656
0.231000	-2.201205
0.231100	-2.195363
0.231200	-2.288518
0.231300	-2.434256
0.231400	-2.495278
0.231500	-2.479373
0.231600	-2.447564
0.231700	-2.430686
0.231800	-2.448862
0.231900	-2.461846
0.232000	-2.491383
0.232100	-2.507937
0.232200	-2.487812
0.232300	-2.495927
0.232400	-2.491383
0.232500	-2.484567
0.232600	-2.439125
0.232700	-2.393359
0.232800	-2.369015
0.232900	-2.365769
0.233000	-2.370962
0.233100	-2.319029
0.233200	-2.235611
0.233300	-2.138885
0.233400	-2.085329
0.233500	-2.078837
0.233600	-2.037291
0.233700	-1.985682
0.233800	-1.933749
0.233900	-1.870131
0.234000	-1.814952
0.234100	-1.784765
0.234200	-1.792555
0.234300	-1.792555
0.234400	-1.770484
0.234500	-1.769510
0.234600	-1.771457
0.234700	-1.729586
0.234800	-1.711410
0.234900	-1.677978
0.235000	-1.666617
0.235100	-1.685118
0.235200	-1.683820
0.235300	-1.680250
0.235400	-1.613386
0.235500	-1.568918
0.235600	-1.359562
0.235700	-1.379686
0.235800	-1.427725
0.235900	-1.507572
0.236000	-1.510818
0.236100	-1.426751
0.236200	-1.319314
0.236300	-1.233300
0.236400	-1.266407
0.236500	-1.345605
0.236600	-1.332622
0.236700	-1.268355
0.236800	-1.186884
0.236900	-1.135600
0.237000	-1.106388
0.237100	-1.146312
0.237200	-1.129433
0.237300	-1.123266
0.237400	-1.100546
0.237500	-1.077825
0.237600	-1.068087
0.237700	-1.048937
0.237800	-1.056727
0.237900	-1.034980
0.238000	-1.094054
0.238100	-1.064517
0.238200	-1.088861
0.238300	-1.080421
0.238400	-1.040173
0.238500	-1.020698
0.238600	-1.012259
0.238700	-1.122942
0.238800	-1.151505
0.238900	-1.127810
0.239000	-1.053481
0.239100	-1.009013
0.239200	-1.044068
0.239300	-1.150207
0.239400	-1.210254
0.239500	-1.204736
0.239600	-1.109309
0.239700	-1.050235
0.239800	-1.059324
0.239900	-1.109634
0.240000	-1.137548
0.240100	-1.106713
0.240200	-1.117424
0.240300	-1.096975
0.240400	-1.147935
0.240500	-1.164488
0.240600	-1.189157
0.240700	-1.186235
0.240800	-1.180068
0.240900	-1.206035
0.241000	-1.219018
0.241100	-1.192078
0.241200	-1.150531
0.241300	-1.142741
0.241400	-1.114827
0.241500	-1.164164
0.241600	-1.187209
0.241700	-1.205710
0.241800	-1.182340
0.241900	-1.125538
0.242000	-1.131381
0.242100	-1.141443
0.242200	-1.110608
0.242300	-1.104116
0.242400	-1.081395
0.242500	-1.075553
0.242600	-1.063868
0.242700	-1.042445
0.242800	-1.028813
0.242900	-1.005768
0.243000	-1.007390
0.243100	-0.986617
0.243200	-1.002522
0.243300	-0.994083
0.243400	-1.002846
0.243500	-1.016803
0.243600	-1.045367
0.243700	-1.059324
0.243800	-1.108336
0.243900	-1.265758
0.244000	-1.329051
0.244100	-1.331648
0.244200	-1.227782
0.244300	-1.190455
0.244400	-1.277118
0.244500	-1.418312
0.244600	-1.551066
0.244700	-1.542627
0.244800	-1.502378
0.244900	-1.459209
0.245000	-1.512765
0.245100	-1.594235
0.245200	-1.700049
0.245300	-1.725691
0.245400	-1.730235
0.245500	-1.735104
0.245600	-1.737701
0.245700	-1.783142
0.245800	-1.823715
0.245900	-1.838646
0.246000	-1.870780
0.246100	-1.903238
0.246200	-1.960040
0.246300	-1.978541
0.246400	-2.030150
0.246500	-2.051248
0.246600	-2.081434
0.246700	-2.134017
0.246800	-2.170045
0.246900	-2.152518
0.247000	-2.110322
0.247100	-2.097663
0.247200	-2.136613
0.247300	-2.264824
0.247400	-2.344996
0.247500	-2.378428
0.247600	-2.293062
0.247700	-2.249244
0.247800	-2.268394
0.247900	-2.385569
0.248000	-2.500471
0.248100	-2.542342
0.248200	-2.521894
0.248300	-2.472881
0.248400	-2.458600
0.248500	-2.478724
0.248600	-2.502743
0.248700	-2.502094
0.248800	-2.515727
0.248900	-2.522867
0.249000	-2.534552
0.249100	-2.542667
0.249200	-2.515077
0.249300	-2.437177
0.249400	-2.405368
0.249500	-2.406342
0.249600	-2.391736
0.249700	-2.382647
0.249800	-2.297931
0.249900	-2.230742
0.250000	-2.120709
0.250100	-2.086303
0.250200	-2.065205
0.250300	-2.049300
0.250400	-1.995744
0.250500	-1.946408
0.250600	-1.899343
0.250700	-1.841892
0.250800	-1.810732
0.250900	-1.778274
0.251000	-1.760746
0.251100	-1.746465
0.251200	-1.750035
0.251300	-1.680574
0.251400	-1.643896
0.251500	-1.584498
0.251600	-1.555285
0.251700	-1.552689
0.251800	-1.534837
0.251900	-1.501405
0.252000	-1.482579
0.252100	-1.434541
0.252200	-1.277767
0.252300	-1.136250
0.252400	-1.162541
0.252500	-1.243686
0.252600	-1.296269
0.252700	-1.229729
0.252800	-1.119371
0.252900	-0.974283
0.253000	-0.963572
0.253100	-0.996030
0.253200	-1.034331
0.253300	-1.014531
0.253400	-0.874961
0.253500	-0.816212
0.253600	-0.753243
0.253700	-0.775964
0.253800	-0.782780
0.253900	-0.807123
0.254000	-0.766875
0.254100	-0.762331
0.254200	-0.733443
0.254300	-0.705854
0.254400	-0.695792
0.254500	-0.679238
0.254600	-0.702933
0.254700	-0.709424
0.254800	-0.695467
0.254900	-0.697739
0.255000	-0.664307
0.255100	-0.634446
0.255200	-0.598742
0.255300	-0.674045
0.255400	-0.759085
0.255500	-0.795114
0.255600	-0.735391
0.255700	-0.655219
0.255800	-0.604584
0.255900	-0.672422
0.256000	-0.788947
0.256100	-0.848345
0.256200	-0.810045
0.256300	-0.701959
0.256400	-0.662684
0.256500	-0.680861
0.256600	-0.750971
0.256700	-0.769147
0.256800	-0.774341
0.256900	-0.743505
0.257000	-0.759085
0.257100	-0.805825
0.257200	-0.822379
0.257300	-0.810045
0.257400	-0.793491
0.257500	-0.801605
0.257600	-0.813940
0.257700	-0.821080
0.257800	-0.817835
0.257900	-0.778236
0.258000	-0.768498
0.258100	-0.788298
0.258200	-0.839257
0.258300	-0.865224
0.258400	-0.860355
0.258500	-0.802255
0.258600	-0.779534
0.258700	-0.773691
0.258800	-0.756813
0.258900	-0.756813
0.259000	-0.738637
0.259100	-0.737987
0.259200	-0.738637
0.259300	-0.730847
0.259400	-0.727276
0.259500	-0.718188
0.259600	-0.721758
0.259700	-0.728575
0.259800	-0.712345
0.259900	-0.725004
0.260000	-0.743505
0.260100	-0.751295
0.260200	-0.745777
0.260300	-0.761357
0.260400	-0.791219
0.260500	-0.881777
0.260600	-1.023295
0.260700	-1.083343
0.260800	-1.037577
0.260900	-0.927219
0.261000	-0.943123
0.261100	-1.088861
0.261200	-1.238168
0.261300	-1.322235
0.261400	-1.313147
0.261500	-1.240765
0.261600	-1.224861
0.261700	-1.293997
0.261800	-1.412145
0.261900	-1.463753
0.262000	-1.506273
0.262100	-1.512765
0.262200	-1.494588
0.262300	-1.499457
0.262400	-1.537758
0.262500	-1.583200
0.262600	-1.588393
0.262700	-1.600078
0.262800	-1.605920
0.262900	-1.624422
0.263000	-1.676679
0.263100	-1.721472
0.263200	-1.722121
0.263300	-1.724068
0.263400	-1.770159
0.263500	-1.778598
0.263600	-1.741920
0.263700	-1.664345
0.263800	-1.655581
0.263900	-1.726340
0.264000	-1.826637
0.264100	-1.891878
0.264200	-1.875649
0.264300	-1.801644
0.264400	-1.747114
0.264500	-1.806512
0.264600	-1.918493
0.264700	-2.035668
0.264800	-2.060012
0.264900	-2.013272
0.265000	-2.002885
0.265100	-2.006455
0.265200	-2.044432
0.265300	-2.078513
0.265400	-2.087926
0.265500	-2.105129
0.265600	-2.098312
0.265700	-2.116164
0.265800	-2.095716
0.265900	-2.092470
0.266000	-2.069425
0.266100	-2.049950
0.266200	-2.044432
0.266300	-2.048651
0.266400	-2.025930
0.266500	-1.941863
0.266600	-1.882789
0.266700	-1.777300
0.266800	-1.754579
0.266900	-1.716603
0.267000	-1.690636
0.267100	-1.653309
0.267200	-1.599429
0.267300	-1.543276
0.267400	-1.476087
0.267500	-1.467648
0.267600	-1.418636
0.267700	-1.412794
0.267800	-1.384230
0.267900	-1.391371
0.268000	-1.365080
0.268100	-1.324183
0.268200	-1.313796
0.268300	-1.291400
0.268400	-1.307629
0.268500	-1.268679
0.268600	-1.262512
0.268700	-1.233300
0.268800	-1.175199
0.268900	-0.984021
0.269000	-0.917806
0.269100	-1.017453
0.269200	-1.103467
0.269300	-1.110608
0.269400	-1.031410
0.269500	-0.908393
0.269600	-0.848021
0.269700	-0.844126
0.269800	-0.902875
0.269900	-0.922999
0.270000	-0.884374
0.270100	-0.810369
0.270200	-0.733443
0.270300	-0.692871
0.270400	-0.690923
0.270500	-0.695467
0.270600	-0.685081
0.270700	-0.669825
0.270800	-0.642560
0.270900	-0.619840
0.271000	-0.600040
0.271100	-0.575696
0.271200	-0.567582
0.271300	-0.560117
0.271400	-0.602637
0.271500	-0.582188
0.271600	-0.588680
0.271700	-0.575696
0.271800	-0.554274
0.271900	-0.534150
0.272000	-0.635095
0.272100	-0.710398
0.272200	-0.710723
0.272300	-0.627954
0.272400	-0.546160
0.272500	-0.568556
0.272600	-0.640937
0.272700	-0.711696
0.272800	-0.709424
0.272900	-0.628279
0.273000	-0.542265
0.273100	-0.526035
0.273200	-0.552976
0.273300	-0.589329
0.273400	-0.589653
0.273500	-0.589653
0.273600	-0.569529
0.273700	-0.591926
0.273800	-0.592899
0.273900	-0.592250
0.274000	-0.569205
0.274100	-0.532527
0.274200	-0.536422
0.274300	-0.539668
0.274400	-0.532202
0.274500	-0.525062
0.274600	-0.497148
0.274700	-0.500718
0.274800	-0.547133
0.274900	-0.607505
0.275000	-0.623085
0.275100	-0.625033
0.275200	-0.602312
0.275300	-0.615945
0.275400	-0.626007
0.275500	-0.631525
0.275600	-0.633472
0.275700	-0.648727
0.275800	-0.645806
0.275900	-0.646455
0.276000	-0.634446
0.276100	-0.632823
0.276200	-0.635420
0.276300	-0.650675
0.276400	-0.654570
0.276500	-0.643859
0.276600	-0.653272
0.276700	-0.678914
0.276800	-0.708126
0.276900	-0.702933
0.277000	-0.748049
0.277100	-0.779858
0.277200	-0.921701
0.277300	-1.004469
0.277400	-1.011285
0.277500	-0.947018
0.277600	-0.871391
0.277700	-0.942149
0.277800	-1.061596
0.277900	-1.200841
0.278000	-1.253748
0.278100	-1.258617
0.278200	-1.195324
0.278300	-1.239142
0.278400	-1.313147
0.278500	-1.412794
0.278600	-1.449147
0.278700	-1.453367
0.278800	-1.448822
0.278900	-1.449472
0.279000	-1.463429
0.279100	-1.515686
0.279200	-1.541653
0.279300	-1.547820
0.279400	-1.589367
0.279500	-1.593586
0.279600	-1.632861
0.279700	-1.697777
0.279800	-1.715305
0.279900	-1.718875
0.280000	-1.760422
0.280100	-1.772107
0.280200	-1.778923
0.280300	-1.695830
0.280400	-1.665643
0.280500	-1.677653
0.280600	-1.789634
0.280700	-1.896097
0.280800	-1.932451
0.280900	-1.887983
0.281000	-1.823066
0.281100	-1.825987
0.281200	-1.919467
0.281300	-2.052871
0.281400	-2.138236
0.281500	-2.131420
0.281600	-2.107725
0.281700	-2.093768
0.281800	-2.134341
0.281900	-2.193415
0.282000	-2.225224
0.282100	-2.215811
0.282200	-2.232690
0.282300	-2.260279
0.282400	-2.287544
0.282500	-2.292413
0.282600	-2.264824
0.282700	-2.230742
0.282800	-2.216461
0.282900	-2.222628
0.283000	-2.232041
0.283100	-2.171993
0.283200	-2.109997
0.283300	-2.004183
0.283400	-1.932451
0.283500	-1.914923
0.283600	-1.873701
0.283700	-1.801644
0.283800	-1.732183
0.283900	-1.654608
0.284000	-1.579305
0.284100	-1.520880
0.284200	-1.507572
0.284300	-1.461806
0.284400	-1.438436
0.284500	-1.427725
0.284600	-1.398512
0.284700	-1.375142
0.284800	-1.318665
0.284900	-1.313147
0.285000	-1.289452
0.285100	-1.302111
0.285200	-1.280364
0.285300	-1.266732
0.285400	-1.250178
0.285500	-1.115801
0.285600	-0.951562
0.285700	-0.917806
0.285800	-0.994083
0.285900	-1.086589
0.286000	-1.077825
0.286100	-0.969414
0.286200	-0.814589
0.286300	-0.762006
0.286400	-0.782131
0.286500	-0.839582
0.286600	-0.832441
0.286700	-0.753567
0.286800	-0.665606
0.286900	-0.598093
0.287000	-0.602637
0.287100	-0.596794
0.287200	-0.614971
0.287300	-0.591276
0.287400	-0.539992
0.287500	-0.510780
0.287600	-0.501043
0.287700	-0.489358
0.287800	-0.468909
0.287900	-0.483191
0.288000	-0.461119
0.288100	-0.494876
0.288200	-0.483191
0.288300	-0.491954
0.288400	-0.417625
0.288500	-0.364394
0.288600	-0.350112
0.288700	-0.467935
0.288800	-0.495849
0.288900	-0.463391
0.289000	-0.372833
0.289100	-0.275134
0.289200	-0.354656
0.289300	-0.449110
0.289400	-0.501043
0.289500	-0.478322
0.289600	-0.383219
0.289700	-0.309864
0.289800	-0.324795
0.289900	-0.387114
0.290000	-0.414379
0.290100	-0.381921
0.290200	-0.362122
0.290300	-0.342322
0.290400	-0.361472
0.290500	-0.367640
0.290600	-0.365367
0.290700	-0.367964
0.290800	-0.359850
0.290900	-0.354332
0.291000	-0.345568
0.291100	-0.344919
0.291200	-0.340050
0.291300	-0.303697
0.291400	-0.299477
0.291500	-0.325444
0.291600	-0.344594
0.291700	-0.357253
0.291800	-0.287143
0.291900	-0.306943
0.292000	-0.312136
0.292100	-0.303697
0.292200	-0.297530
0.292300	-0.297530
0.292400	-0.274809
0.292500	-0.282599
0.292600	-0.253387
0.292700	-0.258255
0.292800	-0.244623
0.292900	-0.250790
0.293000	-0.248518
0.293100	-0.237807
0.293200	-0.231964
0.293300	-0.245921
0.293400	-0.257931
0.293500	-0.285196
0.293600	-0.301100
0.293700	-0.346866
0.293800	-0.418274
0.293900	-0.566284
0.294000	-0.643859
0.294100	-0.627305
0.294200	-0.533501
0.294300	-0.507859
0.294400	-0.595496
0.294500	-0.744154
0.294600	-0.848994
0.294700	-0.867820
0.294800	-0.800956
0.294900	-0.766551
0.295000	-0.810694
0.295100	-0.901252
0.295200	-0.986617
0.295300	-1.012259
0.295400	-1.019075
0.295500	-1.010312
0.295600	-1.019400
0.295700	-1.080746
0.295800	-1.120020
0.295900	-1.143390
0.296000	-1.179094
0.296100	-1.195324
0.296200	-1.224211
0.296300	-1.287180
0.296400	-1.328078
0.296500	-1.366054
0.296600	-1.398512
0.296700	-1.468946
0.296800	-1.519257
0.296900	-1.532889
0.297000	-1.486149
0.297100	-1.461806
0.297200	-1.542951
0.297300	-1.667591
0.297400	-1.759772
0.297500	-1.762045
0.297600	-1.681223
0.297700	-1.633834
0.297800	-1.679276
0.297900	-1.796450
0.298000	-1.896746
0.298100	-1.918493
0.298200	-1.877271
0.298300	-1.825338
0.298400	-1.826637
0.298500	-1.855524
0.298600	-1.904536
0.298700	-1.923687
0.298800	-1.910703
0.298900	-1.904536
0.299000	-1.878570
0.299100	-1.872078
0.299200	-1.836049
0.299300	-1.787687
0.299400	-1.758799
0.299500	-1.746789
0.299600	-1.738675
0.299700	-1.716278
0.299800	-1.648765
0.299900	-1.593586
0.300000	-1.523476
0.300100	-1.482579
0.300200	-1.479658
0.300300	-1.451419
0.300400	-1.428698
0.300500	-1.361834
0.300600	-1.281662
0.300700	-1.224536
0.300800	-1.167409
0.300900	-1.116450
0.301000	-1.094379
0.301100	-1.076851
0.301200	-1.040173
0.301300	-1.034006
0.301400	-0.979152
0.301500	-0.971686
0.301600	-0.918455
0.301700	-0.932412
0.301800	-0.887620
0.301900	-0.914885
0.302000	-0.904823
0.302100	-0.830818
0.302200	-0.746102
0.302300	-0.584785
0.302400	-0.639964
0.302500	-0.687353
0.302600	-0.750322
0.302700	-0.708126
0.302800	-0.568556
0.302900	-0.471506
0.303000	-0.420222
0.303100	-0.468584
0.303200	-0.511105
0.303300	-0.478322
0.303400	-0.378026
0.303500	-0.267993
0.303600	-0.233587
0.303700	-0.215411
0.303800	-0.242676
0.303900	-0.245921
0.304000	-0.222876
0.304100	-0.161206
0.304200	-0.134265
0.304300	-0.082657
0.304400	-0.050848
0.304500	-0.038514
0.304600	-0.031373
0.304700	-0.033970
0.304800	0.001734
0.304900	-0.008977
0.305000	0.023806
0.305100	0.053343
0.305200	0.075739
0.305300	0.005305
0.305400	-0.091420
0.305500	-0.100509
0.305600	-0.030399
0.305700	0.067949
0.305800	0.102030
0.305900	0.062431
0.306000	-0.021635
0.306100	-0.037865
0.306200	0.041658
0.306300	0.173114
0.306400	0.218230
0.306500	0.213037
0.306600	0.149095
0.306700	0.149744
0.306800	0.181228
0.306900	0.213037
0.307000	0.213037
0.307100	0.198106
0.307200	0.184149
0.307300	0.182851
0.307400	0.206545
0.307500	0.195834
0.307600	0.192588
0.307700	0.191939
0.307800	0.212388
0.307900	0.242574
0.308000	0.275357
0.308100	0.261724
0.308200	0.223424
0.308300	0.210116
0.308400	0.207519
0.308500	0.220178
0.308600	0.229266
0.308700	0.210440
0.308800	0.218880
0.308900	0.203949
0.309000	0.211414
0.309100	0.202326
0.309200	0.214660
0.309300	0.202975
0.309400	0.191615
0.309500	0.179605
0.309600	0.170517
0.309700	0.151042
0.309800	0.148770
0.309900	0.147472
0.310000	0.136111
0.310100	0.101706
0.310200	0.078336
0.310300	0.050097
0.310400	-0.005406
0.310500	-0.095965
0.310600	-0.229368
0.310700	-0.277081
0.310800	-0.233263
0.310900	-0.142704
0.311000	-0.153416
0.311100	-0.295258
0.311200	-0.434503
0.311300	-0.504613
0.311400	-0.464689
0.311500	-0.428985
0.311600	-0.403344
0.311700	-0.477997
0.311800	-0.564985
0.311900	-0.636718
0.312000	-0.657167
0.312100	-0.661711
0.312200	-0.657816
0.312300	-0.669501
0.312400	-0.713968
0.312500	-0.763954
0.312600	-0.808097
0.312700	-0.836011
0.312800	-0.846722
0.312900	-0.892164
0.313000	-0.944097
0.313100	-0.957080
0.313200	-0.997653
0.313300	-1.045042
0.313400	-1.070035
0.313500	-1.099247
0.313600	-1.056402
0.313700	-1.012584
0.313800	-1.000574
0.313900	-1.083992
0.314000	-1.207009
0.314100	-1.277118
0.314200	-1.236870
0.314300	-1.149557
0.314400	-1.143715
0.314500	-1.207333
0.314600	-1.347228
0.314700	-1.431295
0.314800	-1.459209
0.314900	-1.430321
0.315000	-1.403381
0.315100	-1.424803
0.315200	-1.475438
0.315300	-1.504651
0.315400	-1.539705
0.315500	-1.540679
0.315600	-1.532565
0.315700	-1.534512
0.315800	-1.525748
0.315900	-1.494264
0.316000	-1.445252
0.316100	-1.423830
0.316200	-1.420584
0.316300	-1.407276
0.316400	-1.393319
0.316500	-1.304383
0.316600	-1.256670
0.316700	-1.144689
0.316800	-1.133004
0.316900	-1.107037
0.317000	-1.063219
0.317100	-0.996030
0.317200	-0.915858
0.317300	-0.839257
0.317400	-0.796088
0.317500	-0.763954
0.317600	-0.738637
0.317700	-0.722083
0.317800	-0.738961
0.317900	-0.724355
0.318000	-0.677615
0.318100	-0.641587
0.318200	-0.622436
0.318300	-0.596470
0.318400	-0.573424
0.318500	-0.605883
0.318600	-0.551353
0.318700	-0.560441
0.318800	-0.417625
0.318900	-0.297854
0.319000	-0.163153
0.319100	-0.230991
0.319200	-0.312785
0.319300	-0.310838
0.319400	-0.243325
0.319500	-0.064480
0.319600	0.004656
0.319700	0.036140
0.319800	-0.032996
0.319900	-0.072270
0.320000	-0.011898
0.320100	0.073467
0.320200	0.160455
0.320300	0.177009
0.320400	0.180254
0.320500	0.158832
0.320600	0.187395
0.320700	0.205896
0.320800	0.211414
0.320900	0.243548
0.321000	0.243223
0.321100	0.264321
0.321200	0.246144
0.321300	0.279576
0.321400	0.223424
0.321500	0.229266
0.321600	0.214660
0.321700	0.276331
0.321800	0.266918
0.321900	0.292884
0.322000	0.154288
0.322100	0.091968
0.322200	0.098784
0.322300	0.190641
0.322400	0.246144
0.322500	0.240627
0.322600	0.196159
0.322700	0.105601
0.322800	0.094240
0.322900	0.160779
0.323000	0.265944
0.323100	0.304894
0.323200	0.291910
0.323300	0.253934
0.323400	0.255882
0.323500	0.231863
0.323600	0.269514
0.323700	0.252961
0.323800	0.265619
0.323900	0.245171
0.324000	0.259777
0.324100	0.289314
0.324200	0.272436
0.324300	0.259777
0.324400	0.241600
0.324500	0.266268
0.324600	0.281848
0.324700	0.273734
0.324800	0.226670
0.324900	0.164350
0.325000	0.149744
0.325100	0.152665
0.325200	0.181228
0.325300	0.153963
0.325400	0.157534
0.325500	0.165648
0.325600	0.178307
0.325700	0.176684
0.325800	0.170192
0.325900	0.160130
0.326000	0.160130
0.326100	0.156884
0.326200	0.148121
0.326300	0.145849
0.326400	0.139357
0.326500	0.122803
0.326600	0.127023
0.326700	0.101381
0.326800	0.080608
0.326900	0.058536
0.327000	0.028026
0.327100	-0.020986
0.327200	-0.148871
0.327300	-0.263773
0.327400	-0.278704
0.327500	-0.213139
0.327600	-0.154065
0.327700	-0.214437
0.327800	-0.335181
0.327900	-0.474752
0.328000	-0.506236
0.328100	-0.455277
0.328200	-0.397501
0.328300	-0.391659
0.328400	-0.448136
0.328500	-0.539019
0.328600	-0.576021
0.328700	-0.587381
0.328800	-0.584785
0.328900	-0.582513
0.329000	-0.586083
0.329100	-0.589004
0.329200	-0.614971
0.329300	-0.664632
0.329400	-0.688651
0.329500	-0.712995
0.329600	-0.760384
0.329700	-0.786350
0.329800	-0.789596
0.329900	-0.840231
0.330000	-0.873987
0.330100	-0.908393
0.330200	-0.883725
0.330300	-0.806799
0.330400	-0.741558
0.330500	-0.746427
0.330600	-0.822054
0.330700	-0.895410
0.330800	-0.888918
0.330900	-0.837959
0.331000	-0.748699
0.331100	-0.725978
0.331200	-0.787973
0.331300	-0.847372
0.331400	-0.914560
0.331500	-0.918455
0.331600	-0.880803
0.331700	-0.854512
0.331800	-0.837959
0.331900	-0.826598
0.332000	-0.830169
0.332100	-0.820431
0.332200	-0.803878
0.332300	-0.788947
0.332400	-0.751295
0.332500	-0.698064
0.332600	-0.634770
0.332700	-0.577969
0.332800	-0.531878
0.332900	-0.510780
0.333000	-0.470207
0.333100	-0.377052
0.333200	-0.287792
0.333300	-0.188795
0.333400	-0.117712
0.333500	-0.066103
0.333600	-0.005082
0.333700	0.057887
0.333800	0.144226
0.333900	0.235109
0.334000	0.315280
0.334100	0.386688
0.334200	0.444139
0.334300	0.500616
0.334400	0.509380
0.334500	0.545733
0.334600	0.560015
0.334700	0.632396
0.334800	0.641809
0.334900	0.704778
0.335000	0.685628
0.335100	0.721981
0.335200	0.753465
0.335300	0.777809
0.335400	0.793064
0.335500	0.921599
0.335600	1.055651
0.335700	1.084214
0.335800	1.025465
0.335900	0.924844
0.336000	0.952434
0.336100	1.045264
0.336200	1.174123
0.336300	1.224109
0.336400	1.212748
0.336500	1.150753
0.336600	1.141990
0.336700	1.191001
0.336800	1.289999
0.336900	1.318237
0.337000	1.353617
0.337100	1.348099
0.337200	1.353941
0.337300	1.343555
0.337400	1.368872
0.337500	1.385426
0.337600	1.401006
0.337700	1.412366
0.337800	1.416586
0.337900	1.403927
0.338000	1.384777
0.338100	1.379583
0.338200	1.340958
0.338300	1.359135
0.338400	1.393540
0.338500	1.427297
0.338600	1.375364
0.338700	1.289999
0.338800	1.229951
0.338900	1.270199
0.339000	1.366276
0.339100	1.408796
0.339200	1.401655
0.339300	1.330572
0.339400	1.307526
0.339500	1.333493
0.339600	1.442877
0.339700	1.994990
0.339800	2.322494
0.339900	2.242322
0.340000	2.244269
0.340100	2.412078
0.340200	2.682780
0.340300	3.021320
0.340400	3.079420
0.340500	3.347850
0.340600	3.549416
0.340700	3.782467
0.340800	3.951250
0.340900	3.986630
0.341000	3.981761
0.341100	4.219357
0.341200	4.466690
0.341300	4.537125
0.341400	4.418651
0.341500	3.974296
0.341600	3.687364
0.341700	3.565970
0.341800	3.456910
0.341900	3.567593
0.342000	3.459831
0.342100	3.486447
0.342200	3.415039
0.342300	3.325129
0.342400	3.384203
0.342500	3.336814
0.342600	3.227105
0.342700	3.258265
0.342800	3.193998
0.342900	3.196594
0.343000	3.099219
0.343100	3.165759
0.343200	3.110904
0.343300	3.196594
0.343400	3.019372
0.343500	2.909339
0.343600	2.844422
0.343700	2.586379
0.343800	1.943706
0.343900	0.726850
0.344000	0.940100
0.344100	0.987813
0.344200	1.370170
0.344300	1.505846
0.344400	1.044940
0.344500	0.903422
0.344600	0.823575
0.344700	0.812864
0.344800	0.879078
0.344900	0.912835
0.345000	0.881026
0.345100	0.800205
0.345200	0.728148
0.345300	0.675566
0.345400	0.697313
0.345500	0.696664
0.345600	0.664205
0.345700	0.603833
0.345800	0.550277
0.345900	0.511328
0.346000	0.487309
0.346100	0.457772
0.346200	0.409084
0.346300	0.328913
0.346400	0.279576
0.346500	0.222775
0.346600	0.180904
0.346700	0.102679
0.346800	0.054966
0.346900	0.043930
0.347000	0.103004
0.347100	0.104951
0.347200	0.041009
0.347300	-0.099860
0.347400	-0.173215
0.347500	-0.196585
0.347600	-0.141406
0.347700	-0.137511
0.347800	-0.221902
0.347900	-0.367315
0.348000	-0.519544
0.348100	-0.571477
0.348200	-0.590303
0.348300	-0.581539
0.348400	-0.631525
0.348500	-0.702283
0.348600	-0.762331
0.348700	-0.802579
0.348800	-0.823677
0.348900	-0.845424
0.349000	-0.890541
0.349100	-0.919104
0.349200	-0.926245
0.349300	-0.915858
0.349400	-0.924622
0.349500	-0.947343
0.349600	-0.977854
0.349700	-1.009013
0.349800	-0.975581
0.349900	-0.961300
0.350000	-0.893787
0.350100	-0.902550
0.350200	-0.927219
0.350300	-0.932087
0.350400	-0.912613
0.350500	-0.894111
0.350600	-0.835037
0.350700	-0.809720
0.350800	-0.800307
0.350900	-0.794789
0.351000	-0.762980
0.351100	-0.779534
0.351200	-0.801930
0.351300	-0.788622
0.351400	-0.786675
0.351500	-0.764279
0.351600	-0.778236
0.351700	-0.745128
0.351800	-0.774990
0.351900	-0.762006
0.352000	-0.786026
0.352100	-0.715267
0.352200	-0.620164
0.352300	-0.489033
0.352400	-0.564336
0.352500	-0.689949
0.352600	-0.732145
0.352700	-0.683133
0.352800	-0.538370
0.352900	-0.393281
0.353000	-0.363095
0.353100	-0.397176
0.353200	-0.457549
0.353300	-0.410484
0.353400	-0.337453
0.353500	-0.248843
0.353600	-0.171917
0.353700	-0.148222
0.353800	-0.141731
0.353900	-0.136213
0.354000	-0.091745
0.354100	-0.058638
0.354200	0.006928
0.354300	0.032894
0.354400	0.063730
0.354500	0.055615
0.354600	0.107873
0.354700	0.103329
0.354800	0.098135
0.354900	0.088398
0.355000	0.099109
0.355100	0.115987
0.355200	0.130269
0.355300	0.052045
0.355400	-0.067077
0.355500	-0.109922
0.355600	-0.046304
0.355700	0.049773
0.355800	0.068923
0.355900	0.017314
0.356000	-0.052471
0.356100	-0.068051
0.356200	0.027376
0.356300	0.160779
0.356400	0.234459
0.356500	0.214985
0.356600	0.183176
0.356700	0.194536
0.356800	0.210116
0.356900	0.267567
0.357000	0.268541
0.357100	0.256856
0.357200	0.247767
0.357300	0.239653
0.357400	0.251013
0.357500	0.224722
0.357600	0.180254
0.357700	0.138708
0.357800	0.108846
0.357900	0.080283
0.358000	0.046202
0.358100	-0.041759
0.358200	-0.120957
0.358300	-0.205349
0.358400	-0.248193
0.358500	-0.275134
0.358600	-0.282599
0.358700	-0.300776
0.358800	-0.278055
0.358900	-0.237482
0.359000	-0.208919
0.359100	-0.156986
0.359200	-0.109272
0.359300	-0.048251
0.359400	0.016341
0.359500	0.072818
0.359600	0.132216
0.359700	0.171166
0.359800	0.221152
0.359900	0.247443
0.360000	0.276006
0.360100	0.305867
0.360200	0.314307
0.360300	0.336378
0.360400	0.318202
0.360500	0.250689
0.360600	0.141954
0.360700	0.122803
0.360800	0.186421
0.360900	0.314956
0.361000	0.353906
0.361100	0.236407
0.361200	0.102679
0.361300	0.042307
0.361400	0.088398
0.361500	0.141954
0.361600	0.167271
0.361700	0.117286
0.361800	0.046202
0.361900	-0.010600
0.362000	-0.008652
0.362100	0.026727
0.362200	0.064703
0.362300	0.087749
0.362400	0.082880
0.362500	0.091319
0.362600	0.102679
0.362700	0.132865
0.362800	0.153314
0.362900	0.145849
0.363000	0.110794
0.363100	0.087424
0.363200	0.052369
0.363300	0.028350
0.363400	-0.030399
0.363500	-0.081358
0.363600	-0.094991
0.363700	-0.065779
0.363800	-0.116413
0.363900	-0.220604
0.364000	-0.376403
0.364100	-0.467935
0.364200	-0.440670
0.364300	-0.403993
0.364400	-0.416976
0.364500	-0.519544
0.364600	-0.634770
0.364700	-0.723057
0.364800	-0.716890
0.364900	-0.658789
0.365000	-0.636069
0.365100	-0.648078
0.365200	-0.684107
0.365300	-0.687677
0.365400	-0.711372
0.365500	-0.708775
0.365600	-0.671448
0.365700	-0.675992
0.365800	-0.644508
0.365900	-0.599391
0.366000	-0.543238
0.366100	-0.524088
0.366200	-0.510780
0.366300	-0.513377
0.366400	-0.502990
0.366500	-0.448460
0.366600	-0.393931
0.366700	-0.290714
0.366800	-0.252413
0.366900	-0.219630
0.367000	-0.155688
0.367100	-0.089473
0.367200	-0.019039
0.367300	0.053668
0.367400	0.087099
0.367500	0.122479
0.367600	0.107873
0.367700	0.105601
0.367800	0.074765
0.367900	0.054966
0.368000	0.053018
0.368100	0.067625
0.368200	0.088073
0.368300	0.047500
0.368400	0.034842
0.368500	-0.024881
0.368600	-0.020662
0.368700	-0.046628
0.368800	0.051720
0.368900	0.143901
0.369000	0.267567
0.369100	0.154288
0.369200	0.114040
0.369300	0.093266
0.369400	0.175061
0.369500	0.339624
0.369600	0.432130
0.369700	0.460693
0.369800	0.385065
0.369900	0.414927
0.370000	0.461667
0.370100	0.557094
0.370200	0.651547
0.370300	0.671671
0.370400	0.620062
0.370500	0.611623
0.370600	0.614545
0.370700	0.613895
0.370800	0.603509
0.370900	0.590525
0.371000	0.592148
0.371100	0.582736
0.371200	0.548005
0.371300	0.532101
0.371400	0.467184
0.371500	0.473676
0.371600	0.436674
0.371700	0.431481
0.371800	0.440893
0.371900	0.425963
0.372000	0.350660
0.372100	0.313982
0.372200	0.366889
0.372300	0.468483
0.372400	0.592473
0.372500	0.620062
0.372600	0.609351
0.372700	0.582411
0.372800	0.663881
0.372900	0.779107
0.373000	0.887193
0.373100	0.915107
0.373200	0.904396
0.373300	0.914458
0.373400	0.946591
0.373500	0.970610
0.373600	1.023193
0.373700	1.038448
0.373800	1.031956
0.373900	1.028711
0.374000	1.002744
0.374100	0.994305
0.374200	0.976778
0.374300	0.968663
0.374400	0.984243
0.374500	1.033255
0.374600	1.209827
0.374700	1.503574
0.374800	1.254944
0.374900	1.229951
0.375000	1.427946
0.375100	1.816795
0.375200	1.986551
0.375300	2.020308
0.375400	2.129692
0.375500	2.391305
0.375600	2.391630
0.375700	2.473749
0.375800	2.568852
0.375900	2.626627
0.376000	2.775935
0.376100	2.733415
0.376200	2.625004
0.376300	2.470179
0.376400	2.285816
0.376500	2.114761
0.376600	2.036537
0.376700	1.846981
0.376800	1.599325
0.376900	1.228653
0.377000	0.906993
0.377100	0.836883
0.377200	0.679136
0.377300	0.534697
0.377400	0.478545
0.377500	0.513275
0.377600	0.530153
0.377700	0.476273
0.377800	0.297753
0.377900	0.140980
0.378000	0.069247
0.378100	0.070870
0.378200	0.064703
0.378300	-0.022285
0.378400	-0.189444
0.378500	-0.328365
0.378600	-0.445864
0.378700	-0.487410
0.378800	-0.517921
0.378900	-0.597119
0.379000	-0.692546
0.379100	-0.777262
0.379200	-0.818808
0.379300	-0.857758
0.379400	-0.885672
0.379500	-0.967142
0.379600	-1.035305
0.379700	-1.106713
0.379800	-1.146312
0.379900	-1.198894
0.380000	-1.263161
0.380100	-1.348202
0.380200	-1.405004
0.380300	-1.404030
0.380400	-1.418312
0.380500	-1.516336
0.380600	-1.651686
0.380700	-1.802293
0.380800	-1.882140
0.380900	-1.898369
0.381000	-1.897396
0.381100	-2.010026
0.381200	-2.171668
0.381300	-2.378752
0.381400	-2.504042
0.381500	-2.580319
0.381600	-2.616347
0.381700	-2.687431
0.381800	-2.768253
0.381900	-2.895165
0.382000	-2.963003
0.382100	-3.004874
0.382200	-3.055834
0.382300	-3.102899
0.382400	-3.152885
0.382500	-3.145095
0.382600	-3.119128
0.382700	-3.102574
0.382800	-3.112312
0.382900	-3.124971
0.383000	-3.135357
0.383100	-3.109715
0.383200	-3.077906
0.383300	-3.068168
0.383400	-2.991891
0.383500	-2.989294
0.383600	-2.977934
0.383700	-2.931843
0.383800	-2.880559
0.383900	-2.815966
0.384000	-2.778964
0.384100	-2.738391
0.384200	-2.739365
0.384300	-2.703011
0.384400	-2.704310
0.384500	-2.707555
0.384600	-2.672176
0.384700	-2.627059
0.384800	-2.559545
0.384900	-2.534877
0.385000	-2.479049
0.385100	-2.437177
0.385200	-2.396280
0.385300	-2.323898
0.385400	-2.273912
0.385500	-2.120709
0.385600	-2.010026
0.385700	-1.907782
0.385800	-2.023334
0.385900	-2.075916
0.386000	-2.064231
0.386100	-1.966532
0.386200	-1.848384
0.386300	-1.835725
0.386400	-1.888632
0.386500	-1.989902
0.386600	-1.987954
0.386700	-1.894150
0.386800	-1.788985
0.386900	-1.752307
0.387000	-1.768212
0.387100	-1.779572
0.387200	-1.758150
0.387300	-1.717577
0.387400	-1.658178
0.387500	-1.632536
0.387600	-1.609166
0.387700	-1.578006
0.387800	-1.540679
0.387900	-1.537109
0.388000	-1.528994
0.388100	-1.505300
0.388200	-1.484526
0.388300	-1.448822
0.388400	-1.413767
0.388500	-1.351448
0.388600	-1.387152
0.388700	-1.464402
0.388800	-1.464727
0.388900	-1.422531
0.389000	-1.322235
0.389100	-1.246608
0.389200	-1.293672
0.389300	-1.351772
0.389400	-1.417662
0.389500	-1.364756
0.389600	-1.259591
0.389700	-1.154426
0.389800	-1.132030
0.389900	-1.160918
0.390000	-1.141768
0.390100	-1.114827
0.390200	-1.050235
0.390300	-0.997653
0.390400	-0.953834
0.390500	-0.903200
0.390600	-0.874961
0.390700	-0.804851
0.390800	-0.766226
0.390900	-0.743830
0.391000	-0.704880
0.391100	-0.646780
0.391200	-0.579591
0.391300	-0.514026
0.391400	-0.498771
0.391500	-0.523439
0.391600	-0.546484
0.391700	-0.520518
0.391800	-0.468260
0.391900	-0.458522
0.392000	-0.452680
0.392100	-0.440346
0.392200	-0.418274
0.392300	-0.404317
0.392400	-0.405291
0.392500	-0.390360
0.392600	-0.384518
0.392700	-0.388413
0.392800	-0.379000
0.392900	-0.357577
0.393000	-0.352709
0.393100	-0.336804
0.393200	-0.339725
0.393300	-0.353033
0.393400	-0.366017
0.393500	-0.375429
0.393600	-0.366666
0.393700	-0.380298
0.393800	-0.451382
0.393900	-0.625033
0.394000	-0.728250
0.394100	-0.718188
0.394200	-0.666255
0.394300	-0.675343
0.394400	-0.825625
0.394500	-0.999601
0.394600	-1.126188
0.394700	-1.145662
0.394800	-1.100221
0.394900	-1.123266
0.395000	-1.192078
0.395100	-1.319639
0.395200	-1.394617
0.395300	-1.463429
0.395400	-1.456937
0.395500	-1.460183
0.395600	-1.469271
0.395700	-1.505624
0.395800	-1.557557
0.395900	-1.610140
0.396000	-1.660775
0.396100	-1.707515
0.396200	-1.789309
0.396300	-1.842541
0.396400	-1.891553
0.396500	-1.932126
0.396600	-2.002560
0.396700	-2.081759
0.396800	-2.139210
0.396900	-2.157062
0.397000	-2.112919
0.397100	-2.141482
0.397200	-2.250542
0.397300	-2.379077
0.397400	-2.473531
0.397500	-2.455029
0.397600	-2.410561
0.397700	-2.409263
0.397800	-2.478075
0.397900	-2.606285
0.398000	-2.731250
0.398100	-2.793246
0.398200	-2.799737
0.398300	-2.786105
0.398400	-2.794544
0.398500	-2.826353
0.398600	-2.871146
0.398700	-2.881208
0.398800	-2.900034
0.398900	-2.895165
0.399000	-2.894191
0.399100	-2.900358
0.399200	-2.878936
0.399300	-2.848425
0.399400	-2.836415
0.399500	-2.864654
0.399600	-2.891919
0.399700	-2.901332
0.399800	-2.856539
0.399900	-2.829924
0.400000	-2.741637
0.400100	-2.748128
0.400200	-2.736443
0.400300	-2.716319
0.400400	-2.688730
0.400500	-2.632252
0.400600	-2.572853
0.400700	-2.514753
0.400800	-2.496252
0.400900	-2.464767
0.401000	-2.424194
0.401100	-2.394657
0.401200	-2.358953
0.401300	-2.329416
0.401400	-2.284299
0.401500	-2.239506
0.401600	-2.196986
0.401700	-2.164203
0.401800	-2.121358
0.401900	-2.088900
0.402000	-2.039887
0.402100	-1.919792
0.402200	-1.757500
0.402300	-1.561777
0.402400	-1.588393
0.402500	-1.708488
0.402600	-1.683820
0.402700	-1.622799
0.402800	-1.482254
0.402900	-1.380335
0.403000	-1.328078
0.403100	-1.410522
0.403200	-1.451094
0.403300	-1.403705
0.403400	-1.316068
0.403500	-1.218369
0.403600	-1.181691
0.403700	-1.170006
0.403800	-1.167085
0.403900	-1.113204
0.404000	-1.101519
0.404100	-1.054779
0.404200	-1.025567
0.404300	-0.986942
0.404400	-0.949939
0.404500	-0.920727
0.404600	-0.895734
0.404700	-0.949290
0.404800	-0.970064
0.404900	-0.996355
0.405000	-0.952861
0.405100	-0.932737
0.405200	-0.943772
0.405300	-1.047314
0.405400	-1.176498
0.405500	-1.214799
0.405600	-1.186560
0.405700	-1.106713
0.405800	-1.137873
0.405900	-1.227457
0.406000	-1.327104
0.406100	-1.384230
0.406200	-1.357290
0.406300	-1.309577
0.406400	-1.307629
0.406500	-1.374168
0.406600	-1.431619
0.406700	-1.439085
0.406800	-1.471219
0.406900	-1.479982
0.407000	-1.509195
0.407100	-1.545548
0.407200	-1.579305
0.407300	-1.582875
0.407400	-1.596183
0.407500	-1.630264
0.407600	-1.664994
0.407700	-1.685768
0.407800	-1.696154
0.407900	-1.716928
0.408000	-1.724068
0.408100	-1.782818
0.408200	-1.840594
0.408300	-1.874999
0.408400	-1.912326
0.408500	-1.904212
0.408600	-1.933749
0.408700	-1.973673
0.408800	-1.999315
0.408900	-2.020088
0.409000	-2.066828
0.409100	-2.082732
0.409200	-2.109024
0.409300	-2.123954
0.409400	-2.156088
0.409500	-2.188222
0.409600	-2.203153
0.409700	-2.211916
0.409800	-2.219382
0.409900	-2.253788
0.410000	-2.283325
0.410100	-2.314485
0.410200	-2.368690
0.410300	-2.406342
0.410400	-2.463144
0.410500	-2.565388
0.410600	-2.730276
0.410700	-2.779288
0.410800	-2.709828
0.410900	-2.639393
0.411000	-2.640042
0.411100	-2.792596
0.411200	-2.934115
0.411300	-2.994812
0.411400	-2.924378
0.411500	-2.840635
0.411600	-2.823432
0.411700	-2.857838
0.411800	-2.931518
0.411900	-2.960406
0.412000	-2.945151
0.412100	-2.864654
0.412200	-2.850372
0.412300	-2.826029
0.412400	-2.823107
0.412500	-2.800062
0.412600	-2.775069
0.412700	-2.738391
0.412800	-2.712749
0.412900	-2.709178
0.413000	-2.698792
0.413100	-2.698143
0.413200	-2.655947
0.413300	-2.669904
0.413400	-2.673474
0.413500	-2.668281
0.413600	-2.584538
0.413700	-2.483917
0.413800	-2.466065
0.413900	-2.506963
0.414000	-2.581617
0.414100	-2.621865
0.414200	-2.533903
0.414300	-2.434581
0.414400	-2.392709
0.414500	-2.410886
0.414600	-2.478399
0.414700	-2.515727
0.414800	-2.487163
0.414900	-2.405693
0.415000	-2.339802
0.415100	-2.314485
0.415200	-2.293387
0.415300	-2.291439
0.415400	-2.286571
0.415500	-2.281377
0.415600	-2.238208
0.415700	-2.215162
0.415800	-2.193740
0.415900	-2.156088
0.416000	-2.126876
0.416100	-2.116164
0.416200	-2.113892
0.416300	-2.126551
0.416400	-2.089224
0.416500	-2.038914
0.416600	-1.982761
0.416700	-1.913949
0.416800	-1.898045
0.416900	-1.890904
0.417000	-1.849357
0.417100	-1.829882
0.417200	-1.771782
0.417300	-1.734455
0.417400	-1.715305
0.417500	-1.710436
0.417600	-1.697777
0.417700	-1.713357
0.417800	-1.741271
0.417900	-1.761071
0.418000	-1.762694
0.418100	-1.799372
0.418200	-1.830856
0.418300	-1.841892
0.418400	-1.902589
0.418500	-1.903238
0.418600	-1.964909
0.418700	-1.963286
0.418800	-1.951925
0.418900	-1.823066
0.419000	-1.808784
0.419100	-1.941214
0.419200	-2.057740
0.419300	-2.129148
0.419400	-2.102532
0.419500	-2.028852
0.419600	-1.981787
0.419700	-2.043133
0.419800	-2.165501
0.419900	-2.241454
0.420000	-2.218084
0.420100	-2.152842
0.420200	-2.094417
0.420300	-2.123630
0.420400	-2.122332
0.420500	-2.171668
0.420600	-2.173940
0.420700	-2.155764
0.420800	-2.127525
0.420900	-2.124928
0.421000	-2.124928
0.421100	-2.120059
0.421200	-2.127200
0.421300	-2.128174
0.421400	-2.167773
0.421500	-2.184327
0.421600	-2.235936
0.421700	-2.221654
0.421800	-2.201530
0.421900	-2.220356
0.422000	-2.346294
0.422100	-2.398876
0.422200	-2.396280
0.422300	-2.342399
0.422400	-2.288843
0.422500	-2.336556
0.422600	-2.443344
0.422700	-2.556624
0.422800	-2.589732
0.422900	-2.542992
0.423000	-2.511832
0.423100	-2.535851
0.423200	-2.601741
0.423300	-2.674773
0.423400	-2.702362
0.423500	-2.749751
0.423600	-2.753646
0.423700	-2.802659
0.423800	-2.811422
0.423900	-2.850048
0.424000	-2.861408
0.424100	-2.894516
0.424200	-2.944826
0.424300	-2.977285
0.424400	-2.995137
0.424500	-2.997409
0.424600	-3.002602
0.424700	-3.025648
0.424800	-3.080178
0.424900	-3.099978
0.425000	-3.099653
0.425100	-3.091863
0.425200	-3.045123
0.425300	-3.023051
0.425400	-3.010068
0.425500	-2.953590
0.425600	-2.903929
0.425700	-2.864329
0.425800	-2.826029
0.425900	-2.771174
0.426000	-2.709178
0.426100	-2.659842
0.426200	-2.610505
0.426300	-2.571230
0.426400	-2.524490
0.426500	-2.530657
0.426600	-2.501120
0.426700	-2.512481
0.426800	-2.510533
0.426900	-2.519297
0.427000	-2.523192
0.427100	-2.560844
0.427200	-2.690028
0.427300	-2.810124
0.427400	-2.802334
0.427500	-2.723460
0.427600	-2.641340
0.427700	-2.696844
0.427800	-2.835117
0.427900	-2.967223
0.428000	-2.997084
0.428100	-2.968846
0.428200	-2.949371
0.428300	-2.993189
0.428400	-3.129190
0.428500	-3.240523
0.428600	-3.329783
0.428700	-3.363540
0.428800	-3.391130
0.428900	-3.418720
0.429000	-3.489479
0.429100	-3.539465
0.429200	-3.588153
0.429300	-3.638139
0.429400	-3.694617
0.429500	-3.771219
0.429600	-3.839707
0.429700	-3.898781
0.429800	-3.912414
0.429900	-3.986419
0.430000	-4.050687
0.430100	-4.118526
0.430200	-4.152283
0.430300	-4.129562
0.430400	-4.107814
0.430500	-4.170784
0.430600	-4.293802
0.430700	-4.429480
0.430800	-4.455447
0.430900	-4.415198
0.431000	-4.395073
0.431100	-4.419093
0.431200	-4.514846
0.431300	-4.613196
0.431400	-4.646953
0.431500	-4.625855
0.431600	-4.579439
0.431700	-4.561262
0.431800	-4.536918
0.431900	-4.508679
0.432000	-4.485958
0.432100	-4.492125
0.432200	-4.475571
0.432300	-4.474922
0.432400	-4.444411
0.432500	-4.381441
0.432600	-4.323664
0.432700	-4.299970
0.432800	-4.275626
0.432900	-4.257773
0.433000	-4.242193
0.433100	-4.193505
0.433200	-4.157152
0.433300	-4.139624
0.433400	-4.076005
0.433500	-4.081198
0.433600	-4.079251
0.433700	-4.057504
0.433800	-4.029589
0.433900	-3.972462
0.434000	-3.922151
0.434100	-3.892614
0.434200	-3.897483
0.434300	-3.870218
0.434400	-3.857559
0.434500	-3.857883
0.434600	-3.830294
0.434700	-3.783229
0.434800	-3.787124
0.434900	-3.725453
0.435000	-3.730971
0.435100	-3.675791
0.435200	-3.684555
0.435300	-3.655667
0.435400	-3.559590
0.435500	-3.471627
0.435600	-3.260971
0.435700	-3.289860
0.435800	-3.317774
0.435900	-3.403464
0.436000	-3.368409
0.436100	-3.269735
0.436200	-3.126918
0.436300	-3.073037
0.436400	-3.133085
0.436500	-3.165544
0.436600	-3.143796
0.436700	-3.024674
0.436800	-2.945800
0.436900	-2.891595
0.437000	-2.907499
0.437100	-2.904578
0.437200	-2.882182
0.437300	-2.873418
0.437400	-2.851995
0.437500	-2.835442
0.437600	-2.846153
0.437700	-2.850048
0.437800	-2.877637
0.437900	-2.862057
0.438000	-2.920807
0.438100	-2.950993
0.438200	-2.982803
0.438300	-2.983776
0.438400	-2.974039
0.438500	-2.971767
0.438600	-3.065896
0.438700	-3.213258
0.438800	-3.257401
0.438900	-3.263568
0.439000	-3.209038
0.439100	-3.239549
0.439200	-3.330757
0.439300	-3.439169
0.439400	-3.498892
0.439500	-3.468381
0.439600	-3.419369
0.439700	-3.391779
0.439800	-3.439493
0.439900	-3.526157
0.440000	-3.567380
0.440100	-3.583933
0.440200	-3.588802
0.440300	-3.606330
0.440400	-3.666703
0.440500	-3.696889
0.440600	-3.733892
0.440700	-3.719610
0.440800	-3.740708
0.440900	-3.750770
0.441000	-3.755314
0.441100	-3.746226
0.441200	-3.723830
0.441300	-3.700135
0.441400	-3.705977
0.441500	-3.750446
0.441600	-3.777386
0.441700	-3.758885
0.441800	-3.702732
0.441900	-3.711820
0.442000	-3.714741
0.442100	-3.702407
0.442200	-3.697538
0.442300	-3.693319
0.442400	-3.696889
0.442500	-3.694617
0.442600	-3.706302
0.442700	-3.705977
0.442800	-3.703056
0.442900	-3.700135
0.443000	-3.684230
0.443100	-3.687801
0.443200	-3.664431
0.443300	-3.634569
0.443400	-3.611523
0.443500	-3.607953
0.443600	-3.593996
0.443700	-3.572573
0.443800	-3.613795
0.443900	-3.708899
0.444000	-3.714417
0.444100	-3.640736
0.444200	-3.501164
0.444300	-3.434624
0.444400	-3.512200
0.444500	-3.618339
0.444600	-3.678388
0.444700	-3.636516
0.444800	-3.546931
0.444900	-3.513174
0.445000	-3.555695
0.445100	-3.651772
0.445200	-3.717013
0.445300	-3.716364
0.445400	-3.687476
0.445500	-3.682932
0.445600	-3.718961
0.445700	-3.761157
0.445800	-3.807248
0.445900	-3.799458
0.446000	-3.800756
0.446100	-3.810169
0.446200	-3.832241
0.446300	-3.861454
0.446400	-3.852041
0.446500	-3.862752
0.446600	-3.900080
0.446700	-3.924748
0.446800	-3.949092
0.446900	-3.928319
0.447000	-3.858533
0.447100	-3.872165
0.447200	-3.930266
0.447300	-4.048091
0.447400	-4.114631
0.447500	-4.085418
0.447600	-4.014658
0.447700	-3.981226
0.447800	-4.040625
0.447900	-4.155853
0.448000	-4.282442
0.448100	-4.322691
0.448200	-4.286337
0.448300	-4.282766
0.448400	-4.291855
0.448500	-4.335674
0.448600	-4.392152
0.448700	-4.420067
0.448800	-4.437270
0.448900	-4.438568
0.449000	-4.459666
0.449100	-4.490502
0.449200	-4.459991
0.449300	-4.470702
0.449400	-4.494722
0.449500	-4.526531
0.449600	-4.554445
0.449700	-4.570675
0.449800	-4.535944
0.449900	-4.519715
0.450000	-4.484659
0.450100	-4.468430
0.450200	-4.470377
0.450300	-4.473299
0.450400	-4.452525
0.450500	-4.428181
0.450600	-4.410004
0.450700	-4.390529
0.450800	-4.415198
0.450900	-4.424286
0.451000	-4.456420
0.451100	-4.490826
0.451200	-4.522636
0.451300	-4.506082
0.451400	-4.530751
0.451500	-4.515495
0.451600	-4.559639
0.451700	-4.541462
0.451800	-4.580412
0.451900	-4.595019
0.452000	-4.577816
0.452100	-4.543085
0.452200	-4.417145
0.452300	-4.340867
0.452400	-4.403188
0.452500	-4.545032
0.452600	-4.600212
0.452700	-4.544383
0.452800	-4.456745
0.452900	-4.339569
0.453000	-4.388906
0.453100	-4.483036
0.453200	-4.524583
0.453300	-4.499590
0.453400	-4.374949
0.453500	-4.300943
0.453600	-4.244790
0.453700	-4.266213
0.453800	-4.263940
0.453900	-4.269458
0.454000	-4.251931
0.454100	-4.214928
0.454200	-4.182794
0.454300	-4.166240
0.454400	-4.140922
0.454500	-4.119824
0.454600	-4.128263
0.454700	-4.112359
0.454800	-4.109762
0.454900	-4.117227
0.455000	-4.088015
0.455100	-4.067241
0.455200	-4.040301
0.455300	-4.126316
0.455400	-4.219472
0.455500	-4.197725
0.455600	-4.149686
0.455700	-4.028291
0.455800	-4.040950
0.455900	-4.100674
0.456000	-4.216875
0.456100	-4.265563
0.456200	-4.210384
0.456300	-4.143519
0.456400	-4.134431
0.456500	-4.177925
0.456600	-4.262642
0.456700	-4.278871
0.456800	-4.326910
0.456900	-4.314251
0.457000	-4.324638
0.457100	-4.352228
0.457200	-4.375598
0.457300	-4.387608
0.457400	-4.364887
0.457500	-4.383713
0.457600	-4.389555
0.457700	-4.376897
0.457800	-4.368133
0.457900	-4.351903
0.458000	-4.326910
0.458100	-4.384687
0.458200	-4.437270
0.458300	-4.457394
0.458400	-4.473948
0.458500	-4.410654
0.458600	-4.446683
0.458700	-4.448955
0.458800	-4.464860
0.458900	-4.465184
0.459000	-4.476869
0.459100	-4.504459
0.459200	-4.499915
0.459300	-4.493748
0.459400	-4.516793
0.459500	-4.544383
0.459600	-4.582035
0.459700	-4.582035
0.459800	-4.573272
0.459900	-4.572622
0.460000	-4.569052
0.460100	-4.566780
0.460200	-4.572947
0.460300	-4.597616
0.460400	-4.623583
0.460500	-4.738162
0.460600	-4.849171
0.460700	-4.867348
0.460800	-4.811519
0.460900	-4.716090
0.461000	-4.741732
0.461100	-4.880656
0.461200	-5.028668
0.461300	-5.090339
0.461400	-5.030940
0.461500	-4.959530
0.461600	-4.977058
0.461700	-5.057881
0.461800	-5.181549
0.461900	-5.249388
0.462000	-5.268214
0.462100	-5.269837
0.462200	-5.290286
0.462300	-5.326964
0.462400	-5.380521
0.462500	-5.422718
0.462600	-5.461020
0.462700	-5.505813
0.462800	-5.549957
0.462900	-5.609681
0.463000	-5.665186
0.463100	-5.699268
0.463200	-5.732701
0.463300	-5.786583
0.463400	-5.827156
0.463500	-5.840789
0.463600	-5.812550
0.463700	-5.749904
0.463800	-5.765809
0.463900	-5.842737
0.464000	-5.921612
0.464100	-5.960238
0.464200	-5.904733
0.464300	-5.817419
0.464400	-5.779117
0.464500	-5.843386
0.464600	-5.951799
0.464700	-6.016068
0.464800	-6.014769
0.464900	-5.956992
0.465000	-5.909278
0.465100	-5.887530
0.465200	-5.907330
0.465300	-5.926481
0.465400	-5.925183
0.465500	-5.916094
0.465600	-5.905058
0.465700	-5.881038
0.465800	-5.818392
0.465900	-5.735622
0.466000	-5.681740
0.466100	-5.631753
0.466200	-5.597672
0.466300	-5.563265
0.466400	-5.523341
0.466500	-5.412331
0.466600	-5.372407
0.466700	-5.262371
0.466800	-5.235106
0.466900	-5.198103
0.467000	-5.131887
0.467100	-5.074759
0.467200	-5.011789
0.467300	-4.932265
0.467400	-4.841381
0.467500	-4.799184
0.467600	-4.729398
0.467700	-4.694992
0.467800	-4.655392
0.467900	-4.610599
0.468000	-4.533347
0.468100	-4.504459
0.468200	-4.428830
0.468300	-4.414873
0.468400	-4.343140
0.468500	-4.306461
0.468600	-4.243816
0.468700	-4.173056
0.468800	-4.036406
0.468900	-3.863077
0.469000	-3.785501
0.469100	-3.891640
0.469200	-3.966944
0.469300	-3.964348
0.469400	-3.824451
0.469500	-3.657614
0.469600	-3.558616
0.469700	-3.564458
0.469800	-3.628077
0.469900	-3.606005
0.470000	-3.535246
0.470100	-3.412877
0.470200	-3.328485
0.470300	-3.283043
0.470400	-3.265840
0.470500	-3.258699
0.470600	-3.251559
0.470700	-3.203195
0.470800	-3.154183
0.470900	-3.128866
0.471000	-3.109066
0.471100	-3.102574
0.471200	-3.111987
0.471300	-3.123348
0.471400	-3.143472
0.471500	-3.157104
0.471600	-3.170737
0.471700	-3.129839
0.471800	-3.121076
0.471900	-3.119777
0.472000	-3.238251
0.472100	-3.299597
0.472200	-3.285315
0.472300	-3.237601
0.472400	-3.164570
0.472500	-3.254480
0.472600	-3.362242
0.472700	-3.479417
0.472800	-3.506358
0.472900	-3.448581
0.473000	-3.379120
0.473100	-3.403464
0.473200	-3.480066
0.473300	-3.557317
0.473400	-3.568678
0.473500	-3.618989
0.473600	-3.611199
0.473700	-3.678388
0.473800	-3.728374
0.473900	-3.784527
0.474000	-3.819258
0.474100	-3.850418
0.474200	-3.888719
0.474300	-3.928968
0.474400	-3.959479
0.474500	-3.965646
0.474600	-3.948443
0.474700	-3.975059
0.474800	-4.041274
0.474900	-4.082172
0.475000	-4.097428
0.475100	-4.070487
0.475200	-4.051986
0.475300	-4.093533
0.475400	-4.096454
0.475500	-4.121447
0.475600	-4.147089
0.475700	-4.189286
0.475800	-4.214928
0.475900	-4.254527
0.476000	-4.286012
0.476100	-4.322691
0.476200	-4.344438
0.476300	-4.384362
0.476400	-4.406759
0.476500	-4.433699
0.476600	-4.478168
0.476700	-4.485308
0.476800	-4.527180
0.476900	-4.562560
0.477000	-4.601186
0.477100	-4.676166
0.477200	-4.840731
0.477300	-4.961478
0.477400	-4.980953
0.477500	-4.937459
0.477600	-4.908246
0.477700	-5.028019
0.477800	-5.222771
0.477900	-5.381820
0.478000	-5.437325
0.478100	-5.421095
0.478200	-5.423692
0.478300	-5.475951
0.478400	-5.647658
0.478500	-5.781065
0.478600	-5.870976
0.478700	-5.915769
0.478800	-5.970950
0.478900	-6.044632
0.479000	-6.109874
0.479100	-6.189724
0.479200	-6.253019
0.479300	-6.300734
0.479400	-6.333842
0.479500	-6.388373
0.479600	-6.427324
0.479700	-6.435115
0.479800	-6.434790
0.479900	-6.434790
0.480000	-6.434790
0.480100	-6.434790
0.480200	-6.434465
0.480300	-6.434141
0.480400	-6.434141
0.480500	-6.434465
0.480600	-6.433816
0.480700	-6.433816
0.480800	-6.433167
0.480900	-6.433492
0.481000	-6.433492
0.481100	-6.434141
0.481200	-6.433816
0.481300	-6.433167
0.481400	-6.432843
0.481500	-6.433167
0.481600	-6.432843
0.481700	-6.433167
0.481800	-6.433167
0.481900	-6.432518
0.482000	-6.432843
0.482100	-6.432518
0.482200	-6.432193
0.482300	-6.431869
0.482400	-6.431220
0.482500	-6.431220
0.482600	-6.431544
0.482700	-6.431220
0.482800	-6.431220
0.482900	-6.431220
0.483000	-6.431220
0.483100	-5.989776
0.483200	-5.937192
0.483300	-5.869678
0.483400	-5.764186
0.483500	-5.733674
0.483600	-5.699268
0.483700	-5.643114
0.483800	-5.577547
0.483900	-5.486987
0.484000	-5.413954
0.484100	-5.326640
0.484200	-5.299374
0.484300	-5.264319
0.484400	-5.220175
0.484500	-5.214008
0.484600	-5.201349
0.484700	-5.131887
0.484800	-5.141949
0.484900	-5.104621
0.485000	-5.104946
0.485100	-5.097805
0.485200	-5.113061
0.485300	-5.085471
0.485400	-5.051713
0.485500	-4.913439
0.485600	-4.804053
0.485700	-4.777112
0.485800	-4.900131
0.485900	-4.964724
0.486000	-4.939406
0.486100	-4.822879
0.486200	-4.691097
0.486300	-4.660910
0.486400	-4.699211
0.486500	-4.741732
0.486600	-4.748549
0.486700	-4.674867
0.486800	-4.572622
0.486900	-4.517443
0.487000	-4.485633
0.487100	-4.499915
0.487200	-4.475571
0.487300	-4.480764
0.487400	-4.467132
0.487500	-4.452850
0.487600	-4.423637
0.487700	-4.439217
0.487800	-4.411952
0.487900	-4.403513
0.488000	-4.429480
0.488100	-4.464860
0.488200	-4.483036
0.488300	-4.435971
0.488400	-4.410654
0.488500	-4.368133
0.488600	-4.440840
0.488700	-4.529777
0.488800	-4.545357
0.488900	-4.521662
0.489000	-4.407408
0.489100	-4.418444
0.489200	-4.459666
0.489300	-4.573596
0.489400	-4.639812
0.489500	-4.648251
0.489600	-4.576517
0.489700	-4.555419
0.489800	-4.598914
0.489900	-4.687526
0.490000	-4.733293
0.490100	-4.781656
0.490200	-4.815738
0.490300	-4.850794
0.490400	-4.889744
0.490500	-4.928370
0.490600	-4.976084
0.490700	-4.988743
0.490800	-5.009192
0.490900	-5.016333
0.491000	-5.041327
0.491100	-5.045871
0.491200	-5.015360
0.491300	-5.015035
0.491400	-5.048468
0.491500	-5.105595
0.491600	-5.128316
0.491700	-5.137080
0.491800	-5.073785
0.491900	-5.082225
0.492000	-5.103972
0.492100	-5.102349
0.492200	-5.114034
0.492300	-5.114034
0.492400	-5.118903
0.492500	-5.116306
0.492600	-5.154283
0.492700	-5.164021
0.492800	-5.175706
0.492900	-5.194857
0.493000	-5.211411
0.493100	-5.233483
0.493200	-5.246466
0.493300	-5.283469
0.493400	-5.283469
0.493500	-5.298076
0.493600	-5.331833
0.493700	-5.339948
0.493800	-5.438947
0.493900	-5.584363
0.494000	-5.622016
0.494100	-5.597672
0.494200	-5.485364
0.494300	-5.486662
0.494400	-5.602865
0.494500	-5.769055
0.494600	-5.859291
0.494700	-5.833324
0.494800	-5.783012
0.494900	-5.768406
0.495000	-5.814173
0.495100	-5.897268
0.495200	-5.960887
0.495300	-5.955369
0.495400	-5.943360
0.495500	-5.943035
0.495600	-5.978415
0.495700	-6.010550
0.495800	-6.026455
0.495900	-6.057615
0.496000	-6.077415
0.496100	-6.109225
0.496200	-6.142658
0.496300	-6.196540
0.496400	-6.227376
0.496500	-6.232245
0.496600	-6.287101
0.496700	-6.340983
0.496800	-6.376688
0.496900	-6.355590
0.497000	-6.265678
0.497100	-6.253019
0.497200	-6.304629
0.497300	-6.399410
0.497400	-6.434141
0.497500	-6.433492
0.497600	-6.383829
0.497700	-6.308524
0.497800	-6.357537
0.497900	-6.436088
0.498000	-6.431869
0.498100	-6.432518
0.498200	-6.432193
0.498300	-6.432518
0.498400	-6.432193
0.498500	-6.431869
0.498600	-6.431544
0.498700	-6.431544
0.498800	-6.431544
0.498900	-6.431544
0.499000	-6.431220
0.499100	-6.431544
0.499200	-6.431220
0.499300	-6.430895
0.499400	-6.430895
0.499500	-6.431220
0.499600	-6.431220
0.499700	-6.430895
0.499800	-6.430570
0.499900	-6.430895
0.500000	-6.430895
0.500100	-6.430570
0.500200	-6.430570
0.500300	-6.245878
0.500400	-6.068976
0.500500	-5.980687
0.500600	-5.905383
0.500700	-5.852150
0.500800	-5.820340
0.500900	-5.806383
0.501000	-5.770678
0.501100	-5.763861
0.501200	-5.735947
0.501300	-5.717445
0.501400	-5.661616
0.501500	-5.630780
0.501600	-5.596049
0.501700	-5.593452
0.501800	-5.585337
0.501900	-5.568783
0.502000	-5.534701
0.502100	-5.447711
0.502200	-5.312682
0.502300	-5.165968
0.502400	-5.229263
0.502500	-5.298725
0.502600	-5.310410
0.502700	-5.231211
0.502800	-5.057881
0.502900	-4.919282
0.503000	-4.897210
0.503100	-4.942652
0.503200	-4.948170
0.503300	-4.886498
0.503400	-4.773866
0.503500	-4.669025
0.503600	-4.653120
0.503700	-4.639812
0.503800	-4.651822
0.503900	-4.635917
0.504000	-4.598265
0.504100	-4.576842
0.504200	-4.541787
0.504300	-4.562560
0.504400	-4.547954
0.504500	-4.548278
0.504600	-4.552498
0.504700	-4.583334
0.504800	-4.594694
0.504900	-4.616442
0.505000	-4.618714
0.505100	-4.591773
0.505200	-4.574894
0.505300	-4.681034
0.505400	-4.722257
0.505500	-4.728749
0.505600	-4.659287
0.505700	-4.544708
0.505800	-4.552823
0.505900	-4.608002
0.506000	-4.693369
0.506100	-4.708624
0.506200	-4.641759
0.506300	-4.532049
0.506400	-4.515820
0.506500	-4.552498
0.506600	-4.609950
0.506700	-4.617091
0.506800	-4.620986
0.506900	-4.592422
0.507000	-4.612871
0.507100	-4.654743
0.507200	-4.700834
0.507300	-4.708949
0.507400	-4.717713
0.507500	-4.738162
0.507600	-4.761857
0.507700	-4.789122
0.507800	-4.798860
0.507900	-4.820932
0.508000	-4.815738
0.508100	-4.870918
0.508200	-4.958557
0.508300	-5.000753
0.508400	-4.983875
0.508500	-4.962452
0.508600	-4.996534
0.508700	-4.988419
0.508800	-4.986796
0.508900	-4.954012
0.509000	-4.971216
0.509100	-4.941029
0.509200	-4.937459
0.509300	-4.922203
0.509400	-4.914737
0.509500	-4.921229
0.509600	-4.914737
0.509700	-4.930967
0.509800	-4.941029
0.509900	-4.937134
0.510000	-4.917983
0.510100	-4.931941
0.510200	-4.938108
0.510300	-4.919931
0.510400	-4.928370
0.510500	-5.014061
0.510600	-5.111438
0.510700	-5.113061
0.510800	-5.010491
0.510900	-4.891367
0.511000	-4.873515
0.511100	-5.008868
0.511200	-5.131562
0.511300	-5.177329
0.511400	-5.099428
0.511500	-5.052038
0.511600	-5.043274
0.511700	-5.116956
0.511800	-5.222122
0.511900	-5.274056
0.512000	-5.246142
0.512100	-5.237053
0.512200	-5.222122
0.512300	-5.271784
0.512400	-5.297751
0.512500	-5.350659
0.512600	-5.333781
0.512700	-5.353256
0.512800	-5.383767
0.512900	-5.401295
0.513000	-5.443492
0.513100	-5.461344
0.513200	-5.484065
0.513300	-5.502567
0.513400	-5.536000
0.513500	-5.549957
0.513600	-5.502567
0.513700	-5.433429
0.513800	-5.445115
0.513900	-5.531131
0.514000	-5.635648
0.514100	-5.661940
0.514200	-5.605137
0.514300	-5.529832
0.514400	-5.526911
0.514500	-5.598645
0.514600	-5.727507
0.514700	-5.801838
0.514800	-5.807032
0.514900	-5.781065
0.515000	-5.759966
0.515100	-5.797619
0.515200	-5.839491
0.515300	-5.891425
0.515400	-5.914146
0.515500	-5.911874
0.515600	-5.919664
0.515700	-5.919015
0.515800	-5.887855
0.515900	-5.851501
0.516000	-5.833648
0.516100	-5.827481
0.516200	-5.833324
0.516300	-5.840140
0.516400	-5.798268
0.516500	-5.751202
0.516600	-5.714524
0.516700	-5.612278
0.516800	-5.634350
0.516900	-5.603190
0.517000	-5.568458
0.517100	-5.547685
0.517200	-5.502891
0.517300	-5.446738
0.517400	-5.415902
0.517500	-5.421095
0.517600	-5.412331
0.517700	-5.460695
0.517800	-5.467187
0.517900	-5.482118
0.518000	-5.455826
0.518100	-5.453229
0.518200	-5.442518
0.518300	-5.452580
0.518400	-5.456151
0.518500	-5.430833
0.518600	-5.456475
0.518700	-5.406813
0.518800	-5.357476
0.518900	-5.203945
0.519000	-5.167916
0.519100	-5.263670
0.519200	-5.366564
0.519300	-5.376302
0.519400	-5.322420
0.519500	-5.220499
0.519600	-5.165319
0.519700	-5.229263
0.519800	-5.306515
0.519900	-5.336702
0.520000	-5.288987
0.520100	-5.181873
0.520200	-5.161424
0.520300	-5.140001
0.520400	-5.187067
0.520500	-5.162073
0.520600	-5.178627
0.520700	-5.162398
0.520800	-5.131238
0.520900	-5.096182
0.521000	-5.100077
0.521100	-5.084821
0.521200	-5.076707
0.521300	-5.140651
0.521400	-5.143247
0.521500	-5.157854
0.521600	-5.153959
0.521700	-5.115982
0.521800	-5.117605
0.521900	-5.148765
0.522000	-5.281197
0.522100	-5.336377
0.522200	-5.318200
0.522300	-5.239975
0.522400	-5.154283
0.522500	-5.220824
0.522600	-5.277302
0.522700	-5.337027
0.522800	-5.318525
0.522900	-5.231211
0.523000	-5.164995
0.523100	-5.151037
0.523200	-5.203621
0.523300	-5.231535
0.523400	-5.202647
0.523500	-5.215630
0.523600	-5.170188
0.523700	-5.150713
0.523800	-5.157529
0.523900	-5.180900
0.524000	-5.179277
0.524100	-5.173759
0.524200	-5.183496
0.524300	-5.188690
0.524400	-5.174408
0.524500	-5.152011
0.524600	-5.144221
0.524700	-5.138378
0.524800	-5.191286
0.524900	-5.232509
0.525000	-5.224394
0.525100	-5.155906
0.525200	-5.161100
0.525300	-5.157529
0.525400	-5.151687
0.525500	-5.136756
0.525600	-5.102674
0.525700	-5.070864
0.525800	-5.040677
0.525900	-5.001727
0.526000	-4.986147
0.526100	-4.938108
0.526200	-4.918957
0.526300	-4.896236
0.526400	-4.838135
0.526500	-4.846899
0.526600	-4.818010
0.526700	-4.793666
0.526800	-4.765103
0.526900	-4.734591
0.527000	-4.727126
0.527100	-4.743680
0.527200	-4.833915
0.527300	-4.916360
0.527400	-4.865400
0.527500	-4.747250
0.527600	-4.667402
0.527700	-4.703431
0.527800	-4.820932
0.527900	-4.909544
0.528000	-4.865725
0.528100	-4.781007
0.528200	-4.751794
0.528300	-4.794640
0.528400	-4.862154
0.528500	-4.954337
0.528600	-4.984199
0.528700	-4.965048
0.528800	-4.951091
0.528900	-4.981602
0.529000	-5.010166
0.529100	-5.053012
0.529200	-5.072162
0.529300	-5.108192
0.529400	-5.123123
0.529500	-5.159801
0.529600	-5.203296
0.529700	-5.218227
0.529800	-5.261397
0.529900	-5.288663
0.530000	-5.338000
0.530100	-5.376626
0.530200	-5.395453
0.530300	-5.335728
0.530400	-5.317876
0.530500	-5.388312
0.530600	-5.522042
0.530700	-5.618770
0.530800	-5.647334
0.530900	-5.615524
0.531000	-5.592803
0.531100	-5.663888
0.531200	-5.771002
0.531300	-5.894022
0.531400	-5.957317
0.531500	-5.953097
0.531600	-5.930051
0.531700	-5.942710
0.531800	-5.971274
0.531900	-6.013471
0.532000	-6.034894
0.532100	-6.063783
0.532200	-6.068327
0.532300	-6.083258
0.532400	-6.084881
0.532500	-6.055019
0.532600	-6.020612
0.532700	-6.016068
0.532800	-6.016717
0.532900	-6.029701
0.533000	-6.039763
0.533100	-5.972248
0.533200	-5.925507
0.533300	-5.866432
0.533400	-5.807032
0.533500	-5.783012
0.533600	-5.760940
0.533700	-5.703163
0.533800	-5.652852
0.533900	-5.572354
0.534000	-5.514577
0.534100	-5.469134
0.534200	-5.450308
0.534300	-5.451282
0.534400	-5.431806
0.534500	-5.431157
0.534600	-5.397400
0.534700	-5.367863
0.534800	-5.347413
0.534900	-5.325991
0.535000	-5.301971
0.535100	-5.310735
0.535200	-5.306515
0.535300	-5.301646
0.535400	-5.233807
0.535500	-5.133834
0.535600	-5.002051
0.535700	-5.028343
0.535800	-5.154932
0.535900	-5.194208
0.536000	-5.164995
0.536100	-5.018930
0.536200	-4.923826
0.536300	-4.894938
0.536400	-4.948495
0.536500	-5.012763
0.536600	-5.001727
0.536700	-4.901105
0.536800	-4.812492
0.536900	-4.767050
0.537000	-4.755365
0.537100	-4.758286
0.537200	-4.747899
0.537300	-4.688500
0.537400	-4.645654
0.537500	-4.618389
0.537600	-4.594694
0.537700	-4.567429
0.537800	-4.537892
0.537900	-4.478492
0.538000	-4.538541
0.538100	-4.500889
0.538200	-4.495695
0.538300	-4.451227
0.538400	-4.381116
0.538500	-4.318146
0.538600	-4.336648
0.538700	-4.372677
0.538800	-4.361641
0.538900	-4.300294
0.539000	-4.157476
0.539100	-4.097103
0.539200	-4.141247
0.539300	-4.229210
0.539400	-4.254852
0.539500	-4.172083
0.539600	-4.074058
0.539700	-4.002973
0.539800	-4.021150
0.539900	-4.052635
0.540000	-4.071461
0.540100	-4.063671
0.540200	-4.031212
0.540300	-4.025045
0.540400	-4.020176
0.540500	-4.034458
0.540600	-4.041274
0.540700	-4.008816
0.540800	-4.012711
0.540900	-4.001350
0.541000	-3.986095
0.541100	-3.986744
0.541200	-3.967269
0.541300	-3.961102
0.541400	-4.008167
0.541500	-4.065618
0.541600	-4.128588
0.541700	-4.139949
0.541800	-4.117227
0.541900	-4.133132
0.542000	-4.139624
0.542100	-4.136053
0.542200	-4.128913
0.542300	-4.152607
0.542400	-4.158450
0.542500	-4.156178
0.542600	-4.166889
0.542700	-4.173381
0.542800	-4.185391
0.542900	-4.169486
0.543000	-4.173705
0.543100	-4.183768
0.543200	-4.171758
0.543300	-4.201944
0.543400	-4.194154
0.543500	-4.232456
0.543600	-4.256150
0.543700	-4.288609
0.543800	-4.396047
0.543900	-4.560613
0.544000	-4.627478
0.544100	-4.574570
0.544200	-4.500239
0.544300	-4.516144
0.544400	-4.671946
0.544500	-4.811194
0.544600	-4.896236
0.544700	-4.858259
0.544800	-4.801781
0.544900	-4.773866
0.545000	-4.864751
0.545100	-4.972839
0.545200	-5.058854
0.545300	-5.075084
0.545400	-5.046520
0.545500	-5.048468
0.545600	-5.057231
0.545700	-5.087743
0.545800	-5.132211
0.545900	-5.145844
0.546000	-5.162398
0.546100	-5.191611
0.546200	-5.222771
0.546300	-5.263994
0.546400	-5.292233
0.546500	-5.310735
0.546600	-5.375977
0.546700	-5.419472
0.546800	-5.474652
0.546900	-5.467836
0.547000	-5.443167
0.547100	-5.462967
0.547200	-5.553852
0.547300	-5.692776
0.547400	-5.790478
0.547500	-5.778468
0.547600	-5.729455
0.547700	-5.718743
0.547800	-5.804110
0.547900	-5.934920
0.548000	-6.061510
0.548100	-6.092022
0.548200	-6.080012
0.548300	-6.052422
0.548400	-6.038789
0.548500	-6.096891
0.548600	-6.148501
0.548700	-6.174793
0.548800	-6.230947
0.548900	-6.262108
0.549000	-6.288724
0.549100	-6.283206
0.549200	-6.245553
0.549300	-6.225429
0.549400	-6.223481
0.549500	-6.245878
0.549600	-6.268275
0.549700	-6.229648
0.549800	-6.141684
0.549900	-6.121560
0.550000	-6.027753
0.550100	-5.998215
0.550200	-5.956668
0.550300	-5.931674
0.550400	-5.872599
0.550500	-5.819366
0.550600	-5.738219
0.550700	-5.693750
0.550800	-5.678819
0.550900	-5.680117
0.551000	-5.656422
0.551100	-5.668107
0.551200	-5.672002
0.551300	-5.653501
0.551400	-5.662914
0.551500	-5.613576
0.551600	-5.603190
0.551700	-5.593452
0.551800	-5.586311
0.551900	-5.582091
0.552000	-5.563590
0.552100	-5.495426
0.552200	-5.334430
0.552300	-5.284119
0.552400	-5.338650
0.552500	-5.464265
0.552600	-5.473354
0.552700	-5.403567
0.552800	-5.248738
0.552900	-5.142923
0.553000	-5.150388
0.553100	-5.226991
0.553200	-5.257827
0.553300	-5.200699
0.553400	-5.077031
0.553500	-5.010166
0.553600	-4.931941
0.553700	-4.937134
0.553800	-4.932914
0.553900	-4.930967
0.554000	-4.902078
0.554100	-4.865725
0.554200	-4.845925
0.554300	-4.822555
0.554400	-4.798535
0.554500	-4.789447
0.554600	-4.820932
0.554700	-4.817037
0.554800	-4.856312
0.554900	-4.839108
0.555000	-4.807948
0.555100	-4.764778
0.555200	-4.737837
0.555300	-4.842354
0.555400	-4.881305
0.555500	-4.884226
0.555600	-4.821581
0.555700	-4.730696
0.555800	-4.753417
0.555900	-4.836836
0.556000	-4.929019
0.556100	-4.932265
0.556200	-4.880656
0.556300	-4.784253
0.556400	-4.755365
0.556500	-4.795289
0.556600	-4.843653
0.556700	-4.832941
0.556800	-4.825800
0.556900	-4.804053
0.557000	-4.807623
0.557100	-4.802430
0.557200	-4.806974
0.557300	-4.806001
0.557400	-4.803079
0.557500	-4.818335
0.557600	-4.836836
0.557700	-4.824502
0.557800	-4.813141
0.557900	-4.782630
0.558000	-4.781656
0.558100	-4.803728
0.558200	-4.854364
0.558300	-4.858584
0.558400	-4.828397
0.558500	-4.796912
0.558600	-4.811843
0.558700	-4.806001
0.558800	-4.799184
0.558900	-4.806974
0.559000	-4.807299
0.559100	-4.820282
0.559200	-4.820932
0.559300	-4.829371
0.559400	-4.843004
0.559500	-4.860207
0.559600	-4.864426
0.559700	-4.871243
0.559800	-4.893315
0.559900	-4.911167
0.560000	-4.922203
0.560100	-4.944924
0.560200	-4.963750
0.560300	-4.979655
0.560400	-5.040677
0.560500	-5.156880
0.560600	-5.270161
0.560700	-5.292558
0.560800	-5.226342
0.560900	-5.117605
0.561000	-5.162073
0.561100	-5.300997
0.561200	-5.448685
0.561300	-5.471406
0.561400	-5.410059
0.561500	-5.336053
0.561600	-5.347738
0.561700	-5.424341
0.561800	-5.536324
0.561900	-5.566511
0.562000	-5.549308
0.562100	-5.521068
0.562200	-5.507760
0.562300	-5.526911
0.562400	-5.547360
0.562500	-5.570406
0.562600	-5.576573
0.562700	-5.578521
0.562800	-5.600593
0.562900	-5.614550
0.563000	-5.628183
0.563100	-5.632727
0.563200	-5.635973
0.563300	-5.668432
0.563400	-5.711602
0.563500	-5.717770
0.563600	-5.668107
0.563700	-5.648632
0.563800	-5.662589
0.563900	-5.758992
0.564000	-5.871301
0.564100	-5.895320
0.564200	-5.841763
0.564300	-5.784635
0.564400	-5.806707
0.564500	-5.875845
0.564600	-5.988153
0.564700	-6.055019
0.564800	-6.032297
0.564900	-6.006005
0.565000	-5.985232
0.565100	-5.992048
0.565200	-5.998540
0.565300	-6.020937
0.565400	-6.013471
0.565500	-6.012497
0.565600	-5.990101
0.565700	-5.988153
0.565800	-5.971924
0.565900	-5.902461
0.566000	-5.836569
0.566100	-5.802812
0.566200	-5.770353
0.566300	-5.743737
0.566400	-5.677196
0.566500	-5.582740
0.566600	-5.454528
0.566700	-5.333781
0.566800	-5.282171
0.566900	-5.234457
0.567000	-5.153634
0.567100	-5.079953
0.567200	-4.994261
0.567300	-4.934862
0.567400	-4.854689
0.567500	-4.830020
0.567600	-4.780358
0.567700	-4.725503
0.567800	-4.700834
0.567900	-4.644681
0.568000	-4.634618
0.568100	-4.567104
0.568200	-4.563859
0.568300	-4.515495
0.568400	-4.529777
0.568500	-4.516469
0.568600	-4.508354
0.568700	-4.455447
0.568800	-4.365211
0.568900	-4.207462
0.569000	-4.172732
0.569100	-4.252905
0.569200	-4.333727
0.569300	-4.298671
0.569400	-4.224666
0.569500	-4.040950
0.569600	-4.003298
0.569700	-4.018878
0.569800	-4.113982
0.569900	-4.106192
0.570000	-4.029265
0.570100	-3.951040
0.570200	-3.882877
0.570300	-3.891316
0.570400	-3.906571
0.570500	-3.930591
0.570600	-3.909493
0.570700	-3.871516
0.570800	-3.854638
0.570900	-3.836136
0.571000	-3.856261
0.571100	-3.850418
0.571200	-3.858857
0.571300	-3.868919
0.571400	-3.950066
0.571500	-3.967269
0.571600	-4.028291
0.571700	-3.981226
0.571800	-3.971813
0.571900	-4.025045
0.572000	-4.170135
0.572100	-4.236026
0.572200	-4.228561
0.572300	-4.146116
0.572400	-4.096779
0.572500	-4.153906
0.572600	-4.275950
0.572700	-4.360343
0.572800	-4.376247
0.572900	-4.302891
0.573000	-4.237324
0.573100	-4.242518
0.573200	-4.305488
0.573300	-4.358395
0.573400	-4.349956
0.573500	-4.344762
0.573600	-4.332428
0.573700	-4.349631
0.573800	-4.367159
0.573900	-4.396372
0.574000	-4.404162
0.574100	-4.397670
0.574200	-4.388906
0.574300	-4.410978
0.574400	-4.439217
0.574500	-4.448955
0.574600	-4.428830
0.574700	-4.457394
0.574800	-4.529777
0.574900	-4.592422
0.575000	-4.634618
0.575100	-4.646304
0.575200	-4.620661
0.575300	-4.651822
0.575400	-4.647927
0.575500	-4.675841
0.575600	-4.704729
0.575700	-4.707651
0.575800	-4.728100
0.575900	-4.743355
0.576000	-4.760883
0.576100	-4.775814
0.576200	-4.782306
0.576300	-4.807948
0.576400	-4.852741
0.576500	-4.887147
0.576600	-4.904675
0.576700	-4.936809
0.576800	-4.974786
0.576900	-5.004324
0.577000	-5.060477
0.577100	-5.109166
0.577200	-5.283145
0.577300	-5.373381
0.577400	-5.359748
0.577500	-5.253607
0.577600	-5.226342
0.577700	-5.308787
0.577800	-5.481793
0.577900	-5.616173
0.578000	-5.635648
0.578100	-5.600917
0.578200	-5.575275
0.578300	-5.627209
0.578400	-5.739842
0.578500	-5.815471
0.578600	-5.845333
0.578700	-5.856694
0.578800	-5.870327
0.578900	-5.883960
0.579000	-5.916094
0.579100	-5.967704
0.579200	-5.997242
0.579300	-6.023858
0.579400	-6.043009
0.579500	-6.098189
0.579600	-6.136166
0.579700	-6.167002
0.579800	-6.201734
0.579900	-6.232570
0.580000	-6.266327
0.580100	-6.293593
0.580200	-6.295540
0.580300	-6.214717
0.580400	-6.193294
0.580500	-6.228999
0.580600	-6.312095
0.580700	-6.367924
0.580800	-6.348773
0.580900	-6.271845
0.581000	-6.210822
0.581100	-6.223157
0.581200	-6.309822
0.581300	-6.387075
0.581400	-6.410121
0.581500	-6.379285
0.581600	-6.334491
0.581700	-6.290347
0.581800	-6.290347
0.581900	-6.300734
0.582000	-6.289698
0.582100	-6.279635
0.582200	-6.278986
0.582300	-6.265678
0.582400	-6.221209
0.582500	-6.192970
0.582600	-6.130973
0.582700	-6.096242
0.582800	-6.077091
0.582900	-6.082284
0.583000	-6.052422
0.583100	-5.973871
0.583200	-5.888828
0.583300	-5.773599
0.583400	-5.700566
0.583500	-5.664537
0.583600	-5.612927
0.583700	-5.554177
0.583800	-5.460046
0.583900	-5.368512
0.584000	-5.329236
0.584100	-5.266266
0.584200	-5.251984
0.584300	-5.228289
0.584400	-5.190962
0.584500	-5.187391
0.584600	-5.147792
0.584700	-5.152011
0.584800	-5.101375
0.584900	-5.124097
0.585000	-5.099103
0.585100	-5.121824
0.585200	-5.149090
0.585300	-5.142274
0.585400	-5.082874
0.585500	-4.998481
0.585600	-4.840731
0.585700	-4.913439
0.585800	-4.999779
0.585900	-5.100726
0.586000	-5.041976
0.586100	-4.931616
0.586200	-4.802430
0.586300	-4.773542
0.586400	-4.853390
0.586500	-4.814764
0.586600	-4.834564
0.586700	-4.708624
0.586800	-4.666428
0.586900	-4.575219
0.587000	-4.598914
0.587100	-4.586255
0.587200	-4.555095
0.587300	-4.530101
0.587400	-4.485958
0.587500	-4.467456
0.587600	-4.441489
0.587700	-4.426558
0.587800	-4.362290
0.587900	-4.367484
0.588000	-4.366185
0.588100	-4.348008
0.588200	-4.336648
0.588300	-4.287635
0.588400	-4.253554
0.588500	-4.212656
0.588600	-4.253878
0.588700	-4.358395
0.588800	-4.332753
0.588900	-4.274652
0.589000	-4.147089
0.589100	-4.134106
0.589200	-4.165915
0.589300	-4.274976
0.589400	-4.300619
0.589500	-4.257124
0.589600	-4.169161
0.589700	-4.138001
0.589800	-4.163643
0.589900	-4.215902
0.590000	-4.231482
0.590100	-4.236026
0.590200	-4.236351
0.590300	-4.249334
0.590400	-4.271081
0.590500	-4.325612
0.590600	-4.332428
0.590700	-4.315225
0.590800	-4.347035
0.590900	-4.363264
0.591000	-4.375274
0.591100	-4.348333
0.591200	-4.322691
0.591300	-4.294776
0.591400	-4.356123
0.591500	-4.403837
0.591600	-4.418119
0.591700	-4.420067
0.591800	-4.381441
0.591900	-4.425585
0.592000	-4.431103
0.592100	-4.437919
0.592200	-4.456745
0.592300	-4.440840
0.592400	-4.464535
0.592500	-4.447332
0.592600	-4.422663
0.592700	-4.433699
0.592800	-4.412926
0.592900	-4.414224
0.593000	-4.418444
0.593100	-4.425585
0.593200	-4.388582
0.593300	-4.396372
0.593400	-4.392152
0.593500	-4.403837
0.593600	-4.408706
0.593700	-4.433699
0.593800	-4.501538
0.593900	-4.634618
0.594000	-4.646304
0.594100	-4.606379
0.594200	-4.483686
0.594300	-4.483036
0.594400	-4.586255
0.594500	-4.725503
0.594600	-4.767050
0.594700	-4.716739
0.594800	-4.635268
0.594900	-4.609950
0.595000	-4.672271
0.595100	-4.761857
0.595200	-4.806001
0.595300	-4.795289
0.595400	-4.760558
0.595500	-4.802105
0.595600	-4.817361
0.595700	-4.844302
0.595800	-4.863777
0.595900	-4.860207
0.596000	-4.867023
0.596100	-4.879682
0.596200	-4.920905
0.596300	-4.967645
0.596400	-4.981927
0.596500	-4.990366
0.596600	-5.015035
0.596700	-5.066320
0.596800	-5.099103
0.596900	-5.059179
0.597000	-5.017632
0.597100	-5.005947
0.597200	-5.077031
0.597300	-5.167267
0.597400	-5.245168
0.597500	-5.199076
0.597600	-5.118579
0.597700	-5.088716
0.597800	-5.163372
0.597900	-5.265293
0.598000	-5.355528
0.598100	-5.357476
0.598200	-5.336377
0.598300	-5.312358
0.598400	-5.298725
0.598500	-5.325341
0.598600	-5.373056
0.598700	-5.366240
0.598800	-5.350335
0.598900	-5.338325
0.599000	-5.354230
0.599100	-5.349686
0.599200	-5.332482
0.599300	-5.279899
0.599400	-5.222122
0.599500	-5.218552
0.599600	-5.214981
