LabVIEW Measurement	
Writer_Version	2
Reader_Version	2
Separator	Tab
Decimal_Separator	.
Multi_Headings	Yes
X_Columns	One
Time_Pref	Relative
Operator	as989
Description	Time Domain Data
Date	1903/12/31
Time	19:00:00
***End_of_Header***	
	
Channels	1	
Samples	15000	
Date	1903/12/31	
Time	19:00:00	
X_Dimension	Time	
X0	0.0000000000000000E+0	
Delta_X	0.000100	
***End_of_Header***		
X_Value	Untitled	Comment
0.000000	-0.586408	Tare Values:0.000000, 0.000000, 0.000000, 0.000000\0D\0A
0.000100	-0.539019
0.000200	-0.441320
0.000300	-0.281301
0.000400	-0.238781
0.000500	-0.327391
0.000600	-0.462742
0.000700	-0.494876
0.000800	-0.409835
0.000900	-0.289091
0.001000	-0.210217
0.001100	-0.246246
0.001200	-0.320900
0.001300	-0.382570
0.001400	-0.360823
0.001500	-0.307267
0.001600	-0.243974
0.001700	-0.213788
0.001800	-0.230017
0.001900	-0.255010
0.002000	-0.286819
0.002100	-0.292012
0.002200	-0.280327
0.002300	-0.279029
0.002400	-0.282924
0.002500	-0.290064
0.002600	-0.310838
0.002700	-0.362771
0.002800	-0.401396
0.002900	-0.447811
0.003000	-0.481892
0.003100	-0.488059
0.003200	-0.496498
0.003300	-0.524088
0.003400	-0.650350
0.003500	-0.735715
0.003600	-0.752269
0.003700	-0.691248
0.003800	-0.618217
0.003900	-0.636069
0.004000	-0.752269
0.004100	-0.874636
0.004200	-0.906121
0.004300	-0.861978
0.004400	-0.809395
0.004500	-0.812966
0.004600	-0.880479
0.004700	-0.949290
0.004800	-0.978178
0.004900	-0.986942
0.005000	-0.973634
0.005100	-0.990512
0.005200	-1.025243
0.005300	-1.056078
0.005400	-1.063543
0.005500	-1.065491
0.005600	-1.076851
0.005700	-1.100221
0.005800	-1.107686
0.005900	-1.095677
0.006000	-1.086589
0.006100	-1.083992
0.006200	-1.145013
0.006300	-1.206035
0.006400	-1.225185
0.006500	-1.225510
0.006600	-1.190455
0.006700	-1.198569
0.006800	-1.204412
0.006900	-1.189481
0.007000	-1.182989
0.007100	-1.168059
0.007200	-1.152479
0.007300	-1.143715
0.007400	-1.131056
0.007500	-1.116126
0.007600	-1.109634
0.007700	-1.104441
0.007800	-1.107362
0.007900	-1.110283
0.008000	-1.131056
0.008100	-1.145013
0.008200	-1.171954
0.008300	-1.201166
0.008400	-1.243686
0.008500	-1.347228
0.008600	-1.523152
0.008700	-1.661424
0.008800	-1.655906
0.008900	-1.584498
0.009000	-1.534188
0.009100	-1.631562
0.009200	-1.819496
0.009300	-1.978541
0.009400	-2.028852
0.009500	-1.985033
0.009600	-1.950952
0.009700	-1.976269
0.009800	-2.069425
0.009900	-2.182704
0.010000	-2.255086
0.010100	-2.270666
0.010200	-2.265473
0.010300	-2.279754
0.010400	-2.316757
0.010500	-2.348241
0.010600	-2.365769
0.010700	-2.373884
0.010800	-2.392060
0.010900	-2.421273
0.011000	-2.447239
0.011100	-2.459574
0.011200	-2.455679
0.011300	-2.450485
0.011400	-2.465091
0.011500	-2.478399
0.011600	-2.460223
0.011700	-2.371287
0.011800	-2.292738
0.011900	-2.293711
0.012000	-2.375182
0.012100	-2.468986
0.012200	-2.504691
0.012300	-2.433607
0.012400	-2.326494
0.012500	-2.304747
0.012600	-2.374857
0.012700	-2.491383
0.012800	-2.555975
0.012900	-2.541369
0.013000	-2.489111
0.013100	-2.448213
0.013200	-2.434905
0.013300	-2.456003
0.013400	-2.462819
0.013500	-2.449187
0.013600	-2.409588
0.013700	-2.368690
0.013800	-2.328442
0.013900	-2.261578
0.014000	-2.175239
0.014100	-2.094417
0.014200	-2.043782
0.014300	-2.003210
0.014400	-1.968479
0.014500	-1.898694
0.014600	-1.806512
0.014700	-1.742245
0.014800	-1.640001
0.014900	-1.575410
0.015000	-1.513090
0.015100	-1.454665
0.015200	-1.382283
0.015300	-1.299514
0.015400	-1.212851
0.015500	-1.139495
0.015600	-1.092431
0.015700	-1.048612
0.015800	-1.010312
0.015900	-0.977529
0.016000	-0.943123
0.016100	-0.911963
0.016200	-0.872689
0.016300	-0.849644
0.016400	-0.824975
0.016500	-0.825625
0.016600	-0.822054
0.016700	-0.806150
0.016800	-0.753243
0.016900	-0.616918
0.017000	-0.467935
0.017100	-0.448785
0.017200	-0.558494
0.017300	-0.668851
0.017400	-0.636069
0.017500	-0.517921
0.017600	-0.369262
0.017700	-0.319277
0.017800	-0.365692
0.017900	-0.444241
0.018000	-0.475401
0.018100	-0.427687
0.018200	-0.357253
0.018300	-0.293959
0.018400	-0.290714
0.018500	-0.312136
0.018600	-0.351735
0.018700	-0.363420
0.018800	-0.361472
0.018900	-0.353683
0.019000	-0.360823
0.019100	-0.376079
0.019200	-0.386465
0.019300	-0.420546
0.019400	-0.458847
0.019500	-0.491954
0.019600	-0.540966
0.019700	-0.563038
0.019800	-0.568880
0.019900	-0.562064
0.020000	-0.607181
0.020100	-0.719162
0.020200	-0.788947
0.020300	-0.793491
0.020400	-0.720460
0.020500	-0.682159
0.020600	-0.726627
0.020700	-0.847696
0.020800	-0.953185
0.020900	-0.968765
0.021000	-0.919104
0.021100	-0.870741
0.021200	-0.886646
0.021300	-0.964221
0.021400	-1.029137
0.021500	-1.055429
0.021600	-1.060947
0.021700	-1.055429
0.021800	-1.082694
0.021900	-1.117424
0.022000	-1.158970
0.022100	-1.171629
0.022200	-1.175849
0.022300	-1.193701
0.022400	-1.201815
0.022500	-1.194025
0.022600	-1.177796
0.022700	-1.157997
0.022800	-1.161892
0.022900	-1.212202
0.023000	-1.244660
0.023100	-1.245309
0.023200	-1.212526
0.023300	-1.200517
0.023400	-1.200841
0.023500	-1.195324
0.023600	-1.191429
0.023700	-1.182016
0.023800	-1.170655
0.023900	-1.160593
0.024000	-1.152479
0.024100	-1.151830
0.024200	-1.150207
0.024300	-1.144689
0.024400	-1.147610
0.024500	-1.143066
0.024600	-1.146636
0.024700	-1.145338
0.024800	-1.156374
0.024900	-1.177796
0.025000	-1.199219
0.025100	-1.241090
0.025200	-1.343333
0.025300	-1.508221
0.025400	-1.574436
0.025500	-1.528670
0.025600	-1.417013
0.025700	-1.391371
0.025800	-1.482254
0.025900	-1.659152
0.026000	-1.776651
0.026100	-1.788660
0.026200	-1.725691
0.026300	-1.681223
0.026400	-1.725691
0.026500	-1.823715
0.026600	-1.909081
0.026700	-1.958093
0.026800	-1.958742
0.026900	-1.953224
0.027000	-1.962312
0.027100	-1.985033
0.027200	-1.998665
0.027300	-2.013596
0.027400	-2.021062
0.027500	-2.038914
0.027600	-2.075916
0.027700	-2.078513
0.027800	-2.080785
0.027900	-2.082408
0.028000	-2.099935
0.028100	-2.129472
0.028200	-2.152518
0.028300	-2.130122
0.028400	-2.046055
0.028500	-2.012947
0.028600	-2.057740
0.028700	-2.150895
0.028800	-2.256060
0.028900	-2.261902
0.029000	-2.182379
0.029100	-2.103506
0.029200	-2.105129
0.029300	-2.195038
0.029400	-2.309291
0.029500	-2.369339
0.029600	-2.350189
0.029700	-2.309941
0.029800	-2.285272
0.029900	-2.296957
0.030000	-2.306695
0.030100	-2.307669
0.030200	-2.290790
0.030300	-2.258656
0.030400	-2.215811
0.030500	-2.150895
0.030600	-2.065854
0.030700	-1.969453
0.030800	-1.893825
0.030900	-1.845462
0.031000	-1.804565
0.031100	-1.749386
0.031200	-1.656231
0.031300	-1.569892
0.031400	-1.499457
0.031500	-1.397538
0.031600	-1.323858
0.031700	-1.257643
0.031800	-1.174875
0.031900	-1.091457
0.032000	-1.002522
0.032100	-0.914560
0.032200	-0.843152
0.032300	-0.790570
0.032400	-0.753892
0.032500	-0.722732
0.032600	-0.707152
0.032700	-0.689300
0.032800	-0.670799
0.032900	-0.650675
0.033000	-0.635744
0.033100	-0.628928
0.033200	-0.628603
0.033300	-0.643534
0.033400	-0.624708
0.033500	-0.548107
0.033600	-0.391334
0.033700	-0.278380
0.033800	-0.312785
0.033900	-0.446188
0.034000	-0.529606
0.034100	-0.469558
0.034200	-0.335181
0.034300	-0.223850
0.034400	-0.207296
0.034500	-0.265721
0.034600	-0.323496
0.034700	-0.318628
0.034800	-0.243000
0.034900	-0.178408
0.035000	-0.136862
0.035100	-0.141081
0.035200	-0.134265
0.035300	-0.144652
0.035400	-0.144327
0.035500	-0.152117
0.035600	-0.155038
0.035700	-0.158609
0.035800	-0.160881
0.035900	-0.166723
0.036000	-0.216060
0.036100	-0.278704
0.036200	-0.348814
0.036300	-0.396203
0.036400	-0.420546
0.036500	-0.423792
0.036600	-0.451382
0.036700	-0.541291
0.036800	-0.668202
0.036900	-0.722083
0.037000	-0.702283
0.037100	-0.626656
0.037200	-0.624384
0.037300	-0.715267
0.037400	-0.841529
0.037500	-0.911314
0.037600	-0.894761
0.037700	-0.840880
0.037800	-0.823028
0.037900	-0.878207
0.038000	-0.972660
0.038100	-1.027515
0.038200	-1.054455
0.038300	-1.062569
0.038400	-1.087562
0.038500	-1.139495
0.038600	-1.212526
0.038700	-1.269328
0.038800	-1.294970
0.038900	-1.329051
0.039000	-1.369624
0.039100	-1.400135
0.039200	-1.393643
0.039300	-1.385204
0.039400	-1.386827
0.039500	-1.415066
0.039600	-1.475114
0.039700	-1.494588
0.039800	-1.482579
0.039900	-1.429023
0.040000	-1.411495
0.040100	-1.404355
0.040200	-1.384555
0.040300	-1.369300
0.040400	-1.348526
0.040500	-1.330350
0.040600	-1.311199
0.040700	-1.288803
0.040800	-1.277443
0.040900	-1.271925
0.041000	-1.266732
0.041100	-1.270302
0.041200	-1.268355
0.041300	-1.266732
0.041400	-1.266407
0.041500	-1.270302
0.041600	-1.286531
0.041700	-1.299514
0.041800	-1.348526
0.041900	-1.471219
0.042000	-1.607219
0.042100	-1.629615
0.042200	-1.543925
0.042300	-1.433567
0.042400	-1.447199
0.042500	-1.571839
0.042600	-1.736078
0.042700	-1.804240
0.042800	-1.758799
0.042900	-1.691286
0.043000	-1.677653
0.043100	-1.752307
0.043200	-1.860718
0.043300	-1.928880
0.043400	-1.941863
0.043500	-1.925310
0.043600	-1.935047
0.043700	-1.972374
0.043800	-2.020412
0.043900	-2.051248
0.044000	-2.063582
0.044100	-2.074293
0.044200	-2.111945
0.044300	-2.172967
0.044400	-2.213864
0.044500	-2.229769
0.044600	-2.236909
0.044700	-2.259955
0.044800	-2.300203
0.044900	-2.335583
0.045000	-2.296633
0.045100	-2.226198
0.045200	-2.218084
0.045300	-2.290466
0.045400	-2.401149
0.045500	-2.465416
0.045600	-2.423869
0.045700	-2.323249
0.045800	-2.270666
0.045900	-2.312213
0.046000	-2.431010
0.046100	-2.535526
0.046200	-2.548185
0.046300	-2.488462
0.046400	-2.423545
0.046500	-2.408614
0.046600	-2.418027
0.046700	-2.426791
0.046800	-2.412834
0.046900	-2.377779
0.047000	-2.332661
0.047100	-2.291439
0.047200	-2.240804
0.047300	-2.167449
0.047400	-2.084031
0.047500	-2.005157
0.047600	-1.944135
0.047700	-1.896422
0.047800	-1.818197
0.047900	-1.697453
0.048000	-1.568918
0.048100	-1.446875
0.048200	-1.368651
0.048300	-1.298541
0.048400	-1.232326
0.048500	-1.154426
0.048600	-1.065166
0.048700	-0.967142
0.048800	-0.885672
0.048900	-0.822054
0.049000	-0.780508
0.049100	-0.734742
0.049200	-0.705529
0.049300	-0.675668
0.049400	-0.645157
0.049500	-0.629577
0.049600	-0.610427
0.049700	-0.605558
0.049800	-0.612050
0.049900	-0.629577
0.050000	-0.652298
0.050100	-0.641262
0.050200	-0.566284
0.050300	-0.437425
0.050400	-0.386141
0.050500	-0.464040
0.050600	-0.628928
0.050700	-0.673720
0.050800	-0.596794
0.050900	-0.458847
0.051000	-0.370885
0.051100	-0.406265
0.051200	-0.492279
0.051300	-0.552002
0.051400	-0.510131
0.051500	-0.420871
0.051600	-0.339076
0.051700	-0.294609
0.051800	-0.316031
0.051900	-0.322847
0.052000	-0.324146
0.052100	-0.298504
0.052200	-0.274160
0.052300	-0.263773
0.052400	-0.267668
0.052500	-0.272862
0.052600	-0.291038
0.052700	-0.332909
0.052800	-0.373807
0.052900	-0.419573
0.053000	-0.464365
0.053100	-0.468584
0.053200	-0.475725
0.053300	-0.497148
0.053400	-0.614646
0.053500	-0.715591
0.053600	-0.751620
0.053700	-0.700660
0.053800	-0.639639
0.053900	-0.650675
0.054000	-0.757462
0.054100	-0.886321
0.054200	-0.941825
0.054300	-0.899629
0.054400	-0.818484
0.054500	-0.794789
0.054600	-0.849644
0.054700	-0.934684
0.054800	-0.967142
0.054900	-0.969090
0.055000	-0.945395
0.055100	-0.950264
0.055200	-0.989214
0.055300	-1.040498
0.055400	-1.083343
0.055500	-1.105739
0.055600	-1.126188
0.055700	-1.150531
0.055800	-1.162865
0.055900	-1.163190
0.056000	-1.155075
0.056100	-1.169032
0.056200	-1.229729
0.056300	-1.289452
0.056400	-1.313472
0.056500	-1.278417
0.056600	-1.260889
0.056700	-1.282636
0.056800	-1.295619
0.056900	-1.304383
0.057000	-1.308927
0.057100	-1.308603
0.057200	-1.304708
0.057300	-1.299514
0.057400	-1.295944
0.057500	-1.286531
0.057600	-1.281662
0.057700	-1.267381
0.057800	-1.261538
0.057900	-1.248555
0.058000	-1.237195
0.058100	-1.213500
0.058200	-1.213825
0.058300	-1.211228
0.058400	-1.222913
0.058500	-1.287180
0.058600	-1.429023
0.058700	-1.531915
0.058800	-1.506598
0.058900	-1.392994
0.059000	-1.304059
0.059100	-1.342684
0.059200	-1.491343
0.059300	-1.624746
0.059400	-1.658178
0.059500	-1.589691
0.059600	-1.528020
0.059700	-1.531591
0.059800	-1.622474
0.059900	-1.715954
0.060000	-1.780221
0.060100	-1.785090
0.060200	-1.775028
0.060300	-1.784441
0.060400	-1.799372
0.060500	-1.837348
0.060600	-1.863314
0.060700	-1.869481
0.060800	-1.887983
0.060900	-1.924336
0.061000	-1.971076
0.061100	-1.988603
0.061200	-1.997043
0.061300	-2.009701
0.061400	-2.043133
0.061500	-2.076890
0.061600	-2.080136
0.061700	-2.008403
0.061800	-1.937644
0.061900	-1.959391
0.062000	-2.046704
0.062100	-2.159334
0.062200	-2.192117
0.062300	-2.133367
0.062400	-2.041510
0.062500	-2.000938
0.062600	-2.069749
0.062700	-2.190819
0.062800	-2.271964
0.062900	-2.258656
0.063000	-2.195038
0.063100	-2.138885
0.063200	-2.129148
0.063300	-2.150570
0.063400	-2.172967
0.063500	-2.180107
0.063600	-2.161931
0.063700	-2.133043
0.063800	-2.093444
0.063900	-2.033396
0.064000	-1.965233
0.064100	-1.895123
0.064200	-1.855524
0.064300	-1.824364
0.064400	-1.791906
0.064500	-1.724718
0.064600	-1.635782
0.064700	-1.554312
0.064800	-1.454340
0.064900	-1.388125
0.065000	-1.329051
0.065100	-1.262837
0.065200	-1.184937
0.065300	-1.103142
0.065400	-1.019725
0.065500	-0.951887
0.065600	-0.898331
0.065700	-0.878856
0.065800	-0.856460
0.065900	-0.842503
0.066000	-0.824975
0.066100	-0.810045
0.066200	-0.780832
0.066300	-0.763305
0.066400	-0.762006
0.066500	-0.778885
0.066600	-0.794140
0.066700	-0.808746
0.066800	-0.766226
0.066900	-0.659763
0.067000	-0.535124
0.067100	-0.527658
0.067200	-0.662684
0.067300	-0.792193
0.067400	-0.785052
0.067500	-0.683458
0.067600	-0.552327
0.067700	-0.518570
0.067800	-0.579916
0.067900	-0.665606
0.068000	-0.696116
0.068100	-0.658140
0.068200	-0.579267
0.068300	-0.537071
0.068400	-0.529930
0.068500	-0.547782
0.068600	-0.559467
0.068700	-0.562713
0.068800	-0.555248
0.068900	-0.532527
0.069000	-0.517596
0.069100	-0.500393
0.069200	-0.480269
0.069300	-0.498771
0.069400	-0.530580
0.069500	-0.574398
0.069600	-0.614322
0.069700	-0.623735
0.069800	-0.601014
0.069900	-0.590303
0.070000	-0.619515
0.070100	-0.730847
0.070200	-0.779209
0.070300	-0.766875
0.070400	-0.678264
0.070500	-0.632174
0.070600	-0.677940
0.070700	-0.790894
0.070800	-0.886971
0.070900	-0.897033
0.071000	-0.826598
0.071100	-0.758111
0.071200	-0.770446
0.071300	-0.830493
0.071400	-0.887620
0.071500	-0.899629
0.071600	-0.895410
0.071700	-0.887944
0.071800	-0.903849
0.071900	-0.926245
0.072000	-0.949939
0.072100	-0.952861
0.072200	-0.959352
0.072300	-0.980126
0.072400	-0.986942
0.072500	-0.975581
0.072600	-0.951238
0.072700	-0.929815
0.072800	-0.934035
0.072900	-0.983047
0.073000	-1.025567
0.073100	-1.034655
0.073200	-1.038875
0.073300	-1.012584
0.073400	-1.017453
0.073500	-1.016154
0.073600	-1.012908
0.073700	-1.012259
0.073800	-1.012908
0.073900	-1.013558
0.074000	-1.016803
0.074100	-1.030760
0.074200	-1.046990
0.074300	-1.066464
0.074400	-1.076202
0.074500	-1.091782
0.074600	-1.109634
0.074700	-1.135276
0.074800	-1.153452
0.074900	-1.171629
0.075000	-1.205061
0.075100	-1.242388
0.075200	-1.355992
0.075300	-1.519257
0.075400	-1.599429
0.075500	-1.545873
0.075600	-1.428698
0.075700	-1.386827
0.075800	-1.489395
0.075900	-1.658178
0.076000	-1.768212
0.076100	-1.754579
0.076200	-1.663696
0.076300	-1.605596
0.076400	-1.637405
0.076500	-1.724068
0.076600	-1.808460
0.076700	-1.823715
0.076800	-1.806837
0.076900	-1.778598
0.077000	-1.775028
0.077100	-1.796775
0.077200	-1.812355
0.077300	-1.825014
0.077400	-1.819496
0.077500	-1.833453
0.077600	-1.860069
0.077700	-1.892527
0.077800	-1.906808
0.077900	-1.917195
0.078000	-1.941863
0.078100	-1.976918
0.078200	-2.017167
0.078300	-2.010026
0.078400	-1.937319
0.078500	-1.910054
0.078600	-1.955496
0.078700	-2.075592
0.078800	-2.193091
0.078900	-2.200556
0.079000	-2.128823
0.079100	-2.051897
0.079200	-2.052222
0.079300	-2.154141
0.079400	-2.287869
0.079500	-2.361549
0.079600	-2.341750
0.079700	-2.285272
0.079800	-2.254112
0.079900	-2.271964
0.080000	-2.302475
0.080100	-2.317406
0.080200	-2.312537
0.080300	-2.285597
0.080400	-2.236909
0.080500	-2.188222
0.080600	-2.130122
0.080700	-2.047353
0.080800	-1.968804
0.080900	-1.908107
0.081000	-1.864288
0.081100	-1.811381
0.081200	-1.715954
0.081300	-1.626694
0.081400	-1.502703
0.081500	-1.422531
0.081600	-1.356966
0.081700	-1.289452
0.081800	-1.225185
0.081900	-1.155725
0.082000	-1.069710
0.082100	-0.982398
0.082200	-0.905147
0.082300	-0.857109
0.082400	-0.813615
0.082500	-0.776613
0.082600	-0.739610
0.082700	-0.699038
0.082800	-0.644508
0.082900	-0.603611
0.083000	-0.561739
0.083100	-0.525711
0.083200	-0.512403
0.083300	-0.490331
0.083400	-0.468909
0.083500	-0.367640
0.083600	-0.222876
0.083700	-0.079086
0.083800	-0.118036
0.083900	-0.249492
0.084000	-0.324795
0.084100	-0.284222
0.084200	-0.136862
0.084300	-0.040137
0.084400	-0.026829
0.084500	-0.106676
0.084600	-0.191716
0.084700	-0.201454
0.084800	-0.148547
0.084900	-0.079736
0.085000	-0.044681
0.085100	-0.056690
0.085200	-0.079736
0.085300	-0.103105
0.085400	-0.104079
0.085500	-0.097263
0.085600	-0.096289
0.085700	-0.100509
0.085800	-0.123229
0.085900	-0.149845
0.086000	-0.196260
0.086100	-0.264747
0.086200	-0.321549
0.086300	-0.386790
0.086400	-0.406914
0.086500	-0.431907
0.086600	-0.452031
0.086700	-0.559143
0.086800	-0.688976
0.086900	-0.755839
0.087000	-0.757462
0.087100	-0.695792
0.087200	-0.699038
0.087300	-0.772718
0.087400	-0.912288
0.087500	-1.001873
0.087600	-1.001873
0.087700	-0.937281
0.087800	-0.900928
0.087900	-0.929491
0.088000	-0.994407
0.088100	-1.020374
0.088200	-1.026216
0.088300	-1.007715
0.088400	-0.994732
0.088500	-0.995381
0.088600	-1.004145
0.088700	-1.000574
0.088800	-0.992135
0.088900	-0.982398
0.089000	-0.991486
0.089100	-0.981424
0.089200	-0.961949
0.089300	-0.930140
0.089400	-0.899629
0.089500	-0.923324
0.089600	-0.963572
0.089700	-0.977854
0.089800	-0.973309
0.089900	-0.955782
0.090000	-0.939877
0.090100	-0.937281
0.090200	-0.927219
0.090300	-0.931438
0.090400	-0.930140
0.090500	-0.926570
0.090600	-0.930465
0.090700	-0.931438
0.090800	-0.936307
0.090900	-0.935333
0.091000	-0.942799
0.091100	-0.952536
0.091200	-0.972336
0.091300	-0.992135
0.091400	-1.026541
0.091500	-1.047963
0.091600	-1.094054
0.091700	-1.136899
0.091800	-1.213825
0.091900	-1.373195
0.092000	-1.544250
0.092100	-1.604622
0.092200	-1.543600
0.092300	-1.471219
0.092400	-1.490369
0.092500	-1.651686
0.092600	-1.833453
0.092700	-1.931477
0.092800	-1.908756
0.092900	-1.851305
0.093000	-1.831830
0.093100	-1.891878
0.093200	-2.002560
0.093300	-2.077215
0.093400	-2.096365
0.093500	-2.073644
0.093600	-2.067152
0.093700	-2.068775
0.093800	-2.081110
0.093900	-2.082083
0.094000	-2.068126
0.094100	-2.058713
0.094200	-2.076241
0.094300	-2.104479
0.094400	-2.107076
0.094500	-2.094417
0.094600	-2.085329
0.094700	-2.103830
0.094800	-2.143105
0.094900	-2.161606
0.095000	-2.107725
0.095100	-2.027553
0.095200	-2.013272
0.095300	-2.080785
0.095400	-2.200232
0.095500	-2.273912
0.095600	-2.246971
0.095700	-2.145702
0.095800	-2.082732
0.095900	-2.104155
0.096000	-2.199582
0.096100	-2.283325
0.096200	-2.285272
0.096300	-2.230742
0.096400	-2.175239
0.096500	-2.150895
0.096600	-2.153816
0.096700	-2.153816
0.096800	-2.143754
0.096900	-2.129148
0.097000	-2.100909
0.097100	-2.061959
0.097200	-2.016842
0.097300	-1.933749
0.097400	-1.848059
0.097500	-1.786064
0.097600	-1.738350
0.097700	-1.702970
0.097800	-1.640001
0.097900	-1.542951
0.098000	-1.453691
0.098100	-1.340412
0.098200	-1.268679
0.098300	-1.208631
0.098400	-1.143066
0.098500	-1.074904
0.098600	-0.997004
0.098700	-0.919429
0.098800	-0.849319
0.098900	-0.786350
0.099000	-0.749997
0.099100	-0.697415
0.099200	-0.666904
0.099300	-0.634770
0.099400	-0.615295
0.099500	-0.578618
0.099600	-0.553300
0.099700	-0.515000
0.099800	-0.505262
0.099900	-0.507210
0.100000	-0.508508
0.100100	-0.498121
0.100200	-0.400747
0.100300	-0.259878
0.100400	-0.177435
0.100500	-0.261826
0.100600	-0.412756
0.100700	-0.463716
0.100800	-0.391659
0.100900	-0.256633
0.101000	-0.191392
0.101100	-0.216384
0.101200	-0.306943
0.101300	-0.355630
0.101400	-0.328690
0.101500	-0.246571
0.101600	-0.165750
0.101700	-0.136213
0.101800	-0.131669
0.101900	-0.149196
0.102000	-0.145950
0.102100	-0.141731
0.102200	-0.133616
0.102300	-0.130370
0.102400	-0.138485
0.102500	-0.142380
0.102600	-0.154389
0.102700	-0.163153
0.102800	-0.212165
0.102900	-0.251115
0.103000	-0.296232
0.103100	-0.280652
0.103200	-0.274809
0.103300	-0.280652
0.103400	-0.383869
0.103500	-0.476699
0.103600	-0.492279
0.103700	-0.437425
0.103800	-0.359200
0.103900	-0.377702
0.104000	-0.472804
0.104100	-0.606532
0.104200	-0.661711
0.104300	-0.628603
0.104400	-0.556871
0.104500	-0.555572
0.104600	-0.634446
0.104700	-0.725004
0.104800	-0.752594
0.104900	-0.765901
0.105000	-0.765577
0.105100	-0.797061
0.105200	-0.856460
0.105300	-0.914885
0.105400	-0.962923
0.105500	-0.980126
0.105600	-1.004469
0.105700	-1.031085
0.105800	-1.040822
0.105900	-1.037252
0.106000	-1.017128
0.106100	-1.009987
0.106200	-1.046016
0.106300	-1.095028
0.106400	-1.123591
0.106500	-1.108336
0.106600	-1.084316
0.106700	-1.087562
0.106800	-1.098273
0.106900	-1.091133
0.107000	-1.088861
0.107100	-1.077825
0.107200	-1.072956
0.107300	-1.071333
0.107400	-1.066789
0.107500	-1.063543
0.107600	-1.065815
0.107700	-1.077825
0.107800	-1.087887
0.107900	-1.095028
0.108000	-1.109634
0.108100	-1.121319
0.108200	-1.150531
0.108300	-1.170006
0.108400	-1.208631
0.108500	-1.289777
0.108600	-1.454989
0.108700	-1.575734
0.108800	-1.572164
0.108900	-1.462455
0.109000	-1.382608
0.109100	-1.421233
0.109200	-1.575085
0.109300	-1.704918
0.109400	-1.737376
0.109500	-1.671486
0.109600	-1.597806
0.109700	-1.596507
0.109800	-1.664994
0.109900	-1.763667
0.110000	-1.816574
0.110100	-1.821119
0.110200	-1.799047
0.110300	-1.804565
0.110400	-1.829882
0.110500	-1.860393
0.110600	-1.878894
0.110700	-1.886035
0.110800	-1.881816
0.110900	-1.905186
0.111000	-1.938942
0.111100	-1.969128
0.111200	-1.972050
0.111300	-1.992498
0.111400	-2.025281
0.111500	-2.069100
0.111600	-2.086952
0.111700	-2.037291
0.111800	-1.979190
0.111900	-2.011649
0.112000	-2.116814
0.112100	-2.258007
0.112200	-2.331688
0.112300	-2.301826
0.112400	-2.227821
0.112500	-2.215811
0.112600	-2.304423
0.112700	-2.454056
0.112800	-2.563765
0.112900	-2.573502
0.113000	-2.529034
0.113100	-2.491058
0.113200	-2.495927
0.113300	-2.523517
0.113400	-2.541693
0.113500	-2.540070
0.113600	-2.514428
0.113700	-2.468986
0.113800	-2.424519
0.113900	-2.379401
0.114000	-2.307344
0.114100	-2.234313
0.114200	-2.180107
0.114300	-2.123630
0.114400	-2.069749
0.114500	-1.979190
0.114600	-1.860069
0.114700	-1.785090
0.114800	-1.689013
0.114900	-1.621825
0.115000	-1.564698
0.115100	-1.498808
0.115200	-1.426102
0.115300	-1.336841
0.115400	-1.244011
0.115500	-1.162216
0.115600	-1.097300
0.115700	-1.058999
0.115800	-1.019400
0.115900	-0.990188
0.116000	-0.963896
0.116100	-0.926894
0.116200	-0.901901
0.116300	-0.872040
0.116400	-0.873014
0.116500	-0.875286
0.116600	-0.888593
0.116700	-0.890216
0.116800	-0.851591
0.116900	-0.735715
0.117000	-0.589978
0.117100	-0.561739
0.117200	-0.675343
0.117300	-0.781157
0.117400	-0.763954
0.117500	-0.629902
0.117600	-0.485787
0.117700	-0.412432
0.117800	-0.454303
0.117900	-0.516947
0.118000	-0.541940
0.118100	-0.472155
0.118200	-0.370885
0.118300	-0.285845
0.118400	-0.255010
0.118500	-0.256308
0.118600	-0.255334
0.118700	-0.246895
0.118800	-0.218657
0.118900	-0.192365
0.119000	-0.180031
0.119100	-0.179382
0.119200	-0.174838
0.119300	-0.196260
0.119400	-0.242026
0.119500	-0.274160
0.119600	-0.320575
0.119700	-0.339725
0.119800	-0.336804
0.119900	-0.342971
0.120000	-0.389711
0.120100	-0.515000
0.120200	-0.577644
0.120300	-0.579267
0.120400	-0.512403
0.120500	-0.454627
0.120600	-0.508833
0.120700	-0.606532
0.120800	-0.708775
0.120900	-0.723381
0.121000	-0.656517
0.121100	-0.586408
0.121200	-0.586408
0.121300	-0.650026
0.121400	-0.699038
0.121500	-0.713319
0.121600	-0.702933
0.121700	-0.688002
0.121800	-0.704231
0.121900	-0.737663
0.122000	-0.774016
0.122100	-0.789596
0.122200	-0.802904
0.122300	-0.820107
0.122400	-0.844775
0.122500	-0.851591
0.122600	-0.859381
0.122700	-0.866846
0.122800	-0.894761
0.122900	-0.975257
0.123000	-1.034331
0.123100	-1.069061
0.123200	-1.067114
0.123300	-1.068087
0.123400	-1.085939
0.123500	-1.100546
0.123600	-1.100546
0.123700	-1.099572
0.123800	-1.091457
0.123900	-1.078149
0.124000	-1.066140
0.124100	-1.061271
0.124200	-1.049911
0.124300	-1.037252
0.124400	-1.036603
0.124500	-1.030111
0.124600	-1.036603
0.124700	-1.037252
0.124800	-1.039849
0.124900	-1.057701
0.125000	-1.068087
0.125100	-1.102493
0.125200	-1.206684
0.125300	-1.357939
0.125400	-1.436488
0.125500	-1.390722
0.125600	-1.280040
0.125700	-1.232001
0.125800	-1.322884
0.125900	-1.477386
0.126000	-1.586770
0.126100	-1.585472
0.126200	-1.511142
0.126300	-1.469596
0.126400	-1.495887
0.126500	-1.587744
0.126600	-1.663047
0.126700	-1.701023
0.126800	-1.685443
0.126900	-1.681873
0.127000	-1.696803
0.127100	-1.736403
0.127200	-1.764317
0.127300	-1.793854
0.127400	-1.810732
0.127500	-1.850331
0.127600	-1.894799
0.127700	-1.930178
0.127800	-1.942188
0.127900	-1.938618
0.128000	-1.966532
0.128100	-2.003534
0.128200	-2.033071
0.128300	-2.024307
0.128400	-1.947381
0.128500	-1.908756
0.128600	-1.957119
0.128700	-2.067802
0.128800	-2.170694
0.128900	-2.174265
0.129000	-2.097339
0.129100	-2.018465
0.129200	-2.020737
0.129300	-2.119735
0.129400	-2.243401
0.129500	-2.300852
0.129600	-2.271964
0.129700	-2.217110
0.129800	-2.181406
0.129900	-2.187897
0.130000	-2.219382
0.130100	-2.233988
0.130200	-2.222628
0.130300	-2.195687
0.130400	-2.154141
0.130500	-2.113568
0.130600	-2.038589
0.130700	-1.951601
0.130800	-1.882465
0.130900	-1.836374
0.131000	-1.807811
0.131100	-1.770808
0.131200	-1.690961
0.131300	-1.604947
0.131400	-1.528670
0.131500	-1.445901
0.131600	-1.382932
0.131700	-1.317367
0.131800	-1.242063
0.131900	-1.165462
0.132000	-1.085939
0.132100	-0.994732
0.132200	-0.924622
0.132300	-0.875286
0.132400	-0.836011
0.132500	-0.801930
0.132600	-0.776288
0.132700	-0.764603
0.132800	-0.742856
0.132900	-0.717863
0.133000	-0.693520
0.133100	-0.688976
0.133200	-0.691897
0.133300	-0.703906
0.133400	-0.713644
0.133500	-0.647754
0.133600	-0.502666
0.133700	-0.386141
0.133800	-0.409835
0.133900	-0.546484
0.134000	-0.649377
0.134100	-0.604909
0.134200	-0.472479
0.134300	-0.369912
0.134400	-0.346866
0.134500	-0.432880
0.134600	-0.506236
0.134700	-0.517921
0.134800	-0.449759
0.134900	-0.363420
0.135000	-0.312136
0.135100	-0.309215
0.135200	-0.322523
0.135300	-0.327067
0.135400	-0.316680
0.135500	-0.302399
0.135600	-0.289415
0.135700	-0.286170
0.135800	-0.291687
0.135900	-0.286494
0.136000	-0.324795
0.136100	-0.378026
0.136200	-0.427038
0.136300	-0.486112
0.136400	-0.496498
0.136500	-0.498771
0.136600	-0.510780
0.136700	-0.581539
0.136800	-0.711696
0.136900	-0.760384
0.137000	-0.725004
0.137100	-0.640288
0.137200	-0.604584
0.137300	-0.670799
0.137400	-0.801605
0.137500	-0.875610
0.137600	-0.865548
0.137700	-0.787973
0.137800	-0.747725
0.137900	-0.794789
0.138000	-0.892164
0.138100	-0.959352
0.138200	-0.993433
0.138300	-0.988889
0.138400	-1.004145
0.138500	-1.046340
0.138600	-1.112231
0.138700	-1.178445
0.138800	-1.208631
0.138900	-1.244985
0.139000	-1.287830
0.139100	-1.317042
0.139200	-1.331648
0.139300	-1.336192
0.139400	-1.335219
0.139500	-1.371896
0.139600	-1.442331
0.139700	-1.482254
0.139800	-1.479982
0.139900	-1.439409
0.140000	-1.433892
0.140100	-1.436488
0.140200	-1.433567
0.140300	-1.427400
0.140400	-1.420584
0.140500	-1.408899
0.140600	-1.395266
0.140700	-1.382608
0.140800	-1.373519
0.140900	-1.368651
0.141000	-1.365729
0.141100	-1.360536
0.141200	-1.364431
0.141300	-1.363782
0.141400	-1.363457
0.141500	-1.364756
0.141600	-1.387152
0.141700	-1.411171
0.141800	-1.456937
0.141900	-1.580278
0.142000	-1.732508
0.142100	-1.773730
0.142200	-1.692259
0.142300	-1.586121
0.142400	-1.576059
0.142500	-1.696803
0.142600	-1.855524
0.142700	-1.925634
0.142800	-1.892202
0.142900	-1.811057
0.143000	-1.780870
0.143100	-1.832479
0.143200	-1.932126
0.143300	-2.008727
0.143400	-2.028202
0.143500	-2.007429
0.143600	-1.996069
0.143700	-2.004508
0.143800	-2.024957
0.143900	-2.051897
0.144000	-2.064880
0.144100	-2.071047
0.144200	-2.081110
0.144300	-2.110647
0.144400	-2.138561
0.144500	-2.150246
0.144600	-2.160308
0.144700	-2.186274
0.144800	-2.223277
0.144900	-2.244699
0.145000	-2.219706
0.145100	-2.137912
0.145200	-2.130122
0.145300	-2.208022
0.145400	-2.335583
0.145500	-2.423545
0.145600	-2.406342
0.145700	-2.322275
0.145800	-2.255735
0.145900	-2.294361
0.146000	-2.413483
0.146100	-2.538772
0.146200	-2.585512
0.146300	-2.551431
0.146400	-2.505340
0.146500	-2.490409
0.146600	-2.505015
0.146700	-2.537149
0.146800	-2.543316
0.146900	-2.549808
0.147000	-2.524166
0.147100	-2.491383
0.147200	-2.442046
0.147300	-2.372910
0.147400	-2.294685
0.147500	-2.232365
0.147600	-2.198609
0.147700	-2.171993
0.147800	-2.120059
0.147900	-2.019763
0.148000	-1.928880
0.148100	-1.823066
0.148200	-1.731534
0.148300	-1.650713
0.148400	-1.559180
0.148500	-1.458560
0.148600	-1.352746
0.148700	-1.240441
0.148800	-1.124240
0.148900	-1.040173
0.149000	-0.973634
0.149100	-0.922025
0.149200	-0.871391
0.149300	-0.819133
0.149400	-0.767849
0.149500	-0.702608
0.149600	-0.651649
0.149700	-0.605883
0.149800	-0.568880
0.149900	-0.564012
0.150000	-0.533501
0.150100	-0.510131
0.150200	-0.388737
0.150300	-0.254685
0.150400	-0.154389
0.150500	-0.252413
0.150600	-0.399449
0.150700	-0.474427
0.150800	-0.390360
0.150900	-0.266370
0.151000	-0.188146
0.151100	-0.215411
0.151200	-0.309864
0.151300	-0.382246
0.151400	-0.373157
0.151500	-0.301749
0.151600	-0.217683
0.151700	-0.185549
0.151800	-0.185549
0.151900	-0.202752
0.152000	-0.211516
0.152100	-0.213139
0.152200	-0.199182
0.152300	-0.178733
0.152400	-0.168671
0.152500	-0.161206
0.152600	-0.166723
0.152700	-0.203077
0.152800	-0.241377
0.152900	-0.276432
0.153000	-0.303697
0.153100	-0.287792
0.153200	-0.284547
0.153300	-0.294933
0.153400	-0.388737
0.153500	-0.477024
0.153600	-0.497148
0.153700	-0.443592
0.153800	-0.353683
0.153900	-0.358551
0.154000	-0.440670
0.154100	-0.555572
0.154200	-0.602961
0.154300	-0.562064
0.154400	-0.489682
0.154500	-0.462742
0.154600	-0.522140
0.154700	-0.596470
0.154800	-0.639639
0.154900	-0.665606
0.155000	-0.659763
0.155100	-0.680861
0.155200	-0.712345
0.155300	-0.749672
0.155400	-0.787648
0.155500	-0.807773
0.155600	-0.837959
0.155700	-0.859706
0.155800	-0.868794
0.155900	-0.858083
0.156000	-0.844775
0.156100	-0.847047
0.156200	-0.901901
0.156300	-0.968765
0.156400	-0.998951
0.156500	-0.985643
0.156600	-0.961300
0.156700	-0.973959
0.156800	-0.986293
0.156900	-0.997328
0.157000	-1.007390
0.157100	-1.010636
0.157200	-1.009338
0.157300	-1.007066
0.157400	-1.009338
0.157500	-1.005443
0.157600	-0.998627
0.157700	-0.992460
0.157800	-0.991486
0.157900	-0.989538
0.158000	-0.994407
0.158100	-0.996679
0.158200	-1.008689
0.158300	-1.035305
0.158400	-1.059648
0.158500	-1.138522
0.158600	-1.301137
0.158700	-1.444603
0.158800	-1.456288
0.158900	-1.364756
0.159000	-1.296918
0.159100	-1.340412
0.159200	-1.512441
0.159300	-1.677328
0.159400	-1.742894
0.159500	-1.702646
0.159600	-1.649090
0.159700	-1.657854
0.159800	-1.733806
0.159900	-1.842866
0.160000	-1.910703
0.160100	-1.927582
0.160200	-1.918169
0.160300	-1.919792
0.160400	-1.932451
0.160500	-1.950952
0.160600	-1.957119
0.160700	-1.960689
0.160800	-1.967181
0.160900	-1.982761
0.161000	-1.998990
0.161100	-2.000288
0.161200	-1.979515
0.161300	-1.969128
0.161400	-1.979515
0.161500	-2.002885
0.161600	-1.987305
0.161700	-1.904536
0.161800	-1.815276
0.161900	-1.809434
0.162000	-1.876298
0.162100	-1.982761
0.162200	-2.021711
0.162300	-1.960040
0.162400	-1.845462
0.162500	-1.789309
0.162600	-1.837348
0.162700	-1.945109
0.162800	-2.023334
0.162900	-2.017491
0.163000	-1.956794
0.163100	-1.900641
0.163200	-1.877921
0.163300	-1.884412
0.163400	-1.890255
0.163500	-1.879868
0.163600	-1.862665
0.163700	-1.825014
0.163800	-1.789309
0.163900	-1.747114
0.164000	-1.678951
0.164100	-1.595534
0.164200	-1.535810
0.164300	-1.487772
0.164400	-1.445252
0.164500	-1.373844
0.164600	-1.270627
0.164700	-1.151830
0.164800	-1.033682
0.164900	-0.953510
0.165000	-0.876584
0.165100	-0.800307
0.165200	-0.719811
0.165300	-0.624708
0.165400	-0.521167
0.165500	-0.442942
0.165600	-0.376403
0.165700	-0.343296
0.165800	-0.307916
0.165900	-0.289740
0.166000	-0.284547
0.166100	-0.271239
0.166200	-0.267019
0.166300	-0.263449
0.166400	-0.274160
0.166500	-0.289415
0.166600	-0.303697
0.166700	-0.334532
0.166800	-0.280652
0.166900	-0.206647
0.167000	-0.028127
0.167100	-0.023583
0.167200	-0.129072
0.167300	-0.270914
0.167400	-0.283573
0.167500	-0.161530
0.167600	-0.032996
0.167700	0.037763
0.167800	-0.006380
0.167900	-0.080060
0.168000	-0.100833
0.168100	-0.053120
0.168200	0.045878
0.168300	0.118584
0.168400	0.155911
0.168500	0.151042
0.168600	0.154937
0.168700	0.158183
0.168800	0.182851
0.168900	0.196808
0.169000	0.200378
0.169100	0.198756
0.169200	0.186421
0.169300	0.160779
0.169400	0.103978
0.169500	0.042632
0.169600	-0.029750
0.169700	-0.084280
0.169800	-0.112843
0.169900	-0.146599
0.170000	-0.210217
0.170100	-0.372833
0.170200	-0.493577
0.170300	-0.538370
0.170400	-0.500393
0.170500	-0.474427
0.170600	-0.535448
0.170700	-0.681835
0.170800	-0.833415
0.170900	-0.899629
0.171000	-0.875286
0.171100	-0.837309
0.171200	-0.871066
0.171300	-0.968765
0.171400	-1.073605
0.171500	-1.148584
0.171600	-1.192078
0.171700	-1.216421
0.171800	-1.272899
0.171900	-1.342359
0.172000	-1.396565
0.172100	-1.432269
0.172200	-1.457586
0.172300	-1.496211
0.172400	-1.535486
0.172500	-1.554312
0.172600	-1.557233
0.172700	-1.553013
0.172800	-1.577032
0.172900	-1.636756
0.173000	-1.689338
0.173100	-1.710436
0.173200	-1.727314
0.173300	-1.733481
0.173400	-1.750684
0.173500	-1.758799
0.173600	-1.772107
0.173700	-1.773405
0.173800	-1.778274
0.173900	-1.781520
0.174000	-1.788011
0.174100	-1.800670
0.174200	-1.808784
0.174300	-1.822742
0.174400	-1.835725
0.174500	-1.845787
0.174600	-1.858770
0.174700	-1.870131
0.174800	-1.877596
0.174900	-1.886684
0.175000	-1.915572
0.175100	-1.939916
0.175200	-2.036317
0.175300	-2.191143
0.175400	-2.287220
0.175500	-2.236585
0.175600	-2.127525
0.175700	-2.070074
0.175800	-2.158360
0.175900	-2.310914
0.176000	-2.431010
0.176100	-2.435230
0.176200	-2.361874
0.176300	-2.306370
0.176400	-2.323249
0.176500	-2.419974
0.176600	-2.511507
0.176700	-2.565063
0.176800	-2.571879
0.176900	-2.575125
0.177000	-2.593302
0.177100	-2.639717
0.177200	-2.692300
0.177300	-2.740014
0.177400	-2.774744
0.177500	-2.822134
0.177600	-2.878936
0.177700	-2.921781
0.177800	-2.950344
0.177900	-2.961705
0.178000	-2.984101
0.178100	-3.023376
0.178200	-3.053887
0.178300	-3.034412
0.178400	-2.952292
0.178500	-2.905552
0.178600	-2.929571
0.178700	-3.019481
0.178800	-3.111663
0.178900	-3.125295
0.179000	-3.049667
0.179100	-2.950669
0.179200	-2.919184
0.179300	-2.975662
0.179400	-3.067844
0.179500	-3.109066
0.179600	-3.066545
0.179700	-2.988321
0.179800	-2.936712
0.179900	-2.909771
0.180000	-2.893217
0.180100	-2.870497
0.180200	-2.839986
0.180300	-2.784157
0.180400	-2.723460
0.180500	-2.663087
0.180600	-2.592328
0.180700	-2.503717
0.180800	-2.419974
0.180900	-2.367716
0.181000	-2.339478
0.181100	-2.301177
0.181200	-2.217110
0.181300	-2.134666
0.181400	-2.034694
0.181500	-1.949978
0.181600	-1.900317
0.181700	-1.844489
0.181800	-1.784441
0.181900	-1.718550
0.182000	-1.649090
0.182100	-1.574111
0.182200	-1.510493
0.182300	-1.465051
0.182400	-1.439085
0.182500	-1.415715
0.182600	-1.401758
0.182700	-1.383581
0.182800	-1.358588
0.182900	-1.329701
0.183000	-1.315419
0.183100	-1.306006
0.183200	-1.312822
0.183300	-1.324507
0.183400	-1.319963
0.183500	-1.260565
0.183600	-1.122942
0.183700	-1.009338
0.183800	-1.034980
0.183900	-1.178445
0.184000	-1.287830
0.184100	-1.251152
0.184200	-1.135276
0.184300	-1.021997
0.184400	-1.016154
0.184500	-1.088861
0.184600	-1.173901
0.184700	-1.189157
0.184800	-1.141118
0.184900	-1.075877
0.185000	-1.031410
0.185100	-1.038875
0.185200	-1.046665
0.185300	-1.064192
0.185400	-1.069710
0.185500	-1.070359
0.185600	-1.079448
0.185700	-1.084316
0.185800	-1.070035
0.185900	-1.067438
0.186000	-1.080421
0.186100	-1.123915
0.186200	-1.160269
0.186300	-1.186884
0.186400	-1.181367
0.186500	-1.151180
0.186600	-1.142741
0.186700	-1.183963
0.186800	-1.286856
0.186900	-1.308603
0.187000	-1.276469
0.187100	-1.176498
0.187200	-1.129758
0.187300	-1.176498
0.187400	-1.283610
0.187500	-1.352421
0.187600	-1.345930
0.187700	-1.275820
0.187800	-1.232975
0.187900	-1.269328
0.188000	-1.348526
0.188100	-1.400135
0.188200	-1.420259
0.188300	-1.419285
0.188400	-1.427075
0.188500	-1.458884
0.188600	-1.504001
0.188700	-1.530293
0.188800	-1.537758
0.188900	-1.549768
0.189000	-1.575085
0.189100	-1.588068
0.189200	-1.583849
0.189300	-1.574760
0.189400	-1.569567
0.189500	-1.601376
0.189600	-1.663696
0.189700	-1.696154
0.189800	-1.691286
0.189900	-1.676355
0.190000	-1.661099
0.190100	-1.662073
0.190200	-1.648441
0.190300	-1.639028
0.190400	-1.625071
0.190500	-1.605920
0.190600	-1.595858
0.190700	-1.584173
0.190800	-1.575734
0.190900	-1.573462
0.191000	-1.573787
0.191100	-1.574436
0.191200	-1.582226
0.191300	-1.594560
0.191400	-1.604297
0.191500	-1.616632
0.191600	-1.633510
0.191700	-1.662398
0.191800	-1.707839
0.191900	-1.844164
0.192000	-1.990551
0.192100	-2.043782
0.192200	-1.976269
0.192300	-1.877596
0.192400	-1.878570
0.192500	-2.003210
0.192600	-2.172317
0.192700	-2.265148
0.192800	-2.248270
0.192900	-2.184327
0.193000	-2.159983
0.193100	-2.213864
0.193200	-2.307993
0.193300	-2.387191
0.193400	-2.403745
0.193500	-2.384270
0.193600	-2.366743
0.193700	-2.375506
0.193800	-2.393034
0.193900	-2.400499
0.194000	-2.395955
0.194100	-2.383296
0.194200	-2.391736
0.194300	-2.414781
0.194400	-2.419650
0.194500	-2.403096
0.194600	-2.394332
0.194700	-2.390762
0.194800	-2.396929
0.194900	-2.392709
0.195000	-2.336556
0.195100	-2.225874
0.195200	-2.176537
0.195300	-2.205749
0.195400	-2.288518
0.195500	-2.347268
0.195600	-2.291115
0.195700	-2.166150
0.195800	-2.063582
0.195900	-2.060661
0.196000	-2.143105
0.196100	-2.222303
0.196200	-2.219057
0.196300	-2.134990
0.196400	-2.051897
0.196500	-2.005482
0.196600	-2.005157
0.196700	-2.003859
0.196800	-1.981138
0.196900	-1.940565
0.197000	-1.885386
0.197100	-1.825338
0.197200	-1.776651
0.197300	-1.709138
0.197400	-1.631238
0.197500	-1.557557
0.197600	-1.502378
0.197700	-1.452717
0.197800	-1.393319
0.197900	-1.277767
0.198000	-1.152803
0.198100	-1.006092
0.198200	-0.902550
0.198300	-0.813940
0.198400	-0.734742
0.198500	-0.633472
0.198600	-0.534799
0.198700	-0.425090
0.198800	-0.332260
0.198900	-0.265072
0.199000	-0.220604
0.199100	-0.182303
0.199200	-0.137836
0.199300	-0.113817
0.199400	-0.083306
0.199500	-0.064156
0.199600	-0.035917
0.199700	-0.034294
0.199800	-0.017416
0.199900	-0.034943
0.200000	-0.032022
0.200100	-0.023258
0.200200	0.058536
0.200300	0.205247
0.200400	0.285743
0.200500	0.216607
0.200600	0.043281
0.200700	-0.013196
0.200800	0.043281
0.200900	0.180254
0.201000	0.259452
0.201100	0.225371
0.201200	0.140980
0.201300	0.051720
0.201400	0.067949
0.201500	0.128321
0.201600	0.186097
0.201700	0.196483
0.201800	0.149744
0.201900	0.110794
0.202000	0.070546
0.202100	0.055290
0.202200	0.034842
0.202300	0.014069
0.202400	-0.032671
0.202500	-0.074542
0.202600	-0.115764
0.202700	-0.179707
0.202800	-0.252413
0.202900	-0.326093
0.203000	-0.399124
0.203100	-0.431907
0.203200	-0.469558
0.203300	-0.512728
0.203400	-0.635420
0.203500	-0.780183
0.203600	-0.843477
0.203700	-0.845099
0.203800	-0.778236
0.203900	-0.809720
0.204000	-0.914235
0.204100	-1.076526
0.204200	-1.163839
0.204300	-1.168383
0.204400	-1.108336
0.204500	-1.107362
0.204600	-1.202140
0.204700	-1.330999
0.204800	-1.414417
0.204900	-1.471868
0.205000	-1.482904
0.205100	-1.521204
0.205200	-1.583524
0.205300	-1.667916
0.205400	-1.736727
0.205500	-1.771133
0.205600	-1.807486
0.205700	-1.846761
0.205800	-1.883439
0.205900	-1.904536
0.206000	-1.921739
0.206100	-1.937644
0.206200	-2.001587
0.206300	-2.075267
0.206400	-2.117787
0.206500	-2.128499
0.206600	-2.102857
0.206700	-2.111296
0.206800	-2.122656
0.206900	-2.130771
0.207000	-2.128174
0.207100	-2.130122
0.207200	-2.134666
0.207300	-2.135639
0.207400	-2.144079
0.207500	-2.153492
0.207600	-2.161282
0.207700	-2.174589
0.207800	-2.184652
0.207900	-2.196012
0.208000	-2.206723
0.208100	-2.208995
0.208200	-2.228146
0.208300	-2.243401
0.208400	-2.275859
0.208500	-2.339802
0.208600	-2.505340
0.208700	-2.640042
0.208800	-2.639717
0.208900	-2.548834
0.209000	-2.459574
0.209100	-2.500796
0.209200	-2.655947
0.209300	-2.807527
0.209400	-2.861084
0.209500	-2.814344
0.209600	-2.751374
0.209700	-2.742611
0.209800	-2.828301
0.209900	-2.931843
0.210000	-3.009419
0.210100	-3.030192
0.210200	-3.030841
0.210300	-3.040903
0.210400	-3.068818
0.210500	-3.111987
0.210600	-3.154508
0.210700	-3.190212
0.210800	-3.217153
0.210900	-3.251559
0.211000	-3.287587
0.211100	-3.309335
0.211200	-3.310958
0.211300	-3.322643
0.211400	-3.346013
0.211500	-3.375225
0.211600	-3.377822
0.211700	-3.307387
0.211800	-3.222995
0.211900	-3.218126
0.212000	-3.283368
0.212100	-3.381717
0.212200	-3.423913
0.212300	-3.357373
0.212400	-3.244093
0.212500	-3.185992
0.212600	-3.221697
0.212700	-3.334977
0.212800	-3.422290
0.212900	-3.419044
0.213000	-3.346662
0.213100	-3.276876
0.213200	-3.246365
0.213300	-3.246690
0.213400	-3.249286
0.213500	-3.234356
0.213600	-3.199950
0.213700	-3.145095
0.213800	-3.082450
0.213900	-3.014937
0.214000	-2.931843
0.214100	-2.836091
0.214200	-2.760138
0.214300	-2.700415
0.214400	-2.650753
0.214500	-2.565388
0.214600	-2.449511
0.214700	-2.318380
0.214800	-2.201530
0.214900	-2.119735
0.215000	-2.048327
0.215100	-1.973673
0.215200	-1.899343
0.215300	-1.813004
0.215400	-1.703620
0.215500	-1.616632
0.215600	-1.553013
0.215700	-1.521529
0.215800	-1.490044
0.215900	-1.470894
0.216000	-1.462779
0.216100	-1.439734
0.216200	-1.421233
0.216300	-1.399810
0.216400	-1.405977
0.216500	-1.409223
0.216600	-1.447199
0.216700	-1.457911
0.216800	-1.455639
0.216900	-1.353720
0.217000	-1.232001
0.217100	-1.203438
0.217200	-1.350474
0.217300	-1.483877
0.217400	-1.524125
0.217500	-1.412469
0.217600	-1.309577
0.217700	-1.235572
0.217800	-1.305032
0.217900	-1.386503
0.218000	-1.428698
0.218100	-1.379037
0.218200	-1.293347
0.218300	-1.233300
0.218400	-1.200192
0.218500	-1.217720
0.218600	-1.220966
0.218700	-1.224861
0.218800	-1.222588
0.218900	-1.207982
0.219000	-1.204736
0.219100	-1.213825
0.219200	-1.215772
0.219300	-1.226483
0.219400	-1.288154
0.219500	-1.330350
0.219600	-1.393319
0.219700	-1.422531
0.219800	-1.432269
0.219900	-1.420584
0.220000	-1.463104
0.220100	-1.570865
0.220200	-1.651686
0.220300	-1.660775
0.220400	-1.589367
0.220500	-1.520555
0.220600	-1.544899
0.220700	-1.647467
0.220800	-1.752632
0.220900	-1.775028
0.221000	-1.713682
0.221100	-1.633510
0.221200	-1.622799
0.221300	-1.683171
0.221400	-1.735753
0.221500	-1.757176
0.221600	-1.754255
0.221700	-1.740622
0.221800	-1.747114
0.221900	-1.777625
0.222000	-1.809758
0.222100	-1.820469
0.222200	-1.829233
0.222300	-1.849357
0.222400	-1.861042
0.222500	-1.857147
0.222600	-1.835725
0.222700	-1.811706
0.222800	-1.807162
0.222900	-1.840269
0.223000	-1.873052
0.223100	-1.875324
0.223200	-1.852928
0.223300	-1.811057
0.223400	-1.804889
0.223500	-1.789634
0.223600	-1.768861
0.223700	-1.735753
0.223800	-1.702970
0.223900	-1.668240
0.224000	-1.627343
0.224100	-1.596832
0.224200	-1.560479
0.224300	-1.527371
0.224400	-1.487772
0.224500	-1.445577
0.224600	-1.409223
0.224700	-1.368975
0.224800	-1.329051
0.224900	-1.294321
0.225000	-1.267705
0.225100	-1.247581
0.225200	-1.303409
0.225300	-1.429672
0.225400	-1.489395
0.225500	-1.423505
0.225600	-1.278741
0.225700	-1.189481
0.225800	-1.232326
0.225900	-1.357939
0.226000	-1.453691
0.226100	-1.426102
0.226200	-1.325156
0.226300	-1.215772
0.226400	-1.205061
0.226500	-1.263810
0.226600	-1.329701
0.226700	-1.353720
0.226800	-1.320612
0.226900	-1.290426
0.227000	-1.263810
0.227100	-1.262837
0.227200	-1.269653
0.227300	-1.272250
0.227400	-1.258293
0.227500	-1.262512
0.227600	-1.283285
0.227700	-1.291725
0.227800	-1.309577
0.227900	-1.303409
0.228000	-1.316068
0.228100	-1.346254
0.228200	-1.372546
0.228300	-1.369300
0.228400	-1.298216
0.228500	-1.252125
0.228600	-1.286531
0.228700	-1.391047
0.228800	-1.509519
0.228900	-1.539705
0.229000	-1.492641
0.229100	-1.419285
0.229200	-1.410197
0.229300	-1.492966
0.229400	-1.630264
0.229500	-1.722121
0.229600	-1.726016
0.229700	-1.698426
0.229800	-1.682846
0.229900	-1.712383
0.230000	-1.763667
0.230100	-1.819820
0.230200	-1.850656
0.230300	-1.870780
0.230400	-1.887658
0.230500	-1.894474
0.230600	-1.904861
0.230700	-1.891553
0.230800	-1.878894
0.230900	-1.876947
0.231000	-1.898045
0.231100	-1.914923
0.231200	-1.886360
0.231300	-1.844164
0.231400	-1.777949
0.231500	-1.742245
0.231600	-1.740298
0.231700	-1.743219
0.231800	-1.744842
0.231900	-1.735429
0.232000	-1.724393
0.232100	-1.706865
0.232200	-1.696803
0.232300	-1.712383
0.232400	-1.728288
0.232500	-1.756202
0.232600	-1.792555
0.232700	-1.828909
0.232800	-1.844813
0.232900	-1.873376
0.233000	-1.909730
0.233100	-1.953548
0.233200	-2.006131
0.233300	-2.058389
0.233400	-2.103181
0.233500	-2.074293
0.233600	-1.966532
0.233700	-1.863314
0.233800	-1.890579
0.233900	-2.062933
0.234000	-2.179458
0.234100	-2.176537
0.234200	-2.061635
0.234300	-1.958742
0.234400	-1.940241
0.234500	-2.016842
0.234600	-2.106752
0.234700	-2.127200
0.234800	-2.073320
0.234900	-1.985682
0.235000	-1.936021
0.235100	-1.923362
0.235200	-1.944135
0.235300	-1.940890
0.235400	-1.951276
0.235500	-1.927582
0.235600	-1.912651
0.235700	-1.896422
0.235800	-1.879544
0.235900	-1.857472
0.236000	-1.883114
0.236100	-1.911677
0.236200	-1.936670
0.236300	-1.951276
0.236400	-1.936670
0.236500	-1.911028
0.236600	-1.889606
0.236700	-1.931477
0.236800	-2.034045
0.236900	-2.072995
0.237000	-2.039238
0.237100	-1.942188
0.237200	-1.897396
0.237300	-1.937319
0.237400	-2.043782
0.237500	-2.126227
0.237600	-2.117787
0.237700	-2.048002
0.237800	-1.992498
0.237900	-2.015868
0.238000	-2.085005
0.238100	-2.137262
0.238200	-2.167773
0.238300	-2.174589
0.238400	-2.190819
0.238500	-2.226523
0.238600	-2.269043
0.238700	-2.299879
0.238800	-2.309616
0.238900	-2.324222
0.239000	-2.342724
0.239100	-2.352461
0.239200	-2.351487
0.239300	-2.342074
0.239400	-2.324222
0.239500	-2.348891
0.239600	-2.404719
0.239700	-2.436204
0.239800	-2.445941
0.239900	-2.414456
0.240000	-2.402771
0.240100	-2.400175
0.240200	-2.386218
0.240300	-2.377454
0.240400	-2.346943
0.240500	-2.316432
0.240600	-2.293711
0.240700	-2.268394
0.240800	-2.241454
0.240900	-2.216785
0.241000	-2.194389
0.241100	-2.176537
0.241200	-2.161931
0.241300	-2.152518
0.241400	-2.147649
0.241500	-2.148947
0.241600	-2.156413
0.241700	-2.171344
0.241800	-2.208346
0.241900	-2.338829
0.242000	-2.494304
0.242100	-2.559870
0.242200	-2.479698
0.242300	-2.373559
0.242400	-2.350838
0.242500	-2.467039
0.242600	-2.621541
0.242700	-2.706906
0.242800	-2.661789
0.242900	-2.561817
0.243000	-2.514753
0.243100	-2.549159
0.243200	-2.637770
0.243300	-2.697169
0.243400	-2.700090
0.243500	-2.677694
0.243600	-2.656596
0.243700	-2.661140
0.243800	-2.673799
0.243900	-2.678992
0.244000	-2.676720
0.244100	-2.662438
0.244200	-2.671527
0.244300	-2.691326
0.244400	-2.702362
0.244500	-2.695870
0.244600	-2.682238
0.244700	-2.693598
0.244800	-2.728004
0.244900	-2.742935
0.245000	-2.697493
0.245100	-2.610505
0.245200	-2.571230
0.245300	-2.626734
0.245400	-2.736119
0.245500	-2.819537
0.245600	-2.792272
0.245700	-2.690353
0.245800	-2.607584
0.245900	-2.624787
0.246000	-2.723785
0.246100	-2.825704
0.246200	-2.849399
0.246300	-2.810449
0.246400	-2.757217
0.246500	-2.742611
0.246600	-2.766630
0.246700	-2.789026
0.246800	-2.803632
0.246900	-2.802659
0.247000	-2.794219
0.247100	-2.788377
0.247200	-2.771498
0.247300	-2.726381
0.247400	-2.666009
0.247500	-2.622839
0.247600	-2.598495
0.247700	-2.589732
0.247800	-2.570906
0.247900	-2.501445
0.248000	-2.436528
0.248100	-2.342724
0.248200	-2.295659
0.248300	-2.270341
0.248400	-2.242103
0.248500	-2.193091
0.248600	-2.155114
0.248700	-2.091821
0.248800	-2.047028
0.248900	-2.014245
0.249000	-1.998665
0.249100	-1.996069
0.249200	-1.984059
0.249300	-1.986980
0.249400	-1.973673
0.249500	-1.958093
0.249600	-1.953548
0.249700	-1.932775
0.249800	-1.941214
0.249900	-1.925959
0.250000	-1.957119
0.250100	-1.919792
0.250200	-1.854875
0.250300	-1.693558
0.250400	-1.591314
0.250500	-1.646818
0.250600	-1.791906
0.250700	-1.863314
0.250800	-1.780221
0.250900	-1.647791
0.251000	-1.543276
0.251100	-1.551390
0.251200	-1.646818
0.251300	-1.713033
0.251400	-1.704593
0.251500	-1.624422
0.251600	-1.553013
0.251700	-1.528020
0.251800	-1.544899
0.251900	-1.560479
0.252000	-1.566321
0.252100	-1.552364
0.252200	-1.531591
0.252300	-1.526398
0.252400	-1.525099
0.252500	-1.523152
0.252600	-1.531266
0.252700	-1.552689
0.252800	-1.593262
0.252900	-1.627992
0.253000	-1.662398
0.253100	-1.653309
0.253200	-1.628966
0.253300	-1.627343
0.253400	-1.713357
0.253500	-1.812030
0.253600	-1.819171
0.253700	-1.764966
0.253800	-1.658503
0.253900	-1.633185
0.254000	-1.698426
0.254100	-1.802617
0.254200	-1.852603
0.254300	-1.805863
0.254400	-1.718550
0.254500	-1.676355
0.254600	-1.716603
0.254700	-1.789634
0.254800	-1.825014
0.254900	-1.832804
0.255000	-1.810083
0.255100	-1.815601
0.255200	-1.853577
0.255300	-1.904212
0.255400	-1.928231
0.255500	-1.940890
0.255600	-1.950952
0.255700	-1.970102
0.255800	-1.986007
0.255900	-1.983410
0.256000	-1.972699
0.256100	-1.963610
0.256200	-1.991849
0.256300	-2.036642
0.256400	-2.063257
0.256500	-2.051572
0.256600	-2.013272
0.256700	-2.006131
0.256800	-2.005157
0.256900	-1.996718
0.257000	-1.989577
0.257100	-1.977568
0.257200	-1.970427
0.257300	-1.966207
0.257400	-1.960365
0.257500	-1.947381
0.257600	-1.937968
0.257700	-1.931152
0.257800	-1.925634
0.257900	-1.927257
0.258000	-1.928231
0.258100	-1.931152
0.258200	-1.938942
0.258300	-1.960365
0.258400	-1.978541
0.258500	-2.046055
0.258600	-2.185301
0.258700	-2.329416
0.258800	-2.350514
0.258900	-2.262876
0.259000	-2.181081
0.259100	-2.204127
0.259200	-2.353110
0.259300	-2.503717
0.259400	-2.568309
0.259500	-2.517349
0.259600	-2.436853
0.259700	-2.420624
0.259800	-2.473531
0.259900	-2.575774
0.260000	-2.625111
0.260100	-2.626085
0.260200	-2.600118
0.260300	-2.588433
0.260400	-2.591354
0.260500	-2.608557
0.260600	-2.612452
0.260700	-2.600443
0.260800	-2.586486
0.260900	-2.581292
0.261000	-2.587459
0.261100	-2.580643
0.261200	-2.566686
0.261300	-2.555650
0.261400	-2.560194
0.261500	-2.575125
0.261600	-2.576424
0.261700	-2.514428
0.261800	-2.446266
0.261900	-2.451134
0.262000	-2.534228
0.262100	-2.652701
0.262200	-2.712749
0.262300	-2.672176
0.262400	-2.590056
0.262500	-2.550782
0.262600	-2.608882
0.262700	-2.729627
0.262800	-2.829274
0.262900	-2.845179
0.263000	-2.801360
0.263100	-2.764682
0.263200	-2.760787
0.263300	-2.780587
0.263400	-2.796491
0.263500	-2.796167
0.263600	-2.776367
0.263700	-2.746830
0.263800	-2.706257
0.263900	-2.649130
0.264000	-2.576424
0.264100	-2.500147
0.264200	-2.451459
0.264300	-2.416079
0.264400	-2.380051
0.264500	-2.323573
0.264600	-2.244699
0.264700	-2.186924
0.264800	-2.095067
0.264900	-2.026904
0.265000	-1.962637
0.265100	-1.897396
0.265200	-1.820794
0.265300	-1.739973
0.265400	-1.643247
0.265500	-1.570216
0.265600	-1.513414
0.265700	-1.485176
0.265800	-1.452393
0.265900	-1.427400
0.266000	-1.411495
0.266100	-1.379686
0.266200	-1.354693
0.266300	-1.327104
0.266400	-1.317691
0.266500	-1.308603
0.266600	-1.315744
0.266700	-1.310550
0.266800	-1.285233
0.266900	-1.167734
0.267000	-1.034331
0.267100	-0.983371
0.267200	-1.105414
0.267300	-1.239142
0.267400	-1.255047
0.267500	-1.166760
0.267600	-1.046665
0.267700	-1.000250
0.267800	-1.051209
0.267900	-1.157023
0.268000	-1.215448
0.268100	-1.204087
0.268200	-1.141443
0.268300	-1.097949
0.268400	-1.089834
0.268500	-1.115476
0.268600	-1.136899
0.268700	-1.149557
0.268800	-1.154426
0.268900	-1.149882
0.269000	-1.151505
0.269100	-1.166760
0.269200	-1.174550
0.269300	-1.216097
0.269400	-1.267705
0.269500	-1.338464
0.269600	-1.389099
0.269700	-1.431295
0.269800	-1.439085
0.269900	-1.476087
0.270000	-1.509844
0.270100	-1.659476
0.270200	-1.749386
0.270300	-1.787037
0.270400	-1.740947
0.270500	-1.703295
0.270600	-1.741596
0.270700	-1.866560
0.270800	-1.994446
0.270900	-2.059687
0.271000	-2.033396
0.271100	-1.984384
0.271200	-2.000288
0.271300	-2.085005
0.271400	-2.183353
0.271500	-2.226847
0.271600	-2.252165
0.271700	-2.250217
0.271800	-2.278781
0.271900	-2.324222
0.272000	-2.383946
0.272100	-2.434256
0.272200	-2.464442
0.272300	-2.495278
0.272400	-2.520271
0.272500	-2.528710
0.272600	-2.526438
0.272700	-2.523192
0.272800	-2.538123
0.272900	-2.597197
0.273000	-2.645560
0.273100	-2.667307
0.273200	-2.654324
0.273300	-2.630954
0.273400	-2.639068
0.273500	-2.642639
0.273600	-2.631603
0.273700	-2.626734
0.273800	-2.623164
0.273900	-2.603689
0.274000	-2.596223
0.274100	-2.589732
0.274200	-2.583564
0.274300	-2.577397
0.274400	-2.565712
0.274500	-2.564089
0.274600	-2.558247
0.274700	-2.551106
0.274800	-2.533579
0.274900	-2.537149
0.275000	-2.546887
0.275100	-2.562791
0.275200	-2.657894
0.275300	-2.808501
0.275400	-2.903280
0.275500	-2.861084
0.275600	-2.751050
0.275700	-2.695546
0.275800	-2.769876
0.275900	-2.935413
0.276000	-3.061027
0.276100	-3.076608
0.276200	-3.000006
0.276300	-2.946774
0.276400	-2.970468
0.276500	-3.049992
0.276600	-3.128216
0.276700	-3.151262
0.276800	-3.132436
0.276900	-3.104522
0.277000	-3.091214
0.277100	-3.088293
0.277200	-3.085371
0.277300	-3.070440
0.277400	-3.049667
0.277500	-3.040903
0.277600	-3.034087
0.277700	-3.033113
0.277800	-3.001629
0.277900	-2.968521
0.278000	-2.947423
0.278100	-2.949371
0.278200	-2.952941
0.278300	-2.904578
0.278400	-2.796491
0.278500	-2.708529
0.278600	-2.706582
0.278700	-2.773771
0.278800	-2.852320
0.278900	-2.844530
0.279000	-2.745207
0.279100	-2.632901
0.279200	-2.588433
0.279300	-2.642314
0.279400	-2.739689
0.279500	-2.780262
0.279600	-2.728978
0.279700	-2.640042
0.279800	-2.578696
0.279900	-2.556949
0.280000	-2.554352
0.280100	-2.551755
0.280200	-2.529684
0.280300	-2.493655
0.280400	-2.454380
0.280500	-2.403745
0.280600	-2.343048
0.280700	-2.261253
0.280800	-2.191468
0.280900	-2.145052
0.281000	-2.102857
0.281100	-2.055467
0.281200	-1.970751
0.281300	-1.866236
0.281400	-1.751009
0.281500	-1.664670
0.281600	-1.607543
0.281700	-1.550417
0.281800	-1.489395
0.281900	-1.421882
0.282000	-1.343658
0.282100	-1.267381
0.282200	-1.210904
0.282300	-1.173252
0.282400	-1.156374
0.282500	-1.125863
0.282600	-1.112880
0.282700	-1.095028
0.282800	-1.082369
0.282900	-1.064192
0.283000	-1.050884
0.283100	-1.060622
0.283200	-1.050235
0.283300	-1.088861
0.283400	-1.064517
0.283500	-1.030111
0.283600	-0.884374
0.283700	-0.776937
0.283800	-0.782455
0.283900	-0.936307
0.284000	-1.085615
0.284100	-1.054455
0.284200	-0.954808
0.284300	-0.836985
0.284400	-0.842503
0.284500	-0.926894
0.284600	-1.038875
0.284700	-1.080421
0.284800	-1.026541
0.284900	-0.970064
0.285000	-0.936956
0.285100	-0.972011
0.285200	-1.009338
0.285300	-1.048937
0.285400	-1.070035
0.285500	-1.082044
0.285600	-1.096651
0.285700	-1.128784
0.285800	-1.163839
0.285900	-1.176822
0.286000	-1.237844
0.286100	-1.299839
0.286200	-1.377739
0.286300	-1.440059
0.286400	-1.474140
0.286500	-1.494913
0.286600	-1.522827
0.286700	-1.597157
0.286800	-1.750360
0.286900	-1.823715
0.287000	-1.827610
0.287100	-1.759123
0.287200	-1.728937
0.287300	-1.799696
0.287400	-1.936670
0.287500	-2.042484
0.287600	-2.046379
0.287700	-1.976594
0.287800	-1.923038
0.287900	-1.957443
0.288000	-2.052871
0.288100	-2.124604
0.288200	-2.152193
0.288300	-2.145702
0.288400	-2.137912
0.288500	-2.177511
0.288600	-2.226523
0.288700	-2.265473
0.288800	-2.275210
0.288900	-2.290141
0.289000	-2.305721
0.289100	-2.319354
0.289200	-2.313836
0.289300	-2.294361
0.289400	-2.272614
0.289500	-2.285921
0.289600	-2.341750
0.289700	-2.381674
0.289800	-2.384595
0.289900	-2.364471
0.290000	-2.362848
0.290100	-2.380051
0.290200	-2.386542
0.290300	-2.394008
0.290400	-2.387841
0.290500	-2.391086
0.290600	-2.389788
0.290700	-2.393359
0.290800	-2.396604
0.290900	-2.401473
0.291000	-2.412509
0.291100	-2.419001
0.291200	-2.430686
0.291300	-2.438800
0.291400	-2.441721
0.291500	-2.453731
0.291600	-2.466390
0.291700	-2.495278
0.291800	-2.535526
0.291900	-2.666982
0.292000	-2.829924
0.292100	-2.893542
0.292200	-2.851022
0.292300	-2.739689
0.292400	-2.728978
0.292500	-2.851671
0.292600	-3.031815
0.292700	-3.141524
0.292800	-3.118803
0.292900	-3.031490
0.293000	-2.979232
0.293100	-3.010392
0.293200	-3.089915
0.293300	-3.160026
0.293400	-3.175606
0.293500	-3.142823
0.293600	-3.112636
0.293700	-3.104197
0.293800	-3.114908
0.293900	-3.122374
0.294000	-3.130164
0.294100	-3.120102
0.294200	-3.117505
0.294300	-3.131138
0.294400	-3.120102
0.294500	-3.099328
0.294600	-3.072388
0.294700	-3.062326
0.294800	-3.058755
0.294900	-3.049992
0.295000	-2.986698
0.295100	-2.869523
0.295200	-2.811747
0.295300	-2.834468
0.295400	-2.903929
0.295500	-2.964301
0.295600	-2.911070
0.295700	-2.784806
0.295800	-2.665684
0.295900	-2.629655
0.296000	-2.689054
0.296100	-2.763708
0.296200	-2.774744
0.296300	-2.712100
0.296400	-2.620242
0.296500	-2.561493
0.296600	-2.534877
0.296700	-2.518323
0.296800	-2.495278
0.296900	-2.454056
0.297000	-2.386218
0.297100	-2.318380
0.297200	-2.248270
0.297300	-2.164852
0.297400	-2.070074
0.297500	-1.991849
0.297600	-1.931152
0.297700	-1.880193
0.297800	-1.812030
0.297900	-1.704918
0.298000	-1.596183
0.298100	-1.464078
0.298200	-1.383906
0.298300	-1.312822
0.298400	-1.251801
0.298500	-1.181691
0.298600	-1.103142
0.298700	-1.009987
0.298800	-0.930789
0.298900	-0.874636
0.299000	-0.846398
0.299100	-0.839906
0.299200	-0.842827
0.299300	-0.857109
0.299400	-0.859706
0.299500	-0.867820
0.299600	-0.879181
0.299700	-0.895734
0.299800	-0.926245
0.299900	-0.968116
0.300000	-0.997653
0.300100	-1.028488
0.300200	-0.964546
0.300300	-0.853539
0.300400	-0.767200
0.300500	-0.860355
0.300600	-1.031734
0.300700	-1.135600
0.300800	-1.097624
0.300900	-0.973959
0.301000	-0.899954
0.301100	-0.919429
0.301200	-1.035305
0.301300	-1.133653
0.301400	-1.147610
0.301500	-1.088861
0.301600	-1.026216
0.301700	-0.994407
0.301800	-1.018751
0.301900	-1.048937
0.302000	-1.065815
0.302100	-1.071658
0.302200	-1.068087
0.302300	-1.064842
0.302400	-1.072956
0.302500	-1.083018
0.302600	-1.095352
0.302700	-1.129109
0.302800	-1.174550
0.302900	-1.218693
0.303000	-1.245309
0.303100	-1.244335
0.303200	-1.212851
0.303300	-1.234273
0.303400	-1.306331
0.303500	-1.434216
0.303600	-1.462130
0.303700	-1.428049
0.303800	-1.350474
0.303900	-1.348202
0.304000	-1.437462
0.304100	-1.589367
0.304200	-1.674407
0.304300	-1.677653
0.304400	-1.608842
0.304500	-1.592937
0.304600	-1.659476
0.304700	-1.754579
0.304800	-1.815925
0.304900	-1.860718
0.305000	-1.880842
0.305100	-1.917195
0.305200	-1.968804
0.305300	-2.031448
0.305400	-2.077539
0.305500	-2.113892
0.305600	-2.161606
0.305700	-2.219706
0.305800	-2.253788
0.305900	-2.272289
0.306000	-2.280404
0.306100	-2.298256
0.306200	-2.345969
0.306300	-2.414132
0.306400	-2.446590
0.306500	-2.446915
0.306600	-2.426466
0.306700	-2.419974
0.306800	-2.413807
0.306900	-2.393034
0.307000	-2.362848
0.307100	-2.323573
0.307200	-2.291439
0.307300	-2.248594
0.307400	-2.208346
0.307500	-2.160632
0.307600	-2.116814
0.307700	-2.071372
0.307800	-2.035992
0.307900	-1.999639
0.308000	-1.964584
0.308100	-1.936995
0.308200	-1.917844
0.308300	-1.898369
0.308400	-1.883439
0.308500	-1.915572
0.308600	-2.029501
0.308700	-2.141157
0.308800	-2.137262
0.308900	-2.023983
0.309000	-1.904212
0.309100	-1.910379
0.309200	-2.040861
0.309300	-2.186274
0.309400	-2.239506
0.309500	-2.181081
0.309600	-2.096689
0.309700	-2.084680
0.309800	-2.158685
0.309900	-2.271640
0.310000	-2.356031
0.310100	-2.376805
0.310200	-2.379077
0.310300	-2.398552
0.310400	-2.440099
0.310500	-2.493979
0.310600	-2.541369
0.310700	-2.577722
0.310800	-2.606935
0.310900	-2.656920
0.311000	-2.719890
0.311100	-2.752023
0.311200	-2.767603
0.311300	-2.780587
0.311400	-2.820835
0.311500	-2.856864
0.311600	-2.867900
0.311700	-2.811422
0.311800	-2.731250
0.311900	-2.735794
0.312000	-2.821160
0.312100	-2.949046
0.312200	-3.033113
0.312300	-3.005199
0.312400	-2.918535
0.312500	-2.867900
0.312600	-2.920158
0.312700	-3.048369
0.312800	-3.160675
0.312900	-3.176904
0.313000	-3.131462
0.313100	-3.073037
0.313200	-3.049018
0.313300	-3.052264
0.313400	-3.056159
0.313500	-3.048693
0.313600	-3.036034
0.313700	-3.006173
0.313800	-2.975337
0.313900	-2.931843
0.314000	-2.862057
0.314100	-2.782859
0.314200	-2.722486
0.314300	-2.675746
0.314400	-2.637445
0.314500	-2.571230
0.314600	-2.480347
0.314700	-2.384595
0.314800	-2.272614
0.314900	-2.208346
0.315000	-2.156737
0.315100	-2.114866
0.315200	-2.066179
0.315300	-2.019763
0.315400	-1.947057
0.315500	-1.896746
0.315600	-1.858770
0.315700	-1.852279
0.315800	-1.840918
0.315900	-1.844164
0.316000	-1.844813
0.316100	-1.848059
0.316200	-1.841892
0.316300	-1.852928
0.316400	-1.853901
0.316500	-1.885386
0.316600	-1.893176
0.316700	-1.921415
0.316800	-1.886684
0.316900	-1.791257
0.317000	-1.626044
0.317100	-1.546522
0.317200	-1.638054
0.317300	-1.758799
0.317400	-1.766913
0.317500	-1.646493
0.317600	-1.476412
0.317700	-1.392345
0.317800	-1.403705
0.317900	-1.507572
0.318000	-1.552689
0.318100	-1.526722
0.318200	-1.431944
0.318300	-1.360211
0.318400	-1.334569
0.318500	-1.345281
0.318600	-1.377739
0.318700	-1.388775
0.318800	-1.377739
0.318900	-1.370598
0.319000	-1.357939
0.319100	-1.354044
0.319200	-1.349825
0.319300	-1.374168
0.319400	-1.415066
0.319500	-1.449147
0.319600	-1.505949
0.319700	-1.535810
0.319800	-1.550092
0.319900	-1.554961
0.320000	-1.595534
0.320100	-1.729911
0.320200	-1.839295
0.320300	-1.870131
0.320400	-1.821768
0.320500	-1.755877
0.320600	-1.788336
0.320700	-1.895773
0.320800	-2.014895
0.320900	-2.064556
0.321000	-2.030475
0.321100	-1.957768
0.321200	-1.937968
0.321300	-1.991200
0.321400	-2.053520
0.321500	-2.061310
0.321600	-2.058064
0.321700	-2.021711
0.321800	-2.017816
0.321900	-2.021711
0.322000	-2.034694
0.322100	-2.023009
0.322200	-2.007754
0.322300	-2.005482
0.322400	-2.003859
0.322500	-1.989253
0.322600	-1.971076
0.322700	-1.948680
0.322800	-1.947381
0.322900	-1.991200
0.323000	-2.033720
0.323100	-2.035343
0.323200	-2.018140
0.323300	-1.982436
0.323400	-1.977892
0.323500	-1.978217
0.323600	-1.977243
0.323700	-1.971725
0.323800	-1.973023
0.323900	-1.977892
0.324000	-1.991200
0.324100	-2.004508
0.324200	-2.023983
0.324300	-2.043458
0.324400	-2.054818
0.324500	-2.076890
0.324600	-2.092470
0.324700	-2.109024
0.324800	-2.122332
0.324900	-2.147649
0.325000	-2.172967
0.325100	-2.209320
0.325200	-2.306695
0.325300	-2.483917
0.325400	-2.594925
0.325500	-2.575125
0.325600	-2.481645
0.325700	-2.411535
0.325800	-2.489760
0.325900	-2.643937
0.326000	-2.789351
0.326100	-2.826353
0.326200	-2.775718
0.326300	-2.728653
0.326400	-2.742935
0.326500	-2.830248
0.326600	-2.934764
0.326700	-2.998058
0.326800	-3.009743
0.326900	-3.016884
0.327000	-3.026297
0.327100	-3.052588
0.327200	-3.080178
0.327300	-3.114584
0.327400	-3.136331
0.327500	-3.158403
0.327600	-3.194432
0.327700	-3.209687
0.327800	-3.232408
0.327900	-3.218126
0.328000	-3.223969
0.328100	-3.239873
0.328200	-3.251234
0.328300	-3.235005
0.328400	-3.145419
0.328500	-3.066221
0.328600	-3.064273
0.328700	-3.128216
0.328800	-3.219425
0.328900	-3.217153
0.329000	-3.119453
0.329100	-2.996435
0.329200	-2.930545
0.329300	-2.962354
0.329400	-3.036034
0.329500	-3.080827
0.329600	-3.049992
0.329700	-2.991891
0.329800	-2.953590
0.329900	-2.953590
0.330000	-2.972741
0.330100	-3.000330
0.330200	-3.017209
0.330300	-3.044798
0.330400	-3.059729
0.330500	-3.067195
0.330600	-3.045772
0.330700	-3.009419
0.330800	-2.980531
0.330900	-2.973714
0.331000	-2.976960
0.331100	-2.966898
0.331200	-2.910096
0.331300	-2.836091
0.331400	-2.760138
0.331500	-2.646534
0.331600	-2.560844
0.331700	-2.469960
0.331800	-2.367392
0.331900	-2.258332
0.332000	-2.129148
0.332100	-2.006780
0.332200	-1.895123
0.332300	-1.804889
0.332400	-1.719849
0.332500	-1.662722
0.332600	-1.605271
0.332700	-1.550092
0.332800	-1.484851
0.332900	-1.425128
0.333000	-1.372546
0.333100	-1.325156
0.333200	-1.308603
0.333300	-1.289128
0.333400	-1.254722
0.333500	-1.182016
0.333600	-1.018426
0.333700	-0.861978
0.333800	-0.798035
0.333900	-0.920727
0.334000	-1.007715
0.334100	-0.972336
0.334200	-0.828221
0.334300	-0.684107
0.334400	-0.632823
0.334500	-0.679563
0.334600	-0.759410
0.334700	-0.776613
0.334800	-0.708126
0.334900	-0.632498
0.335000	-0.581539
0.335100	-0.581539
0.335200	-0.608804
0.335300	-0.620489
0.335400	-0.619190
0.335500	-0.608804
0.335600	-0.608479
0.335700	-0.608155
0.335800	-0.596794
0.335900	-0.578293
0.336000	-0.599716
0.336100	-0.641587
0.336200	-0.694818
0.336300	-0.740909
0.336400	-0.760059
0.336500	-0.750646
0.336600	-0.762331
0.336700	-0.807773
0.336800	-0.933386
0.336900	-0.997978
0.337000	-0.991161
0.337100	-0.911963
0.337200	-0.877233
0.337300	-0.931114
0.337400	-1.060622
0.337500	-1.160918
0.337600	-1.182016
0.337700	-1.125538
0.337800	-1.088536
0.337900	-1.133004
0.338000	-1.234923
0.338100	-1.323858
0.338200	-1.371896
0.338300	-1.393968
0.338400	-1.423180
0.338500	-1.489720
0.338600	-1.563400
0.338700	-1.625071
0.338800	-1.661424
0.338900	-1.705892
0.339000	-1.769510
0.339100	-1.831505
0.339200	-1.878894
0.339300	-1.918169
0.339400	-1.951925
0.339500	-2.015219
0.339600	-2.112269
0.339700	-2.185625
0.339800	-2.227172
0.339900	-2.258332
0.340000	-2.275859
0.340100	-2.308318
0.340200	-2.334609
0.340300	-2.354084
0.340400	-2.368366
0.340500	-2.384595
0.340600	-2.390113
0.340700	-2.401798
0.340800	-2.406342
0.340900	-2.409263
0.341000	-2.408614
0.341100	-2.403096
0.341200	-2.405693
0.341300	-2.393683
0.341400	-2.376156
0.341500	-2.348891
0.341600	-2.335258
0.341700	-2.334284
0.341800	-2.332661
0.341900	-2.427440
0.342000	-2.556624
0.342100	-2.610830
0.342200	-2.532929
0.342300	-2.419974
0.342400	-2.386542
0.342500	-2.493979
0.342600	-2.666333
0.342700	-2.758840
0.342800	-2.748778
0.342900	-2.673474
0.343000	-2.642639
0.343100	-2.690353
0.343200	-2.785131
0.343300	-2.867251
0.343400	-2.878611
0.343500	-2.864005
0.343600	-2.833169
0.343700	-2.839337
0.343800	-2.841284
0.343900	-2.848749
0.344000	-2.832520
0.344100	-2.800711
0.344200	-2.781561
0.344300	-2.776692
0.344400	-2.771498
0.344500	-2.729952
0.344600	-2.675746
0.344700	-2.640042
0.344800	-2.619918
0.344900	-2.592004
0.345000	-2.496576
0.345100	-2.353110
0.345200	-2.241778
0.345300	-2.228470
0.345400	-2.281702
0.345500	-2.324222
0.345600	-2.265797
0.345700	-2.125902
0.345800	-2.004183
0.345900	-1.977568
0.346000	-2.046379
0.346100	-2.134990
0.346200	-2.154790
0.346300	-2.099611
0.346400	-2.033396
0.346500	-1.999315
0.346600	-2.024307
0.346700	-2.067152
0.346800	-2.092145
0.346900	-2.108374
0.347000	-2.106427
0.347100	-2.113568
0.347200	-2.127200
0.347300	-2.143105
0.347400	-2.136613
0.347500	-2.142131
0.347600	-2.168747
0.347700	-2.205425
0.347800	-2.225874
0.347900	-2.192442
0.348000	-2.158685
0.348100	-2.087601
0.348200	-2.039238
0.348300	-2.008078
0.348400	-1.979190
0.348500	-1.948680
0.348600	-1.902913
0.348700	-1.849357
0.348800	-1.800345
0.348900	-1.780221
0.349000	-1.776002
0.349100	-1.793204
0.349200	-1.810083
0.349300	-1.845787
0.349400	-1.864613
0.349500	-1.887333
0.349600	-1.898369
0.349700	-1.911677
0.349800	-1.935047
0.349900	-1.944460
0.350000	-1.970427
0.350100	-1.944460
0.350200	-1.895123
0.350300	-1.711410
0.350400	-1.611438
0.350500	-1.622474
0.350600	-1.772431
0.350700	-1.844489
0.350800	-1.766264
0.350900	-1.611438
0.351000	-1.463104
0.351100	-1.416364
0.351200	-1.442980
0.351300	-1.466999
0.351400	-1.405004
0.351500	-1.250503
0.351600	-1.099896
0.351700	-0.981424
0.351800	-0.914235
0.351900	-0.852565
0.352000	-0.786350
0.352100	-0.709424
0.352200	-0.624059
0.352300	-0.547782
0.352400	-0.490007
0.352500	-0.434503
0.352600	-0.393281
0.352700	-0.400098
0.352800	-0.417625
0.352900	-0.447487
0.353000	-0.484164
0.353100	-0.486112
0.353200	-0.492928
0.353300	-0.491954
0.353400	-0.579267
0.353500	-0.682484
0.353600	-0.733119
0.353700	-0.696441
0.353800	-0.608804
0.353900	-0.594847
0.354000	-0.661061
0.354100	-0.789596
0.354200	-0.858083
0.354300	-0.847696
0.354400	-0.762980
0.354500	-0.719486
0.354600	-0.762980
0.354700	-0.841854
0.354800	-0.895734
0.354900	-0.925596
0.355000	-0.914885
0.355100	-0.921052
0.355200	-0.963247
0.355300	-1.019725
0.355400	-1.085615
0.355500	-1.129433
0.355600	-1.164488
0.355700	-1.204412
0.355800	-1.231677
0.355900	-1.250178
0.356000	-1.263161
0.356100	-1.283610
0.356200	-1.347228
0.356300	-1.429023
0.356400	-1.470894
0.356500	-1.465376
0.356600	-1.441682
0.356700	-1.467324
0.356800	-1.494913
0.356900	-1.515037
0.357000	-1.531591
0.357100	-1.552364
0.357200	-1.565023
0.357300	-1.580603
0.357400	-1.602999
0.357500	-1.626369
0.357600	-1.658827
0.357700	-1.687066
0.357800	-1.710436
0.357900	-1.739648
0.358000	-1.763992
0.358100	-1.787687
0.358200	-1.811381
0.358300	-1.845462
0.358400	-1.879544
0.358500	-1.957443
0.358600	-2.109024
0.358700	-2.270666
0.358800	-2.310914
0.358900	-2.237559
0.359000	-2.137912
0.359100	-2.152842
0.359200	-2.277482
0.359300	-2.430036
0.359400	-2.479049
0.359500	-2.419650
0.359600	-2.311888
0.359700	-2.266771
0.359800	-2.295659
0.359900	-2.367716
0.360000	-2.397578
0.360100	-2.377129
0.360200	-2.325845
0.360300	-2.281377
0.360400	-2.251840
0.360500	-2.234962
0.360600	-2.225224
0.360700	-2.205100
0.360800	-2.176862
0.360900	-2.164527
0.361000	-2.166799
0.361100	-2.160632
0.361200	-2.131744
0.361300	-2.115515
0.361400	-2.116164
0.361500	-2.123954
0.361600	-2.107725
0.361700	-2.028852
0.361800	-1.932126
0.361900	-1.906159
0.362000	-1.954847
0.362100	-2.049300
0.362200	-2.094417
0.362300	-2.032097
0.362400	-1.913300
0.362500	-1.836699
0.362600	-1.856174
0.362700	-1.954847
0.362800	-2.050923
0.362900	-2.062933
0.363000	-2.003534
0.363100	-1.949978
0.363200	-1.934398
0.363300	-1.956145
0.363400	-1.998016
0.363500	-2.015219
0.363600	-2.012622
0.363700	-1.998341
0.363800	-1.975945
0.363900	-1.938293
0.364000	-1.876622
0.364100	-1.807811
0.364200	-1.756527
0.364300	-1.714331
0.364400	-1.686417
0.364500	-1.635457
0.364600	-1.546522
0.364700	-1.469271
0.364800	-1.369300
0.364900	-1.309252
0.365000	-1.252775
0.365100	-1.207009
0.365200	-1.149233
0.365300	-1.094054
0.365400	-1.028164
0.365500	-0.977204
0.365600	-0.954159
0.365700	-0.955133
0.365800	-0.964546
0.365900	-0.980450
0.366000	-0.992460
0.366100	-1.000250
0.366200	-1.014207
0.366300	-1.025892
0.366400	-1.048288
0.366500	-1.074254
0.366600	-1.123266
0.366700	-1.150207
0.366800	-1.168383
0.366900	-1.071333
0.367000	-0.956431
0.367100	-0.896708
0.367200	-1.022970
0.367300	-1.170006
0.367400	-1.225185
0.367500	-1.129433
0.367600	-0.988240
0.367700	-0.925596
0.367800	-0.958703
0.367900	-1.048612
0.368000	-1.104116
0.368100	-1.071333
0.368200	-0.981749
0.368300	-0.903524
0.368400	-0.877233
0.368500	-0.868469
0.368600	-0.882102
0.368700	-0.864250
0.368800	-0.846722
0.368900	-0.814913
0.369000	-0.794465
0.369100	-0.781481
0.369200	-0.770446
0.369300	-0.783429
0.369400	-0.813940
0.369500	-0.852889
0.369600	-0.902550
0.369700	-0.932737
0.369800	-0.940527
0.369900	-0.935658
0.370000	-0.968765
0.370100	-1.093080
0.370200	-1.199868
0.370300	-1.217071
0.370400	-1.169682
0.370500	-1.097300
0.370600	-1.119371
0.370700	-1.228756
0.370800	-1.360861
0.370900	-1.415715
0.371000	-1.374493
0.371100	-1.297242
0.371200	-1.287180
0.371300	-1.363133
0.371400	-1.443629
0.371500	-1.485176
0.371600	-1.504326
0.371700	-1.498483
0.371800	-1.525424
0.371900	-1.565997
0.372000	-1.632211
0.372100	-1.686092
0.372200	-1.733806
0.372300	-1.770159
0.372400	-1.792880
0.372500	-1.804240
0.372600	-1.800670
0.372700	-1.796126
0.372800	-1.808784
0.372900	-1.876947
0.373000	-1.944785
0.373100	-1.968804
0.373200	-1.949329
0.373300	-1.930503
0.373400	-1.947381
0.373500	-1.966532
0.373600	-1.975945
0.373700	-1.987630
0.373800	-2.008078
0.373900	-2.029825
0.374000	-2.055467
0.374100	-2.078513
0.374200	-2.104804
0.374300	-2.125902
0.374400	-2.157062
0.374500	-2.180757
0.374600	-2.216785
0.374700	-2.234637
0.374800	-2.260929
0.374900	-2.285597
0.375000	-2.323249
0.375100	-2.366418
0.375200	-2.454056
0.375300	-2.626410
0.375400	-2.748128
0.375500	-2.728004
0.375600	-2.614725
0.375700	-2.529359
0.375800	-2.581292
0.375900	-2.716968
0.376000	-2.838687
0.376100	-2.841284
0.376200	-2.754945
0.376300	-2.655947
0.376400	-2.645235
0.376500	-2.699765
0.376600	-2.780262
0.376700	-2.823432
0.376800	-2.815642
0.376900	-2.798439
0.377000	-2.802659
0.377100	-2.826029
0.377200	-2.868224
0.377300	-2.896788
0.377400	-2.917237
0.377500	-2.933790
0.377600	-2.977934
0.377700	-3.023051
0.377800	-3.050641
0.377900	-3.056159
0.378000	-3.077257
0.378100	-3.107118
0.378200	-3.137305
0.378300	-3.129190
0.378400	-3.055834
0.378500	-2.986373
0.378600	-2.992540
0.378700	-3.068168
0.378800	-3.166842
0.378900	-3.180799
0.379000	-3.092512
0.379100	-2.971767
0.379200	-2.916263
0.379300	-2.956836
0.379400	-3.051290
0.379500	-3.109391
0.379600	-3.080503
0.379700	-2.991242
0.379800	-2.920158
0.379900	-2.877962
0.380000	-2.862057
0.380100	-2.842258
0.380200	-2.807852
0.380300	-2.760787
0.380400	-2.701064
0.380500	-2.627708
0.380600	-2.546562
0.380700	-2.447239
0.380800	-2.353110
0.380900	-2.293387
0.381000	-2.248270
0.381100	-2.217110
0.381200	-2.146675
0.381300	-2.052222
0.381400	-1.973023
0.381500	-1.881491
0.381600	-1.829882
0.381700	-1.791582
0.381800	-1.746140
0.381900	-1.688689
0.382000	-1.616956
0.382100	-1.538732
0.382200	-1.475763
0.382300	-1.428698
0.382400	-1.393319
0.382500	-1.377414
0.382600	-1.365729
0.382700	-1.361185
0.382800	-1.353395
0.382900	-1.337815
0.383000	-1.334894
0.383100	-1.315744
0.383200	-1.340412
0.383300	-1.360861
0.383400	-1.383257
0.383500	-1.359238
0.383600	-1.247581
0.383700	-1.149233
0.383800	-1.125863
0.383900	-1.288154
0.384000	-1.407925
0.384100	-1.413767
0.384200	-1.284584
0.384300	-1.144689
0.384400	-1.108011
0.384500	-1.153777
0.384600	-1.245634
0.384700	-1.280689
0.384800	-1.230703
0.384900	-1.146636
0.385000	-1.082694
0.385100	-1.078799
0.385200	-1.083018
0.385300	-1.105739
0.385400	-1.106713
0.385500	-1.106713
0.385600	-1.095677
0.385700	-1.096001
0.385800	-1.100221
0.385900	-1.108336
0.386000	-1.163190
0.386100	-1.218369
0.386200	-1.295295
0.386300	-1.356641
0.386400	-1.407600
0.386500	-1.419935
0.386600	-1.446550
0.386700	-1.506273
0.386800	-1.649090
0.386900	-1.724068
0.387000	-1.733481
0.387100	-1.659152
0.387200	-1.622149
0.387300	-1.660126
0.387400	-1.781195
0.387500	-1.874026
0.387600	-1.879544
0.387700	-1.807162
0.387800	-1.730560
0.387900	-1.729586
0.388000	-1.788660
0.388100	-1.831181
0.388200	-1.833453
0.388300	-1.817224
0.388400	-1.796450
0.388500	-1.813004
0.388600	-1.847410
0.388700	-1.877271
0.388800	-1.873701
0.388900	-1.883114
0.389000	-1.905510
0.389100	-1.941863
0.389200	-1.951925
0.389300	-1.950952
0.389400	-1.947057
0.389500	-1.976594
0.389600	-2.062284
0.389700	-2.127849
0.389800	-2.162904
0.389900	-2.194389
0.390000	-2.211592
0.390100	-2.245998
0.390200	-2.270341
0.390300	-2.294361
0.390400	-2.314485
0.390500	-2.327144
0.390600	-2.350838
0.390700	-2.368366
0.390800	-2.389464
0.390900	-2.412509
0.391000	-2.449187
0.391100	-2.483268
0.391200	-2.522218
0.391300	-2.564089
0.391400	-2.604338
0.391500	-2.644911
0.391600	-2.690353
0.391700	-2.730926
0.391800	-2.785131
0.391900	-2.917886
0.392000	-3.086994
0.392100	-3.155806
0.392200	-3.095433
0.392300	-2.971767
0.392400	-2.917886
0.392500	-3.010068
0.392600	-3.173983
0.392700	-3.273306
0.392800	-3.262270
0.392900	-3.180475
0.393000	-3.120751
0.393100	-3.151587
0.393200	-3.245391
0.393300	-3.336924
0.393400	-3.387235
0.393500	-3.395674
0.393600	-3.418070
0.393700	-3.441441
0.393800	-3.482663
0.393900	-3.523561
0.394000	-3.551475
0.394100	-3.561862
0.394200	-3.571599
0.394300	-3.605356
0.394400	-3.610225
0.394500	-3.593346
0.394600	-3.564783
0.394700	-3.562511
0.394800	-3.572898
0.394900	-3.571599
0.395000	-3.515771
0.395100	-3.407684
0.395200	-3.348285
0.395300	-3.366137
0.395400	-3.452801
0.395500	-3.532649
0.395600	-3.506682
0.395700	-3.403789
0.395800	-3.306413
0.395900	-3.294079
0.396000	-3.367435
0.396100	-3.449231
0.396200	-3.469355
0.396300	-3.416123
0.396400	-3.343416
0.396500	-3.297650
0.396600	-3.289860
0.396700	-3.275253
0.396800	-3.260322
0.396900	-3.238575
0.397000	-3.207415
0.397100	-3.176255
0.397200	-3.135033
0.397300	-3.060378
0.397400	-2.973065
0.397500	-2.904253
0.397600	-2.858487
0.397700	-2.826029
0.397800	-2.780911
0.397900	-2.686458
0.398000	-2.586486
0.398100	-2.473206
0.398200	-2.382323
0.398300	-2.315783
0.398400	-2.247621
0.398500	-2.174265
0.398600	-2.090198
0.398700	-1.993472
0.398800	-1.908756
0.398900	-1.845462
0.399000	-1.804240
0.399100	-1.781844
0.399200	-1.750360
0.399300	-1.739324
0.399400	-1.714655
0.399500	-1.700698
0.399600	-1.675381
0.399700	-1.663371
0.399800	-1.640975
0.399900	-1.656231
0.400000	-1.663696
0.400100	-1.664670
0.400200	-1.598455
0.400300	-1.463104
0.400400	-1.344956
0.400500	-1.397538
0.400600	-1.550417
0.400700	-1.646169
0.400800	-1.612087
0.400900	-1.502703
0.401000	-1.405004
0.401100	-1.419285
0.401200	-1.512116
0.401300	-1.619553
0.401400	-1.625720
0.401500	-1.568918
0.401600	-1.486799
0.401700	-1.456612
0.401800	-1.467973
0.401900	-1.500756
0.402000	-1.523801
0.402100	-1.525099
0.402200	-1.516011
0.402300	-1.522178
0.402400	-1.545548
0.402500	-1.560803
0.402600	-1.574760
0.402700	-1.625071
0.402800	-1.668240
0.402900	-1.740947
0.403000	-1.799696
0.403100	-1.839620
0.403200	-1.864613
0.403300	-1.906159
0.403400	-2.027229
0.403500	-2.194714
0.403600	-2.286246
0.403700	-2.304423
0.403800	-2.271964
0.403900	-2.313186
0.404000	-2.445616
0.404100	-2.637445
0.404200	-2.766954
0.404300	-2.807527
0.404400	-2.776043
0.404500	-2.783184
0.404600	-2.869198
0.404700	-2.990593
0.404800	-3.064598
0.404900	-3.099328
0.405000	-3.104522
0.405100	-3.127892
0.405200	-3.162947
0.405300	-3.205792
0.405400	-3.240847
0.405500	-3.242795
0.405600	-3.240847
0.405700	-3.240198
0.405800	-3.230136
0.405900	-3.203195
0.406000	-3.164245
0.406100	-3.123023
0.406200	-3.125944
0.406300	-3.155806
0.406400	-3.153534
0.406500	-3.110040
0.406600	-3.040579
0.406700	-3.003576
0.406800	-2.979232
0.406900	-2.949046
0.407000	-2.916912
0.407100	-2.882831
0.407200	-2.855566
0.407300	-2.824081
0.407400	-2.795193
0.407500	-2.769226
0.407600	-2.751050
0.407700	-2.743909
0.407800	-2.735145
0.407900	-2.736768
0.408000	-2.739689
0.408100	-2.748128
0.408200	-2.763384
0.408300	-2.783508
0.408400	-2.820186
0.408500	-2.869198
0.408600	-3.022402
0.408700	-3.161324
0.408800	-3.210985
0.408900	-3.132436
0.409000	-3.044474
0.409100	-3.061677
0.409200	-3.198651
0.409300	-3.369383
0.409400	-3.451503
0.409500	-3.427808
0.409600	-3.358996
0.409700	-3.345688
0.409800	-3.421316
0.409900	-3.531026
0.410000	-3.623208
0.410100	-3.641710
0.410200	-3.633920
0.410300	-3.628402
0.410400	-3.638139
0.410500	-3.659562
0.410600	-3.672545
0.410700	-3.664755
0.410800	-3.648201
0.410900	-3.634893
0.411000	-3.632621
0.411100	-3.632621
0.411200	-3.602435
0.411300	-3.578415
0.411400	-3.567380
0.411500	-3.570625
0.411600	-3.556344
0.411700	-3.497269
0.411800	-3.397622
0.411900	-3.373927
0.412000	-3.426834
0.412100	-3.538491
0.412200	-3.616717
0.412300	-3.585232
0.412400	-3.488505
0.412500	-3.421641
0.412600	-3.457021
0.412700	-3.575494
0.412800	-3.695915
0.412900	-3.726751
0.413000	-3.689099
0.413100	-3.645280
0.413200	-3.630024
0.413300	-3.649500
0.413400	-3.681634
0.413500	-3.689748
0.413600	-3.678388
0.413700	-3.641385
0.413800	-3.603084
0.413900	-3.547904
0.414000	-3.459617
0.414100	-3.366786
0.414200	-3.295702
0.414300	-3.234031
0.414400	-3.182747
0.414500	-3.116856
0.414600	-3.007796
0.414700	-2.912368
0.414800	-2.788377
0.414900	-2.696195
0.415000	-2.622839
0.415100	-2.556624
0.415200	-2.483268
0.415300	-2.400175
0.415400	-2.309941
0.415500	-2.233014
0.415600	-2.170694
0.415700	-2.131420
0.415800	-2.103506
0.415900	-2.088250
0.416000	-2.070074
0.416100	-2.050599
0.416200	-2.028527
0.416300	-2.004183
0.416400	-1.996718
0.416500	-1.995744
0.416600	-2.015544
0.416700	-2.016517
0.416800	-2.007105
0.416900	-1.901291
0.417000	-1.764641
0.417100	-1.701023
0.417200	-1.794178
0.417300	-1.963286
0.417400	-2.006780
0.417500	-1.955496
0.417600	-1.828259
0.417700	-1.776002
0.417800	-1.817548
0.417900	-1.913625
0.418000	-1.982112
0.418100	-1.954847
0.418200	-1.886684
0.418300	-1.821768
0.418400	-1.800994
0.418500	-1.802293
0.418600	-1.800994
0.418700	-1.796450
0.418800	-1.781195
0.418900	-1.752956
0.419000	-1.727963
0.419100	-1.713682
0.419200	-1.696479
0.419300	-1.694531
0.419400	-1.726340
0.419500	-1.748737
0.419600	-1.776651
0.419700	-1.779897
0.419800	-1.762045
0.419900	-1.744192
0.420000	-1.748412
0.420100	-1.831830
0.420200	-1.917520
0.420300	-1.928231
0.420400	-1.863964
0.420500	-1.800021
0.420600	-1.809109
0.420700	-1.897071
0.420800	-2.009377
0.420900	-2.048976
0.421000	-2.004508
0.421100	-1.933424
0.421200	-1.916871
0.421300	-1.973348
0.421400	-2.039238
0.421500	-2.074618
0.421600	-2.101234
0.421700	-2.109997
0.421800	-2.139210
0.421900	-2.184327
0.422000	-2.233664
0.422100	-2.289816
0.422200	-2.330714
0.422300	-2.371287
0.422400	-2.409588
0.422500	-2.431984
0.422600	-2.432309
0.422700	-2.434256
0.422800	-2.446590
0.422900	-2.510533
0.423000	-2.579994
0.423100	-2.624137
0.423200	-2.604987
0.423300	-2.604987
0.423400	-2.647183
0.423500	-2.686782
0.423600	-2.708205
0.423700	-2.737093
0.423800	-2.764033
0.423900	-2.791947
0.424000	-2.823756
0.424100	-2.857189
0.424200	-2.899709
0.424300	-2.927623
0.424400	-2.973390
0.424500	-3.016559
0.424600	-3.068818
0.424700	-3.115233
0.424800	-3.162947
0.424900	-3.212284
0.425000	-3.272981
0.425100	-3.333029
0.425200	-3.457345
0.425300	-3.651447
0.425400	-3.814389
0.425500	-3.834189
0.425600	-3.771219
0.425700	-3.733243
0.425800	-3.831267
0.425900	-4.022124
0.426000	-4.190909
0.426100	-4.261344
0.426200	-4.224341
0.426300	-4.185066
0.426400	-4.219797
0.426500	-4.319120
0.426600	-4.430453
0.426700	-4.492449
0.426800	-4.497643
0.426900	-4.489853
0.427000	-4.493748
0.427100	-4.509652
0.427200	-4.518416
0.427300	-4.519715
0.427400	-4.507056
0.427500	-4.493748
0.427600	-4.509328
0.427700	-4.517443
0.427800	-4.504135
0.427900	-4.468755
0.428000	-4.451876
0.428100	-4.453174
0.428200	-4.465184
0.428300	-4.446033
0.428400	-4.356123
0.428500	-4.272380
0.428600	-4.271081
0.428700	-4.341192
0.428800	-4.438893
0.428900	-4.463237
0.429000	-4.386310
0.429100	-4.279845
0.429200	-4.250632
0.429300	-4.307760
0.429400	-4.419417
0.429500	-4.484659
0.429600	-4.459017
0.429700	-4.399618
0.429800	-4.352553
0.429900	-4.343140
0.430000	-4.354825
0.430100	-4.355798
0.430200	-4.334376
0.430300	-4.304838
0.430400	-4.259396
0.430500	-4.209410
0.430600	-4.118201
0.430700	-4.009140
0.430800	-3.912414
0.430900	-3.835812
0.431000	-3.779009
0.431100	-3.720259
0.431200	-3.628402
0.431300	-3.508305
0.431400	-3.415149
0.431500	-3.299272
0.431600	-3.213258
0.431700	-3.135033
0.431800	-3.051939
0.431900	-2.951967
0.432000	-2.848749
0.432100	-2.731575
0.432200	-2.633875
0.432300	-2.557598
0.432400	-2.499822
0.432500	-2.442371
0.432600	-2.399201
0.432700	-2.377454
0.432800	-2.333960
0.432900	-2.307669
0.433000	-2.276509
0.433100	-2.263525
0.433200	-2.265473
0.433300	-2.271640
0.433400	-2.276184
0.433500	-2.234962
0.433600	-2.129148
0.433700	-1.988928
0.433800	-1.978217
0.433900	-2.103830
0.434000	-2.245998
0.434100	-2.251516
0.434200	-2.142456
0.434300	-2.020737
0.434400	-1.992498
0.434500	-2.064231
0.434600	-2.170694
0.434700	-2.224251
0.434800	-2.176862
0.434900	-2.111296
0.435000	-2.073969
0.435100	-2.089224
0.435200	-2.121358
0.435300	-2.139210
0.435400	-2.145702
0.435500	-2.140184
0.435600	-2.137912
0.435700	-2.142131
0.435800	-2.153492
0.435900	-2.148947
0.436000	-2.162904
0.436100	-2.189196
0.436200	-2.231391
0.436300	-2.259955
0.436400	-2.279754
0.436500	-2.258981
0.436600	-2.240480
0.436700	-2.278456
0.436800	-2.389139
0.436900	-2.461846
0.437000	-2.450485
0.437100	-2.365769
0.437200	-2.301177
0.437300	-2.330065
0.437400	-2.453406
0.437500	-2.561493
0.437600	-2.571555
0.437700	-2.495927
0.437800	-2.405368
0.437900	-2.400175
0.438000	-2.461521
0.438100	-2.516376
0.438200	-2.531307
0.438300	-2.511832
0.438400	-2.475803
0.438500	-2.479049
0.438600	-2.505989
0.438700	-2.532605
0.438800	-2.537798
0.438900	-2.523841
0.439000	-2.523517
0.439100	-2.510209
0.439200	-2.486189
0.439300	-2.458924
0.439400	-2.431984
0.439500	-2.424194
0.439600	-2.465741
0.439700	-2.495602
0.439800	-2.493330
0.439900	-2.435554
0.440000	-2.405044
0.440100	-2.398552
0.440200	-2.395631
0.440300	-2.384595
0.440400	-2.371611
0.440500	-2.366418
0.440600	-2.357654
0.440700	-2.343697
0.440800	-2.345969
0.440900	-2.345320
0.441000	-2.349215
0.441100	-2.369015
0.441200	-2.383296
0.441300	-2.403421
0.441400	-2.435554
0.441500	-2.462819
0.441600	-2.506963
0.441700	-2.555650
0.441800	-2.625760
0.441900	-2.766305
0.442000	-2.949046
0.442100	-3.056159
0.442200	-3.028569
0.442300	-2.948397
0.442400	-2.917561
0.442500	-3.024025
0.442600	-3.196704
0.442700	-3.321020
0.442800	-3.329459
0.442900	-3.263244
0.443000	-3.219425
0.443100	-3.256752
0.443200	-3.359645
0.443300	-3.455073
0.443400	-3.503112
0.443500	-3.512525
0.443600	-3.507981
0.443700	-3.530377
0.443800	-3.577117
0.443900	-3.625805
0.444000	-3.652745
0.444100	-3.673194
0.444200	-3.702732
0.444300	-3.746226
0.444400	-3.792317
0.444500	-3.822179
0.444600	-3.851067
0.444700	-3.879306
0.444800	-3.931889
0.444900	-3.965970
0.445000	-3.971164
0.445100	-3.909493
0.445200	-3.874437
0.445300	-3.921827
0.445400	-4.038353
0.445500	-4.153906
0.445600	-4.174355
0.445700	-4.099700
0.445800	-4.014658
0.445900	-4.019852
0.446000	-4.114955
0.446100	-4.235052
0.446200	-4.300619
0.446300	-4.293802
0.446400	-4.248360
0.446500	-4.216875
0.446600	-4.232780
0.446700	-4.275950
0.446800	-4.314251
0.446900	-4.326261
0.447000	-4.318146
0.447100	-4.291206
0.447200	-4.253878
0.447300	-4.199023
0.447400	-4.126640
0.447500	-4.076005
0.447600	-4.041274
0.447700	-4.019527
0.447800	-3.993560
0.447900	-3.927345
0.448000	-3.842628
0.448100	-3.783553
0.448200	-3.701109
0.448300	-3.645929
0.448400	-3.591074
0.448500	-3.512849
0.448600	-3.426185
0.448700	-3.317774
0.448800	-3.210012
0.448900	-3.120751
0.449000	-3.054536
0.449100	-3.007796
0.449200	-2.963977
0.449300	-2.935413
0.449400	-2.896139
0.449500	-2.851022
0.449600	-2.811747
0.449700	-2.779613
0.449800	-2.765656
0.449900	-2.749427
0.450000	-2.743260
0.450100	-2.715995
0.450200	-2.631927
0.450300	-2.451784
0.450400	-2.325196
0.450500	-2.337530
0.450600	-2.450485
0.450700	-2.533579
0.450800	-2.442371
0.450900	-2.308318
0.451000	-2.178484
0.451100	-2.154141
0.451200	-2.221005
0.451300	-2.302475
0.451400	-2.324871
0.451500	-2.267096
0.451600	-2.196661
0.451700	-2.152518
0.451800	-2.158036
0.451900	-2.186274
0.452000	-2.207697
0.452100	-2.226847
0.452200	-2.239181
0.452300	-2.247945
0.452400	-2.250866
0.452500	-2.266122
0.452600	-2.283000
0.452700	-2.349540
0.452800	-2.402122
0.452900	-2.467364
0.453000	-2.535526
0.453100	-2.566362
0.453200	-2.593951
0.453300	-2.599794
0.453400	-2.691326
0.453500	-2.818239
0.453600	-2.887050
0.453700	-2.853294
0.453800	-2.766305
0.453900	-2.730601
0.454000	-2.783508
0.454100	-2.907824
0.454200	-2.955213
0.454300	-2.907499
0.454400	-2.807203
0.454500	-2.738716
0.454600	-2.758191
0.454700	-2.809799
0.454800	-2.819861
0.454900	-2.811747
0.455000	-2.790974
0.455100	-2.777666
0.455200	-2.786754
0.455300	-2.798764
0.455400	-2.811422
0.455500	-2.808501
0.455600	-2.815317
0.455700	-2.828625
0.455800	-2.839986
0.455900	-2.831222
0.456000	-2.821484
0.456100	-2.810449
0.456200	-2.841284
0.456300	-2.908148
0.456400	-2.942230
0.456500	-2.941905
0.456600	-2.911719
0.456700	-2.927299
0.456800	-2.960082
0.456900	-2.986049
0.457000	-3.009419
0.457100	-3.029867
0.457200	-3.051615
0.457300	-3.069467
0.457400	-3.097056
0.457500	-3.118154
0.457600	-3.143796
0.457700	-3.174307
0.457800	-3.204169
0.457900	-3.241821
0.458000	-3.272657
0.458100	-3.303817
0.458200	-3.330433
0.458300	-3.370357
0.458400	-3.406710
0.458500	-3.482338
0.458600	-3.636841
0.458700	-3.776737
0.458800	-3.807897
0.458900	-3.732918
0.459000	-3.634893
0.459100	-3.623533
0.459200	-3.730321
0.459300	-3.862103
0.459400	-3.926046
0.459500	-3.888719
0.459600	-3.807897
0.459700	-3.769272
0.459800	-3.814714
0.459900	-3.898781
0.460000	-3.973761
0.460100	-4.001999
0.460200	-4.011737
0.460300	-4.013685
0.460400	-4.021150
0.460500	-4.044520
0.460600	-4.074707
0.460700	-4.098726
0.460800	-4.135080
0.460900	-4.169810
0.461000	-4.195453
0.461100	-4.240570
0.461200	-4.257773
0.461300	-4.263616
0.461400	-4.291206
0.461500	-4.323015
0.461600	-4.348982
0.461700	-4.307760
0.461800	-4.231157
0.461900	-4.205515
0.462000	-4.276924
0.462100	-4.406434
0.462200	-4.497643
0.462300	-4.480764
0.462400	-4.382739
0.462500	-4.325936
0.462600	-4.373001
0.462700	-4.509977
0.462800	-4.624232
0.462900	-4.653769
0.463000	-4.615792
0.463100	-4.588527
0.463200	-4.591773
0.463300	-4.618065
0.463400	-4.638189
0.463500	-4.641110
0.463600	-4.629750
0.463700	-4.612871
0.463800	-4.591773
0.463900	-4.541137
0.464000	-4.456096
0.464100	-4.364238
0.464200	-4.295750
0.464300	-4.237324
0.464400	-4.182469
0.464500	-4.093857
0.464600	-3.962400
0.464700	-3.832890
0.464800	-3.696240
0.464900	-3.553747
0.465000	-3.436247
0.465100	-3.325564
0.465200	-3.217477
0.465300	-3.108417
0.465400	-2.994163
0.465500	-2.892568
0.465600	-2.823756
0.465700	-2.784157
0.465800	-2.762410
0.465900	-2.752997
0.466000	-2.749751
0.466100	-2.743909
0.466200	-2.738066
0.466300	-2.732548
0.466400	-2.733847
0.466500	-2.724109
0.466600	-2.741637
0.466700	-2.733198
0.466800	-2.709503
0.466900	-2.594600
0.467000	-2.441397
0.467100	-2.340451
0.467200	-2.416404
0.467300	-2.535526
0.467400	-2.577397
0.467500	-2.490409
0.467600	-2.350838
0.467700	-2.246322
0.467800	-2.239506
0.467900	-2.303449
0.468000	-2.337855
0.468100	-2.290466
0.468200	-2.176537
0.468300	-2.065205
0.468400	-1.987630
0.468500	-1.947381
0.468600	-1.938942
0.468700	-1.921415
0.468800	-1.886035
0.468900	-1.841243
0.469000	-1.808460
0.469100	-1.797099
0.469200	-1.800994
0.469300	-1.828909
0.469400	-1.870455
0.469500	-1.912002
0.469600	-1.975295
0.469700	-2.039887
0.469800	-2.069749
0.469900	-2.095716
0.470000	-2.120709
0.470100	-2.245349
0.470200	-2.370962
0.470300	-2.415106
0.470400	-2.354084
0.470500	-2.294685
0.470600	-2.307019
0.470700	-2.422246
0.470800	-2.555975
0.470900	-2.620242
0.471000	-2.581942
0.471100	-2.514428
0.471200	-2.512481
0.471300	-2.590705
0.471400	-2.677369
0.471500	-2.727355
0.471600	-2.755594
0.471700	-2.766305
0.471800	-2.806554
0.471900	-2.866926
0.472000	-2.918535
0.472100	-2.948397
0.472200	-2.958783
0.472300	-2.982803
0.472400	-2.997734
0.472500	-3.002602
0.472600	-2.980855
0.472700	-2.962354
0.472800	-2.947098
0.472900	-2.973390
0.473000	-3.012015
0.473100	-3.018182
0.473200	-2.986373
0.473300	-2.922755
0.473400	-2.907175
0.473500	-2.895165
0.473600	-2.870172
0.473700	-2.850372
0.473800	-2.823756
0.473900	-2.800386
0.474000	-2.774420
0.474100	-2.760787
0.474200	-2.743260
0.474300	-2.737093
0.474400	-2.728653
0.474500	-2.727680
0.474600	-2.732224
0.474700	-2.743260
0.474800	-2.762735
0.474900	-2.788377
0.475000	-2.830573
0.475100	-2.879260
0.475200	-2.984426
0.475300	-3.165544
0.475400	-3.306089
0.475500	-3.331731
0.475600	-3.264867
0.475700	-3.241496
0.475800	-3.328485
0.475900	-3.520964
0.476000	-3.703705
0.476100	-3.797186
0.476200	-3.797186
0.476300	-3.771868
0.476400	-3.803353
0.476500	-3.896185
0.476600	-4.010114
0.476700	-4.080225
0.476800	-4.100674
0.476900	-4.088015
0.477000	-4.057504
0.477100	-4.037704
0.477200	-4.026668
0.477300	-4.007193
0.477400	-3.988691
0.477500	-3.963698
0.477600	-3.945522
0.477700	-3.943899
0.477800	-3.951040
0.477900	-3.940328
0.478000	-3.937407
0.478100	-3.952338
0.478200	-3.975059
0.478300	-3.978629
0.478400	-3.905922
0.478500	-3.821205
0.478600	-3.826399
0.478700	-3.927345
0.478800	-4.042248
0.478900	-4.102297
0.479000	-4.049389
0.479100	-3.949092
0.479200	-3.920204
0.479300	-3.999078
0.479400	-4.130536
0.479500	-4.219797
0.479600	-4.230183
0.479700	-4.193181
0.479800	-4.176302
0.479900	-4.195777
0.480000	-4.236675
0.480100	-4.256800
0.480200	-4.249009
0.480300	-4.231157
0.480400	-4.205840
0.480500	-4.172083
0.480600	-4.097752
0.480700	-4.002973
0.480800	-3.912414
0.480900	-3.864700
0.481000	-3.840680
0.481100	-3.820881
0.481200	-3.768298
0.481300	-3.688125
0.481400	-3.630674
0.481500	-3.548229
0.481600	-3.506033
0.481700	-3.469030
0.481800	-3.432677
0.481900	-3.383664
0.482000	-3.322967
0.482100	-3.249936
0.482200	-3.187615
0.482300	-3.148016
0.482400	-3.119777
0.482500	-3.090565
0.482600	-3.068493
0.482700	-3.045447
0.482800	-3.013638
0.482900	-2.975013
0.483000	-2.943853
0.483100	-2.906201
0.483200	-2.892568
0.483300	-2.878936
0.483400	-2.846153
0.483500	-2.778315
0.483600	-2.642314
0.483700	-2.463469
0.483800	-2.436853
0.483900	-2.533254
0.484000	-2.670553
0.484100	-2.646858
0.484200	-2.551755
0.484300	-2.410886
0.484400	-2.360900
0.484500	-2.407316
0.484600	-2.484242
0.484700	-2.514104
0.484800	-2.478075
0.484900	-2.399526
0.485000	-2.336232
0.485100	-2.299229
0.485200	-2.284623
0.485300	-2.280404
0.485400	-2.283649
0.485500	-2.265797
0.485600	-2.239506
0.485700	-2.219057
0.485800	-2.199258
0.485900	-2.186924
0.486000	-2.211267
0.486100	-2.237234
0.486200	-2.281053
0.486300	-2.322599
0.486400	-2.342399
0.486500	-2.341750
0.486600	-2.331363
0.486700	-2.375831
0.486800	-2.491707
0.486900	-2.581942
0.487000	-2.570257
0.487100	-2.490084
0.487200	-2.435554
0.487300	-2.476776
0.487400	-2.609531
0.487500	-2.710801
0.487600	-2.725732
0.487700	-2.653999
0.487800	-2.601092
0.487900	-2.636147
0.488000	-2.725732
0.488100	-2.786429
0.488200	-2.793570
0.488300	-2.785131
0.488400	-2.798439
0.488500	-2.840959
0.488600	-2.888998
0.488700	-2.900034
0.488800	-2.886726
0.488900	-2.889647
0.489000	-2.918210
0.489100	-2.945476
0.489200	-2.958783
0.489300	-2.953266
0.489400	-2.943528
0.489500	-2.962678
0.489600	-3.034412
0.489700	-3.096083
0.489800	-3.123997
0.489900	-3.136331
0.490000	-3.122698
0.490100	-3.120751
0.490200	-3.113286
0.490300	-3.099004
0.490400	-3.078230
0.490500	-3.056808
0.490600	-3.034736
0.490700	-3.013638
0.490800	-2.995461
0.490900	-2.975337
0.491000	-2.957161
0.491100	-2.950669
0.491200	-2.953915
0.491300	-2.959757
0.491400	-2.969495
0.491500	-2.987022
0.491600	-3.004874
0.491700	-3.031815
0.491800	-3.066870
0.491900	-3.181773
0.492000	-3.339846
0.492100	-3.428782
0.492200	-3.394051
0.492300	-3.315177
0.492400	-3.282719
0.492500	-3.385937
0.492600	-3.550826
0.492700	-3.675142
0.492800	-3.680335
0.492900	-3.617041
0.493000	-3.557642
0.493100	-3.574520
0.493200	-3.656316
0.493300	-3.739410
0.493400	-3.782904
0.493500	-3.781606
0.493600	-3.770570
0.493700	-3.771219
0.493800	-3.780632
0.493900	-3.800107
0.494000	-3.802379
0.494100	-3.804651
0.494200	-3.803028
0.494300	-3.816661
0.494400	-3.836785
0.494500	-3.843926
0.494600	-3.833864
0.494700	-3.818609
0.494800	-3.829644
0.494900	-3.844251
0.495000	-3.814389
0.495100	-3.727725
0.495200	-3.667676
0.495300	-3.703705
0.495400	-3.823153
0.495500	-3.929941
0.495600	-3.942276
0.495700	-3.845874
0.495800	-3.750121
0.495900	-3.747524
0.496000	-3.861454
0.496100	-3.986744
0.496200	-4.042573
0.496300	-4.005570
0.496400	-3.952338
0.496500	-3.940653
0.496600	-3.956882
0.496700	-3.969216
0.496800	-3.954285
0.496900	-3.917932
0.497000	-3.880929
0.497100	-3.834189
0.497200	-3.770245
0.497300	-3.687476
0.497400	-3.568353
0.497500	-3.455722
0.497600	-3.361593
0.497700	-3.285315
0.497800	-3.198651
0.497900	-3.070116
0.498000	-2.933790
0.498100	-2.783508
0.498200	-2.665360
0.498300	-2.583240
0.498400	-2.502094
0.498500	-2.419974
0.498600	-2.342399
0.498700	-2.252814
0.498800	-2.175239
0.498900	-2.126876
0.499000	-2.103830
0.499100	-2.091821
0.499200	-2.076890
0.499300	-2.082083
0.499400	-2.066503
0.499500	-2.059687
0.499600	-2.052546
0.499700	-2.045405
0.499800	-2.041510
0.499900	-2.039563
0.500000	-2.035992
0.500100	-2.016517
0.500200	-1.937319
0.500300	-1.793204
0.500400	-1.669863
0.500500	-1.706541
0.500600	-1.834751
0.500700	-1.939267
0.500800	-1.909730
0.500900	-1.800670
0.501000	-1.700698
0.501100	-1.695181
0.501200	-1.786064
0.501300	-1.886360
0.501400	-1.936670
0.501500	-1.902913
0.501600	-1.843190
0.501700	-1.814627
0.501800	-1.834102
0.501900	-1.886035
0.502000	-1.933749
0.502100	-1.972374
0.502200	-1.982761
0.502300	-1.984708
0.502400	-1.992498
0.502500	-2.023658
0.502600	-2.063907
0.502700	-2.119735
0.502800	-2.154465
0.502900	-2.207372
0.503000	-2.262876
0.503100	-2.320652
0.503200	-2.332337
0.503300	-2.361225
0.503400	-2.435554
0.503500	-2.597846
0.503600	-2.679317
0.503700	-2.670553
0.503800	-2.600443
0.503900	-2.584538
0.504000	-2.682887
0.504100	-2.847451
0.504200	-2.950344
0.504300	-2.954888
0.504400	-2.879585
0.504500	-2.848100
0.504600	-2.912043
0.504700	-3.014287
0.504800	-3.075958
0.504900	-3.098355
0.505000	-3.090889
0.505100	-3.103548
0.505200	-3.141849
0.505300	-3.190861
0.505400	-3.239224
0.505500	-3.268112
0.505600	-3.291158
0.505700	-3.315177
0.505800	-3.329783
0.505900	-3.320046
0.506000	-3.303492
0.506100	-3.284342
0.506200	-3.301220
0.506300	-3.343416
0.506400	-3.371006
0.506500	-3.355426
0.506600	-3.305440
0.506700	-3.302518
0.506800	-3.312905
0.506900	-3.311607
0.507000	-3.310308
0.507100	-3.301545
0.507200	-3.290833
0.507300	-3.282719
0.507400	-3.274929
0.507500	-3.270709
0.507600	-3.263244
0.507700	-3.262270
0.507800	-3.268112
0.507900	-3.273630
0.508000	-3.284017
0.508100	-3.297325
0.508200	-3.316151
0.508300	-3.347636
0.508400	-3.378796
0.508500	-3.446309
0.508600	-3.591074
0.508700	-3.746875
0.508800	-3.791993
0.508900	-3.730646
0.509000	-3.644631
0.509100	-3.648201
0.509200	-3.763754
0.509300	-3.917283
0.509400	-3.987718
0.509500	-3.956233
0.509600	-3.867946
0.509700	-3.814714
0.509800	-3.828995
0.509900	-3.888394
0.510000	-3.933512
0.510100	-3.946820
0.510200	-3.922151
0.510300	-3.886122
0.510400	-3.852365
0.510500	-3.839707
0.510600	-3.837435
0.510700	-3.827697
0.510800	-3.819582
0.510900	-3.816661
0.511000	-3.809845
0.511100	-3.824776
0.511200	-3.821854
0.511300	-3.814389
0.511400	-3.829320
0.511500	-3.855936
0.511600	-3.872490
0.511700	-3.832566
0.511800	-3.747849
0.511900	-3.714741
0.512000	-3.786799
0.512100	-3.906247
0.512200	-3.998429
0.512300	-3.970839
0.512400	-3.863401
0.512500	-3.786799
0.512600	-3.815038
0.512700	-3.940004
0.512800	-4.060425
0.512900	-4.101647
0.513000	-4.066592
0.513100	-4.037379
0.513200	-4.043222
0.513300	-4.072435
0.513400	-4.111060
0.513500	-4.123719
0.513600	-4.126316
0.513700	-4.108788
0.513800	-4.068540
0.513900	-4.009140
0.514000	-3.913712
0.514100	-3.801730
0.514200	-3.705977
0.514300	-3.630674
0.514400	-3.549527
0.514500	-3.458644
0.514600	-3.327511
0.514700	-3.218451
0.514800	-3.099978
0.514900	-3.007796
0.515000	-2.935413
0.515100	-2.881857
0.515200	-2.821160
0.515300	-2.762410
0.515400	-2.678018
0.515500	-2.604338
0.515600	-2.560844
0.515700	-2.528385
0.515800	-2.515077
0.515900	-2.494304
0.516000	-2.490409
0.516100	-2.475803
0.516200	-2.454056
0.516300	-2.427440
0.516400	-2.401149
0.516500	-2.405368
0.516600	-2.401473
0.516700	-2.413483
0.516800	-2.389788
0.516900	-2.298256
0.517000	-2.148947
0.517100	-2.073320
0.517200	-2.168747
0.517300	-2.302800
0.517400	-2.377454
0.517500	-2.315459
0.517600	-2.196986
0.517700	-2.131420
0.517800	-2.155439
0.517900	-2.256709
0.518000	-2.332986
0.518100	-2.343373
0.518200	-2.287544
0.518300	-2.242427
0.518400	-2.228470
0.518500	-2.235286
0.518600	-2.271640
0.518700	-2.302800
0.518800	-2.331039
0.518900	-2.341425
0.519000	-2.353759
0.519100	-2.361549
0.519200	-2.376480
0.519300	-2.424843
0.519400	-2.449187
0.519500	-2.500147
0.519600	-2.535202
0.519700	-2.582591
0.519800	-2.574476
0.519900	-2.581617
0.520000	-2.587459
0.520100	-2.689379
0.520200	-2.806554
0.520300	-2.840635
0.520400	-2.779938
0.520500	-2.709828
0.520600	-2.726706
0.520700	-2.845828
0.520800	-2.987671
0.520900	-3.047070
0.521000	-3.004225
0.521100	-2.930220
0.521200	-2.916588
0.521300	-2.982154
0.521400	-3.060703
0.521500	-3.076283
0.521600	-3.070765
0.521700	-3.044474
0.521800	-3.066870
0.521900	-3.090565
0.522000	-3.124971
0.522100	-3.149964
0.522200	-3.161973
0.522300	-3.179176
0.522400	-3.203195
0.522500	-3.213907
0.522600	-3.195405
0.522700	-3.170088
0.522800	-3.155157
0.522900	-3.206766
0.523000	-3.260647
0.523100	-3.289535
0.523200	-3.276227
0.523300	-3.247014
0.523400	-3.262270
0.523500	-3.282069
0.523600	-3.282719
0.523700	-3.280122
0.523800	-3.268762
0.523900	-3.257401
0.524000	-3.224943
0.524100	-3.197028
0.524200	-3.160350
0.524300	-3.121400
0.524400	-3.075958
0.524500	-3.018182
0.524600	-2.976960
0.524700	-2.938335
0.524800	-2.909447
0.524900	-2.876664
0.525000	-2.874392
0.525100	-2.872120
0.525200	-2.933141
0.525300	-3.073686
0.525400	-3.175281
0.525500	-3.165544
0.525600	-3.064273
0.525700	-2.977934
0.525800	-3.003251
0.525900	-3.137954
0.526000	-3.268112
0.526100	-3.305440
0.526200	-3.245716
0.526300	-3.159701
0.526400	-3.146069
0.526500	-3.191510
0.526600	-3.259673
0.526700	-3.302194
0.526800	-3.291482
0.526900	-3.250260
0.527000	-3.220074
0.527100	-3.203195
0.527200	-3.205468
0.527300	-3.187615
0.527400	-3.177878
0.527500	-3.161324
0.527600	-3.155482
0.527700	-3.159052
0.527800	-3.178527
0.527900	-3.168789
0.528000	-3.171386
0.528100	-3.197028
0.528200	-3.250585
0.528300	-3.286289
0.528400	-3.268437
0.528500	-3.227864
0.528600	-3.281096
0.528700	-3.440467
0.528800	-3.622234
0.528900	-3.743305
0.529000	-3.748174
0.529100	-3.712794
0.529200	-3.745577
0.529300	-3.885149
0.529400	-4.087041
0.529500	-4.236351
0.529600	-4.299645
0.529700	-4.297048
0.529800	-4.309058
0.529900	-4.366185
0.530000	-4.444086
0.530100	-4.499590
0.530200	-4.527829
0.530300	-4.559314
0.530400	-4.575219
0.530500	-4.588203
0.530600	-4.572298
0.530700	-4.531724
0.530800	-4.498292
0.530900	-4.490502
0.531000	-4.496020
0.531100	-4.510951
0.531200	-4.490177
0.531300	-4.429480
0.531400	-4.376572
0.531500	-4.290232
0.531600	-4.254203
0.531700	-4.218174
0.531800	-4.180522
0.531900	-4.119175
0.532000	-4.049389
0.532100	-3.960777
0.532200	-3.883201
0.532300	-3.817959
0.532400	-3.776088
0.532500	-3.744279
0.532600	-3.710197
0.532700	-3.685853
0.532800	-3.639437
0.532900	-3.601786
0.533000	-3.557642
0.533100	-3.519990
0.533200	-3.485260
0.533300	-3.451827
0.533400	-3.401192
0.533500	-3.309984
0.533600	-3.140875
0.533700	-2.924378
0.533800	-2.848425
0.533900	-2.911070
0.534000	-2.975986
0.534100	-2.947748
0.534200	-2.764033
0.534300	-2.594600
0.534400	-2.478724
0.534500	-2.477101
0.534600	-2.505989
0.534700	-2.497874
0.534800	-2.417053
0.534900	-2.282026
0.535000	-2.166475
0.535100	-2.083382
0.535200	-2.059038
0.535300	-2.040212
0.535400	-2.016517
0.535500	-1.976269
0.535600	-1.934398
0.535700	-1.897071
0.535800	-1.870780
0.535900	-1.870455
0.536000	-1.879868
0.536100	-1.907133
0.536200	-1.932451
0.536300	-1.975295
0.536400	-1.993797
0.536500	-1.991849
0.536600	-1.978217
0.536700	-2.007754
0.536800	-2.117463
0.536900	-2.195038
0.537000	-2.175888
0.537100	-2.093119
0.537200	-2.023658
0.537300	-2.050599
0.537400	-2.166475
0.537500	-2.279430
0.537600	-2.297282
0.537700	-2.233339
0.537800	-2.160308
0.537900	-2.163229
0.538000	-2.234637
0.538100	-2.296308
0.538200	-2.320003
0.538300	-2.329416
0.538400	-2.329416
0.538500	-2.375506
0.538600	-2.423545
0.538700	-2.476452
0.538800	-2.508261
0.538900	-2.533903
0.539000	-2.567011
0.539100	-2.595574
0.539200	-2.610830
0.539300	-2.584538
0.539400	-2.556624
0.539500	-2.571230
0.539600	-2.649455
0.539700	-2.725083
0.539800	-2.778964
0.539900	-2.813370
0.540000	-2.840959
0.540100	-2.866602
0.540200	-2.890621
0.540300	-2.910420
0.540400	-2.933141
0.540500	-2.958783
0.540600	-2.977285
0.540700	-3.006173
0.540800	-3.042851
0.540900	-3.082450
0.541000	-3.122698
0.541100	-3.158078
0.541200	-3.189563
0.541300	-3.223320
0.541400	-3.257401
0.541500	-3.293755
0.541600	-3.339196
0.541700	-3.381717
0.541800	-3.432028
0.541900	-3.549527
0.542000	-3.720584
0.542100	-3.822504
0.542200	-3.783878
0.542300	-3.690397
0.542400	-3.656640
0.542500	-3.751419
0.542600	-3.923450
0.542700	-4.049389
0.542800	-4.076979
0.542900	-4.028291
0.543000	-3.986095
0.543100	-4.017904
0.543200	-4.104244
0.543300	-4.200322
0.543400	-4.254852
0.543500	-4.283091
0.543600	-4.283091
0.543700	-4.289907
0.543800	-4.314576
0.543900	-4.339245
0.544000	-4.367159
0.544100	-4.389231
0.544200	-4.398319
0.544300	-4.414873
0.544400	-4.441165
0.544500	-4.457069
0.544600	-4.448955
0.544700	-4.439542
0.544800	-4.466482
0.544900	-4.481738
0.545000	-4.469728
0.545100	-4.382415
0.545200	-4.304838
0.545300	-4.328858
0.545400	-4.440191
0.545500	-4.524908
0.545600	-4.534321
0.545700	-4.435971
0.545800	-4.327884
0.545900	-4.311005
0.546000	-4.396696
0.546100	-4.499590
0.546200	-4.534646
0.546300	-4.495695
0.546400	-4.429480
0.546500	-4.375274
0.546600	-4.354825
0.546700	-4.336648
0.546800	-4.303215
0.546900	-4.253229
0.547000	-4.194154
0.547100	-4.138975
0.547200	-4.074707
0.547300	-3.970515
0.547400	-3.852041
0.547500	-3.741682
0.547600	-3.655991
0.547700	-3.595943
0.547800	-3.524210
0.547900	-3.403464
0.548000	-3.268437
0.548100	-3.124971
0.548200	-2.988970
0.548300	-2.886726
0.548400	-2.791298
0.548500	-2.696195
0.548600	-2.588433
0.548700	-2.469960
0.548800	-2.358628
0.548900	-2.266771
0.549000	-2.202504
0.549100	-2.139859
0.549200	-2.085978
0.549300	-2.039563
0.549400	-1.992823
0.549500	-1.933100
0.549600	-1.875973
0.549700	-1.813653
0.549800	-1.763018
0.549900	-1.713682
0.550000	-1.690636
0.550100	-1.637405
0.550200	-1.523152
0.550300	-1.344307
0.550400	-1.164164
0.550500	-1.135600
0.550600	-1.245634
0.550700	-1.294646
0.550800	-1.256670
0.550900	-1.101844
0.551000	-0.991811
0.551100	-0.949290
0.551200	-1.016803
0.551300	-1.081395
0.551400	-1.094054
0.551500	-1.038226
0.551600	-0.969414
0.551700	-0.929166
0.551800	-0.920727
0.551900	-0.936956
0.552000	-0.960002
0.552100	-0.971686
0.552200	-0.977854
0.552300	-0.990512
0.552400	-1.007390
0.552500	-1.034331
0.552600	-1.085939
0.552700	-1.117099
0.552800	-1.194674
0.552900	-1.251476
0.553000	-1.342035
0.553100	-1.400460
0.553200	-1.422856
0.553300	-1.461806
0.553400	-1.561452
0.553500	-1.730885
0.553600	-1.822417
0.553700	-1.812355
0.553800	-1.764641
0.553900	-1.758799
0.554000	-1.859095
0.554100	-2.035992
0.554200	-2.151219
0.554300	-2.163554
0.554400	-2.109024
0.554500	-2.103830
0.554600	-2.176212
0.554700	-2.287544
0.554800	-2.360900
0.554900	-2.397254
0.555000	-2.414781
0.555100	-2.455354
0.555200	-2.535202
0.555300	-2.618944
0.555400	-2.684835
0.555500	-2.724434
0.555600	-2.764033
0.555700	-2.816940
0.555800	-2.873093
0.555900	-2.907499
0.556000	-2.929571
0.556100	-2.936712
0.556200	-2.976636
0.556300	-3.063949
0.556400	-3.124971
0.556500	-3.162622
0.556600	-3.153209
0.556700	-3.190212
0.556800	-3.246365
0.556900	-3.287263
0.557000	-3.322967
0.557100	-3.358347
0.557200	-3.391455
0.557300	-3.429431
0.557400	-3.457345
0.557500	-3.488830
0.557600	-3.516420
0.557700	-3.536544
0.557800	-3.555695
0.557900	-3.574520
0.558000	-3.585881
0.558100	-3.592373
0.558200	-3.593996
0.558300	-3.607953
0.558400	-3.625805
0.558500	-3.661834
0.558600	-3.775439
0.558700	-3.895535
0.558800	-3.918256
0.558900	-3.816986
0.559000	-3.691371
0.559100	-3.656316
0.559200	-3.752718
0.559300	-3.884175
0.559400	-3.954610
0.559500	-3.925722
0.559600	-3.839707
0.559700	-3.799133
0.559800	-3.837435
0.559900	-3.932538
0.560000	-4.010439
0.560100	-4.050687
0.560200	-4.053933
0.560300	-4.042897
0.560400	-4.042573
0.560500	-4.065943
0.560600	-4.093857
0.560700	-4.103595
0.560800	-4.110087
0.560900	-4.113332
0.561000	-4.133132
0.561100	-4.164617
0.561200	-4.176302
0.561300	-4.164292
0.561400	-4.161696
0.561500	-4.175653
0.561600	-4.191558
0.561700	-4.146116
0.561800	-4.052310
0.561900	-4.002649
0.562000	-4.047442
0.562100	-4.139949
0.562200	-4.199023
0.562300	-4.175004
0.562400	-4.062697
0.562500	-3.978305
0.562600	-3.992262
0.562700	-4.095805
0.562800	-4.188312
0.562900	-4.207462
0.563000	-4.156502
0.563100	-4.090936
0.563200	-4.063671
0.563300	-4.073408
0.563400	-4.086716
0.563500	-4.081198
0.563600	-4.052310
0.563700	-4.023098
0.563800	-3.992262
0.563900	-3.948443
0.564000	-3.873139
0.564100	-3.788098
0.564200	-3.723505
0.564300	-3.691371
0.564400	-3.664431
0.564500	-3.631323
0.564600	-3.564458
0.564700	-3.505059
0.564800	-3.422615
0.564900	-3.362891
0.565000	-3.315502
0.565100	-3.277850
0.565200	-3.234356
0.565300	-3.183720
0.565400	-3.110689
0.565500	-3.051615
0.565600	-3.007796
0.565700	-2.985724
0.565800	-2.966898
0.565900	-2.955538
0.566000	-2.942230
0.566100	-2.923404
0.566200	-2.899060
0.566300	-2.888349
0.566400	-2.884129
0.566500	-2.895814
0.566600	-2.919509
0.566700	-2.935089
0.566800	-2.933466
0.566900	-2.853294
0.567000	-2.713723
0.567100	-2.647832
0.567200	-2.728978
0.567300	-2.875365
0.567400	-2.929246
0.567500	-2.845179
0.567600	-2.729627
0.567700	-2.646209
0.567800	-2.652376
0.567900	-2.735794
0.568000	-2.793570
0.568100	-2.788052
0.568200	-2.726706
0.568300	-2.661465
0.568400	-2.619269
0.568500	-2.611803
0.568600	-2.627059
0.568700	-2.651727
0.568800	-2.652052
0.568900	-2.639068
0.569000	-2.626410
0.569100	-2.604987
0.569200	-2.604987
0.569300	-2.622839
0.569400	-2.668930
0.569500	-2.674448
0.569600	-2.726381
0.569700	-2.751699
0.569800	-2.764033
0.569900	-2.772472
0.570000	-2.788701
0.570100	-2.887050
0.570200	-2.988321
0.570300	-3.008769
0.570400	-2.950993
0.570500	-2.885752
0.570600	-2.880559
0.570700	-2.978583
0.570800	-3.096083
0.570900	-3.142174
0.571000	-3.098679
0.571100	-3.024674
0.571200	-3.012015
0.571300	-3.065572
0.571400	-3.133734
0.571500	-3.152236
0.571600	-3.159052
0.571700	-3.147042
0.571800	-3.161324
0.571900	-3.186966
0.572000	-3.224618
0.572100	-3.252857
0.572200	-3.263244
0.572300	-3.275253
0.572400	-3.294728
0.572500	-3.298623
0.572600	-3.279473
0.572700	-3.251559
0.572800	-3.244418
0.572900	-3.280447
0.573000	-3.326213
0.573100	-3.343741
0.573200	-3.306413
0.573300	-3.256427
0.573400	-3.243444
0.573500	-3.234356
0.573600	-3.222995
0.573700	-3.210985
0.573800	-3.189238
0.573900	-3.169114
0.574000	-3.149314
0.574100	-3.129515
0.574200	-3.119777
0.574300	-3.113935
0.574400	-3.113610
0.574500	-3.111987
0.574600	-3.124971
0.574700	-3.124971
0.574800	-3.130489
0.574900	-3.138928
0.575000	-3.153534
0.575100	-3.177229
0.575200	-3.236303
0.575300	-3.392104
0.575400	-3.508305
0.575500	-3.517718
0.575600	-3.425536
0.575700	-3.354452
0.575800	-3.390156
0.575900	-3.531675
0.576000	-3.675466
0.576100	-3.725453
0.576200	-3.691696
0.576300	-3.643657
0.576400	-3.648850
0.576500	-3.721558
0.576600	-3.808871
0.576700	-3.871516
0.576800	-3.896509
0.576900	-3.909168
0.577000	-3.908843
0.577100	-3.922476
0.577200	-3.943249
0.577300	-3.957856
0.577400	-3.958180
0.577500	-3.969865
0.577600	-3.978305
0.577700	-3.988042
0.577800	-4.002324
0.577900	-3.993885
0.578000	-3.993236
0.578100	-4.006544
0.578200	-4.028616
0.578300	-4.037704
0.578400	-3.981551
0.578500	-3.890991
0.578600	-3.877683
0.578700	-3.967593
0.578800	-4.066592
0.578900	-4.103270
0.579000	-4.028940
0.579100	-3.907870
0.579200	-3.855611
0.579300	-3.909168
0.579400	-4.015308
0.579500	-4.072759
0.579600	-4.037379
0.579700	-3.972138
0.579800	-3.919879
0.579900	-3.915335
0.580000	-3.917932
0.580100	-3.899755
0.580200	-3.871516
0.580300	-3.836785
0.580400	-3.807573
0.580500	-3.779658
0.580600	-3.717338
0.580700	-3.627428
0.580800	-3.539141
0.580900	-3.484286
0.581000	-3.447608
0.581100	-3.428457
0.581200	-3.371979
0.581300	-3.278174
0.581400	-3.216503
0.581500	-3.122374
0.581600	-3.064273
0.581700	-3.007146
0.581800	-2.943853
0.581900	-2.866277
0.582000	-2.796491
0.582100	-2.722162
0.582200	-2.665684
0.582300	-2.627059
0.582400	-2.612128
0.582500	-2.598495
0.582600	-2.596548
0.582700	-2.603689
0.582800	-2.599469
0.582900	-2.604662
0.583000	-2.583240
0.583100	-2.602715
0.583200	-2.598820
0.583300	-2.633875
0.583400	-2.646858
0.583500	-2.629655
0.583600	-2.535526
0.583700	-2.410886
0.583800	-2.380051
0.583900	-2.510209
0.584000	-2.641990
0.584100	-2.680290
0.584200	-2.564414
0.584300	-2.449511
0.584400	-2.378103
0.584500	-2.432633
0.584600	-2.497874
0.584700	-2.533254
0.584800	-2.475154
0.584900	-2.379726
0.585000	-2.307344
0.585100	-2.277482
0.585200	-2.285921
0.585300	-2.283000
0.585400	-2.284623
0.585500	-2.269692
0.585600	-2.234313
0.585700	-2.218408
0.585800	-2.194714
0.585900	-2.177511
0.586000	-2.161931
0.586100	-2.183678
0.586200	-2.177186
0.586300	-2.197310
0.586400	-2.201854
0.586500	-2.178160
0.586600	-2.149921
0.586700	-2.154465
0.586800	-2.249893
0.586900	-2.330065
0.587000	-2.320327
0.587100	-2.221654
0.587200	-2.137587
0.587300	-2.151219
0.587400	-2.259630
0.587500	-2.358953
0.587600	-2.360251
0.587700	-2.274236
0.587800	-2.187897
0.587900	-2.178484
0.588000	-2.251840
0.588100	-2.309291
0.588200	-2.323898
0.588300	-2.319354
0.588400	-2.302475
0.588500	-2.327793
0.588600	-2.367067
0.588700	-2.395631
0.588800	-2.403096
0.588900	-2.399526
0.589000	-2.401798
0.589100	-2.396929
0.589200	-2.392385
0.589300	-2.358628
0.589400	-2.329091
0.589500	-2.329091
0.589600	-2.380375
0.589700	-2.422896
0.589800	-2.441721
0.589900	-2.408289
0.590000	-2.387841
0.590100	-2.408939
0.590200	-2.436528
0.590300	-2.456328
0.590400	-2.473206
0.590500	-2.486514
0.590600	-2.503717
0.590700	-2.531307
0.590800	-2.559221
0.590900	-2.592653
0.591000	-2.623164
0.591100	-2.655947
0.591200	-2.701388
0.591300	-2.738391
0.591400	-2.777016
0.591500	-2.819537
0.591600	-2.868224
0.591700	-2.912693
0.591800	-2.976636
0.591900	-3.105171
0.592000	-3.286289
0.592100	-3.405736
0.592200	-3.395999
0.592300	-3.308361
0.592400	-3.266814
0.592500	-3.346986
0.592600	-3.519341
0.592700	-3.658263
0.592800	-3.688450
0.592900	-3.630349
0.593000	-3.579065
0.593100	-3.599189
0.593200	-3.692020
0.593300	-3.801081
0.593400	-3.862752
0.593500	-3.875736
0.593600	-3.874762
0.593700	-3.879631
0.593800	-3.898132
0.593900	-3.926371
0.594000	-3.938056
0.594100	-3.943249
0.594200	-3.936433
0.594300	-3.925073
0.594400	-3.929617
0.594500	-3.917607
0.594600	-3.891316
0.594700	-3.855611
0.594800	-3.834513
0.594900	-3.807248
0.595000	-3.755314
0.595100	-3.640411
0.595200	-3.537193
0.595300	-3.524210
0.595400	-3.613795
0.595500	-3.688774
0.595600	-3.682932
0.595700	-3.564783
0.595800	-3.440791
0.595900	-3.404113
0.596000	-3.479417
0.596100	-3.588478
0.596200	-3.640736
0.596300	-3.599838
0.596400	-3.524210
0.596500	-3.477470
0.596600	-3.465135
0.596700	-3.478119
0.596800	-3.465784
0.596900	-3.445985
0.597000	-3.404763
0.597100	-3.360294
0.597200	-3.303492
0.597300	-3.225267
0.597400	-3.145419
0.597500	-3.085371
0.597600	-3.049342
