LabVIEW Measurement	
Writer_Version	2
Reader_Version	2
Separator	Tab
Decimal_Separator	.
Multi_Headings	Yes
X_Columns	One
Time_Pref	Relative
Operator	as989
Description	Time Domain Data
Date	1903/12/31
Time	19:00:00
***End_of_Header***	
	
Channels	1	
Samples	15000	
Date	1903/12/31	
Time	19:00:00	
X_Dimension	Time	
X0	0.0000000000000000E+0	
Delta_X	0.000100	
***End_of_Header***		
X_Value	Untitled	Comment
0.000000	-1.378388	Tare Values:0.000000, 0.000000, 0.000000, 0.000000\0D\0A
0.000100	-1.350149
0.000200	-1.333271
0.000300	-1.310875
0.000400	-1.290751
0.000500	-1.267056
0.000600	-1.250503
0.000700	-1.243037
0.000800	-1.245309
0.000900	-1.256345
0.001000	-1.239791
0.001100	-1.211228
0.001200	-1.069386
0.001300	-0.955457
0.001400	-0.911963
0.001500	-1.034006
0.001600	-1.131705
0.001700	-1.122293
0.001800	-1.021023
0.001900	-0.890216
0.002000	-0.857434
0.002100	-0.898980
0.002200	-0.973309
0.002300	-0.992135
0.002400	-0.945071
0.002500	-0.873663
0.002600	-0.800632
0.002700	-0.786026
0.002800	-0.793491
0.002900	-0.823677
0.003000	-0.828546
0.003100	-0.801281
0.003200	-0.782131
0.003300	-0.772718
0.003400	-0.780832
0.003500	-0.802904
0.003600	-0.843152
0.003700	-0.850293
0.003800	-0.890866
0.003900	-0.932412
0.004000	-0.958703
0.004100	-0.960326
0.004200	-0.954159
0.004300	-0.993433
0.004400	-1.117424
0.004500	-1.183963
0.004600	-1.168059
0.004700	-1.084966
0.004800	-1.042770
0.004900	-1.076851
0.005000	-1.192078
0.005100	-1.287180
0.005200	-1.295944
0.005300	-1.224536
0.005400	-1.166111
0.005500	-1.177796
0.005600	-1.248555
0.005700	-1.310226
0.005800	-1.335868
0.005900	-1.320937
0.006000	-1.304059
0.006100	-1.322235
0.006200	-1.365729
0.006300	-1.407600
0.006400	-1.422531
0.006500	-1.428698
0.006600	-1.448498
0.006700	-1.457262
0.006800	-1.458235
0.006900	-1.447849
0.007000	-1.439409
0.007100	-1.457911
0.007200	-1.510818
0.007300	-1.546522
0.007400	-1.558207
0.007500	-1.560154
0.007600	-1.539056
0.007700	-1.535161
0.007800	-1.530942
0.007900	-1.519906
0.008000	-1.514713
0.008100	-1.505949
0.008200	-1.490694
0.008300	-1.478684
0.008400	-1.471543
0.008500	-1.471868
0.008600	-1.474464
0.008700	-1.471868
0.008800	-1.472517
0.008900	-1.480307
0.009000	-1.477061
0.009100	-1.486799
0.009200	-1.499457
0.009300	-1.526073
0.009400	-1.554961
0.009500	-1.666617
0.009600	-1.810732
0.009700	-1.884412
0.009800	-1.855849
0.009900	-1.768861
0.010000	-1.753281
0.010100	-1.846436
0.010200	-2.004833
0.010300	-2.106752
0.010400	-2.123630
0.010500	-2.081759
0.010600	-2.061635
0.010700	-2.091496
0.010800	-2.183353
0.010900	-2.270666
0.011000	-2.332986
0.011100	-2.344346
0.011200	-2.335258
0.011300	-2.336881
0.011400	-2.361549
0.011500	-2.389788
0.011600	-2.419001
0.011700	-2.431335
0.011800	-2.435554
0.011900	-2.452757
0.012000	-2.481970
0.012100	-2.496576
0.012200	-2.501445
0.012300	-2.517999
0.012400	-2.550457
0.012500	-2.581617
0.012600	-2.564414
0.012700	-2.486839
0.012800	-2.451459
0.012900	-2.499173
0.013000	-2.614400
0.013100	-2.704634
0.013200	-2.710152
0.013300	-2.627708
0.013400	-2.548509
0.013500	-2.553703
0.013600	-2.645235
0.013700	-2.757217
0.013800	-2.805904
0.013900	-2.778639
0.014000	-2.725732
0.014100	-2.696195
0.014200	-2.698792
0.014300	-2.719890
0.014400	-2.732548
0.014500	-2.725732
0.014600	-2.709503
0.014700	-2.692949
0.014800	-2.666333
0.014900	-2.610180
0.015000	-2.529034
0.015100	-2.467688
0.015200	-2.424194
0.015300	-2.391736
0.015400	-2.354084
0.015500	-2.261578
0.015600	-2.165826
0.015700	-2.052546
0.015800	-1.973023
0.015900	-1.909081
0.016000	-1.854226
0.016100	-1.783467
0.016200	-1.706541
0.016300	-1.616632
0.016400	-1.531591
0.016500	-1.465701
0.016600	-1.418961
0.016700	-1.381958
0.016800	-1.350474
0.016900	-1.327753
0.017000	-1.294321
0.017100	-1.268030
0.017200	-1.231352
0.017300	-1.210904
0.017400	-1.188832
0.017500	-1.194025
0.017600	-1.187858
0.017700	-1.162865
0.017800	-1.094054
0.017900	-0.953185
0.018000	-0.831142
0.018100	-0.858732
0.018200	-0.973959
0.018300	-1.043095
0.018400	-0.988240
0.018500	-0.862627
0.018600	-0.754541
0.018700	-0.741233
0.018800	-0.803553
0.018900	-0.869119
0.019000	-0.859056
0.019100	-0.795438
0.019200	-0.713644
0.019300	-0.680861
0.019400	-0.661386
0.019500	-0.665930
0.019600	-0.677615
0.019700	-0.672422
0.019800	-0.664956
0.019900	-0.657167
0.020000	-0.646131
0.020100	-0.650350
0.020200	-0.650675
0.020300	-0.674045
0.020400	-0.697415
0.020500	-0.732470
0.020600	-0.782780
0.020700	-0.784078
0.020800	-0.786026
0.020900	-0.786350
0.021000	-0.857109
0.021100	-0.970064
0.021200	-1.016479
0.021300	-0.965844
0.021400	-0.895410
0.021500	-0.864899
0.021600	-0.943123
0.021700	-1.077825
0.021800	-1.144040
0.021900	-1.125863
0.022000	-1.050560
0.022100	-1.019400
0.022200	-1.071658
0.022300	-1.157347
0.022400	-1.201166
0.022500	-1.222264
0.022600	-1.213825
0.022700	-1.229405
0.022800	-1.273548
0.022900	-1.317042
0.023000	-1.333271
0.023100	-1.342359
0.023200	-1.361834
0.023300	-1.395591
0.023400	-1.420908
0.023500	-1.411495
0.023600	-1.401433
0.023700	-1.387801
0.023800	-1.415715
0.023900	-1.476736
0.024000	-1.509844
0.024100	-1.517634
0.024200	-1.506273
0.024300	-1.497834
0.024400	-1.498483
0.024500	-1.493615
0.024600	-1.490369
0.024700	-1.493290
0.024800	-1.494913
0.024900	-1.485500
0.025000	-1.481605
0.025100	-1.479333
0.025200	-1.489395
0.025300	-1.488421
0.025400	-1.502054
0.025500	-1.516336
0.025600	-1.521529
0.025700	-1.529643
0.025800	-1.545223
0.025900	-1.563725
0.026000	-1.590016
0.026100	-1.646493
0.026200	-1.766264
0.026300	-1.913949
0.026400	-1.950952
0.026500	-1.898369
0.026600	-1.827935
0.026700	-1.834102
0.026800	-1.963286
0.026900	-2.120709
0.027000	-2.211267
0.027100	-2.194714
0.027200	-2.134666
0.027300	-2.120384
0.027400	-2.187897
0.027500	-2.294361
0.027600	-2.385893
0.027700	-2.421597
0.027800	-2.424519
0.027900	-2.423220
0.028000	-2.434256
0.028100	-2.471259
0.028200	-2.489760
0.028300	-2.505664
0.028400	-2.534552
0.028500	-2.544939
0.028600	-2.575774
0.028700	-2.606610
0.028800	-2.611479
0.028900	-2.606610
0.029000	-2.623164
0.029100	-2.649455
0.029200	-2.674773
0.029300	-2.645235
0.029400	-2.567660
0.029500	-2.535202
0.029600	-2.606285
0.029700	-2.707880
0.029800	-2.775718
0.029900	-2.740988
0.030000	-2.631927
0.030100	-2.557598
0.030200	-2.577073
0.030300	-2.690028
0.030400	-2.781885
0.030500	-2.797790
0.030600	-2.745207
0.030700	-2.688080
0.030800	-2.673474
0.030900	-2.679317
0.031000	-2.679317
0.031100	-2.666982
0.031200	-2.651402
0.031300	-2.638744
0.031400	-2.612452
0.031500	-2.569607
0.031600	-2.505989
0.031700	-2.424843
0.031800	-2.359277
0.031900	-2.305721
0.032000	-2.270666
0.032100	-2.216461
0.032200	-2.111296
0.032300	-2.016193
0.032400	-1.896422
0.032500	-1.820794
0.032600	-1.762045
0.032700	-1.711410
0.032800	-1.649739
0.032900	-1.582875
0.033000	-1.499782
0.033100	-1.429023
0.033200	-1.376116
0.033300	-1.347228
0.033400	-1.318016
0.033500	-1.287505
0.033600	-1.266732
0.033700	-1.249853
0.033800	-1.223887
0.033900	-1.210254
0.034000	-1.175199
0.034100	-1.180068
0.034200	-1.166760
0.034300	-1.168383
0.034400	-1.149557
0.034500	-1.064842
0.034600	-0.926570
0.034700	-0.822703
0.034800	-0.902875
0.034900	-1.012908
0.035000	-1.065166
0.035100	-0.988565
0.035200	-0.847696
0.035300	-0.754217
0.035400	-0.750646
0.035500	-0.830493
0.035600	-0.884374
0.035700	-0.880803
0.035800	-0.801605
0.035900	-0.719486
0.036000	-0.674045
0.036100	-0.665930
0.036200	-0.683133
0.036300	-0.694493
0.036400	-0.690274
0.036500	-0.676966
0.036600	-0.670474
0.036700	-0.664307
0.036800	-0.665606
0.036900	-0.690923
0.037000	-0.701959
0.037100	-0.735066
0.037200	-0.770121
0.037300	-0.810369
0.037400	-0.821405
0.037500	-0.821405
0.037600	-0.833090
0.037700	-0.916832
0.037800	-1.029787
0.037900	-1.046665
0.038000	-0.985968
0.038100	-0.907419
0.038200	-0.904173
0.038300	-0.991161
0.038400	-1.109958
0.038500	-1.160593
0.038600	-1.110608
0.038700	-1.040822
0.038800	-1.019725
0.038900	-1.081071
0.039000	-1.144689
0.039100	-1.167085
0.039200	-1.176498
0.039300	-1.175849
0.039400	-1.200192
0.039500	-1.235572
0.039600	-1.268030
0.039700	-1.277118
0.039800	-1.288154
0.039900	-1.308603
0.040000	-1.335219
0.040100	-1.348851
0.040200	-1.346903
0.040300	-1.337815
0.040400	-1.339114
0.040500	-1.388125
0.040600	-1.445252
0.040700	-1.474140
0.040800	-1.481605
0.040900	-1.468622
0.041000	-1.470245
0.041100	-1.479658
0.041200	-1.476412
0.041300	-1.475763
0.041400	-1.473491
0.041500	-1.469596
0.041600	-1.468946
0.041700	-1.462455
0.041800	-1.454665
0.041900	-1.449796
0.042000	-1.449147
0.042100	-1.446875
0.042200	-1.453691
0.042300	-1.463429
0.042400	-1.470894
0.042500	-1.479009
0.042600	-1.499782
0.042700	-1.532565
0.042800	-1.592612
0.042900	-1.741271
0.043000	-1.872403
0.043100	-1.889281
0.043200	-1.813004
0.043300	-1.738025
0.043400	-1.785090
0.043500	-1.930178
0.043600	-2.080785
0.043700	-2.146026
0.043800	-2.115191
0.043900	-2.058713
0.044000	-2.055792
0.044100	-2.128823
0.044200	-2.233664
0.044300	-2.310914
0.044400	-2.337206
0.044500	-2.350838
0.044600	-2.368366
0.044700	-2.386218
0.044800	-2.415106
0.044900	-2.442046
0.045000	-2.467039
0.045100	-2.493979
0.045200	-2.510533
0.045300	-2.536824
0.045400	-2.559545
0.045500	-2.575125
0.045600	-2.577397
0.045700	-2.608882
0.045800	-2.635173
0.045900	-2.650104
0.046000	-2.592004
0.046100	-2.521894
0.046200	-2.526113
0.046300	-2.625760
0.046400	-2.735145
0.046500	-2.795518
0.046600	-2.734496
0.046700	-2.633226
0.046800	-2.589082
0.046900	-2.650104
0.047000	-2.765981
0.047100	-2.839337
0.047200	-2.838687
0.047300	-2.786754
0.047400	-2.754620
0.047500	-2.751699
0.047600	-2.748453
0.047700	-2.732873
0.047800	-2.709178
0.047900	-2.700415
0.048000	-2.684185
0.048100	-2.661140
0.048200	-2.609856
0.048300	-2.534228
0.048400	-2.452108
0.048500	-2.397578
0.048600	-2.356031
0.048700	-2.319029
0.048800	-2.249893
0.048900	-2.149597
0.049000	-2.037615
0.049100	-1.923038
0.049200	-1.846436
0.049300	-1.784116
0.049400	-1.719200
0.049500	-1.643896
0.049600	-1.555935
0.049700	-1.465051
0.049800	-1.384230
0.049900	-1.319639
0.050000	-1.280364
0.050100	-1.233624
0.050200	-1.217395
0.050300	-1.193051
0.050400	-1.172603
0.050500	-1.142741
0.050600	-1.120670
0.050700	-1.095352
0.050800	-1.100546
0.050900	-1.102168
0.051000	-1.100546
0.051100	-1.075553
0.051200	-0.960326
0.051300	-0.812317
0.051400	-0.763954
0.051500	-0.841529
0.051600	-0.972660
0.051700	-0.984670
0.051800	-0.900603
0.051900	-0.764928
0.052000	-0.699362
0.052100	-0.723381
0.052200	-0.799333
0.052300	-0.843477
0.052400	-0.809395
0.052500	-0.732145
0.052600	-0.658465
0.052700	-0.637367
0.052800	-0.639964
0.052900	-0.644183
0.053000	-0.646455
0.053100	-0.637042
0.053200	-0.623410
0.053300	-0.623085
0.053400	-0.622761
0.053500	-0.627954
0.053600	-0.660737
0.053700	-0.685405
0.053800	-0.718512
0.053900	-0.765901
0.054000	-0.801930
0.054100	-0.820756
0.054200	-0.813940
0.054300	-0.854188
0.054400	-0.962274
0.054500	-1.057701
0.054600	-1.065491
0.054700	-0.999276
0.054800	-0.957080
0.054900	-0.984021
0.055000	-1.098273
0.055100	-1.194674
0.055200	-1.212526
0.055300	-1.148584
0.055400	-1.101519
0.055500	-1.121968
0.055600	-1.186560
0.055700	-1.245958
0.055800	-1.261538
0.055900	-1.269004
0.056000	-1.278741
0.056100	-1.314770
0.056200	-1.352421
0.056300	-1.388775
0.056400	-1.401109
0.056500	-1.417987
0.056600	-1.446875
0.056700	-1.469271
0.056800	-1.477710
0.056900	-1.469596
0.057000	-1.464727
0.057100	-1.475438
0.057200	-1.533538
0.057300	-1.577682
0.057400	-1.594560
0.057500	-1.600727
0.057600	-1.586121
0.057700	-1.592937
0.057800	-1.596183
0.057900	-1.598130
0.058000	-1.591639
0.058100	-1.586445
0.058200	-1.579954
0.058300	-1.576708
0.058400	-1.571839
0.058500	-1.567944
0.058600	-1.564698
0.058700	-1.566646
0.058800	-1.576059
0.058900	-1.575734
0.059000	-1.581252
0.059100	-1.589367
0.059200	-1.602999
0.059300	-1.627667
0.059400	-1.658503
0.059500	-1.746140
0.059600	-1.898045
0.059700	-1.994770
0.059800	-1.975620
0.059900	-1.891228
0.060000	-1.844164
0.060100	-1.919467
0.060200	-2.066503
0.060300	-2.189196
0.060400	-2.215811
0.060500	-2.171668
0.060600	-2.114866
0.060700	-2.125253
0.060800	-2.215162
0.060900	-2.303774
0.061000	-2.359277
0.061100	-2.372261
0.061200	-2.369664
0.061300	-2.373884
0.061400	-2.394008
0.061500	-2.426466
0.061600	-2.455029
0.061700	-2.466065
0.061800	-2.472232
0.061900	-2.485865
0.062000	-2.508586
0.062100	-2.532280
0.062200	-2.552080
0.062300	-2.554677
0.062400	-2.573827
0.062500	-2.593627
0.062600	-2.582266
0.062700	-2.509559
0.062800	-2.455354
0.062900	-2.481321
0.063000	-2.582266
0.063100	-2.667307
0.063200	-2.678992
0.063300	-2.595250
0.063400	-2.512481
0.063500	-2.501120
0.063600	-2.578047
0.063700	-2.676395
0.063800	-2.716968
0.063900	-2.689054
0.064000	-2.637445
0.064100	-2.628032
0.064200	-2.636796
0.064300	-2.644911
0.064400	-2.630954
0.064500	-2.615049
0.064600	-2.604338
0.064700	-2.594925
0.064800	-2.558247
0.064900	-2.509559
0.065000	-2.427440
0.065100	-2.366418
0.065200	-2.319029
0.065300	-2.287544
0.065400	-2.246322
0.065500	-2.159659
0.065600	-2.070398
0.065700	-1.954198
0.065800	-1.866236
0.065900	-1.794178
0.066000	-1.722770
0.066100	-1.660126
0.066200	-1.586445
0.066300	-1.499782
0.066400	-1.423180
0.066500	-1.358264
0.066600	-1.310226
0.066700	-1.276145
0.066800	-1.248230
0.066900	-1.233300
0.067000	-1.207333
0.067100	-1.190455
0.067200	-1.159944
0.067300	-1.147935
0.067400	-1.136574
0.067500	-1.132030
0.067600	-1.149557
0.067700	-1.123591
0.067800	-1.097624
0.067900	-0.960002
0.068000	-0.848345
0.068100	-0.834388
0.068200	-0.949290
0.068300	-1.042121
0.068400	-1.021023
0.068500	-0.916508
0.068600	-0.811343
0.068700	-0.774990
0.068800	-0.825300
0.068900	-0.888269
0.069000	-0.898331
0.069100	-0.836336
0.069200	-0.773367
0.069300	-0.714618
0.069400	-0.711372
0.069500	-0.698713
0.069600	-0.708450
0.069700	-0.710398
0.069800	-0.699687
0.069900	-0.688002
0.070000	-0.680536
0.070100	-0.678264
0.070200	-0.683782
0.070300	-0.721434
0.070400	-0.747725
0.070500	-0.782131
0.070600	-0.822379
0.070700	-0.844126
0.070800	-0.856135
0.070900	-0.850293
0.071000	-0.919429
0.071100	-1.021672
0.071200	-1.079448
0.071300	-1.051858
0.071400	-0.978178
0.071500	-0.955457
0.071600	-1.019400
0.071700	-1.138846
0.071800	-1.208307
0.071900	-1.191429
0.072000	-1.119371
0.072100	-1.095352
0.072200	-1.137223
0.072300	-1.218369
0.072400	-1.257968
0.072500	-1.254073
0.072600	-1.249529
0.072700	-1.258293
0.072800	-1.296918
0.072900	-1.329701
0.073000	-1.344631
0.073100	-1.345605
0.073200	-1.362483
0.073300	-1.398188
0.073400	-1.417662
0.073500	-1.424803
0.073600	-1.417013
0.073700	-1.407600
0.073800	-1.441032
0.073900	-1.510818
0.074000	-1.543600
0.074100	-1.556259
0.074200	-1.572488
0.074300	-1.564698
0.074400	-1.573137
0.074500	-1.564698
0.074600	-1.559830
0.074700	-1.553987
0.074800	-1.547820
0.074900	-1.541328
0.075000	-1.535810
0.075100	-1.532240
0.075200	-1.532240
0.075300	-1.534512
0.075400	-1.544250
0.075500	-1.545548
0.075600	-1.550417
0.075700	-1.555935
0.075800	-1.561452
0.075900	-1.582226
0.076000	-1.607219
0.076100	-1.651686
0.076200	-1.765615
0.076300	-1.906484
0.076400	-1.973997
0.076500	-1.918169
0.076600	-1.837997
0.076700	-1.818847
0.076800	-1.936021
0.076900	-2.090847
0.077000	-2.186924
0.077100	-2.171993
0.077200	-2.105129
0.077300	-2.076565
0.077400	-2.128499
0.077500	-2.230418
0.077600	-2.304098
0.077700	-2.329091
0.077800	-2.326170
0.077900	-2.329740
0.078000	-2.350514
0.078100	-2.379401
0.078200	-2.410561
0.078300	-2.421597
0.078400	-2.431659
0.078500	-2.441397
0.078600	-2.462819
0.078700	-2.486839
0.078800	-2.505015
0.078900	-2.498848
0.079000	-2.511182
0.079100	-2.535526
0.079200	-2.562142
0.079300	-2.532605
0.079400	-2.459898
0.079500	-2.422571
0.079600	-2.478075
0.079700	-2.570581
0.079800	-2.647832
0.079900	-2.630954
0.080000	-2.538447
0.080100	-2.477101
0.080200	-2.505340
0.080300	-2.625111
0.080400	-2.723135
0.080500	-2.742611
0.080600	-2.703011
0.080700	-2.663737
0.080800	-2.654973
0.080900	-2.672825
0.081000	-2.680940
0.081100	-2.674448
0.081200	-2.657570
0.081300	-2.638095
0.081400	-2.617321
0.081500	-2.582591
0.081600	-2.523841
0.081700	-2.461196
0.081800	-2.400824
0.081900	-2.367067
0.082000	-2.338179
0.082100	-2.286895
0.082200	-2.195038
0.082300	-2.106752
0.082400	-1.989253
0.082500	-1.911677
0.082600	-1.849682
0.082700	-1.788011
0.082800	-1.715629
0.082900	-1.635782
0.083000	-1.554636
0.083100	-1.473166
0.083200	-1.422856
0.083300	-1.379362
0.083400	-1.349176
0.083500	-1.319963
0.083600	-1.296269
0.083700	-1.280040
0.083800	-1.250178
0.083900	-1.231352
0.084000	-1.202464
0.084100	-1.198894
0.084200	-1.194999
0.084300	-1.188507
0.084400	-1.178770
0.084500	-1.091133
0.084600	-0.956107
0.084700	-0.838608
0.084800	-0.882751
0.084900	-0.993433
0.085000	-1.064517
0.085100	-0.999276
0.085200	-0.854837
0.085300	-0.761033
0.085400	-0.745777
0.085500	-0.818484
0.085600	-0.879830
0.085700	-0.861004
0.085800	-0.774990
0.085900	-0.689300
0.086000	-0.647104
0.086100	-0.640937
0.086200	-0.651973
0.086300	-0.651324
0.086400	-0.644183
0.086500	-0.618866
0.086600	-0.612050
0.086700	-0.603935
0.086800	-0.608479
0.086900	-0.629252
0.087000	-0.650675
0.087100	-0.666579
0.087200	-0.696766
0.087300	-0.730197
0.087400	-0.739286
0.087500	-0.727925
0.087600	-0.729224
0.087700	-0.801930
0.087800	-0.911314
0.087900	-0.943772
0.088000	-0.889243
0.088100	-0.828221
0.088200	-0.820431
0.088300	-0.914885
0.088400	-1.037252
0.088500	-1.093405
0.088600	-1.056402
0.088700	-0.982073
0.088800	-0.964221
0.088900	-1.028164
0.089000	-1.116775
0.089100	-1.152803
0.089200	-1.165137
0.089300	-1.162541
0.089400	-1.190779
0.089500	-1.228756
0.089600	-1.267056
0.089700	-1.290426
0.089800	-1.308278
0.089900	-1.333596
0.090000	-1.366378
0.090100	-1.383581
0.090200	-1.385204
0.090300	-1.383581
0.090400	-1.380985
0.090500	-1.432269
0.090600	-1.495887
0.090700	-1.527371
0.090800	-1.544574
0.090900	-1.544250
0.091000	-1.543600
0.091100	-1.544250
0.091200	-1.546522
0.091300	-1.547820
0.091400	-1.544899
0.091500	-1.545223
0.091600	-1.536135
0.091700	-1.535486
0.091800	-1.533863
0.091900	-1.546522
0.092000	-1.551390
0.092100	-1.559830
0.092200	-1.563400
0.092300	-1.572488
0.092400	-1.586770
0.092500	-1.601052
0.092600	-1.629615
0.092700	-1.653309
0.092800	-1.730560
0.092900	-1.865262
0.093000	-2.001587
0.093100	-2.044107
0.093200	-1.977892
0.093300	-1.907782
0.093400	-1.933424
0.093500	-2.064880
0.093600	-2.217434
0.093700	-2.288843
0.093800	-2.255411
0.093900	-2.182055
0.094000	-2.178160
0.094100	-2.239831
0.094200	-2.358304
0.094300	-2.430686
0.094400	-2.460872
0.094500	-2.457626
0.094600	-2.450485
0.094700	-2.455679
0.094800	-2.487488
0.094900	-2.517349
0.095000	-2.542992
0.095100	-2.555975
0.095200	-2.565712
0.095300	-2.589732
0.095400	-2.612777
0.095500	-2.619918
0.095600	-2.622190
0.095700	-2.633550
0.095800	-2.663412
0.095900	-2.664386
0.096000	-2.624137
0.096100	-2.549808
0.096200	-2.536175
0.096300	-2.604662
0.096400	-2.693598
0.096500	-2.747804
0.096600	-2.700090
0.096700	-2.602715
0.096800	-2.550782
0.096900	-2.596548
0.097000	-2.719565
0.097100	-2.812071
0.097200	-2.820511
0.097300	-2.775718
0.097400	-2.739040
0.097500	-2.723785
0.097600	-2.741312
0.097700	-2.755918
0.097800	-2.762086
0.097900	-2.758191
0.098000	-2.739040
0.098100	-2.712100
0.098200	-2.668930
0.098300	-2.602390
0.098400	-2.530008
0.098500	-2.482619
0.098600	-2.449511
0.098700	-2.418351
0.098800	-2.354084
0.098900	-2.254112
0.099000	-2.165177
0.099100	-2.048651
0.099200	-1.972374
0.099300	-1.904212
0.099400	-1.847410
0.099500	-1.776975
0.099600	-1.703295
0.099700	-1.609815
0.099800	-1.532889
0.099900	-1.479333
0.100000	-1.444603
0.100100	-1.415715
0.100200	-1.390398
0.100300	-1.375467
0.100400	-1.348851
0.100500	-1.316717
0.100600	-1.289452
0.100700	-1.251152
0.100800	-1.253748
0.100900	-1.238168
0.101000	-1.250827
0.101100	-1.195648
0.101200	-1.103791
0.101300	-0.941825
0.101400	-0.875286
0.101500	-0.948317
0.101600	-1.061271
0.101700	-1.086913
0.101800	-0.987916
0.101900	-0.854512
0.102000	-0.777586
0.102100	-0.791543
0.102200	-0.866197
0.102300	-0.910990
0.102400	-0.900603
0.102500	-0.820756
0.102600	-0.746427
0.102700	-0.709100
0.102800	-0.710073
0.102900	-0.720785
0.103000	-0.742856
0.103100	-0.753243
0.103200	-0.746102
0.103300	-0.741558
0.103400	-0.732145
0.103500	-0.735391
0.103600	-0.754541
0.103700	-0.792193
0.103800	-0.833739
0.103900	-0.870092
0.104000	-0.902550
0.104100	-0.918780
0.104200	-0.919753
0.104300	-0.941500
0.104400	-1.043419
0.104500	-1.145987
0.104600	-1.158970
0.104700	-1.094379
0.104800	-1.046990
0.104900	-1.062894
0.105000	-1.172927
0.105100	-1.278417
0.105200	-1.311849
0.105300	-1.257968
0.105400	-1.207333
0.105500	-1.216421
0.105600	-1.280689
0.105700	-1.340736
0.105800	-1.366054
0.105900	-1.388450
0.106000	-1.393643
0.106100	-1.419285
0.106200	-1.452393
0.106300	-1.474140
0.106400	-1.482904
0.106500	-1.491992
0.106600	-1.511142
0.106700	-1.522827
0.106800	-1.519906
0.106900	-1.491343
0.107000	-1.479333
0.107100	-1.484851
0.107200	-1.538083
0.107300	-1.585796
0.107400	-1.601052
0.107500	-1.598455
0.107600	-1.573787
0.107700	-1.580278
0.107800	-1.583849
0.107900	-1.574436
0.108000	-1.567295
0.108100	-1.557233
0.108200	-1.555285
0.108300	-1.551715
0.108400	-1.551715
0.108500	-1.549768
0.108600	-1.552364
0.108700	-1.559830
0.108800	-1.564698
0.108900	-1.570865
0.109000	-1.575410
0.109100	-1.581901
0.109200	-1.591639
0.109300	-1.616956
0.109400	-1.642274
0.109500	-1.724718
0.109600	-1.863964
0.109700	-1.977243
0.109800	-1.966207
0.109900	-1.879868
0.110000	-1.810407
0.110100	-1.873052
0.110200	-2.021386
0.110300	-2.144079
0.110400	-2.175888
0.110500	-2.121033
0.110600	-2.059362
0.110700	-2.066179
0.110800	-2.139534
0.110900	-2.232690
0.111000	-2.284623
0.111100	-2.290466
0.111200	-2.275859
0.111300	-2.287869
0.111400	-2.306046
0.111500	-2.323898
0.111600	-2.336232
0.111700	-2.342074
0.111800	-2.367716
0.111900	-2.390762
0.112000	-2.414781
0.112100	-2.436853
0.112200	-2.442371
0.112300	-2.436204
0.112400	-2.450161
0.112500	-2.478724
0.112600	-2.474829
0.112700	-2.417702
0.112800	-2.370313
0.112900	-2.384270
0.113000	-2.473531
0.113100	-2.567011
0.113200	-2.600118
0.113300	-2.526113
0.113400	-2.438151
0.113500	-2.422896
0.113600	-2.490409
0.113700	-2.589407
0.113800	-2.643612
0.113900	-2.630954
0.114000	-2.586486
0.114100	-2.545588
0.114200	-2.526113
0.114300	-2.523841
0.114400	-2.523841
0.114500	-2.515077
0.114600	-2.491383
0.114700	-2.465741
0.114800	-2.431010
0.114900	-2.361549
0.115000	-2.277158
0.115100	-2.206399
0.115200	-2.154141
0.115300	-2.125902
0.115400	-2.097663
0.115500	-2.027553
0.115600	-1.938942
0.115700	-1.872403
0.115800	-1.779897
0.115900	-1.720823
0.116000	-1.663371
0.116100	-1.598779
0.116200	-1.542302
0.116300	-1.468622
0.116400	-1.382283
0.116500	-1.323534
0.116600	-1.277118
0.116700	-1.237195
0.116800	-1.207009
0.116900	-1.190455
0.117000	-1.185262
0.117100	-1.154426
0.117200	-1.138846
0.117300	-1.122942
0.117400	-1.114178
0.117500	-1.127161
0.117600	-1.139171
0.117700	-1.141768
0.117800	-1.104765
0.117900	-0.994732
0.118000	-0.874312
0.118100	-0.829844
0.118200	-0.954484
0.118300	-1.052832
0.118400	-1.061271
0.118500	-0.947992
0.118600	-0.818159
0.118700	-0.777262
0.118800	-0.815238
0.118900	-0.904498
0.119000	-0.922675
0.119100	-0.880803
0.119200	-0.800956
0.119300	-0.740909
0.119400	-0.732794
0.119500	-0.742856
0.119600	-0.768823
0.119700	-0.757462
0.119800	-0.750646
0.119900	-0.740259
0.120000	-0.748374
0.120100	-0.754866
0.120200	-0.743830
0.120300	-0.770446
0.120400	-0.786350
0.120500	-0.831467
0.120600	-0.864250
0.120700	-0.898655
0.120800	-0.905147
0.120900	-0.915858
0.121000	-0.964870
0.121100	-1.082694
0.121200	-1.155075
0.121300	-1.163515
0.121400	-1.113204
0.121500	-1.081720
0.121600	-1.130732
0.121700	-1.240116
0.121800	-1.324507
0.121900	-1.334894
0.122000	-1.288154
0.122100	-1.251801
0.122200	-1.262512
0.122300	-1.317042
0.122400	-1.355018
0.122500	-1.357615
0.122600	-1.351448
0.122700	-1.346254
0.122800	-1.370273
0.122900	-1.400784
0.123000	-1.419935
0.123100	-1.427075
0.123200	-1.430321
0.123300	-1.452393
0.123400	-1.472841
0.123500	-1.471219
0.123600	-1.460832
0.123700	-1.442006
0.123800	-1.458884
0.123900	-1.513739
0.124000	-1.562426
0.124100	-1.583200
0.124200	-1.554636
0.124300	-1.547495
0.124400	-1.567620
0.124500	-1.577032
0.124600	-1.577682
0.124700	-1.571839
0.124800	-1.566970
0.124900	-1.562751
0.125000	-1.563725
0.125100	-1.567944
0.125200	-1.566646
0.125300	-1.564698
0.125400	-1.570216
0.125500	-1.579629
0.125600	-1.582550
0.125700	-1.593262
0.125800	-1.605596
0.125900	-1.622474
0.126000	-1.647467
0.126100	-1.675056
0.126200	-1.776326
0.126300	-1.933100
0.126400	-2.024307
0.126500	-1.982761
0.126600	-1.877271
0.126700	-1.834102
0.126800	-1.921415
0.126900	-2.082408
0.127000	-2.198933
0.127100	-2.207697
0.127200	-2.130771
0.127300	-2.080460
0.127400	-2.113568
0.127500	-2.207372
0.127600	-2.292089
0.127700	-2.330714
0.127800	-2.349864
0.127900	-2.341101
0.128000	-2.356031
0.128100	-2.391086
0.128200	-2.420948
0.128300	-2.431659
0.128400	-2.434581
0.128500	-2.450810
0.128600	-2.469960
0.128700	-2.496576
0.128800	-2.507612
0.128900	-2.506963
0.129000	-2.522543
0.129100	-2.542992
0.129200	-2.566686
0.129300	-2.544614
0.129400	-2.470934
0.129500	-2.440423
0.129600	-2.479049
0.129700	-2.568634
0.129800	-2.663737
0.129900	-2.662763
0.130000	-2.596548
0.130100	-2.535526
0.130200	-2.550132
0.130300	-2.636147
0.130400	-2.728978
0.130500	-2.764682
0.130600	-2.739689
0.130700	-2.687107
0.130800	-2.671851
0.130900	-2.668605
0.131000	-2.666333
0.131100	-2.650429
0.131200	-2.625760
0.131300	-2.603689
0.131400	-2.575774
0.131500	-2.533254
0.131600	-2.468013
0.131700	-2.396604
0.131800	-2.320327
0.131900	-2.272289
0.132000	-2.231067
0.132100	-2.179458
0.132200	-2.085978
0.132300	-1.985358
0.132400	-1.857472
0.132500	-1.781844
0.132600	-1.715629
0.132700	-1.646169
0.132800	-1.572164
0.132900	-1.494588
0.133000	-1.408899
0.133100	-1.330350
0.133200	-1.262188
0.133300	-1.222588
0.133400	-1.177147
0.133500	-1.149557
0.133600	-1.122293
0.133700	-1.099572
0.133800	-1.068412
0.133900	-1.036927
0.134000	-1.015180
0.134100	-1.001223
0.134200	-1.004469
0.134300	-1.013882
0.134400	-1.000574
0.134500	-0.950264
0.134600	-0.805500
0.134700	-0.691248
0.134800	-0.703906
0.134900	-0.831142
0.135000	-0.933386
0.135100	-0.881128
0.135200	-0.774665
0.135300	-0.663009
0.135400	-0.647429
0.135500	-0.720460
0.135600	-0.790894
0.135700	-0.802904
0.135800	-0.744479
0.135900	-0.670799
0.136000	-0.637692
0.136100	-0.643859
0.136200	-0.666904
0.136300	-0.678264
0.136400	-0.684431
0.136500	-0.680861
0.136600	-0.687028
0.136700	-0.697415
0.136800	-0.711372
0.136900	-0.712670
0.137000	-0.745777
0.137100	-0.784403
0.137200	-0.834064
0.137300	-0.870092
0.137400	-0.882426
0.137500	-0.885348
0.137600	-0.903200
0.137700	-0.977204
0.137800	-1.084316
0.137900	-1.131381
0.138000	-1.105739
0.138100	-1.035305
0.138200	-1.017128
0.138300	-1.091782
0.138400	-1.210579
0.138500	-1.273872
0.138600	-1.254398
0.138700	-1.180717
0.138800	-1.154751
0.138900	-1.201166
0.139000	-1.273872
0.139100	-1.309252
0.139200	-1.306980
0.139300	-1.292374
0.139400	-1.307629
0.139500	-1.347228
0.139600	-1.384880
0.139700	-1.419935
0.139800	-1.432593
0.139900	-1.449147
0.140000	-1.479009
0.140100	-1.495238
0.140200	-1.496536
0.140300	-1.488097
0.140400	-1.477061
0.140500	-1.509519
0.140600	-1.569892
0.140700	-1.598130
0.140800	-1.606569
0.140900	-1.578980
0.141000	-1.588068
0.141100	-1.588717
0.141200	-1.582226
0.141300	-1.577682
0.141400	-1.568269
0.141500	-1.562102
0.141600	-1.561452
0.141700	-1.553987
0.141800	-1.552689
0.141900	-1.551066
0.142000	-1.548145
0.142100	-1.563400
0.142200	-1.569242
0.142300	-1.579305
0.142400	-1.589691
0.142500	-1.606894
0.142600	-1.638703
0.142700	-1.674083
0.142800	-1.735753
0.142900	-1.872727
0.143000	-2.033720
0.143100	-2.109673
0.143200	-2.058389
0.143300	-1.982436
0.143400	-1.979840
0.143500	-2.127525
0.143600	-2.298580
0.143700	-2.403421
0.143800	-2.384595
0.143900	-2.323249
0.144000	-2.310914
0.144100	-2.378752
0.144200	-2.499822
0.144300	-2.581292
0.144400	-2.599469
0.144500	-2.595250
0.144600	-2.589407
0.144700	-2.619918
0.144800	-2.659192
0.144900	-2.697169
0.145000	-2.708854
0.145100	-2.706582
0.145200	-2.737093
0.145300	-2.772148
0.145400	-2.810773
0.145500	-2.817914
0.145600	-2.825055
0.145700	-2.840635
0.145800	-2.876015
0.145900	-2.898086
0.146000	-2.861733
0.146100	-2.788377
0.146200	-2.773121
0.146300	-2.827327
0.146400	-2.938984
0.146500	-3.005524
0.146600	-2.978583
0.146700	-2.880883
0.146800	-2.817265
0.146900	-2.837389
0.147000	-2.932168
0.147100	-3.018832
0.147200	-3.034087
0.147300	-2.973714
0.147400	-2.906525
0.147500	-2.874067
0.147600	-2.885427
0.147700	-2.898411
0.147800	-2.895165
0.147900	-2.866926
0.148000	-2.829274
0.148100	-2.785456
0.148200	-2.747155
0.148300	-2.685159
0.148400	-2.622839
0.148500	-2.570581
0.148600	-2.534552
0.148700	-2.484567
0.148800	-2.421273
0.148900	-2.326494
0.149000	-2.258981
0.149100	-2.185301
0.149200	-2.114542
0.149300	-2.054169
0.149400	-1.989253
0.149500	-1.912651
0.149600	-1.832804
0.149700	-1.739648
0.149800	-1.652011
0.149900	-1.583849
0.150000	-1.531915
0.150100	-1.485825
0.150200	-1.450445
0.150300	-1.407276
0.150400	-1.358264
0.150500	-1.317691
0.150600	-1.271925
0.150700	-1.244011
0.150800	-1.219018
0.150900	-1.199868
0.151000	-1.192078
0.151100	-1.145013
0.151200	-1.066789
0.151300	-0.890216
0.151400	-0.796412
0.151500	-0.834388
0.151600	-0.955782
0.151700	-0.997653
0.151800	-0.911963
0.151900	-0.774341
0.152000	-0.665930
0.152100	-0.675019
0.152200	-0.749023
0.152300	-0.809395
0.152400	-0.789271
0.152500	-0.710398
0.152600	-0.630226
0.152700	-0.597119
0.152800	-0.609453
0.152900	-0.632823
0.153000	-0.650026
0.153100	-0.643859
0.153200	-0.627305
0.153300	-0.614322
0.153400	-0.616594
0.153500	-0.616594
0.153600	-0.638990
0.153700	-0.678264
0.153800	-0.708450
0.153900	-0.750322
0.154000	-0.774341
0.154100	-0.788622
0.154200	-0.792517
0.154300	-0.798684
0.154400	-0.892488
0.154500	-0.977854
0.154600	-1.015505
0.154700	-0.980126
0.154800	-0.922025
0.154900	-0.932412
0.155000	-1.035954
0.155100	-1.148584
0.155200	-1.207009
0.155300	-1.183639
0.155400	-1.131056
0.155500	-1.125863
0.155600	-1.190779
0.155700	-1.270302
0.155800	-1.318340
0.155900	-1.345605
0.156000	-1.355667
0.156100	-1.391696
0.156200	-1.431619
0.156300	-1.478035
0.156400	-1.517958
0.156500	-1.552689
0.156600	-1.582875
0.156700	-1.605271
0.156800	-1.613710
0.156900	-1.602674
0.157000	-1.588393
0.157100	-1.586445
0.157200	-1.632211
0.157300	-1.688040
0.157400	-1.711734
0.157500	-1.703620
0.157600	-1.676679
0.157700	-1.696154
0.157800	-1.702970
0.157900	-1.704593
0.158000	-1.706865
0.158100	-1.698426
0.158200	-1.694856
0.158300	-1.689987
0.158400	-1.681548
0.158500	-1.669863
0.158600	-1.656555
0.158700	-1.650713
0.158800	-1.648441
0.158900	-1.645195
0.159000	-1.647791
0.159100	-1.653309
0.159200	-1.665643
0.159300	-1.679276
0.159400	-1.705892
0.159500	-1.767887
0.159600	-1.912651
0.159700	-2.039238
0.159800	-2.045405
0.159900	-1.970102
0.160000	-1.900966
0.160100	-1.932126
0.160200	-2.062284
0.160300	-2.204451
0.160400	-2.253788
0.160500	-2.209969
0.160600	-2.173616
0.160700	-2.190819
0.160800	-2.285597
0.160900	-2.391736
0.161000	-2.470609
0.161100	-2.494629
0.161200	-2.503392
0.161300	-2.516376
0.161400	-2.543641
0.161500	-2.573502
0.161600	-2.594925
0.161700	-2.613751
0.161800	-2.635173
0.161900	-2.667956
0.162000	-2.700415
0.162100	-2.709178
0.162200	-2.699441
0.162300	-2.699765
0.162400	-2.719890
0.162500	-2.734171
0.162600	-2.721188
0.162700	-2.645560
0.162800	-2.567011
0.162900	-2.550457
0.163000	-2.591030
0.163100	-2.667307
0.163200	-2.675097
0.163300	-2.584863
0.163400	-2.471908
0.163500	-2.408289
0.163600	-2.432958
0.163700	-2.502094
0.163800	-2.551106
0.163900	-2.529034
0.164000	-2.462495
0.164100	-2.403421
0.164200	-2.362848
0.164300	-2.350838
0.164400	-2.327793
0.164500	-2.303124
0.164600	-2.281053
0.164700	-2.247621
0.164800	-2.198609
0.164900	-2.133367
0.165000	-2.050274
0.165100	-1.981138
0.165200	-1.938942
0.165300	-1.912002
0.165400	-1.886684
0.165500	-1.818197
0.165600	-1.718226
0.165700	-1.628641
0.165800	-1.528345
0.165900	-1.462130
0.166000	-1.398837
0.166100	-1.324832
0.166200	-1.246608
0.166300	-1.164813
0.166400	-1.079772
0.166500	-1.016479
0.166600	-0.967467
0.166700	-0.947018
0.166800	-0.918780
0.166900	-0.911639
0.167000	-0.906121
0.167100	-0.896383
0.167200	-0.876259
0.167300	-0.858083
0.167400	-0.851267
0.167500	-0.858083
0.167600	-0.869443
0.167700	-0.869768
0.167800	-0.845749
0.167900	-0.741233
0.168000	-0.589653
0.168100	-0.545835
0.168200	-0.629577
0.168300	-0.764603
0.168400	-0.746751
0.168500	-0.651649
0.168600	-0.509157
0.168700	-0.460794
0.168800	-0.502341
0.168900	-0.586732
0.169000	-0.630875
0.169100	-0.583811
0.169200	-0.499420
0.169300	-0.425415
0.169400	-0.412756
0.169500	-0.418599
0.169600	-0.435477
0.169700	-0.449110
0.169800	-0.446513
0.169900	-0.440995
0.170000	-0.443592
0.170100	-0.437425
0.170200	-0.427038
0.170300	-0.452680
0.170400	-0.495200
0.170500	-0.544861
0.170600	-0.592250
0.170700	-0.620813
0.170800	-0.619515
0.170900	-0.618217
0.171000	-0.662684
0.171100	-0.783429
0.171200	-0.854512
0.171300	-0.867496
0.171400	-0.807448
0.171500	-0.746751
0.171600	-0.784403
0.171700	-0.900603
0.171800	-1.003171
0.171900	-1.032059
0.172000	-0.976231
0.172100	-0.917481
0.172200	-0.914885
0.172300	-0.980775
0.172400	-1.053806
0.172500	-1.081071
0.172600	-1.092106
0.172700	-1.089185
0.172800	-1.120345
0.172900	-1.164164
0.173000	-1.211553
0.173100	-1.248230
0.173200	-1.275495
0.173300	-1.305682
0.173400	-1.332297
0.173500	-1.346903
0.173600	-1.337815
0.173700	-1.329701
0.173800	-1.346579
0.173900	-1.410846
0.174000	-1.470894
0.174100	-1.495887
0.174200	-1.467324
0.174300	-1.454665
0.174400	-1.476412
0.174500	-1.490369
0.174600	-1.494913
0.174700	-1.495238
0.174800	-1.503677
0.174900	-1.497185
0.175000	-1.492641
0.175100	-1.488421
0.175200	-1.491343
0.175300	-1.494913
0.175400	-1.493290
0.175500	-1.489395
0.175600	-1.498159
0.175700	-1.503028
0.175800	-1.512765
0.175900	-1.524450
0.176000	-1.544899
0.176100	-1.574436
0.176200	-1.667916
0.176300	-1.822092
0.176400	-1.921090
0.176500	-1.901291
0.176600	-1.803267
0.176700	-1.757825
0.176800	-1.840269
0.176900	-2.002236
0.177000	-2.131095
0.177100	-2.145052
0.177200	-2.077215
0.177300	-2.001262
0.177400	-2.021386
0.177500	-2.112594
0.177600	-2.213539
0.177700	-2.263201
0.177800	-2.265473
0.177900	-2.253139
0.178000	-2.258332
0.178100	-2.275859
0.178200	-2.302475
0.178300	-2.321626
0.178400	-2.338504
0.178500	-2.358304
0.178600	-2.398227
0.178700	-2.433931
0.178800	-2.452757
0.178900	-2.447239
0.179000	-2.456003
0.179100	-2.473531
0.179200	-2.501769
0.179300	-2.494629
0.179400	-2.421597
0.179500	-2.364146
0.179600	-2.390113
0.179700	-2.481970
0.179800	-2.585837
0.179900	-2.591679
0.180000	-2.512156
0.180100	-2.405368
0.180200	-2.371936
0.180300	-2.442695
0.180400	-2.558247
0.180500	-2.627708
0.180600	-2.614075
0.180700	-2.553054
0.180800	-2.502743
0.180900	-2.488462
0.181000	-2.512156
0.181100	-2.530333
0.181200	-2.531631
0.181300	-2.518648
0.181400	-2.484891
0.181500	-2.450161
0.181600	-2.391736
0.181700	-2.325845
0.181800	-2.267096
0.181900	-2.222303
0.182000	-2.189196
0.182100	-2.150895
0.182200	-2.080136
0.182300	-1.988603
0.182400	-1.903887
0.182500	-1.815601
0.182600	-1.749710
0.182700	-1.685768
0.182800	-1.620202
0.182900	-1.547171
0.183000	-1.459534
0.183100	-1.366378
0.183200	-1.292049
0.183300	-1.240116
0.183400	-1.194999
0.183500	-1.160918
0.183600	-1.126512
0.183700	-1.102818
0.183800	-1.071009
0.183900	-1.031085
0.184000	-1.001873
0.184100	-0.977204
0.184200	-0.972985
0.184300	-0.960326
0.184400	-0.945071
0.184500	-0.880479
0.184600	-0.749023
0.184700	-0.617892
0.184800	-0.592899
0.184900	-0.729224
0.185000	-0.807448
0.185100	-0.799333
0.185200	-0.645157
0.185300	-0.531229
0.185400	-0.483191
0.185500	-0.550379
0.185600	-0.646131
0.185700	-0.670799
0.185800	-0.618541
0.185900	-0.520518
0.186000	-0.455926
0.186100	-0.432556
0.186200	-0.444241
0.186300	-0.460470
0.186400	-0.465014
0.186500	-0.454303
0.186600	-0.441969
0.186700	-0.435477
0.186800	-0.430608
0.186900	-0.443267
0.187000	-0.456900
0.187100	-0.503964
0.187200	-0.543887
0.187300	-0.578942
0.187400	-0.605558
0.187500	-0.604909
0.187600	-0.617568
0.187700	-0.683782
0.187800	-0.803553
0.187900	-0.864574
0.188000	-0.860355
0.188100	-0.786026
0.188200	-0.766875
0.188300	-0.832441
0.188400	-0.950264
0.188500	-1.050235
0.188600	-1.053806
0.188700	-0.993758
0.188800	-0.939877
0.188900	-0.957729
0.189000	-1.023944
0.189100	-1.082044
0.189200	-1.109634
0.189300	-1.111906
0.189400	-1.108985
0.189500	-1.139495
0.189600	-1.175849
0.189700	-1.218693
0.189800	-1.237844
0.189900	-1.258942
0.190000	-1.285882
0.190100	-1.308603
0.190200	-1.317691
0.190300	-1.305682
0.190400	-1.293023
0.190500	-1.318665
0.190600	-1.392020
0.190700	-1.435190
0.190800	-1.451419
0.190900	-1.408899
0.191000	-1.407276
0.191100	-1.424479
0.191200	-1.430321
0.191300	-1.429997
0.191400	-1.427725
0.191500	-1.422856
0.191600	-1.419610
0.191700	-1.419935
0.191800	-1.413767
0.191900	-1.400784
0.192000	-1.396565
0.192100	-1.389099
0.192200	-1.389424
0.192300	-1.380335
0.192400	-1.376440
0.192500	-1.374818
0.192600	-1.372221
0.192700	-1.388125
0.192800	-1.410846
0.192900	-1.515362
0.193000	-1.646818
0.193100	-1.703620
0.193200	-1.634808
0.193300	-1.529968
0.193400	-1.501729
0.193500	-1.617930
0.193600	-1.779572
0.193700	-1.885386
0.193800	-1.875973
0.193900	-1.802293
0.194000	-1.765615
0.194100	-1.805214
0.194200	-1.910703
0.194300	-2.006455
0.194400	-2.050923
0.194500	-2.057090
0.194600	-2.063907
0.194700	-2.081110
0.194800	-2.110322
0.194900	-2.141807
0.195000	-2.171993
0.195100	-2.186924
0.195200	-2.219382
0.195300	-2.255735
0.195400	-2.292738
0.195500	-2.301501
0.195600	-2.311564
0.195700	-2.332986
0.195800	-2.371611
0.195900	-2.395955
0.196000	-2.365444
0.196100	-2.280728
0.196200	-2.252814
0.196300	-2.302475
0.196400	-2.406017
0.196500	-2.491058
0.196600	-2.480347
0.196700	-2.395955
0.196800	-2.318055
0.196900	-2.322275
0.197000	-2.403421
0.197100	-2.491058
0.197200	-2.529684
0.197300	-2.498524
0.197400	-2.453406
0.197500	-2.435879
0.197600	-2.447239
0.197700	-2.457626
0.197800	-2.461196
0.197900	-2.454705
0.198000	-2.436853
0.198100	-2.411211
0.198200	-2.378752
0.198300	-2.316108
0.198400	-2.239831
0.198500	-2.175239
0.198600	-2.135964
0.198700	-2.101234
0.198800	-2.068775
0.198900	-1.980813
0.199000	-1.907458
0.199100	-1.828259
0.199200	-1.752956
0.199300	-1.691610
0.199400	-1.633510
0.199500	-1.561128
0.199600	-1.485176
0.199700	-1.404030
0.199800	-1.327429
0.199900	-1.272899
0.200000	-1.230703
0.200100	-1.200192
0.200200	-1.171629
0.200300	-1.154751
0.200400	-1.141443
0.200500	-1.121319
0.200600	-1.086589
0.200700	-1.071982
0.200800	-1.062894
0.200900	-1.069710
0.201000	-1.067438
0.201100	-1.068412
0.201200	-0.979801
0.201300	-0.848994
0.201400	-0.725329
0.201500	-0.777262
0.201600	-0.901901
0.201700	-0.984345
0.201800	-0.928842
0.201900	-0.810694
0.202000	-0.707152
0.202100	-0.705529
0.202200	-0.790570
0.202300	-0.866846
0.202400	-0.874312
0.202500	-0.811018
0.202600	-0.736040
0.202700	-0.706503
0.202800	-0.711696
0.202900	-0.727601
0.203000	-0.744154
0.203100	-0.737987
0.203200	-0.727276
0.203300	-0.725978
0.203400	-0.736365
0.203500	-0.742856
0.203600	-0.753892
0.203700	-0.778236
0.203800	-0.811343
0.203900	-0.845424
0.204000	-0.880803
0.204100	-0.887620
0.204200	-0.882751
0.204300	-0.899629
0.204400	-0.984994
0.204500	-1.083343
0.204600	-1.113529
0.204700	-1.077500
0.204800	-1.000250
0.204900	-0.990837
0.205000	-1.059324
0.205100	-1.171629
0.205200	-1.224536
0.205300	-1.200192
0.205400	-1.124889
0.205500	-1.092106
0.205600	-1.137873
0.205700	-1.201491
0.205800	-1.239142
0.205900	-1.245958
0.206000	-1.239467
0.206100	-1.254398
0.206200	-1.276145
0.206300	-1.311524
0.206400	-1.343009
0.206500	-1.356966
0.206600	-1.373844
0.206700	-1.397214
0.206800	-1.403381
0.206900	-1.400460
0.207000	-1.395591
0.207100	-1.390398
0.207200	-1.433567
0.207300	-1.483877
0.207400	-1.514713
0.207500	-1.509844
0.207600	-1.479658
0.207700	-1.485176
0.207800	-1.496861
0.207900	-1.496861
0.208000	-1.498483
0.208100	-1.491992
0.208200	-1.484202
0.208300	-1.482579
0.208400	-1.478684
0.208500	-1.479658
0.208600	-1.483228
0.208700	-1.491018
0.208800	-1.487123
0.208900	-1.492316
0.209000	-1.499133
0.209100	-1.506273
0.209200	-1.512116
0.209300	-1.534837
0.209400	-1.562102
0.209500	-1.614035
0.209600	-1.743219
0.209700	-1.887983
0.209800	-1.923038
0.209900	-1.841567
0.210000	-1.758474
0.210100	-1.766913
0.210200	-1.910703
0.210300	-2.066828
0.210400	-2.138561
0.210500	-2.101883
0.210600	-2.044756
0.210700	-2.034694
0.210800	-2.106427
0.210900	-2.218084
0.211000	-2.298905
0.211100	-2.323898
0.211200	-2.320003
0.211300	-2.321301
0.211400	-2.337206
0.211500	-2.371936
0.211600	-2.391086
0.211700	-2.398552
0.211800	-2.405368
0.211900	-2.419974
0.212000	-2.446266
0.212100	-2.466065
0.212200	-2.465416
0.212300	-2.461196
0.212400	-2.480996
0.212500	-2.511832
0.212600	-2.513779
0.212700	-2.461196
0.212800	-2.384595
0.212900	-2.380051
0.213000	-2.431984
0.213100	-2.525464
0.213200	-2.577397
0.213300	-2.540070
0.213400	-2.440099
0.213500	-2.382972
0.213600	-2.410561
0.213700	-2.501445
0.213800	-2.585837
0.213900	-2.598171
0.214000	-2.551755
0.214100	-2.495927
0.214200	-2.472557
0.214300	-2.486189
0.214400	-2.507937
0.214500	-2.509884
0.214600	-2.505989
0.214700	-2.483593
0.214800	-2.450485
0.214900	-2.408289
0.215000	-2.339802
0.215100	-2.274886
0.215200	-2.223926
0.215300	-2.184652
0.215400	-2.157387
0.215500	-2.106102
0.215600	-2.012298
0.215700	-1.937968
0.215800	-1.840269
0.215900	-1.768536
0.216000	-1.710760
0.216100	-1.646818
0.216200	-1.571839
0.216300	-1.492966
0.216400	-1.410846
0.216500	-1.332297
0.216600	-1.276145
0.216700	-1.229405
0.216800	-1.204087
0.216900	-1.182016
0.217000	-1.153128
0.217100	-1.132355
0.217200	-1.096326
0.217300	-1.085939
0.217400	-1.056727
0.217500	-1.058674
0.217600	-1.043744
0.217700	-1.051209
0.217800	-1.022321
0.217900	-0.921701
0.218000	-0.779209
0.218100	-0.711047
0.218200	-0.801605
0.218300	-0.927868
0.218400	-0.971362
0.218500	-0.896708
0.218600	-0.771744
0.218700	-0.714942
0.218800	-0.743830
0.218900	-0.846398
0.219000	-0.898006
0.219100	-0.885348
0.219200	-0.807773
0.219300	-0.743505
0.219400	-0.730197
0.219500	-0.747400
0.219600	-0.775314
0.219700	-0.781157
0.219800	-0.781157
0.219900	-0.768174
0.220000	-0.764603
0.220100	-0.762980
0.220200	-0.766551
0.220300	-0.786999
0.220400	-0.824002
0.220500	-0.868469
0.220600	-0.892488
0.220700	-0.929166
0.220800	-0.928192
0.220900	-0.949615
0.221000	-0.973634
0.221100	-1.094703
0.221200	-1.180717
0.221300	-1.211877
0.221400	-1.180393
0.221500	-1.141768
0.221600	-1.178445
0.221700	-1.287830
0.221800	-1.398512
0.221900	-1.436488
0.222000	-1.398188
0.222100	-1.341710
0.222200	-1.347553
0.222300	-1.406302
0.222400	-1.467648
0.222500	-1.495562
0.222600	-1.506273
0.222700	-1.502054
0.222800	-1.520555
0.222900	-1.557233
0.223000	-1.594884
0.223100	-1.627992
0.223200	-1.650713
0.223300	-1.672460
0.223400	-1.689338
0.223500	-1.692908
0.223600	-1.677653
0.223700	-1.665968
0.223800	-1.672135
0.223900	-1.719200
0.224000	-1.761071
0.224100	-1.771457
0.224200	-1.729262
0.224300	-1.706541
0.224400	-1.711734
0.224500	-1.713033
0.224600	-1.702321
0.224700	-1.699400
0.224800	-1.683496
0.224900	-1.675381
0.225000	-1.655257
0.225100	-1.640651
0.225200	-1.627343
0.225300	-1.614359
0.225400	-1.601376
0.225500	-1.590340
0.225600	-1.578006
0.225700	-1.571190
0.225800	-1.568918
0.225900	-1.573462
0.226000	-1.585472
0.226100	-1.609491
0.226200	-1.689338
0.226300	-1.827610
0.226400	-1.940241
0.226500	-1.921739
0.226600	-1.831505
0.226700	-1.757176
0.226800	-1.804240
0.226900	-1.950952
0.227000	-2.071372
0.227100	-2.097339
0.227200	-2.036642
0.227300	-1.993472
0.227400	-2.019114
0.227500	-2.117138
0.227600	-2.227821
0.227700	-2.294685
0.227800	-2.314485
0.227900	-2.326494
0.228000	-2.359277
0.228100	-2.402771
0.228200	-2.458600
0.228300	-2.509884
0.228400	-2.547211
0.228500	-2.588758
0.228600	-2.646534
0.228700	-2.711126
0.228800	-2.744883
0.228900	-2.771498
0.229000	-2.800062
0.229100	-2.859136
0.229200	-2.917237
0.229300	-2.946125
0.229400	-2.897437
0.229500	-2.857838
0.229600	-2.895814
0.229700	-2.988645
0.229800	-3.101276
0.229900	-3.127243
0.230000	-3.071090
0.230100	-2.989944
0.230200	-2.983452
0.230300	-3.060378
0.230400	-3.188265
0.230500	-3.252208
0.230600	-3.235005
0.230700	-3.179176
0.230800	-3.150613
0.230900	-3.151587
0.231000	-3.171711
0.231100	-3.179825
0.231200	-3.174307
0.231300	-3.163272
0.231400	-3.129839
0.231500	-3.096407
0.231600	-3.022077
0.231700	-2.928922
0.231800	-2.848100
0.231900	-2.786105
0.232000	-2.730276
0.232100	-2.671527
0.232200	-2.562791
0.232300	-2.437177
0.232400	-2.347268
0.232500	-2.222628
0.232600	-2.132069
0.232700	-2.048976
0.232800	-1.952250
0.232900	-1.847410
0.233000	-1.730885
0.233100	-1.621500
0.233200	-1.533214
0.233300	-1.453042
0.233400	-1.387152
0.233500	-1.320937
0.233600	-1.266407
0.233700	-1.205710
0.233800	-1.158646
0.233900	-1.091457
0.234000	-1.047963
0.234100	-0.989214
0.234200	-0.976231
0.234300	-0.939877
0.234400	-0.913262
0.234500	-0.854837
0.234600	-0.719162
0.234700	-0.566608
0.234800	-0.538694
0.234900	-0.648727
0.235000	-0.740909
0.235100	-0.721109
0.235200	-0.608155
0.235300	-0.475076
0.235400	-0.446837
0.235500	-0.498121
0.235600	-0.602312
0.235700	-0.624059
0.235800	-0.590627
0.235900	-0.497797
0.236000	-0.456575
0.236100	-0.455277
0.236200	-0.478971
0.236300	-0.503639
0.236400	-0.514350
0.236500	-0.508183
0.236600	-0.510456
0.236700	-0.523114
0.236800	-0.541291
0.236900	-0.544537
0.237000	-0.554923
0.237100	-0.591276
0.237200	-0.630551
0.237300	-0.683782
0.237400	-0.714618
0.237500	-0.706828
0.237600	-0.702933
0.237700	-0.739286
0.237800	-0.855811
0.237900	-0.915534
0.238000	-0.917481
0.238100	-0.845424
0.238200	-0.798035
0.238300	-0.840880
0.238400	-0.960326
0.238500	-1.056078
0.238600	-1.060947
0.238700	-0.988565
0.238800	-0.926245
0.238900	-0.938255
0.239000	-1.009338
0.239100	-1.070684
0.239200	-1.096326
0.239300	-1.093405
0.239400	-1.081071
0.239500	-1.095677
0.239600	-1.139820
0.239700	-1.189481
0.239800	-1.220966
0.239900	-1.250503
0.240000	-1.268679
0.240100	-1.292698
0.240200	-1.300164
0.240300	-1.294321
0.240400	-1.289452
0.240500	-1.313147
0.240600	-1.373519
0.240700	-1.422856
0.240800	-1.435514
0.240900	-1.399810
0.241000	-1.396889
0.241100	-1.414741
0.241200	-1.431619
0.241300	-1.442331
0.241400	-1.449796
0.241500	-1.459858
0.241600	-1.466674
0.241700	-1.480956
0.241800	-1.496211
0.241900	-1.506598
0.242000	-1.517634
0.242100	-1.525099
0.242200	-1.541978
0.242300	-1.555610
0.242400	-1.582550
0.242500	-1.608192
0.242600	-1.639352
0.242700	-1.670188
0.242800	-1.708813
0.242900	-1.822742
0.243000	-1.983085
0.243100	-2.078837
0.243200	-2.037615
0.243300	-1.959391
0.243400	-1.933100
0.243500	-2.046055
0.243600	-2.211916
0.243700	-2.332986
0.243800	-2.333311
0.243900	-2.259955
0.244000	-2.219057
0.244100	-2.255735
0.244200	-2.360251
0.244300	-2.459574
0.244400	-2.516376
0.244500	-2.518323
0.244600	-2.507287
0.244700	-2.509884
0.244800	-2.539097
0.244900	-2.562467
0.245000	-2.580643
0.245100	-2.593951
0.245200	-2.609531
0.245300	-2.638095
0.245400	-2.657570
0.245500	-2.669579
0.245600	-2.663087
0.245700	-2.667307
0.245800	-2.687431
0.245900	-2.697818
0.246000	-2.675097
0.246100	-2.597197
0.246200	-2.541369
0.246300	-2.561493
0.246400	-2.642963
0.246500	-2.722162
0.246600	-2.708854
0.246700	-2.609531
0.246800	-2.504691
0.246900	-2.478399
0.247000	-2.533254
0.247100	-2.635822
0.247200	-2.692949
0.247300	-2.665684
0.247400	-2.601741
0.247500	-2.549808
0.247600	-2.530333
0.247700	-2.540719
0.247800	-2.546562
0.247900	-2.556299
0.248000	-2.539097
0.248100	-2.495602
0.248200	-2.443344
0.248300	-2.368366
0.248400	-2.297606
0.248500	-2.245024
0.248600	-2.204127
0.248700	-2.179458
0.248800	-2.142456
0.248900	-2.054169
0.249000	-1.968155
0.249100	-1.891878
0.249200	-1.812679
0.249300	-1.750035
0.249400	-1.695830
0.249500	-1.630913
0.249600	-1.559830
0.249700	-1.471868
0.249800	-1.391371
0.249900	-1.325156
0.250000	-1.276145
0.250100	-1.246608
0.250200	-1.224536
0.250300	-1.200841
0.250400	-1.193051
0.250500	-1.159620
0.250600	-1.145987
0.250700	-1.110283
0.250800	-1.119047
0.250900	-1.105739
0.251000	-1.122617
0.251100	-1.112555
0.251200	-1.048937
0.251300	-0.906445
0.251400	-0.794789
0.251500	-0.817835
0.251600	-0.956756
0.251700	-1.035629
0.251800	-0.991486
0.251900	-0.860355
0.252000	-0.755190
0.252100	-0.733443
0.252200	-0.814913
0.252300	-0.890866
0.252400	-0.905147
0.252500	-0.837959
0.252600	-0.761357
0.252700	-0.710073
0.252800	-0.706178
0.252900	-0.719811
0.253000	-0.730522
0.253100	-0.744154
0.253200	-0.744804
0.253300	-0.738637
0.253400	-0.731496
0.253500	-0.731171
0.253600	-0.731496
0.253700	-0.757462
0.253800	-0.800956
0.253900	-0.843801
0.254000	-0.890541
0.254100	-0.899954
0.254200	-0.904173
0.254300	-0.918130
0.254400	-0.983047
0.254500	-1.086264
0.254600	-1.130083
0.254700	-1.108011
0.254800	-1.022646
0.254900	-1.007066
0.255000	-1.068737
0.255100	-1.177147
0.255200	-1.253424
0.255300	-1.245634
0.255400	-1.192727
0.255500	-1.150856
0.255600	-1.181367
0.255700	-1.241414
0.255800	-1.279390
0.255900	-1.314445
0.256000	-1.329051
0.256100	-1.353071
0.256200	-1.386827
0.256300	-1.419935
0.256400	-1.453042
0.256500	-1.477710
0.256600	-1.510493
0.256700	-1.549443
0.256800	-1.585472
0.256900	-1.593911
0.257000	-1.594884
0.257100	-1.593911
0.257200	-1.635457
0.257300	-1.712708
0.257400	-1.754579
0.257500	-1.770159
0.257600	-1.769835
0.257700	-1.765615
0.257800	-1.773405
0.257900	-1.768536
0.258000	-1.753605
0.258100	-1.746140
0.258200	-1.737376
0.258300	-1.724068
0.258400	-1.717901
0.258500	-1.715305
0.258600	-1.719524
0.258700	-1.721472
0.258800	-1.726016
0.258900	-1.725367
0.259000	-1.738025
0.259100	-1.741920
0.259200	-1.750360
0.259300	-1.757176
0.259400	-1.781844
0.259500	-1.820145
0.259600	-1.943162
0.259700	-2.082083
0.259800	-2.129797
0.259900	-2.046379
0.260000	-1.947381
0.260100	-1.937644
0.260200	-2.057740
0.260300	-2.211916
0.260400	-2.286895
0.260500	-2.254437
0.260600	-2.169072
0.260700	-2.148947
0.260800	-2.199582
0.260900	-2.303449
0.261000	-2.379726
0.261100	-2.404394
0.261200	-2.410561
0.261300	-2.416404
0.261400	-2.427764
0.261500	-2.446915
0.261600	-2.460223
0.261700	-2.463793
0.261800	-2.476127
0.261900	-2.495927
0.262000	-2.518648
0.262100	-2.538447
0.262200	-2.533579
0.262300	-2.537474
0.262400	-2.551106
0.262500	-2.578047
0.262600	-2.602066
0.262700	-2.560519
0.262800	-2.485865
0.262900	-2.476452
0.263000	-2.532605
0.263100	-2.639393
0.263200	-2.713723
0.263300	-2.687756
0.263400	-2.617321
0.263500	-2.570581
0.263600	-2.600767
0.263700	-2.697818
0.263800	-2.789351
0.263900	-2.825055
0.264000	-2.796491
0.264100	-2.764358
0.264200	-2.746830
0.264300	-2.742286
0.264400	-2.729303
0.264500	-2.712749
0.264600	-2.692300
0.264700	-2.666982
0.264800	-2.627059
0.264900	-2.569607
0.265000	-2.494953
0.265100	-2.399850
0.265200	-2.325196
0.265300	-2.278131
0.265400	-2.240155
0.265500	-2.172642
0.265600	-2.072021
0.265700	-1.971400
0.265800	-1.857472
0.265900	-1.794503
0.266000	-1.749061
0.266100	-1.714980
0.266200	-1.670512
0.266300	-1.624097
0.266400	-1.572813
0.266500	-1.517634
0.266600	-1.486799
0.266700	-1.479333
0.266800	-1.472517
0.266900	-1.470569
0.267000	-1.476736
0.267100	-1.471868
0.267200	-1.468297
0.267300	-1.457262
0.267400	-1.462130
0.267500	-1.448498
0.267600	-1.471868
0.267700	-1.463429
0.267800	-1.448822
0.267900	-1.366054
0.268000	-1.212202
0.268100	-1.110283
0.268200	-1.156698
0.268300	-1.286531
0.268400	-1.322560
0.268500	-1.237195
0.268600	-1.078474
0.268700	-0.977529
0.268800	-0.971362
0.268900	-1.036927
0.269000	-1.082044
0.269100	-1.054130
0.269200	-0.967791
0.269300	-0.879505
0.269400	-0.833415
0.269500	-0.817185
0.269600	-0.810694
0.269700	-0.792842
0.269800	-0.767200
0.269900	-0.738312
0.270000	-0.723381
0.270100	-0.716565
0.270200	-0.716240
0.270300	-0.712021
0.270400	-0.730197
0.270500	-0.771095
0.270600	-0.810045
0.270700	-0.843477
0.270800	-0.826274
0.270900	-0.812966
0.271000	-0.801281
0.271100	-0.882426
0.271200	-0.949615
0.271300	-0.956431
0.271400	-0.898980
0.271500	-0.809071
0.271600	-0.803553
0.271700	-0.876909
0.271800	-0.990188
0.271900	-1.031085
0.272000	-1.007390
0.272100	-0.949939
0.272200	-0.945395
0.272300	-1.010312
0.272400	-1.080097
0.272500	-1.113529
0.272600	-1.125538
0.272700	-1.133328
0.272800	-1.154426
0.272900	-1.191429
0.273000	-1.229080
0.273100	-1.250827
0.273200	-1.264135
0.273300	-1.281338
0.273400	-1.302760
0.273500	-1.309577
0.273600	-1.311849
0.273700	-1.293672
0.273800	-1.295944
0.273900	-1.346903
0.274000	-1.402407
0.274100	-1.417662
0.274200	-1.415715
0.274300	-1.379362
0.274400	-1.383257
0.274500	-1.378388
0.274600	-1.367028
0.274700	-1.349825
0.274800	-1.333596
0.274900	-1.327753
0.275000	-1.316393
0.275100	-1.305682
0.275200	-1.298865
0.275300	-1.292698
0.275400	-1.295295
0.275500	-1.299190
0.275600	-1.304708
0.275700	-1.309577
0.275800	-1.323209
0.275900	-1.334569
0.276000	-1.346254
0.276100	-1.373519
0.276200	-1.445577
0.276300	-1.596832
0.276400	-1.736078
0.276500	-1.764641
0.276600	-1.682846
0.276700	-1.614035
0.276800	-1.667266
0.276900	-1.832479
0.277000	-1.995420
0.277100	-2.068775
0.277200	-2.045081
0.277300	-2.004833
0.277400	-2.028852
0.277500	-2.126227
0.277600	-2.255735
0.277700	-2.345320
0.277800	-2.388490
0.277900	-2.418027
0.278000	-2.458924
0.278100	-2.506963
0.278200	-2.568634
0.278300	-2.614400
0.278400	-2.648806
0.278500	-2.684835
0.278600	-2.727680
0.278700	-2.781561
0.278800	-2.820511
0.278900	-2.832196
0.279000	-2.855241
0.279100	-2.897112
0.279200	-2.930220
0.279300	-2.940607
0.279400	-2.889647
0.279500	-2.825379
0.279600	-2.828301
0.279700	-2.901981
0.279800	-3.003251
0.279900	-3.046097
0.280000	-2.985075
0.280100	-2.896463
0.280200	-2.857838
0.280300	-2.900358
0.280400	-2.985724
0.280500	-3.049992
0.280600	-3.034736
0.280700	-2.972416
0.280800	-2.924053
0.280900	-2.899385
0.281000	-2.887375
0.281100	-2.873418
0.281200	-2.842907
0.281300	-2.804931
0.281400	-2.759164
0.281500	-2.709828
0.281600	-2.645885
0.281700	-2.559221
0.281800	-2.480022
0.281900	-2.422246
0.282000	-2.373559
0.282100	-2.332012
0.282200	-2.249568
0.282300	-2.134341
0.282400	-2.006455
0.282500	-1.892202
0.282600	-1.819496
0.282700	-1.742894
0.282800	-1.671811
0.282900	-1.588393
0.283000	-1.503677
0.283100	-1.416689
0.283200	-1.341386
0.283300	-1.290751
0.283400	-1.250503
0.283500	-1.228431
0.283600	-1.203763
0.283700	-1.187858
0.283800	-1.162541
0.283900	-1.142741
0.284000	-1.113853
0.284100	-1.096651
0.284200	-1.085290
0.284300	-1.090808
0.284400	-1.080421
0.284500	-1.054130
0.284600	-0.940202
0.284700	-0.805176
0.284800	-0.746102
0.284900	-0.863276
0.285000	-0.975581
0.285100	-1.003496
0.285200	-0.909691
0.285300	-0.786999
0.285400	-0.730847
0.285500	-0.778885
0.285600	-0.857109
0.285700	-0.886971
0.285800	-0.849968
0.285900	-0.758436
0.286000	-0.695467
0.286100	-0.678914
0.286200	-0.692871
0.286300	-0.710073
0.286400	-0.702608
0.286500	-0.687028
0.286600	-0.668851
0.286700	-0.656517
0.286800	-0.660088
0.286900	-0.651324
0.287000	-0.672422
0.287100	-0.688002
0.287200	-0.739935
0.287300	-0.781806
0.287400	-0.820756
0.287500	-0.812317
0.287600	-0.811668
0.287700	-0.836336
0.287800	-0.958703
0.287900	-1.026865
0.288000	-1.045691
0.288100	-0.980450
0.288200	-0.940851
0.288300	-0.982073
0.288400	-1.098923
0.288500	-1.207982
0.288600	-1.246608
0.288700	-1.211553
0.288800	-1.179744
0.288900	-1.224211
0.289000	-1.325481
0.289100	-1.421882
0.289200	-1.483228
0.289300	-1.528020
0.289400	-1.558856
0.289500	-1.617281
0.289600	-1.688040
0.289700	-1.761720
0.289800	-1.810407
0.289900	-1.855200
0.290000	-1.897396
0.290100	-1.935696
0.290200	-1.959391
0.290300	-1.967830
0.290400	-1.968155
0.290500	-1.997367
0.290600	-2.076241
0.290700	-2.137587
0.290800	-2.174265
0.290900	-2.170370
0.291000	-2.167773
0.291100	-2.190494
0.291200	-2.199582
0.291300	-2.211267
0.291400	-2.216785
0.291500	-2.203477
0.291600	-2.191143
0.291700	-2.167124
0.291800	-2.143754
0.291900	-2.111945
0.292000	-2.077215
0.292100	-2.045730
0.292200	-2.011324
0.292300	-1.973997
0.292400	-1.940890
0.292500	-1.907133
0.292600	-1.888956
0.292700	-1.876298
0.292800	-1.877921
0.292900	-1.937644
0.293000	-2.065530
0.293100	-2.147649
0.293200	-2.097339
0.293300	-1.974971
0.293400	-1.892202
0.293500	-1.944135
0.293600	-2.071697
0.293700	-2.164203
0.293800	-2.159009
0.293900	-2.067477
0.294000	-2.009377
0.294100	-2.031448
0.294200	-2.130771
0.294300	-2.230418
0.294400	-2.287544
0.294500	-2.295659
0.294600	-2.301501
0.294700	-2.332661
0.294800	-2.383621
0.294900	-2.436204
0.295000	-2.471583
0.295100	-2.491058
0.295200	-2.516376
0.295300	-2.559870
0.295400	-2.604987
0.295500	-2.624462
0.295600	-2.631603
0.295700	-2.650104
0.295800	-2.681913
0.295900	-2.716644
0.296000	-2.722162
0.296100	-2.660491
0.296200	-2.626085
0.296300	-2.668930
0.296400	-2.775069
0.296500	-2.892893
0.296600	-2.917886
0.296700	-2.854592
0.296800	-2.778639
0.296900	-2.778964
0.297000	-2.864329
0.297100	-2.987671
0.297200	-3.049992
0.297300	-3.024674
0.297400	-2.956836
0.297500	-2.904902
0.297600	-2.889322
0.297700	-2.895490
0.297800	-2.887050
0.297900	-2.863031
0.298000	-2.827327
0.298100	-2.768577
0.298200	-2.715670
0.298300	-2.649130
0.298400	-2.573502
0.298500	-2.504691
0.298600	-2.457626
0.298700	-2.416729
0.298800	-2.372910
0.298900	-2.289167
0.299000	-2.199582
0.299100	-2.087926
0.299200	-1.998341
0.299300	-1.938293
0.299400	-1.884737
0.299500	-1.820145
0.299600	-1.756527
0.299700	-1.681223
0.299800	-1.615333
0.299900	-1.566970
0.300000	-1.536460
0.300100	-1.522827
0.300200	-1.501405
0.300300	-1.493939
0.300400	-1.486474
0.300500	-1.465701
0.300600	-1.442980
0.300700	-1.421882
0.300800	-1.407600
0.300900	-1.418312
0.301000	-1.437787
0.301100	-1.449796
0.301200	-1.408250
0.301300	-1.302111
0.301400	-1.192402
0.301500	-1.211877
0.301600	-1.352746
0.301700	-1.470894
0.301800	-1.460183
0.301900	-1.349500
0.302000	-1.260889
0.302100	-1.247581
0.302200	-1.337815
0.302300	-1.439409
0.302400	-1.472192
0.302500	-1.436813
0.302600	-1.371247
0.302700	-1.335543
0.302800	-1.357615
0.302900	-1.400784
0.303000	-1.423505
0.303100	-1.423180
0.303200	-1.398512
0.303300	-1.365405
0.303400	-1.337491
0.303500	-1.301137
0.303600	-1.260889
0.303700	-1.232975
0.303800	-1.225185
0.303900	-1.198569
0.304000	-1.185586
0.304100	-1.133328
0.304200	-1.071658
0.304300	-1.011610
0.304400	-1.010961
0.304500	-1.065815
0.304600	-1.058350
0.304700	-0.994732
0.304800	-0.863601
0.304900	-0.773367
0.305000	-0.769796
0.305100	-0.822703
0.305200	-0.850617
0.305300	-0.795763
0.305400	-0.687028
0.305500	-0.590627
0.305600	-0.574074
0.305700	-0.613997
0.305800	-0.639639
0.305900	-0.653596
0.306000	-0.631849
0.306100	-0.624708
0.306200	-0.633147
0.306300	-0.651973
0.306400	-0.684107
0.306500	-0.693520
0.306600	-0.710723
0.306700	-0.730847
0.306800	-0.748699
0.306900	-0.747400
0.307000	-0.753567
0.307100	-0.758761
0.307200	-0.809395
0.307300	-0.889567
0.307400	-0.947343
0.307500	-0.978178
0.307600	-0.997978
0.307700	-1.025243
0.307800	-1.049586
0.307900	-1.081071
0.308000	-1.104116
0.308100	-1.136250
0.308200	-1.151505
0.308300	-1.170006
0.308400	-1.194350
0.308500	-1.211228
0.308600	-1.230703
0.308700	-1.253424
0.308800	-1.265109
0.308900	-1.284908
0.309000	-1.296593
0.309100	-1.309252
0.309200	-1.319314
0.309300	-1.342035
0.309400	-1.365729
0.309500	-1.407925
0.309600	-1.518608
0.309700	-1.672135
0.309800	-1.727963
0.309900	-1.665968
0.310000	-1.567944
0.310100	-1.548145
0.310200	-1.656231
0.310300	-1.806837
0.310400	-1.895448
0.310500	-1.883114
0.310600	-1.806512
0.310700	-1.784441
0.310800	-1.839620
0.310900	-1.953224
0.311000	-2.046379
0.311100	-2.083382
0.311200	-2.096040
0.311300	-2.093768
0.311400	-2.103181
0.311500	-2.128499
0.311600	-2.162904
0.311700	-2.191792
0.311800	-2.212566
0.311900	-2.237234
0.312000	-2.280728
0.312100	-2.309616
0.312200	-2.323898
0.312300	-2.335907
0.312400	-2.363172
0.312500	-2.401473
0.312600	-2.440099
0.312700	-2.420299
0.312800	-2.367716
0.312900	-2.356031
0.313000	-2.413483
0.313100	-2.513454
0.313200	-2.602066
0.313300	-2.590705
0.313400	-2.516700
0.313500	-2.449187
0.313600	-2.464442
0.313700	-2.571230
0.313800	-2.681913
0.313900	-2.732548
0.314000	-2.706582
0.314100	-2.654648
0.314200	-2.629331
0.314300	-2.628682
0.314400	-2.640691
0.314500	-2.645560
0.314600	-2.646209
0.314700	-2.634200
0.314800	-2.612128
0.314900	-2.569932
0.315000	-2.509235
0.315100	-2.429387
0.315200	-2.372261
0.315300	-2.338829
0.315400	-2.312213
0.315500	-2.265148
0.315600	-2.164852
0.315700	-2.060336
0.315800	-1.953548
0.315900	-1.881166
0.316000	-1.816899
0.316100	-1.752632
0.316200	-1.687066
0.316300	-1.608517
0.316400	-1.523152
0.316500	-1.441682
0.316600	-1.374493
0.316700	-1.339114
0.316800	-1.304059
0.316900	-1.277443
0.317000	-1.259915
0.317100	-1.242063
0.317200	-1.215448
0.317300	-1.193051
0.317400	-1.178445
0.317500	-1.170655
0.317600	-1.181691
0.317700	-1.187858
0.317800	-1.181691
0.317900	-1.098923
0.318000	-0.960326
0.318100	-0.849968
0.318200	-0.908718
0.318300	-1.047963
0.318400	-1.107037
0.318500	-1.043744
0.318600	-0.914885
0.318700	-0.825300
0.318800	-0.827572
0.318900	-0.912937
0.319000	-0.980450
0.319100	-0.964546
0.319200	-0.889567
0.319300	-0.799983
0.319400	-0.769472
0.319500	-0.762656
0.319600	-0.782780
0.319700	-0.789271
0.319800	-0.792517
0.319900	-0.789271
0.320000	-0.789921
0.320100	-0.792193
0.320200	-0.791543
0.320300	-0.786026
0.320400	-0.827572
0.320500	-0.875935
0.320600	-0.939553
0.320700	-0.979152
0.320800	-0.999925
0.320900	-1.000250
0.321000	-1.021023
0.321100	-1.114178
0.321200	-1.230378
0.321300	-1.268355
0.321400	-1.232001
0.321500	-1.156698
0.321600	-1.148584
0.321700	-1.228106
0.321800	-1.342359
0.321900	-1.404355
0.322000	-1.372546
0.322100	-1.292698
0.322200	-1.251801
0.322300	-1.286856
0.322400	-1.346903
0.322500	-1.373195
0.322600	-1.380985
0.322700	-1.367677
0.322800	-1.374818
0.322900	-1.397863
0.323000	-1.425128
0.323100	-1.443954
0.323200	-1.450121
0.323300	-1.461157
0.323400	-1.480956
0.323500	-1.490044
0.323600	-1.485825
0.323700	-1.467973
0.323800	-1.459209
0.323900	-1.499133
0.324000	-1.556908
0.324100	-1.578980
0.324200	-1.568269
0.324300	-1.539056
0.324400	-1.535486
0.324500	-1.534512
0.324600	-1.525748
0.324700	-1.518608
0.324800	-1.505949
0.324900	-1.496211
0.325000	-1.487123
0.325100	-1.470569
0.325200	-1.462455
0.325300	-1.454016
0.325400	-1.453691
0.325500	-1.452717
0.325600	-1.451419
0.325700	-1.459534
0.325800	-1.455963
0.325900	-1.465376
0.326000	-1.481605
0.326100	-1.509519
0.326200	-1.568593
0.326300	-1.709787
0.326400	-1.857147
0.326500	-1.888956
0.326600	-1.811381
0.326700	-1.725691
0.326800	-1.758474
0.326900	-1.910703
0.327000	-2.077864
0.327100	-2.152193
0.327200	-2.110647
0.327300	-2.044756
0.327400	-2.039238
0.327500	-2.118761
0.327600	-2.236585
0.327700	-2.337530
0.327800	-2.375831
0.327900	-2.381998
0.328000	-2.394981
0.328100	-2.419001
0.328200	-2.455029
0.328300	-2.476452
0.328400	-2.491707
0.328500	-2.501769
0.328600	-2.530008
0.328700	-2.567011
0.328800	-2.599145
0.328900	-2.601092
0.329000	-2.604987
0.329100	-2.631278
0.329200	-2.661140
0.329300	-2.673150
0.329400	-2.615374
0.329500	-2.544614
0.329600	-2.546237
0.329700	-2.618295
0.329800	-2.739365
0.329900	-2.809475
0.330000	-2.784806
0.330100	-2.712749
0.330200	-2.686458
0.330300	-2.756568
0.330400	-2.901007
0.330500	-3.035385
0.330600	-3.095758
0.330700	-3.089915
0.330800	-3.071739
0.330900	-3.089266
0.331000	-3.123023
0.331100	-3.169439
0.331200	-3.195081
0.331300	-3.199625
0.331400	-3.194432
0.331500	-3.179501
0.331600	-3.149964
0.331700	-3.094460
0.331800	-3.031815
0.331900	-2.973390
0.332000	-2.936387
0.332100	-2.887375
0.332200	-2.814993
0.332300	-2.703660
0.332400	-2.572853
0.332500	-2.441397
0.332600	-2.356356
0.332700	-2.266122
0.332800	-2.178484
0.332900	-2.070398
0.333000	-1.956145
0.333100	-1.826312
0.333200	-1.703944
0.333300	-1.605596
0.333400	-1.516011
0.333500	-1.448498
0.333600	-1.369949
0.333700	-1.318016
0.333800	-1.252450
0.333900	-1.210254
0.334000	-1.158646
0.334100	-1.129433
0.334200	-1.108336
0.334300	-1.085939
0.334400	-1.072956
0.334500	-1.017777
0.334600	-0.894111
0.334700	-0.704880
0.334800	-0.605233
0.334900	-0.666904
0.335000	-0.762656
0.335100	-0.787324
0.335200	-0.663334
0.335300	-0.532202
0.335400	-0.436451
0.335500	-0.480269
0.335600	-0.565959
0.335700	-0.650999
0.335800	-0.627305
0.335900	-0.571477
0.336000	-0.502016
0.336100	-0.495200
0.336200	-0.529930
0.336300	-0.561739
0.336400	-0.582513
0.336500	-0.593548
0.336600	-0.601338
0.336700	-0.614646
0.336800	-0.632174
0.336900	-0.654894
0.337000	-0.672422
0.337100	-0.715267
0.337200	-0.759734
0.337300	-0.814264
0.337400	-0.856784
0.337500	-0.866522
0.337600	-0.875610
0.337700	-0.901577
0.337800	-1.018102
0.337900	-1.100221
0.338000	-1.133328
0.338100	-1.075877
0.338200	-1.009013
0.338300	-1.017453
0.338400	-1.099896
0.338500	-1.200192
0.338600	-1.230378
0.338700	-1.175199
0.338800	-1.082369
0.338900	-1.046340
0.339000	-1.087562
0.339100	-1.138197
0.339200	-1.161242
0.339300	-1.162216
0.339400	-1.139495
0.339500	-1.150531
0.339600	-1.174875
0.339700	-1.207333
0.339800	-1.232001
0.339900	-1.247906
0.340000	-1.263161
0.340100	-1.281013
0.340200	-1.276794
0.340300	-1.266083
0.340400	-1.256670
0.340500	-1.267381
0.340600	-1.314445
0.340700	-1.369624
0.340800	-1.389748
0.340900	-1.394617
0.341000	-1.381634
0.341100	-1.399161
0.341200	-1.421557
0.341300	-1.436813
0.341400	-1.455963
0.341500	-1.481281
0.341600	-1.493939
0.341700	-1.517634
0.341800	-1.542302
0.341900	-1.565347
0.342000	-1.593262
0.342100	-1.622474
0.342200	-1.646169
0.342300	-1.666942
0.342400	-1.697128
0.342500	-1.721472
0.342600	-1.745166
0.342700	-1.772756
0.342800	-1.813978
0.342900	-1.890579
0.343000	-2.040537
0.343100	-2.164852
0.343200	-2.155114
0.343300	-2.052546
0.343400	-1.979840
0.343500	-2.029825
0.343600	-2.171019
0.343700	-2.311888
0.343800	-2.345645
0.343900	-2.286571
0.344000	-2.218408
0.344100	-2.220356
0.344200	-2.305396
0.344300	-2.411535
0.344400	-2.480022
0.344500	-2.495278
0.344600	-2.510209
0.344700	-2.524166
0.344800	-2.547536
0.344900	-2.587459
0.345000	-2.621865
0.345100	-2.644586
0.345200	-2.667956
0.345300	-2.702362
0.345400	-2.745856
0.345500	-2.770849
0.345600	-2.798114
0.345700	-2.829274
0.345800	-2.886401
0.345900	-2.946449
0.346000	-2.981504
0.346100	-2.943203
0.346200	-2.916912
0.346300	-2.968196
0.346400	-3.092512
0.346500	-3.225916
0.346600	-3.279148
0.346700	-3.231759
0.346800	-3.154508
0.346900	-3.133410
0.347000	-3.194107
0.347100	-3.306089
0.347200	-3.375550
0.347300	-3.364189
0.347400	-3.318748
0.347500	-3.283692
0.347600	-3.278499
0.347700	-3.286614
0.347800	-3.276552
0.347900	-3.258375
0.348000	-3.233057
0.348100	-3.190537
0.348200	-3.143472
0.348300	-3.071414
0.348400	-2.982803
0.348500	-2.883155
0.348600	-2.796491
0.348700	-2.720214
0.348800	-2.637445
0.348900	-2.520920
0.349000	-2.380700
0.349100	-2.218733
0.349200	-2.087926
0.349300	-1.995744
0.349400	-1.902589
0.349500	-1.809758
0.349600	-1.713682
0.349700	-1.606894
0.349800	-1.497185
0.349900	-1.397538
0.350000	-1.311849
0.350100	-1.236546
0.350200	-1.167409
0.350300	-1.107362
0.350400	-1.030760
0.350500	-0.959352
0.350600	-0.873014
0.350700	-0.803553
0.350800	-0.727601
0.350900	-0.688976
0.351000	-0.653272
0.351100	-0.620489
0.351200	-0.552327
0.351300	-0.413081
0.351400	-0.269940
0.351500	-0.231315
0.351600	-0.347840
0.351700	-0.476374
0.351800	-0.472804
0.351900	-0.391009
0.352000	-0.280976
0.352100	-0.252413
0.352200	-0.321549
0.352300	-0.413730
0.352400	-0.466962
0.352500	-0.423792
0.352600	-0.364394
0.352700	-0.310838
0.352800	-0.320251
0.352900	-0.347515
0.353000	-0.372184
0.353100	-0.372184
0.353200	-0.363095
0.353300	-0.364394
0.353400	-0.370236
0.353500	-0.385816
0.353600	-0.387114
0.353700	-0.418923
0.353800	-0.453978
0.353900	-0.513052
0.354000	-0.557520
0.354100	-0.589329
0.354200	-0.582188
0.354300	-0.593548
0.354400	-0.640613
0.354500	-0.767524
0.354600	-0.840555
0.354700	-0.852889
0.354800	-0.789921
0.354900	-0.769796
0.355000	-0.840555
0.355100	-0.992135
0.355200	-1.127161
0.355300	-1.188183
0.355400	-1.174550
0.355500	-1.173577
0.355600	-1.251152
0.355700	-1.387801
0.355800	-1.508870
0.355900	-1.597806
0.356000	-1.660126
0.356100	-1.725367
0.356200	-1.818197
0.356300	-1.921090
0.356400	-2.014245
0.356500	-2.084680
0.356600	-2.158036
0.356700	-2.232041
0.356800	-2.296308
0.356900	-2.338179
0.357000	-2.359277
0.357100	-2.370313
0.357200	-2.411860
0.357300	-2.478724
0.357400	-2.517674
0.357500	-2.520271
0.357600	-2.503068
0.357700	-2.457951
0.357800	-2.425817
0.357900	-2.379726
0.358000	-2.318704
0.358100	-2.251840
0.358200	-2.183353
0.358300	-2.117138
0.358400	-2.046055
0.358500	-1.981463
0.358600	-1.917195
0.358700	-1.868183
0.358800	-1.820145
0.358900	-1.773405
0.359000	-1.724718
0.359100	-1.672135
0.359200	-1.634484
0.359300	-1.590016
0.359400	-1.563075
0.359500	-1.535486
0.359600	-1.585147
0.359700	-1.689987
0.359800	-1.730885
0.359900	-1.668240
0.360000	-1.541328
0.360100	-1.497510
0.360200	-1.575085
0.360300	-1.730560
0.360400	-1.841892
0.360500	-1.854226
0.360600	-1.792880
0.360700	-1.761071
0.360800	-1.816574
0.360900	-1.932126
0.361000	-2.048002
0.361100	-2.105453
0.361200	-2.132718
0.361300	-2.146026
0.361400	-2.172967
0.361500	-2.224575
0.361600	-2.284299
0.361700	-2.327468
0.361800	-2.355382
0.361900	-2.386542
0.362000	-2.433607
0.362100	-2.481321
0.362200	-2.500471
0.362300	-2.516376
0.362400	-2.543316
0.362500	-2.584214
0.362600	-2.617321
0.362700	-2.611154
0.362800	-2.550132
0.362900	-2.513454
0.363000	-2.547536
0.363100	-2.634849
0.363200	-2.727030
0.363300	-2.720214
0.363400	-2.644262
0.363500	-2.567011
0.363600	-2.560519
0.363700	-2.646534
0.363800	-2.751374
0.363900	-2.805255
0.364000	-2.779613
0.364100	-2.725408
0.364200	-2.693274
0.364300	-2.692300
0.364400	-2.712424
0.364500	-2.719565
0.364600	-2.717618
0.364700	-2.708854
0.364800	-2.683536
0.364900	-2.644586
0.365000	-2.590056
0.365100	-2.518323
0.365200	-2.458924
0.365300	-2.422246
0.365400	-2.390762
0.365500	-2.346943
0.365600	-2.248270
0.365700	-2.157062
0.365800	-2.034045
0.365900	-1.945758
0.366000	-1.881491
0.366100	-1.823066
0.366200	-1.747114
0.366300	-1.666617
0.366400	-1.571839
0.366500	-1.487448
0.366600	-1.414417
0.366700	-1.361834
0.366800	-1.329376
0.366900	-1.293997
0.367000	-1.265433
0.367100	-1.232651
0.367200	-1.187209
0.367300	-1.159620
0.367400	-1.124565
0.367500	-1.119371
0.367600	-1.107037
0.367700	-1.120345
0.367800	-1.093405
0.367900	-1.034655
0.368000	-0.883400
0.368100	-0.778885
0.368200	-0.786026
0.368300	-0.915858
0.368400	-0.981099
0.368500	-0.932412
0.368600	-0.798684
0.368700	-0.689625
0.368800	-0.670799
0.368900	-0.736365
0.369000	-0.805176
0.369100	-0.811018
0.369200	-0.739286
0.369300	-0.655219
0.369400	-0.611076
0.369500	-0.617568
0.369600	-0.633797
0.369700	-0.649377
0.369800	-0.646455
0.369900	-0.640937
0.370000	-0.626007
0.370100	-0.625357
0.370200	-0.631525
0.370300	-0.628279
0.370400	-0.655868
0.370500	-0.705854
0.370600	-0.745128
0.370700	-0.793491
0.370800	-0.795438
0.370900	-0.791219
0.371000	-0.792517
0.371100	-0.870417
0.371200	-0.978503
0.371300	-1.015830
0.371400	-0.998627
0.371500	-0.915534
0.371600	-0.903849
0.371700	-0.964546
0.371800	-1.081395
0.371900	-1.134951
0.372000	-1.114503
0.372100	-1.040498
0.372200	-0.998627
0.372300	-1.038875
0.372400	-1.112231
0.372500	-1.153777
0.372600	-1.164164
0.372700	-1.160918
0.372800	-1.166436
0.372900	-1.192727
0.373000	-1.217071
0.373100	-1.233300
0.373200	-1.240441
0.373300	-1.262188
0.373400	-1.293997
0.373500	-1.305032
0.373600	-1.299514
0.373700	-1.289777
0.373800	-1.287180
0.373900	-1.325481
0.374000	-1.386178
0.374100	-1.423505
0.374200	-1.433567
0.374300	-1.440383
0.374400	-1.441032
0.374500	-1.455314
0.374600	-1.459858
0.374700	-1.468946
0.374800	-1.476736
0.374900	-1.486474
0.375000	-1.493939
0.375100	-1.503028
0.375200	-1.510493
0.375300	-1.518608
0.375400	-1.529319
0.375500	-1.540679
0.375600	-1.552364
0.375700	-1.570216
0.375800	-1.588717
0.375900	-1.602350
0.376000	-1.619553
0.376100	-1.651686
0.376200	-1.702646
0.376300	-1.831505
0.376400	-1.973673
0.376500	-2.025930
0.376600	-1.964584
0.376700	-1.878894
0.376800	-1.894150
0.376900	-2.027553
0.377000	-2.195038
0.377100	-2.279105
0.377200	-2.257034
0.377300	-2.188222
0.377400	-2.183029
0.377500	-2.258332
0.377600	-2.371611
0.377700	-2.453731
0.377800	-2.480022
0.377900	-2.470934
0.378000	-2.472881
0.378100	-2.491058
0.378200	-2.511507
0.378300	-2.532280
0.378400	-2.539421
0.378500	-2.545913
0.378600	-2.561493
0.378700	-2.585187
0.378800	-2.606285
0.378900	-2.598171
0.379000	-2.587459
0.379100	-2.601741
0.379200	-2.627383
0.379300	-2.640042
0.379400	-2.585837
0.379500	-2.496901
0.379600	-2.472881
0.379700	-2.517349
0.379800	-2.617646
0.379900	-2.669904
0.380000	-2.615698
0.380100	-2.500471
0.380200	-2.419974
0.380300	-2.441072
0.380400	-2.540719
0.380500	-2.640042
0.380600	-2.653350
0.380700	-2.599145
0.380800	-2.535851
0.380900	-2.515077
0.381000	-2.526113
0.381100	-2.553378
0.381200	-2.560519
0.381300	-2.545588
0.381400	-2.524166
0.381500	-2.499173
0.381600	-2.476127
0.381700	-2.418676
0.381800	-2.350838
0.381900	-2.299554
0.382000	-2.270666
0.382100	-2.243076
0.382200	-2.200881
0.382300	-2.116814
0.382400	-2.038265
0.382500	-1.925959
0.382600	-1.866236
0.382700	-1.811381
0.382800	-1.747438
0.382900	-1.677004
0.383000	-1.597481
0.383100	-1.508546
0.383200	-1.432269
0.383300	-1.376765
0.383400	-1.340736
0.383500	-1.303085
0.383600	-1.279390
0.383700	-1.261538
0.383800	-1.240765
0.383900	-1.212851
0.384000	-1.190779
0.384100	-1.165787
0.384200	-1.145338
0.384300	-1.147285
0.384400	-1.142417
0.384500	-1.116450
0.384600	-1.017128
0.384700	-0.865224
0.384800	-0.763305
0.384900	-0.815563
0.385000	-0.945071
0.385100	-0.984345
0.385200	-0.910016
0.385300	-0.761357
0.385400	-0.675343
0.385500	-0.703257
0.385600	-0.808422
0.385700	-0.872040
0.385800	-0.871066
0.385900	-0.795763
0.386000	-0.740259
0.386100	-0.740259
0.386200	-0.784727
0.386300	-0.832116
0.386400	-0.868145
0.386500	-0.891839
0.386600	-0.898655
0.386700	-0.917157
0.386800	-0.943448
0.386900	-0.970713
0.387000	-1.000899
0.387100	-1.041147
0.387200	-1.099247
0.387300	-1.144689
0.387400	-1.193701
0.387500	-1.202140
0.387600	-1.210904
0.387700	-1.224211
0.387800	-1.324183
0.387900	-1.411820
0.388000	-1.447524
0.388100	-1.394617
0.388200	-1.322560
0.388300	-1.315744
0.388400	-1.402083
0.388500	-1.522178
0.388600	-1.577357
0.388700	-1.546197
0.388800	-1.474464
0.388900	-1.454989
0.389000	-1.512116
0.389100	-1.607219
0.389200	-1.652336
0.389300	-1.678302
0.389400	-1.671486
0.389500	-1.689013
0.389600	-1.723419
0.389700	-1.769835
0.389800	-1.808784
0.389900	-1.822092
0.390000	-1.833128
0.390100	-1.845787
0.390200	-1.831505
0.390300	-1.801644
0.390400	-1.766589
0.390500	-1.737701
0.390600	-1.770484
0.390700	-1.801319
0.390800	-1.795801
0.390900	-1.741920
0.391000	-1.698426
0.391100	-1.684145
0.391200	-1.680250
0.391300	-1.671811
0.391400	-1.664021
0.391500	-1.648765
0.391600	-1.640001
0.391700	-1.638054
0.391800	-1.636106
0.391900	-1.634808
0.392000	-1.638379
0.392100	-1.644870
0.392200	-1.646169
0.392300	-1.657529
0.392400	-1.670512
0.392500	-1.683171
0.392600	-1.703944
0.392700	-1.740622
0.392800	-1.778923
0.392900	-1.856498
0.393000	-2.015219
0.393100	-2.151544
0.393200	-2.167449
0.393300	-2.074942
0.393400	-2.012947
0.393500	-2.060336
0.393600	-2.225874
0.393700	-2.382647
0.393800	-2.427440
0.393900	-2.378103
0.394000	-2.314809
0.394100	-2.308318
0.394200	-2.390762
0.394300	-2.512156
0.394400	-2.590705
0.394500	-2.617970
0.394600	-2.617646
0.394700	-2.623813
0.394800	-2.645885
0.394900	-2.691975
0.395000	-2.739365
0.395100	-2.782859
0.395200	-2.819537
0.395300	-2.859785
0.395400	-2.909122
0.395500	-2.934764
0.395600	-2.948721
0.395700	-2.966573
0.395800	-2.992540
0.395900	-3.028244
0.396000	-3.029867
0.396100	-2.977285
0.396200	-2.903604
0.396300	-2.908798
0.396400	-2.975662
0.396500	-3.056483
0.396600	-3.079204
0.396700	-3.001304
0.396800	-2.881857
0.396900	-2.802334
0.397000	-2.819861
0.397100	-2.901981
0.397200	-2.955538
0.397300	-2.933141
0.397400	-2.858162
0.397500	-2.790000
0.397600	-2.738391
0.397700	-2.711126
0.397800	-2.702038
0.397900	-2.672176
0.398000	-2.634849
0.398100	-2.572529
0.398200	-2.502094
0.398300	-2.412834
0.398400	-2.300528
0.398500	-2.199258
0.398600	-2.130446
0.398700	-2.064556
0.398800	-2.006780
0.398900	-1.918493
0.399000	-1.808784
0.399100	-1.723419
0.399200	-1.623448
0.399300	-1.573137
0.399400	-1.529968
0.399500	-1.494588
0.399600	-1.452068
0.399700	-1.397538
0.399800	-1.337491
0.399900	-1.289777
0.400000	-1.257319
0.400100	-1.246608
0.400200	-1.234273
0.400300	-1.234598
0.400400	-1.223887
0.400500	-1.209281
0.400600	-1.194674
0.400700	-1.167734
0.400800	-1.165137
0.400900	-1.156049
0.401000	-1.175524
0.401100	-1.159620
0.401200	-1.134951
0.401300	-1.009987
0.401400	-0.865548
0.401500	-0.816212
0.401600	-0.907419
0.401700	-1.030111
0.401800	-1.042445
0.401900	-0.926570
0.402000	-0.785701
0.402100	-0.693844
0.402200	-0.727276
0.402300	-0.780508
0.402400	-0.806799
0.402500	-0.731820
0.402600	-0.619190
0.402700	-0.519868
0.402800	-0.473129
0.402900	-0.458522
0.403000	-0.455601
0.403100	-0.441644
0.403200	-0.407888
0.403300	-0.366666
0.403400	-0.333883
0.403500	-0.299477
0.403600	-0.274160
0.403700	-0.254036
0.403800	-0.279029
0.403900	-0.287792
0.404000	-0.324470
0.404100	-0.334208
0.404200	-0.332909
0.404300	-0.342322
0.404400	-0.384842
0.404500	-0.524088
0.404600	-0.606856
0.404700	-0.638990
0.404800	-0.583811
0.404900	-0.549405
0.405000	-0.596794
0.405100	-0.719486
0.405200	-0.835687
0.405300	-0.873014
0.405400	-0.840231
0.405500	-0.804851
0.405600	-0.825949
0.405700	-0.901577
0.405800	-0.976880
0.405900	-1.013882
0.406000	-1.044068
0.406100	-1.058999
0.406200	-1.102168
0.406300	-1.157997
0.406400	-1.219992
0.406500	-1.267381
0.406600	-1.314770
0.406700	-1.359562
0.406800	-1.397538
0.406900	-1.419610
0.407000	-1.410522
0.407100	-1.401433
0.407200	-1.416364
0.407300	-1.475763
0.407400	-1.514063
0.407500	-1.523152
0.407600	-1.491992
0.407700	-1.476087
0.407800	-1.489071
0.407900	-1.491343
0.408000	-1.490044
0.408100	-1.483877
0.408200	-1.480631
0.408300	-1.470569
0.408400	-1.470894
0.408500	-1.467648
0.408600	-1.472841
0.408700	-1.477386
0.408800	-1.490044
0.408900	-1.504651
0.409000	-1.512765
0.409100	-1.529643
0.409200	-1.544250
0.409300	-1.570541
0.409400	-1.597481
0.409500	-1.633834
0.409600	-1.737052
0.409700	-1.899668
0.409800	-2.023334
0.409900	-1.999964
0.410000	-1.914598
0.410100	-1.866885
0.410200	-1.953873
0.410300	-2.130771
0.410400	-2.264824
0.410500	-2.283974
0.410600	-2.219706
0.410700	-2.177511
0.410800	-2.196012
0.410900	-2.293711
0.411000	-2.378752
0.411100	-2.425168
0.411200	-2.425817
0.411300	-2.422571
0.411400	-2.438476
0.411500	-2.476127
0.411600	-2.503392
0.411700	-2.522867
0.411800	-2.531307
0.411900	-2.550782
0.412000	-2.604662
0.412100	-2.652376
0.412200	-2.672176
0.412300	-2.680940
0.412400	-2.703336
0.412500	-2.746181
0.412600	-2.782210
0.412700	-2.775393
0.412800	-2.710801
0.412900	-2.664710
0.413000	-2.699765
0.413100	-2.795518
0.413200	-2.902306
0.413300	-2.918535
0.413400	-2.856864
0.413500	-2.771498
0.413600	-2.755269
0.413700	-2.831222
0.413800	-2.937361
0.413900	-2.998058
0.414000	-2.982803
0.414100	-2.938335
0.414200	-2.899709
0.414300	-2.901981
0.414400	-2.912368
0.414500	-2.913666
0.414600	-2.901657
0.414700	-2.879585
0.414800	-2.851346
0.414900	-2.814019
0.415000	-2.753646
0.415100	-2.673474
0.415200	-2.599469
0.415300	-2.547211
0.415400	-2.508261
0.415500	-2.469311
0.415600	-2.378103
0.415700	-2.284299
0.415800	-2.183678
0.415900	-2.083382
0.416000	-2.008727
0.416100	-1.948680
0.416200	-1.875324
0.416300	-1.789959
0.416400	-1.699400
0.416500	-1.611763
0.416600	-1.536784
0.416700	-1.478035
0.416800	-1.436164
0.416900	-1.384880
0.417000	-1.358588
0.417100	-1.321261
0.417200	-1.285882
0.417300	-1.246283
0.417400	-1.217720
0.417500	-1.205061
0.417600	-1.193051
0.417700	-1.211877
0.417800	-1.179744
0.417900	-1.146312
0.418000	-1.013882
0.418100	-0.893787
0.418200	-0.893138
0.418300	-1.035305
0.418400	-1.167085
0.418500	-1.143390
0.418600	-1.050560
0.418700	-0.931763
0.418800	-0.917157
0.418900	-0.996030
0.419000	-1.098273
0.419100	-1.130083
0.419200	-1.067438
0.419300	-0.996679
0.419400	-0.938255
0.419500	-0.952536
0.419600	-0.968441
0.419700	-0.988565
0.419800	-0.978827
0.419900	-0.969414
0.420000	-0.957080
0.420100	-0.960002
0.420200	-0.971037
0.420300	-0.972336
0.420400	-0.987591
0.420500	-1.022646
0.420600	-1.051209
0.420700	-1.093405
0.420800	-1.101195
0.420900	-1.108336
0.421000	-1.106063
0.421100	-1.173577
0.421200	-1.296593
0.421300	-1.342359
0.421400	-1.333271
0.421500	-1.245634
0.421600	-1.213500
0.421700	-1.251801
0.421800	-1.357615
0.421900	-1.419935
0.422000	-1.404679
0.422100	-1.314445
0.422200	-1.250178
0.422300	-1.262837
0.422400	-1.325156
0.422500	-1.368651
0.422600	-1.369300
0.422700	-1.356316
0.422800	-1.350474
0.422900	-1.375467
0.423000	-1.406302
0.423100	-1.442006
0.423200	-1.459858
0.423300	-1.477710
0.423400	-1.483228
0.423500	-1.490369
0.423600	-1.473815
0.423700	-1.434865
0.423800	-1.395915
0.423900	-1.411820
0.424000	-1.470569
0.424100	-1.504326
0.424200	-1.517958
0.424300	-1.528994
0.424400	-1.530942
0.424500	-1.542627
0.424600	-1.548145
0.424700	-1.548469
0.424800	-1.550417
0.424900	-1.559830
0.425000	-1.568918
0.425100	-1.573137
0.425200	-1.575410
0.425300	-1.579954
0.425400	-1.586445
0.425500	-1.591314
0.425600	-1.601701
0.425700	-1.607219
0.425800	-1.616632
0.425900	-1.631562
0.426000	-1.645844
0.426100	-1.671486
0.426200	-1.710111
0.426300	-1.822417
0.426400	-1.980489
0.426500	-2.058389
0.426600	-2.023658
0.426700	-1.928231
0.426800	-1.916871
0.426900	-2.027553
0.427000	-2.196986
0.427100	-2.297931
0.427200	-2.293711
0.427300	-2.223601
0.427400	-2.189845
0.427500	-2.238208
0.427600	-2.340127
0.427700	-2.424519
0.427800	-2.455679
0.427900	-2.454380
0.428000	-2.440423
0.428100	-2.458275
0.428200	-2.482294
0.428300	-2.511182
0.428400	-2.529359
0.428500	-2.534228
0.428600	-2.556299
0.428700	-2.579345
0.428800	-2.605636
0.428900	-2.604987
0.429000	-2.600767
0.429100	-2.611479
0.429200	-2.646858
0.429300	-2.677369
0.429400	-2.644586
0.429500	-2.570581
0.429600	-2.551755
0.429700	-2.597846
0.429800	-2.703660
0.429900	-2.778639
0.430000	-2.771823
0.430100	-2.698467
0.430200	-2.635822
0.430300	-2.650753
0.430400	-2.744558
0.430500	-2.833494
0.430600	-2.856539
0.430700	-2.814019
0.430800	-2.763059
0.430900	-2.740014
0.431000	-2.746181
0.431100	-2.759813
0.431200	-2.751374
0.431300	-2.736768
0.431400	-2.709828
0.431500	-2.678992
0.431600	-2.638419
0.431700	-2.584214
0.431800	-2.512156
0.431900	-2.465416
0.432000	-2.438151
0.432100	-2.417378
0.432200	-2.382647
0.432300	-2.305721
0.432400	-2.234313
0.432500	-2.130771
0.432600	-2.062933
0.432700	-2.011324
0.432800	-1.958742
0.432900	-1.902589
0.433000	-1.834426
0.433100	-1.758474
0.433200	-1.691286
0.433300	-1.637729
0.433400	-1.603648
0.433500	-1.565997
0.433600	-1.544250
0.433700	-1.529968
0.433800	-1.513739
0.433900	-1.480956
0.434000	-1.456288
0.434100	-1.436164
0.434200	-1.423180
0.434300	-1.427075
0.434400	-1.430646
0.434500	-1.423830
0.434600	-1.335868
0.434700	-1.198245
0.434800	-1.071982
0.434900	-1.123266
0.435000	-1.236546
0.435100	-1.290426
0.435200	-1.214799
0.435300	-1.076851
0.435400	-0.964870
0.435500	-0.954808
0.435600	-1.017453
0.435700	-1.065491
0.435800	-1.034331
0.435900	-0.939228
0.436000	-0.829844
0.436100	-0.772393
0.436200	-0.762006
0.436300	-0.753567
0.436400	-0.735066
0.436500	-0.713319
0.436600	-0.678914
0.436700	-0.654245
0.436800	-0.648078
0.436900	-0.625033
0.437000	-0.629902
0.437100	-0.635420
0.437200	-0.687677
0.437300	-0.727276
0.437400	-0.767524
0.437500	-0.772069
0.437600	-0.772393
0.437700	-0.790245
0.437800	-0.885997
0.437900	-1.006092
0.438000	-1.041147
0.438100	-1.018751
0.438200	-0.949939
0.438300	-0.973309
0.438400	-1.068087
0.438500	-1.191104
0.438600	-1.253424
0.438700	-1.230378
0.438800	-1.178121
0.438900	-1.172927
0.439000	-1.238493
0.439100	-1.320937
0.439200	-1.353395
0.439300	-1.379686
0.439400	-1.387801
0.439500	-1.419935
0.439600	-1.461806
0.439700	-1.504651
0.439800	-1.542302
0.439900	-1.561128
0.440000	-1.586770
0.440100	-1.617281
0.440200	-1.637405
0.440300	-1.645519
0.440400	-1.645844
0.440500	-1.656231
0.440600	-1.712383
0.440700	-1.793854
0.440800	-1.837348
0.440900	-1.838971
0.441000	-1.815925
0.441100	-1.829233
0.441200	-1.852603
0.441300	-1.860718
0.441400	-1.865262
0.441500	-1.873376
0.441600	-1.876298
0.441700	-1.883439
0.441800	-1.889930
0.441900	-1.895123
0.442000	-1.908756
0.442100	-1.919792
0.442200	-1.926933
0.442300	-1.936995
0.442400	-1.945758
0.442500	-1.947057
0.442600	-1.958093
0.442700	-1.967830
0.442800	-1.983410
0.442900	-2.034370
0.443000	-2.155764
0.443100	-2.279430
0.443200	-2.298256
0.443300	-2.207372
0.443400	-2.112269
0.443500	-2.122981
0.443600	-2.247945
0.443700	-2.381998
0.443800	-2.435554
0.443900	-2.380700
0.444000	-2.305072
0.444100	-2.285597
0.444200	-2.347592
0.444300	-2.446266
0.444400	-2.505989
0.444500	-2.509559
0.444600	-2.475803
0.444700	-2.453731
0.444800	-2.462495
0.444900	-2.478075
0.445000	-2.492357
0.445100	-2.497550
0.445200	-2.494953
0.445300	-2.515727
0.445400	-2.545264
0.445500	-2.557273
0.445600	-2.550132
0.445700	-2.538447
0.445800	-2.554352
0.445900	-2.583240
0.446000	-2.590705
0.446100	-2.540070
0.446200	-2.457301
0.446300	-2.446266
0.446400	-2.509884
0.446500	-2.620242
0.446600	-2.677369
0.446700	-2.634849
0.446800	-2.543316
0.446900	-2.497874
0.447000	-2.542992
0.447100	-2.657570
0.447200	-2.761436
0.447300	-2.769551
0.447400	-2.719240
0.447500	-2.668930
0.447600	-2.654648
0.447700	-2.669255
0.447800	-2.689054
0.447900	-2.702038
0.448000	-2.687107
0.448100	-2.654648
0.448200	-2.620567
0.448300	-2.573502
0.448400	-2.502419
0.448500	-2.430361
0.448600	-2.372585
0.448700	-2.331688
0.448800	-2.301826
0.448900	-2.242427
0.449000	-2.143105
0.449100	-2.063257
0.449200	-1.950303
0.449300	-1.877271
0.449400	-1.816899
0.449500	-1.752632
0.449600	-1.681548
0.449700	-1.593262
0.449800	-1.510818
0.449900	-1.435190
0.450000	-1.383581
0.450100	-1.347553
0.450200	-1.316717
0.450300	-1.302436
0.450400	-1.281987
0.450500	-1.263486
0.450600	-1.235572
0.450700	-1.225185
0.450800	-1.202464
0.450900	-1.212526
0.451000	-1.209605
0.451100	-1.213825
0.451200	-1.184612
0.451300	-1.089185
0.451400	-0.950913
0.451500	-0.877882
0.451600	-0.970388
0.451700	-1.092106
0.451800	-1.117748
0.451900	-1.041472
0.452000	-0.911639
0.452100	-0.852565
0.452200	-0.895734
0.452300	-0.990837
0.452400	-1.057701
0.452500	-1.037577
0.452600	-0.967791
0.452700	-0.900603
0.452800	-0.890866
0.452900	-0.916508
0.453000	-0.959028
0.453100	-0.977854
0.453200	-0.984345
0.453300	-0.966818
0.453400	-0.956107
0.453500	-0.964221
0.453600	-0.960975
0.453700	-0.983371
0.453800	-1.001223
0.453900	-1.041147
0.454000	-1.082044
0.454100	-1.111581
0.454200	-1.111906
0.454300	-1.120020
0.454400	-1.150856
0.454500	-1.256670
0.454600	-1.342359
0.454700	-1.369949
0.454800	-1.320288
0.454900	-1.272574
0.455000	-1.300488
0.455100	-1.405977
0.455200	-1.519257
0.455300	-1.563075
0.455400	-1.525099
0.455500	-1.459534
0.455600	-1.459858
0.455700	-1.514063
0.455800	-1.573137
0.455900	-1.593586
0.456000	-1.602999
0.456100	-1.581252
0.456200	-1.579305
0.456300	-1.591639
0.456400	-1.620202
0.456500	-1.641624
0.456600	-1.648116
0.456700	-1.655257
0.456800	-1.659801
0.456900	-1.647467
0.457000	-1.619553
0.457100	-1.594884
0.457200	-1.589691
0.457300	-1.635133
0.457400	-1.676679
0.457500	-1.688040
0.457600	-1.647142
0.457700	-1.628316
0.457800	-1.635133
0.457900	-1.642598
0.458000	-1.639677
0.458100	-1.640326
0.458200	-1.634484
0.458300	-1.635457
0.458400	-1.630264
0.458500	-1.628316
0.458600	-1.635457
0.458700	-1.641949
0.458800	-1.654283
0.458900	-1.665968
0.459000	-1.675381
0.459100	-1.676355
0.459200	-1.693558
0.459300	-1.717901
0.459400	-1.755553
0.459500	-1.797099
0.459600	-1.899992
0.459700	-2.079162
0.459800	-2.210943
0.459900	-2.229119
0.460000	-2.167449
0.460100	-2.139859
0.460200	-2.233339
0.460300	-2.409588
0.460400	-2.573502
0.460500	-2.622839
0.460600	-2.596223
0.460700	-2.556624
0.460800	-2.593627
0.460900	-2.696844
0.461000	-2.812721
0.461100	-2.886726
0.461200	-2.901981
0.461300	-2.906850
0.461400	-2.911070
0.461500	-2.931518
0.461600	-2.959757
0.461700	-2.984750
0.461800	-3.006497
0.461900	-3.027271
0.462000	-3.048693
0.462100	-3.071090
0.462200	-3.069467
0.462300	-3.058755
0.462400	-3.048693
0.462500	-3.051939
0.462600	-3.044798
0.462700	-3.014937
0.462800	-2.910096
0.462900	-2.833169
0.463000	-2.825704
0.463100	-2.878287
0.463200	-2.953266
0.463300	-2.940931
0.463400	-2.847127
0.463500	-2.739365
0.463600	-2.691975
0.463700	-2.731250
0.463800	-2.803308
0.463900	-2.839661
0.464000	-2.794869
0.464100	-2.709178
0.464200	-2.649130
0.464300	-2.612128
0.464400	-2.592004
0.464500	-2.582591
0.464600	-2.583564
0.464700	-2.584214
0.464800	-2.569607
0.464900	-2.534552
0.465000	-2.481645
0.465100	-2.408614
0.465200	-2.339802
0.465300	-2.312862
0.465400	-2.291764
0.465500	-2.268069
0.465600	-2.195363
0.465700	-2.101558
0.465800	-2.036317
0.465900	-1.945434
0.466000	-1.888632
0.466100	-1.837348
0.466200	-1.770159
0.466300	-1.706541
0.466400	-1.640975
0.466500	-1.561128
0.466600	-1.497185
0.466700	-1.450121
0.466800	-1.418961
0.466900	-1.386827
0.467000	-1.370598
0.467100	-1.344307
0.467200	-1.321586
0.467300	-1.284908
0.467400	-1.266407
0.467500	-1.240441
0.467600	-1.242388
0.467700	-1.244011
0.467800	-1.229405
0.467900	-1.185586
0.468000	-1.047639
0.468100	-0.912288
0.468200	-0.880479
0.468300	-0.999276
0.468400	-1.109958
0.468500	-1.089834
0.468600	-0.970064
0.468700	-0.845749
0.468800	-0.805176
0.468900	-0.868469
0.469000	-0.946044
0.469100	-0.987916
0.469200	-0.934684
0.469300	-0.861653
0.469400	-0.809071
0.469500	-0.818808
0.469600	-0.830493
0.469700	-0.842178
0.469800	-0.850942
0.469900	-0.842178
0.470000	-0.836985
0.470100	-0.839257
0.470200	-0.847696
0.470300	-0.833739
0.470400	-0.844126
0.470500	-0.889243
0.470600	-0.931438
0.470700	-0.980450
0.470800	-0.995706
0.470900	-1.000250
0.471000	-0.995381
0.471100	-1.063868
0.471200	-1.182665
0.471300	-1.244335
0.471400	-1.236546
0.471500	-1.162865
0.471600	-1.134627
0.471700	-1.202464
0.471800	-1.332946
0.471900	-1.425777
0.472000	-1.436164
0.472100	-1.369624
0.472200	-1.324832
0.472300	-1.346579
0.472400	-1.419610
0.472500	-1.473815
0.472600	-1.491667
0.472700	-1.495562
0.472800	-1.500431
0.472900	-1.532565
0.473000	-1.571190
0.473100	-1.618579
0.473200	-1.637729
0.473300	-1.660450
0.473400	-1.695830
0.473500	-1.726665
0.473600	-1.737052
0.473700	-1.731534
0.473800	-1.715305
0.473900	-1.731209
0.474000	-1.787687
0.474100	-1.828909
0.474200	-1.839944
0.474300	-1.794178
0.474400	-1.772431
0.474500	-1.764317
0.474600	-1.747114
0.474700	-1.729262
0.474800	-1.701672
0.474900	-1.677978
0.475000	-1.661099
0.475100	-1.648441
0.475200	-1.633834
0.475300	-1.628316
0.475400	-1.619877
0.475500	-1.626694
0.475600	-1.638703
0.475700	-1.652336
0.475800	-1.666617
0.475900	-1.688689
0.476000	-1.720173
0.476100	-1.758799
0.476200	-1.808135
0.476300	-1.921739
0.476400	-2.092145
0.476500	-2.192117
0.476600	-2.156737
0.476700	-2.061310
0.476800	-2.028852
0.476900	-2.150246
0.477000	-2.330714
0.477100	-2.472557
0.477200	-2.480347
0.477300	-2.423869
0.477400	-2.394657
0.477500	-2.453406
0.477600	-2.583564
0.477700	-2.692625
0.477800	-2.746830
0.477900	-2.756568
0.478000	-2.761761
0.478100	-2.782210
0.478200	-2.823432
0.478300	-2.863356
0.478400	-2.881208
0.478500	-2.888024
0.478600	-2.903929
0.478700	-2.942879
0.478800	-2.973065
0.478900	-2.986373
0.479000	-2.991891
0.479100	-3.000979
0.479200	-3.036359
0.479300	-3.061352
0.479400	-3.036684
0.479500	-2.969495
0.479600	-2.936387
0.479700	-2.974688
0.479800	-3.072388
0.479900	-3.171386
0.480000	-3.165219
0.480100	-3.080178
0.480200	-2.990593
0.480300	-2.972741
0.480400	-3.044474
0.480500	-3.138603
0.480600	-3.185668
0.480700	-3.144446
0.480800	-3.072388
0.480900	-3.036684
0.481000	-3.033438
0.481100	-3.049667
0.481200	-3.054860
0.481300	-3.047720
0.481400	-3.019156
0.481500	-2.980855
0.481600	-2.939958
0.481700	-2.868549
0.481800	-2.792272
0.481900	-2.716968
0.482000	-2.663737
0.482100	-2.620242
0.482200	-2.565388
0.482300	-2.461196
0.482400	-2.358304
0.482500	-2.259630
0.482600	-2.158360
0.482700	-2.084355
0.482800	-2.022360
0.482900	-1.949653
0.483000	-1.876622
0.483100	-1.791906
0.483200	-1.713033
0.483300	-1.663696
0.483400	-1.632211
0.483500	-1.613710
0.483600	-1.603973
0.483700	-1.598130
0.483800	-1.590989
0.483900	-1.581252
0.484000	-1.560803
0.484100	-1.537433
0.484200	-1.537433
0.484300	-1.517958
0.484400	-1.513739
0.484500	-1.471868
0.484600	-1.394293
0.484700	-1.214474
0.484800	-1.073930
0.484900	-1.067438
0.485000	-1.174226
0.485100	-1.238493
0.485200	-1.150856
0.485300	-1.006417
0.485400	-0.852240
0.485500	-0.812317
0.485600	-0.861329
0.485700	-0.935333
0.485800	-0.933710
0.485900	-0.860355
0.486000	-0.770770
0.486100	-0.709749
0.486200	-0.720460
0.486300	-0.748699
0.486400	-0.771095
0.486500	-0.774016
0.486600	-0.751620
0.486700	-0.735715
0.486800	-0.728575
0.486900	-0.735715
0.487000	-0.744154
0.487100	-0.773691
0.487200	-0.806474
0.487300	-0.835362
0.487400	-0.872040
0.487500	-0.877882
0.487600	-0.879505
0.487700	-0.885023
0.487800	-0.957405
0.487900	-1.058674
0.488000	-1.102168
0.488100	-1.082694
0.488200	-1.004469
0.488300	-0.988565
0.488400	-1.051209
0.488500	-1.171629
0.488600	-1.245958
0.488700	-1.233300
0.488800	-1.172927
0.488900	-1.129109
0.489000	-1.162216
0.489100	-1.237844
0.489200	-1.276145
0.489300	-1.300488
0.489400	-1.298865
0.489500	-1.305682
0.489600	-1.323534
0.489700	-1.349500
0.489800	-1.385529
0.489900	-1.414092
0.490000	-1.429347
0.490100	-1.449796
0.490200	-1.454989
0.490300	-1.446550
0.490400	-1.427075
0.490500	-1.421233
0.490600	-1.452717
0.490700	-1.509519
0.490800	-1.538732
0.490900	-1.531915
0.491000	-1.501080
0.491100	-1.511467
0.491200	-1.527371
0.491300	-1.532240
0.491400	-1.539381
0.491500	-1.546197
0.491600	-1.551390
0.491700	-1.556908
0.491800	-1.565023
0.491900	-1.567620
0.492000	-1.580278
0.492100	-1.586121
0.492200	-1.596507
0.492300	-1.605271
0.492400	-1.617281
0.492500	-1.629615
0.492600	-1.646818
0.492700	-1.669214
0.492800	-1.696803
0.492900	-1.755228
0.493000	-1.888956
0.493100	-2.040212
0.493200	-2.096365
0.493300	-2.040861
0.493400	-1.950303
0.493500	-1.953873
0.493600	-2.088250
0.493700	-2.258332
0.493800	-2.349215
0.493900	-2.335907
0.494000	-2.266446
0.494100	-2.248919
0.494200	-2.318380
0.494300	-2.442371
0.494400	-2.524166
0.494500	-2.556949
0.494600	-2.552080
0.494700	-2.562142
0.494800	-2.585512
0.494900	-2.615374
0.495000	-2.643288
0.495100	-2.666658
0.495200	-2.676720
0.495300	-2.697493
0.495400	-2.728653
0.495500	-2.744883
0.495600	-2.753322
0.495700	-2.757866
0.495800	-2.793570
0.495900	-2.837714
0.496000	-2.863680
0.496100	-2.817265
0.496200	-2.748128
0.496300	-2.743909
0.496400	-2.802659
0.496500	-2.903604
0.496600	-2.973714
0.496700	-2.938335
0.496800	-2.850372
0.496900	-2.787728
0.497000	-2.816940
0.497100	-2.914965
0.497200	-3.001953
0.497300	-3.025648
0.497400	-2.984426
0.497500	-2.934115
0.497600	-2.911719
0.497700	-2.908148
0.497800	-2.915289
0.497900	-2.910096
0.498000	-2.894191
0.498100	-2.866602
0.498200	-2.820511
0.498300	-2.765656
0.498400	-2.677369
0.498500	-2.600767
0.498600	-2.541693
0.498700	-2.494629
0.498800	-2.461846
0.498900	-2.405368
0.499000	-2.306370
0.499100	-2.235611
0.499200	-2.154465
0.499300	-2.076565
0.499400	-2.002560
0.499500	-1.936670
0.499600	-1.862990
0.499700	-1.785739
0.499800	-1.696479
0.499900	-1.615982
0.500000	-1.563075
0.500100	-1.517309
0.500200	-1.497510
0.500300	-1.465701
0.500400	-1.458884
0.500500	-1.438436
0.500600	-1.420584
0.500700	-1.393968
0.500800	-1.380335
0.500900	-1.382283
0.501000	-1.392994
0.501100	-1.405653
0.501200	-1.388125
0.501300	-1.301462
0.501400	-1.161242
0.501500	-1.073930
0.501600	-1.146312
0.501700	-1.277118
0.501800	-1.344956
0.501900	-1.252450
0.502000	-1.135600
0.502100	-1.037577
0.502200	-1.056078
0.502300	-1.134302
0.502400	-1.188507
0.502500	-1.161242
0.502600	-1.071333
0.502700	-0.992460
0.502800	-0.956431
0.502900	-0.967791
0.503000	-0.978503
0.503100	-0.986617
0.503200	-0.976880
0.503300	-0.968116
0.503400	-0.954484
0.503500	-0.955782
0.503600	-0.951562
0.503700	-0.955782
0.503800	-0.983371
0.503900	-1.016154
0.504000	-1.068412
0.504100	-1.092756
0.504200	-1.101844
0.504300	-1.090484
0.504400	-1.107686
0.504500	-1.195973
0.504600	-1.288479
0.504700	-1.308278
0.504800	-1.272899
0.504900	-1.188507
0.505000	-1.198245
0.505100	-1.288803
0.505200	-1.404030
0.505300	-1.444278
0.505400	-1.408574
0.505500	-1.349176
0.505600	-1.340087
0.505700	-1.392020
0.505800	-1.453367
0.505900	-1.484202
0.506000	-1.502378
0.506100	-1.503028
0.506200	-1.534837
0.506300	-1.575410
0.506400	-1.622474
0.506500	-1.653959
0.506600	-1.672784
0.506700	-1.693882
0.506800	-1.725367
0.506900	-1.738025
0.507000	-1.727314
0.507100	-1.713357
0.507200	-1.699076
0.507300	-1.747438
0.507400	-1.798398
0.507500	-1.819171
0.507600	-1.815601
0.507700	-1.779897
0.507800	-1.783467
0.507900	-1.793204
0.508000	-1.788985
0.508100	-1.790608
0.508200	-1.788011
0.508300	-1.791906
0.508400	-1.803916
0.508500	-1.803267
0.508600	-1.812355
0.508700	-1.820145
0.508800	-1.833453
0.508900	-1.844813
0.509000	-1.863314
0.509100	-1.876622
0.509200	-1.890904
0.509300	-1.906484
0.509400	-1.935696
0.509500	-1.962312
0.509600	-2.024632
0.509700	-2.178809
0.509800	-2.307669
0.509900	-2.329091
0.510000	-2.237883
0.510100	-2.162255
0.510200	-2.202179
0.510300	-2.340451
0.510400	-2.489111
0.510500	-2.535851
0.510600	-2.485865
0.510700	-2.422571
0.510800	-2.426141
0.510900	-2.505340
0.511000	-2.607908
0.511100	-2.670228
0.511200	-2.669255
0.511300	-2.643612
0.511400	-2.627383
0.511500	-2.636472
0.511600	-2.648481
0.511700	-2.659192
0.511800	-2.653350
0.511900	-2.646858
0.512000	-2.653025
0.512100	-2.671202
0.512200	-2.672825
0.512300	-2.671527
0.512400	-2.659517
0.512500	-2.672825
0.512600	-2.686782
0.512700	-2.689379
0.512800	-2.634200
0.512900	-2.558572
0.513000	-2.559545
0.513100	-2.623488
0.513200	-2.724109
0.513300	-2.765331
0.513400	-2.711126
0.513500	-2.623488
0.513600	-2.587459
0.513700	-2.637770
0.513800	-2.752673
0.513900	-2.837714
0.514000	-2.848425
0.514100	-2.804931
0.514200	-2.763059
0.514300	-2.755594
0.514400	-2.771823
0.514500	-2.802334
0.514600	-2.815966
0.514700	-2.820511
0.514800	-2.810124
0.514900	-2.777666
0.515000	-2.710801
0.515100	-2.628682
0.515200	-2.563116
0.515300	-2.516376
0.515400	-2.482944
0.515500	-2.448213
0.515600	-2.374533
0.515700	-2.270991
0.515800	-2.195363
0.515900	-2.091172
0.516000	-2.012947
0.516100	-1.937319
0.516200	-1.866885
0.516300	-1.790608
0.516400	-1.708488
0.516500	-1.623772
0.516600	-1.558531
0.516700	-1.516011
0.516800	-1.485500
0.516900	-1.457262
0.517000	-1.450445
0.517100	-1.439409
0.517200	-1.428698
0.517300	-1.405004
0.517400	-1.396240
0.517500	-1.372546
0.517600	-1.383581
0.517700	-1.382283
0.517800	-1.376440
0.517900	-1.347877
0.518000	-1.216097
0.518100	-1.076851
0.518200	-1.015180
0.518300	-1.122293
0.518400	-1.223562
0.518500	-1.237844
0.518600	-1.114827
0.518700	-0.980775
0.518800	-0.911963
0.518900	-0.934035
0.519000	-1.005118
0.519100	-1.021672
0.519200	-0.963896
0.519300	-0.865873
0.519400	-0.793491
0.519500	-0.772393
0.519600	-0.778560
0.519700	-0.791219
0.519800	-0.785376
0.519900	-0.780508
0.520000	-0.771744
0.520100	-0.779209
0.520200	-0.786675
0.520300	-0.793816
0.520400	-0.817835
0.520500	-0.861329
0.520600	-0.903849
0.520700	-0.956431
0.520800	-0.987591
0.520900	-0.979801
0.521000	-0.974608
0.521100	-1.000899
0.521200	-1.114827
0.521300	-1.185586
0.521400	-1.196946
0.521500	-1.125863
0.521600	-1.073605
0.521700	-1.103791
0.521800	-1.210904
0.521900	-1.305682
0.522000	-1.331973
0.522100	-1.285233
0.522200	-1.236546
0.522300	-1.247257
0.522400	-1.320612
0.522500	-1.387801
0.522600	-1.423830
0.522700	-1.432593
0.522800	-1.436488
0.522900	-1.466350
0.523000	-1.507247
0.523100	-1.554312
0.523200	-1.574436
0.523300	-1.597481
0.523400	-1.625071
0.523500	-1.645195
0.523600	-1.647467
0.523700	-1.629615
0.523800	-1.615333
0.523900	-1.630589
0.524000	-1.692584
0.524100	-1.739973
0.524200	-1.752956
0.524300	-1.726990
0.524400	-1.708488
0.524500	-1.722445
0.524600	-1.722770
0.524700	-1.723095
0.524800	-1.720823
0.524900	-1.716603
0.525000	-1.718875
0.525100	-1.723744
0.525200	-1.719200
0.525300	-1.720173
0.525400	-1.723744
0.525500	-1.723419
0.525600	-1.730885
0.525700	-1.729911
0.525800	-1.737376
0.525900	-1.737052
0.526000	-1.744192
0.526100	-1.762694
0.526200	-1.777625
0.526300	-1.874999
0.526400	-2.019439
0.526500	-2.119086
0.526600	-2.080460
0.526700	-1.988279
0.526800	-1.945434
0.526900	-2.023658
0.527000	-2.188871
0.527100	-2.304098
0.527200	-2.320003
0.527300	-2.255411
0.527400	-2.211267
0.527500	-2.239181
0.527600	-2.335258
0.527700	-2.437177
0.527800	-2.478075
0.527900	-2.488462
0.528000	-2.481970
0.528100	-2.500796
0.528200	-2.529684
0.528300	-2.552404
0.528400	-2.573178
0.528500	-2.593951
0.528600	-2.621541
0.528700	-2.660815
0.528800	-2.701064
0.528900	-2.716319
0.529000	-2.715995
0.529100	-2.722162
0.529200	-2.754620
0.529300	-2.796816
0.529400	-2.797141
0.529500	-2.742611
0.529600	-2.707555
0.529700	-2.752023
0.529800	-2.856215
0.529900	-2.974039
0.530000	-2.994812
0.530100	-2.923404
0.530200	-2.849074
0.530300	-2.845179
0.530400	-2.934764
0.530500	-3.052913
0.530600	-3.112961
0.530700	-3.086345
0.530800	-3.035385
0.530900	-3.002602
0.531000	-2.990593
0.531100	-2.993189
0.531200	-2.985724
0.531300	-2.965275
0.531400	-2.948072
0.531500	-2.916912
0.531600	-2.873093
0.531700	-2.816940
0.531800	-2.736119
0.531900	-2.656271
0.532000	-2.595574
0.532100	-2.545264
0.532200	-2.490734
0.532300	-2.381024
0.532400	-2.256384
0.532500	-2.170370
0.532600	-2.074618
0.532700	-2.020088
0.532800	-1.971400
0.532900	-1.914598
0.533000	-1.850980
0.533100	-1.780546
0.533200	-1.715305
0.533300	-1.664994
0.533400	-1.643896
0.533500	-1.621825
0.533600	-1.598455
0.533700	-1.580278
0.533800	-1.573787
0.533900	-1.550741
0.534000	-1.530942
0.534100	-1.496536
0.534200	-1.480956
0.534300	-1.475763
0.534400	-1.468622
0.534500	-1.460507
0.534600	-1.407925
0.534700	-1.270627
0.534800	-1.153128
0.534900	-1.156049
0.535000	-1.299839
0.535100	-1.398188
0.535200	-1.378063
0.535300	-1.243362
0.535400	-1.133653
0.535500	-1.118722
0.535600	-1.193376
0.535700	-1.285557
0.535800	-1.309901
0.535900	-1.241090
0.536000	-1.156049
0.536100	-1.100870
0.536200	-1.090808
0.536300	-1.098598
0.536400	-1.096975
0.536500	-1.080097
0.536600	-1.056402
0.536700	-1.031734
0.536800	-1.021672
0.536900	-1.017777
0.537000	-1.003496
0.537100	-1.019725
0.537200	-1.049911
0.537300	-1.096001
0.537400	-1.129433
0.537500	-1.155400
0.537600	-1.140794
0.537700	-1.146636
0.537800	-1.208307
0.537900	-1.321586
0.538000	-1.373844
0.538100	-1.348851
0.538200	-1.268030
0.538300	-1.233300
0.538400	-1.289452
0.538500	-1.402083
0.538600	-1.473815
0.538700	-1.457262
0.538800	-1.374493
0.538900	-1.301787
0.539000	-1.310550
0.539100	-1.367028
0.539200	-1.405653
0.539300	-1.410522
0.539400	-1.388450
0.539500	-1.378388
0.539600	-1.394293
0.539700	-1.432269
0.539800	-1.468297
0.539900	-1.481605
0.540000	-1.494913
0.540100	-1.519257
0.540200	-1.536135
0.540300	-1.534512
0.540400	-1.528670
0.540500	-1.524450
0.540600	-1.558207
0.540700	-1.626044
0.540800	-1.666942
0.540900	-1.676355
0.541000	-1.661749
0.541100	-1.657204
0.541200	-1.670512
0.541300	-1.675381
0.541400	-1.682197
0.541500	-1.683496
0.541600	-1.686741
0.541700	-1.683496
0.541800	-1.682522
0.541900	-1.679601
0.542000	-1.682197
0.542100	-1.680899
0.542200	-1.683496
0.542300	-1.686741
0.542400	-1.688364
0.542500	-1.687391
0.542600	-1.694856
0.542700	-1.705567
0.542800	-1.726665
0.542900	-1.759448
0.543000	-1.867534
0.543100	-2.024307
0.543200	-2.076890
0.543300	-2.008403
0.543400	-1.884088
0.543500	-1.847410
0.543600	-1.948680
0.543700	-2.105453
0.543800	-2.204451
0.543900	-2.180432
0.544000	-2.104479
0.544100	-2.072021
0.544200	-2.115191
0.544300	-2.226847
0.544400	-2.325196
0.544500	-2.374533
0.544600	-2.375182
0.544700	-2.375831
0.544800	-2.393359
0.544900	-2.432309
0.545000	-2.467688
0.545100	-2.491383
0.545200	-2.496576
0.545300	-2.517349
0.545400	-2.549808
0.545500	-2.584538
0.545600	-2.611154
0.545700	-2.622190
0.545800	-2.648481
0.545900	-2.684510
0.546000	-2.720214
0.546100	-2.710477
0.546200	-2.660491
0.546300	-2.659192
0.546400	-2.740663
0.546500	-2.877962
0.546600	-2.999032
0.546700	-3.022402
0.546800	-2.971767
0.546900	-2.920483
0.547000	-2.945476
0.547100	-3.060378
0.547200	-3.184694
0.547300	-3.253181
0.547400	-3.242146
0.547500	-3.203195
0.547600	-3.177553
0.547700	-3.188265
0.547800	-3.210336
0.547900	-3.226890
0.548000	-3.227864
0.548100	-3.205143
0.548200	-3.163272
0.548300	-3.119453
0.548400	-3.065572
0.548500	-2.992540
0.548600	-2.931843
0.548700	-2.880883
0.548800	-2.821809
0.548900	-2.752997
0.549000	-2.635822
0.549100	-2.516376
0.549200	-2.364795
0.549300	-2.248594
0.549400	-2.142131
0.549500	-2.044756
0.549600	-1.942513
0.549700	-1.850656
0.549800	-1.739324
0.549900	-1.641624
0.550000	-1.571839
0.550100	-1.516336
0.550200	-1.479009
0.550300	-1.442655
0.550400	-1.410522
0.550500	-1.377090
0.550600	-1.328402
0.550700	-1.279066
0.550800	-1.223238
0.550900	-1.184288
0.551000	-1.153128
0.551100	-1.131705
0.551200	-1.092431
0.551300	-0.990837
0.551400	-0.829520
0.551500	-0.702933
0.551600	-0.757462
0.551700	-0.892488
0.551800	-0.958703
0.551900	-0.882426
0.552000	-0.749023
0.552100	-0.640937
0.552200	-0.630551
0.552300	-0.707152
0.552400	-0.772069
0.552500	-0.758761
0.552600	-0.695143
0.552700	-0.618217
0.552800	-0.584136
0.552900	-0.586732
0.553000	-0.607181
0.553100	-0.627630
0.553200	-0.635095
0.553300	-0.642560
0.553400	-0.656517
0.553500	-0.675992
0.553600	-0.692221
0.553700	-0.728575
0.553800	-0.774665
0.553900	-0.849968
0.554000	-0.907095
0.554100	-0.963896
0.554200	-0.985319
0.554300	-1.005118
0.554400	-1.035305
0.554500	-1.147285
0.554600	-1.268030
0.554700	-1.317691
0.554800	-1.301462
0.554900	-1.237519
0.555000	-1.253424
0.555100	-1.347228
0.555200	-1.474789
0.555300	-1.544574
0.555400	-1.540030
0.555500	-1.493939
0.555600	-1.475763
0.555700	-1.517309
0.555800	-1.595534
0.555900	-1.641624
0.556000	-1.664345
0.556100	-1.666293
0.556200	-1.684145
0.556300	-1.696479
0.556400	-1.724718
0.556500	-1.753281
0.556600	-1.771782
0.556700	-1.790283
0.556800	-1.802293
0.556900	-1.797749
0.557000	-1.772756
0.557100	-1.745166
0.557200	-1.731858
0.557300	-1.752632
0.557400	-1.791257
0.557500	-1.788985
0.557600	-1.763018
0.557700	-1.716603
0.557800	-1.698102
0.557900	-1.680574
0.558000	-1.660126
0.558100	-1.636431
0.558200	-1.607543
0.558300	-1.587419
0.558400	-1.567944
0.558500	-1.548469
0.558600	-1.531915
0.558700	-1.516985
0.558800	-1.505949
0.558900	-1.493939
0.559000	-1.487123
0.559100	-1.476736
0.559200	-1.486474
0.559300	-1.486474
0.559400	-1.499457
0.559500	-1.519581
0.559600	-1.583200
0.559700	-1.726990
0.559800	-1.887333
0.559900	-1.927906
0.560000	-1.868183
0.560100	-1.793529
0.560200	-1.835400
0.560300	-1.997043
0.560400	-2.182379
0.560500	-2.268069
0.560600	-2.247621
0.560700	-2.200881
0.560800	-2.211592
0.560900	-2.310590
0.561000	-2.430361
0.561100	-2.505664
0.561200	-2.543316
0.561300	-2.547860
0.561400	-2.569283
0.561500	-2.605961
0.561600	-2.650753
0.561700	-2.682887
0.561800	-2.701713
0.561900	-2.722811
0.562000	-2.761761
0.562100	-2.790000
0.562200	-2.813045
0.562300	-2.812396
0.562400	-2.818888
0.562500	-2.849723
0.562600	-2.883480
0.562700	-2.893217
0.562800	-2.831547
0.562900	-2.746181
0.563000	-2.734171
0.563100	-2.797465
0.563200	-2.898086
0.563300	-2.935413
0.563400	-2.878611
0.563500	-2.765331
0.563600	-2.698467
0.563700	-2.722811
0.563800	-2.810773
0.563900	-2.884454
0.564000	-2.885103
0.564100	-2.835442
0.564200	-2.784482
0.564300	-2.767928
0.564400	-2.774095
0.564500	-2.784157
0.564600	-2.780587
0.564700	-2.757866
0.564800	-2.741637
0.564900	-2.703660
0.565000	-2.644586
0.565100	-2.567011
0.565200	-2.489435
0.565300	-2.437502
0.565400	-2.394657
0.565500	-2.363172
0.565600	-2.304423
0.565700	-2.209969
0.565800	-2.130446
0.565900	-2.026580
0.566000	-1.967505
0.566100	-1.898369
0.566200	-1.833128
0.566300	-1.761720
0.566400	-1.685118
0.566500	-1.602025
0.566600	-1.537758
0.566700	-1.484202
0.566800	-1.453367
0.566900	-1.420259
0.567000	-1.401433
0.567100	-1.388125
0.567200	-1.366703
0.567300	-1.353720
0.567400	-1.330999
0.567500	-1.336517
0.567600	-1.326130
0.567700	-1.345930
0.567800	-1.342035
0.567900	-1.326130
0.568000	-1.234273
0.568100	-1.086913
0.568200	-1.029137
0.568300	-1.100221
0.568400	-1.252125
0.568500	-1.266732
0.568600	-1.189481
0.568700	-1.056078
0.568800	-0.987591
0.568900	-1.031085
0.569000	-1.115801
0.569100	-1.176498
0.569200	-1.145013
0.569300	-1.070684
0.569400	-0.999276
0.569500	-0.980126
0.569600	-0.993433
0.569700	-1.009663
0.569800	-1.011935
0.569900	-0.997004
0.570000	-0.979152
0.570100	-0.976231
0.570200	-0.976880
0.570300	-0.971362
0.570400	-0.968116
0.570500	-1.002522
0.570600	-1.029787
0.570700	-1.079123
0.570800	-1.089185
0.570900	-1.087887
0.571000	-1.062894
0.571100	-1.083018
0.571200	-1.185911
0.571300	-1.269004
0.571400	-1.279066
0.571500	-1.217071
0.571600	-1.152154
0.571700	-1.172927
0.571800	-1.277767
0.571900	-1.384880
0.572000	-1.421557
0.572100	-1.378388
0.572200	-1.312822
0.572300	-1.316068
0.572400	-1.380011
0.572500	-1.447524
0.572600	-1.479982
0.572700	-1.487123
0.572800	-1.488421
0.572900	-1.513739
0.573000	-1.547171
0.573100	-1.582226
0.573200	-1.606894
0.573300	-1.618904
0.573400	-1.628641
0.573500	-1.638379
0.573600	-1.635782
0.573700	-1.610789
0.573800	-1.580603
0.573900	-1.570541
0.574000	-1.615982
0.574100	-1.652011
0.574200	-1.655906
0.574300	-1.614035
0.574400	-1.583524
0.574500	-1.586445
0.574600	-1.587419
0.574700	-1.587095
0.574800	-1.583849
0.574900	-1.586770
0.575000	-1.583849
0.575100	-1.586445
0.575200	-1.592288
0.575300	-1.599104
0.575400	-1.613710
0.575500	-1.628316
0.575600	-1.637729
0.575700	-1.653309
0.575800	-1.668240
0.575900	-1.685443
0.576000	-1.705243
0.576100	-1.720823
0.576200	-1.747438
0.576300	-1.833453
0.576400	-1.981138
0.576500	-2.101234
0.576600	-2.096689
0.576700	-2.014570
0.576800	-1.944460
0.576900	-2.008727
0.577000	-2.171668
0.577100	-2.310914
0.577200	-2.350189
0.577300	-2.293711
0.577400	-2.246322
0.577500	-2.269368
0.577600	-2.370962
0.577700	-2.484891
0.577800	-2.555975
0.577900	-2.567984
0.578000	-2.565063
0.578100	-2.575774
0.578200	-2.605312
0.578300	-2.649455
0.578400	-2.680290
0.578500	-2.705608
0.578600	-2.736119
0.578700	-2.773771
0.578800	-2.821160
0.578900	-2.848100
0.579000	-2.864979
0.579100	-2.897437
0.579200	-2.960731
0.579300	-3.018182
0.579400	-3.040903
0.579500	-2.994488
0.579600	-2.963328
0.579700	-2.996435
0.579800	-3.095433
0.579900	-3.208389
0.580000	-3.243444
0.580100	-3.181448
0.580200	-3.109066
0.580300	-3.096732
0.580400	-3.164570
0.580500	-3.272981
0.580600	-3.340170
0.580700	-3.329783
0.580800	-3.284991
0.580900	-3.250585
0.581000	-3.246690
0.581100	-3.256427
0.581200	-3.249611
0.581300	-3.231434
0.581400	-3.209038
0.581500	-3.168465
0.581600	-3.107443
0.581700	-3.022727
0.581800	-2.924702
0.581900	-2.836740
0.582000	-2.773771
0.582100	-2.713398
0.582200	-2.657894
0.582300	-2.563440
0.582400	-2.452433
0.582500	-2.353435
0.582600	-2.224575
0.582700	-2.139210
0.582800	-2.058064
0.582900	-1.959391
0.583000	-1.865262
0.583100	-1.765290
0.583200	-1.663047
0.583300	-1.585147
0.583400	-1.517309
0.583500	-1.467324
0.583600	-1.418636
0.583700	-1.398512
0.583800	-1.370273
0.583900	-1.359887
0.584000	-1.330999
0.584100	-1.310226
0.584200	-1.301462
0.584300	-1.311524
0.584400	-1.321261
0.584500	-1.316068
0.584600	-1.281662
0.584700	-1.167085
0.584800	-1.024269
0.584900	-1.010961
0.585000	-1.109634
0.585100	-1.233624
0.585200	-1.216421
0.585300	-1.116775
0.585400	-0.986617
0.585500	-0.956107
0.585600	-1.013558
0.585700	-1.105414
0.585800	-1.122942
0.585900	-1.064842
0.586000	-0.975257
0.586100	-0.915858
0.586200	-0.909367
0.586300	-0.927219
0.586400	-0.947667
0.586500	-0.945395
0.586600	-0.935333
0.586700	-0.924947
0.586800	-0.917806
0.586900	-0.919104
0.587000	-0.905147
0.587100	-0.918455
0.587200	-0.941176
0.587300	-0.981099
0.587400	-1.007715
0.587500	-1.024593
0.587600	-1.010312
0.587700	-0.992784
0.587800	-1.033682
0.587900	-1.139820
0.588000	-1.201815
0.588100	-1.197271
0.588200	-1.127486
0.588300	-1.098598
0.588400	-1.148908
0.588500	-1.278092
0.588600	-1.372546
0.588700	-1.386503
0.588800	-1.320288
0.588900	-1.263486
0.589000	-1.289128
0.589100	-1.368651
0.589200	-1.417338
0.589300	-1.445901
0.589400	-1.439409
0.589500	-1.431295
0.589600	-1.458235
0.589700	-1.494264
0.589800	-1.524125
0.589900	-1.545873
0.590000	-1.557233
0.590100	-1.577032
0.590200	-1.585796
0.590300	-1.575734
0.590400	-1.556259
0.590500	-1.538083
0.590600	-1.557233
0.590700	-1.612412
0.590800	-1.649090
0.590900	-1.649739
0.591000	-1.607543
0.591100	-1.592612
0.591200	-1.594560
0.591300	-1.593911
0.591400	-1.596183
0.591500	-1.593911
0.591600	-1.592612
0.591700	-1.590340
0.591800	-1.590989
0.591900	-1.591963
0.592000	-1.591314
0.592100	-1.597481
0.592200	-1.606245
0.592300	-1.614359
0.592400	-1.625720
0.592500	-1.655257
0.592600	-1.677328
0.592700	-1.708813
0.592800	-1.748087
0.592900	-1.798722
0.593000	-1.915572
0.593100	-2.092794
0.593200	-2.195038
0.593300	-2.169072
0.593400	-2.089873
0.593500	-2.076565
0.593600	-2.191792
0.593700	-2.361225
0.593800	-2.471908
0.593900	-2.480347
0.594000	-2.415755
0.594100	-2.377454
0.594200	-2.418027
0.594300	-2.520920
0.594400	-2.608882
0.594500	-2.638419
0.594600	-2.623164
0.594700	-2.610830
0.594800	-2.609207
0.594900	-2.632577
0.595000	-2.659192
0.595100	-2.678992
0.595200	-2.693923
0.595300	-2.707555
0.595400	-2.741312
0.595500	-2.764358
0.595600	-2.774744
0.595700	-2.761761
0.595800	-2.777341
0.595900	-2.804281
0.596000	-2.832845
0.596100	-2.805255
0.596200	-2.732548
0.596300	-2.696195
0.596400	-2.733847
0.596500	-2.827976
0.596600	-2.908798
0.596700	-2.897112
0.596800	-2.813694
0.596900	-2.735145
0.597000	-2.723785
0.597100	-2.806878
0.597200	-2.908148
0.597300	-2.955213
0.597400	-2.924053
