LabVIEW Measurement	
Writer_Version	2
Reader_Version	2
Separator	Tab
Decimal_Separator	.
Multi_Headings	Yes
X_Columns	One
Time_Pref	Relative
Operator	as989
Description	Time Domain Data
Date	1903/12/31
Time	19:00:00
***End_of_Header***	
	
Channels	1	
Samples	15000	
Date	1903/12/31	
Time	19:00:00	
X_Dimension	Time	
X0	0.0000000000000000E+0	
Delta_X	0.000100	
***End_of_Header***		
X_Value	Untitled	Comment
0.000000	-1.355018	Tare Values:0.000000, 0.000000, 0.000000, 0.000000\0D\0A
0.000100	-1.366054
0.000200	-1.375467
0.000300	-1.398188
0.000400	-1.426102
0.000500	-1.454340
0.000600	-1.545223
0.000700	-1.692908
0.000800	-1.798722
0.000900	-1.784765
0.001000	-1.694207
0.001100	-1.645519
0.001200	-1.711085
0.001300	-1.858770
0.001400	-1.992498
0.001500	-2.023658
0.001600	-1.961338
0.001700	-1.891228
0.001800	-1.899018
0.001900	-1.984708
0.002000	-2.077539
0.002100	-2.126551
0.002200	-2.139534
0.002300	-2.128499
0.002400	-2.138885
0.002500	-2.162255
0.002600	-2.192117
0.002700	-2.212241
0.002800	-2.219706
0.002900	-2.230742
0.003000	-2.253139
0.003100	-2.284299
0.003200	-2.294361
0.003300	-2.302151
0.003400	-2.317081
0.003500	-2.340127
0.003600	-2.375506
0.003700	-2.368366
0.003800	-2.296633
0.003900	-2.242752
0.004000	-2.259955
0.004100	-2.346619
0.004200	-2.453082
0.004300	-2.490084
0.004400	-2.426791
0.004500	-2.339802
0.004600	-2.316432
0.004700	-2.370638
0.004800	-2.473531
0.004900	-2.523841
0.005000	-2.509235
0.005100	-2.459249
0.005200	-2.424194
0.005300	-2.420299
0.005400	-2.432309
0.005500	-2.431984
0.005600	-2.405044
0.005700	-2.377779
0.005800	-2.353435
0.005900	-2.328117
0.006000	-2.280079
0.006100	-2.200881
0.006200	-2.128174
0.006300	-2.074942
0.006400	-2.042809
0.006500	-2.017816
0.006600	-1.952899
0.006700	-1.857147
0.006800	-1.779247
0.006900	-1.683820
0.007000	-1.619228
0.007100	-1.560803
0.007200	-1.501405
0.007300	-1.433892
0.007400	-1.354693
0.007500	-1.272574
0.007600	-1.210904
0.007700	-1.157997
0.007800	-1.134302
0.007900	-1.102168
0.008000	-1.089510
0.008100	-1.079123
0.008200	-1.059973
0.008300	-1.051858
0.008400	-1.027190
0.008500	-1.033682
0.008600	-1.024269
0.008700	-1.068412
0.008800	-1.043095
0.008900	-1.028488
0.009000	-0.886646
0.009100	-0.783104
0.009200	-0.740584
0.009300	-0.885672
0.009400	-0.985643
0.009500	-0.981424
0.009600	-0.886321
0.009700	-0.764928
0.009800	-0.727601
0.009900	-0.773367
0.010000	-0.858083
0.010100	-0.877233
0.010200	-0.838283
0.010300	-0.760384
0.010400	-0.697415
0.010500	-0.684107
0.010600	-0.688326
0.010700	-0.712345
0.010800	-0.704880
0.010900	-0.681835
0.011000	-0.667553
0.011100	-0.661711
0.011200	-0.666904
0.011300	-0.665281
0.011400	-0.672422
0.011500	-0.707152
0.011600	-0.740259
0.011700	-0.784403
0.011800	-0.788298
0.011900	-0.788947
0.012000	-0.778885
0.012100	-0.827247
0.012200	-0.940851
0.012300	-1.000574
0.012400	-0.988889
0.012500	-0.916832
0.012600	-0.868469
0.012700	-0.906121
0.012800	-1.028488
0.012900	-1.106063
0.013000	-1.098598
0.013100	-1.039200
0.013200	-0.990512
0.013300	-1.013558
0.013400	-1.078474
0.013500	-1.131705
0.013600	-1.155725
0.013700	-1.151505
0.013800	-1.142092
0.013900	-1.169357
0.014000	-1.212202
0.014100	-1.247906
0.014200	-1.264784
0.014300	-1.280689
0.014400	-1.298216
0.014500	-1.318016
0.014600	-1.320612
0.014700	-1.310550
0.014800	-1.306331
0.014900	-1.335543
0.015000	-1.404679
0.015100	-1.450445
0.015200	-1.468622
0.015300	-1.462779
0.015400	-1.444927
0.015500	-1.460183
0.015600	-1.465376
0.015700	-1.464727
0.015800	-1.457262
0.015900	-1.454016
0.016000	-1.449796
0.016100	-1.454340
0.016200	-1.449472
0.016300	-1.446875
0.016400	-1.443304
0.016500	-1.444603
0.016600	-1.440708
0.016700	-1.450770
0.016800	-1.456937
0.016900	-1.471543
0.017000	-1.484851
0.017100	-1.505300
0.017200	-1.542302
0.017300	-1.656231
0.017400	-1.803916
0.017500	-1.871429
0.017600	-1.831181
0.017700	-1.735429
0.017800	-1.713033
0.017900	-1.804889
0.018000	-1.966207
0.018100	-2.071697
0.018200	-2.064556
0.018300	-1.998990
0.018400	-1.957443
0.018500	-1.993797
0.018600	-2.082408
0.018700	-2.174914
0.018800	-2.216785
0.018900	-2.214189
0.019000	-2.196012
0.019100	-2.200881
0.019200	-2.236909
0.019300	-2.271315
0.019400	-2.290141
0.019500	-2.300203
0.019600	-2.309616
0.019700	-2.334284
0.019800	-2.357979
0.019900	-2.377129
0.020000	-2.382972
0.020100	-2.393359
0.020200	-2.418676
0.020300	-2.451134
0.020400	-2.430036
0.020500	-2.364471
0.020600	-2.334934
0.020700	-2.359602
0.020800	-2.445616
0.020900	-2.531307
0.021000	-2.533254
0.021100	-2.453082
0.021200	-2.374533
0.021300	-2.385569
0.021400	-2.460223
0.021500	-2.550132
0.021600	-2.579994
0.021700	-2.552080
0.021800	-2.491707
0.021900	-2.456652
0.022000	-2.454056
0.022100	-2.471259
0.022200	-2.470285
0.022300	-2.455029
0.022400	-2.428738
0.022500	-2.399526
0.022600	-2.367067
0.022700	-2.313186
0.022800	-2.242427
0.022900	-2.175239
0.023000	-2.134666
0.023100	-2.096365
0.023200	-2.055792
0.023300	-1.964260
0.023400	-1.871429
0.023500	-1.752632
0.023600	-1.663047
0.023700	-1.602999
0.023800	-1.548145
0.023900	-1.482579
0.024000	-1.411495
0.024100	-1.338140
0.024200	-1.256020
0.024300	-1.190455
0.024400	-1.150856
0.024500	-1.118073
0.024600	-1.086913
0.024700	-1.068737
0.024800	-1.036278
0.024900	-1.009663
0.025000	-0.975257
0.025100	-0.961300
0.025200	-0.934360
0.025300	-0.949939
0.025400	-0.935982
0.025500	-0.933386
0.025600	-0.847372
0.025700	-0.715916
0.025800	-0.606207
0.025900	-0.624708
0.026000	-0.754866
0.026100	-0.824002
0.026200	-0.779858
0.026300	-0.655219
0.026400	-0.553949
0.026500	-0.548432
0.026600	-0.609778
0.026700	-0.679238
0.026800	-0.683133
0.026900	-0.623085
0.027000	-0.548107
0.027100	-0.497148
0.027200	-0.497472
0.027300	-0.515000
0.027400	-0.536747
0.027500	-0.536097
0.027600	-0.525386
0.027700	-0.515324
0.027800	-0.516947
0.027900	-0.520193
0.028000	-0.528308
0.028100	-0.575047
0.028200	-0.608479
0.028300	-0.653921
0.028400	-0.683782
0.028500	-0.703257
0.028600	-0.703582
0.028700	-0.722732
0.028800	-0.799333
0.028900	-0.897682
0.029000	-0.943448
0.029100	-0.922025
0.029200	-0.868469
0.029300	-0.847372
0.029400	-0.919429
0.029500	-1.020698
0.029600	-1.079123
0.029700	-1.068737
0.029800	-1.015180
0.029900	-0.997328
0.030000	-1.034331
0.030100	-1.097949
0.030200	-1.130083
0.030300	-1.148908
0.030400	-1.154426
0.030500	-1.178770
0.030600	-1.211228
0.030700	-1.243686
0.030800	-1.268355
0.030900	-1.287505
0.031000	-1.302760
0.031100	-1.327753
0.031200	-1.340736
0.031300	-1.328727
0.031400	-1.314121
0.031500	-1.305032
0.031600	-1.328727
0.031700	-1.366378
0.031800	-1.376440
0.031900	-1.375467
0.032000	-1.376116
0.032100	-1.368326
0.032200	-1.372546
0.032300	-1.365405
0.032400	-1.362808
0.032500	-1.357290
0.032600	-1.348851
0.032700	-1.349176
0.032800	-1.348202
0.032900	-1.348526
0.033000	-1.342035
0.033100	-1.349176
0.033200	-1.344307
0.033300	-1.362159
0.033400	-1.363457
0.033500	-1.371247
0.033600	-1.380660
0.033700	-1.396240
0.033800	-1.414417
0.033900	-1.462130
0.034000	-1.599429
0.034100	-1.737376
0.034200	-1.767238
0.034300	-1.713033
0.034400	-1.630913
0.034500	-1.652985
0.034600	-1.771782
0.034700	-1.921415
0.034800	-1.982761
0.034900	-1.955171
0.035000	-1.887009
0.035100	-1.884088
0.035200	-1.950952
0.035300	-2.048327
0.035400	-2.121358
0.035500	-2.139859
0.035600	-2.143754
0.035700	-2.158036
0.035800	-2.176212
0.035900	-2.201530
0.036000	-2.234637
0.036100	-2.249568
0.036200	-2.268394
0.036300	-2.305396
0.036400	-2.343048
0.036500	-2.361874
0.036600	-2.358953
0.036700	-2.353759
0.036800	-2.372910
0.036900	-2.402122
0.037000	-2.425168
0.037100	-2.394008
0.037200	-2.321301
0.037300	-2.315134
0.037400	-2.373234
0.037500	-2.469311
0.037600	-2.522867
0.037700	-2.493979
0.037800	-2.414781
0.037900	-2.363821
0.038000	-2.400499
0.038100	-2.499173
0.038200	-2.579020
0.038300	-2.586161
0.038400	-2.535202
0.038500	-2.502094
0.038600	-2.498524
0.038700	-2.509235
0.038800	-2.508261
0.038900	-2.495927
0.039000	-2.482944
0.039100	-2.466065
0.039200	-2.447239
0.039300	-2.402771
0.039400	-2.328442
0.039500	-2.249568
0.039600	-2.186274
0.039700	-2.146026
0.039800	-2.112269
0.039900	-2.059038
0.040000	-1.961338
0.040100	-1.876947
0.040200	-1.768536
0.040300	-1.704269
0.040400	-1.648765
0.040500	-1.594235
0.040600	-1.518932
0.040700	-1.444278
0.040800	-1.365729
0.040900	-1.305032
0.041000	-1.251152
0.041100	-1.211228
0.041200	-1.177796
0.041300	-1.148908
0.041400	-1.137873
0.041500	-1.114827
0.041600	-1.099247
0.041700	-1.071658
0.041800	-1.061271
0.041900	-1.049911
0.042000	-1.060297
0.042100	-1.066789
0.042200	-1.033032
0.042300	-0.954808
0.042400	-0.803878
0.042500	-0.723706
0.042600	-0.780832
0.042700	-0.923973
0.042800	-0.935658
0.042900	-0.877558
0.043000	-0.723706
0.043100	-0.658140
0.043200	-0.684431
0.043300	-0.771419
0.043400	-0.821080
0.043500	-0.792193
0.043600	-0.707801
0.043700	-0.632498
0.043800	-0.615295
0.043900	-0.621787
0.044000	-0.633472
0.044100	-0.628603
0.044200	-0.613023
0.044300	-0.607830
0.044400	-0.607181
0.044500	-0.618217
0.044600	-0.616918
0.044700	-0.631849
0.044800	-0.632498
0.044900	-0.680536
0.045000	-0.720785
0.045100	-0.768498
0.045200	-0.757462
0.045300	-0.761033
0.045400	-0.763305
0.045500	-0.867820
0.045600	-0.959352
0.045700	-0.977529
0.045800	-0.931763
0.045900	-0.861004
0.046000	-0.866197
0.046100	-0.954484
0.046200	-1.065166
0.046300	-1.097300
0.046400	-1.048937
0.046500	-0.975257
0.046600	-0.958379
0.046700	-1.024593
0.046800	-1.101519
0.046900	-1.130407
0.047000	-1.129109
0.047100	-1.120994
0.047200	-1.138846
0.047300	-1.178445
0.047400	-1.216421
0.047500	-1.235247
0.047600	-1.245958
0.047700	-1.260565
0.047800	-1.283935
0.047900	-1.293997
0.048000	-1.294646
0.048100	-1.287505
0.048200	-1.294970
0.048300	-1.347877
0.048400	-1.397863
0.048500	-1.423830
0.048600	-1.426102
0.048700	-1.418961
0.048800	-1.425452
0.048900	-1.427725
0.049000	-1.427075
0.049100	-1.427075
0.049200	-1.414417
0.049300	-1.407925
0.049400	-1.394942
0.049500	-1.394293
0.049600	-1.391371
0.049700	-1.382608
0.049800	-1.380660
0.049900	-1.387801
0.050000	-1.390722
0.050100	-1.402407
0.050200	-1.409223
0.050300	-1.422207
0.050400	-1.440383
0.050500	-1.467324
0.050600	-1.539381
0.050700	-1.691610
0.050800	-1.806837
0.050900	-1.815925
0.051000	-1.726665
0.051100	-1.669863
0.051200	-1.728288
0.051300	-1.885386
0.051400	-2.023334
0.051500	-2.063257
0.051600	-2.009377
0.051700	-1.942188
0.051800	-1.949978
0.051900	-2.035343
0.052000	-2.144079
0.052100	-2.211267
0.052200	-2.225874
0.052300	-2.221005
0.052400	-2.230742
0.052500	-2.259630
0.052600	-2.304098
0.052700	-2.331039
0.052800	-2.344996
0.052900	-2.347917
0.053000	-2.387516
0.053100	-2.417053
0.053200	-2.441721
0.053300	-2.440423
0.053400	-2.443020
0.053500	-2.457626
0.053600	-2.480672
0.053700	-2.489760
0.053800	-2.428414
0.053900	-2.373559
0.054000	-2.383621
0.054100	-2.455354
0.054200	-2.552729
0.054300	-2.589407
0.054400	-2.533903
0.054500	-2.443994
0.054600	-2.394657
0.054700	-2.449836
0.054800	-2.557922
0.054900	-2.642314
0.055000	-2.634524
0.055100	-2.584538
0.055200	-2.533903
0.055300	-2.518972
0.055400	-2.532605
0.055500	-2.546562
0.055600	-2.548834
0.055700	-2.535202
0.055800	-2.500471
0.055900	-2.457626
0.056000	-2.406666
0.056100	-2.332986
0.056200	-2.270666
0.056300	-2.212566
0.056400	-2.174589
0.056500	-2.136289
0.056600	-2.055467
0.056700	-1.960365
0.056800	-1.868183
0.056900	-1.764317
0.057000	-1.699076
0.057100	-1.635457
0.057200	-1.566970
0.057300	-1.491667
0.057400	-1.412469
0.057500	-1.318016
0.057600	-1.243362
0.057700	-1.192078
0.057800	-1.160269
0.057900	-1.125538
0.058000	-1.106388
0.058100	-1.083992
0.058200	-1.050560
0.058300	-1.035629
0.058400	-0.996030
0.058500	-0.993758
0.058600	-0.973309
0.058700	-0.990188
0.058800	-0.968116
0.058900	-0.941176
0.059000	-0.813940
0.059100	-0.680212
0.059200	-0.649701
0.059300	-0.759085
0.059400	-0.873663
0.059500	-0.869768
0.059600	-0.756489
0.059700	-0.637367
0.059800	-0.580890
0.059900	-0.631849
0.060000	-0.704555
0.060100	-0.748049
0.060200	-0.704555
0.060300	-0.631200
0.060400	-0.563362
0.060500	-0.544861
0.060600	-0.559792
0.060700	-0.568231
0.060800	-0.561415
0.060900	-0.551677
0.061000	-0.540966
0.061100	-0.534475
0.061200	-0.532852
0.061300	-0.540317
0.061400	-0.545835
0.061500	-0.589653
0.061600	-0.624708
0.061700	-0.665930
0.061800	-0.688326
0.061900	-0.684107
0.062000	-0.708775
0.062100	-0.737987
0.062200	-0.854188
0.062300	-0.906770
0.062400	-0.910340
0.062500	-0.841854
0.062600	-0.792517
0.062700	-0.827247
0.062800	-0.929491
0.062900	-1.017453
0.063000	-1.037901
0.063100	-0.981749
0.063200	-0.916183
0.063300	-0.919104
0.063400	-0.982398
0.063500	-1.041147
0.063600	-1.075228
0.063700	-1.080746
0.063800	-1.078149
0.063900	-1.094379
0.064000	-1.130732
0.064100	-1.174550
0.064200	-1.207009
0.064300	-1.225185
0.064400	-1.224211
0.064500	-1.218044
0.064600	-1.218693
0.064700	-1.202140
0.064800	-1.192078
0.064900	-1.208631
0.065000	-1.267381
0.065100	-1.315419
0.065200	-1.327104
0.065300	-1.329376
0.065400	-1.324183
0.065500	-1.330674
0.065600	-1.325806
0.065700	-1.316393
0.065800	-1.311849
0.065900	-1.299839
0.066000	-1.287830
0.066100	-1.284908
0.066200	-1.282312
0.066300	-1.280364
0.066400	-1.270627
0.066500	-1.275171
0.066600	-1.281013
0.066700	-1.283610
0.066800	-1.294970
0.066900	-1.301462
0.067000	-1.319963
0.067100	-1.334894
0.067200	-1.376116
0.067300	-1.474464
0.067400	-1.641624
0.067500	-1.732183
0.067600	-1.702321
0.067700	-1.613386
0.067800	-1.581901
0.067900	-1.676355
0.068000	-1.840269
0.068100	-1.971076
0.068200	-1.985358
0.068300	-1.926283
0.068400	-1.878570
0.068500	-1.914598
0.068600	-2.014245
0.068700	-2.109673
0.068800	-2.149597
0.068900	-2.160308
0.069000	-2.165501
0.069100	-2.178484
0.069200	-2.215162
0.069300	-2.248270
0.069400	-2.273263
0.069500	-2.280079
0.069600	-2.299879
0.069700	-2.332661
0.069800	-2.366418
0.069900	-2.378752
0.070000	-2.373559
0.070100	-2.391736
0.070200	-2.414132
0.070300	-2.447239
0.070400	-2.439774
0.070500	-2.368041
0.070600	-2.326494
0.070700	-2.362199
0.070800	-2.459898
0.070900	-2.556299
0.071000	-2.562142
0.071100	-2.489435
0.071200	-2.404394
0.071300	-2.391411
0.071400	-2.463469
0.071500	-2.560844
0.071600	-2.612128
0.071700	-2.587135
0.071800	-2.527736
0.071900	-2.483593
0.072000	-2.476452
0.072100	-2.486839
0.072200	-2.492357
0.072300	-2.484242
0.072400	-2.462819
0.072500	-2.421597
0.072600	-2.388490
0.072700	-2.333311
0.072800	-2.253788
0.072900	-2.183678
0.073000	-2.138885
0.073100	-2.104155
0.073200	-2.057090
0.073300	-1.975620
0.073400	-1.879219
0.073500	-1.768212
0.073600	-1.680574
0.073700	-1.616632
0.073800	-1.559180
0.073900	-1.499457
0.074000	-1.436488
0.074100	-1.354044
0.074200	-1.275820
0.074300	-1.217720
0.074400	-1.176822
0.074500	-1.148259
0.074600	-1.120020
0.074700	-1.108011
0.074800	-1.085290
0.074900	-1.069061
0.075000	-1.040173
0.075100	-1.038226
0.075200	-1.021023
0.075300	-1.028813
0.075400	-1.038226
0.075500	-1.023295
0.075600	-0.969414
0.075700	-0.833415
0.075800	-0.718837
0.075900	-0.724680
0.076000	-0.848021
0.076100	-0.943123
0.076200	-0.893787
0.076300	-0.768174
0.076400	-0.646131
0.076500	-0.635420
0.076600	-0.703906
0.076700	-0.784727
0.076800	-0.788622
0.076900	-0.723706
0.077000	-0.637692
0.077100	-0.593224
0.077200	-0.598093
0.077300	-0.618541
0.077400	-0.626331
0.077500	-0.616918
0.077600	-0.600040
0.077700	-0.600040
0.077800	-0.596145
0.077900	-0.600365
0.078000	-0.598742
0.078100	-0.629577
0.078200	-0.657167
0.078300	-0.707477
0.078400	-0.747400
0.078500	-0.756164
0.078600	-0.760708
0.078700	-0.756813
0.078800	-0.829195
0.078900	-0.934684
0.079000	-0.981424
0.079100	-0.967791
0.079200	-0.880154
0.079300	-0.854512
0.079400	-0.902550
0.079500	-1.020049
0.079600	-1.106063
0.079700	-1.101519
0.079800	-1.026216
0.079900	-0.979476
0.080000	-1.017128
0.080100	-1.084316
0.080200	-1.139820
0.080300	-1.162865
0.080400	-1.155075
0.080500	-1.161892
0.080600	-1.185586
0.080700	-1.223887
0.080800	-1.248880
0.080900	-1.255696
0.081000	-1.271925
0.081100	-1.291725
0.081200	-1.311199
0.081300	-1.308278
0.081400	-1.292374
0.081500	-1.274197
0.081600	-1.300164
0.081700	-1.358588
0.081800	-1.392670
0.081900	-1.391696
0.082000	-1.370273
0.082100	-1.355992
0.082200	-1.358913
0.082300	-1.352421
0.082400	-1.346579
0.082500	-1.339438
0.082600	-1.331324
0.082700	-1.328402
0.082800	-1.325806
0.082900	-1.325156
0.083000	-1.329701
0.083100	-1.333271
0.083200	-1.346903
0.083300	-1.353395
0.083400	-1.359887
0.083500	-1.367677
0.083600	-1.387801
0.083700	-1.413118
0.083800	-1.442006
0.083900	-1.483553
0.084000	-1.616956
0.084100	-1.761720
0.084200	-1.828584
0.084300	-1.774054
0.084400	-1.688689
0.084500	-1.687066
0.084600	-1.805863
0.084700	-1.976269
0.084800	-2.068775
0.084900	-2.055467
0.085000	-1.995095
0.085100	-1.967830
0.085200	-2.022360
0.085300	-2.122332
0.085400	-2.206074
0.085500	-2.235286
0.085600	-2.237559
0.085700	-2.244050
0.085800	-2.257358
0.085900	-2.286571
0.086000	-2.318380
0.086100	-2.330714
0.086200	-2.340451
0.086300	-2.358628
0.086400	-2.379077
0.086500	-2.391736
0.086600	-2.386867
0.086700	-2.384595
0.086800	-2.401149
0.086900	-2.431335
0.087000	-2.451784
0.087100	-2.409912
0.087200	-2.329091
0.087300	-2.294036
0.087400	-2.333960
0.087500	-2.419974
0.087600	-2.493655
0.087700	-2.471583
0.087800	-2.390113
0.087900	-2.313836
0.088000	-2.325521
0.088100	-2.411860
0.088200	-2.496901
0.088300	-2.529359
0.088400	-2.490409
0.088500	-2.442046
0.088600	-2.416079
0.088700	-2.422246
0.088800	-2.441072
0.088900	-2.440423
0.089000	-2.429387
0.089100	-2.409912
0.089200	-2.384595
0.089300	-2.344346
0.089400	-2.282351
0.089500	-2.205425
0.089600	-2.150246
0.089700	-2.109997
0.089800	-2.075916
0.089900	-2.029176
0.090000	-1.930828
0.090100	-1.826961
0.090200	-1.714980
0.090300	-1.648441
0.090400	-1.597481
0.090500	-1.540679
0.090600	-1.479009
0.090700	-1.408899
0.090800	-1.321261
0.090900	-1.256345
0.091000	-1.196622
0.091100	-1.160918
0.091200	-1.132355
0.091300	-1.117099
0.091400	-1.103142
0.091500	-1.090808
0.091600	-1.057701
0.091700	-1.046340
0.091800	-1.027190
0.091900	-1.024269
0.092000	-1.034980
0.092100	-1.041472
0.092200	-1.033357
0.092300	-0.950589
0.092400	-0.802579
0.092500	-0.709100
0.092600	-0.749997
0.092700	-0.899954
0.092800	-0.942474
0.092900	-0.897357
0.093000	-0.748374
0.093100	-0.665281
0.093200	-0.662684
0.093300	-0.738312
0.093400	-0.800956
0.093500	-0.784727
0.093600	-0.724030
0.093700	-0.638016
0.093800	-0.611725
0.093900	-0.615295
0.094000	-0.630551
0.094100	-0.634446
0.094200	-0.630551
0.094300	-0.613673
0.094400	-0.601338
0.094500	-0.588031
0.094600	-0.574074
0.094700	-0.585759
0.094800	-0.612050
0.094900	-0.645482
0.095000	-0.690598
0.095100	-0.708126
0.095200	-0.709749
0.095300	-0.694493
0.095400	-0.712345
0.095500	-0.805176
0.095600	-0.899305
0.095700	-0.930465
0.095800	-0.874961
0.095900	-0.799658
0.096000	-0.786999
0.096100	-0.874636
0.096200	-0.976880
0.096300	-1.024269
0.096400	-0.994732
0.096500	-0.923973
0.096600	-0.907419
0.096700	-0.962598
0.096800	-1.034655
0.096900	-1.055429
0.097000	-1.066464
0.097100	-1.069710
0.097200	-1.100546
0.097300	-1.136574
0.097400	-1.168059
0.097500	-1.186884
0.097600	-1.196297
0.097700	-1.216746
0.097800	-1.248555
0.097900	-1.273223
0.098000	-1.277767
0.098100	-1.268030
0.098200	-1.267381
0.098300	-1.311849
0.098400	-1.373195
0.098500	-1.397863
0.098600	-1.393643
0.098700	-1.367677
0.098800	-1.369949
0.098900	-1.375142
0.099000	-1.373195
0.099100	-1.371896
0.099200	-1.369949
0.099300	-1.367677
0.099400	-1.365080
0.099500	-1.358588
0.099600	-1.352421
0.099700	-1.350149
0.099800	-1.353720
0.099900	-1.350474
0.100000	-1.358264
0.100100	-1.361185
0.100200	-1.369624
0.100300	-1.377414
0.100400	-1.397863
0.100500	-1.428374
0.100600	-1.491992
0.100700	-1.633510
0.100800	-1.762694
0.100900	-1.791582
0.101000	-1.706216
0.101100	-1.640975
0.101200	-1.676030
0.101300	-1.814302
0.101400	-1.969128
0.101500	-2.020737
0.101600	-1.985033
0.101700	-1.920441
0.101800	-1.923687
0.101900	-1.999964
0.102000	-2.111620
0.102100	-2.178484
0.102200	-2.193091
0.102300	-2.193415
0.102400	-2.200881
0.102500	-2.227496
0.102600	-2.262551
0.102700	-2.295010
0.102800	-2.312537
0.102900	-2.324222
0.103000	-2.356681
0.103100	-2.385893
0.103200	-2.410561
0.103300	-2.406666
0.103400	-2.416079
0.103500	-2.447889
0.103600	-2.482294
0.103700	-2.494629
0.103800	-2.447239
0.103900	-2.374533
0.104000	-2.381998
0.104100	-2.447889
0.104200	-2.547211
0.104300	-2.593951
0.104400	-2.542342
0.104500	-2.446266
0.104600	-2.394008
0.104700	-2.436204
0.104800	-2.537149
0.104900	-2.611803
0.105000	-2.605312
0.105100	-2.547211
0.105200	-2.494304
0.105300	-2.476127
0.105400	-2.483268
0.105500	-2.487812
0.105600	-2.480672
0.105700	-2.463793
0.105800	-2.437502
0.105900	-2.402771
0.106000	-2.362848
0.106100	-2.310590
0.106200	-2.244050
0.106300	-2.182055
0.106400	-2.145377
0.106500	-2.109024
0.106600	-2.033396
0.106700	-1.930828
0.106800	-1.829882
0.106900	-1.726016
0.107000	-1.666617
0.107100	-1.607543
0.107200	-1.547495
0.107300	-1.477386
0.107400	-1.400135
0.107500	-1.306980
0.107600	-1.237844
0.107700	-1.186884
0.107800	-1.157023
0.107900	-1.131056
0.108000	-1.111906
0.108100	-1.095352
0.108200	-1.078474
0.108300	-1.056078
0.108400	-1.031734
0.108500	-1.019725
0.108600	-1.025243
0.108700	-1.028813
0.108800	-1.030760
0.108900	-1.002197
0.109000	-0.905472
0.109100	-0.754866
0.109200	-0.707801
0.109300	-0.786999
0.109400	-0.915534
0.109500	-0.920727
0.109600	-0.827247
0.109700	-0.687353
0.109800	-0.627305
0.109900	-0.672422
0.110000	-0.749997
0.110100	-0.798360
0.110200	-0.757138
0.110300	-0.673720
0.110400	-0.600040
0.110500	-0.580241
0.110600	-0.597443
0.110700	-0.618217
0.110800	-0.619515
0.110900	-0.600365
0.111000	-0.581539
0.111100	-0.574723
0.111200	-0.566284
0.111300	-0.565959
0.111400	-0.583162
0.111500	-0.616918
0.111600	-0.651649
0.111700	-0.703257
0.111800	-0.733119
0.111900	-0.744479
0.112000	-0.744804
0.112100	-0.769147
0.112200	-0.881453
0.112300	-0.956756
0.112400	-0.973309
0.112500	-0.908068
0.112600	-0.849644
0.112700	-0.868145
0.112800	-0.966169
0.112900	-1.072956
0.113000	-1.107037
0.113100	-1.060297
0.113200	-0.988565
0.113300	-0.977529
0.113400	-1.051858
0.113500	-1.127161
0.113600	-1.151180
0.113700	-1.162865
0.113800	-1.157672
0.113900	-1.179744
0.114000	-1.216421
0.114100	-1.249529
0.114200	-1.261538
0.114300	-1.268679
0.114400	-1.287180
0.114500	-1.304708
0.114600	-1.311199
0.114700	-1.308603
0.114800	-1.295295
0.114900	-1.306980
0.115000	-1.357615
0.115100	-1.404679
0.115200	-1.415715
0.115300	-1.410846
0.115400	-1.381634
0.115500	-1.386827
0.115600	-1.380335
0.115700	-1.367677
0.115800	-1.357615
0.115900	-1.347877
0.116000	-1.341061
0.116100	-1.335868
0.116200	-1.332297
0.116300	-1.329051
0.116400	-1.331648
0.116500	-1.331648
0.116600	-1.339438
0.116700	-1.348526
0.116800	-1.362483
0.116900	-1.372546
0.117000	-1.391696
0.117100	-1.416364
0.117200	-1.449147
0.117300	-1.538407
0.117400	-1.689987
0.117500	-1.796450
0.117600	-1.775028
0.117700	-1.699725
0.117800	-1.650388
0.117900	-1.725042
0.118000	-1.882789
0.118100	-2.008078
0.118200	-2.034045
0.118300	-1.977568
0.118400	-1.930503
0.118500	-1.944785
0.118600	-2.031448
0.118700	-2.131420
0.118800	-2.187248
0.118900	-2.201530
0.119000	-2.198284
0.119100	-2.202179
0.119200	-2.216785
0.119300	-2.247945
0.119400	-2.272614
0.119500	-2.288194
0.119600	-2.299554
0.119700	-2.336232
0.119800	-2.361225
0.119900	-2.368041
0.120000	-2.369339
0.120100	-2.377779
0.120200	-2.402122
0.120300	-2.421273
0.120400	-2.416404
0.120500	-2.356031
0.120600	-2.314160
0.120700	-2.333635
0.120800	-2.413158
0.120900	-2.504366
0.121000	-2.522543
0.121100	-2.454380
0.121200	-2.374208
0.121300	-2.348566
0.121400	-2.409263
0.121500	-2.502743
0.121600	-2.559221
0.121700	-2.542992
0.121800	-2.496576
0.121900	-2.458600
0.122000	-2.444967
0.122100	-2.450161
0.122200	-2.454705
0.122300	-2.453731
0.122400	-2.442371
0.122500	-2.413158
0.122600	-2.374533
0.122700	-2.322275
0.122800	-2.245673
0.122900	-2.178484
0.123000	-2.142780
0.123100	-2.103830
0.123200	-2.071047
0.123300	-1.986331
0.123400	-1.889606
0.123500	-1.779247
0.123600	-1.685118
0.123700	-1.617281
0.123800	-1.559180
0.123900	-1.488097
0.124000	-1.419935
0.124100	-1.338140
0.124200	-1.264784
0.124300	-1.198245
0.124400	-1.154751
0.124500	-1.118398
0.124600	-1.092431
0.124700	-1.080097
0.124800	-1.060297
0.124900	-1.039200
0.125000	-1.008040
0.125100	-0.984021
0.125200	-0.986942
0.125300	-0.977854
0.125400	-0.993758
0.125500	-0.963572
0.125600	-0.933386
0.125700	-0.777911
0.125800	-0.670799
0.125900	-0.649052
0.126000	-0.784078
0.126100	-0.872689
0.126200	-0.847696
0.126300	-0.723057
0.126400	-0.601988
0.126500	-0.574398
0.126600	-0.638341
0.126700	-0.719486
0.126800	-0.740909
0.126900	-0.684431
0.127000	-0.606207
0.127100	-0.563687
0.127200	-0.561739
0.127300	-0.574398
0.127400	-0.580565
0.127500	-0.579267
0.127600	-0.568880
0.127700	-0.571477
0.127800	-0.569205
0.127900	-0.567257
0.128000	-0.560441
0.128100	-0.581864
0.128200	-0.616269
0.128300	-0.666255
0.128400	-0.710073
0.128500	-0.716890
0.128600	-0.722732
0.128700	-0.725329
0.128800	-0.789271
0.128900	-0.895085
0.129000	-0.951238
0.129100	-0.944746
0.129200	-0.866197
0.129300	-0.842503
0.129400	-0.896383
0.129500	-1.012259
0.129600	-1.087238
0.129700	-1.094703
0.129800	-1.037901
0.129900	-0.996679
0.130000	-1.024269
0.130100	-1.096651
0.130200	-1.147285
0.130300	-1.154426
0.130400	-1.159295
0.130500	-1.169682
0.130600	-1.192402
0.130700	-1.227782
0.130800	-1.252775
0.130900	-1.263161
0.131000	-1.275495
0.131100	-1.302760
0.131200	-1.322884
0.131300	-1.321911
0.131400	-1.307629
0.131500	-1.296918
0.131600	-1.315744
0.131700	-1.379686
0.131800	-1.422856
0.131900	-1.438760
0.132000	-1.431619
0.132100	-1.420259
0.132200	-1.432269
0.132300	-1.429347
0.132400	-1.421557
0.132500	-1.417987
0.132600	-1.412145
0.132700	-1.403705
0.132800	-1.395915
0.132900	-1.398837
0.133000	-1.402407
0.133100	-1.403381
0.133200	-1.405004
0.133300	-1.411820
0.133400	-1.415390
0.133500	-1.425452
0.133600	-1.437462
0.133700	-1.454340
0.133800	-1.484526
0.133900	-1.523152
0.134000	-1.644221
0.134100	-1.787037
0.134200	-1.860069
0.134300	-1.800021
0.134400	-1.714980
0.134500	-1.705243
0.134600	-1.818522
0.134700	-1.981463
0.134800	-2.082083
0.134900	-2.066503
0.135000	-1.991849
0.135100	-1.954522
0.135200	-2.004833
0.135300	-2.113892
0.135400	-2.202828
0.135500	-2.234313
0.135600	-2.231716
0.135700	-2.236909
0.135800	-2.252814
0.135900	-2.293711
0.136000	-2.318704
0.136100	-2.327468
0.136200	-2.328766
0.136300	-2.345320
0.136400	-2.386542
0.136500	-2.416079
0.136600	-2.426466
0.136700	-2.429712
0.136800	-2.442046
0.136900	-2.469311
0.137000	-2.494304
0.137100	-2.469960
0.137200	-2.385893
0.137300	-2.353435
0.137400	-2.396929
0.137500	-2.503068
0.137600	-2.592328
0.137700	-2.586486
0.137800	-2.494953
0.137900	-2.408614
0.138000	-2.411211
0.138100	-2.497550
0.138200	-2.609207
0.138300	-2.652052
0.138400	-2.613102
0.138500	-2.557598
0.138600	-2.525464
0.138700	-2.536500
0.138800	-2.566037
0.138900	-2.567660
0.139000	-2.553378
0.139100	-2.530982
0.139200	-2.503068
0.139300	-2.476127
0.139400	-2.428414
0.139500	-2.356031
0.139600	-2.286571
0.139700	-2.236260
0.139800	-2.202179
0.139900	-2.157062
0.140000	-2.057740
0.140100	-1.954198
0.140200	-1.829882
0.140300	-1.744842
0.140400	-1.677004
0.140500	-1.618904
0.140600	-1.543925
0.140700	-1.463429
0.140800	-1.370273
0.140900	-1.287505
0.141000	-1.221939
0.141100	-1.184937
0.141200	-1.150207
0.141300	-1.119696
0.141400	-1.091133
0.141500	-1.055429
0.141600	-1.029462
0.141700	-0.997653
0.141800	-0.992784
0.141900	-0.966493
0.142000	-0.989863
0.142100	-0.968765
0.142200	-0.972011
0.142300	-0.877233
0.142400	-0.734742
0.142500	-0.629577
0.142600	-0.670150
0.142700	-0.813615
0.142800	-0.872040
0.142900	-0.829520
0.143000	-0.675992
0.143100	-0.589004
0.143200	-0.588680
0.143300	-0.665930
0.143400	-0.744479
0.143500	-0.736365
0.143600	-0.670799
0.143700	-0.583486
0.143800	-0.544212
0.143900	-0.534150
0.144000	-0.562064
0.144100	-0.571152
0.144200	-0.560441
0.144300	-0.535448
0.144400	-0.521167
0.144500	-0.532852
0.144600	-0.535773
0.144700	-0.548432
0.144800	-0.578293
0.144900	-0.614646
0.145000	-0.662360
0.145100	-0.690274
0.145200	-0.713319
0.145300	-0.712345
0.145400	-0.728250
0.145500	-0.809071
0.145600	-0.926245
0.145700	-0.963896
0.145800	-0.938904
0.145900	-0.850293
0.146000	-0.842827
0.146100	-0.905472
0.146200	-1.021672
0.146300	-1.084641
0.146400	-1.073930
0.146500	-0.993758
0.146600	-0.956431
0.146700	-0.986942
0.146800	-1.070684
0.146900	-1.115476
0.147000	-1.128784
0.147100	-1.120020
0.147200	-1.128135
0.147300	-1.153777
0.147400	-1.188832
0.147500	-1.209930
0.147600	-1.225510
0.147700	-1.239142
0.147800	-1.256670
0.147900	-1.256345
0.148000	-1.251476
0.148100	-1.239142
0.148200	-1.233300
0.148300	-1.272899
0.148400	-1.329051
0.148500	-1.355667
0.148600	-1.357290
0.148700	-1.346903
0.148800	-1.351772
0.148900	-1.354369
0.149000	-1.351448
0.149100	-1.352421
0.149200	-1.348851
0.149300	-1.347228
0.149400	-1.347877
0.149500	-1.350798
0.149600	-1.351123
0.149700	-1.361185
0.149800	-1.361834
0.149900	-1.375142
0.150000	-1.376765
0.150100	-1.384880
0.150200	-1.397538
0.150300	-1.408899
0.150400	-1.429672
0.150500	-1.447849
0.150600	-1.512116
0.150700	-1.652011
0.150800	-1.791906
0.150900	-1.826637
0.151000	-1.758799
0.151100	-1.672784
0.151200	-1.688689
0.151300	-1.822417
0.151400	-1.981463
0.151500	-2.057740
0.151600	-2.029501
0.151700	-1.961988
0.151800	-1.944460
0.151900	-2.009377
0.152000	-2.115515
0.152100	-2.193091
0.152200	-2.209644
0.152300	-2.200556
0.152400	-2.205425
0.152500	-2.229444
0.152600	-2.263201
0.152700	-2.292089
0.152800	-2.318055
0.152900	-2.330714
0.153000	-2.358953
0.153100	-2.384595
0.153200	-2.407316
0.153300	-2.406017
0.153400	-2.411535
0.153500	-2.431984
0.153600	-2.456003
0.153700	-2.466714
0.153800	-2.411211
0.153900	-2.333635
0.154000	-2.316432
0.154100	-2.374208
0.154200	-2.470934
0.154300	-2.525789
0.154400	-2.484567
0.154500	-2.396280
0.154600	-2.348241
0.154700	-2.383296
0.154800	-2.477426
0.154900	-2.559221
0.155000	-2.568634
0.155100	-2.524166
0.155200	-2.475803
0.155300	-2.463793
0.155400	-2.479373
0.155500	-2.495927
0.155600	-2.495602
0.155700	-2.492032
0.155800	-2.477101
0.155900	-2.447889
0.156000	-2.405368
0.156100	-2.346943
0.156200	-2.281702
0.156300	-2.233014
0.156400	-2.205749
0.156500	-2.174589
0.156600	-2.112594
0.156700	-2.011324
0.156800	-1.903563
0.156900	-1.801968
0.157000	-1.726990
0.157100	-1.664345
0.157200	-1.598779
0.157300	-1.528020
0.157400	-1.451744
0.157500	-1.357615
0.157600	-1.288479
0.157700	-1.223887
0.157800	-1.180393
0.157900	-1.157347
0.158000	-1.127810
0.158100	-1.120345
0.158200	-1.087238
0.158300	-1.069710
0.158400	-1.035305
0.158500	-1.025567
0.158600	-1.014856
0.158700	-1.017128
0.158800	-1.016803
0.158900	-0.991811
0.159000	-0.901577
0.159100	-0.748049
0.159200	-0.673396
0.159300	-0.760708
0.159400	-0.876584
0.159500	-0.923324
0.159600	-0.817835
0.159700	-0.705205
0.159800	-0.620489
0.159900	-0.657167
0.160000	-0.732470
0.160100	-0.786026
0.160200	-0.759410
0.160300	-0.674045
0.160400	-0.601663
0.160500	-0.578618
0.160600	-0.583162
0.160700	-0.593873
0.160800	-0.598742
0.160900	-0.592899
0.161000	-0.574074
0.161100	-0.556546
0.161200	-0.552327
0.161300	-0.557844
0.161400	-0.560117
0.161500	-0.601014
0.161600	-0.624384
0.161700	-0.663334
0.161800	-0.694169
0.161900	-0.683782
0.162000	-0.690274
0.162100	-0.696766
0.162200	-0.813290
0.162300	-0.886321
0.162400	-0.906121
0.162500	-0.843801
0.162600	-0.781806
0.162700	-0.784727
0.162800	-0.886321
0.162900	-0.991811
0.163000	-1.044393
0.163100	-1.003820
0.163200	-0.944422
0.163300	-0.939228
0.163400	-1.003496
0.163500	-1.074254
0.163600	-1.099572
0.163700	-1.119371
0.163800	-1.118398
0.163900	-1.151830
0.164000	-1.183639
0.164100	-1.214799
0.164200	-1.229080
0.164300	-1.243686
0.164400	-1.263161
0.164500	-1.288803
0.164600	-1.302111
0.164700	-1.292698
0.164800	-1.270302
0.164900	-1.271600
0.165000	-1.326455
0.165100	-1.373195
0.165200	-1.395915
0.165300	-1.403381
0.165400	-1.385529
0.165500	-1.398512
0.165600	-1.414741
0.165700	-1.419610
0.165800	-1.424803
0.165900	-1.431944
0.166000	-1.438111
0.166100	-1.447849
0.166200	-1.456612
0.166300	-1.471219
0.166400	-1.481281
0.166500	-1.493290
0.166600	-1.505949
0.166700	-1.512765
0.166800	-1.518283
0.166900	-1.530942
0.167000	-1.541978
0.167100	-1.565023
0.167200	-1.593262
0.167300	-1.670837
0.167400	-1.817873
0.167500	-1.929854
0.167600	-1.923038
0.167700	-1.829558
0.167800	-1.760097
0.167900	-1.805863
0.168000	-1.946083
0.168100	-2.069749
0.168200	-2.105778
0.168300	-2.046379
0.168400	-1.975620
0.168500	-1.984708
0.168600	-2.053520
0.168700	-2.155114
0.168800	-2.205100
0.168900	-2.211267
0.169000	-2.197635
0.169100	-2.194064
0.169200	-2.218733
0.169300	-2.252165
0.169400	-2.281053
0.169500	-2.297282
0.169600	-2.313186
0.169700	-2.343697
0.169800	-2.356031
0.169900	-2.366418
0.170000	-2.359926
0.170100	-2.371611
0.170200	-2.393683
0.170300	-2.420948
0.170400	-2.428738
0.170500	-2.373234
0.170600	-2.314485
0.170700	-2.322275
0.170800	-2.402122
0.170900	-2.505989
0.171000	-2.536175
0.171100	-2.482619
0.171200	-2.399850
0.171300	-2.369664
0.171400	-2.434256
0.171500	-2.538123
0.171600	-2.610505
0.171700	-2.608233
0.171800	-2.566362
0.171900	-2.528061
0.172000	-2.511832
0.172100	-2.519622
0.172200	-2.533903
0.172300	-2.546887
0.172400	-2.537798
0.172500	-2.516051
0.172600	-2.479373
0.172700	-2.430361
0.172800	-2.368041
0.172900	-2.297931
0.173000	-2.247621
0.173100	-2.215811
0.173200	-2.183353
0.173300	-2.111620
0.173400	-2.010675
0.173500	-1.898694
0.173600	-1.806837
0.173700	-1.743543
0.173800	-1.681873
0.173900	-1.616307
0.174000	-1.544250
0.174100	-1.465376
0.174200	-1.378388
0.174300	-1.310550
0.174400	-1.258293
0.174500	-1.227457
0.174600	-1.204736
0.174700	-1.184612
0.174800	-1.180393
0.174900	-1.148584
0.175000	-1.131381
0.175100	-1.103467
0.175200	-1.098923
0.175300	-1.091457
0.175400	-1.102168
0.175500	-1.099247
0.175600	-1.063868
0.175700	-0.935658
0.175800	-0.814913
0.175900	-0.778560
0.176000	-0.904173
0.176100	-0.993758
0.176200	-1.007390
0.176300	-0.884374
0.176400	-0.784078
0.176500	-0.730197
0.176600	-0.786999
0.176700	-0.868469
0.176800	-0.894761
0.176900	-0.842503
0.177000	-0.774016
0.177100	-0.712670
0.177200	-0.702283
0.177300	-0.704231
0.177400	-0.719162
0.177500	-0.725653
0.177600	-0.723057
0.177700	-0.710398
0.177800	-0.712021
0.177900	-0.707801
0.178000	-0.705854
0.178100	-0.732794
0.178200	-0.774990
0.178300	-0.829195
0.178400	-0.862951
0.178500	-0.891190
0.178600	-0.883400
0.178700	-0.886971
0.178800	-0.925920
0.178900	-1.044717
0.179000	-1.105414
0.179100	-1.113529
0.179200	-1.050884
0.179300	-1.014531
0.179400	-1.056402
0.179500	-1.155075
0.179600	-1.235572
0.179700	-1.243037
0.179800	-1.188832
0.179900	-1.128784
0.180000	-1.141443
0.180100	-1.201166
0.180200	-1.252450
0.180300	-1.266732
0.180400	-1.268355
0.180500	-1.269653
0.180600	-1.297567
0.180700	-1.327429
0.180800	-1.346579
0.180900	-1.351123
0.181000	-1.357290
0.181100	-1.379037
0.181200	-1.396889
0.181300	-1.401433
0.181400	-1.385853
0.181500	-1.368651
0.181600	-1.386178
0.181700	-1.445252
0.181800	-1.492316
0.181900	-1.500106
0.182000	-1.489395
0.182100	-1.471543
0.182200	-1.484202
0.182300	-1.486149
0.182400	-1.478359
0.182500	-1.475114
0.182600	-1.473166
0.182700	-1.464078
0.182800	-1.464727
0.182900	-1.464727
0.183000	-1.469596
0.183100	-1.473491
0.183200	-1.479982
0.183300	-1.484526
0.183400	-1.489395
0.183500	-1.498808
0.183600	-1.498808
0.183700	-1.518608
0.183800	-1.538407
0.183900	-1.572813
0.184000	-1.674083
0.184100	-1.818522
0.184200	-1.898045
0.184300	-1.863314
0.184400	-1.771133
0.184500	-1.747438
0.184600	-1.837997
0.184700	-1.992498
0.184800	-2.094742
0.184900	-2.092145
0.185000	-2.023334
0.185100	-1.992174
0.185200	-2.030799
0.185300	-2.129472
0.185400	-2.221654
0.185500	-2.258007
0.185600	-2.260929
0.185700	-2.265148
0.185800	-2.285597
0.185900	-2.311564
0.186000	-2.335907
0.186100	-2.349864
0.186200	-2.361874
0.186300	-2.392060
0.186400	-2.441397
0.186500	-2.469636
0.186600	-2.477101
0.186700	-2.465416
0.186800	-2.482619
0.186900	-2.511182
0.187000	-2.544614
0.187100	-2.525464
0.187200	-2.451134
0.187300	-2.406666
0.187400	-2.435554
0.187500	-2.521569
0.187600	-2.605636
0.187700	-2.597846
0.187800	-2.513779
0.187900	-2.427440
0.188000	-2.419325
0.188100	-2.484242
0.188200	-2.581942
0.188300	-2.616997
0.188400	-2.573502
0.188500	-2.516700
0.188600	-2.493006
0.188700	-2.490734
0.188800	-2.500147
0.188900	-2.496576
0.189000	-2.474829
0.189100	-2.447564
0.189200	-2.419325
0.189300	-2.382323
0.189400	-2.330714
0.189500	-2.247621
0.189600	-2.171993
0.189700	-2.123630
0.189800	-2.087601
0.189900	-2.039887
0.190000	-1.952899
0.190100	-1.850656
0.190200	-1.733481
0.190300	-1.658827
0.190400	-1.612087
0.190500	-1.562751
0.190600	-1.503028
0.190700	-1.439734
0.190800	-1.360536
0.190900	-1.280040
0.191000	-1.224211
0.191100	-1.186884
0.191200	-1.161242
0.191300	-1.140469
0.191400	-1.130083
0.191500	-1.109634
0.191600	-1.099572
0.191700	-1.075553
0.191800	-1.075553
0.191900	-1.061596
0.192000	-1.072631
0.192100	-1.078149
0.192200	-1.069061
0.192300	-1.006417
0.192400	-0.875935
0.192500	-0.767524
0.192600	-0.797710
0.192700	-0.937281
0.192800	-1.014856
0.192900	-0.981099
0.193000	-0.843152
0.193100	-0.750646
0.193200	-0.734417
0.193300	-0.815238
0.193400	-0.895410
0.193500	-0.897357
0.193600	-0.835362
0.193700	-0.750646
0.193800	-0.708450
0.193900	-0.713319
0.194000	-0.722732
0.194100	-0.740909
0.194200	-0.734417
0.194300	-0.726302
0.194400	-0.722407
0.194500	-0.730847
0.194600	-0.739935
0.194700	-0.741233
0.194800	-0.759734
0.194900	-0.788298
0.195000	-0.832765
0.195100	-0.885023
0.195200	-0.897682
0.195300	-0.896383
0.195400	-0.896383
0.195500	-0.963896
0.195600	-1.063219
0.195700	-1.102818
0.195800	-1.077176
0.195900	-0.998302
0.196000	-0.963247
0.196100	-1.028164
0.196200	-1.139820
0.196300	-1.211228
0.196400	-1.194350
0.196500	-1.118073
0.196600	-1.076526
0.196700	-1.108985
0.196800	-1.186235
0.196900	-1.226159
0.197000	-1.239791
0.197100	-1.223238
0.197200	-1.235247
0.197300	-1.273223
0.197400	-1.313472
0.197500	-1.342684
0.197600	-1.355992
0.197700	-1.365080
0.197800	-1.386178
0.197900	-1.401433
0.198000	-1.395591
0.198100	-1.388125
0.198200	-1.382283
0.198300	-1.417338
0.198400	-1.481281
0.198500	-1.508221
0.198600	-1.509519
0.198700	-1.479658
0.198800	-1.481281
0.198900	-1.488421
0.199000	-1.491018
0.199100	-1.486149
0.199200	-1.482904
0.199300	-1.478035
0.199400	-1.472517
0.199500	-1.466674
0.199600	-1.469271
0.199700	-1.467324
0.199800	-1.469920
0.199900	-1.479658
0.200000	-1.487772
0.200100	-1.503352
0.200200	-1.515037
0.200300	-1.536460
0.200400	-1.558856
0.200500	-1.597481
0.200600	-1.642923
0.200700	-1.778274
0.200800	-1.924336
0.200900	-1.969778
0.201000	-1.910379
0.201100	-1.822417
0.201200	-1.828584
0.201300	-1.953224
0.201400	-2.117787
0.201500	-2.208671
0.201600	-2.178160
0.201700	-2.101883
0.201800	-2.071372
0.201900	-2.126876
0.202000	-2.234962
0.202100	-2.328766
0.202200	-2.357654
0.202300	-2.356031
0.202400	-2.351487
0.202500	-2.361549
0.202600	-2.394008
0.202700	-2.423545
0.202800	-2.440748
0.202900	-2.449511
0.203000	-2.457951
0.203100	-2.490409
0.203200	-2.517674
0.203300	-2.532280
0.203400	-2.524490
0.203500	-2.540719
0.203600	-2.557273
0.203700	-2.567660
0.203800	-2.528385
0.203900	-2.461521
0.204000	-2.435230
0.204100	-2.481970
0.204200	-2.581292
0.204300	-2.650753
0.204400	-2.620892
0.204500	-2.528710
0.204600	-2.458275
0.204700	-2.474829
0.204800	-2.565712
0.204900	-2.650429
0.205000	-2.673474
0.205100	-2.626410
0.205200	-2.577397
0.205300	-2.554677
0.205400	-2.568309
0.205500	-2.589082
0.205600	-2.588433
0.205700	-2.576748
0.205800	-2.548509
0.205900	-2.516700
0.206000	-2.481645
0.206100	-2.433931
0.206200	-2.366094
0.206300	-2.299879
0.206400	-2.253463
0.206500	-2.225224
0.206600	-2.179458
0.206700	-2.087277
0.206800	-1.991849
0.206900	-1.881166
0.207000	-1.812030
0.207100	-1.758474
0.207200	-1.700698
0.207300	-1.632861
0.207400	-1.568269
0.207500	-1.471543
0.207600	-1.404679
0.207700	-1.345605
0.207800	-1.312822
0.207900	-1.290102
0.208000	-1.263810
0.208100	-1.251152
0.208200	-1.222913
0.208300	-1.207009
0.208400	-1.169357
0.208500	-1.161892
0.208600	-1.152803
0.208700	-1.153452
0.208800	-1.163515
0.208900	-1.131381
0.209000	-1.053481
0.209100	-0.895410
0.209200	-0.826598
0.209300	-0.884374
0.209400	-1.025243
0.209500	-1.077825
0.209600	-0.999601
0.209700	-0.877558
0.209800	-0.785052
0.209900	-0.799333
0.210000	-0.880803
0.210100	-0.946694
0.210200	-0.933710
0.210300	-0.856784
0.210400	-0.799658
0.210500	-0.759410
0.210600	-0.783104
0.210700	-0.791543
0.210800	-0.810694
0.210900	-0.806799
0.211000	-0.798035
0.211100	-0.796088
0.211200	-0.799009
0.211300	-0.802579
0.211400	-0.812966
0.211500	-0.851916
0.211600	-0.886321
0.211700	-0.935333
0.211800	-0.962923
0.211900	-0.987266
0.212000	-0.987266
0.212100	-1.010961
0.212200	-1.106388
0.212300	-1.207333
0.212400	-1.233949
0.212500	-1.205386
0.212600	-1.129109
0.212700	-1.129433
0.212800	-1.211228
0.212900	-1.323858
0.213000	-1.380335
0.213100	-1.348202
0.213200	-1.279390
0.213300	-1.256345
0.213400	-1.309901
0.213500	-1.387152
0.213600	-1.427400
0.213700	-1.441357
0.213800	-1.439085
0.213900	-1.457911
0.214000	-1.487448
0.214100	-1.533214
0.214200	-1.567620
0.214300	-1.595858
0.214400	-1.623448
0.214500	-1.654932
0.214600	-1.675381
0.214700	-1.676355
0.214800	-1.668565
0.214900	-1.678302
0.215000	-1.726016
0.215100	-1.788660
0.215200	-1.811057
0.215300	-1.807486
0.215400	-1.779897
0.215500	-1.783792
0.215600	-1.791257
0.215700	-1.784441
0.215800	-1.774703
0.215900	-1.763343
0.216000	-1.751009
0.216100	-1.747438
0.216200	-1.730560
0.216300	-1.724718
0.216400	-1.710760
0.216500	-1.705892
0.216600	-1.701672
0.216700	-1.696479
0.216800	-1.697128
0.216900	-1.703620
0.217000	-1.706216
0.217100	-1.722121
0.217200	-1.744192
0.217300	-1.812679
0.217400	-1.965233
0.217500	-2.097663
0.217600	-2.105129
0.217700	-2.016842
0.217800	-1.949004
0.217900	-1.993472
0.218000	-2.140184
0.218100	-2.294685
0.218200	-2.351487
0.218300	-2.304423
0.218400	-2.233339
0.218500	-2.242427
0.218600	-2.319029
0.218700	-2.426141
0.218800	-2.486839
0.218900	-2.500796
0.219000	-2.491383
0.219100	-2.500147
0.219200	-2.527412
0.219300	-2.550132
0.219400	-2.570906
0.219500	-2.579345
0.219600	-2.582591
0.219700	-2.608882
0.219800	-2.634524
0.219900	-2.651402
0.220000	-2.652052
0.220100	-2.659192
0.220200	-2.684835
0.220300	-2.709828
0.220400	-2.724434
0.220500	-2.659517
0.220600	-2.587784
0.220700	-2.597846
0.220800	-2.675097
0.220900	-2.776692
0.221000	-2.827651
0.221100	-2.771823
0.221200	-2.678343
0.221300	-2.631927
0.221400	-2.678018
0.221500	-2.793570
0.221600	-2.879260
0.221700	-2.879910
0.221800	-2.825055
0.221900	-2.778315
0.222000	-2.771498
0.222100	-2.798439
0.222200	-2.822783
0.222300	-2.820835
0.222400	-2.809150
0.222500	-2.781885
0.222600	-2.747479
0.222700	-2.715345
0.222800	-2.657245
0.222900	-2.597846
0.223000	-2.560844
0.223100	-2.524166
0.223200	-2.496901
0.223300	-2.431010
0.223400	-2.322275
0.223500	-2.213864
0.223600	-2.113892
0.223700	-2.054818
0.223800	-2.004183
0.223900	-1.942837
0.224000	-1.883763
0.224100	-1.813978
0.224200	-1.734130
0.224300	-1.663371
0.224400	-1.616307
0.224500	-1.581901
0.224600	-1.560803
0.224700	-1.538083
0.224800	-1.514713
0.224900	-1.494913
0.225000	-1.469271
0.225100	-1.451094
0.225200	-1.436488
0.225300	-1.427075
0.225400	-1.445577
0.225500	-1.431619
0.225600	-1.415066
0.225700	-1.278092
0.225800	-1.152479
0.225900	-1.079123
0.226000	-1.191429
0.226100	-1.313796
0.226200	-1.334894
0.226300	-1.241739
0.226400	-1.107037
0.226500	-1.056727
0.226600	-1.099896
0.226700	-1.194350
0.226800	-1.230703
0.226900	-1.200841
0.227000	-1.118398
0.227100	-1.052832
0.227200	-1.047314
0.227300	-1.057701
0.227400	-1.086589
0.227500	-1.098273
0.227600	-1.090808
0.227700	-1.075877
0.227800	-1.065166
0.227900	-1.070359
0.228000	-1.072956
0.228100	-1.106063
0.228200	-1.135925
0.228300	-1.177796
0.228400	-1.207982
0.228500	-1.234923
0.228600	-1.232975
0.228700	-1.239467
0.228800	-1.263810
0.228900	-1.386178
0.229000	-1.455314
0.229100	-1.463429
0.229200	-1.400460
0.229300	-1.332622
0.229400	-1.353395
0.229500	-1.453367
0.229600	-1.554312
0.229700	-1.583200
0.229800	-1.527371
0.229900	-1.451744
0.230000	-1.442331
0.230100	-1.510168
0.230200	-1.579629
0.230300	-1.607219
0.230400	-1.610789
0.230500	-1.601376
0.230600	-1.620202
0.230700	-1.651686
0.230800	-1.681548
0.230900	-1.691286
0.231000	-1.705567
0.231100	-1.732832
0.231200	-1.758150
0.231300	-1.775028
0.231400	-1.770808
0.231500	-1.771457
0.231600	-1.786388
0.231700	-1.845138
0.231800	-1.900966
0.231900	-1.909405
0.232000	-1.907133
0.232100	-1.892202
0.232200	-1.898369
0.232300	-1.883439
0.232400	-1.881816
0.232500	-1.878894
0.232600	-1.880842
0.232700	-1.876298
0.232800	-1.872078
0.232900	-1.880193
0.233000	-1.877921
0.233100	-1.885061
0.233200	-1.896097
0.233300	-1.913625
0.233400	-1.925310
0.233500	-1.940890
0.233600	-1.959715
0.233700	-1.983085
0.233800	-2.014570
0.233900	-2.044107
0.234000	-2.142131
0.234100	-2.299879
0.234200	-2.397254
0.234300	-2.379401
0.234400	-2.277807
0.234500	-2.239831
0.234600	-2.313836
0.234700	-2.484567
0.234800	-2.601741
0.234900	-2.630305
0.235000	-2.579994
0.235100	-2.522218
0.235200	-2.539097
0.235300	-2.627708
0.235400	-2.736119
0.235500	-2.795193
0.235600	-2.811422
0.235700	-2.805904
0.235800	-2.816616
0.235900	-2.846477
0.236000	-2.881208
0.236100	-2.909771
0.236200	-2.923404
0.236300	-2.946774
0.236400	-2.974039
0.236500	-3.006822
0.236600	-3.016559
0.236700	-3.015261
0.236800	-3.028244
0.236900	-3.062326
0.237000	-3.094460
0.237100	-3.081801
0.237200	-3.006173
0.237300	-2.952616
0.237400	-2.974039
0.237500	-3.061027
0.237600	-3.163596
0.237700	-3.175281
0.237800	-3.101276
0.237900	-3.011042
0.238000	-2.984750
0.238100	-3.047720
0.238200	-3.158078
0.238300	-3.222021
0.238400	-3.201573
0.238500	-3.146718
0.238600	-3.110040
0.238700	-3.110364
0.238800	-3.126269
0.238900	-3.137629
0.239000	-3.128541
0.239100	-3.110689
0.239200	-3.078230
0.239300	-3.034412
0.239400	-2.973065
0.239500	-2.894191
0.239600	-2.822783
0.239700	-2.774420
0.239800	-2.744233
0.239900	-2.703336
0.240000	-2.629331
0.240100	-2.539746
0.240200	-2.441072
0.240300	-2.358953
0.240400	-2.311564
0.240500	-2.258007
0.240600	-2.205100
0.240700	-2.135964
0.240800	-2.058389
0.240900	-1.986007
0.241000	-1.926933
0.241100	-1.883114
0.241200	-1.851954
0.241300	-1.822742
0.241400	-1.808784
0.241500	-1.788011
0.241600	-1.758474
0.241700	-1.727639
0.241800	-1.692584
0.241900	-1.676030
0.242000	-1.668240
0.242100	-1.685118
0.242200	-1.662398
0.242300	-1.619877
0.242400	-1.469920
0.242500	-1.364756
0.242600	-1.354044
0.242700	-1.496211
0.242800	-1.593262
0.242900	-1.573787
0.243000	-1.462779
0.243100	-1.343982
0.243200	-1.318016
0.243300	-1.379686
0.243400	-1.470569
0.243500	-1.497834
0.243600	-1.443629
0.243700	-1.366703
0.243800	-1.317367
0.243900	-1.324507
0.244000	-1.338789
0.244100	-1.360536
0.244200	-1.354044
0.244300	-1.345281
0.244400	-1.345930
0.244500	-1.351448
0.244600	-1.354369
0.244700	-1.355018
0.244800	-1.383906
0.244900	-1.418636
0.245000	-1.481930
0.245100	-1.517634
0.245200	-1.539056
0.245300	-1.532240
0.245400	-1.544899
0.245500	-1.607219
0.245600	-1.736078
0.245700	-1.788011
0.245800	-1.779572
0.245900	-1.703620
0.246000	-1.674732
0.246100	-1.728613
0.246200	-1.851629
0.246300	-1.941539
0.246400	-1.950952
0.246500	-1.891228
0.246600	-1.850006
0.246700	-1.892527
0.246800	-1.973023
0.246900	-2.028852
0.247000	-2.053195
0.247100	-2.057415
0.247200	-2.065854
0.247300	-2.098962
0.247400	-2.137587
0.247500	-2.152842
0.247600	-2.159659
0.247700	-2.168747
0.247800	-2.193415
0.247900	-2.221005
0.248000	-2.223926
0.248100	-2.212566
0.248200	-2.200556
0.248300	-2.224251
0.248400	-2.291439
0.248500	-2.332012
0.248600	-2.333635
0.248700	-2.336556
0.248800	-2.325196
0.248900	-2.337206
0.249000	-2.337530
0.249100	-2.335583
0.249200	-2.330714
0.249300	-2.322599
0.249400	-2.313836
0.249500	-2.310590
0.249600	-2.316432
0.249700	-2.312862
0.249800	-2.314809
0.249900	-2.319354
0.250000	-2.332986
0.250100	-2.338504
0.250200	-2.347592
0.250300	-2.366094
0.250400	-2.384919
0.250500	-2.422571
0.250600	-2.468662
0.250700	-2.592004
0.250800	-2.743260
0.250900	-2.817589
0.251000	-2.777341
0.251100	-2.693923
0.251200	-2.680615
0.251300	-2.799088
0.251400	-2.969495
0.251500	-3.067195
0.251600	-3.052264
0.251700	-2.987996
0.251800	-2.958459
0.251900	-3.015586
0.252000	-3.131787
0.252100	-3.227864
0.252200	-3.262594
0.252300	-3.264217
0.252400	-3.269411
0.252500	-3.294079
0.252600	-3.332380
0.252700	-3.357698
0.252800	-3.382691
0.252900	-3.393402
0.253000	-3.422290
0.253100	-3.470978
0.253200	-3.503761
0.253300	-3.522587
0.253400	-3.526157
0.253500	-3.549527
0.253600	-3.593671
0.253700	-3.634244
0.253800	-3.630349
0.253900	-3.569327
0.254000	-3.554721
0.254100	-3.610549
0.254200	-3.728698
0.254300	-3.819258
0.254400	-3.814714
0.254500	-3.739085
0.254600	-3.671571
0.254700	-3.686502
0.254800	-3.788747
0.254900	-3.905273
0.255000	-3.949417
0.255100	-3.910791
0.255200	-3.857559
0.255300	-3.823477
0.255400	-3.840356
0.255500	-3.860805
0.255600	-3.866323
0.255700	-3.854638
0.255800	-3.833540
0.255900	-3.807248
0.256000	-3.773167
0.256100	-3.719610
0.256200	-3.650473
0.256300	-3.590750
0.256400	-3.545632
0.256500	-3.507981
0.256600	-3.465135
0.256700	-3.374901
0.256800	-3.288237
0.256900	-3.171711
0.257000	-3.094460
0.257100	-3.039930
0.257200	-2.991566
0.257300	-2.926650
0.257400	-2.861084
0.257500	-2.772148
0.257600	-2.687107
0.257700	-2.630954
0.257800	-2.583240
0.257900	-2.556624
0.258000	-2.509884
0.258100	-2.490409
0.258200	-2.449836
0.258300	-2.413158
0.258400	-2.374208
0.258500	-2.335258
0.258600	-2.303774
0.258700	-2.283974
0.258800	-2.269043
0.258900	-2.239506
0.259000	-2.140833
0.259100	-2.003210
0.259200	-1.873376
0.259300	-1.939591
0.259400	-2.042160
0.259500	-2.110322
0.259600	-2.039887
0.259700	-1.910379
0.259800	-1.822742
0.259900	-1.822417
0.260000	-1.918493
0.260100	-1.998016
0.260200	-2.007754
0.260300	-1.954847
0.260400	-1.886684
0.260500	-1.865262
0.260600	-1.880842
0.260700	-1.919792
0.260800	-1.946732
0.260900	-1.963286
0.261000	-1.964584
0.261100	-1.973673
0.261200	-1.987954
0.261300	-2.007429
0.261400	-2.047353
0.261500	-2.074618
0.261600	-2.111945
0.261700	-2.163878
0.261800	-2.208995
0.261900	-2.227496
0.262000	-2.231716
0.262100	-2.250866
0.262200	-2.328766
0.262300	-2.439774
0.262400	-2.483268
0.262500	-2.450161
0.262600	-2.385244
0.262700	-2.371611
0.262800	-2.446915
0.262900	-2.559221
0.263000	-2.618944
0.263100	-2.599794
0.263200	-2.533579
0.263300	-2.499822
0.263400	-2.539421
0.263500	-2.608557
0.263600	-2.649130
0.263700	-2.678992
0.263800	-2.670553
0.263900	-2.678018
0.264000	-2.705933
0.264100	-2.736768
0.264200	-2.752997
0.264300	-2.768253
0.264400	-2.786105
0.264500	-2.804281
0.264600	-2.822134
0.264700	-2.822783
0.264800	-2.818888
0.264900	-2.830573
0.265000	-2.883805
0.265100	-2.943853
0.265200	-2.977609
0.265300	-2.986373
0.265400	-2.980206
0.265500	-2.988970
0.265600	-2.998707
0.265700	-3.003901
0.265800	-2.998383
0.265900	-3.003251
0.266000	-2.991891
0.266100	-2.995786
0.266200	-2.997734
0.266300	-2.990917
0.266400	-2.995137
0.266500	-2.997084
0.266600	-3.005524
0.266700	-3.004874
0.266800	-3.015910
0.266900	-3.023376
0.267000	-3.034736
0.267100	-3.059729
0.267200	-3.080827
0.267300	-3.154183
0.267400	-3.293755
0.267500	-3.433326
0.267600	-3.454099
0.267700	-3.381068
0.267800	-3.310308
0.267900	-3.341793
0.268000	-3.485584
0.268100	-3.643008
0.268200	-3.711820
0.268300	-3.680660
0.268400	-3.620612
0.268500	-3.613146
0.268600	-3.684879
0.268700	-3.798484
0.268800	-3.873788
0.268900	-3.909817
0.269000	-3.912738
0.269100	-3.921502
0.269200	-3.926696
0.269300	-3.957856
0.269400	-3.980901
0.269500	-3.999727
0.269600	-4.020501
0.269700	-4.049714
0.269800	-4.076330
0.269900	-4.096779
0.270000	-4.103270
0.270100	-4.104569
0.270200	-4.121772
0.270300	-4.149037
0.270400	-4.163968
0.270500	-4.117877
0.270600	-4.051012
0.270700	-4.049064
0.270800	-4.118526
0.270900	-4.224341
0.271000	-4.281144
0.271100	-4.252580
0.271200	-4.175004
0.271300	-4.125342
0.271400	-4.164617
0.271500	-4.266537
0.271600	-4.363588
0.271700	-4.386959
0.271800	-4.360667
0.271900	-4.329507
0.272000	-4.320418
0.272100	-4.340543
0.272200	-4.356448
0.272300	-4.363588
0.272400	-4.368133
0.272500	-4.355474
0.272600	-4.335025
0.272700	-4.297697
0.272800	-4.233105
0.272900	-4.174679
0.273000	-4.124693
0.273100	-4.093857
0.273200	-4.063671
0.273300	-4.009465
0.273400	-3.919230
0.273500	-3.832241
0.273600	-3.732593
0.273700	-3.680660
0.273800	-3.625156
0.273900	-3.570950
0.274000	-3.507331
0.274100	-3.435598
0.274200	-3.354452
0.274300	-3.286938
0.274400	-3.235005
0.274500	-3.196379
0.274600	-3.156131
0.274700	-3.131138
0.274800	-3.109391
0.274900	-3.083099
0.275000	-3.058431
0.275100	-3.037657
0.275200	-3.019805
0.275300	-3.017858
0.275400	-3.016235
0.275500	-3.020454
0.275600	-2.990593
0.275700	-2.893217
0.275800	-2.732224
0.275900	-2.684185
0.276000	-2.780587
0.276100	-2.902630
0.276200	-2.939958
0.276300	-2.839012
0.276400	-2.718267
0.276500	-2.650753
0.276600	-2.702687
0.276700	-2.778315
0.276800	-2.824406
0.276900	-2.786754
0.277000	-2.711126
0.277100	-2.660815
0.277200	-2.644911
0.277300	-2.657570
0.277400	-2.669904
0.277500	-2.671851
0.277600	-2.670878
0.277700	-2.666658
0.277800	-2.670228
0.277900	-2.680290
0.278000	-2.681913
0.278100	-2.694572
0.278200	-2.739040
0.278300	-2.776043
0.278400	-2.836091
0.278500	-2.866926
0.278600	-2.875365
0.278700	-2.883155
0.278800	-2.924378
0.278900	-3.037333
0.279000	-3.117505
0.279100	-3.134708
0.279200	-3.076932
0.279300	-3.020779
0.279400	-3.042851
0.279500	-3.141200
0.279600	-3.246365
0.279700	-3.282394
0.279800	-3.225916
0.279900	-3.159052
0.280000	-3.161649
0.280100	-3.237926
0.280200	-3.305440
0.280300	-3.333678
0.280400	-3.337573
0.280500	-3.332380
0.280600	-3.358022
0.280700	-3.396648
0.280800	-3.434949
0.280900	-3.459293
0.281000	-3.464811
0.281100	-3.488830
0.281200	-3.515121
0.281300	-3.530701
0.281400	-3.524859
0.281500	-3.506682
0.281600	-3.510577
0.281700	-3.568029
0.281800	-3.617690
0.281900	-3.636192
0.282000	-3.640736
0.282100	-3.621261
0.282200	-3.631323
0.282300	-3.635542
0.282400	-3.637165
0.282500	-3.635867
0.282600	-3.625805
0.282700	-3.625805
0.282800	-3.625156
0.282900	-3.623208
0.283000	-3.620936
0.283100	-3.623857
0.283200	-3.618015
0.283300	-3.621910
0.283400	-3.619638
0.283500	-3.618989
0.283600	-3.615094
0.283700	-3.625156
0.283800	-3.647228
0.283900	-3.661185
0.284000	-3.742656
0.284100	-3.882877
0.284200	-3.988691
0.284300	-3.970190
0.284400	-3.875411
0.284500	-3.814389
0.284600	-3.880280
0.284700	-4.046143
0.284800	-4.181171
0.284900	-4.215577
0.285000	-4.168188
0.285100	-4.114631
0.285200	-4.146765
0.285300	-4.254203
0.285400	-4.389880
0.285500	-4.454797
0.285600	-4.470702
0.285700	-4.470053
0.285800	-4.507705
0.285900	-4.568078
0.286000	-4.616766
0.286100	-4.658313
0.286200	-4.671297
0.286300	-4.688500
0.286400	-4.718687
0.286500	-4.766076
0.286600	-4.791070
0.286700	-4.798535
0.286800	-4.806001
0.286900	-4.833590
0.287000	-4.867348
0.287100	-4.869944
0.287200	-4.803079
0.287300	-4.740109
0.287400	-4.751794
0.287500	-4.837161
0.287600	-4.941678
0.287700	-4.964724
0.287800	-4.891692
0.287900	-4.799184
0.288000	-4.767050
0.288100	-4.831643
0.288200	-4.942327
0.288300	-5.009517
0.288400	-4.987770
0.288500	-4.928370
0.288600	-4.885200
0.288700	-4.885849
0.288800	-4.914737
0.288900	-4.929344
0.289000	-4.926098
0.289100	-4.912465
0.289200	-4.889420
0.289300	-4.854364
0.289400	-4.814764
0.289500	-4.755040
0.289600	-4.697913
0.289700	-4.651172
0.289800	-4.616766
0.289900	-4.582035
0.290000	-4.507380
0.290100	-4.422339
0.290200	-4.314576
0.290300	-4.228885
0.290400	-4.172407
0.290500	-4.112683
0.290600	-4.052310
0.290700	-3.983823
0.290800	-3.909493
0.290900	-3.829969
0.291000	-3.762131
0.291100	-3.716689
0.291200	-3.682932
0.291300	-3.651772
0.291400	-3.628726
0.291500	-3.600487
0.291600	-3.580363
0.291700	-3.546282
0.291800	-3.532649
0.291900	-3.509603
0.292000	-3.524534
0.292100	-3.517393
0.292200	-3.521613
0.292300	-3.471302
0.292400	-3.340819
0.292500	-3.219749
0.292600	-3.199950
0.292700	-3.329134
0.292800	-3.440142
0.292900	-3.431703
0.293000	-3.322643
0.293100	-3.187291
0.293200	-3.163596
0.293300	-3.215205
0.293400	-3.313879
0.293500	-3.325239
0.293600	-3.276552
0.293700	-3.201248
0.293800	-3.143147
0.293900	-3.142174
0.294000	-3.165868
0.294100	-3.186966
0.294200	-3.188589
0.294300	-3.173334
0.294400	-3.158727
0.294500	-3.150288
0.294600	-3.162622
0.294700	-3.161973
0.294800	-3.207090
0.294900	-3.221048
0.295000	-3.267788
0.295100	-3.289535
0.295200	-3.313554
0.295300	-3.304466
0.295400	-3.305764
0.295500	-3.360294
0.295600	-3.464162
0.295700	-3.525508
0.295800	-3.527780
0.295900	-3.453126
0.296000	-3.416123
0.296100	-3.468381
0.296200	-3.580688
0.296300	-3.670273
0.296400	-3.678388
0.296500	-3.620936
0.296600	-3.560888
0.296700	-3.586205
0.296800	-3.663457
0.296900	-3.725777
0.297000	-3.762131
0.297100	-3.768947
0.297200	-3.765377
0.297300	-3.794265
0.297400	-3.830294
0.297500	-3.861454
0.297600	-3.879631
0.297700	-3.902027
0.297800	-3.931889
0.297900	-3.953636
0.298000	-3.952987
0.298100	-3.941951
0.298200	-3.934161
0.298300	-3.961426
0.298400	-4.022448
0.298500	-4.062697
0.298600	-4.076330
0.298700	-4.075680
0.298800	-4.063022
0.298900	-4.078277
0.299000	-4.083146
0.299100	-4.088989
0.299200	-4.091261
0.299300	-4.097752
0.299400	-4.100998
0.299500	-4.105542
0.299600	-4.108788
0.299700	-4.119824
0.299800	-4.127939
0.299900	-4.137027
0.300000	-4.145466
0.300100	-4.159424
0.300200	-4.161047
0.300300	-4.168837
0.300400	-4.191882
0.300500	-4.217525
0.300600	-4.267835
0.300700	-4.377870
0.300800	-4.552823
0.300900	-4.647602
0.301000	-4.612222
0.301100	-4.517767
0.301200	-4.503485
0.301300	-4.620986
0.301400	-4.786525
0.301500	-4.905000
0.301600	-4.914088
0.301700	-4.849820
0.301800	-4.823853
0.301900	-4.870918
0.302000	-4.975111
0.302100	-5.059179
0.302200	-5.101051
0.302300	-5.092287
0.302400	-5.083848
0.302500	-5.100726
0.302600	-5.130588
0.302700	-5.160126
0.302800	-5.189014
0.302900	-5.198752
0.303000	-5.231211
0.303100	-5.259450
0.303200	-5.279574
0.303300	-5.279899
0.303400	-5.278276
0.303500	-5.292883
0.303600	-5.321446
0.303700	-5.342545
0.303800	-5.318200
0.303900	-5.237053
0.304000	-5.195831
0.304100	-5.225044
0.304200	-5.300673
0.304300	-5.380197
0.304400	-5.373056
0.304500	-5.283794
0.304600	-5.210112
0.304700	-5.203621
0.304800	-5.281847
0.304900	-5.378574
0.305000	-5.417200
0.305100	-5.392207
0.305200	-5.344168
0.305300	-5.324043
0.305400	-5.334105
0.305500	-5.353256
0.305600	-5.363643
0.305700	-5.358449
0.305800	-5.344492
0.305900	-5.320473
0.306000	-5.289312
0.306100	-5.237702
0.306200	-5.167267
0.306300	-5.109815
0.306400	-5.075733
0.306500	-5.039379
0.306600	-4.994586
0.306700	-4.902728
0.306800	-4.808273
0.306900	-4.686228
0.307000	-4.610274
0.307100	-4.546006
0.307200	-4.490177
0.307300	-4.418768
0.307400	-4.342166
0.307500	-4.254852
0.307600	-4.174679
0.307700	-4.111385
0.307800	-4.069513
0.307900	-4.027642
0.308000	-3.995508
0.308100	-3.974734
0.308200	-3.951364
0.308300	-3.921502
0.308400	-3.900404
0.308500	-3.874113
0.308600	-3.868595
0.308700	-3.867621
0.308800	-3.877683
0.308900	-3.866647
0.309000	-3.798484
0.309100	-3.658588
0.309200	-3.552773
0.309300	-3.581986
0.309400	-3.719935
0.309500	-3.786799
0.309600	-3.750770
0.309700	-3.615094
0.309800	-3.518043
0.309900	-3.499866
0.310000	-3.581986
0.310100	-3.647877
0.310200	-3.645280
0.310300	-3.565757
0.310400	-3.479092
0.310500	-3.435273
0.310600	-3.443064
0.310700	-3.463837
0.310800	-3.464811
0.310900	-3.449555
0.311000	-3.423264
0.311100	-3.412553
0.311200	-3.408008
0.311300	-3.411903
0.311400	-3.414825
0.311500	-3.420343
0.311600	-3.461565
0.311700	-3.494023
0.311800	-3.548878
0.311900	-3.539465
0.312000	-3.544334
0.312100	-3.527780
0.312200	-3.610549
0.312300	-3.720584
0.312400	-3.762131
0.312500	-3.739410
0.312600	-3.652745
0.312700	-3.636841
0.312800	-3.705977
0.312900	-3.819258
0.313000	-3.895535
0.313100	-3.887745
0.313200	-3.825100
0.313300	-3.786150
0.313400	-3.834838
0.313500	-3.914037
0.313600	-3.969541
0.313700	-4.000701
0.313800	-4.011412
0.313900	-4.028616
0.314000	-4.070163
0.314100	-4.107165
0.314200	-4.134755
0.314300	-4.150335
0.314400	-4.174030
0.314500	-4.205190
0.314600	-4.221420
0.314700	-4.223043
0.314800	-4.214603
0.314900	-4.215253
0.315000	-4.255501
0.315100	-4.319769
0.315200	-4.350280
0.315300	-4.355149
0.315400	-4.355474
0.315500	-4.348982
0.315600	-4.352228
0.315700	-4.344438
0.315800	-4.344762
0.315900	-4.344438
0.316000	-4.339245
0.316100	-4.329831
0.316200	-4.329831
0.316300	-4.325936
0.316400	-4.332428
0.316500	-4.334376
0.316600	-4.342815
0.316700	-4.344762
0.316800	-4.356448
0.316900	-4.359693
0.317000	-4.375923
0.317100	-4.395073
0.317200	-4.419093
0.317300	-4.477843
0.317400	-4.617091
0.317500	-4.764453
0.317600	-4.820282
0.317700	-4.759260
0.317800	-4.674218
0.317900	-4.691097
0.318000	-4.837486
0.318100	-4.992314
0.318200	-5.084821
0.318300	-5.058854
0.318400	-5.000753
0.318500	-4.989717
0.318600	-5.061127
0.318700	-5.175382
0.318800	-5.262047
0.318900	-5.288987
0.319000	-5.275355
0.319100	-5.273407
0.319200	-5.281522
0.319300	-5.319499
0.319400	-5.350010
0.319500	-5.368187
0.319600	-5.380197
0.319700	-5.394154
0.319800	-5.430833
0.319900	-5.452256
0.320000	-5.455826
0.320100	-5.457124
0.320200	-5.471082
0.320300	-5.504190
0.320400	-5.527560
0.320500	-5.490882
0.320600	-5.412331
0.320700	-5.396751
0.320800	-5.447387
0.320900	-5.539245
0.321000	-5.600917
0.321100	-5.563265
0.321200	-5.469783
0.321300	-5.397725
0.321400	-5.416226
0.321500	-5.489583
0.321600	-5.571704
0.321700	-5.581117
0.321800	-5.530157
0.321900	-5.469134
0.322000	-5.427587
0.322100	-5.419797
0.322200	-5.424990
0.322300	-5.422069
0.322400	-5.411682
0.322500	-5.383767
0.322600	-5.334754
0.322700	-5.287689
0.322800	-5.212385
0.322900	-5.135457
0.323000	-5.080602
0.323100	-5.035809
0.323200	-4.991989
0.323300	-4.929344
0.323400	-4.826450
0.323500	-4.737188
0.323600	-4.608327
0.323700	-4.532374
0.323800	-4.465833
0.323900	-4.394424
0.324000	-4.309383
0.324100	-4.229210
0.324200	-4.128913
0.324300	-4.042248
0.324400	-3.971813
0.324500	-3.927669
0.324600	-3.889693
0.324700	-3.853664
0.324800	-3.832890
0.324900	-3.814064
0.325000	-3.787448
0.325100	-3.762455
0.325200	-3.742331
0.325300	-3.749472
0.325400	-3.749147
0.325500	-3.764403
0.325600	-3.738761
0.325700	-3.651772
0.325800	-3.498892
0.325900	-3.408658
0.326000	-3.493374
0.326100	-3.611199
0.326200	-3.654693
0.326300	-3.566406
0.326400	-3.440142
0.326500	-3.365163
0.326600	-3.383340
0.326700	-3.463188
0.326800	-3.510577
0.326900	-3.486882
0.327000	-3.412553
0.327100	-3.350232
0.327200	-3.312256
0.327300	-3.311282
0.327400	-3.321020
0.327500	-3.329783
0.327600	-3.325564
0.327700	-3.313554
0.327800	-3.305115
0.327900	-3.302518
0.328000	-3.291482
0.328100	-3.283368
0.328200	-3.320695
0.328300	-3.355426
0.328400	-3.405087
0.328500	-3.435923
0.328600	-3.442090
0.328700	-3.436896
0.328800	-3.454749
0.328900	-3.551799
0.329000	-3.638464
0.329100	-3.655018
0.329200	-3.622559
0.329300	-3.554072
0.329400	-3.567704
0.329500	-3.641385
0.329600	-3.746875
0.329700	-3.778685
0.329800	-3.742656
0.329900	-3.683256
0.330000	-3.676765
0.330100	-3.716364
0.330200	-3.763754
0.330300	-3.790370
0.330400	-3.802379
0.330500	-3.803353
0.330600	-3.824127
0.330700	-3.845874
0.330800	-3.880604
0.330900	-3.912089
0.331000	-3.934810
0.331100	-3.959154
0.331200	-3.974734
0.331300	-3.973111
0.331400	-3.942276
0.331500	-3.897483
0.331600	-3.887096
0.331700	-3.931240
0.331800	-3.977656
0.331900	-3.998429
0.332000	-4.006219
0.332100	-4.021150
0.332200	-4.024071
0.332300	-4.021799
0.332400	-4.014334
0.332500	-4.001999
0.332600	-3.989341
0.332700	-3.989665
0.332800	-3.983823
0.332900	-3.979603
0.333000	-3.977980
0.333100	-3.980577
0.333200	-3.979603
0.333300	-3.981551
0.333400	-3.988691
0.333500	-3.992262
0.333600	-4.001350
0.333700	-4.012711
0.333800	-4.032186
0.333900	-4.061723
0.334000	-4.137676
0.334100	-4.283091
0.334200	-4.396047
0.334300	-4.396372
0.334400	-4.311979
0.334500	-4.246413
0.334600	-4.303215
0.334700	-4.448955
0.334800	-4.587229
0.334900	-4.617740
0.335000	-4.569376
0.335100	-4.514521
0.335200	-4.520039
0.335300	-4.597616
0.335400	-4.692395
0.335500	-4.757637
0.335600	-4.777437
0.335700	-4.773217
0.335800	-4.793991
0.335900	-4.814764
0.336000	-4.840082
0.336100	-4.857610
0.336200	-4.869620
0.336300	-4.885524
0.336400	-4.920255
0.336500	-4.950767
0.336600	-4.973163
0.336700	-4.964399
0.336800	-4.969268
0.336900	-4.991989
0.337000	-5.015360
0.337100	-5.018930
0.337200	-4.958557
0.337300	-4.891692
0.337400	-4.905974
0.337500	-4.985822
0.337600	-5.079303
0.337700	-5.102349
0.337800	-5.034186
0.337900	-4.945249
0.338000	-4.906298
0.338100	-4.948170
0.338200	-5.040353
0.338300	-5.097805
0.338400	-5.084497
0.338500	-5.033212
0.338600	-5.001402
0.338700	-4.990042
0.338800	-4.999455
0.338900	-4.991665
0.339000	-4.969593
0.339100	-4.957583
0.339200	-4.936160
0.339300	-4.904675
0.339400	-4.853066
0.339500	-4.769647
0.339600	-4.687202
0.339700	-4.623907
0.339800	-4.583983
0.339900	-4.547954
0.340000	-4.476220
0.340100	-4.377870
0.340200	-4.295750
0.340300	-4.190259
0.340400	-4.128913
0.340500	-4.061074
0.340600	-3.997455
0.340700	-3.917932
0.340800	-3.844575
0.340900	-3.756937
0.341000	-3.687476
0.341100	-3.627752
0.341200	-3.593346
0.341300	-3.551799
0.341400	-3.531351
0.341500	-3.505059
0.341600	-3.487532
0.341700	-3.459942
0.341800	-3.447283
0.341900	-3.431703
0.342000	-3.419369
0.342100	-3.430080
0.342200	-3.423588
0.342300	-3.395350
0.342400	-3.273306
0.342500	-3.137305
0.342600	-3.107443
0.342700	-3.221372
0.342800	-3.344065
0.342900	-3.335951
0.343000	-3.223320
0.343100	-3.092837
0.343200	-3.053887
0.343300	-3.110689
0.343400	-3.195730
0.343500	-3.228188
0.343600	-3.167491
0.343700	-3.087643
0.343800	-3.028894
0.343900	-3.029867
0.344000	-3.048369
0.344100	-3.063300
0.344200	-3.058431
0.344300	-3.051290
0.344400	-3.048693
0.344500	-3.066221
0.344600	-3.073037
0.344700	-3.070765
0.344800	-3.097056
0.344900	-3.114259
0.345000	-3.156780
0.345100	-3.203195
0.345200	-3.233706
0.345300	-3.240847
0.345400	-3.229487
0.345500	-3.272007
0.345600	-3.380419
0.345700	-3.457670
0.345800	-3.457994
0.345900	-3.386586
0.346000	-3.324915
0.346100	-3.362242
0.346200	-3.478443
0.346300	-3.582960
0.346400	-3.603084
0.346500	-3.531351
0.346600	-3.463837
0.346700	-3.470978
0.346800	-3.552449
0.346900	-3.620612
0.347000	-3.650473
0.347100	-3.634244
0.347200	-3.609576
0.347300	-3.627103
0.347400	-3.668650
0.347500	-3.730971
0.347600	-3.754016
0.347700	-3.752718
0.347800	-3.770245
0.347900	-3.786799
0.348000	-3.791668
0.348100	-3.779658
0.348200	-3.767973
0.348300	-3.773816
0.348400	-3.825100
0.348500	-3.865024
0.348600	-3.870867
0.348700	-3.820881
0.348800	-3.790694
0.348900	-3.793291
0.349000	-3.786150
0.349100	-3.773167
0.349200	-3.755964
0.349300	-3.742331
0.349400	-3.729023
0.349500	-3.720908
0.349600	-3.711820
0.349700	-3.700459
0.349800	-3.689748
0.349900	-3.679361
0.350000	-3.682932
0.350100	-3.675791
0.350200	-3.675142
0.350300	-3.680660
0.350400	-3.686178
0.350500	-3.705004
0.350600	-3.726751
0.350700	-3.822504
0.350800	-3.970515
0.350900	-4.056205
0.351000	-4.022773
0.351100	-3.921178
0.351200	-3.867621
0.351300	-3.953312
0.351400	-4.118526
0.351500	-4.232780
0.351600	-4.237974
0.351700	-4.166889
0.351800	-4.104244
0.351900	-4.134106
0.352000	-4.227262
0.352100	-4.331454
0.352200	-4.367159
0.352300	-4.363588
0.352400	-4.342166
0.352500	-4.342166
0.352600	-4.369756
0.352700	-4.405460
0.352800	-4.423312
0.352900	-4.419417
0.353000	-4.424935
0.353100	-4.439542
0.353200	-4.471351
0.353300	-4.492774
0.353400	-4.494397
0.353500	-4.495046
0.353600	-4.516793
0.353700	-4.540813
0.353800	-4.522961
0.353900	-4.449279
0.354000	-4.391178
0.354100	-4.422339
0.354200	-4.503161
0.354300	-4.602809
0.354400	-4.608652
0.354500	-4.535295
0.354600	-4.451876
0.354700	-4.427532
0.354800	-4.497643
0.354900	-4.605730
0.355000	-4.664480
0.355100	-4.634943
0.355200	-4.572947
0.355300	-4.537242
0.355400	-4.540813
0.355500	-4.568403
0.355600	-4.575868
0.355700	-4.567754
0.355800	-4.539839
0.355900	-4.501538
0.356000	-4.463561
0.356100	-4.396047
0.356200	-4.328533
0.356300	-4.263291
0.356400	-4.212007
0.356500	-4.170784
0.356600	-4.134106
0.356700	-4.055556
0.356800	-3.970839
0.356900	-3.889044
0.357000	-3.797511
0.357100	-3.732918
0.357200	-3.673843
0.357300	-3.607953
0.357400	-3.535246
0.357500	-3.448906
0.357600	-3.366137
0.357700	-3.287587
0.357800	-3.250260
0.357900	-3.210012
0.358000	-3.179176
0.358100	-3.151262
0.358200	-3.119453
0.358300	-3.086994
0.358400	-3.058106
0.358500	-3.037657
0.358600	-3.026622
0.358700	-3.024674
0.358800	-3.028569
0.358900	-3.000655
0.359000	-2.941905
0.359100	-2.784806
0.359200	-2.673150
0.359300	-2.674448
0.359400	-2.803308
0.359500	-2.878611
0.359600	-2.849723
0.359700	-2.714372
0.359800	-2.613102
0.359900	-2.593302
0.360000	-2.660166
0.360100	-2.742935
0.360200	-2.753646
0.360300	-2.685808
0.360400	-2.618620
0.360500	-2.552404
0.360600	-2.551106
0.360700	-2.571879
0.360800	-2.593302
0.360900	-2.593302
0.361000	-2.574152
0.361100	-2.561817
0.361200	-2.563440
0.361300	-2.568634
0.361400	-2.584214
0.361500	-2.618295
0.361600	-2.661140
0.361700	-2.690028
0.361800	-2.728004
0.361900	-2.741961
0.362000	-2.744233
0.362100	-2.754296
0.362200	-2.815642
0.362300	-2.919509
0.362400	-2.972741
0.362500	-2.961380
0.362600	-2.893867
0.362700	-2.860434
0.362800	-2.929895
0.362900	-3.044798
0.363000	-3.109715
0.363100	-3.100302
0.363200	-3.034087
0.363300	-3.005199
0.363400	-3.037657
0.363500	-3.111338
0.363600	-3.162622
0.363700	-3.180150
0.363800	-3.173334
0.363900	-3.171386
0.364000	-3.195081
0.364100	-3.229487
0.364200	-3.271358
0.364300	-3.295702
0.364400	-3.322967
0.364500	-3.346662
0.364600	-3.351531
0.364700	-3.338547
0.364800	-3.311931
0.364900	-3.293430
0.365000	-3.314853
0.365100	-3.367111
0.365200	-3.404113
0.365300	-3.386910
0.365400	-3.340819
0.365500	-3.330757
0.365600	-3.335301
0.365700	-3.334977
0.365800	-3.320370
0.365900	-3.312905
0.366000	-3.308685
0.366100	-3.296027
0.366200	-3.289860
0.366300	-3.286614
0.366400	-3.278174
0.366500	-3.273306
0.366600	-3.272981
0.366700	-3.270060
0.366800	-3.274929
0.366900	-3.288237
0.367000	-3.296676
0.367100	-3.321020
0.367200	-3.345688
0.367300	-3.397297
0.367400	-3.516744
0.367500	-3.656965
0.367600	-3.713118
0.367700	-3.653395
0.367800	-3.559914
0.367900	-3.557317
0.368000	-3.673843
0.368100	-3.825100
0.368200	-3.917932
0.368300	-3.903001
0.368400	-3.831917
0.368500	-3.797511
0.368600	-3.841330
0.368700	-3.947469
0.368800	-4.025045
0.368900	-4.068215
0.369000	-4.063346
0.369100	-4.056854
0.369200	-4.063671
0.369300	-4.092884
0.369400	-4.121447
0.369500	-4.138001
0.369600	-4.149037
0.369700	-4.162345
0.369800	-4.187663
0.369900	-4.207138
0.370000	-4.210059
0.370100	-4.213630
0.370200	-4.228885
0.370300	-4.256150
0.370400	-4.274652
0.370500	-4.230508
0.370600	-4.140922
0.370700	-4.107490
0.370800	-4.148063
0.370900	-4.245114
0.371000	-4.331454
0.371100	-4.301917
0.371200	-4.201944
0.371300	-4.129886
0.371400	-4.150011
0.371500	-4.235052
0.371600	-4.314251
0.371700	-4.330156
0.371800	-4.285688
0.371900	-4.233429
0.372000	-4.208436
0.372100	-4.226288
0.372200	-4.242518
0.372300	-4.228885
0.372400	-4.211682
0.372500	-4.189610
0.372600	-4.160073
0.372700	-4.105542
0.372800	-4.031861
0.372900	-3.947144
0.373000	-3.880929
0.373100	-3.839057
0.373200	-3.802055
0.373300	-3.751095
0.373400	-3.656965
0.373500	-3.578415
0.373600	-3.492725
0.373700	-3.417746
0.373800	-3.349583
0.373900	-3.287263
0.374000	-3.217153
0.374100	-3.145419
0.374200	-3.050641
0.374300	-2.980206
0.374400	-2.917561
0.374500	-2.870172
0.374600	-2.839661
0.374700	-2.806554
0.374800	-2.790974
0.374900	-2.764033
0.375000	-2.743909
0.375100	-2.713723
0.375200	-2.690353
0.375300	-2.683212
0.375400	-2.684185
0.375500	-2.681913
0.375600	-2.659517
0.375700	-2.571230
0.375800	-2.421597
0.375900	-2.315783
0.376000	-2.386218
0.376100	-2.521244
0.376200	-2.573178
0.376300	-2.510533
0.376400	-2.355058
0.376500	-2.263525
0.376600	-2.268394
0.376700	-2.354733
0.376800	-2.414781
0.376900	-2.402447
0.377000	-2.325521
0.377100	-2.254761
0.377200	-2.215811
0.377300	-2.221329
0.377400	-2.243726
0.377500	-2.255411
0.377600	-2.253788
0.377700	-2.237883
0.377800	-2.232041
0.377900	-2.236585
0.378000	-2.240804
0.378100	-2.251191
0.378200	-2.284299
0.378300	-2.320003
0.378400	-2.366094
0.378500	-2.409912
0.378600	-2.410886
0.378700	-2.418676
0.378800	-2.420948
0.378900	-2.531956
0.379000	-2.631603
0.379100	-2.671527
0.379200	-2.624462
0.379300	-2.545264
0.379400	-2.530657
0.379500	-2.610830
0.379600	-2.732224
0.379700	-2.792596
0.379800	-2.765007
0.379900	-2.690677
0.380000	-2.655622
0.380100	-2.703336
0.380200	-2.788701
0.380300	-2.837064
0.380400	-2.849399
0.380500	-2.832845
0.380600	-2.848100
0.380700	-2.874067
0.380800	-2.917561
0.380900	-2.953266
0.381000	-2.969170
0.381100	-2.983776
0.381200	-3.006497
0.381300	-3.009094
0.381400	-3.007146
0.381500	-2.991891
0.381600	-2.993189
0.381700	-3.043500
0.381800	-3.099653
0.381900	-3.125295
0.382000	-3.121076
0.382100	-3.085696
0.382200	-3.092837
0.382300	-3.100302
0.382400	-3.101276
0.382500	-3.105496
0.382600	-3.109715
0.382700	-3.102899
0.382800	-3.097706
0.382900	-3.096407
0.383000	-3.099328
0.383100	-3.095109
0.383200	-3.092512
0.383300	-3.103548
0.383400	-3.099004
0.383500	-3.112312
0.383600	-3.118479
0.383700	-3.131462
0.383800	-3.150288
0.383900	-3.169114
0.384000	-3.237601
0.384100	-3.378796
0.384200	-3.510253
0.384300	-3.525833
0.384400	-3.451178
0.384500	-3.377497
0.384600	-3.408008
0.384700	-3.548878
0.384800	-3.698837
0.384900	-3.760832
0.385000	-3.713767
0.385100	-3.645605
0.385200	-3.621585
0.385300	-3.701109
0.385400	-3.819907
0.385500	-3.901378
0.385600	-3.923125
0.385700	-3.905922
0.385800	-3.896509
0.385900	-3.912414
0.386000	-3.940328
0.386100	-3.971488
0.386200	-3.996806
0.386300	-4.012062
0.386400	-4.036730
0.386500	-4.061399
0.386600	-4.075031
0.386700	-4.071136
0.386800	-4.070812
0.386900	-4.083146
0.387000	-4.116903
0.387100	-4.128263
0.387200	-4.075031
0.387300	-4.002649
0.387400	-4.001350
0.387500	-4.067241
0.387600	-4.181171
0.387700	-4.234079
0.387800	-4.189935
0.387900	-4.090936
0.388000	-4.033160
0.388100	-4.064645
0.388200	-4.171758
0.388300	-4.268160
0.388400	-4.278222
0.388500	-4.231482
0.388600	-4.176627
0.388700	-4.154555
0.388800	-4.161696
0.388900	-4.174030
0.389000	-4.169486
0.389100	-4.161047
0.389200	-4.139949
0.389300	-4.102946
0.389400	-4.063346
0.389500	-3.997131
0.389600	-3.920204
0.389700	-3.862428
0.389800	-3.806599
0.389900	-3.756288
0.390000	-3.686178
0.390100	-3.581337
0.390200	-3.508954
0.390300	-3.430080
0.390400	-3.367111
0.390500	-3.304141
0.390600	-3.246365
0.390700	-3.170088
0.390800	-3.092837
0.390900	-3.000655
0.391000	-2.924053
0.391100	-2.865628
0.391200	-2.818888
0.391300	-2.798764
0.391400	-2.767603
0.391500	-2.754296
0.391600	-2.726706
0.391700	-2.701713
0.391800	-2.670553
0.391900	-2.646858
0.392000	-2.645235
0.392100	-2.639717
0.392200	-2.636472
0.392300	-2.599469
0.392400	-2.480347
0.392500	-2.345645
0.392600	-2.279105
0.392700	-2.373559
0.392800	-2.479049
0.392900	-2.501769
0.393000	-2.386867
0.393100	-2.263525
0.393200	-2.191143
0.393300	-2.224575
0.393400	-2.317731
0.393500	-2.359602
0.393600	-2.327793
0.393700	-2.247296
0.393800	-2.175888
0.393900	-2.158685
0.394000	-2.165177
0.394100	-2.177511
0.394200	-2.194389
0.394300	-2.196337
0.394400	-2.198609
0.394500	-2.199907
0.394600	-2.203153
0.394700	-2.190494
0.394800	-2.221979
0.394900	-2.257034
0.395000	-2.308318
0.395100	-2.364795
0.395200	-2.398876
0.395300	-2.406342
0.395400	-2.400175
0.395500	-2.423869
0.395600	-2.539746
0.395700	-2.625111
0.395800	-2.640691
0.395900	-2.578371
0.396000	-2.513454
0.396100	-2.544290
0.396200	-2.646534
0.396300	-2.755918
0.396400	-2.789351
0.396500	-2.731250
0.396600	-2.674773
0.396700	-2.681913
0.396800	-2.747479
0.396900	-2.814344
0.397000	-2.842582
0.397100	-2.846153
0.397200	-2.839337
0.397300	-2.868549
0.397400	-2.913342
0.397500	-2.959757
0.397600	-2.982154
0.397700	-2.985075
0.397800	-3.012340
0.397900	-3.037982
0.398000	-3.042202
0.398100	-3.029867
0.398200	-3.015910
0.398300	-3.021753
0.398400	-3.074011
0.398500	-3.117181
0.398600	-3.129839
0.398700	-3.111338
0.398800	-3.080178
0.398900	-3.088293
0.399000	-3.089915
0.399100	-3.091214
0.399200	-3.086994
0.399300	-3.077906
0.399400	-3.068818
0.399500	-3.060703
0.399600	-3.050965
0.399700	-3.054211
0.399800	-3.047070
0.399900	-3.043500
0.400000	-3.048693
0.400100	-3.052264
0.400200	-3.063300
0.400300	-3.072713
0.400400	-3.094135
0.400500	-3.106145
0.400600	-3.131462
0.400700	-3.209687
0.400800	-3.365163
0.400900	-3.467083
0.401000	-3.443388
0.401100	-3.354127
0.401200	-3.300895
0.401300	-3.371655
0.401400	-3.525184
0.401500	-3.660860
0.401600	-3.696240
0.401700	-3.634569
0.401800	-3.570950
0.401900	-3.575819
0.402000	-3.661834
0.402100	-3.759534
0.402200	-3.815363
0.402300	-3.823153
0.402400	-3.823153
0.402500	-3.831267
0.402600	-3.852690
0.402700	-3.876060
0.402800	-3.890991
0.402900	-3.895535
0.403000	-3.907870
0.403100	-3.943249
0.403200	-3.965970
0.403300	-3.972462
0.403400	-3.962400
0.403500	-3.968567
0.403600	-3.989665
0.403700	-4.015308
0.403800	-4.010114
0.403900	-3.939354
0.404000	-3.884824
0.404100	-3.898457
0.404200	-3.980252
0.404300	-4.083146
0.404400	-4.102946
0.404500	-4.032186
0.404600	-3.937082
0.404700	-3.903001
0.404800	-3.963374
0.404900	-4.072435
0.405000	-4.144817
0.405100	-4.130860
0.405200	-4.075356
0.405300	-4.035107
0.405400	-4.035756
0.405500	-4.052959
0.405600	-4.058477
0.405700	-4.055556
0.405800	-4.030888
0.405900	-4.012386
0.406000	-3.972787
0.406100	-3.907870
0.406200	-3.829320
0.406300	-3.753042
0.406400	-3.706302
0.406500	-3.676116
0.406600	-3.640411
0.406700	-3.569327
0.406800	-3.478119
0.406900	-3.414825
0.407000	-3.318423
0.407100	-3.248637
0.407200	-3.182422
0.407300	-3.109066
0.407400	-3.038307
0.407500	-2.942554
0.407600	-2.857189
0.407700	-2.785456
0.407800	-2.729952
0.407900	-2.698143
0.408000	-2.661465
0.408100	-2.645560
0.408200	-2.616672
0.408300	-2.595250
0.408400	-2.564414
0.408500	-2.549483
0.408600	-2.526762
0.408700	-2.535851
0.408800	-2.527087
0.408900	-2.518648
0.409000	-2.451459
0.409100	-2.323249
0.409200	-2.181081
0.409300	-2.178809
0.409400	-2.295984
0.409500	-2.402122
0.409600	-2.386218
0.409700	-2.258981
0.409800	-2.138561
0.409900	-2.102207
0.410000	-2.144728
0.410100	-2.232041
0.410200	-2.252165
0.410300	-2.208022
0.410400	-2.121682
0.410500	-2.065530
0.410600	-2.053520
0.410700	-2.065854
0.410800	-2.077864
0.410900	-2.077539
0.411000	-2.064880
0.411100	-2.054818
0.411200	-2.055792
0.411300	-2.060985
0.411400	-2.062284
0.411500	-2.075592
0.411600	-2.107401
0.411700	-2.142780
0.411800	-2.189845
0.411900	-2.222303
0.412000	-2.215811
0.412100	-2.222628
0.412200	-2.262551
0.412300	-2.390762
0.412400	-2.449836
0.412500	-2.445941
0.412600	-2.372910
0.412700	-2.322275
0.412800	-2.364471
0.412900	-2.486839
0.413000	-2.588433
0.413100	-2.611479
0.413200	-2.544614
0.413300	-2.487488
0.413400	-2.509884
0.413500	-2.582915
0.413600	-2.647183
0.413700	-2.677045
0.413800	-2.679966
0.413900	-2.675746
0.414000	-2.704310
0.414100	-2.743909
0.414200	-2.779613
0.414300	-2.800711
0.414400	-2.811422
0.414500	-2.827002
0.414600	-2.836415
0.414700	-2.829599
0.414800	-2.820835
0.414900	-2.814344
0.415000	-2.832520
0.415100	-2.887375
0.415200	-2.928597
0.415300	-2.942554
0.415400	-2.905227
0.415500	-2.897437
0.415600	-2.914315
0.415700	-2.917237
0.415800	-2.922430
0.415900	-2.924702
0.416000	-2.927299
0.416100	-2.933141
0.416200	-2.937036
0.416300	-2.940282
0.416400	-2.943853
0.416500	-2.954564
0.416600	-2.964626
0.416700	-2.973390
0.416800	-2.986373
0.416900	-2.991891
0.417000	-3.009094
0.417100	-3.026946
0.417200	-3.045123
0.417300	-3.082450
0.417400	-3.201897
0.417500	-3.356724
0.417600	-3.433651
0.417700	-3.376848
0.417800	-3.282394
0.417900	-3.254480
0.418000	-3.358347
0.418100	-3.520315
0.418200	-3.631972
0.418300	-3.642359
0.418400	-3.575170
0.418500	-3.539141
0.418600	-3.587828
0.418700	-3.684879
0.418800	-3.774140
0.418900	-3.802379
0.419000	-3.815687
0.419100	-3.809845
0.419200	-3.825100
0.419300	-3.851716
0.419400	-3.875736
0.419500	-3.895860
0.419600	-3.902352
0.419700	-3.924423
0.419800	-3.949092
0.419900	-3.976682
0.420000	-3.987393
0.420100	-3.989665
0.420200	-4.000052
0.420300	-4.021475
0.420400	-4.042573
0.420500	-4.011088
0.420600	-3.933187
0.420700	-3.899755
0.420800	-3.935135
0.420900	-4.031537
0.421000	-4.119824
0.421100	-4.112683
0.421200	-4.030888
0.421300	-3.956233
0.421400	-3.959479
0.421500	-4.042573
0.421600	-4.142545
0.421700	-4.177276
0.421800	-4.142870
0.421900	-4.093208
0.422000	-4.067566
0.422100	-4.075680
0.422200	-4.088339
0.422300	-4.088015
0.422400	-4.067890
0.422500	-4.051012
0.422600	-4.017904
0.422700	-3.977331
0.422800	-3.927345
0.422900	-3.855287
0.423000	-3.782255
0.423100	-3.735515
0.423200	-3.697214
0.423300	-3.637165
0.423400	-3.522587
0.423500	-3.409307
0.423600	-3.330433
0.423700	-3.245716
0.423800	-3.177229
0.423900	-3.115558
0.424000	-3.049018
0.424100	-2.978259
0.424200	-2.891919
0.424300	-2.825055
0.424400	-2.761112
0.424500	-2.719240
0.424600	-2.683861
0.424700	-2.656596
0.424800	-2.642314
0.424900	-2.612777
0.425000	-2.600767
0.425100	-2.578047
0.425200	-2.565063
0.425300	-2.547536
0.425400	-2.558247
0.425500	-2.566362
0.425600	-2.550782
0.425700	-2.486514
0.425800	-2.319354
0.425900	-2.237559
0.426000	-2.258332
0.426100	-2.419325
0.426200	-2.493979
0.426300	-2.436204
0.426400	-2.302475
0.426500	-2.193740
0.426600	-2.200232
0.426700	-2.273263
0.426800	-2.350838
0.426900	-2.335907
0.427000	-2.265148
0.427100	-2.192442
0.427200	-2.161282
0.427300	-2.176862
0.427400	-2.199907
0.427500	-2.206723
0.427600	-2.200232
0.427700	-2.195687
0.427800	-2.196337
0.427900	-2.206723
0.428000	-2.218408
0.428100	-2.225224
0.428200	-2.261902
0.428300	-2.285921
0.428400	-2.339802
0.428500	-2.362848
0.428600	-2.380700
0.428700	-2.377779
0.428800	-2.389788
0.428900	-2.474180
0.429000	-2.581292
0.429100	-2.618620
0.429200	-2.590381
0.429300	-2.509559
0.429400	-2.499173
0.429500	-2.574801
0.429600	-2.688730
0.429700	-2.743584
0.429800	-2.723460
0.429900	-2.662763
0.430000	-2.642314
0.430100	-2.697493
0.430200	-2.785131
0.430300	-2.829599
0.430400	-2.840959
0.430500	-2.834143
0.430600	-2.842907
0.430700	-2.881532
0.430800	-2.925027
0.430900	-2.956187
0.431000	-2.969495
0.431100	-2.992216
0.431200	-3.010717
0.431300	-3.018507
0.431400	-3.022077
0.431500	-3.008445
0.431600	-3.005524
0.431700	-3.046097
0.431800	-3.099328
0.431900	-3.127567
0.432000	-3.123348
0.432100	-3.087968
0.432200	-3.090565
0.432300	-3.096732
0.432400	-3.094460
0.432500	-3.091863
0.432600	-3.079529
0.432700	-3.075958
0.432800	-3.073686
0.432900	-3.066221
0.433000	-3.061352
0.433100	-3.057782
0.433200	-3.059080
0.433300	-3.062975
0.433400	-3.069467
0.433500	-3.076283
0.433600	-3.081476
0.433700	-3.094460
0.433800	-3.104522
0.433900	-3.134059
0.434000	-3.184694
0.434100	-3.322318
0.434200	-3.455722
0.434300	-3.494673
0.434400	-3.422290
0.434500	-3.325888
0.434600	-3.334652
0.434700	-3.466758
0.434800	-3.627103
0.434900	-3.685204
0.435000	-3.646903
0.435100	-3.574845
0.435200	-3.555045
0.435300	-3.620936
0.435400	-3.715390
0.435500	-3.799458
0.435600	-3.804002
0.435700	-3.786150
0.435800	-3.781281
0.435900	-3.799783
0.436000	-3.831267
0.436100	-3.850418
0.436200	-3.863726
0.436300	-3.862103
0.436400	-3.877359
0.436500	-3.898457
0.436600	-3.915660
0.436700	-3.910791
0.436800	-3.915335
0.436900	-3.935135
0.437000	-3.967918
0.437100	-3.983174
0.437200	-3.925073
0.437300	-3.851716
0.437400	-3.843926
0.437500	-3.906247
0.437600	-4.007193
0.437700	-4.070487
0.437800	-4.028291
0.437900	-3.932214
0.438000	-3.879955
0.438100	-3.917932
0.438200	-4.024720
0.438300	-4.109113
0.438400	-4.113657
0.438500	-4.054582
0.438600	-3.991288
0.438700	-3.973761
0.438800	-3.994534
0.438900	-4.014009
0.439000	-4.014658
0.439100	-3.984472
0.439200	-3.951689
0.439300	-3.917607
0.439400	-3.877034
0.439500	-3.805301
0.439600	-3.731944
0.439700	-3.670922
0.439800	-3.630674
0.439900	-3.592697
0.440000	-3.531026
0.440100	-3.429106
0.440200	-3.348934
0.440300	-3.241821
0.440400	-3.177878
0.440500	-3.114584
0.440600	-3.058755
0.440700	-2.987022
0.440800	-2.908148
0.440900	-2.819212
0.441000	-2.744558
0.441100	-2.690353
0.441200	-2.657245
0.441300	-2.616997
0.441400	-2.585837
0.441500	-2.556624
0.441600	-2.529684
0.441700	-2.497550
0.441800	-2.469960
0.441900	-2.446266
0.442000	-2.437502
0.442100	-2.428414
0.442200	-2.436528
0.442300	-2.401149
0.442400	-2.319678
0.442500	-2.158685
0.442600	-2.100909
0.442700	-2.163878
0.442800	-2.307019
0.442900	-2.348241
0.443000	-2.263525
0.443100	-2.135964
0.443200	-2.063907
0.443300	-2.101234
0.443400	-2.186274
0.443500	-2.241454
0.443600	-2.232365
0.443700	-2.141157
0.443800	-2.075267
0.443900	-2.042809
0.444000	-2.068451
0.444100	-2.090198
0.444200	-2.104479
0.444300	-2.099286
0.444400	-2.077864
0.444500	-2.075916
0.444600	-2.076890
0.444700	-2.087926
0.444800	-2.101558
0.444900	-2.142131
0.445000	-2.173616
0.445100	-2.209969
0.445200	-2.255411
0.445300	-2.252814
0.445400	-2.260604
0.445500	-2.277482
0.445600	-2.382647
0.445700	-2.474829
0.445800	-2.497225
0.445900	-2.455354
0.446000	-2.390113
0.446100	-2.406991
0.446200	-2.506314
0.446300	-2.620242
0.446400	-2.667632
0.446500	-2.637445
0.446600	-2.576099
0.446700	-2.563116
0.446800	-2.624787
0.446900	-2.708854
0.447000	-2.748128
0.447100	-2.768253
0.447200	-2.759489
0.447300	-2.776367
0.447400	-2.817265
0.447500	-2.862707
0.447600	-2.906850
0.447700	-2.927623
0.447800	-2.951318
0.447900	-2.974688
0.448000	-2.979881
0.448100	-2.963328
0.448200	-2.942879
0.448300	-2.935413
0.448400	-2.984101
0.448500	-3.032464
0.448600	-3.045772
0.448700	-3.006822
0.448800	-2.974039
0.448900	-2.978259
0.449000	-2.983127
0.449100	-2.980531
0.449200	-2.972416
0.449300	-2.968521
0.449400	-2.952292
0.449500	-2.943528
0.449600	-2.936387
0.449700	-2.929895
0.449800	-2.923079
0.449900	-2.913991
0.450000	-2.904253
0.450100	-2.900358
0.450200	-2.896788
0.450300	-2.902306
0.450400	-2.913666
0.450500	-2.933141
0.450600	-2.960731
0.450700	-3.042526
0.450800	-3.201248
0.450900	-3.308361
0.451000	-3.312580
0.451100	-3.225267
0.451200	-3.160999
0.451300	-3.221048
0.451400	-3.371655
0.451500	-3.511551
0.451600	-3.537842
0.451700	-3.487207
0.451800	-3.429756
0.451900	-3.444037
0.452000	-3.534272
0.452100	-3.640736
0.452200	-3.708250
0.452300	-3.722856
0.452400	-3.712145
0.452500	-3.712145
0.452600	-3.742331
0.452700	-3.771868
0.452800	-3.815038
0.452900	-3.828995
0.453000	-3.851716
0.453100	-3.874113
0.453200	-3.895860
0.453300	-3.907220
0.453400	-3.909168
0.453500	-3.920853
0.453600	-3.948118
0.453700	-3.974410
0.453800	-3.980901
0.453900	-3.918581
0.454000	-3.855611
0.454100	-3.856261
0.454200	-3.929292
0.454300	-4.026019
0.454400	-4.065618
0.454500	-3.995832
0.454600	-3.902676
0.454700	-3.875411
0.454800	-3.949741
0.454900	-4.043546
0.455000	-4.094831
0.455100	-4.089962
0.455200	-4.041274
0.455300	-4.004596
0.455400	-3.985770
0.455500	-3.991288
0.455600	-4.002649
0.455700	-4.010763
0.455800	-4.004596
0.455900	-3.964997
0.456000	-3.917607
0.456100	-3.855611
0.456200	-3.767649
0.456300	-3.692669
0.456400	-3.642683
0.456500	-3.599513
0.456600	-3.559590
0.456700	-3.477145
0.456800	-3.382366
0.456900	-3.302843
0.457000	-3.201897
0.457100	-3.141524
0.457200	-3.074985
0.457300	-3.011042
0.457400	-2.935413
0.457500	-2.856539
0.457600	-2.767279
0.457700	-2.702038
0.457800	-2.651727
0.457900	-2.616997
0.458000	-2.596872
0.458100	-2.573827
0.458200	-2.554677
0.458300	-2.528385
0.458400	-2.504691
0.458500	-2.480996
0.458600	-2.466714
0.458700	-2.471259
0.458800	-2.479698
0.458900	-2.479373
0.459000	-2.448538
0.459100	-2.314160
0.459200	-2.197310
0.459300	-2.159659
0.459400	-2.274236
0.459500	-2.369664
0.459600	-2.373234
0.459700	-2.258332
0.459800	-2.152518
0.459900	-2.097988
0.460000	-2.150570
0.460100	-2.234313
0.460200	-2.263201
0.460300	-2.223601
0.460400	-2.141482
0.460500	-2.082083
0.460600	-2.069100
0.460700	-2.078837
0.460800	-2.102207
0.460900	-2.102857
0.461000	-2.098637
0.461100	-2.078513
0.461200	-2.075267
0.461300	-2.072021
0.461400	-2.086627
0.461500	-2.113568
0.461600	-2.138236
0.461700	-2.167773
0.461800	-2.221654
0.461900	-2.251516
0.462000	-2.261253
0.462100	-2.265473
0.462200	-2.303774
0.462300	-2.423220
0.462400	-2.503392
0.462500	-2.501120
0.462600	-2.444318
0.462700	-2.412184
0.462800	-2.456328
0.462900	-2.574801
0.463000	-2.664386
0.463100	-2.680615
0.463200	-2.617970
0.463300	-2.576099
0.463400	-2.598171
0.463500	-2.672176
0.463600	-2.726057
0.463700	-2.732548
0.463800	-2.740338
0.463900	-2.745532
0.464000	-2.789026
0.464100	-2.821160
0.464200	-2.849399
0.464300	-2.859785
0.464400	-2.876339
0.464500	-2.910420
0.464600	-2.937036
0.464700	-2.936387
0.464800	-2.921781
0.464900	-2.894840
0.465000	-2.903604
0.465100	-2.957161
0.465200	-2.996760
0.465300	-3.001304
0.465400	-2.952616
0.465500	-2.931194
0.465600	-2.938659
0.465700	-2.944826
0.465800	-2.942554
0.465900	-2.938010
0.466000	-2.933141
0.466100	-2.922430
0.466200	-2.918210
0.466300	-2.916263
0.466400	-2.908148
0.466500	-2.909122
0.466600	-2.911719
0.466700	-2.909122
0.466800	-2.916263
0.466900	-2.913342
0.467000	-2.928273
0.467100	-2.942230
0.467200	-2.966573
0.467300	-2.997409
0.467400	-3.100302
0.467500	-3.261621
0.467600	-3.337898
0.467700	-3.306089
0.467800	-3.214556
0.467900	-3.185343
0.468000	-3.273630
0.468100	-3.425211
0.468200	-3.534596
0.468300	-3.544334
0.468400	-3.490453
0.468500	-3.449880
0.468600	-3.473250
0.468700	-3.557317
0.468800	-3.645605
0.468900	-3.699810
0.469000	-3.715390
0.469100	-3.713118
0.469200	-3.713118
0.469300	-3.741033
0.469400	-3.775114
0.469500	-3.795563
0.469600	-3.811792
0.469700	-3.819258
0.469800	-3.837435
0.469900	-3.870218
0.470000	-3.890667
0.470100	-3.895211
0.470200	-3.902027
0.470300	-3.920528
0.470400	-3.948767
0.470500	-3.940328
0.470600	-3.871191
0.470700	-3.818933
0.470800	-3.850093
0.470900	-3.943899
0.471000	-4.008491
0.471100	-4.012711
0.471200	-3.940004
0.471300	-3.863077
0.471400	-3.859831
0.471500	-3.936758
0.471600	-4.032186
0.471700	-4.077628
0.471800	-4.047117
0.471900	-3.992911
0.472000	-3.957531
0.472100	-3.956233
0.472200	-3.968567
0.472300	-3.962075
0.472400	-3.944223
0.472500	-3.927020
0.472600	-3.909493
0.472700	-3.868270
0.472800	-3.797835
0.472900	-3.702407
0.473000	-3.629700
0.473100	-3.578091
0.473200	-3.533947
0.473300	-3.500190
0.473400	-3.414175
0.473500	-3.323941
0.473600	-3.228513
0.473700	-3.146718
0.473800	-3.086670
0.473900	-3.026297
0.474000	-2.959757
0.474100	-2.888998
0.474200	-2.812721
0.474300	-2.735470
0.474400	-2.669579
0.474500	-2.629331
0.474600	-2.587459
0.474700	-2.563765
0.474800	-2.547536
0.474900	-2.530982
0.475000	-2.502094
0.475100	-2.481645
0.475200	-2.451784
0.475300	-2.451784
0.475400	-2.438476
0.475500	-2.449836
0.475600	-2.408614
0.475700	-2.356356
0.475800	-2.203802
0.475900	-2.092470
0.476000	-2.122656
0.476100	-2.246647
0.476200	-2.310914
0.476300	-2.267420
0.476400	-2.146351
0.476500	-2.058389
0.476600	-2.032097
0.476700	-2.100584
0.476800	-2.151544
0.476900	-2.163554
0.477000	-2.104804
0.477100	-2.035992
0.477200	-1.995420
0.477300	-1.967505
0.477400	-1.977568
0.477500	-1.986007
0.477600	-1.991200
0.477700	-1.980164
0.477800	-1.970427
0.477900	-1.964584
0.478000	-1.956145
0.478100	-1.974646
0.478200	-1.998665
0.478300	-2.025930
0.478400	-2.060661
0.478500	-2.109348
0.478600	-2.123305
0.478700	-2.141807
0.478800	-2.136289
0.478900	-2.198933
0.479000	-2.312537
0.479100	-2.358304
0.479200	-2.324871
0.479300	-2.266122
0.479400	-2.245349
0.479500	-2.309941
0.479600	-2.428089
0.479700	-2.493330
0.479800	-2.480022
0.479900	-2.406017
0.480000	-2.382323
0.480100	-2.427115
0.480200	-2.493655
0.480300	-2.531631
0.480400	-2.535202
0.480500	-2.539421
0.480600	-2.563116
0.480700	-2.613102
0.480800	-2.659517
0.480900	-2.690028
0.481000	-2.701064
0.481100	-2.724758
0.481200	-2.763059
0.481300	-2.795842
0.481400	-2.802983
0.481500	-2.785456
0.481600	-2.769551
0.481700	-2.800711
0.481800	-2.858487
0.481900	-2.890621
0.482000	-2.889972
0.482100	-2.850697
0.482200	-2.837389
0.482300	-2.846802
0.482400	-2.849399
0.482500	-2.847127
0.482600	-2.835117
0.482700	-2.834143
0.482800	-2.831222
0.482900	-2.831222
0.483000	-2.831871
0.483100	-2.834143
0.483200	-2.843556
0.483300	-2.854917
0.483400	-2.863680
0.483500	-2.869198
0.483600	-2.885427
0.483700	-2.898411
0.483800	-2.924702
0.483900	-2.942879
0.484000	-2.991566
0.484100	-3.117181
0.484200	-3.261621
0.484300	-3.310958
0.484400	-3.241172
0.484500	-3.156131
0.484600	-3.155482
0.484700	-3.277850
0.484800	-3.420992
0.484900	-3.501164
0.485000	-3.488830
0.485100	-3.428457
0.485200	-3.411579
0.485300	-3.453775
0.485400	-3.552773
0.485500	-3.633270
0.485600	-3.658913
0.485700	-3.650473
0.485800	-3.653719
0.485900	-3.687151
0.486000	-3.725453
0.486100	-3.754016
0.486200	-3.775439
0.486300	-3.781606
0.486400	-3.792642
0.486500	-3.829320
0.486600	-3.886772
0.486700	-3.886122
0.486800	-3.890017
0.486900	-3.904299
0.487000	-3.937407
0.487100	-3.959803
0.487200	-3.914361
0.487300	-3.831267
0.487400	-3.799458
0.487500	-3.867621
0.487600	-3.964672
0.487700	-4.020825
0.487800	-4.000701
0.487900	-3.914361
0.488000	-3.853988
0.488100	-3.882552
0.488200	-3.976682
0.488300	-4.063671
0.488400	-4.083471
0.488500	-4.044520
0.488600	-4.012386
0.488700	-4.006544
0.488800	-4.013685
0.488900	-4.020825
0.489000	-4.014658
0.489100	-3.996157
0.489200	-3.970839
0.489300	-3.936433
0.489400	-3.893912
0.489500	-3.822828
0.489600	-3.736488
0.489700	-3.668650
0.489800	-3.613146
0.489900	-3.568353
0.490000	-3.511551
0.490100	-3.414825
0.490200	-3.325888
0.490300	-3.209038
0.490400	-3.119777
0.490500	-3.054536
0.490600	-2.997084
0.490700	-2.930220
0.490800	-2.850048
0.490900	-2.757866
0.491000	-2.686133
0.491100	-2.629980
0.491200	-2.588433
0.491300	-2.552080
0.491400	-2.516051
0.491500	-2.499497
0.491600	-2.473206
0.491700	-2.456652
0.491800	-2.433931
0.491900	-2.413483
0.492000	-2.400824
0.492100	-2.406017
0.492200	-2.398876
0.492300	-2.379077
0.492400	-2.288843
0.492500	-2.139534
0.492600	-2.068451
0.492700	-2.121682
0.492800	-2.251840
0.492900	-2.297606
0.493000	-2.223926
0.493100	-2.117463
0.493200	-2.038914
0.493300	-2.055143
0.493400	-2.123954
0.493500	-2.176537
0.493600	-2.166475
0.493700	-2.098962
0.493800	-2.035668
0.493900	-2.001911
0.494000	-2.005806
0.494100	-2.017491
0.494200	-2.016517
0.494300	-2.012298
0.494400	-1.994446
0.494500	-1.981138
0.494600	-1.990226
0.494700	-2.013272
0.494800	-2.000613
0.494900	-2.028527
0.495000	-2.053195
0.495100	-2.095067
0.495200	-2.115840
0.495300	-2.111945
0.495400	-2.118761
0.495500	-2.127200
0.495600	-2.228795
0.495700	-2.309616
0.495800	-2.335583
0.495900	-2.271315
0.496000	-2.232365
0.496100	-2.242427
0.496200	-2.311888
0.496300	-2.400824
0.496400	-2.451459
0.496500	-2.435879
0.496600	-2.387841
0.496700	-2.368041
0.496800	-2.415755
0.496900	-2.495602
0.497000	-2.541693
0.497100	-2.553378
0.497200	-2.547211
0.497300	-2.563765
0.497400	-2.606935
0.497500	-2.659517
0.497600	-2.692300
0.497700	-2.710801
0.497800	-2.729303
0.497900	-2.750401
0.498000	-2.766954
0.498100	-2.771174
0.498200	-2.767279
0.498300	-2.776692
0.498400	-2.818888
0.498500	-2.870172
0.498600	-2.899060
0.498700	-2.888024
0.498800	-2.856864
0.498900	-2.859461
0.499000	-2.866602
0.499100	-2.868549
0.499200	-2.872120
0.499300	-2.871470
0.499400	-2.873418
0.499500	-2.865628
0.499600	-2.866602
0.499700	-2.871146
0.499800	-2.879585
0.499900	-2.879910
0.500000	-2.892893
0.500100	-2.905552
0.500200	-2.923728
0.500300	-2.938335
0.500400	-2.950993
0.500500	-2.976636
0.500600	-3.008445
0.500700	-3.081476
0.500800	-3.237277
0.500900	-3.360944
0.501000	-3.379120
0.501100	-3.303817
0.501200	-3.238900
0.501300	-3.269086
0.501400	-3.406710
0.501500	-3.541737
0.501600	-3.607628
0.501700	-3.590750
0.501800	-3.532324
0.501900	-3.528429
0.502000	-3.585556
0.502100	-3.674168
0.502200	-3.746226
0.502300	-3.761806
0.502400	-3.765701
0.502500	-3.750121
0.502600	-3.757262
0.502700	-3.778685
0.502800	-3.815363
0.502900	-3.823802
0.503000	-3.820232
0.503100	-3.823153
0.503200	-3.850418
0.503300	-3.858857
0.503400	-3.848795
0.503500	-3.856585
0.503600	-3.884499
0.503700	-3.903325
0.503800	-3.891316
0.503900	-3.812766
0.504000	-3.737787
0.504100	-3.740708
0.504200	-3.816661
0.504300	-3.898781
0.504400	-3.910142
0.504500	-3.870542
0.504600	-3.789396
0.504700	-3.739085
0.504800	-3.773491
0.504900	-3.853015
0.505000	-3.923774
0.505100	-3.937082
0.505200	-3.883201
0.505300	-3.830618
0.505400	-3.807248
0.505500	-3.810494
0.505600	-3.817635
0.505700	-3.809845
0.505800	-3.789720
0.505900	-3.758560
0.506000	-3.718312
0.506100	-3.660860
0.506200	-3.580038
0.506300	-3.509928
0.506400	-3.456696
0.506500	-3.416772
0.506600	-3.382691
0.506700	-3.318423
0.506800	-3.227864
0.506900	-3.157754
0.507000	-3.049992
0.507100	-2.983776
0.507200	-2.921132
0.507300	-2.857838
0.507400	-2.773446
0.507500	-2.692300
0.507600	-2.599469
0.507700	-2.525139
0.507800	-2.461521
0.507900	-2.434905
0.508000	-2.403096
0.508100	-2.383621
0.508200	-2.357330
0.508300	-2.328442
0.508400	-2.302475
0.508500	-2.274561
0.508600	-2.266771
0.508700	-2.249244
0.508800	-2.266446
0.508900	-2.244699
0.509000	-2.223277
0.509100	-2.093768
0.509200	-1.968804
0.509300	-1.930178
0.509400	-2.023334
0.509500	-2.137912
0.509600	-2.140833
0.509700	-2.064231
0.509800	-1.939916
0.509900	-1.893176
0.510000	-1.919467
0.510100	-1.989253
0.510200	-2.034694
0.510300	-2.000613
0.510400	-1.935696
0.510500	-1.855849
0.510600	-1.843190
0.510700	-1.847734
0.510800	-1.865262
0.510900	-1.866885
0.511000	-1.858770
0.511100	-1.840594
0.511200	-1.829882
0.511300	-1.836049
0.511400	-1.850980
0.511500	-1.869481
0.511600	-1.900317
0.511700	-1.943162
0.511800	-1.980489
0.511900	-1.993148
0.512000	-1.979515
0.512100	-1.980164
0.512200	-2.015219
0.512300	-2.127200
0.512400	-2.193415
0.512500	-2.187573
0.512600	-2.109997
0.512700	-2.073969
0.512800	-2.098312
0.512900	-2.195363
0.513000	-2.294361
0.513100	-2.310265
0.513200	-2.267420
0.513300	-2.196661
0.513400	-2.200232
0.513500	-2.247296
0.513600	-2.307019
0.513700	-2.327468
0.513800	-2.340127
0.513900	-2.337206
0.514000	-2.362848
0.514100	-2.390113
0.514200	-2.436853
0.514300	-2.473855
0.514400	-2.499497
0.514500	-2.532605
0.514600	-2.557598
0.514700	-2.558896
0.514800	-2.552080
0.514900	-2.546562
0.515000	-2.557273
0.515100	-2.609856
0.515200	-2.655622
0.515300	-2.674448
0.515400	-2.631603
0.515500	-2.608882
0.515600	-2.625111
0.515700	-2.638419
0.515800	-2.643288
0.515900	-2.644262
0.516000	-2.644911
0.516100	-2.636796
0.516200	-2.635498
0.516300	-2.636796
0.516400	-2.641340
0.516500	-2.649130
0.516600	-2.659842
0.516700	-2.670878
0.516800	-2.678992
0.516900	-2.686458
0.517000	-2.703985
0.517100	-2.722811
0.517200	-2.746506
0.517300	-2.778964
0.517400	-2.876988
0.517500	-3.023700
0.517600	-3.136656
0.517700	-3.125944
0.517800	-3.049018
0.517900	-3.004874
0.518000	-3.078230
0.518100	-3.231434
0.518200	-3.368084
0.518300	-3.394376
0.518400	-3.346662
0.518500	-3.303817
0.518600	-3.322318
0.518700	-3.411579
0.518800	-3.508305
0.518900	-3.567704
0.519000	-3.574196
0.519100	-3.560239
0.519200	-3.574520
0.519300	-3.606654
0.519400	-3.631323
0.519500	-3.660211
0.519600	-3.672545
0.519700	-3.686827
0.519800	-3.715390
0.519900	-3.755964
0.520000	-3.765052
0.520100	-3.757262
0.520200	-3.761482
0.520300	-3.791343
0.520400	-3.823477
0.520500	-3.813091
0.520600	-3.724154
0.520700	-3.659886
0.520800	-3.680335
0.520900	-3.779334
0.521000	-3.861454
0.521100	-3.877359
0.521200	-3.799133
0.521300	-3.702732
0.521400	-3.682283
0.521500	-3.750121
0.521600	-3.858208
0.521700	-3.915335
0.521800	-3.897483
0.521900	-3.843602
0.522000	-3.804651
0.522100	-3.790694
0.522200	-3.807573
0.522300	-3.826399
0.522400	-3.831267
0.522500	-3.810494
0.522600	-3.771219
0.522700	-3.730971
0.522800	-3.664106
0.522900	-3.583933
0.523000	-3.509928
0.523100	-3.461240
0.523200	-3.428133
0.523300	-3.390156
0.523400	-3.314853
0.523500	-3.220398
0.523600	-3.152236
0.523700	-3.048369
0.523800	-2.982154
0.523900	-2.918210
0.524000	-2.849399
0.524100	-2.779288
0.524200	-2.700739
0.524300	-2.617646
0.524400	-2.553703
0.524500	-2.511832
0.524600	-2.482619
0.524700	-2.449187
0.524800	-2.433607
0.524900	-2.406342
0.525000	-2.378428
0.525100	-2.344671
0.525200	-2.329416
0.525300	-2.306695
0.525400	-2.310590
0.525500	-2.315459
0.525600	-2.295984
0.525700	-2.262551
0.525800	-2.107725
0.525900	-2.002236
0.526000	-1.969453
0.526100	-2.100909
0.526200	-2.194714
0.526300	-2.163229
0.526400	-2.064231
0.526500	-1.934398
0.526600	-1.918818
0.526700	-1.968155
0.526800	-2.048976
0.526900	-2.060336
0.527000	-2.011000
0.527100	-1.930178
0.527200	-1.873052
0.527300	-1.862341
0.527400	-1.884412
0.527500	-1.909081
0.527600	-1.907782
0.527700	-1.890904
0.527800	-1.871104
0.527900	-1.858770
0.528000	-1.861042
0.528100	-1.878245
0.528200	-1.912976
0.528300	-1.919792
0.528400	-1.972374
0.528500	-2.003534
0.528600	-2.029825
0.528700	-2.022360
0.528800	-2.018465
0.528900	-2.075592
0.529000	-2.197310
0.529100	-2.260929
0.529200	-2.233664
0.529300	-2.147649
0.529400	-2.111945
0.529500	-2.167773
0.529600	-2.292089
0.529700	-2.382647
0.529800	-2.378103
0.529900	-2.303124
0.530000	-2.259955
0.530100	-2.285272
0.530200	-2.359602
0.530300	-2.416079
0.530400	-2.433931
0.530500	-2.426141
0.530600	-2.421597
0.530700	-2.454705
0.530800	-2.492032
0.530900	-2.526113
0.531000	-2.527412
0.531100	-2.538123
0.531200	-2.564414
0.531300	-2.585512
0.531400	-2.587784
0.531500	-2.565063
0.531600	-2.539746
0.531700	-2.554677
0.531800	-2.613751
0.531900	-2.647832
0.532000	-2.656596
0.532100	-2.615049
0.532200	-2.597846
0.532300	-2.608882
0.532400	-2.614725
0.532500	-2.619269
0.532600	-2.612452
0.532700	-2.611154
0.532800	-2.610505
0.532900	-2.602390
0.533000	-2.602715
0.533100	-2.603689
0.533200	-2.604987
0.533300	-2.608557
0.533400	-2.624462
0.533500	-2.629655
0.533600	-2.640367
0.533700	-2.662114
0.533800	-2.683861
0.533900	-2.714696
0.534000	-2.755918
0.534100	-2.875041
0.534200	-3.028244
0.534300	-3.099653
0.534400	-3.066221
0.534500	-2.967223
0.534600	-2.954239
0.534700	-3.057132
0.534800	-3.216179
0.534900	-3.319721
0.535000	-3.320370
0.535100	-3.260971
0.535200	-3.221372
0.535300	-3.255778
0.535400	-3.353478
0.535500	-3.446959
0.535600	-3.496945
0.535700	-3.507331
0.535800	-3.507981
0.535900	-3.514148
0.536000	-3.532000
0.536100	-3.568029
0.536200	-3.594645
0.536300	-3.620612
0.536400	-3.633920
0.536500	-3.655667
0.536600	-3.673194
0.536700	-3.680335
0.536800	-3.676116
0.536900	-3.691371
0.537000	-3.719610
0.537100	-3.744928
0.537200	-3.715390
0.537300	-3.631323
0.537400	-3.584583
0.537500	-3.631647
0.537600	-3.736488
0.537700	-3.818284
0.537800	-3.804327
0.537900	-3.698187
0.538000	-3.614444
0.538100	-3.622559
0.538200	-3.718636
0.538300	-3.814714
0.538400	-3.841005
0.538500	-3.804651
0.538600	-3.755314
0.538700	-3.727725
0.538800	-3.719610
0.538900	-3.733567
0.539000	-3.731620
0.539100	-3.729348
0.539200	-3.708899
0.539300	-3.682932
0.539400	-3.632621
0.539500	-3.553747
0.539600	-3.467732
0.539700	-3.408658
0.539800	-3.367111
0.539900	-3.333678
0.540000	-3.290184
0.540100	-3.195730
0.540200	-3.108417
0.540300	-3.028894
0.540400	-2.948397
0.540500	-2.887375
0.540600	-2.825055
0.540700	-2.755594
0.540800	-2.682887
0.540900	-2.599794
0.541000	-2.523517
0.541100	-2.460223
0.541200	-2.420299
0.541300	-2.387191
0.541400	-2.360576
0.541500	-2.349540
0.541600	-2.331688
0.541700	-2.311239
0.541800	-2.288843
0.541900	-2.269692
0.542000	-2.267096
0.542100	-2.264824
0.542200	-2.277482
0.542300	-2.272614
0.542400	-2.199258
0.542500	-2.055143
0.542600	-1.958742
0.542700	-2.012622
0.542800	-2.135964
0.542900	-2.217110
0.543000	-2.148623
0.543100	-2.033396
0.543200	-1.930828
0.543300	-1.939591
0.543400	-2.003859
0.543500	-2.073969
0.543600	-2.078837
0.543700	-2.003210
0.543800	-1.916871
0.543900	-1.850006
0.544000	-1.838971
0.544100	-1.846436
0.544200	-1.861367
0.544300	-1.844164
0.544400	-1.825987
0.544500	-1.810732
0.544600	-1.802293
0.544700	-1.798722
0.544800	-1.792880
0.544900	-1.829882
0.545000	-1.862665
0.545100	-1.904536
0.545200	-1.938942
0.545300	-1.949978
0.545400	-1.955820
0.545500	-1.957768
0.545600	-2.043782
0.545700	-2.153816
0.545800	-2.198284
0.545900	-2.155764
0.546000	-2.071697
0.546100	-2.059362
0.546200	-2.139859
0.546300	-2.261578
0.546400	-2.323898
0.546500	-2.303124
0.546600	-2.231716
0.546700	-2.211592
0.546800	-2.248919
0.546900	-2.318380
0.547000	-2.352461
0.547100	-2.360900
0.547200	-2.346943
0.547300	-2.367392
0.547400	-2.410237
0.547500	-2.449836
0.547600	-2.479373
0.547700	-2.488462
0.547800	-2.501120
0.547900	-2.532605
0.548000	-2.557598
0.548100	-2.560844
0.548200	-2.551106
0.548300	-2.540395
0.548400	-2.580643
0.548500	-2.643288
0.548600	-2.665360
0.548700	-2.646534
0.548800	-2.602715
0.548900	-2.604013
0.549000	-2.604987
0.549100	-2.604987
0.549200	-2.601417
0.549300	-2.595250
0.549400	-2.598820
0.549500	-2.592653
0.549600	-2.594276
0.549700	-2.601092
0.549800	-2.604338
0.549900	-2.613751
0.550000	-2.612777
0.550100	-2.626410
0.550200	-2.638744
0.550300	-2.649455
0.550400	-2.668930
0.550500	-2.691975
0.550600	-2.716644
0.550700	-2.775718
0.550800	-2.924053
0.550900	-3.067519
0.551000	-3.101925
0.551100	-3.020779
0.551200	-2.936712
0.551300	-2.962029
0.551400	-3.105171
0.551500	-3.272657
0.551600	-3.350232
0.551700	-3.318423
0.551800	-3.242146
0.551900	-3.224618
0.552000	-3.287912
0.552100	-3.396972
0.552200	-3.491427
0.552300	-3.514797
0.552400	-3.509928
0.552500	-3.518043
0.552600	-3.540439
0.552700	-3.573871
0.552800	-3.607628
0.552900	-3.618989
0.553000	-3.622884
0.553100	-3.643332
0.553200	-3.687476
0.553300	-3.714092
0.553400	-3.717338
0.553500	-3.706951
0.553600	-3.718312
0.553700	-3.751419
0.553800	-3.772517
0.553900	-3.715066
0.554000	-3.634893
0.554100	-3.623533
0.554200	-3.692345
0.554300	-3.810494
0.554400	-3.881254
0.554500	-3.854638
0.554600	-3.745901
0.554700	-3.677739
0.554800	-3.702082
0.554900	-3.805301
0.555000	-3.904299
0.555100	-3.925722
0.555200	-3.877359
0.555300	-3.826723
0.555400	-3.806274
0.555500	-3.815363
0.555600	-3.825425
0.555700	-3.818933
0.555800	-3.804976
0.555900	-3.783229
0.556000	-3.760832
0.556100	-3.719610
0.556200	-3.653719
0.556300	-3.592373
0.556400	-3.540114
0.556500	-3.508630
0.556600	-3.481365
0.556700	-3.437546
0.556800	-3.351531
0.556900	-3.281420
0.557000	-3.193782
0.557100	-3.133410
0.557200	-3.074660
0.557300	-3.010392
0.557400	-2.958783
0.557500	-2.879910
0.557600	-2.800711
0.557700	-2.736119
0.557800	-2.686458
0.557900	-2.649455
0.558000	-2.626410
0.558100	-2.602390
0.558200	-2.590381
0.558300	-2.575125
0.558400	-2.555326
0.558500	-2.533579
0.558600	-2.525464
0.558700	-2.521894
0.558800	-2.530008
0.558900	-2.515077
0.559000	-2.501120
0.559100	-2.386867
0.559200	-2.245673
0.559300	-2.160308
0.559400	-2.253788
0.559500	-2.380051
0.559600	-2.411211
0.559700	-2.314160
0.559800	-2.173291
0.559900	-2.086627
0.560000	-2.102857
0.560100	-2.186274
0.560200	-2.241778
0.560300	-2.221005
0.560400	-2.141807
0.560500	-2.067152
0.560600	-2.044756
0.560700	-2.051572
0.560800	-2.079487
0.560900	-2.075592
0.561000	-2.059362
0.561100	-2.039563
0.561200	-2.035668
0.561300	-2.045081
0.561400	-2.050923
0.561500	-2.078188
0.561600	-2.097014
0.561700	-2.129472
0.561800	-2.168747
0.561900	-2.206074
0.562000	-2.208022
0.562100	-2.204451
0.562200	-2.218408
0.562300	-2.323573
0.562400	-2.404394
0.562500	-2.419974
0.562600	-2.374208
0.562700	-2.291764
0.562800	-2.305396
0.562900	-2.394981
0.563000	-2.502743
0.563100	-2.554352
0.563200	-2.512481
0.563300	-2.443344
0.563400	-2.430036
0.563500	-2.493006
0.563600	-2.576099
0.563700	-2.610505
0.563800	-2.620892
0.563900	-2.608882
0.564000	-2.620242
0.564100	-2.660166
0.564200	-2.713073
0.564300	-2.746181
0.564400	-2.756892
0.564500	-2.766954
0.564600	-2.782210
0.564700	-2.789351
0.564800	-2.783833
0.564900	-2.773446
0.565000	-2.775718
0.565100	-2.817589
0.565200	-2.866277
0.565300	-2.881857
0.565400	-2.858487
0.565500	-2.837389
0.565600	-2.846802
0.565700	-2.843556
0.565800	-2.841609
0.565900	-2.846477
0.566000	-2.839661
0.566100	-2.837714
0.566200	-2.834468
0.566300	-2.828301
0.566400	-2.829599
0.566500	-2.830248
0.566600	-2.831871
0.566700	-2.834792
0.566800	-2.840959
0.566900	-2.849074
0.567000	-2.854917
0.567100	-2.873418
0.567200	-2.893542
0.567300	-2.917886
0.567400	-2.995786
0.567500	-3.146069
0.567600	-3.262270
0.567700	-3.251559
0.567800	-3.160675
0.567900	-3.081476
0.568000	-3.135033
0.568100	-3.282394
0.568200	-3.422290
0.568300	-3.455722
0.568400	-3.411579
0.568500	-3.348934
0.568600	-3.352504
0.568700	-3.432028
0.568800	-3.529728
0.568900	-3.595618
0.569000	-3.592373
0.569100	-3.588153
0.569200	-3.594645
0.569300	-3.613471
0.569400	-3.646578
0.569500	-3.669624
0.569600	-3.672870
0.569700	-3.675142
0.569800	-3.699161
0.569900	-3.723505
0.570000	-3.736813
0.570100	-3.729997
0.570200	-3.728374
0.570300	-3.756937
0.570400	-3.777711
0.570500	-3.767973
0.570600	-3.692020
0.570700	-3.616067
0.570800	-3.628726
0.570900	-3.709548
0.571000	-3.809845
0.571100	-3.835487
0.571200	-3.771868
0.571300	-3.676765
0.571400	-3.644306
0.571500	-3.702407
0.571600	-3.806274
0.571700	-3.869893
0.571800	-3.850743
0.571900	-3.791993
0.572000	-3.746875
0.572100	-3.747524
0.572200	-3.759859
0.572300	-3.766026
0.572400	-3.753367
0.572500	-3.731620
0.572600	-3.693968
0.572700	-3.658263
0.572800	-3.602110
0.572900	-3.532000
0.573000	-3.461889
0.573100	-3.405412
0.573200	-3.366786
0.573300	-3.323292
0.573400	-3.245391
0.573500	-3.141849
0.573600	-3.060054
0.573700	-2.961705
0.573800	-2.895165
0.573900	-2.825704
0.574000	-2.765331
0.574100	-2.684835
0.574200	-2.605636
0.574300	-2.516376
0.574400	-2.451459
0.574500	-2.399850
0.574600	-2.365120
0.574700	-2.339153
0.574800	-2.317081
0.574900	-2.299554
0.575000	-2.269368
0.575100	-2.253463
0.575200	-2.224575
0.575300	-2.217759
0.575400	-2.219382
0.575500	-2.217434
0.575600	-2.218084
0.575700	-2.150895
0.575800	-2.037940
0.575900	-1.891228
0.576000	-1.879219
0.576100	-2.001587
0.576200	-2.115840
0.576300	-2.110971
0.576400	-1.993148
0.576500	-1.884412
0.576600	-1.842216
0.576700	-1.897071
0.576800	-1.981787
0.576900	-1.991200
0.577000	-1.954847
0.577100	-1.856174
0.577200	-1.808460
0.577300	-1.790932
0.577400	-1.802617
0.577500	-1.815601
0.577600	-1.810407
0.577700	-1.805539
0.577800	-1.799372
0.577900	-1.801644
0.578000	-1.807811
0.578100	-1.817873
0.578200	-1.847734
0.578300	-1.897071
0.578400	-1.947057
0.578500	-1.994121
0.578600	-2.019439
0.578700	-2.016517
0.578800	-2.034694
0.578900	-2.088900
0.579000	-2.216785
0.579100	-2.282676
0.579200	-2.276509
0.579300	-2.204776
0.579400	-2.159334
0.579500	-2.210943
0.579600	-2.323249
0.579700	-2.411535
0.579800	-2.414132
0.579900	-2.344996
0.580000	-2.293062
0.580100	-2.316757
0.580200	-2.400824
0.580300	-2.463469
0.580400	-2.473531
0.580500	-2.462170
0.580600	-2.458924
0.580700	-2.497550
0.580800	-2.540395
0.580900	-2.570906
0.581000	-2.577397
0.581100	-2.587459
0.581200	-2.619269
0.581300	-2.643288
0.581400	-2.648481
0.581500	-2.640367
0.581600	-2.630629
0.581700	-2.652376
0.581800	-2.715670
0.581900	-2.759813
0.582000	-2.767928
0.582100	-2.765656
0.582200	-2.750076
0.582300	-2.752023
0.582400	-2.752023
0.582500	-2.747804
0.582600	-2.739689
0.582700	-2.726706
0.582800	-2.716644
0.582900	-2.701713
0.583000	-2.694897
0.583100	-2.683861
0.583200	-2.676395
0.583300	-2.674773
0.583400	-2.672176
0.583500	-2.671202
0.583600	-2.676720
0.583700	-2.679641
0.583800	-2.692625
0.583900	-2.711126
0.584000	-2.748128
0.584100	-2.854267
0.584200	-3.012989
0.584300	-3.100302
0.584400	-3.062001
0.584500	-2.968521
0.584600	-2.937361
0.584700	-3.038307
0.584800	-3.205792
0.584900	-3.320695
0.585000	-3.320046
0.585100	-3.243769
0.585200	-3.195405
0.585300	-3.238900
0.585400	-3.348609
0.585500	-3.448257
0.585600	-3.489804
0.585700	-3.481365
0.585800	-3.467407
0.585900	-3.490778
0.586000	-3.527131
0.586100	-3.561212
0.586200	-3.586205
0.586300	-3.591723
0.586400	-3.605031
0.586500	-3.631647
0.586600	-3.656965
0.586700	-3.671896
0.586800	-3.666053
0.586900	-3.677089
0.587000	-3.698512
0.587100	-3.727725
0.587200	-3.703056
0.587300	-3.624182
0.587400	-3.570625
0.587500	-3.599838
0.587600	-3.698187
0.587700	-3.792317
0.587800	-3.783878
0.587900	-3.684555
0.588000	-3.595943
0.588100	-3.598864
0.588200	-3.681634
0.588300	-3.789720
0.588400	-3.836461
0.588500	-3.798809
0.588600	-3.738436
0.588700	-3.715390
0.588800	-3.732269
0.588900	-3.761482
0.589000	-3.770570
0.589100	-3.751095
0.589200	-3.719935
0.589300	-3.676765
0.589400	-3.648526
0.589500	-3.599838
0.589600	-3.528429
0.589700	-3.463837
0.589800	-3.413526
0.589900	-3.374576
0.590000	-3.319721
0.590100	-3.227864
0.590200	-3.128216
0.590300	-3.008120
0.590400	-2.932168
0.590500	-2.865628
0.590600	-2.802334
0.590700	-2.729952
0.590800	-2.650753
0.590900	-2.564739
0.591000	-2.478075
0.591100	-2.415755
0.591200	-2.375831
0.591300	-2.343697
0.591400	-2.321626
0.591500	-2.296957
0.591600	-2.279105
0.591700	-2.250217
0.591800	-2.232690
0.591900	-2.207048
0.592000	-2.208022
0.592100	-2.204127
0.592200	-2.209644
0.592300	-2.188871
0.592400	-2.129148
0.592500	-1.974971
0.592600	-1.879868
0.592700	-1.891878
0.592800	-2.036642
0.592900	-2.104479
0.593000	-2.074293
0.593100	-1.936346
0.593200	-1.843190
0.593300	-1.826312
0.593400	-1.901615
0.593500	-1.991849
0.593600	-1.995420
0.593700	-1.937319
0.593800	-1.848059
0.593900	-1.797099
0.594000	-1.814302
0.594100	-1.846761
0.594200	-1.879219
0.594300	-1.867859
0.594400	-1.850656
0.594500	-1.830856
0.594600	-1.837023
0.594700	-1.845787
0.594800	-1.864937
0.594900	-1.899992
0.595000	-1.930828
0.595100	-1.961338
0.595200	-2.014570
0.595300	-2.028202
0.595400	-2.044107
0.595500	-2.038589
0.595600	-2.119735
0.595700	-2.220356
0.595800	-2.270666
0.595900	-2.262227
0.596000	-2.186274
0.596100	-2.161931
0.596200	-2.222303
0.596300	-2.342074
0.596400	-2.410561
0.596500	-2.397578
0.596600	-2.334284
0.596700	-2.295010
0.596800	-2.328766
0.596900	-2.402771
0.597000	-2.454056
0.597100	-2.475478
0.597200	-2.467688
0.597300	-2.480347
0.597400	-2.510858
