LabVIEW Measurement	
Writer_Version	2
Reader_Version	2
Separator	Tab
Decimal_Separator	.
Multi_Headings	Yes
X_Columns	One
Time_Pref	Relative
Operator	as989
Description	Time Domain Data
Date	1903/12/31
Time	19:00:00
***End_of_Header***	
	
Channels	1	
Samples	15000	
Date	1903/12/31	
Time	19:00:00	
X_Dimension	Time	
X0	0.0000000000000000E+0	
Delta_X	0.000100	
***End_of_Header***		
X_Value	Untitled	Comment
0.000000	-2.283649	Tare Values:0.000000, 0.000000, 0.000000, 0.000000\0D\0A
0.000100	-2.298256
0.000200	-2.313186
0.000300	-2.346294
0.000400	-2.368366
0.000500	-2.374208
0.000600	-2.391086
0.000700	-2.418027
0.000800	-2.443994
0.000900	-2.420299
0.001000	-2.336881
0.001100	-2.287869
0.001200	-2.339478
0.001300	-2.451459
0.001400	-2.529359
0.001500	-2.531956
0.001600	-2.444643
0.001700	-2.367067
0.001800	-2.374208
0.001900	-2.465741
0.002000	-2.572853
0.002100	-2.617321
0.002200	-2.586486
0.002300	-2.535851
0.002400	-2.502743
0.002500	-2.514104
0.002600	-2.538772
0.002700	-2.543965
0.002800	-2.528710
0.002900	-2.503392
0.003000	-2.472232
0.003100	-2.433607
0.003200	-2.364795
0.003300	-2.283000
0.003400	-2.201205
0.003500	-2.147324
0.003600	-2.102207
0.003700	-2.056117
0.003800	-1.959391
0.003900	-1.858121
0.004000	-1.731858
0.004100	-1.628966
0.004200	-1.562751
0.004300	-1.501729
0.004400	-1.425777
0.004500	-1.354369
0.004600	-1.270302
0.004700	-1.196297
0.004800	-1.128460
0.004900	-1.094054
0.005000	-1.070035
0.005100	-1.046990
0.005200	-1.037901
0.005300	-1.023620
0.005400	-0.998951
0.005500	-0.984994
0.005600	-0.969414
0.005700	-0.978827
0.005800	-0.980775
0.005900	-1.007066
0.006000	-0.979801
0.006100	-0.912288
0.006200	-0.762980
0.006300	-0.656517
0.006400	-0.710723
0.006500	-0.832765
0.006600	-0.916832
0.006700	-0.847696
0.006800	-0.737987
0.006900	-0.637367
0.007000	-0.637042
0.007100	-0.698713
0.007200	-0.751620
0.007300	-0.748049
0.007400	-0.679563
0.007500	-0.607181
0.007600	-0.555572
0.007700	-0.547133
0.007800	-0.554923
0.007900	-0.565634
0.008000	-0.561739
0.008100	-0.546809
0.008200	-0.537396
0.008300	-0.532852
0.008400	-0.538694
0.008500	-0.553300
0.008600	-0.582837
0.008700	-0.603611
0.008800	-0.656517
0.008900	-0.685405
0.009000	-0.707477
0.009100	-0.693520
0.009200	-0.708775
0.009300	-0.772718
0.009400	-0.898006
0.009500	-0.943448
0.009600	-0.894111
0.009700	-0.837634
0.009800	-0.819782
0.009900	-0.896383
0.010000	-1.021348
0.010100	-1.085615
0.010200	-1.070035
0.010300	-0.983371
0.010400	-0.949290
0.010500	-0.986942
0.010600	-1.058350
0.010700	-1.090484
0.010800	-1.089185
0.010900	-1.061596
0.011000	-1.059973
0.011100	-1.083667
0.011200	-1.118398
0.011300	-1.132030
0.011400	-1.124240
0.011500	-1.119696
0.011600	-1.137548
0.011700	-1.153777
0.011800	-1.148259
0.011900	-1.136899
0.012000	-1.121319
0.012100	-1.150531
0.012200	-1.199219
0.012300	-1.237844
0.012400	-1.250503
0.012500	-1.259591
0.012600	-1.256020
0.012700	-1.269004
0.012800	-1.273223
0.012900	-1.274846
0.013000	-1.270627
0.013100	-1.272574
0.013200	-1.274522
0.013300	-1.269328
0.013400	-1.276794
0.013500	-1.269004
0.013600	-1.265758
0.013700	-1.273548
0.013800	-1.274846
0.013900	-1.273548
0.014000	-1.270951
0.014100	-1.285882
0.014200	-1.300813
0.014300	-1.330350
0.014400	-1.384880
0.014500	-1.536784
0.014600	-1.672135
0.014700	-1.706216
0.014800	-1.625071
0.014900	-1.543600
0.015000	-1.564374
0.015100	-1.700698
0.015200	-1.847085
0.015300	-1.924336
0.015400	-1.910703
0.015500	-1.863639
0.015600	-1.857147
0.015700	-1.909730
0.015800	-2.002560
0.015900	-2.071047
0.016000	-2.116164
0.016100	-2.113568
0.016200	-2.113892
0.016300	-2.126551
0.016400	-2.163229
0.016500	-2.189196
0.016600	-2.218408
0.016700	-2.238208
0.016800	-2.250866
0.016900	-2.283325
0.017000	-2.326170
0.017100	-2.341425
0.017200	-2.348241
0.017300	-2.360900
0.017400	-2.390762
0.017500	-2.410237
0.017600	-2.384270
0.017700	-2.298580
0.017800	-2.279105
0.017900	-2.343373
0.018000	-2.453731
0.018100	-2.519946
0.018200	-2.491707
0.018300	-2.390113
0.018400	-2.327144
0.018500	-2.353435
0.018600	-2.460223
0.018700	-2.552729
0.018800	-2.565388
0.018900	-2.517674
0.019000	-2.474180
0.019100	-2.467039
0.019200	-2.492357
0.019300	-2.508910
0.019400	-2.501120
0.019500	-2.478724
0.019600	-2.449511
0.019700	-2.431984
0.019800	-2.399850
0.019900	-2.338504
0.020000	-2.270666
0.020100	-2.208671
0.020200	-2.180432
0.020300	-2.155764
0.020400	-2.109997
0.020500	-2.019439
0.020600	-1.924661
0.020700	-1.802942
0.020800	-1.726340
0.020900	-1.667266
0.021000	-1.605271
0.021100	-1.545223
0.021200	-1.469920
0.021300	-1.383906
0.021400	-1.315744
0.021500	-1.265109
0.021600	-1.224536
0.021700	-1.203438
0.021800	-1.181367
0.021900	-1.161892
0.022000	-1.144364
0.022100	-1.114503
0.022200	-1.104441
0.022300	-1.076202
0.022400	-1.089185
0.022500	-1.085290
0.022600	-1.109634
0.022700	-1.074254
0.022800	-1.003171
0.022900	-0.848021
0.023000	-0.789596
0.023100	-0.877558
0.023200	-1.000250
0.023300	-1.047639
0.023400	-0.964221
0.023500	-0.848345
0.023600	-0.775964
0.023700	-0.799009
0.023800	-0.887620
0.023900	-0.940202
0.024000	-0.929166
0.024100	-0.861004
0.024200	-0.793816
0.024300	-0.761682
0.024400	-0.750971
0.024500	-0.772718
0.024600	-0.784403
0.024700	-0.782131
0.024800	-0.762006
0.024900	-0.757462
0.025000	-0.749023
0.025100	-0.754541
0.025200	-0.771095
0.025300	-0.806474
0.025400	-0.815563
0.025500	-0.860355
0.025600	-0.888593
0.025700	-0.898980
0.025800	-0.896383
0.025900	-0.902226
0.026000	-1.014207
0.026100	-1.110283
0.026200	-1.134951
0.026300	-1.073930
0.026400	-1.034655
0.026500	-1.040822
0.026600	-1.145987
0.026700	-1.261538
0.026800	-1.310226
0.026900	-1.265758
0.027000	-1.210254
0.027100	-1.206684
0.027200	-1.275171
0.027300	-1.354044
0.027400	-1.392670
0.027500	-1.406302
0.027600	-1.399810
0.027700	-1.425777
0.027800	-1.458884
0.027900	-1.513090
0.028000	-1.547820
0.028100	-1.565023
0.028200	-1.594884
0.028300	-1.628641
0.028400	-1.632861
0.028500	-1.614035
0.028600	-1.587744
0.028700	-1.574111
0.028800	-1.605271
0.028900	-1.640651
0.029000	-1.652011
0.029100	-1.602674
0.029200	-1.563725
0.029300	-1.557557
0.029400	-1.552040
0.029500	-1.545223
0.029600	-1.539705
0.029700	-1.533214
0.029800	-1.529319
0.029900	-1.522827
0.030000	-1.515686
0.030100	-1.512765
0.030200	-1.516660
0.030300	-1.516985
0.030400	-1.525424
0.030500	-1.534837
0.030600	-1.537109
0.030700	-1.547820
0.030800	-1.553987
0.030900	-1.575410
0.031000	-1.599104
0.031100	-1.680899
0.031200	-1.845787
0.031300	-1.961338
0.031400	-1.960365
0.031500	-1.873052
0.031600	-1.819820
0.031700	-1.872727
0.031800	-2.026904
0.031900	-2.154141
0.032000	-2.205425
0.032100	-2.174914
0.032200	-2.130446
0.032300	-2.145052
0.032400	-2.228146
0.032500	-2.322599
0.032600	-2.378103
0.032700	-2.404070
0.032800	-2.403421
0.032900	-2.406342
0.033000	-2.423869
0.033100	-2.456328
0.033200	-2.483593
0.033300	-2.508586
0.033400	-2.527736
0.033500	-2.546237
0.033600	-2.563440
0.033700	-2.590705
0.033800	-2.593302
0.033900	-2.601092
0.034000	-2.616997
0.034100	-2.641016
0.034200	-2.643288
0.034300	-2.593302
0.034400	-2.522543
0.034500	-2.526762
0.034600	-2.625760
0.034700	-2.730601
0.034800	-2.770525
0.034900	-2.705283
0.035000	-2.609207
0.035100	-2.583889
0.035200	-2.651727
0.035300	-2.762410
0.035400	-2.822458
0.035500	-2.806878
0.035600	-2.753646
0.035700	-2.715021
0.035800	-2.714372
0.035900	-2.726057
0.036000	-2.737093
0.036100	-2.727355
0.036200	-2.719565
0.036300	-2.698792
0.036400	-2.667307
0.036500	-2.614400
0.036600	-2.537474
0.036700	-2.461846
0.036800	-2.413158
0.036900	-2.373884
0.037000	-2.345320
0.037100	-2.279105
0.037200	-2.173616
0.037300	-2.073969
0.037400	-1.960365
0.037500	-1.899018
0.037600	-1.843515
0.037700	-1.778274
0.037800	-1.709462
0.037900	-1.629615
0.038000	-1.542951
0.038100	-1.477710
0.038200	-1.430970
0.038300	-1.399810
0.038400	-1.368001
0.038500	-1.340736
0.038600	-1.327429
0.038700	-1.301137
0.038800	-1.275820
0.038900	-1.254398
0.039000	-1.234923
0.039100	-1.232001
0.039200	-1.232326
0.039300	-1.235247
0.039400	-1.191429
0.039500	-1.067114
0.039600	-0.936632
0.039700	-0.900928
0.039800	-1.026865
0.039900	-1.132355
0.040000	-1.115801
0.040100	-1.021348
0.040200	-0.885023
0.040300	-0.851916
0.040400	-0.893787
0.040500	-0.975581
0.040600	-0.998627
0.040700	-0.953185
0.040800	-0.891190
0.040900	-0.838283
0.041000	-0.837959
0.041100	-0.836985
0.041200	-0.852565
0.041300	-0.851916
0.041400	-0.848021
0.041500	-0.836011
0.041600	-0.835687
0.041700	-0.839906
0.041800	-0.844450
0.041900	-0.877233
0.042000	-0.895085
0.042100	-0.940202
0.042200	-0.977204
0.042300	-0.999276
0.042400	-0.992135
0.042500	-0.986293
0.042600	-1.030760
0.042700	-1.151505
0.042800	-1.239791
0.042900	-1.229080
0.043000	-1.146636
0.043100	-1.099247
0.043200	-1.142092
0.043300	-1.272574
0.043400	-1.382283
0.043500	-1.395591
0.043600	-1.312173
0.043700	-1.256670
0.043800	-1.289128
0.043900	-1.393319
0.044000	-1.466674
0.044100	-1.487123
0.044200	-1.482254
0.044300	-1.482579
0.044400	-1.526073
0.044500	-1.568918
0.044600	-1.623448
0.044700	-1.636431
0.044800	-1.650064
0.044900	-1.671161
0.045000	-1.670512
0.045100	-1.661099
0.045200	-1.639677
0.045300	-1.616956
0.045400	-1.622474
0.045500	-1.677328
0.045600	-1.721796
0.045700	-1.738999
0.045800	-1.742894
0.045900	-1.723744
0.046000	-1.727639
0.046100	-1.721147
0.046200	-1.712708
0.046300	-1.705567
0.046400	-1.701023
0.046500	-1.696154
0.046600	-1.695505
0.046700	-1.686417
0.046800	-1.684469
0.046900	-1.687066
0.047000	-1.694531
0.047100	-1.708488
0.047200	-1.722445
0.047300	-1.734780
0.047400	-1.748412
0.047500	-1.767562
0.047600	-1.796126
0.047700	-1.832154
0.047800	-1.944135
0.047900	-2.107725
0.048000	-2.198933
0.048100	-2.169072
0.048200	-2.071372
0.048300	-2.047028
0.048400	-2.134341
0.048500	-2.313836
0.048600	-2.433282
0.048700	-2.458600
0.048800	-2.396929
0.048900	-2.354084
0.049000	-2.396280
0.049100	-2.495927
0.049200	-2.599469
0.049300	-2.642314
0.049400	-2.652376
0.049500	-2.640042
0.049600	-2.650753
0.049700	-2.691002
0.049800	-2.725408
0.049900	-2.743260
0.050000	-2.759813
0.050100	-2.771823
0.050200	-2.793570
0.050300	-2.828950
0.050400	-2.858487
0.050500	-2.869523
0.050600	-2.875690
0.050700	-2.901007
0.050800	-2.936063
0.050900	-2.938984
0.051000	-2.868874
0.051100	-2.811747
0.051200	-2.851346
0.051300	-2.975337
0.051400	-3.075634
0.051500	-3.093810
0.051600	-3.003576
0.051700	-2.913342
0.051800	-2.900683
0.051900	-2.996111
0.052000	-3.104846
0.052100	-3.155482
0.052200	-3.111338
0.052300	-3.035710
0.052400	-3.002278
0.052500	-3.003901
0.052600	-3.018507
0.052700	-3.023700
0.052800	-3.008445
0.052900	-2.991891
0.053000	-2.960731
0.053100	-2.925676
0.053200	-2.864979
0.053300	-2.784806
0.053400	-2.714696
0.053500	-2.671851
0.053600	-2.633550
0.053700	-2.592977
0.053800	-2.501120
0.053900	-2.401473
0.054000	-2.270991
0.054100	-2.174914
0.054200	-2.112594
0.054300	-2.062284
0.054400	-1.992498
0.054500	-1.920441
0.054600	-1.827935
0.054700	-1.742894
0.054800	-1.678627
0.054900	-1.633185
0.055000	-1.606569
0.055100	-1.578331
0.055200	-1.563725
0.055300	-1.530942
0.055400	-1.515686
0.055500	-1.496211
0.055600	-1.479333
0.055700	-1.466999
0.055800	-1.464078
0.055900	-1.477386
0.056000	-1.466350
0.056100	-1.409223
0.056200	-1.256020
0.056300	-1.150856
0.056400	-1.172927
0.056500	-1.310875
0.056600	-1.411495
0.056700	-1.359887
0.056800	-1.259915
0.056900	-1.139495
0.057000	-1.128784
0.057100	-1.189806
0.057200	-1.278417
0.057300	-1.299839
0.057400	-1.250503
0.057500	-1.187534
0.057600	-1.136574
0.057700	-1.140145
0.057800	-1.153452
0.057900	-1.185262
0.058000	-1.187209
0.058100	-1.181691
0.058200	-1.170980
0.058300	-1.168708
0.058400	-1.166436
0.058500	-1.178445
0.058600	-1.223887
0.058700	-1.240116
0.058800	-1.286531
0.058900	-1.332622
0.059000	-1.352746
0.059100	-1.353395
0.059200	-1.354044
0.059300	-1.419935
0.059400	-1.546197
0.059500	-1.601701
0.059600	-1.563075
0.059700	-1.483877
0.059800	-1.449472
0.059900	-1.513739
0.060000	-1.655906
0.060100	-1.735104
0.060200	-1.730885
0.060300	-1.648116
0.060400	-1.599429
0.060500	-1.629290
0.060600	-1.707190
0.060700	-1.751982
0.060800	-1.768536
0.060900	-1.762045
0.061000	-1.769185
0.061100	-1.793204
0.061200	-1.826637
0.061300	-1.847085
0.061400	-1.858121
0.061500	-1.883114
0.061600	-1.909730
0.061700	-1.933100
0.061800	-1.928556
0.061900	-1.920441
0.062000	-1.913625
0.062100	-1.944135
0.062200	-2.012622
0.062300	-2.060985
0.062400	-2.073320
0.062500	-2.061310
0.062600	-2.051897
0.062700	-2.065205
0.062800	-2.062608
0.062900	-2.063907
0.063000	-2.060985
0.063100	-2.058064
0.063200	-2.037940
0.063300	-2.032747
0.063400	-2.027553
0.063500	-2.027553
0.063600	-2.031448
0.063700	-2.042809
0.063800	-2.045081
0.063900	-2.050599
0.064000	-2.055143
0.064100	-2.065530
0.064200	-2.092145
0.064300	-2.121358
0.064400	-2.179134
0.064500	-2.310590
0.064600	-2.471259
0.064700	-2.526113
0.064800	-2.466714
0.064900	-2.388490
0.065000	-2.397903
0.065100	-2.521244
0.065200	-2.684510
0.065300	-2.786105
0.065400	-2.784806
0.065500	-2.729303
0.065600	-2.708529
0.065700	-2.751699
0.065800	-2.843232
0.065900	-2.923404
0.066000	-2.972416
0.066100	-2.986373
0.066200	-2.986698
0.066300	-2.998707
0.066400	-3.007146
0.066500	-3.035061
0.066600	-3.056159
0.066700	-3.077906
0.066800	-3.096407
0.066900	-3.114584
0.067000	-3.149639
0.067100	-3.152560
0.067200	-3.151262
0.067300	-3.169763
0.067400	-3.195405
0.067500	-3.211635
0.067600	-3.163272
0.067700	-3.071414
0.067800	-3.026622
0.067900	-3.080178
0.068000	-3.191835
0.068100	-3.273955
0.068200	-3.251883
0.068300	-3.143796
0.068400	-3.058755
0.068500	-3.071739
0.068600	-3.169439
0.068700	-3.261621
0.068800	-3.279473
0.068900	-3.228838
0.069000	-3.174307
0.069100	-3.150613
0.069200	-3.151911
0.069300	-3.146718
0.069400	-3.134059
0.069500	-3.124646
0.069600	-3.105171
0.069700	-3.086020
0.069800	-3.045447
0.069900	-2.974039
0.070000	-2.892244
0.070100	-2.824730
0.070200	-2.790974
0.070300	-2.761761
0.070400	-2.717942
0.070500	-2.621865
0.070600	-2.529034
0.070700	-2.403421
0.070800	-2.322275
0.070900	-2.272614
0.071000	-2.219057
0.071100	-2.147974
0.071200	-2.083057
0.071300	-2.008078
0.071400	-1.940565
0.071500	-1.879544
0.071600	-1.845462
0.071700	-1.812355
0.071800	-1.788985
0.071900	-1.777300
0.072000	-1.768212
0.072100	-1.746465
0.072200	-1.721796
0.072300	-1.717577
0.072400	-1.699725
0.072500	-1.720823
0.072600	-1.716603
0.072700	-1.719200
0.072800	-1.621500
0.072900	-1.478684
0.073000	-1.384880
0.073100	-1.443304
0.073200	-1.588393
0.073300	-1.627992
0.073400	-1.566321
0.073500	-1.442006
0.073600	-1.359238
0.073700	-1.371247
0.073800	-1.435839
0.073900	-1.501405
0.074000	-1.487448
0.074100	-1.427725
0.074200	-1.351123
0.074300	-1.317691
0.074400	-1.312822
0.074500	-1.312822
0.074600	-1.319963
0.074700	-1.320288
0.074800	-1.312822
0.074900	-1.317042
0.075000	-1.311199
0.075100	-1.298216
0.075200	-1.306331
0.075300	-1.322235
0.075400	-1.367677
0.075500	-1.411495
0.075600	-1.458884
0.075700	-1.464402
0.075800	-1.465376
0.075900	-1.469920
0.076000	-1.577032
0.076100	-1.689338
0.076200	-1.724393
0.076300	-1.676030
0.076400	-1.610464
0.076500	-1.608192
0.076600	-1.705243
0.076700	-1.833777
0.076800	-1.889930
0.076900	-1.850656
0.077000	-1.779247
0.077100	-1.756527
0.077200	-1.822092
0.077300	-1.892527
0.077400	-1.917195
0.077500	-1.930503
0.077600	-1.928880
0.077700	-1.963610
0.077800	-1.998665
0.077900	-2.031448
0.078000	-2.051248
0.078100	-2.057090
0.078200	-2.079162
0.078300	-2.116164
0.078400	-2.128823
0.078500	-2.117787
0.078600	-2.104804
0.078700	-2.089224
0.078800	-2.121682
0.078900	-2.166799
0.079000	-2.187573
0.079100	-2.188547
0.079200	-2.172317
0.079300	-2.167124
0.079400	-2.173940
0.079500	-2.169072
0.079600	-2.163878
0.079700	-2.163554
0.079800	-2.164203
0.079900	-2.164527
0.080000	-2.160308
0.080100	-2.166475
0.080200	-2.174914
0.080300	-2.184652
0.080400	-2.197310
0.080500	-2.209969
0.080600	-2.227821
0.080700	-2.244699
0.080800	-2.267096
0.080900	-2.306046
0.081000	-2.346943
0.081100	-2.427440
0.081200	-2.586486
0.081300	-2.732548
0.081400	-2.752023
0.081500	-2.679641
0.081600	-2.610180
0.081700	-2.653999
0.081800	-2.793246
0.081900	-2.950993
0.082000	-3.021104
0.082100	-2.993189
0.082200	-2.937361
0.082300	-2.929895
0.082400	-3.001304
0.082500	-3.098030
0.082600	-3.170088
0.082700	-3.190212
0.082800	-3.188914
0.082900	-3.196704
0.083000	-3.219425
0.083100	-3.247339
0.083200	-3.287263
0.083300	-3.306738
0.083400	-3.331731
0.083500	-3.349583
0.083600	-3.376199
0.083700	-3.408008
0.083800	-3.415798
0.083900	-3.416772
0.084000	-3.430405
0.084100	-3.452476
0.084200	-3.469355
0.084300	-3.417421
0.084400	-3.331082
0.084500	-3.319397
0.084600	-3.408333
0.084700	-3.518367
0.084800	-3.574196
0.084900	-3.515771
0.085000	-3.408658
0.085100	-3.358671
0.085200	-3.418070
0.085300	-3.534921
0.085400	-3.620287
0.085500	-3.621910
0.085600	-3.565757
0.085700	-3.520315
0.085800	-3.522262
0.085900	-3.538491
0.086000	-3.543685
0.086100	-3.542711
0.086200	-3.532974
0.086300	-3.523885
0.086400	-3.506682
0.086500	-3.465460
0.086600	-3.388858
0.086700	-3.317125
0.086800	-3.264542
0.086900	-3.229811
0.087000	-3.203195
0.087100	-3.148341
0.087200	-3.050641
0.087300	-2.943853
0.087400	-2.829599
0.087500	-2.765007
0.087600	-2.707555
0.087700	-2.651402
0.087800	-2.583240
0.087900	-2.512481
0.088000	-2.424843
0.088100	-2.355707
0.088200	-2.300852
0.088300	-2.267420
0.088400	-2.249244
0.088500	-2.222303
0.088600	-2.216785
0.088700	-2.186599
0.088800	-2.183029
0.088900	-2.142780
0.089000	-2.141807
0.089100	-2.129148
0.089200	-2.146675
0.089300	-2.149597
0.089400	-2.118437
0.089500	-2.003534
0.089600	-1.859744
0.089700	-1.816574
0.089800	-1.912326
0.089900	-2.045730
0.090000	-2.057740
0.090100	-1.966207
0.090200	-1.847085
0.090300	-1.781844
0.090400	-1.810407
0.090500	-1.882465
0.090600	-1.923038
0.090700	-1.895773
0.090800	-1.821443
0.090900	-1.758150
0.091000	-1.730235
0.091100	-1.730560
0.091200	-1.740947
0.091300	-1.757176
0.091400	-1.763018
0.091500	-1.750360
0.091600	-1.757825
0.091700	-1.756851
0.091800	-1.762694
0.091900	-1.798398
0.092000	-1.833453
0.092100	-1.887333
0.092200	-1.933100
0.092300	-1.973023
0.092400	-1.980489
0.092500	-1.984708
0.092600	-2.010350
0.092700	-2.123630
0.092800	-2.230093
0.092900	-2.234637
0.093000	-2.164203
0.093100	-2.101234
0.093200	-2.120059
0.093300	-2.231716
0.093400	-2.344671
0.093500	-2.369015
0.093600	-2.298580
0.093700	-2.231716
0.093800	-2.235286
0.093900	-2.314809
0.094000	-2.383621
0.094100	-2.404394
0.094200	-2.400824
0.094300	-2.399201
0.094400	-2.428414
0.094500	-2.471583
0.094600	-2.499822
0.094700	-2.507287
0.094800	-2.516700
0.094900	-2.541044
0.095000	-2.567660
0.095100	-2.578047
0.095200	-2.565388
0.095300	-2.538123
0.095400	-2.547860
0.095500	-2.607908
0.095600	-2.652376
0.095700	-2.671527
0.095800	-2.678992
0.095900	-2.660491
0.096000	-2.674448
0.096100	-2.677694
0.096200	-2.675422
0.096300	-2.672825
0.096400	-2.672500
0.096500	-2.670228
0.096600	-2.666009
0.096700	-2.662438
0.096800	-2.657570
0.096900	-2.654648
0.097000	-2.663412
0.097100	-2.670878
0.097200	-2.688730
0.097300	-2.700090
0.097400	-2.713398
0.097500	-2.734496
0.097600	-2.758515
0.097700	-2.790000
0.097800	-2.888998
0.097900	-3.053562
0.098000	-3.153859
0.098100	-3.139252
0.098200	-3.047070
0.098300	-3.000979
0.098400	-3.075958
0.098500	-3.221372
0.098600	-3.345688
0.098700	-3.375874
0.098800	-3.319072
0.098900	-3.269735
0.099000	-3.286289
0.099100	-3.369707
0.099200	-3.449880
0.099300	-3.489155
0.099400	-3.494023
0.099500	-3.493050
0.099600	-3.500515
0.099700	-3.510902
0.099800	-3.530052
0.099900	-3.543685
0.100000	-3.559265
0.100100	-3.574196
0.100200	-3.592697
0.100300	-3.630349
0.100400	-3.646578
0.100500	-3.649500
0.100600	-3.650473
0.100700	-3.678388
0.100800	-3.707925
0.100900	-3.715390
0.101000	-3.645280
0.101100	-3.585881
0.101200	-3.607628
0.101300	-3.722856
0.101400	-3.817310
0.101500	-3.847497
0.101600	-3.759209
0.101700	-3.660211
0.101800	-3.634569
0.101900	-3.717338
0.102000	-3.831917
0.102100	-3.885149
0.102200	-3.853339
0.102300	-3.790045
0.102400	-3.764403
0.102500	-3.776088
0.102600	-3.788747
0.102700	-3.782580
0.102800	-3.766026
0.102900	-3.751419
0.103000	-3.730646
0.103100	-3.704030
0.103200	-3.660211
0.103300	-3.581986
0.103400	-3.508305
0.103500	-3.459942
0.103600	-3.427483
0.103700	-3.399569
0.103800	-3.319072
0.103900	-3.225592
0.104000	-3.102250
0.104100	-2.999356
0.104200	-2.939308
0.104300	-2.890621
0.104400	-2.824081
0.104500	-2.751050
0.104600	-2.679966
0.104700	-2.596548
0.104800	-2.536500
0.104900	-2.493655
0.105000	-2.468013
0.105100	-2.432633
0.105200	-2.409263
0.105300	-2.393034
0.105400	-2.369339
0.105500	-2.351812
0.105600	-2.316432
0.105700	-2.302475
0.105800	-2.296957
0.105900	-2.306370
0.106000	-2.292413
0.106100	-2.246971
0.106200	-2.095391
0.106300	-1.976269
0.106400	-1.971076
0.106500	-2.091172
0.106600	-2.185301
0.106700	-2.161931
0.106800	-2.040212
0.106900	-1.916546
0.107000	-1.879868
0.107100	-1.927582
0.107200	-2.008078
0.107300	-2.022685
0.107400	-1.973348
0.107500	-1.885711
0.107600	-1.835076
0.107700	-1.823391
0.107800	-1.844164
0.107900	-1.870131
0.108000	-1.889281
0.108100	-1.886684
0.108200	-1.878894
0.108300	-1.891553
0.108400	-1.895448
0.108500	-1.917520
0.108600	-1.949653
0.108700	-1.985682
0.108800	-2.021711
0.108900	-2.084031
0.109000	-2.120059
0.109100	-2.135315
0.109200	-2.134341
0.109300	-2.191143
0.109400	-2.330389
0.109500	-2.413483
0.109600	-2.392709
0.109700	-2.314809
0.109800	-2.273912
0.109900	-2.325196
0.110000	-2.472557
0.110100	-2.571879
0.110200	-2.572853
0.110300	-2.481970
0.110400	-2.421597
0.110500	-2.453406
0.110600	-2.543641
0.110700	-2.613426
0.110800	-2.626085
0.110900	-2.609531
0.111000	-2.601741
0.111100	-2.626085
0.111200	-2.657245
0.111300	-2.679641
0.111400	-2.682563
0.111500	-2.686782
0.111600	-2.699116
0.111700	-2.710477
0.111800	-2.708854
0.111900	-2.689703
0.112000	-2.674773
0.112100	-2.693598
0.112200	-2.753971
0.112300	-2.800062
0.112400	-2.809150
0.112500	-2.811098
0.112600	-2.785780
0.112700	-2.790649
0.112800	-2.792272
0.112900	-2.789351
0.113000	-2.779288
0.113100	-2.779613
0.113200	-2.777666
0.113300	-2.767603
0.113400	-2.766305
0.113500	-2.768253
0.113600	-2.775393
0.113700	-2.786754
0.113800	-2.792272
0.113900	-2.808826
0.114000	-2.821484
0.114100	-2.849399
0.114200	-2.875041
0.114300	-2.921132
0.114400	-2.977934
0.114500	-3.116531
0.114600	-3.287587
0.114700	-3.371979
0.114800	-3.337573
0.114900	-3.252208
0.115000	-3.244418
0.115100	-3.359321
0.115200	-3.523885
0.115300	-3.641710
0.115400	-3.652421
0.115500	-3.602759
0.115600	-3.565757
0.115700	-3.606979
0.115800	-3.713767
0.115900	-3.804976
0.116000	-3.851067
0.116100	-3.849444
0.116200	-3.831917
0.116300	-3.816661
0.116400	-3.828671
0.116500	-3.855611
0.116600	-3.871516
0.116700	-3.889368
0.116800	-3.894562
0.116900	-3.898132
0.117000	-3.924099
0.117100	-3.941627
0.117200	-3.945846
0.117300	-3.954610
0.117400	-3.970839
0.117500	-3.994534
0.117600	-3.972138
0.117700	-3.893588
0.117800	-3.847497
0.117900	-3.892614
0.118000	-4.012711
0.118100	-4.101323
0.118200	-4.097103
0.118300	-3.991937
0.118400	-3.897807
0.118500	-3.893588
0.118600	-3.990314
0.118700	-4.100674
0.118800	-4.138650
0.118900	-4.095156
0.119000	-4.024720
0.119100	-3.986095
0.119200	-3.981551
0.119300	-3.992586
0.119400	-3.990639
0.119500	-3.976682
0.119600	-3.957531
0.119700	-3.919879
0.119800	-3.868270
0.119900	-3.796537
0.120000	-3.712145
0.120100	-3.646578
0.120200	-3.603409
0.120300	-3.560563
0.120400	-3.506358
0.120500	-3.399894
0.120600	-3.302843
0.120700	-3.184370
0.120800	-3.092512
0.120900	-3.024999
0.121000	-2.966898
0.121100	-2.891919
0.121200	-2.818239
0.121300	-2.726381
0.121400	-2.641016
0.121500	-2.578696
0.121600	-2.531956
0.121700	-2.505015
0.121800	-2.483917
0.121900	-2.465741
0.122000	-2.458275
0.122100	-2.422896
0.122200	-2.414781
0.122300	-2.388165
0.122400	-2.393683
0.122500	-2.390762
0.122600	-2.421273
0.122700	-2.408289
0.122800	-2.343373
0.122900	-2.206399
0.123000	-2.110971
0.123100	-2.157387
0.123200	-2.312537
0.123300	-2.387516
0.123400	-2.354733
0.123500	-2.221979
0.123600	-2.130771
0.123700	-2.132718
0.123800	-2.200881
0.123900	-2.282026
0.124000	-2.277482
0.124100	-2.225874
0.124200	-2.148298
0.124300	-2.113892
0.124400	-2.099611
0.124500	-2.112594
0.124600	-2.127200
0.124700	-2.140508
0.124800	-2.129472
0.124900	-2.120384
0.125000	-2.115191
0.125100	-2.102532
0.125200	-2.132718
0.125300	-2.160308
0.125400	-2.189845
0.125500	-2.229119
0.125600	-2.267096
0.125700	-2.286246
0.125800	-2.277807
0.125900	-2.288194
0.126000	-2.368041
0.126100	-2.492032
0.126200	-2.534552
0.126300	-2.487812
0.126400	-2.410237
0.126500	-2.389464
0.126600	-2.470934
0.126700	-2.605636
0.126800	-2.676071
0.126900	-2.645885
0.127000	-2.560194
0.127100	-2.517999
0.127200	-2.561817
0.127300	-2.638095
0.127400	-2.667632
0.127500	-2.675746
0.127600	-2.669579
0.127700	-2.685484
0.127800	-2.721513
0.127900	-2.753646
0.128000	-2.782210
0.128100	-2.803957
0.128200	-2.836091
0.128300	-2.873093
0.128400	-2.884454
0.128500	-2.874392
0.128600	-2.845179
0.128700	-2.811747
0.128800	-2.834143
0.128900	-2.888998
0.129000	-2.924702
0.129100	-2.943853
0.129200	-2.954564
0.129300	-2.957485
0.129400	-2.959757
0.129500	-2.956836
0.129600	-2.949695
0.129700	-2.939633
0.129800	-2.929571
0.129900	-2.928273
0.130000	-2.920807
0.130100	-2.916588
0.130200	-2.912368
0.130300	-2.921781
0.130400	-2.927948
0.130500	-2.936387
0.130600	-2.945151
0.130700	-2.950993
0.130800	-2.964301
0.130900	-2.993189
0.131000	-3.024349
0.131100	-3.077906
0.131200	-3.228188
0.131300	-3.372953
0.131400	-3.415798
0.131500	-3.346337
0.131600	-3.272657
0.131700	-3.302518
0.131800	-3.443713
0.131900	-3.604382
0.132000	-3.690722
0.132100	-3.673519
0.132200	-3.629700
0.132300	-3.627428
0.132400	-3.700459
0.132500	-3.810819
0.132600	-3.891316
0.132700	-3.923774
0.132800	-3.943249
0.132900	-3.962075
0.133000	-3.979928
0.133100	-4.004921
0.133200	-4.037379
0.133300	-4.065943
0.133400	-4.094506
0.133500	-4.128913
0.133600	-4.156502
0.133700	-4.189610
0.133800	-4.201944
0.133900	-4.203567
0.134000	-4.226613
0.134100	-4.266213
0.134200	-4.290232
0.134300	-4.238298
0.134400	-4.151309
0.134500	-4.118850
0.134600	-4.190584
0.134700	-4.309383
0.134800	-4.377546
0.134900	-4.325936
0.135000	-4.201620
0.135100	-4.126316
0.135200	-4.160722
0.135300	-4.279521
0.135400	-4.363264
0.135500	-4.362615
0.135600	-4.298347
0.135700	-4.245439
0.135800	-4.238947
0.135900	-4.252255
0.136000	-4.250632
0.136100	-4.231482
0.136200	-4.213630
0.136300	-4.186364
0.136400	-4.158775
0.136500	-4.112683
0.136600	-4.031861
0.136700	-3.943249
0.136800	-3.879306
0.136900	-3.842628
0.137000	-3.810494
0.137100	-3.762131
0.137200	-3.661834
0.137300	-3.570950
0.137400	-3.456047
0.137500	-3.375550
0.137600	-3.314528
0.137700	-3.248313
0.137800	-3.172360
0.137900	-3.088942
0.138000	-2.997084
0.138100	-2.916912
0.138200	-2.862382
0.138300	-2.823432
0.138400	-2.792921
0.138500	-2.769551
0.138600	-2.758840
0.138700	-2.745856
0.138800	-2.718267
0.138900	-2.708529
0.139000	-2.679641
0.139100	-2.681264
0.139200	-2.680615
0.139300	-2.698467
0.139400	-2.669904
0.139500	-2.581617
0.139600	-2.427440
0.139700	-2.373559
0.139800	-2.459574
0.139900	-2.601092
0.140000	-2.643937
0.140100	-2.551431
0.140200	-2.421273
0.140300	-2.340776
0.140400	-2.363821
0.140500	-2.454056
0.140600	-2.509235
0.140700	-2.478075
0.140800	-2.399526
0.140900	-2.330389
0.141000	-2.298256
0.141100	-2.288518
0.141200	-2.301826
0.141300	-2.301826
0.141400	-2.300528
0.141500	-2.278131
0.141600	-2.278456
0.141700	-2.267420
0.141800	-2.280728
0.141900	-2.298580
0.142000	-2.321950
0.142100	-2.347917
0.142200	-2.399526
0.142300	-2.440099
0.142400	-2.437177
0.142500	-2.425817
0.142600	-2.441397
0.142700	-2.540070
0.142800	-2.643612
0.142900	-2.661140
0.143000	-2.586810
0.143100	-2.502743
0.143200	-2.516051
0.143300	-2.631278
0.143400	-2.756892
0.143500	-2.798764
0.143600	-2.744558
0.143700	-2.666009
0.143800	-2.662763
0.143900	-2.736119
0.144000	-2.828625
0.144100	-2.855890
0.144200	-2.875041
0.144300	-2.866602
0.144400	-2.899385
0.144500	-2.926000
0.144600	-2.968521
0.144700	-2.993189
0.144800	-3.001304
0.144900	-3.016884
0.145000	-3.034087
0.145100	-3.027920
0.145200	-2.997084
0.145300	-2.965275
0.145400	-2.943853
0.145500	-2.963328
0.145600	-3.005199
0.145700	-3.003901
0.145800	-2.968196
0.145900	-2.924702
0.146000	-2.923728
0.146100	-2.923728
0.146200	-2.921781
0.146300	-2.916588
0.146400	-2.918535
0.146500	-2.922105
0.146600	-2.928273
0.146700	-2.934764
0.146800	-2.947423
0.146900	-2.961056
0.147000	-2.971767
0.147100	-2.986698
0.147200	-3.008120
0.147300	-3.024674
0.147400	-3.047720
0.147500	-3.068493
0.147600	-3.104522
0.147700	-3.136006
0.147800	-3.223320
0.147900	-3.384963
0.148000	-3.508630
0.148100	-3.512525
0.148200	-3.415798
0.148300	-3.362566
0.148400	-3.408982
0.148500	-3.576143
0.148600	-3.719610
0.148700	-3.778685
0.148800	-3.736488
0.148900	-3.677414
0.149000	-3.690073
0.149100	-3.776088
0.149200	-3.883201
0.149300	-3.952013
0.149400	-3.988691
0.149500	-3.995832
0.149600	-4.008816
0.149700	-4.022773
0.149800	-4.046143
0.149900	-4.071136
0.150000	-4.085418
0.150100	-4.098402
0.150200	-4.107165
0.150300	-4.124044
0.150400	-4.143194
0.150500	-4.140922
0.150600	-4.132483
0.150700	-4.137352
0.150800	-4.153581
0.150900	-4.146765
0.151000	-4.063671
0.151100	-3.975383
0.151200	-3.966944
0.151300	-4.052959
0.151400	-4.149037
0.151500	-4.180197
0.151600	-4.101972
0.151700	-3.988691
0.151800	-3.943249
0.151900	-3.993885
0.152000	-4.098077
0.152100	-4.164292
0.152200	-4.143844
0.152300	-4.079900
0.152400	-4.039651
0.152500	-4.037704
0.152600	-4.046792
0.152700	-4.048091
0.152800	-4.039002
0.152900	-4.034458
0.153000	-4.014009
0.153100	-3.983823
0.153200	-3.939030
0.153300	-3.868919
0.153400	-3.797186
0.153500	-3.750770
0.153600	-3.717663
0.153700	-3.686178
0.153800	-3.611523
0.153900	-3.499217
0.154000	-3.379769
0.154100	-3.260971
0.154200	-3.183720
0.154300	-3.117830
0.154400	-3.046097
0.154500	-2.967547
0.154600	-2.881532
0.154700	-2.782859
0.154800	-2.706257
0.154900	-2.646534
0.155000	-2.613102
0.155100	-2.575450
0.155200	-2.554352
0.155300	-2.533254
0.155400	-2.500147
0.155500	-2.483917
0.155600	-2.455679
0.155700	-2.450810
0.155800	-2.443669
0.155900	-2.466065
0.156000	-2.457951
0.156100	-2.427115
0.156200	-2.309291
0.156300	-2.173616
0.156400	-2.147649
0.156500	-2.253788
0.156600	-2.374208
0.156700	-2.373234
0.156800	-2.272289
0.156900	-2.163229
0.157000	-2.099935
0.157100	-2.140833
0.157200	-2.199907
0.157300	-2.234637
0.157400	-2.195038
0.157500	-2.127525
0.157600	-2.069749
0.157700	-2.041186
0.157800	-2.041186
0.157900	-2.049625
0.158000	-2.070398
0.158100	-2.076890
0.158200	-2.071047
0.158300	-2.066503
0.158400	-2.057090
0.158500	-2.066503
0.158600	-2.099935
0.158700	-2.139210
0.158800	-2.172317
0.158900	-2.219706
0.159000	-2.243401
0.159100	-2.244050
0.159200	-2.236909
0.159300	-2.276509
0.159400	-2.399201
0.159500	-2.480022
0.159600	-2.471908
0.159700	-2.401798
0.159800	-2.350838
0.159900	-2.394981
0.160000	-2.530657
0.160100	-2.637445
0.160200	-2.662438
0.160300	-2.602390
0.160400	-2.548509
0.160500	-2.572529
0.160600	-2.658868
0.160700	-2.721837
0.160800	-2.743260
0.160900	-2.739689
0.161000	-2.740338
0.161100	-2.774744
0.161200	-2.822783
0.161300	-2.858162
0.161400	-2.867251
0.161500	-2.866926
0.161600	-2.892244
0.161700	-2.916912
0.161800	-2.918535
0.161900	-2.905227
0.162000	-2.888349
0.162100	-2.897762
0.162200	-2.947748
0.162300	-2.988645
0.162400	-3.004550
0.162500	-3.001953
0.162600	-2.975337
0.162700	-2.980855
0.162800	-2.974039
0.162900	-2.962354
0.163000	-2.943853
0.163100	-2.931194
0.163200	-2.920158
0.163300	-2.904253
0.163400	-2.898086
0.163500	-2.883155
0.163600	-2.885103
0.163700	-2.878611
0.163800	-2.879585
0.163900	-2.881208
0.164000	-2.883480
0.164100	-2.890621
0.164200	-2.900034
0.164300	-2.929246
0.164400	-2.965275
0.164500	-3.082450
0.164600	-3.242146
0.164700	-3.327836
0.164800	-3.291482
0.164900	-3.202871
0.165000	-3.173983
0.165100	-3.272332
0.165200	-3.438844
0.165300	-3.560888
0.165400	-3.589127
0.165500	-3.543036
0.165600	-3.524534
0.165700	-3.567380
0.165800	-3.664106
0.165900	-3.762455
0.166000	-3.807573
0.166100	-3.833864
0.166200	-3.838084
0.166300	-3.856910
0.166400	-3.879955
0.166500	-3.920853
0.166600	-3.947794
0.166700	-3.976357
0.166800	-4.001999
0.166900	-4.031537
0.167000	-4.073408
0.167100	-4.098726
0.167200	-4.111060
0.167300	-4.125342
0.167400	-4.156502
0.167500	-4.192531
0.167600	-4.185391
0.167700	-4.115280
0.167800	-4.052635
0.167900	-4.093533
0.168000	-4.213305
0.168100	-4.312953
0.168200	-4.330805
0.168300	-4.247062
0.168400	-4.160722
0.168500	-4.160073
0.168600	-4.261993
0.168700	-4.373975
0.168800	-4.420391
0.168900	-4.385660
0.169000	-4.327235
0.169100	-4.315225
0.169200	-4.337946
0.169300	-4.362290
0.169400	-4.354175
0.169500	-4.333402
0.169600	-4.302566
0.169700	-4.281144
0.169800	-4.246413
0.169900	-4.196102
0.170000	-4.120149
0.170100	-4.043871
0.170200	-3.989016
0.170300	-3.951689
0.170400	-3.909493
0.170500	-3.823477
0.170600	-3.731620
0.170700	-3.597891
0.170800	-3.502787
0.170900	-3.438519
0.171000	-3.376848
0.171100	-3.305764
0.171200	-3.232083
0.171300	-3.146718
0.171400	-3.056159
0.171500	-2.986049
0.171600	-2.942554
0.171700	-2.907499
0.171800	-2.869198
0.171900	-2.851995
0.172000	-2.815642
0.172100	-2.796167
0.172200	-2.750401
0.172300	-2.736443
0.172400	-2.693274
0.172500	-2.695546
0.172600	-2.687431
0.172700	-2.664710
0.172800	-2.603364
0.172900	-2.450810
0.173000	-2.336556
0.173100	-2.345320
0.173200	-2.490084
0.173300	-2.575125
0.173400	-2.540719
0.173500	-2.425492
0.173600	-2.325845
0.173700	-2.319354
0.173800	-2.387191
0.173900	-2.467688
0.174000	-2.477426
0.174100	-2.431659
0.174200	-2.372910
0.174300	-2.335258
0.174400	-2.357979
0.174500	-2.369339
0.174600	-2.404719
0.174700	-2.414781
0.174800	-2.405693
0.174900	-2.403096
0.175000	-2.414456
0.175100	-2.430361
0.175200	-2.444643
0.175300	-2.493979
0.175400	-2.517349
0.175500	-2.557273
0.175600	-2.612452
0.175700	-2.631603
0.175800	-2.641340
0.175900	-2.634849
0.176000	-2.706582
0.176100	-2.821484
0.176200	-2.879910
0.176300	-2.848749
0.176400	-2.778964
0.176500	-2.742286
0.176600	-2.792921
0.176700	-2.917561
0.176800	-2.980855
0.176900	-2.953915
0.177000	-2.864329
0.177100	-2.815642
0.177200	-2.853618
0.177300	-2.937361
0.177400	-2.980531
0.177500	-2.977934
0.177600	-2.974363
0.177700	-2.975013
0.177800	-3.013314
0.177900	-3.044798
0.178000	-3.066870
0.178100	-3.074660
0.178200	-3.090889
0.178300	-3.116531
0.178400	-3.128216
0.178500	-3.123997
0.178600	-3.110040
0.178700	-3.099004
0.178800	-3.131138
0.178900	-3.192160
0.179000	-3.232083
0.179100	-3.245067
0.179200	-3.214880
0.179300	-3.208064
0.179400	-3.211310
0.179500	-3.209687
0.179600	-3.207740
0.179700	-3.199300
0.179800	-3.196379
0.179900	-3.185668
0.180000	-3.185343
0.180100	-3.193458
0.180200	-3.185992
0.180300	-3.189563
0.180400	-3.183071
0.180500	-3.195081
0.180600	-3.199625
0.180700	-3.201248
0.180800	-3.206441
0.180900	-3.222021
0.181000	-3.242146
0.181100	-3.288886
0.181200	-3.412877
0.181300	-3.559265
0.181400	-3.601461
0.181500	-3.555695
0.181600	-3.453450
0.181700	-3.450854
0.181800	-3.556668
0.181900	-3.708250
0.182000	-3.800756
0.182100	-3.786150
0.182200	-3.723505
0.182300	-3.695266
0.182400	-3.750446
0.182500	-3.836461
0.182600	-3.918906
0.182700	-3.944872
0.182800	-3.954285
0.182900	-3.946495
0.183000	-3.947794
0.183100	-3.964997
0.183200	-3.993560
0.183300	-4.012386
0.183400	-4.029589
0.183500	-4.040950
0.183600	-4.050038
0.183700	-4.082821
0.183800	-4.090611
0.183900	-4.099700
0.184000	-4.097428
0.184100	-4.120149
0.184200	-4.137676
0.184300	-4.096779
0.184400	-4.007842
0.184500	-3.966620
0.184600	-4.024720
0.184700	-4.127290
0.184800	-4.197725
0.184900	-4.166240
0.185000	-4.070812
0.185100	-4.004272
0.185200	-4.030888
0.185300	-4.149362
0.185400	-4.258422
0.185500	-4.280170
0.185600	-4.233754
0.185700	-4.182794
0.185800	-4.168188
0.185900	-4.173381
0.186000	-4.188636
0.186100	-4.182794
0.186200	-4.182469
0.186300	-4.161047
0.186400	-4.133132
0.186500	-4.084444
0.186600	-4.002324
0.186700	-3.911440
0.186800	-3.846848
0.186900	-3.791343
0.187000	-3.748823
0.187100	-3.684555
0.187200	-3.574196
0.187300	-3.475847
0.187400	-3.367760
0.187500	-3.274604
0.187600	-3.203845
0.187700	-3.136006
0.187800	-3.058431
0.187900	-2.977934
0.188000	-2.895490
0.188100	-2.815317
0.188200	-2.758191
0.188300	-2.721513
0.188400	-2.702038
0.188500	-2.681589
0.188600	-2.682563
0.188700	-2.663087
0.188800	-2.650753
0.188900	-2.628032
0.189000	-2.613102
0.189100	-2.623488
0.189200	-2.631278
0.189300	-2.663737
0.189400	-2.635498
0.189500	-2.573827
0.189600	-2.404719
0.189700	-2.344996
0.189800	-2.408289
0.189900	-2.555650
0.190000	-2.614725
0.190100	-2.537474
0.190200	-2.413158
0.190300	-2.322924
0.190400	-2.337530
0.190500	-2.420299
0.190600	-2.476127
0.190700	-2.471908
0.190800	-2.406991
0.190900	-2.337530
0.191000	-2.307993
0.191100	-2.301177
0.191200	-2.318704
0.191300	-2.327468
0.191400	-2.332337
0.191500	-2.316108
0.191600	-2.304098
0.191700	-2.285597
0.191800	-2.270666
0.191900	-2.286246
0.192000	-2.299554
0.192100	-2.333311
0.192200	-2.363172
0.192300	-2.395631
0.192400	-2.377779
0.192500	-2.366418
0.192600	-2.377454
0.192700	-2.456977
0.192800	-2.573178
0.192900	-2.587459
0.193000	-2.525789
0.193100	-2.431335
0.193200	-2.420624
0.193300	-2.514428
0.193400	-2.640042
0.193500	-2.681589
0.193600	-2.624462
0.193700	-2.534228
0.193800	-2.498524
0.193900	-2.542018
0.194000	-2.605961
0.194100	-2.617646
0.194200	-2.604987
0.194300	-2.577073
0.194400	-2.593951
0.194500	-2.621865
0.194600	-2.647832
0.194700	-2.670878
0.194800	-2.676071
0.194900	-2.696520
0.195000	-2.717618
0.195100	-2.722486
0.195200	-2.707555
0.195300	-2.688730
0.195400	-2.684835
0.195500	-2.725732
0.195600	-2.787079
0.195700	-2.823756
0.195800	-2.818239
0.195900	-2.792921
0.196000	-2.798764
0.196100	-2.821160
0.196200	-2.831871
0.196300	-2.831222
0.196400	-2.830897
0.196500	-2.836415
0.196600	-2.840959
0.196700	-2.849074
0.196800	-2.852320
0.196900	-2.859785
0.197000	-2.873742
0.197100	-2.888998
0.197200	-2.901332
0.197300	-2.917886
0.197400	-2.943203
0.197500	-2.963328
0.197600	-2.992865
0.197700	-3.024025
0.197800	-3.109066
0.197900	-3.265516
0.198000	-3.408982
0.198100	-3.423588
0.198200	-3.345039
0.198300	-3.272657
0.198400	-3.301220
0.198500	-3.447608
0.198600	-3.587179
0.198700	-3.644955
0.198800	-3.599838
0.198900	-3.528754
0.199000	-3.512525
0.199100	-3.583609
0.199200	-3.686178
0.199300	-3.751744
0.199400	-3.766999
0.199500	-3.758236
0.199600	-3.749796
0.199700	-3.759534
0.199800	-3.786150
0.199900	-3.818609
0.200000	-3.838408
0.200100	-3.849769
0.200200	-3.865349
0.200300	-3.890017
0.200400	-3.926046
0.200500	-3.940653
0.200600	-3.937731
0.200700	-3.945197
0.200800	-3.964023
0.200900	-3.965646
0.201000	-3.909493
0.201100	-3.808222
0.201200	-3.789071
0.201300	-3.871516
0.201400	-3.987718
0.201500	-4.046468
0.201600	-3.983174
0.201700	-3.864700
0.201800	-3.802055
0.201900	-3.845874
0.202000	-3.967918
0.202100	-4.051337
0.202200	-4.038029
0.202300	-3.957531
0.202400	-3.896185
0.202500	-3.879306
0.202600	-3.899755
0.202700	-3.921502
0.202800	-3.921502
0.202900	-3.911765
0.203000	-3.896509
0.203100	-3.879306
0.203200	-3.837110
0.203300	-3.776412
0.203400	-3.717338
0.203500	-3.686502
0.203600	-3.671247
0.203700	-3.664431
0.203800	-3.623208
0.203900	-3.541737
0.204000	-3.485909
0.204100	-3.402490
0.204200	-3.346662
0.204300	-3.302194
0.204400	-3.252532
0.204500	-3.200274
0.204600	-3.129839
0.204700	-3.044474
0.204800	-2.973065
0.204900	-2.919184
0.205000	-2.885427
0.205100	-2.852644
0.205200	-2.823756
0.205300	-2.803957
0.205400	-2.767928
0.205500	-2.740338
0.205600	-2.702038
0.205700	-2.698467
0.205800	-2.688405
0.205900	-2.687756
0.206000	-2.682887
0.206100	-2.645885
0.206200	-2.529359
0.206300	-2.371611
0.206400	-2.320652
0.206500	-2.402771
0.206600	-2.530657
0.206700	-2.530333
0.206800	-2.430686
0.206900	-2.288194
0.207000	-2.212241
0.207100	-2.231716
0.207200	-2.303774
0.207300	-2.340451
0.207400	-2.291115
0.207500	-2.197959
0.207600	-2.109024
0.207700	-2.077864
0.207800	-2.073320
0.207900	-2.093119
0.208000	-2.116489
0.208100	-2.122332
0.208200	-2.102857
0.208300	-2.102857
0.208400	-2.106427
0.208500	-2.121682
0.208600	-2.144403
0.208700	-2.188222
0.208800	-2.207697
0.208900	-2.249893
0.209000	-2.265797
0.209100	-2.272289
0.209200	-2.254761
0.209300	-2.266446
0.209400	-2.363821
0.209500	-2.449511
0.209600	-2.446266
0.209700	-2.374857
0.209800	-2.295984
0.209900	-2.324871
0.210000	-2.441072
0.210100	-2.568958
0.210200	-2.609856
0.210300	-2.564089
0.210400	-2.494304
0.210500	-2.496252
0.210600	-2.576424
0.210700	-2.660815
0.210800	-2.695221
0.210900	-2.707880
0.211000	-2.705283
0.211100	-2.742286
0.211200	-2.776367
0.211300	-2.820511
0.211400	-2.832520
0.211500	-2.842258
0.211600	-2.859136
0.211700	-2.871470
0.211800	-2.868874
0.211900	-2.850048
0.212000	-2.820835
0.212100	-2.819537
0.212200	-2.863031
0.212300	-2.909771
0.212400	-2.935089
0.212500	-2.907824
0.212600	-2.868549
0.212700	-2.874067
0.212800	-2.872120
0.212900	-2.878611
0.213000	-2.882831
0.213100	-2.897762
0.213200	-2.908473
0.213300	-2.924702
0.213400	-2.944177
0.213500	-2.962029
0.213600	-2.986373
0.213700	-3.008445
0.213800	-3.034412
0.213900	-3.057782
0.214000	-3.080503
0.214100	-3.100951
0.214200	-3.134059
0.214300	-3.169763
0.214400	-3.205468
0.214500	-3.311607
0.214600	-3.470978
0.214700	-3.569002
0.214800	-3.548554
0.214900	-3.449555
0.215000	-3.391455
0.215100	-3.445011
0.215200	-3.589776
0.215300	-3.698512
0.215400	-3.727400
0.215500	-3.655342
0.215600	-3.583933
0.215700	-3.579065
0.215800	-3.637490
0.215900	-3.714092
0.216000	-3.752393
0.216100	-3.760508
0.216200	-3.746875
0.216300	-3.742006
0.216400	-3.746551
0.216500	-3.767324
0.216600	-3.788422
0.216700	-3.821205
0.216800	-3.837759
0.216900	-3.853988
0.217000	-3.880280
0.217100	-3.904948
0.217200	-3.922151
0.217300	-3.956557
0.217400	-3.988691
0.217500	-4.037055
0.217600	-4.043871
0.217700	-3.978629
0.217800	-3.918581
0.217900	-3.936433
0.218000	-4.045494
0.218100	-4.138975
0.218200	-4.167863
0.218300	-4.089313
0.218400	-3.985446
0.218500	-3.950390
0.218600	-4.013035
0.218700	-4.109113
0.218800	-4.158125
0.218900	-4.128588
0.219000	-4.069838
0.219100	-4.021475
0.219200	-4.007193
0.219300	-4.010439
0.219400	-4.001999
0.219500	-3.988042
0.219600	-3.974734
0.219700	-3.951040
0.219800	-3.911440
0.219900	-3.843602
0.220000	-3.751419
0.220100	-3.680335
0.220200	-3.638788
0.220300	-3.607304
0.220400	-3.579714
0.220500	-3.511226
0.220600	-3.422939
0.220700	-3.346337
0.220800	-3.245391
0.220900	-3.187291
0.221000	-3.131462
0.221100	-3.063624
0.221200	-2.994812
0.221300	-2.926650
0.221400	-2.853294
0.221500	-2.789675
0.221600	-2.745207
0.221700	-2.719240
0.221800	-2.701388
0.221900	-2.699441
0.222000	-2.688080
0.222100	-2.675746
0.222200	-2.661789
0.222300	-2.640042
0.222400	-2.628682
0.222500	-2.637445
0.222600	-2.640367
0.222700	-2.641016
0.222800	-2.567984
0.222900	-2.460872
0.223000	-2.314160
0.223100	-2.336232
0.223200	-2.454705
0.223300	-2.562791
0.223400	-2.536175
0.223500	-2.417053
0.223600	-2.296633
0.223700	-2.251191
0.223800	-2.297282
0.223900	-2.360576
0.224000	-2.382972
0.224100	-2.332661
0.224200	-2.259630
0.224300	-2.201854
0.224400	-2.189196
0.224500	-2.190169
0.224600	-2.203802
0.224700	-2.212566
0.224800	-2.221654
0.224900	-2.227496
0.225000	-2.230418
0.225100	-2.231391
0.225200	-2.239831
0.225300	-2.285272
0.225400	-2.315783
0.225500	-2.362199
0.225600	-2.401149
0.225700	-2.417378
0.225800	-2.409588
0.225900	-2.392709
0.226000	-2.440423
0.226100	-2.547211
0.226200	-2.608882
0.226300	-2.580968
0.226400	-2.490084
0.226500	-2.446266
0.226600	-2.493006
0.226700	-2.617321
0.226800	-2.703985
0.226900	-2.705283
0.227000	-2.627708
0.227100	-2.578371
0.227200	-2.617970
0.227300	-2.696195
0.227400	-2.743260
0.227500	-2.740988
0.227600	-2.729303
0.227700	-2.738066
0.227800	-2.775069
0.227900	-2.801360
0.228000	-2.801360
0.228100	-2.780262
0.228200	-2.780587
0.228300	-2.802009
0.228400	-2.829274
0.228500	-2.824406
0.228600	-2.808176
0.228700	-2.779613
0.228800	-2.790324
0.228900	-2.845179
0.229000	-2.888673
0.229100	-2.913017
0.229200	-2.925676
0.229300	-2.908473
0.229400	-2.920483
0.229500	-2.929895
0.229600	-2.932817
0.229700	-2.931194
0.229800	-2.931518
0.229900	-2.926650
0.230000	-2.920158
0.230100	-2.912043
0.230200	-2.905876
0.230300	-2.898411
0.230400	-2.896788
0.230500	-2.896788
0.230600	-2.897762
0.230700	-2.905227
0.230800	-2.918210
0.230900	-2.946125
0.231000	-2.984750
0.231100	-3.036359
0.231200	-3.167167
0.231300	-3.331082
0.231400	-3.413851
0.231500	-3.371655
0.231600	-3.275902
0.231700	-3.247664
0.231800	-3.339521
0.231900	-3.487207
0.232000	-3.567380
0.232100	-3.543685
0.232200	-3.453775
0.232300	-3.388533
0.232400	-3.401192
0.232500	-3.478768
0.232600	-3.544659
0.232700	-3.566406
0.232800	-3.559265
0.232900	-3.546606
0.233000	-3.539790
0.233100	-3.547580
0.233200	-3.550177
0.233300	-3.544659
0.233400	-3.535246
0.233500	-3.526482
0.233600	-3.527131
0.233700	-3.530052
0.233800	-3.516744
0.233900	-3.490453
0.234000	-3.479092
0.234100	-3.494997
0.234200	-3.504735
0.234300	-3.476820
0.234400	-3.373927
0.234500	-3.310958
0.234600	-3.345688
0.234700	-3.449231
0.234800	-3.541737
0.234900	-3.539465
0.235000	-3.443064
0.235100	-3.360944
0.235200	-3.382691
0.235300	-3.501813
0.235400	-3.626454
0.235500	-3.673843
0.235600	-3.639437
0.235700	-3.592048
0.235800	-3.586855
0.235900	-3.612497
0.236000	-3.638788
0.236100	-3.639762
0.236200	-3.628726
0.236300	-3.617366
0.236400	-3.594645
0.236500	-3.571275
0.236600	-3.514797
0.236700	-3.434300
0.236800	-3.363540
0.236900	-3.309984
0.237000	-3.275902
0.237100	-3.229162
0.237200	-3.134708
0.237300	-3.029867
0.237400	-2.901007
0.237500	-2.799413
0.237600	-2.728653
0.237700	-2.659192
0.237800	-2.587784
0.237900	-2.505989
0.238000	-2.404394
0.238100	-2.310265
0.238200	-2.238208
0.238300	-2.191468
0.238400	-2.148298
0.238500	-2.095391
0.238600	-2.065530
0.238700	-2.032097
0.238800	-2.000613
0.238900	-1.975620
0.239000	-1.952575
0.239100	-1.951925
0.239200	-1.953224
0.239300	-1.973348
0.239400	-1.971400
0.239500	-1.918493
0.239600	-1.769510
0.239700	-1.696803
0.239800	-1.740947
0.239900	-1.902589
0.240000	-2.004833
0.240100	-1.964909
0.240200	-1.862016
0.240300	-1.758474
0.240400	-1.755553
0.240500	-1.818197
0.240600	-1.881816
0.240700	-1.871104
0.240800	-1.791906
0.240900	-1.705892
0.241000	-1.649414
0.241100	-1.639352
0.241200	-1.647791
0.241300	-1.663371
0.241400	-1.668240
0.241500	-1.651686
0.241600	-1.640326
0.241700	-1.633834
0.241800	-1.631238
0.241900	-1.643896
0.242000	-1.677328
0.242100	-1.699076
0.242200	-1.737376
0.242300	-1.782169
0.242400	-1.792880
0.242500	-1.802942
0.242600	-1.795801
0.242700	-1.887983
0.242800	-2.006780
0.242900	-2.072021
0.243000	-2.037615
0.243100	-1.996393
0.243200	-1.999639
0.243300	-2.110647
0.243400	-2.278456
0.243500	-2.375506
0.243600	-2.377129
0.243700	-2.326170
0.243800	-2.331688
0.243900	-2.413483
0.244000	-2.516376
0.244100	-2.577722
0.244200	-2.604987
0.244300	-2.612452
0.244400	-2.641340
0.244500	-2.693923
0.244600	-2.746181
0.244700	-2.765981
0.244800	-2.770200
0.244900	-2.792596
0.245000	-2.832845
0.245100	-2.856864
0.245200	-2.855566
0.245300	-2.854592
0.245400	-2.855890
0.245500	-2.906201
0.245600	-2.981829
0.245700	-3.029218
0.245800	-3.054860
0.245900	-3.056483
0.246000	-3.049342
0.246100	-3.054860
0.246200	-3.042526
0.246300	-3.022402
0.246400	-2.997409
0.246500	-2.975986
0.246600	-2.952941
0.246700	-2.926325
0.246800	-2.897112
0.246900	-2.879585
0.247000	-2.864654
0.247100	-2.847451
0.247200	-2.847451
0.247300	-2.856864
0.247400	-2.872120
0.247500	-2.888673
0.247600	-2.910745
0.247700	-2.946449
0.247800	-3.012340
0.247900	-3.161649
0.248000	-3.325564
0.248100	-3.378147
0.248200	-3.321993
0.248300	-3.250909
0.248400	-3.275902
0.248500	-3.411579
0.248600	-3.573222
0.248700	-3.641710
0.248800	-3.620287
0.248900	-3.550826
0.249000	-3.528754
0.249100	-3.573222
0.249200	-3.668001
0.249300	-3.725453
0.249400	-3.743629
0.249500	-3.738111
0.249600	-3.734866
0.249700	-3.733243
0.249800	-3.749147
0.249900	-3.779658
0.250000	-3.791668
0.250100	-3.801081
0.250200	-3.808871
0.250300	-3.829644
0.250400	-3.853988
0.250500	-3.854962
0.250600	-3.848470
0.250700	-3.854313
0.250800	-3.877683
0.250900	-3.888394
0.251000	-3.846523
0.251100	-3.768947
0.251200	-3.748174
0.251300	-3.830294
0.251400	-3.945522
0.251500	-4.020501
0.251600	-3.990639
0.251700	-3.896185
0.251800	-3.847821
0.251900	-3.907220
0.252000	-4.028291
0.252100	-4.118850
0.252200	-4.120149
0.252300	-4.062697
0.252400	-4.021475
0.252500	-4.007842
0.252600	-4.014009
0.252700	-4.014658
0.252800	-3.996806
0.252900	-3.979278
0.253000	-3.947469
0.253100	-3.921502
0.253200	-3.872814
0.253300	-3.790045
0.253400	-3.697538
0.253500	-3.623533
0.253600	-3.567704
0.253700	-3.523885
0.253800	-3.460591
0.253900	-3.349908
0.254000	-3.242795
0.254100	-3.108092
0.254200	-3.033438
0.254300	-2.972416
0.254400	-2.902955
0.254500	-2.820835
0.254600	-2.725732
0.254700	-2.610505
0.254800	-2.518972
0.254900	-2.430036
0.255000	-2.371936
0.255100	-2.310590
0.255200	-2.265473
0.255300	-2.219382
0.255400	-2.182704
0.255500	-2.128174
0.255600	-2.085978
0.255700	-2.055467
0.255800	-2.025281
0.255900	-2.027553
0.256000	-2.003210
0.256100	-1.984384
0.256200	-1.850006
0.256300	-1.708813
0.256400	-1.607868
0.256500	-1.707515
0.256600	-1.837672
0.256700	-1.873376
0.256800	-1.808460
0.256900	-1.683496
0.257000	-1.636106
0.257100	-1.669538
0.257200	-1.774054
0.257300	-1.849357
0.257400	-1.854551
0.257500	-1.814952
0.257600	-1.776651
0.257700	-1.785739
0.257800	-1.816899
0.257900	-1.857472
0.258000	-1.876622
0.258100	-1.882789
0.258200	-1.873376
0.258300	-1.873376
0.258400	-1.866560
0.258500	-1.858121
0.258600	-1.887658
0.258700	-1.915572
0.258800	-1.949004
0.258900	-1.996718
0.259000	-2.040861
0.259100	-2.049625
0.259200	-2.059038
0.259300	-2.076565
0.259400	-2.195687
0.259500	-2.303774
0.259600	-2.328117
0.259700	-2.260604
0.259800	-2.204451
0.259900	-2.219706
0.260000	-2.337206
0.260100	-2.456977
0.260200	-2.490734
0.260300	-2.428738
0.260400	-2.350514
0.260500	-2.347592
0.260600	-2.418676
0.260700	-2.497550
0.260800	-2.520595
0.260900	-2.526762
0.261000	-2.515402
0.261100	-2.542992
0.261200	-2.574801
0.261300	-2.619593
0.261400	-2.627708
0.261500	-2.633875
0.261600	-2.649455
0.261700	-2.676395
0.261800	-2.693274
0.261900	-2.692625
0.262000	-2.690353
0.262100	-2.696520
0.262200	-2.747479
0.262300	-2.807852
0.262400	-2.834792
0.262500	-2.846802
0.262600	-2.819212
0.262700	-2.829599
0.262800	-2.837714
0.262900	-2.838038
0.263000	-2.837714
0.263100	-2.839012
0.263200	-2.833494
0.263300	-2.832845
0.263400	-2.824406
0.263500	-2.815642
0.263600	-2.817914
0.263700	-2.812071
0.263800	-2.817589
0.263900	-2.812721
0.264000	-2.820835
0.264100	-2.828625
0.264200	-2.850697
0.264300	-2.864329
0.264400	-2.894516
0.264500	-2.961056
0.264600	-3.104197
0.264700	-3.207090
0.264800	-3.189238
0.264900	-3.082125
0.265000	-2.994163
0.265100	-3.037982
0.265200	-3.172360
0.265300	-3.314528
0.265400	-3.337249
0.265500	-3.277201
0.265600	-3.205792
0.265700	-3.203520
0.265800	-3.276552
0.265900	-3.381717
0.266000	-3.440791
0.266100	-3.458644
0.266200	-3.461565
0.266300	-3.469030
0.266400	-3.481040
0.266500	-3.511876
0.266600	-3.531351
0.266700	-3.539141
0.266800	-3.543360
0.266900	-3.538167
0.267000	-3.550826
0.267100	-3.584258
0.267200	-3.596592
0.267300	-3.606330
0.267400	-3.636516
0.267500	-3.662158
0.267600	-3.679686
0.267700	-3.628726
0.267800	-3.564783
0.267900	-3.575819
0.268000	-3.687476
0.268100	-3.799783
0.268200	-3.854313
0.268300	-3.791668
0.268400	-3.677414
0.268500	-3.635867
0.268600	-3.716040
0.268700	-3.844251
0.268800	-3.930266
0.268900	-3.927020
0.269000	-3.886122
0.269100	-3.856261
0.269200	-3.877359
0.269300	-3.927994
0.269400	-3.956233
0.269500	-3.973436
0.269600	-3.981226
0.269700	-3.966944
0.269800	-3.937731
0.269900	-3.876060
0.270000	-3.803678
0.270100	-3.733243
0.270200	-3.686827
0.270300	-3.652745
0.270400	-3.619962
0.270500	-3.552449
0.270600	-3.457345
0.270700	-3.389832
0.270800	-3.283692
0.270900	-3.217802
0.271000	-3.161324
0.271100	-3.086994
0.271200	-3.011691
0.271300	-2.921132
0.271400	-2.810773
0.271500	-2.724758
0.271600	-2.655947
0.271700	-2.615374
0.271800	-2.573502
0.271900	-2.550457
0.272000	-2.519297
0.272100	-2.486839
0.272200	-2.449836
0.272300	-2.424843
0.272400	-2.404719
0.272500	-2.403745
0.272600	-2.393359
0.272700	-2.381349
0.272800	-2.350838
0.272900	-2.198933
0.273000	-2.078513
0.273100	-2.013272
0.273200	-2.147974
0.273300	-2.239506
0.273400	-2.243726
0.273500	-2.103506
0.273600	-1.977568
0.273700	-1.910379
0.273800	-1.945758
0.273900	-2.023334
0.274000	-2.042160
0.274100	-2.009701
0.274200	-1.920441
0.274300	-1.867859
0.274400	-1.842866
0.274500	-1.862990
0.274600	-1.884412
0.274700	-1.911028
0.274800	-1.914923
0.274900	-1.905510
0.275000	-1.903563
0.275100	-1.906159
0.275200	-1.918493
0.275300	-1.980813
0.275400	-2.015219
0.275500	-2.085005
0.275600	-2.134666
0.275700	-2.167449
0.275800	-2.182704
0.275900	-2.208022
0.276000	-2.262227
0.276100	-2.407316
0.276200	-2.507287
0.276300	-2.513779
0.276400	-2.453406
0.276500	-2.416079
0.276600	-2.462819
0.276700	-2.596872
0.276800	-2.708205
0.276900	-2.729627
0.277000	-2.655622
0.277100	-2.592328
0.277200	-2.609856
0.277300	-2.678018
0.277400	-2.733198
0.277500	-2.745856
0.277600	-2.741961
0.277700	-2.734821
0.277800	-2.754620
0.277900	-2.788377
0.278000	-2.815966
0.278100	-2.826678
0.278200	-2.844530
0.278300	-2.873418
0.278400	-2.893867
0.278500	-2.895165
0.278600	-2.881857
0.278700	-2.869523
0.278800	-2.893542
0.278900	-2.967872
0.279000	-3.031815
0.279100	-3.062650
0.279200	-3.056159
0.279300	-3.049667
0.279400	-3.071739
0.279500	-3.082125
0.279600	-3.085371
0.279700	-3.072063
0.279800	-3.058431
0.279900	-3.041877
0.280000	-3.027920
0.280100	-3.006822
0.280200	-2.993514
0.280300	-2.981829
0.280400	-2.970793
0.280500	-2.958783
0.280600	-2.954888
0.280700	-2.946449
0.280800	-2.938984
0.280900	-2.950020
0.281000	-2.974688
0.281100	-3.008120
0.281200	-3.113286
0.281300	-3.280771
0.281400	-3.364189
0.281500	-3.340170
0.281600	-3.246690
0.281700	-3.211635
0.281800	-3.295702
0.281900	-3.458319
0.282000	-3.575819
0.282100	-3.599513
0.282200	-3.540114
0.282300	-3.499541
0.282400	-3.531026
0.282500	-3.607628
0.282600	-3.693319
0.282700	-3.723830
0.282800	-3.730646
0.282900	-3.718961
0.283000	-3.717013
0.283100	-3.722856
0.283200	-3.733567
0.283300	-3.749796
0.283400	-3.776737
0.283500	-3.805301
0.283600	-3.830618
0.283700	-3.859182
0.283800	-3.874437
0.283900	-3.875411
0.284000	-3.892939
0.284100	-3.919230
0.284200	-3.954610
0.284300	-3.939354
0.284400	-3.856910
0.284500	-3.799133
0.284600	-3.830943
0.284700	-3.943249
0.284800	-4.038678
0.284900	-4.047766
0.285000	-3.945846
0.285100	-3.850093
0.285200	-3.850418
0.285300	-3.941951
0.285400	-4.046792
0.285500	-4.087041
0.285600	-4.045819
0.285700	-3.983498
0.285800	-3.955908
0.285900	-3.948443
0.286000	-3.950066
0.286100	-3.921502
0.286200	-3.889368
0.286300	-3.859182
0.286400	-3.820881
0.286500	-3.771544
0.286600	-3.688125
0.286700	-3.586530
0.286800	-3.507331
0.286900	-3.466758
0.287000	-3.440791
0.287100	-3.402815
0.287200	-3.321344
0.287300	-3.231759
0.287400	-3.169114
0.287500	-3.082775
0.287600	-3.031490
0.287700	-2.991242
0.287800	-2.935089
0.287900	-2.871795
0.288000	-2.801360
0.288100	-2.715670
0.288200	-2.657570
0.288300	-2.612128
0.288400	-2.586810
0.288500	-2.551106
0.288600	-2.540070
0.288700	-2.516051
0.288800	-2.498199
0.288900	-2.463793
0.289000	-2.447564
0.289100	-2.434256
0.289200	-2.436853
0.289300	-2.456328
0.289400	-2.440748
0.289500	-2.394332
0.289600	-2.226847
0.289700	-2.118437
0.289800	-2.102207
0.289900	-2.254761
0.290000	-2.327793
0.290100	-2.279754
0.290200	-2.129472
0.290300	-2.004183
0.290400	-1.969128
0.290500	-2.018790
0.290600	-2.098962
0.290700	-2.102857
0.290800	-2.044107
0.290900	-1.956470
0.291000	-1.912651
0.291100	-1.920766
0.291200	-1.947381
0.291300	-1.964584
0.291400	-1.976594
0.291500	-1.984708
0.291600	-1.990551
0.291700	-2.000613
0.291800	-2.003534
0.291900	-2.019114
0.292000	-2.055792
0.292100	-2.101883
0.292200	-2.147649
0.292300	-2.211267
0.292400	-2.231391
0.292500	-2.256060
0.292600	-2.269368
0.292700	-2.359602
0.292800	-2.503068
0.292900	-2.577722
0.293000	-2.571230
0.293100	-2.508910
0.293200	-2.482294
0.293300	-2.561817
0.293400	-2.710152
0.293500	-2.810124
0.293600	-2.795842
0.293700	-2.735145
0.293800	-2.703985
0.293900	-2.755594
0.294000	-2.850048
0.294100	-2.910420
0.294200	-2.929895
0.294300	-2.918535
0.294400	-2.911394
0.294500	-2.929571
0.294600	-2.960082
0.294700	-2.981504
0.294800	-2.984750
0.294900	-2.980531
0.295000	-2.987022
0.295100	-2.993189
0.295200	-2.982478
0.295300	-2.961056
0.295400	-2.937361
0.295500	-2.955213
0.295600	-3.007146
0.295700	-3.049992
0.295800	-3.061352
0.295900	-3.017209
0.296000	-3.006497
0.296100	-3.016884
0.296200	-3.018182
0.296300	-3.021104
0.296400	-3.012015
0.296500	-3.006497
0.296600	-3.008120
0.296700	-2.998383
0.296800	-2.992540
0.296900	-2.991566
0.297000	-2.983776
0.297100	-2.969495
0.297200	-2.960082
0.297300	-2.948397
0.297400	-2.938659
0.297500	-2.926325
0.297600	-2.926325
0.297700	-2.942230
0.297800	-2.981829
0.297900	-3.103223
0.298000	-3.251559
0.298100	-3.296351
0.298200	-3.223969
0.298300	-3.111987
0.298400	-3.094784
0.298500	-3.201897
0.298600	-3.354127
0.298700	-3.452152
0.298800	-3.430729
0.298900	-3.358022
0.299000	-3.315826
0.299100	-3.366786
0.299200	-3.463512
0.299300	-3.556344
0.299400	-3.594969
0.299500	-3.596268
0.299600	-3.594969
0.299700	-3.614769
0.299800	-3.655342
0.299900	-3.701109
0.300000	-3.728698
0.300100	-3.749472
0.300200	-3.780307
0.300300	-3.816012
0.300400	-3.847497
0.300500	-3.858533
0.300600	-3.868270
0.300700	-3.891965
0.300800	-3.923125
0.300900	-3.943249
0.301000	-3.906571
0.301100	-3.818609
0.301200	-3.786475
0.301300	-3.828671
0.301400	-3.929292
0.301500	-4.008167
0.301600	-3.966295
0.301700	-3.852365
0.301800	-3.761482
0.301900	-3.754341
0.302000	-3.844251
0.302100	-3.948443
0.302200	-3.994534
0.302300	-3.954935
0.302400	-3.885473
0.302500	-3.850418
0.302600	-3.857234
0.302700	-3.881254
0.302800	-3.882227
0.302900	-3.864700
0.303000	-3.838408
0.303100	-3.807573
0.303200	-3.780632
0.303300	-3.731944
0.303400	-3.673519
0.303500	-3.614444
0.303600	-3.576468
0.303700	-3.545632
0.303800	-3.502463
0.303900	-3.408982
0.304000	-3.304466
0.304100	-3.176255
0.304200	-3.098355
0.304300	-3.046097
0.304400	-2.986373
0.304500	-2.929895
0.304600	-2.865628
0.304700	-2.781236
0.304800	-2.717942
0.304900	-2.666982
0.305000	-2.638095
0.305100	-2.617646
0.305200	-2.606610
0.305300	-2.593951
0.305400	-2.586161
0.305500	-2.557598
0.305600	-2.558572
0.305700	-2.557598
0.305800	-2.564739
0.305900	-2.596872
0.306000	-2.615374
0.306100	-2.629006
0.306200	-2.546887
0.306300	-2.426141
0.306400	-2.324871
0.306500	-2.397254
0.306600	-2.545913
0.306700	-2.613426
0.306800	-2.559221
0.306900	-2.427764
0.307000	-2.355058
0.307100	-2.364471
0.307200	-2.453731
0.307300	-2.507287
0.307400	-2.500796
0.307500	-2.413483
0.307600	-2.338179
0.307700	-2.296633
0.307800	-2.287544
0.307900	-2.302151
0.308000	-2.305072
0.308100	-2.301177
0.308200	-2.274886
0.308300	-2.262227
0.308400	-2.240804
0.308500	-2.225549
0.308600	-2.220031
0.308700	-2.256060
0.308800	-2.274886
0.308900	-2.316108
0.309000	-2.346943
0.309100	-2.346943
0.309200	-2.356356
0.309300	-2.370313
0.309400	-2.470934
0.309500	-2.588109
0.309600	-2.620567
0.309700	-2.594276
0.309800	-2.516376
0.309900	-2.538447
0.310000	-2.632252
0.310100	-2.756568
0.310200	-2.824406
0.310300	-2.807203
0.310400	-2.753322
0.310500	-2.745856
0.310600	-2.807852
0.310700	-2.885427
0.310800	-2.932817
0.310900	-2.951967
0.311000	-2.963003
0.311100	-2.990593
0.311200	-3.023700
0.311300	-3.065572
0.311400	-3.085371
0.311500	-3.098355
0.311600	-3.118803
0.311700	-3.135033
0.311800	-3.144446
0.311900	-3.135033
0.312000	-3.120751
0.312100	-3.121400
0.312200	-3.157754
0.312300	-3.222995
0.312400	-3.247664
0.312500	-3.259998
0.312600	-3.240198
0.312700	-3.253181
0.312800	-3.268762
0.312900	-3.272657
0.313000	-3.284017
0.313100	-3.293755
0.313200	-3.304790
0.313300	-3.316151
0.313400	-3.317449
0.313500	-3.326862
0.313600	-3.329134
0.313700	-3.323616
0.313800	-3.324265
0.313900	-3.322643
0.314000	-3.316800
0.314100	-3.324590
0.314200	-3.337573
0.314300	-3.348609
0.314400	-3.383015
0.314500	-3.451503
0.314600	-3.612172
0.314700	-3.749472
0.314800	-3.773167
0.314900	-3.698512
0.315000	-3.630024
0.315100	-3.669624
0.315200	-3.813740
0.315300	-3.961426
0.315400	-4.012386
0.315500	-3.974734
0.315600	-3.914361
0.315700	-3.910466
0.315800	-3.981226
0.315900	-4.074382
0.316000	-4.140922
0.316100	-4.156502
0.316200	-4.171433
0.316300	-4.185391
0.316400	-4.212007
0.316500	-4.236675
0.316600	-4.259721
0.316700	-4.276275
0.316800	-4.280170
0.316900	-4.314901
0.317000	-4.341517
0.317100	-4.351579
0.317200	-4.342490
0.317300	-4.344113
0.317400	-4.360018
0.317500	-4.383064
0.317600	-4.372352
0.317700	-4.310032
0.317800	-4.217525
0.317900	-4.215253
0.318000	-4.284714
0.318100	-4.387608
0.318200	-4.440840
0.318300	-4.386310
0.318400	-4.299970
0.318500	-4.259072
0.318600	-4.312953
0.318700	-4.425260
0.318800	-4.510626
0.318900	-4.512898
0.319000	-4.463237
0.319100	-4.421689
0.319200	-4.428506
0.319300	-4.453499
0.319400	-4.471351
0.319500	-4.468430
0.319600	-4.454473
0.319700	-4.426558
0.319800	-4.402214
0.319900	-4.365211
0.320000	-4.296724
0.320100	-4.215902
0.320200	-4.152283
0.320300	-4.106841
0.320400	-4.065618
0.320500	-4.000052
0.320600	-3.879306
0.320700	-3.750446
0.320800	-3.629375
0.320900	-3.562186
0.321000	-3.503112
0.321100	-3.429431
0.321200	-3.355750
0.321300	-3.283043
0.321400	-3.187615
0.321500	-3.115558
0.321600	-3.063949
0.321700	-3.031815
0.321800	-2.994488
0.321900	-2.969819
0.322000	-2.948721
0.322100	-2.912043
0.322200	-2.880234
0.322300	-2.838687
0.322400	-2.804281
0.322500	-2.780911
0.322600	-2.759164
0.322700	-2.755594
0.322800	-2.701713
0.322900	-2.587784
0.323000	-2.422896
0.323100	-2.387841
0.323200	-2.481970
0.323300	-2.638419
0.323400	-2.660491
0.323500	-2.562467
0.323600	-2.448213
0.323700	-2.392060
0.323800	-2.447564
0.323900	-2.519946
0.324000	-2.566686
0.324100	-2.518648
0.324200	-2.435230
0.324300	-2.371287
0.324400	-2.342724
0.324500	-2.358953
0.324600	-2.363821
0.324700	-2.361225
0.324800	-2.357005
0.324900	-2.345969
0.325000	-2.342074
0.325100	-2.345320
0.325200	-2.358953
0.325300	-2.354409
0.325400	-2.406342
0.325500	-2.427115
0.325600	-2.487812
0.325700	-2.511507
0.325800	-2.512156
0.325900	-2.505989
0.326000	-2.550132
0.326100	-2.674773
0.326200	-2.765981
0.326300	-2.785131
0.326400	-2.734171
0.326500	-2.676071
0.326600	-2.708205
0.326700	-2.830897
0.326800	-2.938984
0.326900	-2.970144
0.327000	-2.922755
0.327100	-2.852969
0.327200	-2.858487
0.327300	-2.941256
0.327400	-3.032789
0.327500	-3.062326
0.327600	-3.068818
0.327700	-3.063624
0.327800	-3.104197
0.327900	-3.153859
0.328000	-3.214231
0.328100	-3.262919
0.328200	-3.292456
0.328300	-3.317125
0.328400	-3.351531
0.328500	-3.364189
0.328600	-3.358347
0.328700	-3.347636
0.328800	-3.358671
0.328900	-3.408982
0.329000	-3.449231
0.329100	-3.463188
0.329200	-3.408008
0.329300	-3.374252
0.329400	-3.371655
0.329500	-3.357698
0.329600	-3.344714
0.329700	-3.329783
0.329800	-3.324915
0.329900	-3.314528
0.330000	-3.308685
0.330100	-3.305764
0.330200	-3.307712
0.330300	-3.308685
0.330400	-3.319721
0.330500	-3.332056
0.330600	-3.338872
0.330700	-3.356724
0.330800	-3.362566
0.330900	-3.380743
0.331000	-3.409631
0.331100	-3.440467
0.331200	-3.526806
0.331300	-3.685853
0.331400	-3.785501
0.331500	-3.755314
0.331600	-3.653070
0.331700	-3.587828
0.331800	-3.656640
0.331900	-3.804651
0.332000	-3.914361
0.332100	-3.933512
0.332200	-3.861454
0.332300	-3.805950
0.332400	-3.812441
0.332500	-3.908194
0.332600	-3.997131
0.332700	-4.046143
0.332800	-4.040950
0.332900	-4.027966
0.333000	-4.032511
0.333100	-4.052959
0.333200	-4.080225
0.333300	-4.089313
0.333400	-4.092559
0.333500	-4.100024
0.333600	-4.113657
0.333700	-4.131185
0.333800	-4.131509
0.333900	-4.112359
0.334000	-4.102946
0.334100	-4.109762
0.334200	-4.121447
0.334300	-4.097428
0.334400	-4.019203
0.334500	-3.942925
0.334600	-3.957531
0.334700	-4.041924
0.334800	-4.153906
0.334900	-4.172407
0.335000	-4.098726
0.335100	-4.000377
0.335200	-3.976033
0.335300	-4.047766
0.335400	-4.162994
0.335500	-4.227262
0.335600	-4.205190
0.335700	-4.140922
0.335800	-4.090611
0.335900	-4.080549
0.336000	-4.099375
0.336100	-4.107165
0.336200	-4.099375
0.336300	-4.075680
0.336400	-4.038353
0.336500	-3.996157
0.336600	-3.922476
0.336700	-3.836461
0.336800	-3.756613
0.336900	-3.696240
0.337000	-3.648201
0.337100	-3.601461
0.337200	-3.508954
0.337300	-3.405736
0.337400	-3.316800
0.337500	-3.211635
0.337600	-3.156780
0.337700	-3.108417
0.337800	-3.049342
0.337900	-2.986049
0.338000	-2.919509
0.338100	-2.847127
0.338200	-2.803632
0.338300	-2.775393
0.338400	-2.760787
0.338500	-2.759489
0.338600	-2.761436
0.338700	-2.760463
0.338800	-2.750725
0.338900	-2.738391
0.339000	-2.738066
0.339100	-2.733522
0.339200	-2.752673
0.339300	-2.772472
0.339400	-2.790324
0.339500	-2.732873
0.339600	-2.614725
0.339700	-2.463793
0.339800	-2.477750
0.339900	-2.587459
0.340000	-2.705283
0.340100	-2.679641
0.340200	-2.549808
0.340300	-2.451134
0.340400	-2.413158
0.340500	-2.491707
0.340600	-2.583240
0.340700	-2.609531
0.340800	-2.554027
0.340900	-2.466390
0.341000	-2.428089
0.341100	-2.442371
0.341200	-2.484567
0.341300	-2.521894
0.341400	-2.543641
0.341500	-2.553378
0.341600	-2.558572
0.341700	-2.572853
0.341800	-2.583889
0.341900	-2.597522
0.342000	-2.626085
0.342100	-2.682563
0.342200	-2.736119
0.342300	-2.801360
0.342400	-2.827976
0.342500	-2.830897
0.342600	-2.836415
0.342700	-2.889647
0.342800	-3.010392
0.342900	-3.059405
0.343000	-3.044474
0.343100	-2.933466
0.343200	-2.862382
0.343300	-2.881857
0.343400	-2.981180
0.343500	-3.046097
0.343600	-3.026297
0.343700	-2.927948
0.343800	-2.843556
0.343900	-2.851671
0.344000	-2.915289
0.344100	-2.964626
0.344200	-2.975337
0.344300	-2.957485
0.344400	-2.930869
0.344500	-2.930545
0.344600	-2.944177
0.344700	-2.952616
0.344800	-2.943203
0.344900	-2.936063
0.345000	-2.940931
0.345100	-2.949046
0.345200	-2.950993
0.345300	-2.942879
0.345400	-2.945151
0.345500	-2.986698
0.345600	-3.081152
0.345700	-3.161324
0.345800	-3.207415
0.345900	-3.225592
0.346000	-3.251559
0.346100	-3.300246
0.346200	-3.328810
0.346300	-3.354776
0.346400	-3.377497
0.346500	-3.406061
0.346600	-3.436247
0.346700	-3.464486
0.346800	-3.494023
0.346900	-3.518692
0.347000	-3.543036
0.347100	-3.566730
0.347200	-3.588153
0.347300	-3.598864
0.347400	-3.603409
0.347500	-3.610549
0.347600	-3.616717
0.347700	-3.625156
0.347800	-3.644955
0.347900	-3.737462
0.348000	-3.879631
0.348100	-3.925722
0.348200	-3.862752
0.348300	-3.732918
0.348400	-3.690397
0.348500	-3.783229
0.348600	-3.943249
0.348700	-4.043871
0.348800	-4.033809
0.348900	-3.962075
0.349000	-3.923774
0.349100	-3.974085
0.349200	-4.091585
0.349300	-4.186040
0.349400	-4.234403
0.349500	-4.236675
0.349600	-4.230183
0.349700	-4.251282
0.349800	-4.283416
0.349900	-4.318796
0.350000	-4.329831
0.350100	-4.328858
0.350200	-4.333727
0.350300	-4.362290
0.350400	-4.376247
0.350500	-4.382090
0.350600	-4.360667
0.350700	-4.364887
0.350800	-4.381765
0.350900	-4.396372
0.351000	-4.365536
0.351100	-4.267186
0.351200	-4.222718
0.351300	-4.256800
0.351400	-4.352877
0.351500	-4.442463
0.351600	-4.421365
0.351700	-4.318471
0.351800	-4.224016
0.351900	-4.225639
0.352000	-4.320094
0.352100	-4.432401
0.352200	-4.470377
0.352300	-4.422663
0.352400	-4.352877
0.352500	-4.318471
0.352600	-4.324314
0.352700	-4.348008
0.352800	-4.354500
0.352900	-4.338595
0.353000	-4.301268
0.353100	-4.258098
0.353200	-4.215902
0.353300	-4.153257
0.353400	-4.072435
0.353500	-4.004596
0.353600	-3.957531
0.353700	-3.924423
0.353800	-3.881578
0.353900	-3.793940
0.354000	-3.696240
0.354100	-3.567380
0.354200	-3.490128
0.354300	-3.438195
0.354400	-3.383664
0.354500	-3.321993
0.354600	-3.249936
0.354700	-3.163596
0.354800	-3.082450
0.354900	-3.023376
0.355000	-2.997409
0.355100	-2.972091
0.355200	-2.960731
0.355300	-2.966249
0.355400	-2.960406
0.355500	-2.963977
0.355600	-2.937685
0.355700	-2.956511
0.355800	-2.944826
0.355900	-2.979557
0.356000	-2.981504
0.356100	-2.996760
0.356200	-2.920158
0.356300	-2.790000
0.356400	-2.681913
0.356500	-2.727680
0.356600	-2.886401
0.356700	-2.952292
0.356800	-2.898411
0.356900	-2.742935
0.357000	-2.642963
0.357100	-2.613751
0.357200	-2.693274
0.357300	-2.764358
0.357400	-2.759164
0.357500	-2.686133
0.357600	-2.599469
0.357700	-2.564089
0.357800	-2.575774
0.357900	-2.605961
0.358000	-2.638419
0.358100	-2.641990
0.358200	-2.643937
0.358300	-2.643288
0.358400	-2.648806
0.358500	-2.653675
0.358600	-2.654324
0.358700	-2.688730
0.358800	-2.713723
0.358900	-2.758515
0.359000	-2.797141
0.359100	-2.800711
0.359200	-2.796816
0.359300	-2.786754
0.359400	-2.865303
0.359500	-2.959108
0.359600	-2.983776
0.359700	-2.931518
0.359800	-2.817914
0.359900	-2.784806
0.360000	-2.839986
0.360100	-2.964951
0.360200	-3.047720
0.360300	-3.036034
0.360400	-2.978259
0.360500	-2.951318
0.360600	-3.024025
0.360700	-3.144770
0.360800	-3.245716
0.360900	-3.309335
0.361000	-3.334003
0.361100	-3.362242
0.361200	-3.406061
0.361300	-3.473899
0.361400	-3.527780
0.361500	-3.556344
0.361600	-3.575170
0.361700	-3.589127
0.361800	-3.592697
0.361900	-3.574520
0.362000	-3.555695
0.362100	-3.548554
0.362200	-3.582960
0.362300	-3.646903
0.362400	-3.687151
0.362500	-3.701433
0.362600	-3.678063
0.362700	-3.687151
0.362800	-3.698187
0.362900	-3.707276
0.363000	-3.714417
0.363100	-3.716040
0.363200	-3.723830
0.363300	-3.717338
0.363400	-3.704355
0.363500	-3.705653
0.363600	-3.705004
0.363700	-3.712469
0.363800	-3.719285
0.363900	-3.729997
0.364000	-3.736813
0.364100	-3.754016
0.364200	-3.772517
0.364300	-3.789396
0.364400	-3.810169
0.364500	-3.871516
0.364600	-4.014009
0.364700	-4.167863
0.364800	-4.201620
0.364900	-4.131509
0.365000	-4.038353
0.365100	-4.061723
0.365200	-4.202594
0.365300	-4.371703
0.365400	-4.455122
0.365500	-4.432401
0.365600	-4.382415
0.365700	-4.369756
0.365800	-4.449604
0.365900	-4.569701
0.366000	-4.663831
0.366100	-4.702782
0.366200	-4.708949
0.366300	-4.726152
0.366400	-4.749522
0.366500	-4.781332
0.366600	-4.821905
0.366700	-4.852417
0.366800	-4.876436
0.366900	-4.900131
0.367000	-4.929019
0.367100	-4.933239
0.367200	-4.938757
0.367300	-4.942652
0.367400	-4.970566
0.367500	-5.002701
0.367600	-5.012438
0.367700	-4.956285
0.367800	-4.864426
0.367900	-4.843653
0.368000	-4.899482
0.368100	-4.996534
0.368200	-5.050740
0.368300	-4.986471
0.368400	-4.855338
0.368500	-4.757962
0.368600	-4.748549
0.368700	-4.829371
0.368800	-4.910518
0.368900	-4.915387
0.369000	-4.846249
0.369100	-4.764453
0.369200	-4.724205
0.369300	-4.708300
0.369400	-4.711870
0.369500	-4.718362
0.369600	-4.710896
0.369700	-4.682657
0.369800	-4.649874
0.369900	-4.607029
0.370000	-4.554121
0.370100	-4.495371
0.370200	-4.440516
0.370300	-4.401241
0.370400	-4.380467
0.370500	-4.335999
0.370600	-4.236351
0.370700	-4.138650
0.370800	-4.009140
0.370900	-3.921178
0.371000	-3.865998
0.371100	-3.796537
0.371200	-3.723830
0.371300	-3.651123
0.371400	-3.574520
0.371500	-3.506033
0.371600	-3.453126
0.371700	-3.415798
0.371800	-3.392753
0.371900	-3.379769
0.372000	-3.375874
0.372100	-3.362242
0.372200	-3.351531
0.372300	-3.332380
0.372400	-3.320695
0.372500	-3.321344
0.372600	-3.348609
0.372700	-3.348285
0.372800	-3.338872
0.372900	-3.217153
0.373000	-3.060054
0.373100	-2.970793
0.373200	-3.045447
0.373300	-3.204818
0.373400	-3.226890
0.373500	-3.143472
0.373600	-2.993514
0.373700	-2.915938
0.373800	-2.930545
0.373900	-3.005848
0.374000	-3.050316
0.374100	-3.013314
0.374200	-2.925027
0.374300	-2.851022
0.374400	-2.822134
0.374500	-2.826353
0.374600	-2.830248
0.374700	-2.825704
0.374800	-2.814019
0.374900	-2.806229
0.375000	-2.797790
0.375100	-2.799413
0.375200	-2.783184
0.375300	-2.796491
0.375400	-2.836415
0.375500	-2.888673
0.375600	-2.948072
0.375700	-2.980531
0.375800	-2.973390
0.375900	-2.981829
0.376000	-3.010068
0.376100	-3.144121
0.376200	-3.256427
0.376300	-3.294079
0.376400	-3.259349
0.376500	-3.197678
0.376600	-3.222995
0.376700	-3.325888
0.376800	-3.442739
0.376900	-3.485909
0.377000	-3.440467
0.377100	-3.361268
0.377200	-3.346013
0.377300	-3.395999
0.377400	-3.460916
0.377500	-3.487856
0.377600	-3.489479
0.377700	-3.465460
0.377800	-3.480066
0.377900	-3.502138
0.378000	-3.527780
0.378100	-3.546931
0.378200	-3.554072
0.378300	-3.575819
0.378400	-3.607304
0.378500	-3.622234
0.378600	-3.622559
0.378700	-3.610874
0.378800	-3.616067
0.378900	-3.663781
0.379000	-3.721558
0.379100	-3.744603
0.379200	-3.748823
0.379300	-3.711495
0.379400	-3.715066
0.379500	-3.713118
0.379600	-3.712145
0.379700	-3.704355
0.379800	-3.693643
0.379900	-3.675466
0.380000	-3.664755
0.380100	-3.662808
0.380200	-3.653070
0.380300	-3.641385
0.380400	-3.644955
0.380500	-3.646578
0.380600	-3.651447
0.380700	-3.651123
0.380800	-3.658588
0.380900	-3.672870
0.381000	-3.697214
0.381100	-3.719610
0.381200	-3.800107
0.381300	-3.969865
0.381400	-4.093533
0.381500	-4.095805
0.381600	-3.993236
0.381700	-3.920204
0.381800	-3.983174
0.381900	-4.151958
0.382000	-4.306786
0.382100	-4.364887
0.382200	-4.329831
0.382300	-4.286986
0.382400	-4.316523
0.382500	-4.428830
0.382600	-4.552823
0.382700	-4.621635
0.382800	-4.633320
0.382900	-4.621960
0.383000	-4.623907
0.383100	-4.634943
0.383200	-4.650523
0.383300	-4.642733
0.383400	-4.628451
0.383500	-4.618389
0.383600	-4.640136
0.383700	-4.672920
0.383800	-4.677139
0.383900	-4.674218
0.384000	-4.687526
0.384100	-4.716739
0.384200	-4.751470
0.384300	-4.755365
0.384400	-4.687526
0.384500	-4.612871
0.384600	-4.630399
0.384700	-4.721608
0.384800	-4.839433
0.384900	-4.878708
0.385000	-4.822879
0.385100	-4.723880
0.385200	-4.681359
0.385300	-4.724205
0.385400	-4.824177
0.385500	-4.880656
0.385600	-4.853390
0.385700	-4.779384
0.385800	-4.727450
0.385900	-4.718687
0.386000	-4.737188
0.386100	-4.751470
0.386200	-4.749522
0.386300	-4.749847
0.386400	-4.740434
0.386500	-4.735565
0.386600	-4.712844
0.386700	-4.642733
0.386800	-4.584307
0.386900	-4.544059
0.387000	-4.517443
0.387100	-4.493099
0.387200	-4.422014
0.387300	-4.321068
0.387400	-4.240570
0.387500	-4.136053
0.387600	-4.074382
0.387700	-4.022124
0.387800	-3.968243
0.387900	-3.908843
0.388000	-3.842628
0.388100	-3.766675
0.388200	-3.714417
0.388300	-3.680335
0.388400	-3.665404
0.388500	-3.649500
0.388600	-3.643657
0.388700	-3.631647
0.388800	-3.614120
0.388900	-3.593346
0.389000	-3.577117
0.389100	-3.569652
0.389200	-3.558291
0.389300	-3.583933
0.389400	-3.567055
0.389500	-3.552449
0.389600	-3.422290
0.389700	-3.301869
0.389800	-3.261621
0.389900	-3.401192
0.390000	-3.514472
0.390100	-3.513174
0.390200	-3.393402
0.390300	-3.260971
0.390400	-3.203195
0.390500	-3.236952
0.390600	-3.313879
0.390700	-3.324590
0.390800	-3.271683
0.390900	-3.173334
0.391000	-3.120102
0.391100	-3.100627
0.391200	-3.129839
0.391300	-3.143147
0.391400	-3.148665
0.391500	-3.139901
0.391600	-3.137305
0.391700	-3.147367
0.391800	-3.158727
0.391900	-3.178202
0.392000	-3.205792
0.392100	-3.261945
0.392200	-3.323941
0.392300	-3.380743
0.392400	-3.417421
0.392500	-3.426185
0.392600	-3.444686
0.392700	-3.507656
0.392800	-3.655991
0.392900	-3.762131
0.393000	-3.798160
0.393100	-3.742656
0.393200	-3.708250
0.393300	-3.769272
0.393400	-3.903001
0.393500	-4.013685
0.393600	-4.035432
0.393700	-3.961102
0.393800	-3.885798
0.393900	-3.890017
0.394000	-3.952662
0.394100	-4.004272
0.394200	-4.004921
0.394300	-3.974734
0.394400	-3.927669
0.394500	-3.910466
0.394600	-3.914361
0.394700	-3.926696
0.394800	-3.910142
0.394900	-3.888070
0.395000	-3.878657
0.395100	-3.870218
0.395200	-3.857559
0.395300	-3.833540
0.395400	-3.812117
0.395500	-3.819907
0.395600	-3.869244
0.395700	-3.903975
0.395800	-3.906896
0.395900	-3.854638
0.396000	-3.825425
0.396100	-3.816336
0.396200	-3.795238
0.396300	-3.769272
0.396400	-3.744928
0.396500	-3.718636
0.396600	-3.692994
0.396700	-3.678063
0.396800	-3.660860
0.396900	-3.647877
0.397000	-3.643982
0.397100	-3.641060
0.397200	-3.638139
0.397300	-3.634569
0.397400	-3.645929
0.397500	-3.659562
0.397600	-3.676440
0.397700	-3.708899
0.397800	-3.746875
0.397900	-3.874437
0.398000	-4.041274
0.398100	-4.159424
0.398200	-4.133781
0.398300	-4.060750
0.398400	-4.035756
0.398500	-4.152607
0.398600	-4.332428
0.398700	-4.466482
0.398800	-4.494072
0.398900	-4.443112
0.399000	-4.412601
0.399100	-4.461938
0.399200	-4.563209
0.399300	-4.655392
0.399400	-4.693693
0.399500	-4.691421
0.399600	-4.688825
0.399700	-4.719660
0.399800	-4.753417
0.399900	-4.784253
0.400000	-4.806001
0.400100	-4.821905
0.400200	-4.843328
0.400300	-4.879682
0.400400	-4.910193
0.400500	-4.920255
0.400600	-4.924150
0.400700	-4.944924
0.400800	-4.990691
0.400900	-5.034510
0.401000	-5.028019
0.401100	-4.961803
0.401200	-4.923177
0.401300	-4.969917
0.401400	-5.092287
0.401500	-5.211411
0.401600	-5.227965
0.401700	-5.154932
0.401800	-5.068917
0.401900	-5.058530
0.402000	-5.141949
0.402100	-5.259125
0.402200	-5.314955
0.402300	-5.283145
0.402400	-5.214008
0.402500	-5.175382
0.402600	-5.174408
0.402700	-5.206867
0.402800	-5.225693
0.402900	-5.236080
0.403000	-5.225044
0.403100	-5.212709
0.403200	-5.204594
0.403300	-5.179277
0.403400	-5.139677
0.403500	-5.103972
0.403600	-5.093585
0.403700	-5.080926
0.403800	-5.064372
0.403900	-5.002051
0.404000	-4.924800
0.404100	-4.824502
0.404200	-4.746601
0.404300	-4.689149
0.404400	-4.625530
0.404500	-4.556068
0.404600	-4.473299
0.404700	-4.379169
0.404800	-4.286012
0.404900	-4.208761
0.405000	-4.154879
0.405100	-4.112034
0.405200	-4.078277
0.405300	-4.029914
0.405400	-3.999403
0.405500	-3.945522
0.405600	-3.903001
0.405700	-3.858857
0.405800	-3.833540
0.405900	-3.818284
0.406000	-3.802379
0.406100	-3.773491
0.406200	-3.675466
0.406300	-3.514148
0.406400	-3.366786
0.406500	-3.369383
0.406600	-3.505059
0.406700	-3.566406
0.406800	-3.519990
0.406900	-3.369383
0.407000	-3.257076
0.407100	-3.237601
0.407200	-3.301869
0.407300	-3.370357
0.407400	-3.354452
0.407500	-3.275578
0.407600	-3.175930
0.407700	-3.144121
0.407800	-3.141849
0.407900	-3.176904
0.408000	-3.195081
0.408100	-3.193458
0.408200	-3.177878
0.408300	-3.176904
0.408400	-3.176904
0.408500	-3.179501
0.408600	-3.179501
0.408700	-3.212933
0.408800	-3.243119
0.408900	-3.295053
0.409000	-3.329134
0.409100	-3.334328
0.409200	-3.321669
0.409300	-3.298948
0.409400	-3.365163
0.409500	-3.473250
0.409600	-3.519990
0.409700	-3.500840
0.409800	-3.411579
0.409900	-3.382691
0.410000	-3.447932
0.410100	-3.578740
0.410200	-3.661509
0.410300	-3.657614
0.410400	-3.585232
0.410500	-3.550177
0.410600	-3.593996
0.410700	-3.677739
0.410800	-3.735190
0.410900	-3.751095
0.411000	-3.739410
0.411100	-3.733567
0.411200	-3.747524
0.411300	-3.783553
0.411400	-3.816661
0.411500	-3.824451
0.411600	-3.843926
0.411700	-3.871191
0.411800	-3.903650
0.411900	-3.915660
0.412000	-3.923450
0.412100	-3.940653
0.412200	-3.995508
0.412300	-4.067890
0.412400	-4.124693
0.412500	-4.138326
0.412600	-4.124368
0.412700	-4.129237
0.412800	-4.146116
0.412900	-4.156827
0.413000	-4.154230
0.413100	-4.142545
0.413200	-4.144817
0.413300	-4.147739
0.413400	-4.157801
0.413500	-4.181820
0.413600	-4.206489
0.413700	-4.231157
0.413800	-4.261668
0.413900	-4.288934
0.414000	-4.316199
0.414100	-4.338271
0.414200	-4.360667
0.414300	-4.391828
0.414400	-4.415198
0.414500	-4.470053
0.414600	-4.608002
0.414700	-4.756988
0.414800	-4.813141
0.414900	-4.740434
0.415000	-4.649874
0.415100	-4.651172
0.415200	-4.789447
0.415300	-4.948819
0.415400	-5.040677
0.415500	-5.016009
0.415600	-4.939731
0.415700	-4.912465
0.415800	-4.956285
0.415900	-5.053336
0.416000	-5.120202
0.416100	-5.144221
0.416200	-5.125070
0.416300	-5.120851
0.416400	-5.135457
0.416500	-5.170513
0.416600	-5.201024
0.416700	-5.219201
0.416800	-5.231860
0.416900	-5.248089
0.417000	-5.271460
0.417100	-5.279574
0.417200	-5.271460
0.417300	-5.255555
0.417400	-5.266915
0.417500	-5.287040
0.417600	-5.290286
0.417700	-5.254256
0.417800	-5.165644
0.417900	-5.140975
0.418000	-5.188365
0.418100	-5.281847
0.418200	-5.363967
0.418300	-5.333781
0.418400	-5.233483
0.418500	-5.169539
0.418600	-5.207840
0.418700	-5.308138
0.418800	-5.415577
0.418900	-5.449983
0.419000	-5.420770
0.419100	-5.369810
0.419200	-5.348387
0.419300	-5.372731
0.419400	-5.403243
0.419500	-5.411033
0.419600	-5.402594
0.419700	-5.382144
0.419800	-5.368512
0.419900	-5.343518
0.420000	-5.304243
0.420100	-5.251660
0.420200	-5.203296
0.420300	-5.166293
0.420400	-5.144870
0.420500	-5.103972
0.420600	-5.004648
0.420700	-4.893639
0.420800	-4.762181
0.420900	-4.678438
0.421000	-4.612547
0.421100	-4.547954
0.421200	-4.479791
0.421300	-4.397995
0.421400	-4.305163
0.421500	-4.223692
0.421600	-4.161371
0.421700	-4.127939
0.421800	-4.106516
0.421900	-4.090611
0.422000	-4.078926
0.422100	-4.062048
0.422200	-4.037055
0.422300	-4.016606
0.422400	-3.990639
0.422500	-3.998429
0.422600	-3.984796
0.422700	-4.017580
0.422800	-3.978629
0.422900	-3.904624
0.423000	-3.727725
0.423100	-3.663457
0.423200	-3.724154
0.423300	-3.873139
0.423400	-3.923450
0.423500	-3.829320
0.423600	-3.694617
0.423700	-3.584907
0.423800	-3.606005
0.423900	-3.666053
0.424000	-3.722856
0.424100	-3.694617
0.424200	-3.603084
0.424300	-3.525833
0.424400	-3.491102
0.424500	-3.494023
0.424600	-3.504410
0.424700	-3.516420
0.424800	-3.512849
0.424900	-3.494023
0.425000	-3.472276
0.425100	-3.466109
0.425200	-3.456371
0.425300	-3.454424
0.425400	-3.498568
0.425500	-3.514472
0.425600	-3.563160
0.425700	-3.578091
0.425800	-3.570950
0.425900	-3.537842
0.426000	-3.527131
0.426100	-3.584907
0.426200	-3.649500
0.426300	-3.646254
0.426400	-3.569652
0.426500	-3.467407
0.426600	-3.438195
0.426700	-3.517718
0.426800	-3.615743
0.426900	-3.654044
0.427000	-3.605356
0.427100	-3.523885
0.427200	-3.496620
0.427300	-3.542387
0.427400	-3.612172
0.427500	-3.654693
0.427600	-3.670273
0.427700	-3.670922
0.427800	-3.692669
0.427900	-3.729348
0.428000	-3.770245
0.428100	-3.791668
0.428200	-3.806274
0.428300	-3.833540
0.428400	-3.861778
0.428500	-3.872814
0.428600	-3.869244
0.428700	-3.847497
0.428800	-3.847821
0.428900	-3.898457
0.429000	-3.970515
0.429100	-4.002649
0.429200	-3.996806
0.429300	-3.969541
0.429400	-3.968243
0.429500	-3.962075
0.429600	-3.947144
0.429700	-3.926046
0.429800	-3.908194
0.429900	-3.885149
0.430000	-3.866972
0.430100	-3.847172
0.430200	-3.840031
0.430300	-3.836785
0.430400	-3.830294
0.430500	-3.831917
0.430600	-3.831267
0.430700	-3.842303
0.430800	-3.851067
0.430900	-3.869569
0.431000	-3.890667
0.431100	-3.924099
0.431200	-3.995832
0.431300	-4.151309
0.431400	-4.293153
0.431500	-4.314576
0.431600	-4.226613
0.431700	-4.150660
0.431800	-4.193181
0.431900	-4.359044
0.432000	-4.512898
0.432100	-4.589176
0.432200	-4.546331
0.432300	-4.494397
0.432400	-4.502512
0.432500	-4.592747
0.432600	-4.707326
0.432700	-4.782955
0.432800	-4.812817
0.432900	-4.825476
0.433000	-4.837810
0.433100	-4.865725
0.433200	-4.903701
0.433300	-4.946222
0.433400	-4.975760
0.433500	-5.005622
0.433600	-5.055609
0.433700	-5.088716
0.433800	-5.112736
0.433900	-5.125720
0.434000	-5.166618
0.434100	-5.225044
0.434200	-5.293856
0.434300	-5.338650
0.434400	-5.307489
0.434500	-5.264643
0.434600	-5.305541
0.434700	-5.423367
0.434800	-5.565213
0.434900	-5.640517
0.435000	-5.598321
0.435100	-5.508409
0.435200	-5.469134
0.435300	-5.525937
0.435400	-5.638570
0.435500	-5.729779
0.435600	-5.737245
0.435700	-5.672327
0.435800	-5.621367
0.435900	-5.608708
0.436000	-5.620393
0.436100	-5.622340
0.436200	-5.606435
0.436300	-5.582416
0.436400	-5.554501
0.436500	-5.517498
0.436600	-5.459721
0.436700	-5.376302
0.436800	-5.273407
0.436900	-5.203621
0.437000	-5.149739
0.437100	-5.105920
0.437200	-5.027369
0.437300	-4.912790
0.437400	-4.783929
0.437500	-4.649225
0.437600	-4.561911
0.437700	-4.477194
0.437800	-4.381441
0.437900	-4.287311
0.438000	-4.183443
0.438100	-4.073408
0.438200	-3.988691
0.438300	-3.929617
0.438400	-3.896509
0.438500	-3.878332
0.438600	-3.872490
0.438700	-3.871516
0.438800	-3.866647
0.438900	-3.852041
0.439000	-3.840031
0.439100	-3.827697
0.439200	-3.828995
0.439300	-3.852041
0.439400	-3.860805
0.439500	-3.846198
0.439600	-3.722531
0.439700	-3.579389
0.439800	-3.524859
0.439900	-3.631647
0.440000	-3.773816
0.440100	-3.783553
0.440200	-3.687476
0.440300	-3.543036
0.440400	-3.489155
0.440500	-3.545308
0.440600	-3.634244
0.440700	-3.695591
0.440800	-3.649824
0.440900	-3.571599
0.441000	-3.496620
0.441100	-3.484286
0.441200	-3.482663
0.441300	-3.494673
0.441400	-3.479417
0.441500	-3.456047
0.441600	-3.431378
0.441700	-3.417746
0.441800	-3.423588
0.441900	-3.419369
0.442000	-3.455398
0.442100	-3.472925
0.442200	-3.530052
0.442300	-3.574520
0.442400	-3.606330
0.442500	-3.587504
0.442600	-3.570625
0.442700	-3.601461
0.442800	-3.703705
0.442900	-3.783553
0.443000	-3.787448
0.443100	-3.704030
0.443200	-3.624831
0.443300	-3.627752
0.443400	-3.728374
0.443500	-3.844575
0.443600	-3.870867
0.443700	-3.804002
0.443800	-3.716040
0.443900	-3.691371
0.444000	-3.741682
0.444100	-3.806274
0.444200	-3.817310
0.444300	-3.803353
0.444400	-3.780957
0.444500	-3.801406
0.444600	-3.841979
0.444700	-3.879955
0.444800	-3.909493
0.444900	-3.938381
0.445000	-3.979603
0.445100	-4.028940
0.445200	-4.061399
0.445300	-4.072110
0.445400	-4.072759
0.445500	-4.087366
0.445600	-4.152283
0.445700	-4.216875
0.445800	-4.242518
0.445900	-4.240895
0.446000	-4.203243
0.446100	-4.203892
0.446200	-4.191882
0.446300	-4.175328
0.446400	-4.155853
0.446500	-4.143194
0.446600	-4.131834
0.446700	-4.121447
0.446800	-4.120149
0.446900	-4.123719
0.447000	-4.131509
0.447100	-4.145466
0.447200	-4.161696
0.447300	-4.185066
0.447400	-4.207462
0.447500	-4.223367
0.447600	-4.255177
0.447700	-4.279845
0.447800	-4.312304
0.447900	-4.401241
0.448000	-4.571973
0.448100	-4.661884
0.448200	-4.630723
0.448300	-4.507056
0.448400	-4.435971
0.448500	-4.488879
0.448600	-4.643707
0.448700	-4.763155
0.448800	-4.775489
0.448900	-4.692070
0.449000	-4.613520
0.449100	-4.615468
0.449200	-4.684929
0.449300	-4.774191
0.449400	-4.801456
0.449500	-4.800158
0.449600	-4.773217
0.449700	-4.773217
0.449800	-4.794965
0.449900	-4.835538
0.450000	-4.882603
0.450100	-4.908570
0.450200	-4.944599
0.450300	-4.984848
0.450400	-5.026396
0.450500	-5.061776
0.450600	-5.082874
0.450700	-5.119228
0.450800	-5.157529
0.450900	-5.203296
0.451000	-5.213034
0.451100	-5.163047
0.451200	-5.116306
0.451300	-5.151687
0.451400	-5.253932
0.451500	-5.389935
0.451600	-5.441220
0.451700	-5.384417
0.451800	-5.313332
0.451900	-5.301646
0.452000	-5.382469
0.452100	-5.508734
0.452200	-5.598321
0.452300	-5.603190
0.452400	-5.558396
0.452500	-5.530482
0.452600	-5.540868
0.452700	-5.579819
0.452800	-5.609032
0.452900	-5.623639
0.453000	-5.622989
0.453100	-5.596373
0.453200	-5.560344
0.453300	-5.503541
0.453400	-5.421095
0.453500	-5.340922
0.453600	-5.272758
0.453700	-5.213683
0.453800	-5.154608
0.453900	-5.059504
0.454000	-4.950442
0.454100	-4.822879
0.454200	-4.719336
0.454300	-4.653445
0.454400	-4.596642
0.454500	-4.536593
0.454600	-4.474273
0.454700	-4.397995
0.454800	-4.320418
0.454900	-4.256475
0.455000	-4.208112
0.455100	-4.178574
0.455200	-4.153906
0.455300	-4.136703
0.455400	-4.126640
0.455500	-4.103270
0.455600	-4.077303
0.455700	-4.057828
0.455800	-4.037704
0.455900	-4.049714
0.456000	-4.042248
0.456100	-4.034783
0.456200	-3.983498
0.456300	-3.837759
0.456400	-3.725128
0.456500	-3.712469
0.456600	-3.872490
0.456700	-3.980252
0.456800	-3.975708
0.456900	-3.850418
0.457000	-3.729023
0.457100	-3.693643
0.457200	-3.756613
0.457300	-3.844251
0.457400	-3.863077
0.457500	-3.807897
0.457600	-3.722207
0.457700	-3.662483
0.457800	-3.642683
0.457900	-3.632297
0.458000	-3.638139
0.458100	-3.631323
0.458200	-3.627103
0.458300	-3.606330
0.458400	-3.588153
0.458500	-3.570301
0.458600	-3.576143
0.458700	-3.591723
0.458800	-3.642359
0.458900	-3.667352
0.459000	-3.700135
0.459100	-3.696240
0.459200	-3.674168
0.459300	-3.661185
0.459400	-3.688125
0.459500	-3.789720
0.459600	-3.808871
0.459700	-3.783229
0.459800	-3.690722
0.459900	-3.641710
0.460000	-3.684879
0.460100	-3.793615
0.460200	-3.860480
0.460300	-3.854638
0.460400	-3.789396
0.460500	-3.739410
0.460600	-3.762131
0.460700	-3.848470
0.460800	-3.917932
0.460900	-3.947469
0.461000	-3.974410
0.461100	-4.007842
0.461200	-4.077303
0.461300	-4.147739
0.461400	-4.200322
0.461500	-4.233754
0.461600	-4.278547
0.461700	-4.345412
0.461800	-4.400916
0.461900	-4.432401
0.462000	-4.447007
0.462100	-4.452201
0.462200	-4.492125
0.462300	-4.555095
0.462400	-4.598914
0.462500	-4.615792
0.462600	-4.598914
0.462700	-4.567429
0.462800	-4.553796
0.462900	-4.537242
0.463000	-4.511275
0.463100	-4.483036
0.463200	-4.459342
0.463300	-4.427532
0.463400	-4.403513
0.463500	-4.387932
0.463600	-4.378195
0.463700	-4.384037
0.463800	-4.386634
0.463900	-4.395723
0.464000	-4.413575
0.464100	-4.424286
0.464200	-4.452201
0.464300	-4.479791
0.464400	-4.517767
0.464500	-4.558665
0.464600	-4.683631
0.464700	-4.836836
0.464800	-4.911816
0.464900	-4.856312
0.465000	-4.758286
0.465100	-4.741083
0.465200	-4.846249
0.465300	-5.016333
0.465400	-5.116306
0.465500	-5.105595
0.465600	-5.041327
0.465700	-5.020878
0.465800	-5.068592
0.465900	-5.173759
0.466000	-5.258801
0.466100	-5.298076
0.466200	-5.301646
0.466300	-5.300997
0.466400	-5.316577
0.466500	-5.339948
0.466600	-5.356177
0.466700	-5.365590
0.466800	-5.363318
0.466900	-5.368512
0.467000	-5.374679
0.467100	-5.362020
0.467200	-5.320797
0.467300	-5.277627
0.467400	-5.252309
0.467500	-5.253607
0.467600	-5.248089
0.467700	-5.213358
0.467800	-5.111113
0.467900	-5.055284
0.468000	-5.092612
0.468100	-5.191286
0.468200	-5.283145
0.468300	-5.278925
0.468400	-5.189663
0.468500	-5.119877
0.468600	-5.130264
0.468700	-5.219850
0.468800	-5.325666
0.468900	-5.365266
0.469000	-5.329561
0.469100	-5.276653
0.469200	-5.256204
0.469300	-5.270486
0.469400	-5.292233
0.469500	-5.296453
0.469600	-5.276329
0.469700	-5.249712
0.469800	-5.215306
0.469900	-5.177654
0.470000	-5.109815
0.470100	-5.016333
0.470200	-4.933563
0.470300	-4.871892
0.470400	-4.815738
0.470500	-4.764129
0.470600	-4.667402
0.470700	-4.566780
0.470800	-4.435322
0.470900	-4.344113
0.471000	-4.288609
0.471100	-4.235701
0.471200	-4.167863
0.471300	-4.111060
0.471400	-4.041599
0.471500	-3.977331
0.471600	-3.939354
0.471700	-3.923125
0.471800	-3.912089
0.471900	-3.915660
0.472000	-3.910791
0.472100	-3.912089
0.472200	-3.890991
0.472300	-3.882877
0.472400	-3.875086
0.472500	-3.870867
0.472600	-3.879631
0.472700	-3.883201
0.472800	-3.883201
0.472900	-3.806599
0.473000	-3.666053
0.473100	-3.588153
0.473200	-3.627428
0.473300	-3.811468
0.473400	-3.875736
0.473500	-3.853015
0.473600	-3.737462
0.473700	-3.675142
0.473800	-3.716040
0.473900	-3.803028
0.474000	-3.913388
0.474100	-3.920204
0.474200	-3.883526
0.474300	-3.823153
0.474400	-3.818284
0.474500	-3.848795
0.474600	-3.878008
0.474700	-3.904624
0.474800	-3.907220
0.474900	-3.898132
0.475000	-3.893588
0.475100	-3.896509
0.475200	-3.888070
0.475300	-3.871841
0.475400	-3.893588
0.475500	-3.911440
0.475600	-3.962075
0.475700	-3.992586
0.475800	-4.001026
0.475900	-3.985121
0.476000	-3.991937
0.476100	-4.058153
0.476200	-4.168512
0.476300	-4.195777
0.476400	-4.145466
0.476500	-4.042897
0.476600	-4.011088
0.476700	-4.078602
0.476800	-4.187338
0.476900	-4.248685
0.477000	-4.222393
0.477100	-4.137352
0.477200	-4.102621
0.477300	-4.146116
0.477400	-4.231806
0.477500	-4.277573
0.477600	-4.283416
0.477700	-4.266862
0.477800	-4.274003
0.477900	-4.311655
0.478000	-4.356448
0.478100	-4.382415
0.478200	-4.386310
0.478300	-4.388906
0.478400	-4.401241
0.478500	-4.405136
0.478600	-4.399293
0.478700	-4.377221
0.478800	-4.353202
0.478900	-4.367808
0.479000	-4.412926
0.479100	-4.432725
0.479200	-4.429804
0.479300	-4.397345
0.479400	-4.387932
0.479500	-4.385985
0.479600	-4.368133
0.479700	-4.344113
0.479800	-4.309383
0.479900	-4.278222
0.480000	-4.240895
0.480100	-4.210059
0.480200	-4.182794
0.480300	-4.157152
0.480400	-4.129562
0.480500	-4.110411
0.480600	-4.090611
0.480700	-4.068864
0.480800	-4.053284
0.480900	-4.039651
0.481000	-4.032835
0.481100	-4.039327
0.481200	-4.070487
0.481300	-4.205515
0.481400	-4.348008
0.481500	-4.377546
0.481600	-4.299645
0.481700	-4.200646
0.481800	-4.214928
0.481900	-4.353526
0.482000	-4.516793
0.482100	-4.596642
0.482200	-4.569376
0.482300	-4.518092
0.482400	-4.519066
0.482500	-4.605081
0.482600	-4.728424
0.482700	-4.814764
0.482800	-4.839108
0.482900	-4.837810
0.483000	-4.830994
0.483100	-4.852092
0.483200	-4.886498
0.483300	-4.917334
0.483400	-4.944599
0.483500	-4.968944
0.483600	-5.003350
0.483700	-5.055284
0.483800	-5.099752
0.483900	-5.139352
0.484000	-5.177654
0.484100	-5.231535
0.484200	-5.291584
0.484300	-5.318525
0.484400	-5.282820
0.484500	-5.216604
0.484600	-5.205244
0.484700	-5.273732
0.484800	-5.374679
0.484900	-5.441220
0.485000	-5.395453
0.485100	-5.300023
0.485200	-5.224394
0.485300	-5.246466
0.485400	-5.349361
0.485500	-5.429534
0.485600	-5.441869
0.485700	-5.382469
0.485800	-5.319823
0.485900	-5.302296
0.486000	-5.310735
0.486100	-5.328912
0.486200	-5.329561
0.486300	-5.325017
0.486400	-5.310086
0.486500	-5.281847
0.486600	-5.244843
0.486700	-5.187391
0.486800	-5.130264
0.486900	-5.076382
0.487000	-5.028668
0.487100	-5.004648
0.487200	-4.967321
0.487300	-4.897859
0.487400	-4.851118
0.487500	-4.796588
0.487600	-4.742057
0.487700	-4.703106
0.487800	-4.658963
0.487900	-4.602484
0.488000	-4.533347
0.488100	-4.447007
0.488200	-4.372028
0.488300	-4.325612
0.488400	-4.288609
0.488500	-4.263616
0.488600	-4.237324
0.488700	-4.224666
0.488800	-4.195777
0.488900	-4.163319
0.489000	-4.130536
0.489100	-4.087366
0.489200	-4.077953
0.489300	-4.041924
0.489400	-4.030888
0.489500	-3.965646
0.489600	-3.841330
0.489700	-3.653719
0.489800	-3.573222
0.489900	-3.635867
0.490000	-3.757262
0.490100	-3.784852
0.490200	-3.679686
0.490300	-3.532649
0.490400	-3.452801
0.490500	-3.475522
0.490600	-3.569327
0.490700	-3.616717
0.490800	-3.598215
0.490900	-3.513498
0.491000	-3.459293
0.491100	-3.439493
0.491200	-3.449231
0.491300	-3.465135
0.491400	-3.477794
0.491500	-3.472925
0.491600	-3.462863
0.491700	-3.461240
0.491800	-3.472601
0.491900	-3.476496
0.492000	-3.506682
0.492100	-3.555370
0.492200	-3.621910
0.492300	-3.680011
0.492400	-3.733892
0.492500	-3.737462
0.492600	-3.754990
0.492700	-3.776088
0.492800	-3.905598
0.492900	-3.995183
0.493000	-4.018878
0.493100	-3.968243
0.493200	-3.876060
0.493300	-3.893912
0.493400	-3.992262
0.493500	-4.111710
0.493600	-4.145791
0.493700	-4.103270
0.493800	-4.012062
0.493900	-3.986744
0.494000	-4.037055
0.494100	-4.104893
0.494200	-4.110087
0.494300	-4.087690
0.494400	-4.050363
0.494500	-4.041924
0.494600	-4.076330
0.494700	-4.126316
0.494800	-4.159424
0.494900	-4.178899
0.495000	-4.212007
0.495100	-4.250957
0.495200	-4.280819
0.495300	-4.296399
0.495400	-4.288609
0.495500	-4.296075
0.495600	-4.358395
0.495700	-4.430778
0.495800	-4.467132
0.495900	-4.469728
0.496000	-4.448306
0.496100	-4.466482
0.496200	-4.496020
0.496300	-4.511275
0.496400	-4.516793
0.496500	-4.513548
0.496600	-4.501213
0.496700	-4.481413
0.496800	-4.462912
0.496900	-4.446033
0.497000	-4.427532
0.497100	-4.420067
0.497200	-4.409680
0.497300	-4.401241
0.497400	-4.397345
0.497500	-4.412276
0.497600	-4.422339
0.497700	-4.465184
0.497800	-4.501538
0.497900	-4.610274
0.498000	-4.781656
0.498100	-4.917334
0.498200	-4.918632
0.498300	-4.829371
0.498400	-4.762830
0.498500	-4.804053
0.498600	-4.965698
0.498700	-5.103648
0.498800	-5.148116
0.498900	-5.094234
0.499000	-5.034186
0.499100	-5.049766
0.499200	-5.137729
0.499300	-5.244843
0.499400	-5.312033
0.499500	-5.319823
0.499600	-5.306515
0.499700	-5.294181
0.499800	-5.307489
0.499900	-5.327938
0.500000	-5.341895
0.500100	-5.337351
0.500200	-5.326964
0.500300	-5.328263
0.500400	-5.334430
0.500500	-5.338000
0.500600	-5.324043
0.500700	-5.315928
0.500800	-5.331833
0.500900	-5.357476
0.501000	-5.361695
0.501100	-5.289312
0.501200	-5.204270
0.501300	-5.199401
0.501400	-5.281197
0.501500	-5.400321
0.501600	-5.460370
0.501700	-5.406489
0.501800	-5.319823
0.501900	-5.292233
0.502000	-5.365590
0.502100	-5.498996
0.502200	-5.587934
0.502300	-5.587934
0.502400	-5.514901
0.502500	-5.451282
0.502600	-5.424666
0.502700	-5.427911
0.502800	-5.423367
0.502900	-5.403892
0.503000	-5.356826
0.503100	-5.306515
0.503200	-5.257827
0.503300	-5.182847
0.503400	-5.093910
0.503500	-5.018605
0.503600	-4.976084
0.503700	-4.955311
0.503800	-4.960829
0.503900	-4.929668
0.504000	-4.874489
0.504100	-4.847548
0.504200	-4.793017
0.504300	-4.769647
0.504400	-4.749847
0.504500	-4.720309
0.504600	-4.680710
0.504700	-4.625205
0.504800	-4.558990
0.504900	-4.504784
0.505000	-4.471676
0.505100	-4.449929
0.505200	-4.435971
0.505300	-4.425585
0.505400	-4.412276
0.505500	-4.397021
0.505600	-4.352553
0.505700	-4.321392
0.505800	-4.282766
0.505900	-4.247387
0.506000	-4.231157
0.506100	-4.184417
0.506200	-4.117227
0.506300	-3.960453
0.506400	-3.780957
0.506500	-3.721882
0.506600	-3.815363
0.506700	-3.916633
0.506800	-3.880929
0.506900	-3.761482
0.507000	-3.589776
0.507100	-3.528105
0.507200	-3.545632
0.507300	-3.615743
0.507400	-3.641710
0.507500	-3.582635
0.507600	-3.490778
0.507700	-3.412553
0.507800	-3.391779
0.507900	-3.398595
0.508000	-3.427808
0.508100	-3.440791
0.508200	-3.432677
0.508300	-3.415149
0.508400	-3.401192
0.508500	-3.407035
0.508600	-3.406061
0.508700	-3.431378
0.508800	-3.471627
0.508900	-3.509603
0.509000	-3.555045
0.509100	-3.582635
0.509200	-3.590425
0.509300	-3.597566
0.509400	-3.656965
0.509500	-3.789396
0.509600	-3.863726
0.509700	-3.874762
0.509800	-3.815687
0.509900	-3.760183
0.510000	-3.809520
0.510100	-3.924423
0.510200	-4.036730
0.510300	-4.062372
0.510400	-4.014334
0.510500	-3.948443
0.510600	-3.958180
0.510700	-4.026343
0.510800	-4.099375
0.510900	-4.123070
0.511000	-4.132483
0.511100	-4.119175
0.511200	-4.136703
0.511300	-4.170784
0.511400	-4.211682
0.511500	-4.236351
0.511600	-4.258747
0.511700	-4.283416
0.511800	-4.309383
0.511900	-4.309707
0.512000	-4.304189
0.512100	-4.296399
0.512200	-4.319120
0.512300	-4.379493
0.512400	-4.433699
0.512500	-4.453824
0.512600	-4.437270
0.512700	-4.422988
0.512800	-4.443112
0.512900	-4.458043
0.513000	-4.472000
0.513100	-4.480440
0.513200	-4.484010
0.513300	-4.482387
0.513400	-4.486607
0.513500	-4.487581
0.513600	-4.487581
0.513700	-4.484659
0.513800	-4.476545
0.513900	-4.468430
0.514000	-4.451876
0.514100	-4.428506
0.514200	-4.406109
0.514300	-4.390205
0.514400	-4.385336
0.514500	-4.394749
0.514600	-4.474597
0.514700	-4.625530
0.514800	-4.712195
0.514900	-4.669349
0.515000	-4.570675
0.515100	-4.530751
0.515200	-4.628451
0.515300	-4.806325
0.515400	-4.939731
0.515500	-4.970566
0.515600	-4.932590
0.515700	-4.908246
0.515800	-4.950767
0.515900	-5.056582
0.516000	-5.154608
0.516100	-5.210112
0.516200	-5.221148
0.516300	-5.206867
0.516400	-5.212709
0.516500	-5.227640
0.516600	-5.254256
0.516700	-5.278601
0.516800	-5.285092
0.516900	-5.300348
0.517000	-5.326315
0.517100	-5.338650
0.517200	-5.333456
0.517300	-5.328587
0.517400	-5.342869
0.517500	-5.368187
0.517600	-5.394479
0.517700	-5.376626
0.517800	-5.287689
0.517900	-5.245493
0.518000	-5.273083
0.518100	-5.366564
0.518200	-5.471731
0.518300	-5.480170
0.518400	-5.408761
0.518500	-5.318525
0.518600	-5.306191
0.518700	-5.370135
0.518800	-5.469134
0.518900	-5.523016
0.519000	-5.507436
0.519100	-5.461344
0.519200	-5.425964
0.519300	-5.424666
0.519400	-5.444790
0.519500	-5.449983
0.519600	-5.449334
0.519700	-5.435377
0.519800	-5.396751
0.519900	-5.367213
0.520000	-5.327614
0.520100	-5.265942
0.520200	-5.216280
0.520300	-5.191286
0.520400	-5.178952
0.520500	-5.162073
0.520600	-5.101051
0.520700	-5.025097
0.520800	-4.912465
0.520900	-4.840082
0.521000	-4.795614
0.521100	-4.750172
0.521200	-4.699536
0.521300	-4.641759
0.521400	-4.570026
0.521500	-4.497967
0.521600	-4.447007
0.521700	-4.408381
0.521800	-4.397345
0.521900	-4.382415
0.522000	-4.382739
0.522100	-4.375274
0.522200	-4.371054
0.522300	-4.363264
0.522400	-4.347035
0.522500	-4.348982
0.522600	-4.364887
0.522700	-4.389555
0.522800	-4.391178
0.522900	-4.334051
0.523000	-4.200971
0.523100	-4.064645
0.523200	-4.105218
0.523300	-4.243816
0.523400	-4.373326
0.523500	-4.330481
0.523600	-4.221744
0.523700	-4.101323
0.523800	-4.089962
0.523900	-4.164292
0.524000	-4.227911
0.524100	-4.231482
0.524200	-4.162670
0.524300	-4.091910
0.524400	-4.041274
0.524500	-4.025370
0.524600	-4.039976
0.524700	-4.031537
0.524800	-4.022124
0.524900	-4.001999
0.525000	-3.981875
0.525100	-3.961426
0.525200	-3.945522
0.525300	-3.926046
0.525400	-3.948443
0.525500	-3.981226
0.525600	-4.025045
0.525700	-4.059776
0.525800	-4.060100
0.525900	-4.045494
0.526000	-4.041274
0.526100	-4.100998
0.526200	-4.205515
0.526300	-4.237324
0.526400	-4.205515
0.526500	-4.120473
0.526600	-4.082821
0.526700	-4.141896
0.526800	-4.271081
0.526900	-4.339894
0.527000	-4.333727
0.527100	-4.264590
0.527200	-4.239596
0.527300	-4.282766
0.527400	-4.368457
0.527500	-4.431427
0.527600	-4.456096
0.527700	-4.471027
0.527800	-4.502187
0.527900	-4.558990
0.528000	-4.619687
0.528100	-4.648251
0.528200	-4.644681
0.528300	-4.656041
0.528400	-4.684605
0.528500	-4.692070
0.528600	-4.679411
0.528700	-4.649874
0.528800	-4.620012
0.528900	-4.639163
0.529000	-4.694992
0.529100	-4.721932
0.529200	-4.725827
0.529300	-4.690772
0.529400	-4.655717
0.529500	-4.645654
0.529600	-4.614494
0.529700	-4.595019
0.529800	-4.570026
0.529900	-4.548928
0.530000	-4.528803
0.530100	-4.509977
0.530200	-4.500239
0.530300	-4.482712
0.530400	-4.480115
0.530500	-4.483686
0.530600	-4.501538
0.530700	-4.513223
0.530800	-4.535944
0.530900	-4.556718
0.531000	-4.579763
0.531100	-4.623258
0.531200	-4.672271
0.531300	-4.817037
0.531400	-4.963426
0.531500	-5.017307
0.531600	-4.943626
0.531700	-4.832941
0.531800	-4.825151
0.531900	-4.935511
0.532000	-5.096182
0.532100	-5.170513
0.532200	-5.145195
0.532300	-5.058530
0.532400	-5.027045
0.532500	-5.073461
0.532600	-5.170188
0.532700	-5.247765
0.532800	-5.266915
0.532900	-5.256529
0.533000	-5.251984
0.533100	-5.269188
0.533200	-5.296453
0.533300	-5.323718
0.533400	-5.337351
0.533500	-5.338325
0.533600	-5.359423
0.533700	-5.388961
0.533800	-5.422069
0.533900	-5.434403
0.534000	-5.432456
0.534100	-5.444790
0.534200	-5.472380
0.534300	-5.480819
0.534400	-5.433429
0.534500	-5.325017
0.534600	-5.274056
0.534700	-5.296128
0.534800	-5.374679
0.534900	-5.427911
0.535000	-5.369810
0.535100	-5.243870
0.535200	-5.145519
0.535300	-5.140651
0.535400	-5.211411
0.535500	-5.286391
0.535600	-5.279250
0.535700	-5.204594
0.535800	-5.113710
0.535900	-5.059504
0.536000	-5.036458
0.536100	-5.015360
0.536200	-4.964724
0.536300	-4.904351
0.536400	-4.836836
0.536500	-4.778086
0.536600	-4.719011
0.536700	-4.636241
0.536800	-4.539839
0.536900	-4.458368
0.537000	-4.398644
0.537100	-4.354175
0.537200	-4.307760
0.537300	-4.217849
0.537400	-4.121772
0.537500	-3.999727
0.537600	-3.923450
0.537700	-3.878981
0.537800	-3.835812
0.537900	-3.784203
0.538000	-3.729023
0.538100	-3.670922
0.538200	-3.626129
0.538300	-3.603409
0.538400	-3.604058
0.538500	-3.616392
0.538600	-3.620287
0.538700	-3.644631
0.538800	-3.646254
0.538900	-3.668650
0.539000	-3.670273
0.539100	-3.702732
0.539200	-3.716689
0.539300	-3.767324
0.539400	-3.808546
0.539500	-3.829644
0.539600	-3.774140
0.539700	-3.657614
0.539800	-3.585881
0.539900	-3.662158
0.540000	-3.812441
0.540100	-3.867621
0.540200	-3.760183
0.540300	-3.608926
0.540400	-3.469030
0.540500	-3.455722
0.540600	-3.509279
0.540700	-3.558940
0.540800	-3.524534
0.540900	-3.447608
0.541000	-3.371006
0.541100	-3.359645
0.541200	-3.376199
0.541300	-3.416772
0.541400	-3.454424
0.541500	-3.473899
0.541600	-3.479742
0.541700	-3.500840
0.541800	-3.540764
0.541900	-3.575170
0.542000	-3.616717
0.542100	-3.668326
0.542200	-3.720259
0.542300	-3.766999
0.542400	-3.812766
0.542500	-3.823477
0.542600	-3.816336
0.542700	-3.833540
0.542800	-3.915335
0.542900	-4.024071
0.543000	-4.049389
0.543100	-4.015308
0.543200	-3.930591
0.543300	-3.951364
0.543400	-4.061723
0.543500	-4.207462
0.543600	-4.283416
0.543700	-4.288284
0.543800	-4.238298
0.543900	-4.254203
0.544000	-4.341841
0.544100	-4.466482
0.544200	-4.530426
0.544300	-4.573596
0.544400	-4.590799
0.544500	-4.638838
0.544600	-4.704729
0.544700	-4.781656
0.544800	-4.839108
0.544900	-4.873190
0.545000	-4.901754
0.545100	-4.937134
0.545200	-4.956934
0.545300	-4.962452
0.545400	-4.967321
0.545500	-4.980953
0.545600	-5.041976
0.545700	-5.109490
0.545800	-5.140975
0.545900	-5.125395
0.546000	-5.093261
0.546100	-5.105270
0.546200	-5.106569
0.546300	-5.104297
0.546400	-5.102349
0.546500	-5.094884
0.546600	-5.091313
0.546700	-5.085471
0.546800	-5.084497
0.546900	-5.084821
0.547000	-5.087094
0.547100	-5.094559
0.547200	-5.099752
0.547300	-5.106569
0.547400	-5.118903
0.547500	-5.127992
0.547600	-5.132211
0.547700	-5.142923
0.547800	-5.158828
0.547900	-5.212709
0.548000	-5.345141
0.548100	-5.455501
0.548200	-5.459721
0.548300	-5.355528
0.548400	-5.272433
0.548500	-5.299699
0.548600	-5.450957
0.548700	-5.588258
0.548800	-5.647658
0.548900	-5.611953
0.549000	-5.556773
0.549100	-5.552554
0.549200	-5.642789
0.549300	-5.749255
0.549400	-5.818717
0.549500	-5.832999
0.549600	-5.822287
0.549700	-5.819042
0.549800	-5.827806
0.549900	-5.845009
0.550000	-5.850202
0.550100	-5.857343
0.550200	-5.850851
0.550300	-5.849878
0.550400	-5.859940
0.550500	-5.856369
0.550600	-5.842087
0.550700	-5.831701
0.550800	-5.849878
0.550900	-5.863835
0.551000	-5.862212
0.551100	-5.795022
0.551200	-5.719393
0.551300	-5.707707
0.551400	-5.771651
0.551500	-5.874546
0.551600	-5.916743
0.551700	-5.855071
0.551800	-5.756396
0.551900	-5.706084
0.552000	-5.750229
0.552100	-5.854746
0.552200	-5.929078
0.552300	-5.922586
0.552400	-5.858966
0.552500	-5.804110
0.552600	-5.775547
0.552700	-5.779766
0.552800	-5.785609
0.552900	-5.785933
0.553000	-5.772625
0.553100	-5.751527
0.553200	-5.711927
0.553300	-5.654150
0.553400	-5.574950
0.553500	-5.502891
0.553600	-5.454203
0.553700	-5.417849
0.553800	-5.387987
0.553900	-5.326640
0.554000	-5.224394
0.554100	-5.148116
0.554200	-5.038081
0.554300	-4.966022
0.554400	-4.909869
0.554500	-4.843653
0.554600	-4.772243
0.554700	-4.693369
0.554800	-4.598589
0.554900	-4.523285
0.555000	-4.475571
0.555100	-4.434348
0.555200	-4.405136
0.555300	-4.370405
0.555400	-4.348982
0.555500	-4.315874
0.555600	-4.287960
0.555700	-4.254852
0.555800	-4.230183
0.555900	-4.225639
0.556000	-4.225964
0.556100	-4.230183
0.556200	-4.182469
0.556300	-4.073733
0.556400	-3.927345
0.556500	-3.881254
0.556600	-4.009790
0.556700	-4.125018
0.556800	-4.165591
0.556900	-4.046143
0.557000	-3.939030
0.557100	-3.874113
0.557200	-3.927994
0.557300	-4.012386
0.557400	-4.051661
0.557500	-4.013035
0.557600	-3.931240
0.557700	-3.875736
0.557800	-3.843926
0.557900	-3.851067
0.558000	-3.847497
0.558100	-3.846198
0.558200	-3.829320
0.558300	-3.811143
0.558400	-3.799783
0.558500	-3.787448
0.558600	-3.789720
0.558700	-3.793940
0.558800	-3.861454
0.558900	-3.879955
0.559000	-3.925073
0.559100	-3.929292
0.559200	-3.907870
0.559300	-3.892614
0.559400	-3.908194
0.559500	-4.017255
0.559600	-4.090611
0.559700	-4.085093
0.559800	-4.010114
0.559900	-3.928968
0.560000	-3.941951
0.560100	-4.050038
0.560200	-4.137027
0.560300	-4.144817
0.560400	-4.076005
0.560500	-4.002973
0.560600	-4.013685
0.560700	-4.080549
0.560800	-4.156178
0.560900	-4.176302
0.561000	-4.176951
0.561100	-4.162020
0.561200	-4.185391
0.561300	-4.224990
0.561400	-4.255177
0.561500	-4.267186
0.561600	-4.265239
0.561700	-4.271731
0.561800	-4.278547
0.561900	-4.267511
0.562000	-4.235377
0.562100	-4.196751
0.562200	-4.178899
0.562300	-4.221420
0.562400	-4.257124
0.562500	-4.260695
0.562600	-4.253554
0.562700	-4.210059
0.562800	-4.201944
0.562900	-4.184417
0.563000	-4.158775
0.563100	-4.136703
0.563200	-4.118526
0.563300	-4.106516
0.563400	-4.100024
0.563500	-4.096454
0.563600	-4.082821
0.563700	-4.081848
0.563800	-4.075031
0.563900	-4.077953
0.564000	-4.070812
0.564100	-4.076005
0.564200	-4.068540
0.564300	-4.074382
0.564400	-4.090287
0.564500	-4.111710
0.564600	-4.213630
0.564700	-4.372677
0.564800	-4.479141
0.564900	-4.453499
0.565000	-4.351254
0.565100	-4.306461
0.565200	-4.385336
0.565300	-4.563209
0.565400	-4.693693
0.565500	-4.724854
0.565600	-4.667077
0.565700	-4.626504
0.565800	-4.661235
0.565900	-4.761532
0.566000	-4.869944
0.566100	-4.933239
0.566200	-4.957583
0.566300	-4.966671
0.566400	-4.994911
0.566500	-5.043274
0.566600	-5.101700
0.566700	-5.141300
0.566800	-5.171486
0.566900	-5.200050
0.567000	-5.232184
0.567100	-5.287365
0.567200	-5.304892
0.567300	-5.307489
0.567400	-5.313007
0.567500	-5.335404
0.567600	-5.357476
0.567700	-5.342869
0.567800	-5.265293
0.567900	-5.199726
0.568000	-5.219201
0.568100	-5.305541
0.568200	-5.409410
0.568300	-5.433429
0.568400	-5.365590
0.568500	-5.280224
0.568600	-5.277302
0.568700	-5.367213
0.568800	-5.492180
0.568900	-5.568783
0.569000	-5.565862
0.569100	-5.512305
0.569200	-5.478547
0.569300	-5.488934
0.569400	-5.527560
0.569500	-5.559045
0.569600	-5.576898
0.569700	-5.574301
0.569800	-5.551904
0.569900	-5.535350
0.570000	-5.502567
0.570100	-5.450957
0.570200	-5.396426
0.570300	-5.348387
0.570400	-5.318525
0.570500	-5.289637
0.570600	-5.217578
0.570700	-5.118903
0.570800	-4.994911
0.570900	-4.904675
0.571000	-4.849495
0.571100	-4.800158
0.571200	-4.738486
0.571300	-4.663831
0.571400	-4.586904
0.571500	-4.493748
0.571600	-4.423312
0.571700	-4.376572
0.571800	-4.350280
0.571900	-4.325612
0.572000	-4.303540
0.572100	-4.278222
0.572200	-4.239272
0.572300	-4.201944
0.572400	-4.176951
0.572500	-4.150984
0.572600	-4.149037
0.572700	-4.151309
0.572800	-4.139299
0.572900	-4.076979
0.573000	-3.931240
0.573100	-3.806924
0.573200	-3.801730
0.573300	-3.948118
0.573400	-4.049064
0.573500	-4.043222
0.573600	-3.907220
0.573700	-3.800107
0.573800	-3.760508
0.573900	-3.830294
0.574000	-3.912738
0.574100	-3.934161
0.574200	-3.879631
0.574300	-3.799133
0.574400	-3.738436
0.574500	-3.719285
0.574600	-3.741357
0.574700	-3.765052
0.574800	-3.768298
0.574900	-3.761806
0.575000	-3.743954
0.575100	-3.742006
0.575200	-3.736164
0.575300	-3.757911
0.575400	-3.778360
0.575500	-3.819907
0.575600	-3.861129
0.575700	-3.893912
0.575800	-3.906247
0.575900	-3.907220
0.576000	-3.903650
0.576100	-3.962725
0.576200	-4.081198
0.576300	-4.135404
0.576400	-4.118526
0.576500	-4.030888
0.576600	-3.977331
0.576700	-4.022773
0.576800	-4.145791
0.576900	-4.212331
0.577000	-4.203567
0.577100	-4.123070
0.577200	-4.059451
0.577300	-4.067890
0.577400	-4.131185
0.577500	-4.178574
0.577600	-4.194154
0.577700	-4.180522
0.577800	-4.165591
0.577900	-4.182794
0.578000	-4.205190
0.578100	-4.223043
0.578200	-4.225315
0.578300	-4.231806
0.578400	-4.255826
0.578500	-4.273029
0.578600	-4.268485
0.578700	-4.245764
0.578800	-4.228885
0.578900	-4.261344
0.579000	-4.332428
0.579100	-4.383388
0.579200	-4.398319
0.579300	-4.394100
0.579400	-4.382415
0.579500	-4.393775
0.579600	-4.390854
0.579700	-4.382090
0.579800	-4.372352
0.579900	-4.359693
0.580000	-4.337946
0.580100	-4.330805
0.580200	-4.322366
0.580300	-4.319769
0.580400	-4.317173
0.580500	-4.326586
0.580600	-4.346710
0.580700	-4.365211
0.580800	-4.385336
0.580900	-4.402863
0.581000	-4.426234
0.581100	-4.454797
0.581200	-4.490502
0.581300	-4.620012
0.581400	-4.774840
0.581500	-4.854039
0.581600	-4.788473
0.581700	-4.685579
0.581800	-4.661235
0.581900	-4.777437
0.582000	-4.941029
0.582100	-5.037432
0.582200	-5.023474
0.582300	-4.963101
0.582400	-4.935836
0.582500	-5.005947
0.582600	-5.126044
0.582700	-5.225044
0.582800	-5.275030
0.582900	-5.288663
0.583000	-5.298725
0.583100	-5.325341
0.583200	-5.358125
0.583300	-5.401295
0.583400	-5.444465
0.583500	-5.483416
0.583600	-5.523665
0.583700	-5.568458
0.583800	-5.599944
0.583900	-5.625586
0.584000	-5.639544
0.584100	-5.670380
0.584200	-5.718419
0.584300	-5.749904
0.584400	-5.722963
0.584500	-5.633052
0.584600	-5.601567
0.584700	-5.653176
0.584800	-5.758668
0.584900	-5.858966
0.585000	-5.848255
0.585100	-5.759642
0.585200	-5.693425
0.585300	-5.716147
0.585400	-5.811901
0.585500	-5.904733
0.585600	-5.927130
0.585700	-5.888828
0.585800	-5.833324
0.585900	-5.800865
0.586000	-5.808006
0.586100	-5.824884
0.586200	-5.821963
0.586300	-5.810278
0.586400	-5.785933
0.586500	-5.756396
0.586600	-5.714524
0.586700	-5.652527
0.586800	-5.578521
0.586900	-5.508409
0.587000	-5.464915
0.587100	-5.441220
0.587200	-5.401295
0.587300	-5.310410
0.587400	-5.207191
0.587500	-5.066320
0.587600	-4.974137
0.587700	-4.906623
0.587800	-4.839433
0.587900	-4.757962
0.588000	-4.680710
0.588100	-4.575544
0.588200	-4.484659
0.588300	-4.420391
0.588400	-4.364238
0.588500	-4.326910
0.588600	-4.278871
0.588700	-4.257449
0.588800	-4.215902
0.588900	-4.181171
0.589000	-4.142870
0.589100	-4.106192
0.589200	-4.079576
0.589300	-4.070163
0.589400	-4.056530
0.589500	-4.039002
0.589600	-3.921502
0.589700	-3.776088
0.589800	-3.641060
0.589900	-3.694292
0.590000	-3.841330
0.590100	-3.915335
0.590200	-3.863077
0.590300	-3.720908
0.590400	-3.629051
0.590500	-3.632297
0.590600	-3.726102
0.590700	-3.821530
0.590800	-3.822179
0.590900	-3.766999
0.591000	-3.658913
0.591100	-3.617690
0.591200	-3.604058
0.591300	-3.630024
0.591400	-3.632946
0.591500	-3.614444
0.591600	-3.599513
0.591700	-3.589776
0.591800	-3.604382
0.591900	-3.607628
0.592000	-3.616392
0.592100	-3.655018
0.592200	-3.679361
0.592300	-3.750121
0.592400	-3.780307
0.592500	-3.813415
0.592600	-3.804976
0.592700	-3.819907
0.592800	-3.902027
0.592900	-4.015308
0.593000	-4.065618
0.593100	-4.035107
0.593200	-3.964023
0.593300	-3.937731
0.593400	-4.020176
0.593500	-4.158775
0.593600	-4.229859
0.593700	-4.205190
0.593800	-4.130860
0.593900	-4.113982
0.594000	-4.168512
0.594100	-4.247711
0.594200	-4.292504
0.594300	-4.313602
0.594400	-4.312304
0.594500	-4.327235
0.594600	-4.362939
0.594700	-4.403513
0.594800	-4.441814
0.594900	-4.463886
0.595000	-4.495371
0.595100	-4.529777
0.595200	-4.545032
0.595300	-4.546980
0.595400	-4.535619
0.595500	-4.519390
0.595600	-4.557042
0.595700	-4.607029
0.595800	-4.627802
0.595900	-4.599563
0.596000	-4.551200
0.596100	-4.541137
0.596200	-4.534970
0.596300	-4.521987
0.596400	-4.512574
0.596500	-4.499590
0.596600	-4.488230
0.596700	-4.475895
0.596800	-4.466482
0.596900	-4.463237
0.597000	-4.460640
0.597100	-4.461938
0.597200	-4.462587
0.597300	-4.465509
0.597400	-4.476220
