LabVIEW Measurement	
Writer_Version	2
Reader_Version	2
Separator	Tab
Decimal_Separator	.
Multi_Headings	Yes
X_Columns	One
Time_Pref	Relative
Operator	as989
Description	Time Domain Data
Date	1903/12/31
Time	19:00:00
***End_of_Header***	
	
Channels	1	
Samples	15000	
Date	1903/12/31	
Time	19:00:00	
X_Dimension	Time	
X0	0.0000000000000000E+0	
Delta_X	0.000100	
***End_of_Header***		
X_Value	Untitled	Comment
0.000000	-1.842541	Tare Values:0.000000, 0.000000, 0.000000, 0.000000\0D\0A
0.000100	-1.757500
0.000200	-1.637080
0.000300	-1.535486
0.000400	-1.471543
0.000500	-1.414092
0.000600	-1.347877
0.000700	-1.278741
0.000800	-1.191104
0.000900	-1.109309
0.001000	-1.038875
0.001100	-0.990837
0.001200	-0.967142
0.001300	-0.931763
0.001400	-0.920078
0.001500	-0.900603
0.001600	-0.875286
0.001700	-0.850293
0.001800	-0.834713
0.001900	-0.825300
0.002000	-0.821730
0.002100	-0.825625
0.002200	-0.812317
0.002300	-0.751944
0.002400	-0.613348
0.002500	-0.489358
0.002600	-0.494876
0.002700	-0.616594
0.002800	-0.715916
0.002900	-0.683133
0.003000	-0.570179
0.003100	-0.462742
0.003200	-0.441320
0.003300	-0.483191
0.003400	-0.560766
0.003500	-0.557520
0.003600	-0.509806
0.003700	-0.429310
0.003800	-0.379649
0.003900	-0.362446
0.004000	-0.370561
0.004100	-0.375754
0.004200	-0.374456
0.004300	-0.374131
0.004400	-0.375105
0.004500	-0.372508
0.004600	-0.376079
0.004700	-0.381921
0.004800	-0.388413
0.004900	-0.434828
0.005000	-0.482217
0.005100	-0.528308
0.005200	-0.547782
0.005300	-0.530580
0.005400	-0.540317
0.005500	-0.586408
0.005600	-0.718512
0.005700	-0.772069
0.005800	-0.742207
0.005900	-0.671773
0.006000	-0.659763
0.006100	-0.718188
0.006200	-0.845099
0.006300	-0.929815
0.006400	-0.935982
0.006500	-0.869768
0.006600	-0.834388
0.006700	-0.871391
0.006800	-0.953834
0.006900	-1.013233
0.007000	-1.048612
0.007100	-1.050235
0.007200	-1.053157
0.007300	-1.083018
0.007400	-1.124240
0.007500	-1.168383
0.007600	-1.183639
0.007700	-1.202464
0.007800	-1.224536
0.007900	-1.241739
0.008000	-1.238168
0.008100	-1.227457
0.008200	-1.219667
0.008300	-1.237195
0.008400	-1.291725
0.008500	-1.330025
0.008600	-1.341061
0.008700	-1.333596
0.008800	-1.316717
0.008900	-1.327753
0.009000	-1.328078
0.009100	-1.319314
0.009200	-1.307954
0.009300	-1.300164
0.009400	-1.287505
0.009500	-1.283610
0.009600	-1.283285
0.009700	-1.279066
0.009800	-1.275495
0.009900	-1.271276
0.010000	-1.274197
0.010100	-1.272574
0.010200	-1.281338
0.010300	-1.285233
0.010400	-1.298541
0.010500	-1.314770
0.010600	-1.344631
0.010700	-1.463429
0.010800	-1.609815
0.010900	-1.682197
0.011000	-1.616956
0.011100	-1.519257
0.011200	-1.499782
0.011300	-1.606569
0.011400	-1.761395
0.011500	-1.845138
0.011600	-1.845787
0.011700	-1.790283
0.011800	-1.779572
0.011900	-1.829233
0.012000	-1.924336
0.012100	-2.002236
0.012200	-2.037291
0.012300	-2.038914
0.012400	-2.041835
0.012500	-2.073644
0.012600	-2.114217
0.012700	-2.139534
0.012800	-2.159334
0.012900	-2.179458
0.013000	-2.208346
0.013100	-2.246647
0.013200	-2.289816
0.013300	-2.296957
0.013400	-2.291439
0.013500	-2.300852
0.013600	-2.334609
0.013700	-2.354409
0.013800	-2.316757
0.013900	-2.226847
0.014000	-2.192117
0.014100	-2.244375
0.014200	-2.360251
0.014300	-2.424519
0.014400	-2.406666
0.014500	-2.312537
0.014600	-2.238532
0.014700	-2.262227
0.014800	-2.353759
0.014900	-2.458600
0.015000	-2.481970
0.015100	-2.438800
0.015200	-2.376805
0.015300	-2.348566
0.015400	-2.350189
0.015500	-2.367067
0.015600	-2.364146
0.015700	-2.350838
0.015800	-2.320003
0.015900	-2.294685
0.016000	-2.250217
0.016100	-2.195363
0.016200	-2.118761
0.016300	-2.047677
0.016400	-2.001911
0.016500	-1.960689
0.016600	-1.911353
0.016700	-1.813653
0.016800	-1.706865
0.016900	-1.578655
0.017000	-1.495238
0.017100	-1.430646
0.017200	-1.368001
0.017300	-1.293997
0.017400	-1.211553
0.017500	-1.125214
0.017600	-1.041796
0.017700	-0.987591
0.017800	-0.943123
0.017900	-0.915534
0.018000	-0.882751
0.018100	-0.866846
0.018200	-0.855811
0.018300	-0.822054
0.018400	-0.799333
0.018500	-0.779858
0.018600	-0.778236
0.018700	-0.759734
0.018800	-0.787973
0.018900	-0.762006
0.019000	-0.683133
0.019100	-0.532202
0.019200	-0.427363
0.019300	-0.487410
0.019400	-0.616269
0.019500	-0.689300
0.019600	-0.610102
0.019700	-0.490656
0.019800	-0.388737
0.019900	-0.388413
0.020000	-0.462417
0.020100	-0.520518
0.020200	-0.512078
0.020300	-0.430933
0.020400	-0.371210
0.020500	-0.329663
0.020600	-0.341998
0.020700	-0.361148
0.020800	-0.378675
0.020900	-0.361472
0.021000	-0.349138
0.021100	-0.347191
0.021200	-0.343945
0.021300	-0.345893
0.021400	-0.366341
0.021500	-0.383219
0.021600	-0.407563
0.021700	-0.454627
0.021800	-0.504288
0.021900	-0.512078
0.022000	-0.509482
0.022100	-0.514675
0.022200	-0.609453
0.022300	-0.728250
0.022400	-0.763954
0.022500	-0.710398
0.022600	-0.644183
0.022700	-0.634121
0.022800	-0.721758
0.022900	-0.855811
0.023000	-0.922025
0.023100	-0.898006
0.023200	-0.812317
0.023300	-0.785376
0.023400	-0.836336
0.023500	-0.932087
0.023600	-0.983371
0.023700	-1.009013
0.023800	-0.984021
0.023900	-0.989214
0.024000	-1.016479
0.024100	-1.062569
0.024200	-1.095352
0.024300	-1.108336
0.024400	-1.120020
0.024500	-1.136899
0.024600	-1.149557
0.024700	-1.139820
0.024800	-1.133653
0.024900	-1.125863
0.025000	-1.157997
0.025100	-1.203763
0.025200	-1.228431
0.025300	-1.235247
0.025400	-1.211228
0.025500	-1.205061
0.025600	-1.214799
0.025700	-1.205710
0.025800	-1.199868
0.025900	-1.191429
0.026000	-1.187209
0.026100	-1.176822
0.026200	-1.170655
0.026300	-1.175199
0.026400	-1.174226
0.026500	-1.174875
0.026600	-1.177472
0.026700	-1.194025
0.026800	-1.200517
0.026900	-1.206359
0.027000	-1.218369
0.027100	-1.242063
0.027200	-1.278741
0.027300	-1.334894
0.027400	-1.486474
0.027500	-1.621176
0.027600	-1.664021
0.027700	-1.574436
0.027800	-1.493290
0.027900	-1.515686
0.028000	-1.659801
0.028100	-1.812355
0.028200	-1.876622
0.028300	-1.850331
0.028400	-1.797099
0.028500	-1.796126
0.028600	-1.863314
0.028700	-1.963610
0.028800	-2.035992
0.028900	-2.070723
0.029000	-2.057415
0.029100	-2.042160
0.029200	-2.057740
0.029300	-2.091496
0.029400	-2.119086
0.029500	-2.144079
0.029600	-2.157062
0.029700	-2.171344
0.029800	-2.195363
0.029900	-2.226847
0.030000	-2.245024
0.030100	-2.252489
0.030200	-2.273912
0.030300	-2.309616
0.030400	-2.325845
0.030500	-2.270017
0.030600	-2.184002
0.030700	-2.188547
0.030800	-2.271964
0.030900	-2.383296
0.031000	-2.446915
0.031100	-2.410237
0.031200	-2.302475
0.031300	-2.245998
0.031400	-2.285921
0.031500	-2.411535
0.031600	-2.508586
0.031700	-2.526762
0.031800	-2.478075
0.031900	-2.416729
0.032000	-2.395306
0.032100	-2.418676
0.032200	-2.450485
0.032300	-2.455354
0.032400	-2.443344
0.032500	-2.417378
0.032600	-2.379726
0.032700	-2.334934
0.032800	-2.271964
0.032900	-2.201854
0.033000	-2.147649
0.033100	-2.106102
0.033200	-2.072995
0.033300	-2.013596
0.033400	-1.908756
0.033500	-1.789634
0.033600	-1.667916
0.033700	-1.592612
0.033800	-1.533538
0.033900	-1.465376
0.034000	-1.389099
0.034100	-1.303734
0.034200	-1.211228
0.034300	-1.128784
0.034400	-1.064517
0.034500	-1.029137
0.034600	-0.991161
0.034700	-0.973634
0.034800	-0.956431
0.034900	-0.931763
0.035000	-0.894761
0.035100	-0.860679
0.035200	-0.849319
0.035300	-0.831792
0.035400	-0.849319
0.035500	-0.832765
0.035600	-0.823352
0.035700	-0.690598
0.035800	-0.544861
0.035900	-0.459496
0.036000	-0.560441
0.036100	-0.680536
0.036200	-0.704555
0.036300	-0.611725
0.036400	-0.491954
0.036500	-0.440021
0.036600	-0.461444
0.036700	-0.546160
0.036800	-0.572126
0.036900	-0.551353
0.037000	-0.476050
0.037100	-0.412107
0.037200	-0.394904
0.037300	-0.390360
0.037400	-0.421520
0.037500	-0.428012
0.037600	-0.426713
0.037700	-0.427363
0.037800	-0.425415
0.037900	-0.427038
0.038000	-0.433530
0.038100	-0.453978
0.038200	-0.481892
0.038300	-0.526035
0.038400	-0.585109
0.038500	-0.626656
0.038600	-0.614322
0.038700	-0.612050
0.038800	-0.635095
0.038900	-0.766551
0.039000	-0.858732
0.039100	-0.869119
0.039200	-0.801930
0.039300	-0.750971
0.039400	-0.760059
0.039500	-0.865873
0.039600	-0.980126
0.039700	-1.011285
0.039800	-0.951238
0.039900	-0.880803
0.040000	-0.872689
0.040100	-0.935333
0.040200	-1.001223
0.040300	-1.035629
0.040400	-1.043744
0.040500	-1.032383
0.040600	-1.042445
0.040700	-1.080746
0.040800	-1.120670
0.040900	-1.143066
0.041000	-1.153452
0.041100	-1.174226
0.041200	-1.193701
0.041300	-1.201491
0.041400	-1.188507
0.041500	-1.174550
0.041600	-1.167085
0.041700	-1.213176
0.041800	-1.265433
0.041900	-1.283935
0.042000	-1.279715
0.042100	-1.242713
0.042200	-1.250503
0.042300	-1.250503
0.042400	-1.246283
0.042500	-1.241739
0.042600	-1.233949
0.042700	-1.227457
0.042800	-1.214799
0.042900	-1.208307
0.043000	-1.204412
0.043100	-1.199219
0.043200	-1.199219
0.043300	-1.194674
0.043400	-1.194674
0.043500	-1.196297
0.043600	-1.200517
0.043700	-1.217395
0.043800	-1.240441
0.043900	-1.272899
0.044000	-1.361834
0.044100	-1.515362
0.044200	-1.642274
0.044300	-1.624422
0.044400	-1.537433
0.044500	-1.468297
0.044600	-1.542951
0.044700	-1.707839
0.044800	-1.837672
0.044900	-1.876947
0.045000	-1.833777
0.045100	-1.800345
0.045200	-1.820145
0.045300	-1.906159
0.045400	-1.997043
0.045500	-2.055467
0.045600	-2.077215
0.045700	-2.066503
0.045800	-2.067152
0.045900	-2.095391
0.046000	-2.122332
0.046100	-2.148298
0.046200	-2.176212
0.046300	-2.189196
0.046400	-2.210618
0.046500	-2.237883
0.046600	-2.267745
0.046700	-2.275210
0.046800	-2.288843
0.046900	-2.313511
0.047000	-2.346943
0.047100	-2.347592
0.047200	-2.276833
0.047300	-2.202179
0.047400	-2.218408
0.047500	-2.324871
0.047600	-2.420299
0.047700	-2.455029
0.047800	-2.382647
0.047900	-2.282676
0.048000	-2.251191
0.048100	-2.310265
0.048200	-2.434256
0.048300	-2.493330
0.048400	-2.477750
0.048500	-2.407965
0.048600	-2.360576
0.048700	-2.354409
0.048800	-2.369989
0.048900	-2.373884
0.049000	-2.355382
0.049100	-2.333311
0.049200	-2.296957
0.049300	-2.269692
0.049400	-2.224251
0.049500	-2.154141
0.049600	-2.078837
0.049700	-2.021711
0.049800	-1.979515
0.049900	-1.942837
0.050000	-1.859419
0.050100	-1.745491
0.050200	-1.625395
0.050300	-1.519906
0.050400	-1.457911
0.050500	-1.401109
0.050600	-1.329701
0.050700	-1.265758
0.050800	-1.178121
0.050900	-1.090159
0.051000	-1.011285
0.051100	-0.959352
0.051200	-0.918130
0.051300	-0.881777
0.051400	-0.862627
0.051500	-0.837309
0.051600	-0.811668
0.051700	-0.789921
0.051800	-0.758111
0.051900	-0.748374
0.052000	-0.737663
0.052100	-0.748699
0.052200	-0.735391
0.052300	-0.696766
0.052400	-0.553949
0.052500	-0.422494
0.052600	-0.376079
0.052700	-0.497797
0.052800	-0.608479
0.052900	-0.620164
0.053000	-0.506885
0.053100	-0.389062
0.053200	-0.336155
0.053300	-0.382895
0.053400	-0.465663
0.053500	-0.501367
0.053600	-0.460470
0.053700	-0.384193
0.053800	-0.325444
0.053900	-0.317329
0.054000	-0.326093
0.054100	-0.348165
0.054200	-0.358551
0.054300	-0.354332
0.054400	-0.340699
0.054500	-0.335831
0.054600	-0.331936
0.054700	-0.338427
0.054800	-0.377377
0.054900	-0.415353
0.055000	-0.463391
0.055100	-0.489682
0.055200	-0.528632
0.055300	-0.526685
0.055400	-0.533176
0.055500	-0.571152
0.055600	-0.687028
0.055700	-0.767524
0.055800	-0.762980
0.055900	-0.709100
0.056000	-0.654570
0.056100	-0.699687
0.056200	-0.824651
0.056300	-0.929491
0.056400	-0.939553
0.056500	-0.885348
0.056600	-0.836660
0.056700	-0.858083
0.056800	-0.916832
0.056900	-0.975257
0.057000	-1.006417
0.057100	-1.027515
0.057200	-1.024593
0.057300	-1.049586
0.057400	-1.069710
0.057500	-1.103791
0.057600	-1.123266
0.057700	-1.148584
0.057800	-1.165787
0.057900	-1.176173
0.058000	-1.174875
0.058100	-1.167409
0.058200	-1.158970
0.058300	-1.164488
0.058400	-1.212851
0.058500	-1.243362
0.058600	-1.256994
0.058700	-1.269328
0.058800	-1.247257
0.058900	-1.253424
0.059000	-1.251476
0.059100	-1.236870
0.059200	-1.228106
0.059300	-1.222264
0.059400	-1.212202
0.059500	-1.202789
0.059600	-1.200517
0.059700	-1.200517
0.059800	-1.199543
0.059900	-1.206359
0.060000	-1.208956
0.060100	-1.219992
0.060200	-1.230054
0.060300	-1.242063
0.060400	-1.247581
0.060500	-1.274846
0.060600	-1.307954
0.060700	-1.422207
0.060800	-1.577357
0.060900	-1.669214
0.061000	-1.627343
0.061100	-1.520231
0.061200	-1.484851
0.061300	-1.578655
0.061400	-1.751658
0.061500	-1.864288
0.061600	-1.877596
0.061700	-1.825014
0.061800	-1.790608
0.061900	-1.825014
0.062000	-1.906159
0.062100	-1.988603
0.062200	-2.032422
0.062300	-2.046055
0.062400	-2.038265
0.062500	-2.050599
0.062600	-2.074293
0.062700	-2.104479
0.062800	-2.122656
0.062900	-2.136613
0.063000	-2.168422
0.063100	-2.192766
0.063200	-2.210618
0.063300	-2.214189
0.063400	-2.221979
0.063500	-2.251516
0.063600	-2.283325
0.063700	-2.310265
0.063800	-2.289167
0.063900	-2.210943
0.064000	-2.166475
0.064100	-2.204776
0.064200	-2.297606
0.064300	-2.394981
0.064400	-2.398227
0.064500	-2.316432
0.064600	-2.240155
0.064700	-2.247945
0.064800	-2.320327
0.064900	-2.411535
0.065000	-2.447564
0.065100	-2.419001
0.065200	-2.365120
0.065300	-2.327793
0.065400	-2.329416
0.065500	-2.346619
0.065600	-2.342724
0.065700	-2.335258
0.065800	-2.321950
0.065900	-2.306046
0.066000	-2.271315
0.066100	-2.217110
0.066200	-2.147000
0.066300	-2.085654
0.066400	-2.045081
0.066500	-2.009377
0.066600	-1.976269
0.066700	-1.886360
0.066800	-1.792880
0.066900	-1.674083
0.067000	-1.595858
0.067100	-1.531266
0.067200	-1.469271
0.067300	-1.407925
0.067400	-1.337491
0.067500	-1.263810
0.067600	-1.184937
0.067700	-1.120020
0.067800	-1.075877
0.067900	-1.041472
0.068000	-1.015180
0.068100	-0.990512
0.068200	-0.982398
0.068300	-0.946044
0.068400	-0.923648
0.068500	-0.896708
0.068600	-0.886321
0.068700	-0.897357
0.068800	-0.896059
0.068900	-0.890541
0.069000	-0.827897
0.069100	-0.681835
0.069200	-0.569529
0.069300	-0.575372
0.069400	-0.731171
0.069500	-0.805176
0.069600	-0.772393
0.069700	-0.634446
0.069800	-0.530255
0.069900	-0.515000
0.070000	-0.578618
0.070100	-0.653272
0.070200	-0.642236
0.070300	-0.589653
0.070400	-0.507210
0.070500	-0.470857
0.070600	-0.459496
0.070700	-0.460470
0.070800	-0.465014
0.070900	-0.460794
0.071000	-0.456575
0.071100	-0.453005
0.071200	-0.453329
0.071300	-0.443267
0.071400	-0.440021
0.071500	-0.451706
0.071600	-0.506561
0.071700	-0.548756
0.071800	-0.592250
0.071900	-0.590627
0.072000	-0.576995
0.072100	-0.582188
0.072200	-0.658789
0.072300	-0.769796
0.072400	-0.808097
0.072500	-0.781806
0.072600	-0.706178
0.072700	-0.693195
0.072800	-0.775964
0.072900	-0.894761
0.073000	-0.958379
0.073100	-0.940851
0.073200	-0.864250
0.073300	-0.830493
0.073400	-0.881128
0.073500	-0.959352
0.073600	-0.997653
0.073700	-1.005118
0.073800	-1.007390
0.073900	-1.028164
0.074000	-1.068087
0.074100	-1.106388
0.074200	-1.129109
0.074300	-1.130407
0.074400	-1.143715
0.074500	-1.168708
0.074600	-1.188183
0.074700	-1.184612
0.074800	-1.160918
0.074900	-1.145662
0.075000	-1.175524
0.075100	-1.241414
0.075200	-1.274846
0.075300	-1.289452
0.075400	-1.274846
0.075500	-1.260240
0.075600	-1.266083
0.075700	-1.261863
0.075800	-1.260889
0.075900	-1.260565
0.076000	-1.256345
0.076100	-1.255047
0.076200	-1.254722
0.076300	-1.256345
0.076400	-1.254398
0.076500	-1.258293
0.076600	-1.259591
0.076700	-1.268679
0.076800	-1.274197
0.076900	-1.281662
0.077000	-1.292698
0.077100	-1.315419
0.077200	-1.340412
0.077300	-1.387801
0.077400	-1.512441
0.077500	-1.670837
0.077600	-1.712708
0.077700	-1.653634
0.077800	-1.547171
0.077900	-1.542627
0.078000	-1.677004
0.078100	-1.844489
0.078200	-1.928556
0.078300	-1.897071
0.078400	-1.841243
0.078500	-1.822742
0.078600	-1.893825
0.078700	-1.985358
0.078800	-2.053520
0.078900	-2.074618
0.079000	-2.056766
0.079100	-2.055467
0.079200	-2.074293
0.079300	-2.108699
0.079400	-2.138885
0.079500	-2.147000
0.079600	-2.149921
0.079700	-2.174589
0.079800	-2.206723
0.079900	-2.228470
0.080000	-2.244699
0.080100	-2.244699
0.080200	-2.266122
0.080300	-2.293387
0.080400	-2.317731
0.080500	-2.274886
0.080600	-2.188871
0.080700	-2.178160
0.080800	-2.233339
0.080900	-2.345320
0.081000	-2.427115
0.081100	-2.397254
0.081200	-2.311888
0.081300	-2.241778
0.081400	-2.271640
0.081500	-2.375831
0.081600	-2.475478
0.081700	-2.498199
0.081800	-2.445616
0.081900	-2.386542
0.082000	-2.364471
0.082100	-2.381998
0.082200	-2.401149
0.082300	-2.393034
0.082400	-2.371611
0.082500	-2.337855
0.082600	-2.302475
0.082700	-2.267096
0.082800	-2.210943
0.082900	-2.139534
0.083000	-2.078513
0.083100	-2.033071
0.083200	-1.987305
0.083300	-1.924985
0.083400	-1.826961
0.083500	-1.720498
0.083600	-1.593586
0.083700	-1.505949
0.083800	-1.447524
0.083900	-1.380011
0.084000	-1.303734
0.084100	-1.220641
0.084200	-1.127161
0.084300	-1.046016
0.084400	-0.988889
0.084500	-0.948317
0.084600	-0.926894
0.084700	-0.902550
0.084800	-0.879505
0.084900	-0.857758
0.085000	-0.829844
0.085100	-0.808097
0.085200	-0.795763
0.085300	-0.783104
0.085400	-0.779209
0.085500	-0.780183
0.085600	-0.758761
0.085700	-0.664632
0.085800	-0.515324
0.085900	-0.414055
0.086000	-0.489682
0.086100	-0.613023
0.086200	-0.680212
0.086300	-0.586732
0.086400	-0.466637
0.086500	-0.374456
0.086600	-0.383219
0.086700	-0.467611
0.086800	-0.525062
0.086900	-0.511754
0.087000	-0.429310
0.087100	-0.364069
0.087200	-0.337453
0.087300	-0.355630
0.087400	-0.384842
0.087500	-0.399124
0.087600	-0.394904
0.087700	-0.383544
0.087800	-0.368289
0.087900	-0.374131
0.088000	-0.380298
0.088100	-0.403993
0.088200	-0.434179
0.088300	-0.474752
0.088400	-0.509806
0.088500	-0.552327
0.088600	-0.561739
0.088700	-0.561415
0.088800	-0.573100
0.088900	-0.665930
0.089000	-0.769472
0.089100	-0.789921
0.089200	-0.754541
0.089300	-0.674694
0.089400	-0.687677
0.089500	-0.774016
0.089600	-0.900603
0.089700	-0.955457
0.089800	-0.927543
0.089900	-0.855486
0.090000	-0.827897
0.090100	-0.883725
0.090200	-0.968116
0.090300	-1.011610
0.090400	-1.034331
0.090500	-1.034006
0.090600	-1.047314
0.090700	-1.078149
0.090800	-1.119047
0.090900	-1.152479
0.091000	-1.169682
0.091100	-1.198245
0.091200	-1.220316
0.091300	-1.232651
0.091400	-1.223562
0.091500	-1.209605
0.091600	-1.216097
0.091700	-1.269328
0.091800	-1.328402
0.091900	-1.348202
0.092000	-1.351772
0.092100	-1.326130
0.092200	-1.336841
0.092300	-1.338140
0.092400	-1.338140
0.092500	-1.339763
0.092600	-1.332622
0.092700	-1.328402
0.092800	-1.328727
0.092900	-1.325806
0.093000	-1.330350
0.093100	-1.333920
0.093200	-1.339114
0.093300	-1.345930
0.093400	-1.353720
0.093500	-1.364756
0.093600	-1.375142
0.093700	-1.391371
0.093800	-1.412145
0.093900	-1.440059
0.094000	-1.509519
0.094100	-1.658503
0.094200	-1.795801
0.094300	-1.796450
0.094400	-1.706216
0.094500	-1.622149
0.094600	-1.650713
0.094700	-1.795477
0.094800	-1.931801
0.094900	-1.989902
0.095000	-1.939267
0.095100	-1.884412
0.095200	-1.886360
0.095300	-1.955171
0.095400	-2.044107
0.095500	-2.107076
0.095600	-2.121682
0.095700	-2.114866
0.095800	-2.111296
0.095900	-2.123305
0.096000	-2.144079
0.096100	-2.168098
0.096200	-2.185950
0.096300	-2.203477
0.096400	-2.230418
0.096500	-2.257358
0.096600	-2.272614
0.096700	-2.269368
0.096800	-2.280728
0.096900	-2.302475
0.097000	-2.325845
0.097100	-2.328117
0.097200	-2.270341
0.097300	-2.200556
0.097400	-2.206723
0.097500	-2.283649
0.097600	-2.395631
0.097700	-2.442695
0.097800	-2.385244
0.097900	-2.290141
0.098000	-2.253139
0.098100	-2.300203
0.098200	-2.410237
0.098300	-2.504691
0.098400	-2.502094
0.098500	-2.443669
0.098600	-2.381349
0.098700	-2.361225
0.098800	-2.370313
0.098900	-2.386867
0.099000	-2.386867
0.099100	-2.374208
0.099200	-2.342074
0.099300	-2.303449
0.099400	-2.258007
0.099500	-2.187897
0.099600	-2.123305
0.099700	-2.071047
0.099800	-2.032422
0.099900	-1.996393
0.100000	-1.928880
0.100100	-1.832479
0.100200	-1.722770
0.100300	-1.622149
0.100400	-1.552364
0.100500	-1.502054
0.100600	-1.437462
0.100700	-1.363457
0.100800	-1.285882
0.100900	-1.202789
0.101000	-1.124565
0.101100	-1.072631
0.101200	-1.038226
0.101300	-1.015505
0.101400	-0.999925
0.101500	-0.981424
0.101600	-0.963247
0.101700	-0.930140
0.101800	-0.918455
0.101900	-0.896708
0.102000	-0.897357
0.102100	-0.896708
0.102200	-0.892164
0.102300	-0.855162
0.102400	-0.730847
0.102500	-0.584136
0.102600	-0.531878
0.102700	-0.655868
0.102800	-0.766875
0.102900	-0.788947
0.103000	-0.668851
0.103100	-0.546484
0.103200	-0.486436
0.103300	-0.538045
0.103400	-0.612374
0.103500	-0.632823
0.103600	-0.585759
0.103700	-0.508183
0.103800	-0.448785
0.103900	-0.439697
0.104000	-0.448136
0.104100	-0.461119
0.104200	-0.462417
0.104300	-0.457873
0.104400	-0.452031
0.104500	-0.445539
0.104600	-0.447811
0.104700	-0.443592
0.104800	-0.479620
0.104900	-0.515324
0.105000	-0.575047
0.105100	-0.611076
0.105200	-0.635420
0.105300	-0.632823
0.105400	-0.630875
0.105500	-0.684107
0.105600	-0.797386
0.105700	-0.885672
0.105800	-0.892488
0.105900	-0.841204
0.106000	-0.778236
0.106100	-0.822703
0.106200	-0.940202
0.106300	-1.057052
0.106400	-1.087238
0.106500	-1.035305
0.106600	-0.963896
0.106700	-0.961624
0.106800	-1.033357
0.106900	-1.112880
0.107000	-1.142741
0.107100	-1.152479
0.107200	-1.143066
0.107300	-1.170980
0.107400	-1.208956
0.107500	-1.244660
0.107600	-1.270302
0.107700	-1.290751
0.107800	-1.310875
0.107900	-1.326779
0.108000	-1.325156
0.108100	-1.305682
0.108200	-1.294646
0.108300	-1.294646
0.108400	-1.351123
0.108500	-1.398837
0.108600	-1.422856
0.108700	-1.414741
0.108800	-1.391047
0.108900	-1.398188
0.109000	-1.398512
0.109100	-1.395915
0.109200	-1.386827
0.109300	-1.383906
0.109400	-1.379686
0.109500	-1.371896
0.109600	-1.364431
0.109700	-1.363457
0.109800	-1.364431
0.109900	-1.363782
0.110000	-1.367028
0.110100	-1.371896
0.110200	-1.384230
0.110300	-1.387476
0.110400	-1.398188
0.110500	-1.417987
0.110600	-1.444927
0.110700	-1.539381
0.110800	-1.692908
0.110900	-1.799047
0.111000	-1.759448
0.111100	-1.663371
0.111200	-1.602674
0.111300	-1.684145
0.111400	-1.848708
0.111500	-1.979190
0.111600	-1.992823
0.111700	-1.934723
0.111800	-1.889281
0.111900	-1.921090
0.112000	-2.019763
0.112100	-2.113892
0.112200	-2.161282
0.112300	-2.173291
0.112400	-2.163554
0.112500	-2.168422
0.112600	-2.202828
0.112700	-2.230093
0.112800	-2.260604
0.112900	-2.267420
0.113000	-2.284299
0.113100	-2.314160
0.113200	-2.343697
0.113300	-2.357330
0.113400	-2.351812
0.113500	-2.356681
0.113600	-2.378752
0.113700	-2.407316
0.113800	-2.400824
0.113900	-2.320652
0.114000	-2.263850
0.114100	-2.282351
0.114200	-2.370638
0.114300	-2.480672
0.114400	-2.498199
0.114500	-2.411535
0.114600	-2.314809
0.114700	-2.289492
0.114800	-2.351163
0.114900	-2.461521
0.115000	-2.528385
0.115100	-2.511182
0.115200	-2.448862
0.115300	-2.406342
0.115400	-2.403745
0.115500	-2.427764
0.115600	-2.446590
0.115700	-2.436853
0.115800	-2.412834
0.115900	-2.383296
0.116000	-2.344996
0.116100	-2.301826
0.116200	-2.238857
0.116300	-2.176537
0.116400	-2.131420
0.116500	-2.092145
0.116600	-2.056117
0.116700	-1.968479
0.116800	-1.867859
0.116900	-1.734455
0.117000	-1.636106
0.117100	-1.573137
0.117200	-1.503677
0.117300	-1.443304
0.117400	-1.369949
0.117500	-1.290751
0.117600	-1.197271
0.117700	-1.130407
0.117800	-1.084966
0.117900	-1.057701
0.118000	-1.027190
0.118100	-1.017453
0.118200	-0.991811
0.118300	-0.964221
0.118400	-0.938904
0.118500	-0.904498
0.118600	-0.906445
0.118700	-0.897357
0.118800	-0.917157
0.118900	-0.890866
0.119000	-0.862302
0.119100	-0.700011
0.119200	-0.588680
0.119300	-0.576346
0.119400	-0.714618
0.119500	-0.812966
0.119600	-0.796088
0.119700	-0.649701
0.119800	-0.538045
0.119900	-0.497472
0.120000	-0.556871
0.120100	-0.635420
0.120200	-0.648403
0.120300	-0.604909
0.120400	-0.517596
0.120500	-0.472479
0.120600	-0.452680
0.120700	-0.471506
0.120800	-0.494876
0.120900	-0.501367
0.121000	-0.491305
0.121100	-0.473778
0.121200	-0.469234
0.121300	-0.462093
0.121400	-0.472804
0.121500	-0.500718
0.121600	-0.537071
0.121700	-0.580241
0.121800	-0.612374
0.121900	-0.620164
0.122000	-0.619840
0.122100	-0.626331
0.122200	-0.694493
0.122300	-0.820431
0.122400	-0.881128
0.122500	-0.861978
0.122600	-0.782455
0.122700	-0.748374
0.122800	-0.812317
0.122900	-0.938255
0.123000	-1.019725
0.123100	-1.027515
0.123200	-0.960326
0.123300	-0.910665
0.123400	-0.933061
0.123500	-1.001223
0.123600	-1.065491
0.123700	-1.085939
0.123800	-1.090159
0.123900	-1.087562
0.124000	-1.111257
0.124100	-1.151830
0.124200	-1.170655
0.124300	-1.181691
0.124400	-1.196946
0.124500	-1.226159
0.124600	-1.250827
0.124700	-1.250178
0.124800	-1.240116
0.124900	-1.230054
0.125000	-1.251476
0.125100	-1.317691
0.125200	-1.351448
0.125300	-1.365405
0.125400	-1.364106
0.125500	-1.358588
0.125600	-1.361185
0.125700	-1.354369
0.125800	-1.351448
0.125900	-1.346579
0.126000	-1.337491
0.126100	-1.332946
0.126200	-1.327104
0.126300	-1.329051
0.126400	-1.325481
0.126500	-1.319314
0.126600	-1.322560
0.126700	-1.324183
0.126800	-1.327429
0.126900	-1.330674
0.127000	-1.335543
0.127100	-1.354693
0.127200	-1.386503
0.127300	-1.423830
0.127400	-1.548469
0.127500	-1.705243
0.127600	-1.780546
0.127700	-1.719200
0.127800	-1.611763
0.127900	-1.597806
0.128000	-1.710111
0.128100	-1.884412
0.128200	-1.984059
0.128300	-1.982761
0.128400	-1.911677
0.128500	-1.883439
0.128600	-1.932126
0.128700	-2.043133
0.128800	-2.126551
0.128900	-2.165501
0.129000	-2.167124
0.129100	-2.163229
0.129200	-2.177186
0.129300	-2.196661
0.129400	-2.223926
0.129500	-2.236585
0.129600	-2.250542
0.129700	-2.280404
0.129800	-2.311239
0.129900	-2.338829
0.130000	-2.326494
0.130100	-2.331688
0.130200	-2.345969
0.130300	-2.387191
0.130400	-2.406342
0.130500	-2.371936
0.130600	-2.275210
0.130700	-2.245673
0.130800	-2.301177
0.130900	-2.407316
0.131000	-2.502419
0.131100	-2.486189
0.131200	-2.391086
0.131300	-2.301177
0.131400	-2.307669
0.131500	-2.389788
0.131600	-2.496252
0.131700	-2.539097
0.131800	-2.493655
0.131900	-2.433931
0.132000	-2.402122
0.132100	-2.406342
0.132200	-2.417702
0.132300	-2.416079
0.132400	-2.402447
0.132500	-2.380375
0.132600	-2.351812
0.132700	-2.312537
0.132800	-2.250866
0.132900	-2.176537
0.133000	-2.114866
0.133100	-2.077539
0.133200	-2.043458
0.133300	-1.998665
0.133400	-1.902913
0.133500	-1.804565
0.133600	-1.678627
0.133700	-1.596507
0.133800	-1.542951
0.133900	-1.479009
0.134000	-1.414417
0.134100	-1.332946
0.134200	-1.249529
0.134300	-1.172278
0.134400	-1.113529
0.134500	-1.063219
0.134600	-1.034006
0.134700	-1.001548
0.134800	-0.985319
0.134900	-0.965519
0.135000	-0.942474
0.135100	-0.916832
0.135200	-0.892164
0.135300	-0.890541
0.135400	-0.890866
0.135500	-0.898006
0.135600	-0.896708
0.135700	-0.813290
0.135800	-0.660412
0.135900	-0.552327
0.136000	-0.606532
0.136100	-0.758436
0.136200	-0.824651
0.136300	-0.772393
0.136400	-0.630226
0.136500	-0.531229
0.136600	-0.537720
0.136700	-0.622112
0.136800	-0.691572
0.136900	-0.688002
0.137000	-0.618217
0.137100	-0.540966
0.137200	-0.509157
0.137300	-0.511429
0.137400	-0.525386
0.137500	-0.531553
0.137600	-0.524413
0.137700	-0.514675
0.137800	-0.502016
0.137900	-0.499095
0.138000	-0.498121
0.138100	-0.499095
0.138200	-0.527009
0.138300	-0.558818
0.138400	-0.598742
0.138500	-0.635095
0.138600	-0.634446
0.138700	-0.625357
0.138800	-0.632498
0.138900	-0.721434
0.139000	-0.831142
0.139100	-0.871391
0.139200	-0.832116
0.139300	-0.747725
0.139400	-0.727601
0.139500	-0.809395
0.139600	-0.935009
0.139700	-1.006741
0.139800	-0.986617
0.139900	-0.905472
0.140000	-0.863925
0.140100	-0.913262
0.140200	-0.994732
0.140300	-1.044717
0.140400	-1.062894
0.140500	-1.050884
0.140600	-1.059648
0.140700	-1.090808
0.140800	-1.126188
0.140900	-1.149882
0.141000	-1.154751
0.141100	-1.164813
0.141200	-1.188507
0.141300	-1.201491
0.141400	-1.193701
0.141500	-1.181042
0.141600	-1.174550
0.141700	-1.212851
0.141800	-1.275820
0.141900	-1.311524
0.142000	-1.318340
0.142100	-1.316393
0.142200	-1.312498
0.142300	-1.321261
0.142400	-1.319314
0.142500	-1.315094
0.142600	-1.311849
0.142700	-1.306655
0.142800	-1.300164
0.142900	-1.299839
0.143000	-1.300164
0.143100	-1.299514
0.143200	-1.306655
0.143300	-1.312173
0.143400	-1.320937
0.143500	-1.319963
0.143600	-1.328727
0.143700	-1.342359
0.143800	-1.359238
0.143900	-1.379037
0.144000	-1.438436
0.144100	-1.573787
0.144200	-1.724068
0.144300	-1.742245
0.144400	-1.662073
0.144500	-1.566646
0.144600	-1.578980
0.144700	-1.725691
0.144800	-1.887009
0.144900	-1.966856
0.145000	-1.935372
0.145100	-1.873701
0.145200	-1.867209
0.145300	-1.940565
0.145400	-2.044107
0.145500	-2.117138
0.145600	-2.139210
0.145700	-2.130446
0.145800	-2.134990
0.145900	-2.157387
0.146000	-2.196012
0.146100	-2.224900
0.146200	-2.250542
0.146300	-2.262551
0.146400	-2.295010
0.146500	-2.318704
0.146600	-2.341425
0.146700	-2.345645
0.146800	-2.344996
0.146900	-2.363497
0.147000	-2.389464
0.147100	-2.412834
0.147200	-2.356681
0.147300	-2.277482
0.147400	-2.259630
0.147500	-2.320003
0.147600	-2.441072
0.147700	-2.508586
0.147800	-2.466065
0.147900	-2.370313
0.148000	-2.307669
0.148100	-2.338179
0.148200	-2.447564
0.148300	-2.533254
0.148400	-2.548185
0.148500	-2.494304
0.148600	-2.434905
0.148700	-2.407316
0.148800	-2.419325
0.148900	-2.444967
0.149000	-2.446590
0.149100	-2.428414
0.149200	-2.391086
0.149300	-2.344671
0.149400	-2.298580
0.149500	-2.226198
0.149600	-2.153492
0.149700	-2.087926
0.149800	-2.036317
0.149900	-1.998990
0.150000	-1.942188
0.150100	-1.848708
0.150200	-1.767562
0.150300	-1.640651
0.150400	-1.563075
0.150500	-1.502378
0.150600	-1.437462
0.150700	-1.374818
0.150800	-1.293347
0.150900	-1.200517
0.151000	-1.123915
0.151100	-1.058350
0.151200	-1.017453
0.151300	-0.987591
0.151400	-0.963247
0.151500	-0.947992
0.151600	-0.912937
0.151700	-0.880479
0.151800	-0.854188
0.151900	-0.826274
0.152000	-0.824651
0.152100	-0.823028
0.152200	-0.819782
0.152300	-0.792193
0.152400	-0.688976
0.152500	-0.540966
0.152600	-0.469883
0.152700	-0.563687
0.152800	-0.693844
0.152900	-0.739286
0.153000	-0.632174
0.153100	-0.516623
0.153200	-0.437425
0.153300	-0.464040
0.153400	-0.541291
0.153500	-0.593224
0.153600	-0.570503
0.153700	-0.498771
0.153800	-0.433854
0.153900	-0.419573
0.154000	-0.420222
0.154100	-0.438074
0.154200	-0.447487
0.154300	-0.445215
0.154400	-0.437425
0.154500	-0.428336
0.154600	-0.420222
0.154700	-0.418599
0.154800	-0.435477
0.154900	-0.481892
0.155000	-0.509157
0.155100	-0.553300
0.155200	-0.561739
0.155300	-0.567257
0.155400	-0.554274
0.155500	-0.580241
0.155600	-0.679563
0.155700	-0.760708
0.155800	-0.774990
0.155900	-0.728575
0.156000	-0.665930
0.156100	-0.701959
0.156200	-0.800632
0.156300	-0.910665
0.156400	-0.951562
0.156500	-0.910665
0.156600	-0.849968
0.156700	-0.852889
0.156800	-0.923324
0.156900	-0.999601
0.157000	-1.031734
0.157100	-1.052832
0.157200	-1.055753
0.157300	-1.086264
0.157400	-1.117748
0.157500	-1.163190
0.157600	-1.207658
0.157700	-1.231028
0.157800	-1.264135
0.157900	-1.292698
0.158000	-1.297567
0.158100	-1.285557
0.158200	-1.281338
0.158300	-1.278417
0.158400	-1.336841
0.158500	-1.395266
0.158600	-1.415066
0.158700	-1.391371
0.158800	-1.371896
0.158900	-1.383257
0.159000	-1.389099
0.159100	-1.391047
0.159200	-1.391047
0.159300	-1.386827
0.159400	-1.382932
0.159500	-1.382932
0.159600	-1.383906
0.159700	-1.383906
0.159800	-1.385853
0.159900	-1.391047
0.160000	-1.396240
0.160100	-1.403056
0.160200	-1.400784
0.160300	-1.405653
0.160400	-1.422856
0.160500	-1.448822
0.160600	-1.476087
0.160700	-1.554636
0.160800	-1.715954
0.160900	-1.826637
0.161000	-1.803916
0.161100	-1.713033
0.161200	-1.652336
0.161300	-1.715305
0.161400	-1.876622
0.161500	-2.016193
0.161600	-2.049300
0.161700	-2.008078
0.161800	-1.960040
0.161900	-1.987305
0.162000	-2.071697
0.162100	-2.166799
0.162200	-2.209320
0.162300	-2.213539
0.162400	-2.208346
0.162500	-2.223277
0.162600	-2.248270
0.162700	-2.275535
0.162800	-2.295334
0.162900	-2.311564
0.163000	-2.325521
0.163100	-2.357654
0.163200	-2.381998
0.163300	-2.385569
0.163400	-2.379077
0.163500	-2.382647
0.163600	-2.412509
0.163700	-2.439774
0.163800	-2.434905
0.163900	-2.359602
0.164000	-2.298580
0.164100	-2.313186
0.164200	-2.402122
0.164300	-2.509235
0.164400	-2.533254
0.164500	-2.465741
0.164600	-2.378428
0.164700	-2.356031
0.164800	-2.421922
0.164900	-2.533903
0.165000	-2.593627
0.165100	-2.579345
0.165200	-2.523841
0.165300	-2.494304
0.165400	-2.493330
0.165500	-2.508586
0.165600	-2.520595
0.165700	-2.502419
0.165800	-2.482944
0.165900	-2.455679
0.166000	-2.422246
0.166100	-2.369989
0.166200	-2.284299
0.166300	-2.211592
0.166400	-2.161931
0.166500	-2.118761
0.166600	-2.083382
0.166700	-2.003534
0.166800	-1.901291
0.166900	-1.810732
0.167000	-1.699400
0.167100	-1.636431
0.167200	-1.566970
0.167300	-1.495887
0.167400	-1.415715
0.167500	-1.325806
0.167600	-1.233300
0.167700	-1.155725
0.167800	-1.105414
0.167900	-1.061920
0.168000	-1.025892
0.168100	-1.012259
0.168200	-0.980775
0.168300	-0.949290
0.168400	-0.912613
0.168500	-0.885997
0.168600	-0.871715
0.168700	-0.869768
0.168800	-0.873987
0.168900	-0.863925
0.169000	-0.802904
0.169100	-0.667553
0.169200	-0.513377
0.169300	-0.510780
0.169400	-0.610102
0.169500	-0.740584
0.169600	-0.701634
0.169700	-0.591601
0.169800	-0.448460
0.169900	-0.412107
0.170000	-0.469883
0.170100	-0.552327
0.170200	-0.577969
0.170300	-0.518245
0.170400	-0.438723
0.170500	-0.390685
0.170600	-0.394904
0.170700	-0.421845
0.170800	-0.440346
0.170900	-0.448136
0.171000	-0.429959
0.171100	-0.432556
0.171200	-0.437425
0.171300	-0.461119
0.171400	-0.457873
0.171500	-0.489033
0.171600	-0.519544
0.171700	-0.569854
0.171800	-0.608804
0.171900	-0.636393
0.172000	-0.633797
0.172100	-0.640613
0.172200	-0.688326
0.172300	-0.819457
0.172400	-0.877558
0.172500	-0.870741
0.172600	-0.799658
0.172700	-0.760059
0.172800	-0.812966
0.172900	-0.943448
0.173000	-1.035629
0.173100	-1.042445
0.173200	-0.973959
0.173300	-0.915534
0.173400	-0.942799
0.173500	-1.018426
0.173600	-1.084966
0.173700	-1.100870
0.173800	-1.102493
0.173900	-1.100870
0.174000	-1.121968
0.174100	-1.165787
0.174200	-1.214149
0.174300	-1.248555
0.174400	-1.259591
0.174500	-1.269328
0.174600	-1.281013
0.174700	-1.273872
0.174800	-1.257643
0.174900	-1.239467
0.175000	-1.244985
0.175100	-1.299514
0.175200	-1.327753
0.175300	-1.329051
0.175400	-1.282961
0.175500	-1.275171
0.175600	-1.286856
0.175700	-1.287505
0.175800	-1.289777
0.175900	-1.278417
0.176000	-1.279715
0.176100	-1.281013
0.176200	-1.276145
0.176300	-1.272250
0.176400	-1.265758
0.176500	-1.263161
0.176600	-1.264784
0.176700	-1.276469
0.176800	-1.281662
0.176900	-1.287505
0.177000	-1.296269
0.177100	-1.314445
0.177200	-1.337166
0.177300	-1.364756
0.177400	-1.477386
0.177500	-1.642598
0.177600	-1.724068
0.177700	-1.681548
0.177800	-1.572488
0.177900	-1.543925
0.178000	-1.647791
0.178100	-1.826961
0.178200	-1.938293
0.178300	-1.944135
0.178400	-1.874026
0.178500	-1.846111
0.178600	-1.889281
0.178700	-1.989902
0.178800	-2.082083
0.178900	-2.123954
0.179000	-2.116164
0.179100	-2.106427
0.179200	-2.115191
0.179300	-2.143754
0.179400	-2.185301
0.179500	-2.211592
0.179600	-2.230093
0.179700	-2.241454
0.179800	-2.268069
0.179900	-2.287544
0.180000	-2.302151
0.180100	-2.307344
0.180200	-2.321301
0.180300	-2.344996
0.180400	-2.363172
0.180500	-2.337206
0.180600	-2.261902
0.180700	-2.230093
0.180800	-2.270341
0.180900	-2.363497
0.181000	-2.455354
0.181100	-2.452757
0.181200	-2.370638
0.181300	-2.296633
0.181400	-2.296308
0.181500	-2.383946
0.181600	-2.492032
0.181700	-2.549483
0.181800	-2.514753
0.181900	-2.451459
0.182000	-2.410886
0.182100	-2.405368
0.182200	-2.423220
0.182300	-2.427440
0.182400	-2.421273
0.182500	-2.396604
0.182600	-2.357654
0.182700	-2.314809
0.182800	-2.244375
0.182900	-2.167124
0.183000	-2.098312
0.183100	-2.050274
0.183200	-2.010350
0.183300	-1.970102
0.183400	-1.878894
0.183500	-1.790932
0.183600	-1.687391
0.183700	-1.603648
0.183800	-1.543925
0.183900	-1.484526
0.184000	-1.417338
0.184100	-1.342684
0.184200	-1.260565
0.184300	-1.177147
0.184400	-1.110283
0.184500	-1.068412
0.184600	-1.041796
0.184700	-1.007066
0.184800	-1.000574
0.184900	-0.965195
0.185000	-0.939877
0.185100	-0.908068
0.185200	-0.880154
0.185300	-0.878207
0.185400	-0.868145
0.185500	-0.878207
0.185600	-0.856460
0.185700	-0.789271
0.185800	-0.629902
0.185900	-0.510456
0.186000	-0.543887
0.186100	-0.671448
0.186200	-0.760384
0.186300	-0.702933
0.186400	-0.568556
0.186500	-0.457549
0.186600	-0.444890
0.186700	-0.519868
0.186800	-0.585434
0.186900	-0.595821
0.187000	-0.530580
0.187100	-0.456575
0.187200	-0.422818
0.187300	-0.414704
0.187400	-0.440346
0.187500	-0.451706
0.187600	-0.457224
0.187700	-0.451706
0.187800	-0.447487
0.187900	-0.445215
0.188000	-0.443592
0.188100	-0.464365
0.188200	-0.502666
0.188300	-0.560117
0.188400	-0.597119
0.188500	-0.642885
0.188600	-0.652622
0.188700	-0.652622
0.188800	-0.667229
0.188900	-0.750646
0.189000	-0.858732
0.189100	-0.904498
0.189200	-0.885672
0.189300	-0.806474
0.189400	-0.800632
0.189500	-0.872040
0.189600	-1.003171
0.189700	-1.071982
0.189800	-1.061596
0.189900	-0.979801
0.190000	-0.939553
0.190100	-0.972660
0.190200	-1.057376
0.190300	-1.108660
0.190400	-1.133004
0.190500	-1.135276
0.190600	-1.151180
0.190700	-1.176822
0.190800	-1.216421
0.190900	-1.256345
0.191000	-1.281987
0.191100	-1.315094
0.191200	-1.338140
0.191300	-1.345930
0.191400	-1.326455
0.191500	-1.302436
0.191600	-1.288479
0.191700	-1.318665
0.191800	-1.373195
0.191900	-1.406302
0.192000	-1.409223
0.192100	-1.365405
0.192200	-1.359238
0.192300	-1.363457
0.192400	-1.361510
0.192500	-1.358588
0.192600	-1.355992
0.192700	-1.346579
0.192800	-1.342359
0.192900	-1.335219
0.193000	-1.322884
0.193100	-1.318016
0.193200	-1.321586
0.193300	-1.318665
0.193400	-1.320288
0.193500	-1.324507
0.193600	-1.331973
0.193700	-1.343658
0.193800	-1.370923
0.193900	-1.387476
0.194000	-1.445252
0.194100	-1.579305
0.194200	-1.740947
0.194300	-1.784116
0.194400	-1.715954
0.194500	-1.620202
0.194600	-1.635457
0.194700	-1.771133
0.194800	-1.939267
0.194900	-2.023658
0.195000	-2.009052
0.195100	-1.949978
0.195200	-1.933749
0.195300	-2.008727
0.195400	-2.120059
0.195500	-2.195687
0.195600	-2.219382
0.195700	-2.212890
0.195800	-2.217434
0.195900	-2.236585
0.196000	-2.265148
0.196100	-2.292738
0.196200	-2.310914
0.196300	-2.320652
0.196400	-2.346619
0.196500	-2.380375
0.196600	-2.399201
0.196700	-2.399850
0.196800	-2.400499
0.196900	-2.422246
0.197000	-2.454380
0.197100	-2.469636
0.197200	-2.419974
0.197300	-2.332337
0.197400	-2.300852
0.197500	-2.361549
0.197600	-2.460223
0.197700	-2.531956
0.197800	-2.497550
0.197900	-2.402771
0.198000	-2.332661
0.198100	-2.352136
0.198200	-2.455679
0.198300	-2.560194
0.198400	-2.590056
0.198500	-2.537798
0.198600	-2.471583
0.198700	-2.437177
0.198800	-2.444967
0.198900	-2.462170
0.199000	-2.466390
0.199100	-2.448538
0.199200	-2.418027
0.199300	-2.386542
0.199400	-2.344996
0.199500	-2.275535
0.199600	-2.197635
0.199700	-2.131420
0.199800	-2.089549
0.199900	-2.053520
0.200000	-1.998016
0.200100	-1.894799
0.200200	-1.804565
0.200300	-1.683820
0.200400	-1.598130
0.200500	-1.532565
0.200600	-1.463429
0.200700	-1.385529
0.200800	-1.304708
0.200900	-1.212526
0.201000	-1.125863
0.201100	-1.061271
0.201200	-1.021672
0.201300	-0.996355
0.201400	-0.969090
0.201500	-0.959028
0.201600	-0.932737
0.201700	-0.910665
0.201800	-0.892164
0.201900	-0.863925
0.202000	-0.875935
0.202100	-0.864899
0.202200	-0.890866
0.202300	-0.849644
0.202400	-0.774341
0.202500	-0.613673
0.202600	-0.521816
0.202700	-0.608479
0.202800	-0.734417
0.202900	-0.793816
0.203000	-0.701310
0.203100	-0.565634
0.203200	-0.478971
0.203300	-0.496823
0.203400	-0.580241
0.203500	-0.628603
0.203600	-0.608479
0.203700	-0.533825
0.203800	-0.459172
0.203900	-0.438074
0.204000	-0.441969
0.204100	-0.461768
0.204200	-0.472155
0.204300	-0.465014
0.204400	-0.449110
0.204500	-0.443267
0.204600	-0.450732
0.204700	-0.441969
0.204800	-0.467611
0.204900	-0.479945
0.205000	-0.532527
0.205100	-0.566284
0.205200	-0.607181
0.205300	-0.615945
0.205400	-0.612050
0.205500	-0.637042
0.205600	-0.729224
0.205700	-0.830493
0.205800	-0.856135
0.205900	-0.824002
0.206000	-0.741558
0.206100	-0.750646
0.206200	-0.837959
0.206300	-0.954808
0.206400	-1.008040
0.206500	-0.981424
0.206600	-0.919429
0.206700	-0.891515
0.206800	-0.946369
0.206900	-1.020698
0.207000	-1.067438
0.207100	-1.094703
0.207200	-1.087238
0.207300	-1.105739
0.207400	-1.137548
0.207500	-1.182016
0.207600	-1.228756
0.207700	-1.244011
0.207800	-1.243362
0.207900	-1.252450
0.208000	-1.262512
0.208100	-1.258942
0.208200	-1.256994
0.208300	-1.263486
0.208400	-1.312173
0.208500	-1.371247
0.208600	-1.400135
0.208700	-1.413118
0.208800	-1.420908
0.208900	-1.422531
0.209000	-1.417338
0.209100	-1.415715
0.209200	-1.410197
0.209300	-1.407276
0.209400	-1.401758
0.209500	-1.402732
0.209600	-1.402732
0.209700	-1.398512
0.209800	-1.392994
0.209900	-1.389424
0.210000	-1.392670
0.210100	-1.398837
0.210200	-1.400460
0.210300	-1.402083
0.210400	-1.418961
0.210500	-1.441357
0.210600	-1.466350
0.210700	-1.536784
0.210800	-1.685768
0.210900	-1.819171
0.211000	-1.822742
0.211100	-1.735753
0.211200	-1.647142
0.211300	-1.701997
0.211400	-1.841892
0.211500	-1.996069
0.211600	-2.041835
0.211700	-1.995095
0.211800	-1.936346
0.211900	-1.936346
0.212000	-2.012947
0.212100	-2.105453
0.212200	-2.155439
0.212300	-2.165177
0.212400	-2.154790
0.212500	-2.156737
0.212600	-2.164203
0.212700	-2.185625
0.212800	-2.208022
0.212900	-2.214838
0.213000	-2.230742
0.213100	-2.255735
0.213200	-2.274561
0.213300	-2.285921
0.213400	-2.285921
0.213500	-2.287220
0.213600	-2.324871
0.213700	-2.349540
0.213800	-2.356031
0.213900	-2.291764
0.214000	-2.216461
0.214100	-2.220031
0.214200	-2.289816
0.214300	-2.392385
0.214400	-2.433607
0.214500	-2.377454
0.214600	-2.281377
0.214700	-2.237559
0.214800	-2.283325
0.214900	-2.381674
0.215000	-2.454705
0.215100	-2.448862
0.215200	-2.395631
0.215300	-2.345320
0.215400	-2.327468
0.215500	-2.328117
0.215600	-2.335258
0.215700	-2.331363
0.215800	-2.323898
0.215900	-2.299879
0.216000	-2.266122
0.216100	-2.222303
0.216200	-2.156737
0.216300	-2.082408
0.216400	-2.026580
0.216500	-1.993797
0.216600	-1.963286
0.216700	-1.894799
0.216800	-1.802942
0.216900	-1.719524
0.217000	-1.611763
0.217100	-1.548145
0.217200	-1.496861
0.217300	-1.428374
0.217400	-1.353720
0.217500	-1.280040
0.217600	-1.199543
0.217700	-1.134951
0.217800	-1.090159
0.217900	-1.062245
0.218000	-1.032708
0.218100	-1.017128
0.218200	-1.016154
0.218300	-0.993433
0.218400	-0.982398
0.218500	-0.957729
0.218600	-0.950589
0.218700	-0.942799
0.218800	-0.959352
0.218900	-0.947992
0.219000	-0.916832
0.219100	-0.803878
0.219200	-0.647104
0.219300	-0.613348
0.219400	-0.729873
0.219500	-0.848670
0.219600	-0.860679
0.219700	-0.738312
0.219800	-0.608479
0.219900	-0.546484
0.220000	-0.586408
0.220100	-0.656193
0.220200	-0.692221
0.220300	-0.644832
0.220400	-0.580565
0.220500	-0.518895
0.220600	-0.509482
0.220700	-0.499420
0.220800	-0.515324
0.220900	-0.511754
0.221000	-0.503964
0.221100	-0.491954
0.221200	-0.484489
0.221300	-0.482541
0.221400	-0.469558
0.221500	-0.480594
0.221600	-0.512403
0.221700	-0.561090
0.221800	-0.607830
0.221900	-0.620489
0.222000	-0.620489
0.222100	-0.603935
0.222200	-0.654570
0.222300	-0.759410
0.222400	-0.833415
0.222500	-0.835037
0.222600	-0.782131
0.222700	-0.717214
0.222800	-0.758111
0.222900	-0.867496
0.223000	-0.959677
0.223100	-0.974608
0.223200	-0.917806
0.223300	-0.861978
0.223400	-0.875286
0.223500	-0.950913
0.223600	-1.012908
0.223700	-1.030111
0.223800	-1.037901
0.223900	-1.042121
0.224000	-1.083343
0.224100	-1.125863
0.224200	-1.174550
0.224300	-1.207658
0.224400	-1.223238
0.224500	-1.249529
0.224600	-1.282961
0.224700	-1.285557
0.224800	-1.272899
0.224900	-1.257319
0.225000	-1.268030
0.225100	-1.319963
0.225200	-1.365080
0.225300	-1.380985
0.225400	-1.352421
0.225500	-1.334894
0.225600	-1.350149
0.225700	-1.352746
0.225800	-1.350798
0.225900	-1.349500
0.226000	-1.345930
0.226100	-1.347553
0.226200	-1.349500
0.226300	-1.350149
0.226400	-1.348851
0.226500	-1.345930
0.226600	-1.353071
0.226700	-1.362483
0.226800	-1.372546
0.226900	-1.379686
0.227000	-1.394293
0.227100	-1.412794
0.227200	-1.437462
0.227300	-1.476412
0.227400	-1.571515
0.227500	-1.747763
0.227600	-1.836374
0.227700	-1.807811
0.227800	-1.706216
0.227900	-1.653634
0.228000	-1.735429
0.228100	-1.898369
0.228200	-2.023983
0.228300	-2.040537
0.228400	-1.983410
0.228500	-1.937968
0.228600	-1.972050
0.228700	-2.058064
0.228800	-2.147974
0.228900	-2.182055
0.229000	-2.180107
0.229100	-2.172967
0.229200	-2.185625
0.229300	-2.209644
0.229400	-2.234962
0.229500	-2.251191
0.229600	-2.252814
0.229700	-2.267420
0.229800	-2.300203
0.229900	-2.338179
0.230000	-2.356031
0.230100	-2.349540
0.230200	-2.356356
0.230300	-2.382323
0.230400	-2.411535
0.230500	-2.403745
0.230600	-2.320652
0.230700	-2.267096
0.230800	-2.287220
0.230900	-2.387516
0.231000	-2.497225
0.231100	-2.517025
0.231200	-2.432633
0.231300	-2.349864
0.231400	-2.331363
0.231500	-2.407640
0.231600	-2.518648
0.231700	-2.573178
0.231800	-2.538772
0.231900	-2.470934
0.232000	-2.430686
0.232100	-2.442371
0.232200	-2.474180
0.232300	-2.476776
0.232400	-2.460547
0.232500	-2.438476
0.232600	-2.407640
0.232700	-2.372910
0.232800	-2.317406
0.232900	-2.246971
0.233000	-2.170045
0.233100	-2.119410
0.233200	-2.079487
0.233300	-2.046055
0.233400	-1.964260
0.233500	-1.872727
0.233600	-1.783142
0.233700	-1.681223
0.233800	-1.613710
0.233900	-1.549768
0.234000	-1.475763
0.234100	-1.391696
0.234200	-1.305682
0.234300	-1.214149
0.234400	-1.147935
0.234500	-1.106063
0.234600	-1.072956
0.234700	-1.031410
0.234800	-1.011935
0.234900	-0.987266
0.235000	-0.960326
0.235100	-0.939228
0.235200	-0.907744
0.235300	-0.899305
0.235400	-0.891190
0.235500	-0.890216
0.235600	-0.885997
0.235700	-0.819782
0.235800	-0.696766
0.235900	-0.549730
0.236000	-0.565310
0.236100	-0.684756
0.236200	-0.794140
0.236300	-0.766551
0.236400	-0.646131
0.236500	-0.534150
0.236600	-0.496174
0.236700	-0.568556
0.236800	-0.632823
0.236900	-0.657816
0.237000	-0.600040
0.237100	-0.531553
0.237200	-0.477348
0.237300	-0.474102
0.237400	-0.480594
0.237500	-0.497148
0.237600	-0.505587
0.237700	-0.495525
0.237800	-0.482541
0.237900	-0.489033
0.238000	-0.498446
0.238100	-0.498121
0.238200	-0.543563
0.238300	-0.567582
0.238400	-0.622112
0.238500	-0.650999
0.238600	-0.671448
0.238700	-0.665930
0.238800	-0.676966
0.238900	-0.737987
0.239000	-0.860679
0.239100	-0.918780
0.239200	-0.913911
0.239300	-0.838608
0.239400	-0.801281
0.239500	-0.860355
0.239600	-0.988565
0.239700	-1.077176
0.239800	-1.081395
0.239900	-1.010961
0.240000	-0.956431
0.240100	-0.985968
0.240200	-1.063868
0.240300	-1.129433
0.240400	-1.159295
0.240500	-1.159295
0.240600	-1.161892
0.240700	-1.187534
0.240800	-1.231028
0.240900	-1.280040
0.241000	-1.314121
0.241100	-1.331324
0.241200	-1.346903
0.241300	-1.361185
0.241400	-1.355018
0.241500	-1.337815
0.241600	-1.316717
0.241700	-1.340736
0.241800	-1.395915
0.241900	-1.424479
0.242000	-1.429023
0.242100	-1.386178
0.242200	-1.380985
0.242300	-1.397538
0.242400	-1.397863
0.242500	-1.394617
0.242600	-1.388775
0.242700	-1.380660
0.242800	-1.376765
0.242900	-1.373195
0.243000	-1.371572
0.243100	-1.363782
0.243200	-1.360211
0.243300	-1.364756
0.243400	-1.366703
0.243500	-1.377090
0.243600	-1.376765
0.243700	-1.391047
0.243800	-1.411495
0.243900	-1.433242
0.244000	-1.471543
0.244100	-1.595534
0.244200	-1.756527
0.244300	-1.816899
0.244400	-1.758799
0.244500	-1.660126
0.244600	-1.656231
0.244700	-1.768861
0.244800	-1.933100
0.244900	-2.025930
0.245000	-2.023983
0.245100	-1.961014
0.245200	-1.936995
0.245300	-1.988279
0.245400	-2.082732
0.245500	-2.159009
0.245600	-2.183029
0.245700	-2.184327
0.245800	-2.175239
0.245900	-2.180757
0.246000	-2.205749
0.246100	-2.229119
0.246200	-2.248594
0.246300	-2.258007
0.246400	-2.276184
0.246500	-2.290790
0.246600	-2.309616
0.246700	-2.310265
0.246800	-2.313836
0.246900	-2.324222
0.247000	-2.349540
0.247100	-2.367392
0.247200	-2.336881
0.247300	-2.251840
0.247400	-2.220356
0.247500	-2.269368
0.247600	-2.365120
0.247700	-2.446266
0.247800	-2.425168
0.247900	-2.336556
0.248000	-2.261902
0.248100	-2.261578
0.248200	-2.350514
0.248300	-2.454380
0.248400	-2.491707
0.248500	-2.457951
0.248600	-2.390437
0.248700	-2.345969
0.248800	-2.340776
0.248900	-2.360576
0.249000	-2.369989
0.249100	-2.358628
0.249200	-2.332337
0.249300	-2.299879
0.249400	-2.250866
0.249500	-2.178484
0.249600	-2.104479
0.249700	-2.045730
0.249800	-2.005482
0.249900	-1.974322
0.250000	-1.926608
0.250100	-1.839295
0.250200	-1.758799
0.250300	-1.669538
0.250400	-1.588393
0.250500	-1.524450
0.250600	-1.462130
0.250700	-1.388450
0.250800	-1.324183
0.250900	-1.242063
0.251000	-1.157997
0.251100	-1.096326
0.251200	-1.058350
0.251300	-1.034980
0.251400	-1.002522
0.251500	-0.993109
0.251600	-0.964546
0.251700	-0.942799
0.251800	-0.912937
0.251900	-0.897357
0.252000	-0.895085
0.252100	-0.897033
0.252200	-0.909367
0.252300	-0.878207
0.252400	-0.819133
0.252500	-0.645482
0.252600	-0.561090
0.252700	-0.596145
0.252800	-0.746751
0.252900	-0.820431
0.253000	-0.748049
0.253100	-0.626331
0.253200	-0.518570
0.253300	-0.527983
0.253400	-0.588031
0.253500	-0.653596
0.253600	-0.641911
0.253700	-0.567582
0.253800	-0.511105
0.253900	-0.478971
0.254000	-0.496823
0.254100	-0.492928
0.254200	-0.512078
0.254300	-0.503639
0.254400	-0.504613
0.254500	-0.503639
0.254600	-0.514350
0.254700	-0.510131
0.254800	-0.509806
0.254900	-0.538045
0.255000	-0.590952
0.255100	-0.641911
0.255200	-0.678264
0.255300	-0.685405
0.255400	-0.681510
0.255500	-0.697090
0.255600	-0.770770
0.255700	-0.882751
0.255800	-0.918455
0.255900	-0.890866
0.256000	-0.819133
0.256100	-0.814589
0.256200	-0.909367
0.256300	-1.045367
0.256400	-1.110932
0.256500	-1.098273
0.256600	-1.022646
0.256700	-0.992784
0.256800	-1.045691
0.256900	-1.129433
0.257000	-1.172603
0.257100	-1.197271
0.257200	-1.187209
0.257300	-1.205061
0.257400	-1.240116
0.257500	-1.284259
0.257600	-1.310875
0.257700	-1.328078
0.257800	-1.346903
0.257900	-1.372546
0.258000	-1.388125
0.258100	-1.374818
0.258200	-1.366054
0.258300	-1.357290
0.258400	-1.391371
0.258500	-1.443629
0.258600	-1.468622
0.258700	-1.472517
0.258800	-1.454665
0.258900	-1.440383
0.259000	-1.448173
0.259100	-1.445901
0.259200	-1.443954
0.259300	-1.432269
0.259400	-1.429997
0.259500	-1.418961
0.259600	-1.413767
0.259700	-1.408250
0.259800	-1.408250
0.259900	-1.407600
0.260000	-1.408250
0.260100	-1.407925
0.260200	-1.405004
0.260300	-1.413767
0.260400	-1.412469
0.260500	-1.427075
0.260600	-1.442006
0.260700	-1.499457
0.260800	-1.641949
0.260900	-1.776002
0.261000	-1.803591
0.261100	-1.707190
0.261200	-1.624746
0.261300	-1.634484
0.261400	-1.780546
0.261500	-1.933424
0.261600	-2.000288
0.261700	-1.971725
0.261800	-1.905835
0.261900	-1.892202
0.262000	-1.957119
0.262100	-2.059362
0.262200	-2.122007
0.262300	-2.139534
0.262400	-2.132394
0.262500	-2.127525
0.262600	-2.145702
0.262700	-2.178484
0.262800	-2.203802
0.262900	-2.220356
0.263000	-2.231716
0.263100	-2.247296
0.263200	-2.279430
0.263300	-2.297606
0.263400	-2.299229
0.263500	-2.299554
0.263600	-2.315459
0.263700	-2.341425
0.263800	-2.349864
0.263900	-2.290790
0.264000	-2.209969
0.264100	-2.202179
0.264200	-2.267096
0.264300	-2.375506
0.264400	-2.444967
0.264500	-2.400824
0.264600	-2.300852
0.264700	-2.234962
0.264800	-2.262227
0.264900	-2.364795
0.265000	-2.451784
0.265100	-2.467688
0.265200	-2.406991
0.265300	-2.346294
0.265400	-2.324871
0.265500	-2.336881
0.265600	-2.350838
0.265700	-2.353435
0.265800	-2.339478
0.265900	-2.310914
0.266000	-2.277158
0.266100	-2.233339
0.266200	-2.174265
0.266300	-2.108699
0.266400	-2.046055
0.266500	-2.008727
0.266600	-1.956794
0.266700	-1.874675
0.266800	-1.772431
0.266900	-1.687715
0.267000	-1.601701
0.267100	-1.524775
0.267200	-1.460183
0.267300	-1.388450
0.267400	-1.320937
0.267500	-1.245958
0.267600	-1.152803
0.267700	-1.073930
0.267800	-1.014856
0.267900	-0.982398
0.268000	-0.959677
0.268100	-0.935658
0.268200	-0.932087
0.268300	-0.904173
0.268400	-0.876909
0.268500	-0.855811
0.268600	-0.830169
0.268700	-0.833090
0.268800	-0.842503
0.268900	-0.844126
0.269000	-0.826598
0.269100	-0.726302
0.269200	-0.585759
0.269300	-0.515973
0.269400	-0.612699
0.269500	-0.736040
0.269600	-0.781481
0.269700	-0.672746
0.269800	-0.552002
0.269900	-0.474427
0.270000	-0.509482
0.270100	-0.587057
0.270200	-0.640613
0.270300	-0.610751
0.270400	-0.532202
0.270500	-0.468584
0.270600	-0.450732
0.270700	-0.454952
0.270800	-0.484489
0.270900	-0.497797
0.271000	-0.499420
0.271100	-0.491954
0.271200	-0.489033
0.271300	-0.497472
0.271400	-0.496823
0.271500	-0.520193
0.271600	-0.552002
0.271700	-0.595821
0.271800	-0.635095
0.271900	-0.674694
0.272000	-0.683458
0.272100	-0.685405
0.272200	-0.721434
0.272300	-0.820107
0.272400	-0.923324
0.272500	-0.932737
0.272600	-0.895734
0.272700	-0.810694
0.272800	-0.835037
0.272900	-0.930789
0.273000	-1.054130
0.273100	-1.094703
0.273200	-1.053481
0.273300	-0.981424
0.273400	-0.965844
0.273500	-1.023620
0.273600	-1.106063
0.273700	-1.146312
0.273800	-1.163839
0.273900	-1.154102
0.274000	-1.182340
0.274100	-1.222913
0.274200	-1.270302
0.274300	-1.302760
0.274400	-1.329376
0.274500	-1.358264
0.274600	-1.378063
0.274700	-1.378063
0.274800	-1.367677
0.274900	-1.343333
0.275000	-1.352421
0.275100	-1.406302
0.275200	-1.456937
0.275300	-1.477061
0.275400	-1.468297
0.275500	-1.436813
0.275600	-1.442655
0.275700	-1.442655
0.275800	-1.440059
0.275900	-1.427725
0.276000	-1.425777
0.276100	-1.413767
0.276200	-1.411820
0.276300	-1.408574
0.276400	-1.401109
0.276500	-1.400460
0.276600	-1.401109
0.276700	-1.400784
0.276800	-1.414417
0.276900	-1.425452
0.277000	-1.436813
0.277100	-1.455963
0.277200	-1.473815
0.277300	-1.504001
0.277400	-1.585147
0.277500	-1.749386
0.277600	-1.872403
0.277700	-1.853252
0.277800	-1.751982
0.277900	-1.681548
0.278000	-1.741596
0.278100	-1.906484
0.278200	-2.047353
0.278300	-2.091821
0.278400	-2.031448
0.278500	-1.972050
0.278600	-1.982761
0.278700	-2.074293
0.278800	-2.166150
0.278900	-2.219706
0.279000	-2.226198
0.279100	-2.222628
0.279200	-2.225224
0.279300	-2.248919
0.279400	-2.266771
0.279500	-2.294036
0.279600	-2.307019
0.279700	-2.330714
0.279800	-2.355707
0.279900	-2.384595
0.280000	-2.394332
0.280100	-2.391736
0.280200	-2.401798
0.280300	-2.435230
0.280400	-2.469311
0.280500	-2.464118
0.280600	-2.381998
0.280700	-2.313836
0.280800	-2.324547
0.280900	-2.411211
0.281000	-2.525464
0.281100	-2.552729
0.281200	-2.483917
0.281300	-2.383946
0.281400	-2.341425
0.281500	-2.404070
0.281600	-2.521244
0.281700	-2.592977
0.281800	-2.578047
0.281900	-2.515727
0.282000	-2.474180
0.282100	-2.464442
0.282200	-2.482944
0.282300	-2.487488
0.282400	-2.479373
0.282500	-2.457301
0.282600	-2.422896
0.282700	-2.384919
0.282800	-2.318055
0.282900	-2.238532
0.283000	-2.164527
0.283100	-2.104804
0.283200	-2.072021
0.283300	-2.036317
0.283400	-1.960365
0.283500	-1.863964
0.283600	-1.791582
0.283700	-1.692259
0.283800	-1.625071
0.283900	-1.564698
0.284000	-1.491343
0.284100	-1.414092
0.284200	-1.335868
0.284300	-1.251801
0.284400	-1.183963
0.284500	-1.139820
0.284600	-1.106063
0.284700	-1.073281
0.284800	-1.047963
0.284900	-1.032708
0.285000	-1.002197
0.285100	-0.989863
0.285200	-0.956756
0.285300	-0.951887
0.285400	-0.946044
0.285500	-0.960002
0.285600	-0.948641
0.285700	-0.913262
0.285800	-0.778885
0.285900	-0.630875
0.286000	-0.609128
0.286100	-0.736365
0.286200	-0.856460
0.286300	-0.855486
0.286400	-0.730847
0.286500	-0.602637
0.286600	-0.556222
0.286700	-0.617243
0.286800	-0.699687
0.286900	-0.728899
0.287000	-0.682159
0.287100	-0.610427
0.287200	-0.560441
0.287300	-0.556871
0.287400	-0.564985
0.287500	-0.587706
0.287600	-0.582837
0.287700	-0.571801
0.287800	-0.571152
0.287900	-0.572451
0.288000	-0.574074
0.288100	-0.568880
0.288200	-0.584136
0.288300	-0.616918
0.288400	-0.667878
0.288500	-0.720460
0.288600	-0.726952
0.288700	-0.722732
0.288800	-0.712995
0.288900	-0.757138
0.289000	-0.869119
0.289100	-0.932087
0.289200	-0.921376
0.289300	-0.839582
0.289400	-0.788298
0.289500	-0.821730
0.289600	-0.938255
0.289700	-1.023295
0.289800	-1.029137
0.289900	-0.959677
0.290000	-0.896383
0.290100	-0.906121
0.290200	-0.985968
0.290300	-1.054779
0.290400	-1.081071
0.290500	-1.078149
0.290600	-1.072956
0.290700	-1.096975
0.290800	-1.145662
0.290900	-1.193701
0.291000	-1.212202
0.291100	-1.222588
0.291200	-1.242713
0.291300	-1.262837
0.291400	-1.259915
0.291500	-1.251801
0.291600	-1.237195
0.291700	-1.251152
0.291800	-1.311199
0.291900	-1.348202
0.292000	-1.366378
0.292100	-1.336517
0.292200	-1.320937
0.292300	-1.329376
0.292400	-1.331324
0.292500	-1.340736
0.292600	-1.343982
0.292700	-1.339438
0.292800	-1.334245
0.292900	-1.335868
0.293000	-1.337815
0.293100	-1.345281
0.293200	-1.352097
0.293300	-1.360536
0.293400	-1.364756
0.293500	-1.372546
0.293600	-1.389099
0.293700	-1.411820
0.293800	-1.432269
0.293900	-1.459534
0.294000	-1.500431
0.294100	-1.615658
0.294200	-1.784116
0.294300	-1.865911
0.294400	-1.815276
0.294500	-1.719524
0.294600	-1.683496
0.294700	-1.785090
0.294800	-1.943811
0.294900	-2.062608
0.295000	-2.068451
0.295100	-2.008403
0.295200	-1.970427
0.295300	-2.004833
0.295400	-2.095391
0.295500	-2.189520
0.295600	-2.224575
0.295700	-2.222628
0.295800	-2.215811
0.295900	-2.220356
0.296000	-2.241454
0.296100	-2.270341
0.296200	-2.293711
0.296300	-2.306046
0.296400	-2.323573
0.296500	-2.352136
0.296600	-2.372261
0.296700	-2.381674
0.296800	-2.385244
0.296900	-2.398227
0.297000	-2.432309
0.297100	-2.454705
0.297200	-2.430686
0.297300	-2.344346
0.297400	-2.296308
0.297500	-2.326494
0.297600	-2.428089
0.297700	-2.516700
0.297800	-2.518323
0.297900	-2.426791
0.298000	-2.340776
0.298100	-2.322599
0.298200	-2.398876
0.298300	-2.504042
0.298400	-2.552080
0.298500	-2.516051
0.298600	-2.443669
0.298700	-2.411211
0.298800	-2.398876
0.298900	-2.415106
0.299000	-2.424843
0.299100	-2.416729
0.299200	-2.391411
0.299300	-2.351812
0.299400	-2.306370
0.299500	-2.258332
0.299600	-2.193091
0.299700	-2.133692
0.299800	-2.069100
0.299900	-2.004508
0.300000	-1.947381
0.300100	-1.856174
0.300200	-1.770484
0.300300	-1.714655
0.300400	-1.616956
0.300500	-1.560803
0.300600	-1.492641
0.300700	-1.424154
0.300800	-1.358588
0.300900	-1.268355
0.301000	-1.189157
0.301100	-1.117748
0.301200	-1.079448
0.301300	-1.047963
0.301400	-1.014531
0.301500	-0.997653
0.301600	-0.988565
0.301700	-0.960975
0.301800	-0.948317
0.301900	-0.920402
0.302000	-0.914560
0.302100	-0.904498
0.302200	-0.925920
0.302300	-0.898980
0.302400	-0.838932
0.302500	-0.689949
0.302600	-0.595496
0.302700	-0.612699
0.302800	-0.759085
0.302900	-0.834713
0.303000	-0.795114
0.303100	-0.662360
0.303200	-0.571477
0.303300	-0.549730
0.303400	-0.628279
0.303500	-0.694818
0.303600	-0.703257
0.303700	-0.644832
0.303800	-0.576021
0.303900	-0.544861
0.304000	-0.541940
0.304100	-0.555897
0.304200	-0.566608
0.304300	-0.573100
0.304400	-0.563362
0.304500	-0.562389
0.304600	-0.556222
0.304700	-0.557520
0.304800	-0.562064
0.304900	-0.589653
0.305000	-0.642236
0.305100	-0.679563
0.305200	-0.709424
0.305300	-0.721758
0.305400	-0.714942
0.305500	-0.729224
0.305600	-0.795763
0.305700	-0.912288
0.305800	-0.952861
0.305900	-0.921701
0.306000	-0.845424
0.306100	-0.832116
0.306200	-0.896708
0.306300	-1.010312
0.306400	-1.071658
0.306500	-1.059648
0.306600	-0.983696
0.306700	-0.949290
0.306800	-0.988565
0.306900	-1.058350
0.307000	-1.100870
0.307100	-1.116126
0.307200	-1.113204
0.307300	-1.120020
0.307400	-1.140794
0.307500	-1.182016
0.307600	-1.219667
0.307700	-1.227457
0.307800	-1.240116
0.307900	-1.256670
0.308000	-1.258617
0.308100	-1.244011
0.308200	-1.235896
0.308300	-1.223562
0.308400	-1.246283
0.308500	-1.303734
0.308600	-1.332946
0.308700	-1.340087
0.308800	-1.314770
0.308900	-1.318016
0.309000	-1.318665
0.309100	-1.320937
0.309200	-1.323858
0.309300	-1.321586
0.309400	-1.317367
0.309500	-1.318016
0.309600	-1.319314
0.309700	-1.312498
0.309800	-1.315419
0.309900	-1.325806
0.310000	-1.331324
0.310100	-1.334569
0.310200	-1.345605
0.310300	-1.351448
0.310400	-1.355667
0.310500	-1.380335
0.310600	-1.405653
0.310700	-1.467324
0.310800	-1.603324
0.310900	-1.746140
0.311000	-1.796450
0.311100	-1.726665
0.311200	-1.643572
0.311300	-1.656555
0.311400	-1.783467
0.311500	-1.946408
0.311600	-2.030475
0.311700	-2.014895
0.311800	-1.960365
0.311900	-1.956794
0.312000	-2.014570
0.312100	-2.114217
0.312200	-2.176537
0.312300	-2.198609
0.312400	-2.197959
0.312500	-2.195038
0.312600	-2.210618
0.312700	-2.237883
0.312800	-2.267420
0.312900	-2.285272
0.313000	-2.297282
0.313100	-2.319029
0.313200	-2.349215
0.313300	-2.369664
0.313400	-2.366743
0.313500	-2.372585
0.313600	-2.389464
0.313700	-2.419001
0.313800	-2.423545
0.313900	-2.380051
0.314000	-2.295010
0.314100	-2.272289
0.314200	-2.328117
0.314300	-2.431335
0.314400	-2.491383
0.314500	-2.451459
0.314600	-2.364471
0.314700	-2.310914
0.314800	-2.344346
0.314900	-2.434581
0.315000	-2.522218
0.315100	-2.537149
0.315200	-2.479049
0.315300	-2.431335
0.315400	-2.423220
0.315500	-2.429063
0.315600	-2.434581
0.315700	-2.421597
0.315800	-2.406017
0.315900	-2.386867
0.316000	-2.362523
0.316100	-2.332012
0.316200	-2.271315
0.316300	-2.194064
0.316400	-2.129148
0.316500	-2.090847
0.316600	-2.057740
0.316700	-2.003210
0.316800	-1.914598
0.316900	-1.817873
0.317000	-1.698102
0.317100	-1.618579
0.317200	-1.556908
0.317300	-1.492641
0.317400	-1.419285
0.317500	-1.342359
0.317600	-1.247906
0.317700	-1.174875
0.317800	-1.111581
0.317900	-1.090159
0.318000	-1.061920
0.318100	-1.041796
0.318200	-1.032383
0.318300	-1.009663
0.318400	-0.986293
0.318500	-0.966493
0.318600	-0.935658
0.318700	-0.932087
0.318800	-0.936307
0.318900	-0.942799
0.319000	-0.925596
0.319100	-0.828221
0.319200	-0.677940
0.319300	-0.596470
0.319400	-0.688002
0.319500	-0.819133
0.319600	-0.874312
0.319700	-0.790245
0.319800	-0.665281
0.319900	-0.584785
0.320000	-0.606207
0.320100	-0.690274
0.320200	-0.746102
0.320300	-0.715916
0.320400	-0.644183
0.320500	-0.579916
0.320600	-0.564985
0.320700	-0.570503
0.320800	-0.603935
0.320900	-0.596145
0.321000	-0.581539
0.321100	-0.564012
0.321200	-0.563687
0.321300	-0.568231
0.321400	-0.572451
0.321500	-0.570503
0.321600	-0.606207
0.321700	-0.629577
0.321800	-0.678589
0.321900	-0.711372
0.322000	-0.717539
0.322100	-0.712670
0.322200	-0.725329
0.322300	-0.829844
0.322400	-0.923648
0.322500	-0.948317
0.322600	-0.907419
0.322700	-0.838932
0.322800	-0.861329
0.322900	-0.959028
0.323000	-1.069386
0.323100	-1.102818
0.323200	-1.062569
0.323300	-0.994732
0.323400	-0.981749
0.323500	-1.031410
0.323600	-1.107362
0.323700	-1.140145
0.323800	-1.157997
0.323900	-1.154426
0.324000	-1.173901
0.324100	-1.213176
0.324200	-1.248880
0.324300	-1.266083
0.324400	-1.275495
0.324500	-1.286856
0.324600	-1.308278
0.324700	-1.311849
0.324800	-1.297242
0.324900	-1.277767
0.325000	-1.276469
0.325100	-1.314445
0.325200	-1.358913
0.325300	-1.375467
0.325400	-1.373519
0.325500	-1.346254
0.325600	-1.346903
0.325700	-1.353071
0.325800	-1.353720
0.325900	-1.341386
0.326000	-1.337491
0.326100	-1.327429
0.326200	-1.318016
0.326300	-1.311524
0.326400	-1.305032
0.326500	-1.306006
0.326600	-1.312498
0.326700	-1.319639
0.326800	-1.319639
0.326900	-1.330025
0.327000	-1.338140
0.327100	-1.359238
0.327200	-1.378713
0.327300	-1.405004
0.327400	-1.490369
0.327500	-1.645844
0.327600	-1.784765
0.327700	-1.779247
0.327800	-1.691610
0.327900	-1.620202
0.328000	-1.676030
0.328100	-1.834426
0.328200	-1.974322
0.328300	-2.024307
0.328400	-1.973023
0.328500	-1.918493
0.328600	-1.920766
0.328700	-2.003210
0.328800	-2.110647
0.328900	-2.155439
0.329000	-2.168422
0.329100	-2.152193
0.329200	-2.147974
0.329300	-2.162255
0.329400	-2.201205
0.329500	-2.234313
0.329600	-2.247945
0.329700	-2.258656
0.329800	-2.282026
0.329900	-2.317081
0.330000	-2.331363
0.330100	-2.344022
0.330200	-2.350189
0.330300	-2.380051
0.330400	-2.419650
0.330500	-2.422571
0.330600	-2.361549
0.330700	-2.292089
0.330800	-2.304098
0.330900	-2.385893
0.331000	-2.492357
0.331100	-2.537798
0.331200	-2.477101
0.331300	-2.389788
0.331400	-2.348891
0.331500	-2.409263
0.331600	-2.533254
0.331700	-2.610505
0.331800	-2.607259
0.331900	-2.543965
0.332000	-2.490734
0.332100	-2.481321
0.332200	-2.507287
0.332300	-2.524490
0.332400	-2.522218
0.332500	-2.505664
0.332600	-2.475478
0.332700	-2.440748
0.332800	-2.391411
0.332900	-2.324871
0.333000	-2.249244
0.333100	-2.192117
0.333200	-2.152842
0.333300	-2.117138
0.333400	-2.038265
0.333500	-1.933749
0.333600	-1.820145
0.333700	-1.706865
0.333800	-1.640326
0.333900	-1.583524
0.334000	-1.521204
0.334100	-1.447524
0.334200	-1.369624
0.334300	-1.280689
0.334400	-1.208631
0.334500	-1.163839
0.334600	-1.131056
0.334700	-1.109309
0.334800	-1.076526
0.334900	-1.065815
0.335000	-1.031410
0.335100	-1.003820
0.335200	-0.969090
0.335300	-0.961624
0.335400	-0.953510
0.335500	-0.971037
0.335600	-0.954159
0.335700	-0.920078
0.335800	-0.784727
0.335900	-0.649052
0.336000	-0.596145
0.336100	-0.722407
0.336200	-0.833090
0.336300	-0.836011
0.336400	-0.721758
0.336500	-0.593548
0.336600	-0.552327
0.336700	-0.588355
0.336800	-0.683458
0.336900	-0.708450
0.337000	-0.671124
0.337100	-0.588355
0.337200	-0.537720
0.337300	-0.523114
0.337400	-0.533825
0.337500	-0.554923
0.337600	-0.557195
0.337700	-0.541940
0.337800	-0.528308
0.337900	-0.525386
0.338000	-0.525386
0.338100	-0.519219
0.338200	-0.541940
0.338300	-0.578618
0.338400	-0.623410
0.338500	-0.662360
0.338600	-0.688976
0.338700	-0.691572
0.338800	-0.679563
0.338900	-0.714942
0.339000	-0.828870
0.339100	-0.905472
0.339200	-0.909042
0.339300	-0.842503
0.339400	-0.792517
0.339500	-0.828221
0.339600	-0.932412
0.339700	-1.029787
0.339800	-1.053806
0.339900	-1.003496
0.340000	-0.945720
0.340100	-0.946044
0.340200	-1.018102
0.340300	-1.088861
0.340400	-1.118398
0.340500	-1.128460
0.340600	-1.121643
0.340700	-1.147935
0.340800	-1.182016
0.340900	-1.220966
0.341000	-1.236546
0.341100	-1.251152
0.341200	-1.281987
0.341300	-1.298541
0.341400	-1.292049
0.341500	-1.281987
0.341600	-1.265433
0.341700	-1.276469
0.341800	-1.331973
0.341900	-1.378388
0.342000	-1.396565
0.342100	-1.394617
0.342200	-1.374493
0.342300	-1.384555
0.342400	-1.389099
0.342500	-1.386827
0.342600	-1.380985
0.342700	-1.376116
0.342800	-1.372870
0.342900	-1.368326
0.343000	-1.359887
0.343100	-1.355018
0.343200	-1.358913
0.343300	-1.362483
0.343400	-1.367352
0.343500	-1.364756
0.343600	-1.372221
0.343700	-1.375142
0.343800	-1.394617
0.343900	-1.409223
0.344000	-1.440059
0.344100	-1.548469
0.344200	-1.713682
0.344300	-1.808135
0.344400	-1.770808
0.344500	-1.678627
0.344600	-1.635782
0.344700	-1.727639
0.344800	-1.893825
0.344900	-2.019763
0.345000	-2.033396
0.345100	-1.971076
0.345200	-1.937319
0.345300	-1.967181
0.345400	-2.057415
0.345500	-2.144079
0.345600	-2.180107
0.345700	-2.177186
0.345800	-2.170694
0.345900	-2.179134
0.346000	-2.200881
0.346100	-2.232690
0.346200	-2.257683
0.346300	-2.264824
0.346400	-2.286571
0.346500	-2.314160
0.346600	-2.344022
0.346700	-2.345645
0.346800	-2.353110
0.346900	-2.361225
0.347000	-2.396929
0.347100	-2.426141
0.347200	-2.417702
0.347300	-2.343048
0.347400	-2.293387
0.347500	-2.320327
0.347600	-2.411535
0.347700	-2.510533
0.347800	-2.523841
0.347900	-2.447239
0.348000	-2.362848
0.348100	-2.348566
0.348200	-2.418027
0.348300	-2.523517
0.348400	-2.582591
0.348500	-2.561817
0.348600	-2.495602
0.348700	-2.457626
0.348800	-2.447889
0.348900	-2.456977
0.349000	-2.460547
0.349100	-2.446266
0.349200	-2.422896
0.349300	-2.388490
0.349400	-2.349215
0.349500	-2.297606
0.349600	-2.224900
0.349700	-2.151544
0.349800	-2.098637
0.349900	-2.055467
0.350000	-2.011324
0.350100	-1.922064
0.350200	-1.826312
0.350300	-1.695181
0.350400	-1.600727
0.350500	-1.538407
0.350600	-1.480631
0.350700	-1.417987
0.350800	-1.341061
0.350900	-1.261214
0.351000	-1.178770
0.351100	-1.113529
0.351200	-1.071333
0.351300	-1.046990
0.351400	-1.022646
0.351500	-1.010961
0.351600	-0.993433
0.351700	-0.969739
0.351800	-0.950913
0.351900	-0.929491
0.352000	-0.928517
0.352100	-0.922999
0.352200	-0.941825
0.352300	-0.919104
0.352400	-0.875935
0.352500	-0.725329
0.352600	-0.615620
0.352700	-0.613673
0.352800	-0.756813
0.352900	-0.860679
0.353000	-0.824651
0.353100	-0.706828
0.353200	-0.586408
0.353300	-0.572451
0.353400	-0.637042
0.353500	-0.722732
0.353600	-0.733119
0.353700	-0.673720
0.353800	-0.592575
0.353900	-0.543563
0.354000	-0.553300
0.354100	-0.564985
0.354200	-0.584460
0.354300	-0.586408
0.354400	-0.577644
0.354500	-0.571801
0.354600	-0.561090
0.354700	-0.562389
0.354800	-0.559467
0.354900	-0.588031
0.355000	-0.633472
0.355100	-0.677291
0.355200	-0.722407
0.355300	-0.731496
0.355400	-0.727276
0.355500	-0.725329
0.355600	-0.800632
0.355700	-0.906121
0.355800	-0.967791
0.355900	-0.949615
0.356000	-0.881777
0.356100	-0.853539
0.356200	-0.907744
0.356300	-1.030436
0.356400	-1.102493
0.356500	-1.105414
0.356600	-1.042121
0.356700	-0.998627
0.356800	-1.015830
0.356900	-1.084641
0.357000	-1.137548
0.357100	-1.160269
0.357200	-1.164488
0.357300	-1.160269
0.357400	-1.189157
0.357500	-1.229080
0.357600	-1.253748
0.357700	-1.272250
0.357800	-1.283935
0.357900	-1.311849
0.358000	-1.327429
0.358100	-1.318989
0.358200	-1.311849
0.358300	-1.305032
0.358400	-1.329051
0.358500	-1.383581
0.358600	-1.416040
0.358700	-1.441357
0.358800	-1.429347
0.358900	-1.419935
0.359000	-1.433892
0.359100	-1.430970
0.359200	-1.429023
0.359300	-1.418312
0.359400	-1.414092
0.359500	-1.410522
0.359600	-1.405328
0.359700	-1.403381
0.359800	-1.398512
0.359900	-1.399486
0.360000	-1.395266
0.360100	-1.397863
0.360200	-1.400135
0.360300	-1.406951
0.360400	-1.405328
0.360500	-1.423180
0.360600	-1.439409
0.360700	-1.486474
0.360800	-1.607868
0.360900	-1.764641
0.361000	-1.819171
0.361100	-1.740622
0.361200	-1.652011
0.361300	-1.634808
0.361400	-1.747763
0.361500	-1.900641
0.361600	-1.998016
0.361700	-1.982112
0.361800	-1.921415
0.361900	-1.906159
0.362000	-1.955820
0.362100	-2.052546
0.362200	-2.124279
0.362300	-2.157387
0.362400	-2.161931
0.362500	-2.169721
0.362600	-2.184652
0.362700	-2.201205
0.362800	-2.231391
0.362900	-2.257683
0.363000	-2.282351
0.363100	-2.310265
0.363200	-2.349215
0.363300	-2.381998
0.363400	-2.392385
0.363500	-2.401473
0.363600	-2.436853
0.363700	-2.476776
0.363800	-2.502094
0.363900	-2.469636
0.364000	-2.391411
0.364100	-2.369664
0.364200	-2.424843
0.364300	-2.528061
0.364400	-2.611803
0.364500	-2.592977
0.364600	-2.508586
0.364700	-2.443020
0.364800	-2.452757
0.364900	-2.532280
0.365000	-2.620567
0.365100	-2.645885
0.365200	-2.608557
0.365300	-2.552080
0.365400	-2.523517
0.365500	-2.530982
0.365600	-2.534228
0.365700	-2.532280
0.365800	-2.521894
0.365900	-2.502419
0.366000	-2.475154
0.366100	-2.429063
0.366200	-2.366418
0.366300	-2.294361
0.366400	-2.235611
0.366500	-2.192442
0.366600	-2.151544
0.366700	-2.101234
0.366800	-2.002885
0.366900	-1.895773
0.367000	-1.771457
0.367100	-1.685443
0.367200	-1.617281
0.367300	-1.555285
0.367400	-1.479658
0.367500	-1.400784
0.367600	-1.315419
0.367700	-1.235896
0.367800	-1.173901
0.367900	-1.132355
0.368000	-1.106713
0.368100	-1.071982
0.368200	-1.058674
0.368300	-1.034980
0.368400	-0.999601
0.368500	-0.982073
0.368600	-0.949290
0.368700	-0.959028
0.368800	-0.945395
0.368900	-0.969090
0.369000	-0.922025
0.369100	-0.863925
0.369200	-0.685730
0.369300	-0.598417
0.369400	-0.657167
0.369500	-0.792842
0.369600	-0.869119
0.369700	-0.791219
0.369800	-0.655544
0.369900	-0.568880
0.370000	-0.578942
0.370100	-0.658789
0.370200	-0.709749
0.370300	-0.697415
0.370400	-0.620164
0.370500	-0.554599
0.370600	-0.528632
0.370700	-0.536097
0.370800	-0.547133
0.370900	-0.546484
0.371000	-0.546484
0.371100	-0.536097
0.371200	-0.539668
0.371300	-0.533825
0.371400	-0.532527
0.371500	-0.523114
0.371600	-0.574398
0.371700	-0.598742
0.371800	-0.657167
0.371900	-0.682808
0.372000	-0.694169
0.372100	-0.676317
0.372200	-0.689300
0.372300	-0.769147
0.372400	-0.877233
0.372500	-0.908068
0.372600	-0.870417
0.372700	-0.801281
0.372800	-0.801281
0.372900	-0.885348
0.373000	-1.000899
0.373100	-1.047963
0.373200	-1.021023
0.373300	-0.948641
0.373400	-0.934684
0.373500	-0.982398
0.373600	-1.060947
0.373700	-1.095677
0.373800	-1.108985
0.373900	-1.117424
0.374000	-1.136899
0.374100	-1.178445
0.374200	-1.209930
0.374300	-1.230378
0.374400	-1.245634
0.374500	-1.270951
0.374600	-1.287180
0.374700	-1.304383
0.374800	-1.290751
0.374900	-1.272899
0.375000	-1.265433
0.375100	-1.303085
0.375200	-1.358913
0.375300	-1.382283
0.375400	-1.383906
0.375500	-1.352746
0.375600	-1.353395
0.375700	-1.358588
0.375800	-1.345930
0.375900	-1.345605
0.376000	-1.339438
0.376100	-1.330674
0.376200	-1.330999
0.376300	-1.329051
0.376400	-1.319639
0.376500	-1.322235
0.376600	-1.328727
0.376700	-1.328727
0.376800	-1.326455
0.376900	-1.339438
0.377000	-1.342684
0.377100	-1.346903
0.377200	-1.372221
0.377300	-1.394942
0.377400	-1.463753
0.377500	-1.615982
0.377600	-1.750360
0.377700	-1.783467
0.377800	-1.695505
0.377900	-1.608842
0.378000	-1.642274
0.378100	-1.792231
0.378200	-1.945434
0.378300	-2.016842
0.378400	-1.981138
0.378500	-1.924011
0.378600	-1.917520
0.378700	-2.000613
0.378800	-2.101883
0.378900	-2.157711
0.379000	-2.170694
0.379100	-2.158685
0.379200	-2.165826
0.379300	-2.183678
0.379400	-2.212566
0.379500	-2.238532
0.379600	-2.241129
0.379700	-2.249244
0.379800	-2.282026
0.379900	-2.312213
0.380000	-2.333960
0.380100	-2.331363
0.380200	-2.329740
0.380300	-2.350514
0.380400	-2.378103
0.380500	-2.383621
0.380600	-2.323898
0.380700	-2.242103
0.380800	-2.233988
0.380900	-2.306695
0.381000	-2.406991
0.381100	-2.462170
0.381200	-2.423220
0.381300	-2.334284
0.381400	-2.282351
0.381500	-2.330065
0.381600	-2.439774
0.381700	-2.527087
0.381800	-2.526113
0.381900	-2.470285
0.382000	-2.424194
0.382100	-2.409912
0.382200	-2.438476
0.382300	-2.454380
0.382400	-2.445616
0.382500	-2.423220
0.382600	-2.390437
0.382700	-2.363821
0.382800	-2.336881
0.382900	-2.282676
0.383000	-2.212890
0.383100	-2.153816
0.383200	-2.118761
0.383300	-2.082083
0.383400	-2.022035
0.383500	-1.906159
0.383600	-1.802617
0.383700	-1.694856
0.383800	-1.621176
0.383900	-1.563725
0.384000	-1.492641
0.384100	-1.425128
0.384200	-1.345605
0.384300	-1.254722
0.384400	-1.184612
0.384500	-1.133004
0.384600	-1.096001
0.384700	-1.066789
0.384800	-1.044717
0.384900	-1.026865
0.385000	-1.001548
0.385100	-0.978503
0.385200	-0.960651
0.385300	-0.945720
0.385400	-0.942799
0.385500	-0.944422
0.385600	-0.937930
0.385700	-0.907744
0.385800	-0.796412
0.385900	-0.658465
0.386000	-0.574074
0.386100	-0.675343
0.386200	-0.790894
0.386300	-0.831792
0.386400	-0.722083
0.386500	-0.591926
0.386600	-0.517272
0.386700	-0.556546
0.386800	-0.639315
0.386900	-0.694493
0.387000	-0.666255
0.387100	-0.582188
0.387200	-0.520193
0.387300	-0.499744
0.387400	-0.510131
0.387500	-0.526685
0.387600	-0.531229
0.387700	-0.527334
0.387800	-0.519219
0.387900	-0.507859
0.388000	-0.507534
0.388100	-0.510131
0.388200	-0.516947
0.388300	-0.556222
0.388400	-0.586732
0.388500	-0.626656
0.388600	-0.649377
0.388700	-0.656517
0.388800	-0.650350
0.388900	-0.679563
0.389000	-0.777911
0.389100	-0.867820
0.389200	-0.882751
0.389300	-0.836660
0.389400	-0.765577
0.389500	-0.794140
0.389600	-0.887944
0.389700	-0.992784
0.389800	-1.033682
0.389900	-0.989538
0.390000	-0.919104
0.390100	-0.907095
0.390200	-0.970388
0.390300	-1.047963
0.390400	-1.082369
0.390500	-1.098598
0.390600	-1.082044
0.390700	-1.100870
0.390800	-1.142741
0.390900	-1.185262
0.391000	-1.212526
0.391100	-1.230378
0.391200	-1.246283
0.391300	-1.263486
0.391400	-1.268679
0.391500	-1.263810
0.391600	-1.252125
0.391700	-1.264784
0.391800	-1.316393
0.391900	-1.368975
0.392000	-1.381958
0.392100	-1.376440
0.392200	-1.351448
0.392300	-1.355992
0.392400	-1.355992
0.392500	-1.359238
0.392600	-1.359887
0.392700	-1.351772
0.392800	-1.348526
0.392900	-1.344956
0.393000	-1.343982
0.393100	-1.341710
0.393200	-1.348851
0.393300	-1.352097
0.393400	-1.355667
0.393500	-1.353720
0.393600	-1.358913
0.393700	-1.372221
0.393800	-1.386827
0.393900	-1.398837
0.394000	-1.426426
0.394100	-1.519906
0.394200	-1.680574
0.394300	-1.792555
0.394400	-1.777300
0.394500	-1.678627
0.394600	-1.615333
0.394700	-1.686417
0.394800	-1.845787
0.394900	-1.981138
0.395000	-2.021386
0.395100	-1.968479
0.395200	-1.931801
0.395300	-1.946408
0.395400	-2.030799
0.395500	-2.124279
0.395600	-2.180107
0.395700	-2.196986
0.395800	-2.194389
0.395900	-2.210294
0.396000	-2.231391
0.396100	-2.263525
0.396200	-2.299879
0.396300	-2.319354
0.396400	-2.333635
0.396500	-2.361225
0.396600	-2.383621
0.396700	-2.394657
0.396800	-2.389788
0.396900	-2.407965
0.397000	-2.441072
0.397100	-2.459898
0.397200	-2.447239
0.397300	-2.374857
0.397400	-2.307993
0.397500	-2.322599
0.397600	-2.407965
0.397700	-2.514753
0.397800	-2.545264
0.397900	-2.471583
0.398000	-2.375506
0.398100	-2.339153
0.398200	-2.394657
0.398300	-2.503717
0.398400	-2.570906
0.398500	-2.550782
0.398600	-2.477101
0.398700	-2.419325
0.398800	-2.407965
0.398900	-2.418351
0.399000	-2.434905
0.399100	-2.433282
0.399200	-2.406991
0.399300	-2.368041
0.399400	-2.327468
0.399500	-2.290141
0.399600	-2.217110
0.399700	-2.158036
0.399800	-2.109024
0.399900	-2.074618
0.400000	-2.039887
0.400100	-1.957443
0.400200	-1.862665
0.400300	-1.744842
0.400400	-1.639028
0.400500	-1.577682
0.400600	-1.516660
0.400700	-1.447199
0.400800	-1.369949
0.400900	-1.287180
0.401000	-1.200192
0.401100	-1.125214
0.401200	-1.080746
0.401300	-1.046340
0.401400	-1.022321
0.401500	-0.999601
0.401600	-0.987266
0.401700	-0.966169
0.401800	-0.946694
0.401900	-0.927543
0.402000	-0.922025
0.402100	-0.922675
0.402200	-0.933386
0.402300	-0.927219
0.402400	-0.884698
0.402500	-0.744154
0.402600	-0.629577
0.402700	-0.603286
0.402800	-0.741882
0.402900	-0.845424
0.403000	-0.833739
0.403100	-0.702608
0.403200	-0.586408
0.403300	-0.551028
0.403400	-0.610102
0.403500	-0.686703
0.403600	-0.719162
0.403700	-0.663983
0.403800	-0.597119
0.403900	-0.539668
0.404000	-0.551353
0.404100	-0.556871
0.404200	-0.583162
0.404300	-0.592575
0.404400	-0.591276
0.404500	-0.587057
0.404600	-0.586083
0.404700	-0.596794
0.404800	-0.600040
0.404900	-0.643859
0.405000	-0.672746
0.405100	-0.711372
0.405200	-0.758436
0.405300	-0.768498
0.405400	-0.772718
0.405500	-0.768498
0.405600	-0.825625
0.405700	-0.934684
0.405800	-0.997978
0.405900	-0.995056
0.406000	-0.925920
0.406100	-0.870417
0.406200	-0.922025
0.406300	-1.042770
0.406400	-1.143390
0.406500	-1.149882
0.406600	-1.084641
0.406700	-1.022970
0.406800	-1.041472
0.406900	-1.127810
0.407000	-1.203438
0.407100	-1.228756
0.407200	-1.236221
0.407300	-1.228431
0.407400	-1.261863
0.407500	-1.301787
0.407600	-1.339438
0.407700	-1.355018
0.407800	-1.375467
0.407900	-1.401758
0.408000	-1.422856
0.408100	-1.428374
0.408200	-1.421233
0.408300	-1.405004
0.408400	-1.414092
0.408500	-1.477386
0.408600	-1.516336
0.408700	-1.529319
0.408800	-1.522178
0.408900	-1.504001
0.409000	-1.512765
0.409100	-1.507247
0.409200	-1.500106
0.409300	-1.490044
0.409400	-1.482254
0.409500	-1.472841
0.409600	-1.466350
0.409700	-1.461806
0.409800	-1.459534
0.409900	-1.452393
0.410000	-1.446875
0.410100	-1.450445
0.410200	-1.450445
0.410300	-1.458884
0.410400	-1.463753
0.410500	-1.482904
0.410600	-1.503677
0.410700	-1.541653
0.410800	-1.652336
0.410900	-1.805539
0.411000	-1.883763
0.411100	-1.824364
0.411200	-1.718550
0.411300	-1.686741
0.411400	-1.795152
0.411500	-1.956470
0.411600	-2.066503
0.411700	-2.067802
0.411800	-2.007754
0.411900	-1.973023
0.412000	-2.016517
0.412100	-2.114866
0.412200	-2.197635
0.412300	-2.238532
0.412400	-2.234637
0.412500	-2.233339
0.412600	-2.234313
0.412700	-2.269368
0.412800	-2.302151
0.412900	-2.320003
0.413000	-2.332661
0.413100	-2.352136
0.413200	-2.386542
0.413300	-2.401149
0.413400	-2.413807
0.413500	-2.419650
0.413600	-2.439449
0.413700	-2.466390
0.413800	-2.488462
0.413900	-2.464118
0.414000	-2.386218
0.414100	-2.342399
0.414200	-2.383296
0.414300	-2.490409
0.414400	-2.597522
0.414500	-2.600767
0.414600	-2.515402
0.414700	-2.433282
0.414800	-2.429387
0.414900	-2.514753
0.415000	-2.626734
0.415100	-2.678018
0.415200	-2.645560
0.415300	-2.581617
0.415400	-2.539097
0.415500	-2.540719
0.415600	-2.556624
0.415700	-2.562791
0.415800	-2.554027
0.415900	-2.524815
0.416000	-2.487163
0.416100	-2.443344
0.416200	-2.392060
0.416300	-2.320327
0.416400	-2.246971
0.416500	-2.196986
0.416600	-2.157711
0.416700	-2.099611
0.416800	-2.001587
0.416900	-1.892202
0.417000	-1.759772
0.417100	-1.662073
0.417200	-1.596832
0.417300	-1.526398
0.417400	-1.452717
0.417500	-1.369624
0.417600	-1.287180
0.417700	-1.199868
0.417800	-1.129433
0.417900	-1.092106
0.418000	-1.054779
0.418100	-1.030760
0.418200	-1.014531
0.418300	-0.992135
0.418400	-0.957729
0.418500	-0.934360
0.418600	-0.897357
0.418700	-0.897682
0.418800	-0.886321
0.418900	-0.896708
0.419000	-0.870741
0.419100	-0.798684
0.419200	-0.633147
0.419300	-0.533501
0.419400	-0.560766
0.419500	-0.701634
0.419600	-0.778885
0.419700	-0.725978
0.419800	-0.584136
0.419900	-0.486112
0.420000	-0.468584
0.420100	-0.533176
0.420200	-0.613348
0.420300	-0.610427
0.420400	-0.554923
0.420500	-0.472479
0.420600	-0.440995
0.420700	-0.429959
0.420800	-0.452031
0.420900	-0.460794
0.421000	-0.467286
0.421100	-0.457873
0.421200	-0.443916
0.421300	-0.436775
0.421400	-0.432556
0.421500	-0.438074
0.421600	-0.472479
0.421700	-0.512403
0.421800	-0.553300
0.421900	-0.585759
0.422000	-0.597768
0.422100	-0.591276
0.422200	-0.596145
0.422300	-0.671773
0.422400	-0.787648
0.422500	-0.827247
0.422600	-0.794140
0.422700	-0.711047
0.422800	-0.688002
0.422900	-0.757462
0.423000	-0.875610
0.423100	-0.944097
0.423200	-0.930465
0.423300	-0.852565
0.423400	-0.806799
0.423500	-0.838608
0.423600	-0.915209
0.423700	-0.960651
0.423800	-0.979801
0.423900	-0.978827
0.424000	-0.992460
0.424100	-1.016479
0.424200	-1.042445
0.424300	-1.059324
0.424400	-1.065491
0.424500	-1.087562
0.424600	-1.115801
0.424700	-1.129109
0.424800	-1.127810
0.424900	-1.114503
0.425000	-1.108660
0.425100	-1.149233
0.425200	-1.216746
0.425300	-1.260240
0.425400	-1.278092
0.425500	-1.272574
0.425600	-1.274522
0.425700	-1.283935
0.425800	-1.281338
0.425900	-1.281338
0.426000	-1.277118
0.426100	-1.282312
0.426200	-1.281013
0.426300	-1.281013
0.426400	-1.289777
0.426500	-1.296593
0.426600	-1.298865
0.426700	-1.308603
0.426800	-1.313472
0.426900	-1.331648
0.427000	-1.342359
0.427100	-1.358264
0.427200	-1.373844
0.427300	-1.404679
0.427400	-1.458884
0.427500	-1.600727
0.427600	-1.747114
0.427700	-1.776326
0.427800	-1.701672
0.427900	-1.597806
0.428000	-1.623772
0.428100	-1.755553
0.428200	-1.924661
0.428300	-2.012622
0.428400	-1.992174
0.428500	-1.930178
0.428600	-1.912326
0.428700	-1.974322
0.428800	-2.076241
0.428900	-2.146675
0.429000	-2.173291
0.429100	-2.171019
0.429200	-2.182055
0.429300	-2.188222
0.429400	-2.222303
0.429500	-2.250217
0.429600	-2.271315
0.429700	-2.288843
0.429800	-2.322275
0.429900	-2.359277
0.430000	-2.383621
0.430100	-2.381998
0.430200	-2.384919
0.430300	-2.411535
0.430400	-2.441397
0.430500	-2.457301
0.430600	-2.401473
0.430700	-2.313186
0.430800	-2.291439
0.430900	-2.358628
0.431000	-2.469311
0.431100	-2.543965
0.431200	-2.510533
0.431300	-2.408939
0.431400	-2.330389
0.431500	-2.352136
0.431600	-2.456328
0.431700	-2.555975
0.431800	-2.572529
0.431900	-2.519297
0.432000	-2.455354
0.432100	-2.433931
0.432200	-2.437177
0.432300	-2.447889
0.432400	-2.441721
0.432500	-2.415755
0.432600	-2.381349
0.432700	-2.346943
0.432800	-2.301177
0.432900	-2.237559
0.433000	-2.163229
0.433100	-2.105778
0.433200	-2.060661
0.433300	-2.025606
0.433400	-1.967181
0.433500	-1.862016
0.433600	-1.761071
0.433700	-1.635782
0.433800	-1.548145
0.433900	-1.488421
0.434000	-1.420584
0.434100	-1.351448
0.434200	-1.268355
0.434300	-1.182340
0.434400	-1.094379
0.434500	-1.033032
0.434600	-1.002197
0.434700	-0.971362
0.434800	-0.946044
0.434900	-0.930465
0.435000	-0.911639
0.435100	-0.878207
0.435200	-0.861329
0.435300	-0.842827
0.435400	-0.841529
0.435500	-0.835687
0.435600	-0.845099
0.435700	-0.822703
0.435800	-0.727601
0.435900	-0.575047
0.436000	-0.502341
0.436100	-0.576995
0.436200	-0.737338
0.436300	-0.789921
0.436400	-0.714293
0.436500	-0.572126
0.436600	-0.491630
0.436700	-0.504288
0.436800	-0.596145
0.436900	-0.661711
0.437000	-0.655544
0.437100	-0.575047
0.437200	-0.510780
0.437300	-0.490007
0.437400	-0.498446
0.437500	-0.521816
0.437600	-0.533825
0.437700	-0.522790
0.437800	-0.512078
0.437900	-0.501692
0.438000	-0.509806
0.438100	-0.504938
0.438200	-0.531229
0.438300	-0.553300
0.438400	-0.598742
0.438500	-0.633147
0.438600	-0.679563
0.438700	-0.681835
0.438800	-0.687677
0.438900	-0.695792
0.439000	-0.808422
0.439100	-0.909042
0.439200	-0.933061
0.439300	-0.894436
0.439400	-0.807448
0.439500	-0.820107
0.439600	-0.914560
0.439700	-1.044393
0.439800	-1.099572
0.439900	-1.075877
0.440000	-0.990837
0.440100	-0.952861
0.440200	-1.012259
0.440300	-1.098923
0.440400	-1.138846
0.440500	-1.156698
0.440600	-1.139820
0.440700	-1.158646
0.440800	-1.193051
0.440900	-1.240765
0.441000	-1.270627
0.441100	-1.281662
0.441200	-1.299839
0.441300	-1.314445
0.441400	-1.329051
0.441500	-1.325156
0.441600	-1.311524
0.441700	-1.311524
0.441800	-1.348202
0.441900	-1.398512
0.442000	-1.423830
0.442100	-1.419285
0.442200	-1.383906
0.442300	-1.380985
0.442400	-1.381634
0.442500	-1.375791
0.442600	-1.363782
0.442700	-1.359238
0.442800	-1.345605
0.442900	-1.341710
0.443000	-1.329051
0.443100	-1.330999
0.443200	-1.324832
0.443300	-1.328727
0.443400	-1.330999
0.443500	-1.335219
0.443600	-1.339114
0.443700	-1.339114
0.443800	-1.363133
0.443900	-1.380985
0.444000	-1.414417
0.444100	-1.485500
0.444200	-1.647142
0.444300	-1.778923
0.444400	-1.774703
0.444500	-1.687391
0.444600	-1.611763
0.444700	-1.660775
0.444800	-1.812355
0.444900	-1.961663
0.445000	-2.021711
0.445100	-1.973673
0.445200	-1.918818
0.445300	-1.919467
0.445400	-2.002560
0.445500	-2.096365
0.445600	-2.154465
0.445700	-2.170370
0.445800	-2.154465
0.445900	-2.155764
0.446000	-2.177511
0.446100	-2.210294
0.446200	-2.237883
0.446300	-2.249893
0.446400	-2.267420
0.446500	-2.285272
0.446600	-2.320003
0.446700	-2.334609
0.446800	-2.345969
0.446900	-2.355058
0.447000	-2.373559
0.447100	-2.406991
0.447200	-2.416404
0.447300	-2.365120
0.447400	-2.299229
0.447500	-2.307019
0.447600	-2.390762
0.447700	-2.503717
0.447800	-2.557273
0.447900	-2.503717
0.448000	-2.414781
0.448100	-2.366094
0.448200	-2.419974
0.448300	-2.527736
0.448400	-2.612777
0.448500	-2.617321
0.448600	-2.555001
0.448700	-2.505340
0.448800	-2.493006
0.448900	-2.508910
0.449000	-2.535851
0.449100	-2.532280
0.449200	-2.512805
0.449300	-2.480347
0.449400	-2.445292
0.449500	-2.389788
0.449600	-2.313186
0.449700	-2.239181
0.449800	-2.188871
0.449900	-2.149272
0.450000	-2.104479
0.450100	-2.043782
0.450200	-1.946408
0.450300	-1.871429
0.450400	-1.763343
0.450500	-1.693233
0.450600	-1.622799
0.450700	-1.549768
0.450800	-1.473815
0.450900	-1.387801
0.451000	-1.294321
0.451100	-1.219667
0.451200	-1.169032
0.451300	-1.123915
0.451400	-1.098598
0.451500	-1.076526
0.451600	-1.046990
0.451700	-1.025243
0.451800	-0.985643
0.451900	-0.962923
0.452000	-0.941500
0.452100	-0.933061
0.452200	-0.939877
0.452300	-0.935333
0.452400	-0.916832
0.452500	-0.773367
0.452600	-0.659763
0.452700	-0.594847
0.452800	-0.730847
0.452900	-0.839582
0.453000	-0.848670
0.453100	-0.746102
0.453200	-0.613673
0.453300	-0.567257
0.453400	-0.604909
0.453500	-0.672097
0.453600	-0.712670
0.453700	-0.671124
0.453800	-0.608155
0.453900	-0.544212
0.454000	-0.539992
0.454100	-0.534475
0.454200	-0.549730
0.454300	-0.555572
0.454400	-0.550379
0.454500	-0.543238
0.454600	-0.537396
0.454700	-0.533501
0.454800	-0.516623
0.454900	-0.545186
0.455000	-0.577644
0.455100	-0.623735
0.455200	-0.654570
0.455300	-0.676317
0.455400	-0.676641
0.455500	-0.672746
0.455600	-0.721109
0.455700	-0.831142
0.455800	-0.907095
0.455900	-0.916183
0.456000	-0.859056
0.456100	-0.806799
0.456200	-0.849644
0.456300	-0.952861
0.456400	-1.048288
0.456500	-1.073281
0.456600	-1.021672
0.456700	-0.962923
0.456800	-0.968441
0.456900	-1.044068
0.457000	-1.101844
0.457100	-1.127810
0.457200	-1.132030
0.457300	-1.129758
0.457400	-1.159295
0.457500	-1.195324
0.457600	-1.234923
0.457700	-1.267056
0.457800	-1.277118
0.457900	-1.297892
0.458000	-1.311199
0.458100	-1.311199
0.458200	-1.302760
0.458300	-1.269653
0.458400	-1.252125
0.458500	-1.299839
0.458600	-1.340736
0.458700	-1.358913
0.458800	-1.373519
0.458900	-1.375791
0.459000	-1.383257
0.459100	-1.383581
0.459200	-1.382283
0.459300	-1.375467
0.459400	-1.375791
0.459500	-1.379686
0.459600	-1.376440
0.459700	-1.370273
0.459800	-1.372221
0.459900	-1.375791
0.460000	-1.387801
0.460100	-1.389748
0.460200	-1.403381
0.460300	-1.405328
0.460400	-1.415715
0.460500	-1.428374
0.460600	-1.458235
0.460700	-1.490044
0.460800	-1.591963
0.460900	-1.753930
0.461000	-1.849033
0.461100	-1.816574
0.461200	-1.718550
0.461300	-1.677004
0.461400	-1.770808
0.461500	-1.938293
0.461600	-2.066503
0.461700	-2.079162
0.461800	-2.021386
0.461900	-1.983085
0.462000	-2.017816
0.462100	-2.104804
0.462200	-2.182704
0.462300	-2.218733
0.462400	-2.221329
0.462500	-2.224251
0.462600	-2.240155
0.462700	-2.271640
0.462800	-2.291764
0.462900	-2.308318
0.463000	-2.310265
0.463100	-2.324547
0.463200	-2.354084
0.463300	-2.384919
0.463400	-2.383621
0.463500	-2.378752
0.463600	-2.383296
0.463700	-2.415106
0.463800	-2.437177
0.463900	-2.433931
0.464000	-2.358304
0.464100	-2.298580
0.464200	-2.329740
0.464300	-2.418027
0.464400	-2.521569
0.464500	-2.529684
0.464600	-2.453731
0.464700	-2.372910
0.464800	-2.363172
0.464900	-2.436528
0.465000	-2.540719
0.465100	-2.587459
0.465200	-2.559221
0.465300	-2.498199
0.465400	-2.469311
0.465500	-2.470285
0.465600	-2.491707
0.465700	-2.496901
0.465800	-2.474180
0.465900	-2.449187
0.466000	-2.411211
0.466100	-2.376156
0.466200	-2.316757
0.466300	-2.238208
0.466400	-2.170694
0.466500	-2.119086
0.466600	-2.070723
0.466700	-2.025930
0.466800	-1.932451
0.466900	-1.837672
0.467000	-1.733481
0.467100	-1.632536
0.467200	-1.556259
0.467300	-1.484526
0.467400	-1.412145
0.467500	-1.330025
0.467600	-1.247906
0.467700	-1.164488
0.467800	-1.109309
0.467900	-1.072956
0.468000	-1.043744
0.468100	-1.013882
0.468200	-1.009338
0.468300	-0.979476
0.468400	-0.967467
0.468500	-0.930140
0.468600	-0.927543
0.468700	-0.907744
0.468800	-0.912288
0.468900	-0.918455
0.469000	-0.902550
0.469100	-0.839582
0.469200	-0.696441
0.469300	-0.582513
0.469400	-0.595171
0.469500	-0.733768
0.469600	-0.836336
0.469700	-0.785701
0.469800	-0.662360
0.469900	-0.552651
0.470000	-0.534799
0.470100	-0.598093
0.470200	-0.676641
0.470300	-0.686379
0.470400	-0.619190
0.470500	-0.541615
0.470600	-0.500393
0.470700	-0.508833
0.470800	-0.523114
0.470900	-0.540317
0.471000	-0.530255
0.471100	-0.506561
0.471200	-0.497472
0.471300	-0.495200
0.471400	-0.501043
0.471500	-0.517596
0.471600	-0.540966
0.471700	-0.574398
0.471800	-0.618541
0.471900	-0.655868
0.472000	-0.673071
0.472100	-0.670474
0.472200	-0.664632
0.472300	-0.735066
0.472400	-0.855486
0.472500	-0.911314
0.472600	-0.890866
0.472700	-0.823352
0.472800	-0.799009
0.472900	-0.873338
0.473000	-0.994732
0.473100	-1.083992
0.473200	-1.088861
0.473300	-1.017453
0.473400	-0.972336
0.473500	-1.011285
0.473600	-1.094379
0.473700	-1.162216
0.473800	-1.176498
0.473900	-1.178770
0.474000	-1.184288
0.474100	-1.218044
0.474200	-1.259915
0.474300	-1.290426
0.474400	-1.306980
0.474500	-1.331324
0.474600	-1.350149
0.474700	-1.367677
0.474800	-1.363782
0.474900	-1.354369
0.475000	-1.350149
0.475100	-1.382932
0.475200	-1.442655
0.475300	-1.485176
0.475400	-1.494264
0.475500	-1.491343
0.475600	-1.487772
0.475700	-1.491018
0.475800	-1.478359
0.475900	-1.477710
0.476000	-1.468622
0.476100	-1.463104
0.476200	-1.451744
0.476300	-1.443954
0.476400	-1.432593
0.476500	-1.419610
0.476600	-1.418961
0.476700	-1.414092
0.476800	-1.411171
0.476900	-1.409548
0.477000	-1.409872
0.477100	-1.417338
0.477200	-1.429672
0.477300	-1.447849
0.477400	-1.494264
0.477500	-1.621176
0.477600	-1.771133
0.477700	-1.821768
0.477800	-1.756202
0.477900	-1.651362
0.478000	-1.655906
0.478100	-1.777949
0.478200	-1.939591
0.478300	-2.032747
0.478400	-2.013921
0.478500	-1.953873
0.478600	-1.937319
0.478700	-2.004183
0.478800	-2.101558
0.478900	-2.181406
0.479000	-2.209969
0.479100	-2.206074
0.479200	-2.204127
0.479300	-2.216785
0.479400	-2.248919
0.479500	-2.281053
0.479600	-2.298580
0.479700	-2.308318
0.479800	-2.319678
0.479900	-2.349215
0.480000	-2.364146
0.480100	-2.371611
0.480200	-2.370313
0.480300	-2.387516
0.480400	-2.401473
0.480500	-2.412834
0.480600	-2.361549
0.480700	-2.283649
0.480800	-2.260279
0.480900	-2.306046
0.481000	-2.402447
0.481100	-2.480672
0.481200	-2.449187
0.481300	-2.352461
0.481400	-2.282026
0.481500	-2.299879
0.481600	-2.398227
0.481700	-2.510533
0.481800	-2.543641
0.481900	-2.496576
0.482000	-2.431659
0.482100	-2.397578
0.482200	-2.402447
0.482300	-2.422896
0.482400	-2.428738
0.482500	-2.416404
0.482600	-2.384270
0.482700	-2.349864
0.482800	-2.304098
0.482900	-2.243726
0.483000	-2.177511
0.483100	-2.119410
0.483200	-2.072346
0.483300	-2.030150
0.483400	-1.983735
0.483500	-1.887333
0.483600	-1.801968
0.483700	-1.685768
0.483800	-1.600402
0.483900	-1.536135
0.484000	-1.477386
0.484100	-1.409548
0.484200	-1.338464
0.484300	-1.244660
0.484400	-1.170980
0.484500	-1.117099
0.484600	-1.079448
0.484700	-1.054455
0.484800	-1.034980
0.484900	-1.022646
0.485000	-0.996679
0.485100	-0.978503
0.485200	-0.953834
0.485300	-0.947018
0.485400	-0.942474
0.485500	-0.948966
0.485600	-0.951562
0.485700	-0.944422
0.485800	-0.859056
0.485900	-0.705529
0.486000	-0.624384
0.486100	-0.680861
0.486200	-0.830493
0.486300	-0.894111
0.486400	-0.824651
0.486500	-0.698713
0.486600	-0.591926
0.486700	-0.609778
0.486800	-0.678264
0.486900	-0.741558
0.487000	-0.727925
0.487100	-0.645157
0.487200	-0.570179
0.487300	-0.531878
0.487400	-0.537071
0.487500	-0.549730
0.487600	-0.556222
0.487700	-0.550054
0.487800	-0.535448
0.487900	-0.523763
0.488000	-0.512728
0.488100	-0.504938
0.488200	-0.514026
0.488300	-0.558169
0.488400	-0.593548
0.488500	-0.643209
0.488600	-0.674369
0.488700	-0.687028
0.488800	-0.683133
0.488900	-0.705854
0.489000	-0.804527
0.489100	-0.905796
0.489200	-0.931114
0.489300	-0.899629
0.489400	-0.828221
0.489500	-0.840555
0.489600	-0.933386
0.489700	-1.051858
0.489800	-1.107686
0.489900	-1.081395
0.490000	-1.010312
0.490100	-0.991486
0.490200	-1.048937
0.490300	-1.131705
0.490400	-1.175199
0.490500	-1.190455
0.490600	-1.181691
0.490700	-1.194025
0.490800	-1.222264
0.490900	-1.261863
0.491000	-1.302760
0.491100	-1.332622
0.491200	-1.354369
0.491300	-1.376440
0.491400	-1.383257
0.491500	-1.363133
0.491600	-1.347553
0.491700	-1.342359
0.491800	-1.382283
0.491900	-1.440708
0.492000	-1.466350
0.492100	-1.435514
0.492200	-1.405004
0.492300	-1.410197
0.492400	-1.421233
0.492500	-1.420908
0.492600	-1.418312
0.492700	-1.416040
0.492800	-1.415066
0.492900	-1.412145
0.493000	-1.413118
0.493100	-1.416364
0.493200	-1.417338
0.493300	-1.422207
0.493400	-1.425777
0.493500	-1.434216
0.493600	-1.443304
0.493700	-1.456288
0.493800	-1.466350
0.493900	-1.482579
0.494000	-1.504651
0.494100	-1.578655
0.494200	-1.721796
0.494300	-1.859095
0.494400	-1.857796
0.494500	-1.773730
0.494600	-1.694531
0.494700	-1.740947
0.494800	-1.888956
0.494900	-2.040212
0.495000	-2.099935
0.495100	-2.064556
0.495200	-2.015544
0.495300	-2.010026
0.495400	-2.087277
0.495500	-2.178809
0.495600	-2.248270
0.495700	-2.262551
0.495800	-2.250217
0.495900	-2.246647
0.496000	-2.260604
0.496100	-2.293711
0.496200	-2.318704
0.496300	-2.331039
0.496400	-2.338179
0.496500	-2.367716
0.496600	-2.401149
0.496700	-2.419001
0.496800	-2.429387
0.496900	-2.427440
0.497000	-2.452757
0.497100	-2.478075
0.497200	-2.488462
0.497300	-2.429387
0.497400	-2.357330
0.497500	-2.353110
0.497600	-2.419974
0.497700	-2.522218
0.497800	-2.575774
0.497900	-2.529359
0.498000	-2.433282
0.498100	-2.383296
0.498200	-2.419650
0.498300	-2.527412
0.498400	-2.610830
0.498500	-2.615374
0.498600	-2.562142
0.498700	-2.507937
0.498800	-2.484242
0.498900	-2.501120
0.499000	-2.505989
0.499100	-2.503717
0.499200	-2.486514
0.499300	-2.455679
0.499400	-2.422896
0.499500	-2.376156
0.499600	-2.299879
0.499700	-2.225224
0.499800	-2.173616
0.499900	-2.131744
0.500000	-2.097339
0.500100	-2.034694
0.500200	-1.944135
0.500300	-1.872078
0.500400	-1.761720
0.500500	-1.689013
0.500600	-1.626369
0.500700	-1.561777
0.500800	-1.488097
0.500900	-1.405653
0.501000	-1.309577
0.501100	-1.234923
0.501200	-1.179744
0.501300	-1.153128
0.501400	-1.117748
0.501500	-1.097624
0.501600	-1.071333
0.501700	-1.052507
0.501800	-1.017777
0.501900	-1.002522
0.502000	-0.973959
0.502100	-0.976555
0.502200	-0.971037
0.502300	-0.972011
0.502400	-0.941500
0.502500	-0.824326
0.502600	-0.666255
0.502700	-0.617892
0.502800	-0.712670
0.502900	-0.849319
0.503000	-0.861329
0.503100	-0.768823
0.503200	-0.639315
0.503300	-0.574074
0.503400	-0.610427
0.503500	-0.692546
0.503600	-0.743181
0.503700	-0.704231
0.503800	-0.628603
0.503900	-0.571801
0.504000	-0.548756
0.504100	-0.568556
0.504200	-0.584136
0.504300	-0.595821
0.504400	-0.597768
0.504500	-0.582513
0.504600	-0.582837
0.504700	-0.585434
0.504800	-0.584460
0.504900	-0.600365
0.505000	-0.643209
0.505100	-0.673071
0.505200	-0.718512
0.505300	-0.736689
0.505400	-0.742532
0.505500	-0.738312
0.505600	-0.768498
0.505700	-0.873338
0.505800	-0.947343
0.505900	-0.972985
0.506000	-0.924947
0.506100	-0.872040
0.506200	-0.891190
0.506300	-0.991811
0.506400	-1.101195
0.506500	-1.141118
0.506600	-1.098598
0.506700	-1.035629
0.506800	-1.025567
0.506900	-1.093405
0.507000	-1.159620
0.507100	-1.196297
0.507200	-1.211877
0.507300	-1.207982
0.507400	-1.231352
0.507500	-1.260240
0.507600	-1.301137
0.507700	-1.342359
0.507800	-1.365729
0.507900	-1.389099
0.508000	-1.400784
0.508100	-1.395591
0.508200	-1.380660
0.508300	-1.364756
0.508400	-1.358913
0.508500	-1.405653
0.508600	-1.449147
0.508700	-1.462779
0.508800	-1.418961
0.508900	-1.399486
0.509000	-1.409223
0.509100	-1.409872
0.509200	-1.408899
0.509300	-1.408250
0.509400	-1.409872
0.509500	-1.400784
0.509600	-1.392670
0.509700	-1.378713
0.509800	-1.374493
0.509900	-1.371572
0.510000	-1.374493
0.510100	-1.380985
0.510200	-1.376765
0.510300	-1.379037
0.510400	-1.382608
0.510500	-1.397538
0.510600	-1.420584
0.510700	-1.446550
0.510800	-1.532240
0.510900	-1.680574
0.511000	-1.785739
0.511100	-1.760746
0.511200	-1.661099
0.511300	-1.604622
0.511400	-1.677328
0.511500	-1.845138
0.511600	-1.973997
0.511700	-2.006131
0.511800	-1.960689
0.511900	-1.915572
0.512000	-1.944135
0.512100	-2.026904
0.512200	-2.125253
0.512300	-2.171019
0.512400	-2.191468
0.512500	-2.189845
0.512600	-2.198609
0.512700	-2.224900
0.512800	-2.246971
0.512900	-2.273263
0.513000	-2.287220
0.513100	-2.308642
0.513200	-2.336556
0.513300	-2.365120
0.513400	-2.369015
0.513500	-2.364795
0.513600	-2.375831
0.513700	-2.406342
0.513800	-2.434581
0.513900	-2.420299
0.514000	-2.354409
0.514100	-2.293711
0.514200	-2.310265
0.514300	-2.390113
0.514400	-2.490409
0.514500	-2.506638
0.514600	-2.431010
0.514700	-2.353435
0.514800	-2.333635
0.514900	-2.391086
0.515000	-2.489111
0.515100	-2.545588
0.515200	-2.528385
0.515300	-2.478399
0.515400	-2.440748
0.515500	-2.424843
0.515600	-2.431984
0.515700	-2.432309
0.515800	-2.428414
0.515900	-2.414781
0.516000	-2.392060
0.516100	-2.358304
0.516200	-2.302151
0.516300	-2.231391
0.516400	-2.171668
0.516500	-2.125253
0.516600	-2.085329
0.516700	-2.043782
0.516800	-1.970102
0.516900	-1.879868
0.517000	-1.764641
0.517100	-1.666942
0.517200	-1.601376
0.517300	-1.539705
0.517400	-1.475763
0.517500	-1.399810
0.517600	-1.325156
0.517700	-1.241739
0.517800	-1.179094
0.517900	-1.134951
0.518000	-1.094703
0.518100	-1.076202
0.518200	-1.060622
0.518300	-1.052507
0.518400	-1.037577
0.518500	-1.017777
0.518600	-0.995706
0.518700	-0.970388
0.518800	-0.979476
0.518900	-0.978827
0.519000	-0.987591
0.519100	-0.930789
0.519200	-0.795763
0.519300	-0.662035
0.519400	-0.645806
0.519500	-0.779534
0.519600	-0.878856
0.519700	-0.867820
0.519800	-0.731171
0.519900	-0.613997
0.520000	-0.588031
0.520100	-0.639964
0.520200	-0.722732
0.520300	-0.723057
0.520400	-0.680861
0.520500	-0.599066
0.520600	-0.562389
0.520700	-0.560766
0.520800	-0.559143
0.520900	-0.563687
0.521000	-0.560441
0.521100	-0.555248
0.521200	-0.561739
0.521300	-0.564012
0.521400	-0.564012
0.521500	-0.556871
0.521600	-0.579916
0.521700	-0.617568
0.521800	-0.671124
0.521900	-0.711047
0.522000	-0.736365
0.522100	-0.723706
0.522200	-0.725978
0.522300	-0.784078
0.522400	-0.898980
0.522500	-0.963247
0.522600	-0.956756
0.522700	-0.887295
0.522800	-0.859381
0.522900	-0.917481
0.523000	-1.029462
0.523100	-1.110283
0.523200	-1.107362
0.523300	-1.047639
0.523400	-1.000574
0.523500	-1.032059
0.523600	-1.107362
0.523700	-1.162216
0.523800	-1.169357
0.523900	-1.168708
0.524000	-1.178445
0.524100	-1.217071
0.524200	-1.266083
0.524300	-1.285557
0.524400	-1.289452
0.524500	-1.290102
0.524600	-1.318665
0.524700	-1.342684
0.524800	-1.351772
0.524900	-1.338140
0.525000	-1.320937
0.525100	-1.338140
0.525200	-1.395266
0.525300	-1.432269
0.525400	-1.448822
0.525500	-1.442331
0.525600	-1.429347
0.525700	-1.435190
0.525800	-1.434216
0.525900	-1.428374
0.526000	-1.419285
0.526100	-1.419610
0.526200	-1.414417
0.526300	-1.405328
0.526400	-1.410522
0.526500	-1.414417
0.526600	-1.408250
0.526700	-1.413767
0.526800	-1.412145
0.526900	-1.410846
0.527000	-1.415390
0.527100	-1.423830
0.527200	-1.440383
0.527300	-1.460507
0.527400	-1.496861
0.527500	-1.611114
0.527600	-1.768536
0.527700	-1.826961
0.527800	-1.776002
0.527900	-1.665968
0.528000	-1.645844
0.528100	-1.757825
0.528200	-1.923362
0.528300	-2.031448
0.528400	-2.035343
0.528500	-1.977243
0.528600	-1.945109
0.528700	-1.991525
0.528800	-2.094417
0.528900	-2.177186
0.529000	-2.208346
0.529100	-2.206723
0.529200	-2.204451
0.529300	-2.223601
0.529400	-2.258332
0.529500	-2.296957
0.529600	-2.315783
0.529700	-2.314809
0.529800	-2.328442
0.529900	-2.370962
0.530000	-2.393359
0.530100	-2.402771
0.530200	-2.395631
0.530300	-2.415430
0.530400	-2.446915
0.530500	-2.475154
0.530600	-2.456003
0.530700	-2.373884
0.530800	-2.341101
0.530900	-2.373559
0.531000	-2.473855
0.531100	-2.575125
0.531200	-2.574152
0.531300	-2.489435
0.531400	-2.416079
0.531500	-2.423869
0.531600	-2.514428
0.531700	-2.620242
0.531800	-2.659517
0.531900	-2.618620
0.532000	-2.557273
0.532100	-2.533254
0.532200	-2.542667
0.532300	-2.567984
0.532400	-2.568634
0.532500	-2.551431
0.532600	-2.530657
0.532700	-2.503717
0.532800	-2.471259
0.532900	-2.420948
0.533000	-2.348891
0.533100	-2.277158
0.533200	-2.235286
0.533300	-2.201205
0.533400	-2.152842
0.533500	-2.061959
0.533600	-1.970427
0.533700	-1.844489
0.533800	-1.751658
0.533900	-1.685768
0.534000	-1.627667
0.534100	-1.557233
0.534200	-1.475114
0.534300	-1.392994
0.534400	-1.315094
0.534500	-1.258942
0.534600	-1.219992
0.534700	-1.193051
0.534800	-1.158970
0.534900	-1.146312
0.535000	-1.115476
0.535100	-1.096001
0.535200	-1.068412
0.535300	-1.043095
0.535400	-1.037252
0.535500	-1.031085
0.535600	-1.043744
0.535700	-1.024593
0.535800	-0.945071
0.535900	-0.799333
0.536000	-0.689949
0.536100	-0.742207
0.536200	-0.868145
0.536300	-0.958054
0.536400	-0.884374
0.536500	-0.767849
0.536600	-0.655219
0.536700	-0.654570
0.536800	-0.733768
0.536900	-0.796088
0.537000	-0.809071
0.537100	-0.727601
0.537200	-0.658465
0.537300	-0.605883
0.537400	-0.608479
0.537500	-0.632498
0.537600	-0.649052
0.537700	-0.648727
0.537800	-0.626007
0.537900	-0.609128
0.538000	-0.603286
0.538100	-0.601663
0.538200	-0.609778
0.538300	-0.626980
0.538400	-0.662684
0.538500	-0.680536
0.538600	-0.724680
0.538700	-0.726627
0.538800	-0.723706
0.538900	-0.722732
0.539000	-0.799658
0.539100	-0.900603
0.539200	-0.937930
0.539300	-0.918130
0.539400	-0.831792
0.539500	-0.817835
0.539600	-0.884374
0.539700	-0.997653
0.539800	-1.066464
0.539900	-1.058674
0.540000	-0.982722
0.540100	-0.941825
0.540200	-0.971362
0.540300	-1.046665
0.540400	-1.102168
0.540500	-1.127810
0.540600	-1.131056
0.540700	-1.134951
0.540800	-1.163839
0.540900	-1.200192
0.541000	-1.233949
0.541100	-1.253099
0.541200	-1.263486
0.541300	-1.282312
0.541400	-1.291075
0.541500	-1.285233
0.541600	-1.273548
0.541700	-1.261538
0.541800	-1.288803
0.541900	-1.345281
0.542000	-1.374818
0.542100	-1.375791
0.542200	-1.364431
0.542300	-1.355343
0.542400	-1.362159
0.542500	-1.358264
0.542600	-1.354693
0.542700	-1.346254
0.542800	-1.336841
0.542900	-1.324183
0.543000	-1.316068
0.543100	-1.312173
0.543200	-1.311849
0.543300	-1.305032
0.543400	-1.304383
0.543500	-1.310226
0.543600	-1.314445
0.543700	-1.319314
0.543800	-1.336192
0.543900	-1.354693
0.544000	-1.385204
0.544100	-1.449147
0.544200	-1.587419
0.544300	-1.738350
0.544400	-1.767238
0.544500	-1.698751
0.544600	-1.609491
0.544700	-1.628316
0.544800	-1.769185
0.544900	-1.928231
0.545000	-2.009701
0.545100	-1.993148
0.545200	-1.932126
0.545300	-1.922713
0.545400	-1.983735
0.545500	-2.085978
0.545600	-2.159334
0.545700	-2.186924
0.545800	-2.184002
0.545900	-2.188222
0.546000	-2.200881
0.546100	-2.227496
0.546200	-2.253788
0.546300	-2.271315
0.546400	-2.293062
0.546500	-2.313836
0.546600	-2.344346
0.546700	-2.359926
0.546800	-2.356031
0.546900	-2.359277
0.547000	-2.378103
0.547100	-2.410886
0.547200	-2.419325
0.547300	-2.377779
0.547400	-2.287220
0.547500	-2.276509
0.547600	-2.340776
0.547700	-2.451134
0.547800	-2.515077
0.547900	-2.479049
0.548000	-2.377129
0.548100	-2.320327
0.548200	-2.345320
0.548300	-2.446915
0.548400	-2.537798
0.548500	-2.550457
0.548600	-2.508261
0.548700	-2.452757
0.548800	-2.428089
0.548900	-2.436528
0.549000	-2.452757
0.549100	-2.455029
0.549200	-2.446590
0.549300	-2.431335
0.549400	-2.404070
0.549500	-2.360576
0.549600	-2.301826
0.549700	-2.230093
0.549800	-2.175239
0.549900	-2.132718
0.550000	-2.098637
0.550100	-2.043133
0.550200	-1.941539
0.550300	-1.847410
0.550400	-1.734455
0.550500	-1.665643
0.550600	-1.604297
0.550700	-1.544250
0.550800	-1.476087
0.550900	-1.403056
0.551000	-1.322560
0.551100	-1.249204
0.551200	-1.192727
0.551300	-1.151180
0.551400	-1.126188
0.551500	-1.099247
0.551600	-1.094703
0.551700	-1.061920
0.551800	-1.040498
0.551900	-1.014531
0.552000	-0.995381
0.552100	-0.980126
0.552200	-0.987916
0.552300	-0.988889
0.552400	-0.959028
0.552500	-0.873987
0.552600	-0.703257
0.552700	-0.648078
0.552800	-0.730522
0.552900	-0.875286
0.553000	-0.912288
0.553100	-0.823352
0.553200	-0.694493
0.553300	-0.625033
0.553400	-0.658789
0.553500	-0.750971
0.553600	-0.802904
0.553700	-0.772393
0.553800	-0.691572
0.553900	-0.635420
0.554000	-0.617892
0.554100	-0.633472
0.554200	-0.625033
0.554300	-0.627630
0.554400	-0.612050
0.554500	-0.599391
0.554600	-0.591601
0.554700	-0.597768
0.554800	-0.589978
0.554900	-0.601338
0.555000	-0.630226
0.555100	-0.675992
0.555200	-0.725004
0.555300	-0.771744
0.555400	-0.772393
0.555500	-0.769472
0.555600	-0.787324
0.555700	-0.890866
0.555800	-0.984345
0.555900	-1.008040
0.556000	-0.954159
0.556100	-0.885023
0.556200	-0.899954
0.556300	-1.002197
0.556400	-1.117748
0.556500	-1.158646
0.556600	-1.104765
0.556700	-1.020049
0.556800	-0.996679
0.556900	-1.059973
0.557000	-1.133653
0.557100	-1.162865
0.557200	-1.162216
0.557300	-1.150856
0.557400	-1.159295
0.557500	-1.185586
0.557600	-1.222588
0.557700	-1.241739
0.557800	-1.250178
0.557900	-1.271276
0.558000	-1.288154
0.558100	-1.292374
0.558200	-1.282636
0.558300	-1.269004
0.558400	-1.268679
0.558500	-1.313796
0.558600	-1.361510
0.558700	-1.376765
0.558800	-1.375791
0.558900	-1.352421
0.559000	-1.360536
0.559100	-1.363782
0.559200	-1.358913
0.559300	-1.351772
0.559400	-1.353395
0.559500	-1.347228
0.559600	-1.348202
0.559700	-1.349825
0.559800	-1.350149
0.559900	-1.353720
0.560000	-1.353720
0.560100	-1.359238
0.560200	-1.369949
0.560300	-1.382932
0.560400	-1.392994
0.560500	-1.409223
0.560600	-1.438111
0.560700	-1.468622
0.560800	-1.553338
0.560900	-1.714331
0.561000	-1.847085
0.561100	-1.840594
0.561200	-1.743219
0.561300	-1.689338
0.561400	-1.759448
0.561500	-1.929205
0.561600	-2.066828
0.561700	-2.116164
0.561800	-2.075267
0.561900	-2.026580
0.562000	-2.037940
0.562100	-2.119086
0.562200	-2.218408
0.562300	-2.283000
0.562400	-2.289816
0.562500	-2.292413
0.562600	-2.300852
0.562700	-2.323573
0.562800	-2.355382
0.562900	-2.380051
0.563000	-2.396280
0.563100	-2.413483
0.563200	-2.437177
0.563300	-2.473206
0.563400	-2.483268
0.563500	-2.484891
0.563600	-2.488786
0.563700	-2.504691
0.563800	-2.520271
0.563900	-2.518648
0.564000	-2.444318
0.564100	-2.367067
0.564200	-2.374208
0.564300	-2.445941
0.564400	-2.550132
0.564500	-2.583889
0.564600	-2.518972
0.564700	-2.415430
0.564800	-2.364471
0.564900	-2.413807
0.565000	-2.525464
0.565100	-2.600767
0.565200	-2.590381
0.565300	-2.531307
0.565400	-2.470609
0.565500	-2.456003
0.565600	-2.467039
0.565700	-2.488137
0.565800	-2.491707
0.565900	-2.472232
0.566000	-2.436528
0.566100	-2.395631
0.566200	-2.343048
0.566300	-2.280079
0.566400	-2.213864
0.566500	-2.160957
0.566600	-2.121033
0.566700	-2.084355
0.566800	-2.019763
0.566900	-1.919143
0.567000	-1.807486
0.567100	-1.709138
0.567200	-1.647467
0.567300	-1.589042
0.567400	-1.526073
0.567500	-1.454665
0.567600	-1.378713
0.567700	-1.289128
0.567800	-1.219667
0.567900	-1.161567
0.568000	-1.128460
0.568100	-1.104441
0.568200	-1.080746
0.568300	-1.071658
0.568400	-1.043744
0.568500	-1.024918
0.568600	-0.994732
0.568700	-0.995706
0.568800	-0.986293
0.568900	-0.991486
0.569000	-0.990512
0.569100	-0.950264
0.569200	-0.826274
0.569300	-0.696116
0.569400	-0.681510
0.569500	-0.802255
0.569600	-0.920727
0.569700	-0.922350
0.569800	-0.805500
0.569900	-0.689300
0.570000	-0.626980
0.570100	-0.688326
0.570200	-0.776937
0.570300	-0.804202
0.570400	-0.772069
0.570500	-0.686379
0.570600	-0.637367
0.570700	-0.612699
0.570800	-0.637367
0.570900	-0.645806
0.571000	-0.650675
0.571100	-0.641587
0.571200	-0.626656
0.571300	-0.617568
0.571400	-0.622112
0.571500	-0.626980
0.571600	-0.653272
0.571700	-0.695143
0.571800	-0.737014
0.571900	-0.774016
0.572000	-0.794465
0.572100	-0.786350
0.572200	-0.797386
0.572300	-0.834388
0.572400	-0.956431
0.572500	-1.002197
0.572600	-1.008364
0.572700	-0.929815
0.572800	-0.863925
0.572900	-0.893138
0.573000	-0.998951
0.573100	-1.098923
0.573200	-1.114503
0.573300	-1.045691
0.573400	-0.973634
0.573500	-0.970064
0.573600	-1.039849
0.573700	-1.096651
0.573800	-1.141118
0.573900	-1.152479
0.574000	-1.139495
0.574100	-1.153128
0.574200	-1.180068
0.574300	-1.212526
0.574400	-1.231677
0.574500	-1.248230
0.574600	-1.265433
0.574700	-1.276794
0.574800	-1.284908
0.574900	-1.266407
0.575000	-1.249204
0.575100	-1.262837
0.575200	-1.321911
0.575300	-1.364756
0.575400	-1.378388
0.575500	-1.368326
0.575600	-1.353071
0.575700	-1.360861
0.575800	-1.362159
0.575900	-1.352097
0.576000	-1.344956
0.576100	-1.340087
0.576200	-1.335868
0.576300	-1.330350
0.576400	-1.322560
0.576500	-1.321911
0.576600	-1.317691
0.576700	-1.311524
0.576800	-1.323858
0.576900	-1.331324
0.577000	-1.333596
0.577100	-1.345281
0.577200	-1.357939
0.577300	-1.384230
0.577400	-1.416364
0.577500	-1.518283
0.577600	-1.687066
0.577700	-1.762045
0.577800	-1.724718
0.577900	-1.607543
0.578000	-1.577032
0.578100	-1.681223
0.578200	-1.851954
0.578300	-1.981463
0.578400	-1.994770
0.578500	-1.937968
0.578600	-1.903238
0.578700	-1.936670
0.578800	-2.020088
0.578900	-2.107076
0.579000	-2.155439
0.579100	-2.163229
0.579200	-2.167124
0.579300	-2.178809
0.579400	-2.197959
0.579500	-2.216136
0.579600	-2.241454
0.579700	-2.256709
0.579800	-2.282676
0.579900	-2.317081
0.580000	-2.337530
0.580100	-2.339802
0.580200	-2.330389
0.580300	-2.350838
0.580400	-2.385244
0.580500	-2.412834
0.580600	-2.394332
0.580700	-2.307019
0.580800	-2.251191
0.580900	-2.287220
0.581000	-2.387516
0.581100	-2.489435
0.581200	-2.490734
0.581300	-2.399201
0.581400	-2.299229
0.581500	-2.281702
0.581600	-2.360251
0.581700	-2.468986
0.581800	-2.524166
0.581900	-2.494953
0.582000	-2.432633
0.582100	-2.386867
0.582200	-2.378752
0.582300	-2.404719
0.582400	-2.414781
0.582500	-2.397578
0.582600	-2.381674
0.582700	-2.353110
0.582800	-2.298256
0.582900	-2.219382
0.583000	-2.140833
0.583100	-2.071047
0.583200	-2.032747
0.583300	-2.007429
0.583400	-1.966532
0.583500	-1.879544
0.583600	-1.781844
0.583700	-1.708813
0.583800	-1.604297
0.583900	-1.534837
0.584000	-1.471868
0.584100	-1.400135
0.584200	-1.316393
0.584300	-1.231352
0.584400	-1.149233
0.584500	-1.085939
0.584600	-1.033357
0.584700	-1.004145
0.584800	-0.971686
0.584900	-0.962598
0.585000	-0.929166
0.585100	-0.916508
0.585200	-0.877882
0.585300	-0.867496
0.585400	-0.852240
0.585500	-0.847372
0.585600	-0.859381
0.585700	-0.839582
0.585800	-0.786675
0.585900	-0.612050
0.586000	-0.518245
0.586100	-0.521491
0.586200	-0.671773
0.586300	-0.772718
0.586400	-0.722083
0.586500	-0.605558
0.586600	-0.484164
0.586700	-0.465663
0.586800	-0.532852
0.586900	-0.609128
0.587000	-0.620164
0.587100	-0.550704
0.587200	-0.471830
0.587300	-0.425740
0.587400	-0.437749
0.587500	-0.441969
0.587600	-0.453329
0.587700	-0.453005
0.587800	-0.440995
0.587900	-0.438723
0.588000	-0.443916
0.588100	-0.450083
0.588200	-0.444890
0.588300	-0.476374
0.588400	-0.512728
0.588500	-0.566284
0.588600	-0.620813
0.588700	-0.629577
0.588800	-0.627305
0.588900	-0.612374
0.589000	-0.692871
0.589100	-0.803553
0.589200	-0.861004
0.589300	-0.830493
0.589400	-0.751295
0.589500	-0.705854
0.589600	-0.771744
0.589700	-0.899305
0.589800	-0.984670
0.589900	-0.977204
0.590000	-0.891190
0.590100	-0.841529
0.590200	-0.869768
0.590300	-0.958054
0.590400	-1.024918
0.590500	-1.053481
0.590600	-1.045042
0.590700	-1.039524
0.590800	-1.062569
0.590900	-1.106063
0.591000	-1.155725
0.591100	-1.177147
0.591200	-1.191753
0.591300	-1.207982
0.591400	-1.219343
0.591500	-1.218369
0.591600	-1.204412
0.591700	-1.190779
0.591800	-1.217395
0.591900	-1.276469
0.592000	-1.307954
0.592100	-1.316393
0.592200	-1.271600
0.592300	-1.265758
0.592400	-1.267381
0.592500	-1.265109
0.592600	-1.255371
0.592700	-1.243686
0.592800	-1.233624
0.592900	-1.220316
0.593000	-1.207982
0.593100	-1.205710
0.593200	-1.192078
0.593300	-1.196297
0.593400	-1.194674
0.593500	-1.195973
0.593600	-1.195648
0.593700	-1.205386
0.593800	-1.221615
0.593900	-1.240441
0.594000	-1.266407
0.594100	-1.314121
0.594200	-1.442655
0.594300	-1.605920
0.594400	-1.648765
0.594500	-1.587419
0.594600	-1.484851
0.594700	-1.489071
0.594800	-1.622149
0.594900	-1.792231
0.595000	-1.887658
0.595100	-1.869806
0.595200	-1.816250
0.595300	-1.787687
0.595400	-1.847085
0.595500	-1.944785
0.595600	-2.030150
0.595700	-2.067802
0.595800	-2.077539
0.595900	-2.083382
0.596000	-2.108699
0.596100	-2.142780
0.596200	-2.176862
0.596300	-2.210618
0.596400	-2.226198
0.596500	-2.253463
0.596600	-2.298580
0.596700	-2.322275
0.596800	-2.337530
0.596900	-2.347917
0.597000	-2.367392
0.597100	-2.404394
0.597200	-2.428738
0.597300	-2.402771
0.597400	-2.321626
