LabVIEW Measurement	
Writer_Version	2
Reader_Version	2
Separator	Tab
Decimal_Separator	.
Multi_Headings	Yes
X_Columns	One
Time_Pref	Relative
Operator	as989
Description	Time Domain Data
Date	1903/12/31
Time	19:00:00
***End_of_Header***	
	
Channels	1	
Samples	15000	
Date	1903/12/31	
Time	19:00:00	
X_Dimension	Time	
X0	0.0000000000000000E+0	
Delta_X	0.000100	
***End_of_Header***		
X_Value	Untitled	Comment
0.000000	-1.636756	Tare Values:0.000000, 0.000000, 0.000000, 0.000000\0D\0A
0.000100	-1.641300
0.000200	-1.641949
0.000300	-1.640001
0.000400	-1.652336
0.000500	-1.662722
0.000600	-1.688040
0.000700	-1.708813
0.000800	-1.788985
0.000900	-1.941539
0.001000	-2.067477
0.001100	-2.075267
0.001200	-2.006455
0.001300	-1.927906
0.001400	-1.971400
0.001500	-2.110322
0.001600	-2.263850
0.001700	-2.322924
0.001800	-2.287544
0.001900	-2.239831
0.002000	-2.240804
0.002100	-2.307669
0.002200	-2.401149
0.002300	-2.469636
0.002400	-2.500471
0.002500	-2.508910
0.002600	-2.503392
0.002700	-2.507937
0.002800	-2.530982
0.002900	-2.558572
0.003000	-2.568958
0.003100	-2.572853
0.003200	-2.607259
0.003300	-2.645560
0.003400	-2.644586
0.003500	-2.632901
0.003600	-2.636472
0.003700	-2.675746
0.003800	-2.709503
0.003900	-2.706582
0.004000	-2.626410
0.004100	-2.548834
0.004200	-2.555001
0.004300	-2.640042
0.004400	-2.756243
0.004500	-2.786429
0.004600	-2.753971
0.004700	-2.677369
0.004800	-2.627383
0.004900	-2.657245
0.005000	-2.740988
0.005100	-2.819537
0.005200	-2.850697
0.005300	-2.820511
0.005400	-2.761112
0.005500	-2.732548
0.005600	-2.740014
0.005700	-2.760463
0.005800	-2.764033
0.005900	-2.748778
0.006000	-2.717942
0.006100	-2.686458
0.006200	-2.639393
0.006300	-2.567011
0.006400	-2.493330
0.006500	-2.440099
0.006600	-2.406666
0.006700	-2.378103
0.006800	-2.313836
0.006900	-2.224251
0.007000	-2.160308
0.007100	-2.047677
0.007200	-1.978541
0.007300	-1.918493
0.007400	-1.859095
0.007500	-1.787687
0.007600	-1.714331
0.007700	-1.635782
0.007800	-1.567944
0.007900	-1.521853
0.008000	-1.492966
0.008100	-1.460507
0.008200	-1.443304
0.008300	-1.424479
0.008400	-1.408250
0.008500	-1.370273
0.008600	-1.362483
0.008700	-1.339438
0.008800	-1.333596
0.008900	-1.341710
0.009000	-1.322560
0.009100	-1.287505
0.009200	-1.158646
0.009300	-1.028488
0.009400	-0.963247
0.009500	-1.063219
0.009600	-1.177796
0.009700	-1.186560
0.009800	-1.086589
0.009900	-0.969090
0.010000	-0.890541
0.010100	-0.919104
0.010200	-0.977529
0.010300	-1.018102
0.010400	-0.980450
0.010500	-0.901577
0.010600	-0.823352
0.010700	-0.784403
0.010800	-0.792517
0.010900	-0.803553
0.011000	-0.818484
0.011100	-0.809071
0.011200	-0.782780
0.011300	-0.780183
0.011400	-0.780508
0.011500	-0.773367
0.011600	-0.771419
0.011700	-0.819782
0.011800	-0.868794
0.011900	-0.905796
0.012000	-0.914885
0.012100	-0.910990
0.012200	-0.913586
0.012300	-0.962274
0.012400	-1.084641
0.012500	-1.150531
0.012600	-1.169682
0.012700	-1.091457
0.012800	-1.060622
0.012900	-1.099247
0.013000	-1.193701
0.013100	-1.274197
0.013200	-1.313472
0.013300	-1.302436
0.013400	-1.279715
0.013500	-1.276469
0.013600	-1.306331
0.013700	-1.376440
0.013800	-1.423830
0.013900	-1.462130
0.014000	-1.463753
0.014100	-1.483877
0.014200	-1.510493
0.014300	-1.558856
0.014400	-1.601701
0.014500	-1.631562
0.014600	-1.660775
0.014700	-1.677328
0.014800	-1.671811
0.014900	-1.671161
0.015000	-1.672784
0.015100	-1.676030
0.015200	-1.722770
0.015300	-1.758799
0.015400	-1.773730
0.015500	-1.739973
0.015600	-1.719524
0.015700	-1.717577
0.015800	-1.721147
0.015900	-1.725691
0.016000	-1.714006
0.016100	-1.717252
0.016200	-1.717577
0.016300	-1.718875
0.016400	-1.716928
0.016500	-1.725367
0.016600	-1.723744
0.016700	-1.730885
0.016800	-1.738675
0.016900	-1.751982
0.017000	-1.763667
0.017100	-1.776326
0.017200	-1.796775
0.017300	-1.826312
0.017400	-1.866236
0.017500	-1.962637
0.017600	-2.107725
0.017700	-2.208671
0.017800	-2.204776
0.017900	-2.120059
0.018000	-2.083706
0.018100	-2.138561
0.018200	-2.292413
0.018300	-2.423869
0.018400	-2.477426
0.018500	-2.446915
0.018600	-2.411535
0.018700	-2.431010
0.018800	-2.504042
0.018900	-2.598820
0.019000	-2.659517
0.019100	-2.673799
0.019200	-2.668930
0.019300	-2.674123
0.019400	-2.705608
0.019500	-2.739040
0.019600	-2.745532
0.019700	-2.752673
0.019800	-2.777990
0.019900	-2.831871
0.020000	-2.849399
0.020100	-2.834792
0.020200	-2.819212
0.020300	-2.847451
0.020400	-2.884778
0.020500	-2.911070
0.020600	-2.876015
0.020700	-2.797141
0.020800	-2.740338
0.020900	-2.758840
0.021000	-2.855241
0.021100	-2.941580
0.021200	-2.933790
0.021300	-2.857838
0.021400	-2.798114
0.021500	-2.800062
0.021600	-2.852969
0.021700	-2.924378
0.021800	-2.959433
0.021900	-2.973390
0.022000	-2.945476
0.022100	-2.906201
0.022200	-2.870172
0.022300	-2.863680
0.022400	-2.871146
0.022500	-2.875365
0.022600	-2.870172
0.022700	-2.832196
0.022800	-2.785780
0.022900	-2.736119
0.023000	-2.667956
0.023100	-2.599794
0.023200	-2.544614
0.023300	-2.496576
0.023400	-2.461196
0.023500	-2.385569
0.023600	-2.289816
0.023700	-2.164527
0.023800	-2.052871
0.023900	-1.986331
0.024000	-1.922064
0.024100	-1.851954
0.024200	-1.767887
0.024300	-1.677328
0.024400	-1.590016
0.024500	-1.522503
0.024600	-1.473166
0.024700	-1.432269
0.024800	-1.406627
0.024900	-1.390398
0.025000	-1.386503
0.025100	-1.356641
0.025200	-1.345281
0.025300	-1.318989
0.025400	-1.324507
0.025500	-1.330350
0.025600	-1.355018
0.025700	-1.365405
0.025800	-1.309577
0.025900	-1.193701
0.026000	-1.083018
0.026100	-1.084641
0.026200	-1.222913
0.026300	-1.320288
0.026400	-1.339114
0.026500	-1.229405
0.026600	-1.157023
0.026700	-1.117424
0.026800	-1.174550
0.026900	-1.249529
0.027000	-1.279066
0.027100	-1.251801
0.027200	-1.176822
0.027300	-1.139171
0.027400	-1.118073
0.027500	-1.146312
0.027600	-1.162541
0.027700	-1.163839
0.027800	-1.138846
0.027900	-1.134951
0.028000	-1.149557
0.028100	-1.157672
0.028200	-1.142092
0.028300	-1.156049
0.028400	-1.215448
0.028500	-1.266083
0.028600	-1.296269
0.028700	-1.279066
0.028800	-1.266407
0.028900	-1.264784
0.029000	-1.329701
0.029100	-1.444603
0.029200	-1.482254
0.029300	-1.459534
0.029400	-1.357290
0.029500	-1.331324
0.029600	-1.393968
0.029700	-1.496536
0.029800	-1.541004
0.029900	-1.538732
0.030000	-1.491667
0.030100	-1.466025
0.030200	-1.464078
0.030300	-1.515037
0.030400	-1.568269
0.030500	-1.599104
0.030600	-1.604947
0.030700	-1.598779
0.030800	-1.608517
0.030900	-1.639028
0.031000	-1.672460
0.031100	-1.697128
0.031200	-1.715954
0.031300	-1.727963
0.031400	-1.734780
0.031500	-1.730560
0.031600	-1.721472
0.031700	-1.717901
0.031800	-1.733481
0.031900	-1.778598
0.032000	-1.812679
0.032100	-1.827935
0.032200	-1.838321
0.032300	-1.821119
0.032400	-1.828909
0.032500	-1.834102
0.032600	-1.837672
0.032700	-1.836049
0.032800	-1.830856
0.032900	-1.831505
0.033000	-1.827610
0.033100	-1.826312
0.033200	-1.828259
0.033300	-1.827935
0.033400	-1.834426
0.033500	-1.840918
0.033600	-1.836374
0.033700	-1.844813
0.033800	-1.849033
0.033900	-1.858770
0.034000	-1.883439
0.034100	-1.910703
0.034200	-2.026580
0.034300	-2.168098
0.034400	-2.227496
0.034500	-2.180757
0.034600	-2.077215
0.034700	-2.050274
0.034800	-2.139534
0.034900	-2.286895
0.035000	-2.387841
0.035100	-2.399201
0.035200	-2.343048
0.035300	-2.298905
0.035400	-2.334934
0.035500	-2.419325
0.035600	-2.517025
0.035700	-2.556299
0.035800	-2.549159
0.035900	-2.526113
0.036000	-2.532605
0.036100	-2.567335
0.036200	-2.607259
0.036300	-2.617970
0.036400	-2.610830
0.036500	-2.621216
0.036600	-2.661140
0.036700	-2.670553
0.036800	-2.665360
0.036900	-2.663412
0.037000	-2.699116
0.037100	-2.742935
0.037200	-2.758191
0.037300	-2.709503
0.037400	-2.616023
0.037500	-2.588433
0.037600	-2.628357
0.037700	-2.747479
0.037800	-2.814344
0.037900	-2.782859
0.038000	-2.698792
0.038100	-2.629655
0.038200	-2.637121
0.038300	-2.705283
0.038400	-2.787079
0.038500	-2.839012
0.038600	-2.817589
0.038700	-2.755269
0.038800	-2.696844
0.038900	-2.677369
0.039000	-2.695870
0.039100	-2.719565
0.039200	-2.715021
0.039300	-2.680615
0.039400	-2.625436
0.039500	-2.571230
0.039600	-2.512805
0.039700	-2.444318
0.039800	-2.385569
0.039900	-2.336556
0.040000	-2.286895
0.040100	-2.240480
0.040200	-2.152842
0.040300	-2.060985
0.040400	-1.939916
0.040500	-1.850656
0.040600	-1.782493
0.040700	-1.728288
0.040800	-1.658503
0.040900	-1.585796
0.041000	-1.489395
0.041100	-1.407925
0.041200	-1.348202
0.041300	-1.304059
0.041400	-1.279715
0.041500	-1.247581
0.041600	-1.238493
0.041700	-1.197920
0.041800	-1.180717
0.041900	-1.154102
0.042000	-1.131381
0.042100	-1.125214
0.042200	-1.122942
0.042300	-1.128784
0.042400	-1.104116
0.042500	-1.030760
0.042600	-0.872689
0.042700	-0.757462
0.042800	-0.794789
0.042900	-0.913911
0.043000	-1.006417
0.043100	-0.934035
0.043200	-0.822703
0.043300	-0.697415
0.043400	-0.677615
0.043500	-0.736040
0.043600	-0.799333
0.043700	-0.815238
0.043800	-0.747400
0.043900	-0.677291
0.044000	-0.601014
0.044100	-0.590952
0.044200	-0.613023
0.044300	-0.643859
0.044400	-0.658140
0.044500	-0.633472
0.044600	-0.607181
0.044700	-0.600365
0.044800	-0.612050
0.044900	-0.613673
0.045000	-0.649052
0.045100	-0.709424
0.045200	-0.752269
0.045300	-0.784078
0.045400	-0.764279
0.045500	-0.778885
0.045600	-0.793491
0.045700	-0.915534
0.045800	-1.025567
0.045900	-1.068737
0.046000	-1.034655
0.046100	-0.971037
0.046200	-0.994732
0.046300	-1.069710
0.046400	-1.174550
0.046500	-1.261214
0.046600	-1.275495
0.046700	-1.231352
0.046800	-1.200192
0.046900	-1.215772
0.047000	-1.282636
0.047100	-1.355018
0.047200	-1.408899
0.047300	-1.419285
0.047400	-1.422207
0.047500	-1.447199
0.047600	-1.493939
0.047700	-1.531266
0.047800	-1.558207
0.047900	-1.583200
0.048000	-1.608842
0.048100	-1.621500
0.048200	-1.619228
0.048300	-1.616307
0.048400	-1.607219
0.048500	-1.636756
0.048600	-1.692584
0.048700	-1.724068
0.048800	-1.735104
0.048900	-1.725042
0.049000	-1.700698
0.049100	-1.691935
0.049200	-1.678302
0.049300	-1.662398
0.049400	-1.640651
0.049500	-1.624746
0.049600	-1.605271
0.049700	-1.587419
0.049800	-1.573787
0.049900	-1.554312
0.050000	-1.543925
0.050100	-1.539056
0.050200	-1.535161
0.050300	-1.534512
0.050400	-1.541328
0.050500	-1.540355
0.050600	-1.572488
0.050700	-1.594235
0.050800	-1.655906
0.050900	-1.794178
0.051000	-1.945434
0.051100	-1.991525
0.051200	-1.921415
0.051300	-1.842866
0.051400	-1.855200
0.051500	-1.987305
0.051600	-2.134341
0.051700	-2.209644
0.051800	-2.192442
0.051900	-2.137587
0.052000	-2.126551
0.052100	-2.176537
0.052200	-2.259306
0.052300	-2.332986
0.052400	-2.374208
0.052500	-2.386542
0.052600	-2.384595
0.052700	-2.381998
0.052800	-2.394981
0.052900	-2.433607
0.053000	-2.454056
0.053100	-2.467039
0.053200	-2.482944
0.053300	-2.520595
0.053400	-2.525789
0.053500	-2.514753
0.053600	-2.522867
0.053700	-2.561168
0.053800	-2.585512
0.053900	-2.581942
0.054000	-2.509235
0.054100	-2.441072
0.054200	-2.423220
0.054300	-2.495278
0.054400	-2.601092
0.054500	-2.641340
0.054600	-2.613426
0.054700	-2.533254
0.054800	-2.474180
0.054900	-2.505340
0.055000	-2.589082
0.055100	-2.686782
0.055200	-2.730276
0.055300	-2.695870
0.055400	-2.643612
0.055500	-2.612128
0.055600	-2.617970
0.055700	-2.631603
0.055800	-2.649130
0.055900	-2.647832
0.056000	-2.634200
0.056100	-2.600443
0.056200	-2.569932
0.056300	-2.504691
0.056400	-2.431984
0.056500	-2.378752
0.056600	-2.352786
0.056700	-2.317081
0.056800	-2.274236
0.056900	-2.180432
0.057000	-2.083382
0.057100	-1.964909
0.057200	-1.897071
0.057300	-1.839944
0.057400	-1.794827
0.057500	-1.726990
0.057600	-1.658178
0.057700	-1.573462
0.057800	-1.510818
0.057900	-1.463104
0.058000	-1.430646
0.058100	-1.409872
0.058200	-1.395915
0.058300	-1.391047
0.058400	-1.379686
0.058500	-1.354693
0.058600	-1.342684
0.058700	-1.327104
0.058800	-1.337166
0.058900	-1.346579
0.059000	-1.358588
0.059100	-1.339114
0.059200	-1.259915
0.059300	-1.103791
0.059400	-1.052507
0.059500	-1.115801
0.059600	-1.268355
0.059700	-1.288154
0.059800	-1.227782
0.059900	-1.097949
0.060000	-1.019725
0.060100	-1.036603
0.060200	-1.108336
0.060300	-1.168383
0.060400	-1.150856
0.060500	-1.067763
0.060600	-0.996355
0.060700	-0.951887
0.060800	-0.957729
0.060900	-0.956107
0.061000	-0.961949
0.061100	-0.946694
0.061200	-0.939553
0.061300	-0.923324
0.061400	-0.920078
0.061500	-0.919104
0.061600	-0.937930
0.061700	-0.959677
0.061800	-0.997004
0.061900	-1.054130
0.062000	-1.081395
0.062100	-1.074254
0.062200	-1.061271
0.062300	-1.079448
0.062400	-1.202140
0.062500	-1.290426
0.062600	-1.308603
0.062700	-1.235572
0.062800	-1.173577
0.062900	-1.179744
0.063000	-1.267705
0.063100	-1.380985
0.063200	-1.421557
0.063300	-1.386827
0.063400	-1.308927
0.063500	-1.291400
0.063600	-1.337815
0.063700	-1.398512
0.063800	-1.429023
0.063900	-1.447524
0.064000	-1.443304
0.064100	-1.451419
0.064200	-1.475114
0.064300	-1.503352
0.064400	-1.520555
0.064500	-1.533538
0.064600	-1.550417
0.064700	-1.565347
0.064800	-1.577032
0.064900	-1.568918
0.065000	-1.554636
0.065100	-1.551715
0.065200	-1.589691
0.065300	-1.629939
0.065400	-1.646169
0.065500	-1.649090
0.065600	-1.615009
0.065700	-1.610789
0.065800	-1.602674
0.065900	-1.583849
0.066000	-1.570865
0.066100	-1.549443
0.066200	-1.531591
0.066300	-1.511467
0.066400	-1.495238
0.066500	-1.483553
0.066600	-1.479009
0.066700	-1.472841
0.066800	-1.472517
0.066900	-1.474789
0.067000	-1.477061
0.067100	-1.487123
0.067200	-1.509844
0.067300	-1.529319
0.067400	-1.558531
0.067500	-1.634159
0.067600	-1.786713
0.067700	-1.920116
0.067800	-1.927582
0.067900	-1.843515
0.068000	-1.769510
0.068100	-1.821119
0.068200	-1.976269
0.068300	-2.131420
0.068400	-2.195687
0.068500	-2.157711
0.068600	-2.103506
0.068700	-2.109673
0.068800	-2.190819
0.068900	-2.297606
0.069000	-2.365120
0.069100	-2.381674
0.069200	-2.371611
0.069300	-2.376480
0.069400	-2.406342
0.069500	-2.437826
0.069600	-2.457301
0.069700	-2.473531
0.069800	-2.480347
0.069900	-2.500796
0.070000	-2.537149
0.070100	-2.562142
0.070200	-2.560194
0.070300	-2.553703
0.070400	-2.582266
0.070500	-2.615698
0.070600	-2.623164
0.070700	-2.546562
0.070800	-2.465416
0.070900	-2.466065
0.071000	-2.564089
0.071100	-2.671202
0.071200	-2.712100
0.071300	-2.648806
0.071400	-2.537798
0.071500	-2.490734
0.071600	-2.543316
0.071700	-2.659842
0.071800	-2.735145
0.071900	-2.737417
0.072000	-2.684510
0.072100	-2.630305
0.072200	-2.612777
0.072300	-2.630954
0.072400	-2.645235
0.072500	-2.647832
0.072600	-2.625111
0.072700	-2.590056
0.072800	-2.561493
0.072900	-2.514428
0.073000	-2.441397
0.073100	-2.368690
0.073200	-2.309941
0.073300	-2.268719
0.073400	-2.240804
0.073500	-2.177835
0.073600	-2.076890
0.073700	-1.960040
0.073800	-1.838971
0.073900	-1.770484
0.074000	-1.715305
0.074100	-1.648765
0.074200	-1.582875
0.074300	-1.498808
0.074400	-1.417338
0.074500	-1.346254
0.074600	-1.294646
0.074700	-1.257968
0.074800	-1.226808
0.074900	-1.209605
0.075000	-1.186235
0.075100	-1.159944
0.075200	-1.133328
0.075300	-1.109958
0.075400	-1.096651
0.075500	-1.085615
0.075600	-1.095028
0.075700	-1.082044
0.075800	-1.063868
0.075900	-0.918130
0.076000	-0.803228
0.076100	-0.735715
0.076200	-0.872689
0.076300	-0.984021
0.076400	-1.002522
0.076500	-0.893462
0.076600	-0.765901
0.076700	-0.702283
0.076800	-0.744479
0.076900	-0.814589
0.077000	-0.866522
0.077100	-0.835362
0.077200	-0.759734
0.077300	-0.694493
0.077400	-0.661711
0.077500	-0.680212
0.077600	-0.700660
0.077700	-0.718837
0.077800	-0.708775
0.077900	-0.701959
0.078000	-0.701634
0.078100	-0.704231
0.078200	-0.720135
0.078300	-0.754866
0.078400	-0.777586
0.078500	-0.825949
0.078600	-0.872689
0.078700	-0.910990
0.078800	-0.916832
0.078900	-0.911963
0.079000	-0.952212
0.079100	-1.076526
0.079200	-1.155400
0.079300	-1.153777
0.079400	-1.091133
0.079500	-1.048612
0.079600	-1.081720
0.079700	-1.197271
0.079800	-1.295944
0.079900	-1.316068
0.080000	-1.255047
0.080100	-1.186884
0.080200	-1.190779
0.080300	-1.256020
0.080400	-1.319639
0.080500	-1.343982
0.080600	-1.345281
0.080700	-1.337815
0.080800	-1.359238
0.080900	-1.403056
0.081000	-1.451744
0.081100	-1.466350
0.081200	-1.469271
0.081300	-1.484526
0.081400	-1.511142
0.081500	-1.528994
0.081600	-1.520555
0.081700	-1.503677
0.081800	-1.507247
0.081900	-1.557233
0.082000	-1.594560
0.082100	-1.615658
0.082200	-1.600402
0.082300	-1.575410
0.082400	-1.583849
0.082500	-1.589367
0.082600	-1.574111
0.082700	-1.564698
0.082800	-1.561777
0.082900	-1.547820
0.083000	-1.536784
0.083100	-1.532240
0.083200	-1.528670
0.083300	-1.517958
0.083400	-1.516011
0.083500	-1.521204
0.083600	-1.521853
0.083700	-1.527047
0.083800	-1.528670
0.083900	-1.541328
0.084000	-1.563075
0.084100	-1.590016
0.084200	-1.688364
0.084300	-1.844813
0.084400	-1.945758
0.084500	-1.912976
0.084600	-1.819171
0.084700	-1.775352
0.084800	-1.862990
0.084900	-2.019114
0.085000	-2.138885
0.085100	-2.175563
0.085200	-2.131744
0.085300	-2.098962
0.085400	-2.128499
0.085500	-2.207372
0.085600	-2.293711
0.085700	-2.349864
0.085800	-2.370638
0.085900	-2.369664
0.086000	-2.376480
0.086100	-2.406017
0.086200	-2.438800
0.086300	-2.464767
0.086400	-2.485540
0.086500	-2.504691
0.086600	-2.516376
0.086700	-2.559870
0.086800	-2.574476
0.086900	-2.574152
0.087000	-2.580319
0.087100	-2.608233
0.087200	-2.637445
0.087300	-2.636472
0.087400	-2.554352
0.087500	-2.491707
0.087600	-2.515402
0.087700	-2.622839
0.087800	-2.712100
0.087900	-2.739689
0.088000	-2.652701
0.088100	-2.563440
0.088200	-2.554352
0.088300	-2.638744
0.088400	-2.753646
0.088500	-2.805255
0.088600	-2.777666
0.088700	-2.716968
0.088800	-2.685159
0.088900	-2.696195
0.089000	-2.723460
0.089100	-2.726057
0.089200	-2.705608
0.089300	-2.676720
0.089400	-2.654973
0.089500	-2.611154
0.089600	-2.542992
0.089700	-2.459249
0.089800	-2.379077
0.089900	-2.332661
0.090000	-2.294685
0.090100	-2.260279
0.090200	-2.184002
0.090300	-2.084680
0.090400	-2.014895
0.090500	-1.910379
0.090600	-1.837348
0.090700	-1.775677
0.090800	-1.696154
0.090900	-1.609166
0.091000	-1.519906
0.091100	-1.426751
0.091200	-1.349825
0.091300	-1.298865
0.091400	-1.262512
0.091500	-1.225185
0.091600	-1.197596
0.091700	-1.182665
0.091800	-1.145662
0.091900	-1.112555
0.092000	-1.079123
0.092100	-1.058350
0.092200	-1.043095
0.092300	-1.049586
0.092400	-1.043095
0.092500	-0.993758
0.092600	-0.838283
0.092700	-0.729548
0.092800	-0.718837
0.092900	-0.867496
0.093000	-0.947018
0.093100	-0.932412
0.093200	-0.810694
0.093300	-0.702283
0.093400	-0.672422
0.093500	-0.723381
0.093600	-0.789271
0.093700	-0.811992
0.093800	-0.756813
0.093900	-0.687028
0.094000	-0.633147
0.094100	-0.614646
0.094200	-0.623410
0.094300	-0.632174
0.094400	-0.631849
0.094500	-0.607181
0.094600	-0.592899
0.094700	-0.583486
0.094800	-0.592899
0.094900	-0.606207
0.095000	-0.646780
0.095100	-0.651649
0.095200	-0.702608
0.095300	-0.755839
0.095400	-0.780508
0.095500	-0.777911
0.095600	-0.772393
0.095700	-0.829195
0.095800	-0.965519
0.095900	-1.033032
0.096000	-1.018751
0.096100	-0.938255
0.096200	-0.918455
0.096300	-0.975257
0.096400	-1.108011
0.096500	-1.209930
0.096600	-1.211877
0.096700	-1.129758
0.096800	-1.080421
0.096900	-1.119047
0.097000	-1.211553
0.097100	-1.274846
0.097200	-1.295619
0.097300	-1.272250
0.097400	-1.253424
0.097500	-1.288803
0.097600	-1.342684
0.097700	-1.391696
0.097800	-1.405328
0.097900	-1.405004
0.098000	-1.419285
0.098100	-1.440708
0.098200	-1.440059
0.098300	-1.426102
0.098400	-1.412794
0.098500	-1.420259
0.098600	-1.472841
0.098700	-1.504001
0.098800	-1.507572
0.098900	-1.468946
0.099000	-1.453367
0.099100	-1.450445
0.099200	-1.445577
0.099300	-1.430646
0.099400	-1.415715
0.099500	-1.400135
0.099600	-1.387476
0.099700	-1.373844
0.099800	-1.367677
0.099900	-1.362483
0.100000	-1.357290
0.100100	-1.352097
0.100200	-1.351123
0.100300	-1.352097
0.100400	-1.355018
0.100500	-1.368001
0.100600	-1.387152
0.100700	-1.408899
0.100800	-1.452393
0.100900	-1.568269
0.101000	-1.731858
0.101100	-1.797424
0.101200	-1.741596
0.101300	-1.657529
0.101400	-1.649090
0.101500	-1.772107
0.101600	-1.927906
0.101700	-2.037940
0.101800	-2.044756
0.101900	-1.997367
0.102000	-1.980489
0.102100	-2.026255
0.102200	-2.114866
0.102300	-2.199907
0.102400	-2.253139
0.102500	-2.268394
0.102600	-2.263525
0.102700	-2.273912
0.102800	-2.312862
0.102900	-2.352136
0.103000	-2.375506
0.103100	-2.400499
0.103200	-2.410561
0.103300	-2.431984
0.103400	-2.464442
0.103500	-2.480672
0.103600	-2.490084
0.103700	-2.505664
0.103800	-2.537798
0.103900	-2.558247
0.104000	-2.538123
0.104100	-2.458924
0.104200	-2.415106
0.104300	-2.463793
0.104400	-2.575125
0.104500	-2.657245
0.104600	-2.653025
0.104700	-2.554677
0.104800	-2.472881
0.104900	-2.480347
0.105000	-2.575125
0.105100	-2.681589
0.105200	-2.713073
0.105300	-2.663737
0.105400	-2.601417
0.105500	-2.569932
0.105600	-2.570906
0.105700	-2.587135
0.105800	-2.595574
0.105900	-2.578696
0.106000	-2.546237
0.106100	-2.515727
0.106200	-2.478399
0.106300	-2.425168
0.106400	-2.352136
0.106500	-2.290466
0.106600	-2.244050
0.106700	-2.204127
0.106800	-2.165826
0.106900	-2.077864
0.107000	-1.980489
0.107100	-1.860069
0.107200	-1.772756
0.107300	-1.710760
0.107400	-1.653959
0.107500	-1.586445
0.107600	-1.513739
0.107700	-1.431619
0.107800	-1.355343
0.107900	-1.291075
0.108000	-1.243686
0.108100	-1.222913
0.108200	-1.194025
0.108300	-1.180393
0.108400	-1.156374
0.108500	-1.134627
0.108600	-1.107362
0.108700	-1.091457
0.108800	-1.087238
0.108900	-1.091457
0.109000	-1.088861
0.109100	-1.077176
0.109200	-0.991161
0.109300	-0.836660
0.109400	-0.731820
0.109500	-0.780508
0.109600	-0.910990
0.109700	-0.975906
0.109800	-0.903200
0.109900	-0.789596
0.110000	-0.698388
0.110100	-0.701310
0.110200	-0.761682
0.110300	-0.817835
0.110400	-0.809720
0.110500	-0.755515
0.110600	-0.686379
0.110700	-0.642560
0.110800	-0.626007
0.110900	-0.641587
0.111000	-0.659114
0.111100	-0.663983
0.111200	-0.657491
0.111300	-0.655868
0.111400	-0.649052
0.111500	-0.650999
0.111600	-0.674369
0.111700	-0.707152
0.111800	-0.733119
0.111900	-0.788947
0.112000	-0.822054
0.112100	-0.832116
0.112200	-0.818484
0.112300	-0.832441
0.112400	-0.923324
0.112500	-1.032059
0.112600	-1.067763
0.112700	-1.014207
0.112800	-0.950264
0.112900	-0.937605
0.113000	-1.022646
0.113100	-1.151830
0.113200	-1.205386
0.113300	-1.185586
0.113400	-1.105739
0.113500	-1.083343
0.113600	-1.131705
0.113700	-1.219343
0.113800	-1.268030
0.113900	-1.293672
0.114000	-1.293672
0.114100	-1.313796
0.114200	-1.355667
0.114300	-1.410197
0.114400	-1.445252
0.114500	-1.460507
0.114600	-1.483553
0.114700	-1.514063
0.114800	-1.530293
0.114900	-1.528020
0.115000	-1.516011
0.115100	-1.508870
0.115200	-1.549118
0.115300	-1.604947
0.115400	-1.636756
0.115500	-1.641624
0.115600	-1.615009
0.115700	-1.616307
0.115800	-1.621176
0.115900	-1.619228
0.116000	-1.620527
0.116100	-1.622149
0.116200	-1.625395
0.116300	-1.626369
0.116400	-1.630913
0.116500	-1.633834
0.116600	-1.639677
0.116700	-1.648441
0.116800	-1.651037
0.116900	-1.661749
0.117000	-1.664021
0.117100	-1.678951
0.117200	-1.690636
0.117300	-1.716603
0.117400	-1.741271
0.117500	-1.802293
0.117600	-1.941539
0.117700	-2.078188
0.117800	-2.097663
0.117900	-2.008403
0.118000	-1.920116
0.118100	-1.949004
0.118200	-2.089224
0.118300	-2.239831
0.118400	-2.302151
0.118500	-2.269368
0.118600	-2.207372
0.118700	-2.201205
0.118800	-2.256384
0.118900	-2.346619
0.119000	-2.413158
0.119100	-2.442046
0.119200	-2.447564
0.119300	-2.439449
0.119400	-2.435554
0.119500	-2.450810
0.119600	-2.461521
0.119700	-2.472881
0.119800	-2.494629
0.119900	-2.503392
0.120000	-2.525139
0.120100	-2.544614
0.120200	-2.539097
0.120300	-2.533903
0.120400	-2.553378
0.120500	-2.573178
0.120600	-2.586486
0.120700	-2.524490
0.120800	-2.423545
0.120900	-2.398227
0.121000	-2.479049
0.121100	-2.593627
0.121200	-2.664710
0.121300	-2.605312
0.121400	-2.476776
0.121500	-2.398552
0.121600	-2.439449
0.121700	-2.559221
0.121800	-2.648157
0.121900	-2.656271
0.122000	-2.582915
0.122100	-2.517349
0.122200	-2.498524
0.122300	-2.518972
0.122400	-2.524490
0.122500	-2.509559
0.122600	-2.486189
0.122700	-2.464442
0.122800	-2.437177
0.122900	-2.394657
0.123000	-2.335583
0.123100	-2.251191
0.123200	-2.191792
0.123300	-2.143754
0.123400	-2.115191
0.123500	-2.060661
0.123600	-1.969128
0.123700	-1.852279
0.123800	-1.734455
0.123900	-1.665968
0.124000	-1.615333
0.124100	-1.557233
0.124200	-1.488421
0.124300	-1.410846
0.124400	-1.323209
0.124500	-1.245958
0.124600	-1.200517
0.124700	-1.162216
0.124800	-1.126188
0.124900	-1.111257
0.125000	-1.090159
0.125100	-1.072956
0.125200	-1.040822
0.125300	-1.009987
0.125400	-0.982073
0.125500	-0.972660
0.125600	-0.966493
0.125700	-0.976880
0.125800	-0.951887
0.125900	-0.842178
0.126000	-0.688651
0.126100	-0.617243
0.126200	-0.689625
0.126300	-0.833739
0.126400	-0.859706
0.126500	-0.777262
0.126600	-0.631525
0.126700	-0.551353
0.126800	-0.576670
0.126900	-0.654245
0.127000	-0.714618
0.127100	-0.694818
0.127200	-0.616918
0.127300	-0.549405
0.127400	-0.521491
0.127500	-0.525062
0.127600	-0.541615
0.127700	-0.555248
0.127800	-0.550054
0.127900	-0.532852
0.128000	-0.525386
0.128100	-0.518570
0.128200	-0.531553
0.128300	-0.553949
0.128400	-0.586408
0.128500	-0.600689
0.128600	-0.658465
0.128700	-0.688326
0.128800	-0.705529
0.128900	-0.695143
0.129000	-0.711696
0.129100	-0.814589
0.129200	-0.925920
0.129300	-0.959028
0.129400	-0.898655
0.129500	-0.823352
0.129600	-0.830818
0.129700	-0.942799
0.129800	-1.082369
0.129900	-1.126837
0.130000	-1.078799
0.130100	-0.998302
0.130200	-0.984670
0.130300	-1.053806
0.130400	-1.140145
0.130500	-1.174875
0.130600	-1.182016
0.130700	-1.172603
0.130800	-1.196946
0.130900	-1.235572
0.131000	-1.269653
0.131100	-1.286856
0.131200	-1.299514
0.131300	-1.315094
0.131400	-1.345930
0.131500	-1.348851
0.131600	-1.343333
0.131700	-1.324183
0.131800	-1.321586
0.131900	-1.367677
0.132000	-1.418961
0.132100	-1.441032
0.132200	-1.431295
0.132300	-1.396889
0.132400	-1.405004
0.132500	-1.406302
0.132600	-1.397863
0.132700	-1.388775
0.132800	-1.377414
0.132900	-1.371572
0.133000	-1.366054
0.133100	-1.361834
0.133200	-1.349500
0.133300	-1.349825
0.133400	-1.349500
0.133500	-1.358264
0.133600	-1.361185
0.133700	-1.377739
0.133800	-1.385853
0.133900	-1.405653
0.134000	-1.436813
0.134100	-1.466674
0.134200	-1.551715
0.134300	-1.712059
0.134400	-1.842216
0.134500	-1.856174
0.134600	-1.770159
0.134700	-1.700049
0.134800	-1.748412
0.134900	-1.907458
0.135000	-2.059038
0.135100	-2.123630
0.135200	-2.095067
0.135300	-2.048327
0.135400	-2.050599
0.135500	-2.133692
0.135600	-2.248270
0.135700	-2.321301
0.135800	-2.356031
0.135900	-2.351163
0.136000	-2.357654
0.136100	-2.367067
0.136200	-2.398227
0.136300	-2.428738
0.136400	-2.463144
0.136500	-2.477750
0.136600	-2.488137
0.136700	-2.503717
0.136800	-2.511507
0.136900	-2.515727
0.137000	-2.517999
0.137100	-2.537149
0.137200	-2.550782
0.137300	-2.541693
0.137400	-2.456328
0.137500	-2.366094
0.137600	-2.349864
0.137700	-2.434905
0.137800	-2.525464
0.137900	-2.554677
0.138000	-2.471259
0.138100	-2.357979
0.138200	-2.307019
0.138300	-2.364471
0.138400	-2.471583
0.138500	-2.543641
0.138600	-2.526113
0.138700	-2.470609
0.138800	-2.425168
0.138900	-2.414456
0.139000	-2.418676
0.139100	-2.424519
0.139200	-2.423220
0.139300	-2.417378
0.139400	-2.400499
0.139500	-2.365769
0.139600	-2.313186
0.139700	-2.235286
0.139800	-2.162580
0.139900	-2.118112
0.140000	-2.085978
0.140100	-2.057090
0.140200	-1.988279
0.140300	-1.887658
0.140400	-1.791257
0.140500	-1.673109
0.140600	-1.614684
0.140700	-1.552040
0.140800	-1.485825
0.140900	-1.412145
0.141000	-1.331324
0.141100	-1.239142
0.141200	-1.157997
0.141300	-1.101519
0.141400	-1.064842
0.141500	-1.028488
0.141600	-1.004469
0.141700	-0.986942
0.141800	-0.955133
0.141900	-0.929491
0.142000	-0.894436
0.142100	-0.886321
0.142200	-0.870741
0.142300	-0.892813
0.142400	-0.868469
0.142500	-0.857109
0.142600	-0.721758
0.142700	-0.596470
0.142800	-0.539992
0.142900	-0.670150
0.143000	-0.792517
0.143100	-0.812641
0.143200	-0.712021
0.143300	-0.594522
0.143400	-0.542914
0.143500	-0.585434
0.143600	-0.683458
0.143700	-0.718837
0.143800	-0.695467
0.143900	-0.622436
0.144000	-0.565959
0.144100	-0.545835
0.144200	-0.552976
0.144300	-0.569529
0.144400	-0.588680
0.144500	-0.590952
0.144600	-0.590952
0.144700	-0.589978
0.144800	-0.574074
0.144900	-0.582837
0.145000	-0.618866
0.145100	-0.653921
0.145200	-0.694493
0.145300	-0.733119
0.145400	-0.756164
0.145500	-0.742856
0.145600	-0.744804
0.145700	-0.766226
0.145800	-0.881128
0.145900	-0.953510
0.146000	-0.947343
0.146100	-0.869768
0.146200	-0.815887
0.146300	-0.835362
0.146400	-0.952212
0.146500	-1.047639
0.146600	-1.063868
0.146700	-0.991811
0.146800	-0.931763
0.146900	-0.950264
0.147000	-1.019725
0.147100	-1.071982
0.147200	-1.076202
0.147300	-1.089510
0.147400	-1.106388
0.147500	-1.146312
0.147600	-1.173577
0.147700	-1.200841
0.147800	-1.212526
0.147900	-1.227457
0.148000	-1.258617
0.148100	-1.279390
0.148200	-1.281338
0.148300	-1.270302
0.148400	-1.249204
0.148500	-1.251801
0.148600	-1.304383
0.148700	-1.348851
0.148800	-1.364431
0.148900	-1.353395
0.149000	-1.331648
0.149100	-1.334894
0.149200	-1.331973
0.149300	-1.327429
0.149400	-1.325156
0.149500	-1.324507
0.149600	-1.316393
0.149700	-1.316068
0.149800	-1.311524
0.149900	-1.314770
0.150000	-1.314445
0.150100	-1.322235
0.150200	-1.330674
0.150300	-1.338464
0.150400	-1.344956
0.150500	-1.358913
0.150600	-1.376765
0.150700	-1.406627
0.150800	-1.448173
0.150900	-1.549768
0.151000	-1.719200
0.151100	-1.812355
0.151200	-1.792555
0.151300	-1.689987
0.151400	-1.657529
0.151500	-1.739324
0.151600	-1.909405
0.151700	-2.037615
0.151800	-2.062608
0.151900	-2.006455
0.152000	-1.957119
0.152100	-1.993472
0.152200	-2.081110
0.152300	-2.171019
0.152400	-2.225874
0.152500	-2.231716
0.152600	-2.230093
0.152700	-2.253139
0.152800	-2.275535
0.152900	-2.308967
0.153000	-2.317731
0.153100	-2.337206
0.153200	-2.357654
0.153300	-2.384270
0.153400	-2.421922
0.153500	-2.446915
0.153600	-2.455679
0.153700	-2.463469
0.153800	-2.492032
0.153900	-2.523841
0.154000	-2.526113
0.154100	-2.446915
0.154200	-2.383621
0.154300	-2.411535
0.154400	-2.523517
0.154500	-2.628682
0.154600	-2.657570
0.154700	-2.574152
0.154800	-2.475154
0.154900	-2.458924
0.155000	-2.546237
0.155100	-2.652052
0.155200	-2.700739
0.155300	-2.665035
0.155400	-2.615698
0.155500	-2.584214
0.155600	-2.588433
0.155700	-2.604987
0.155800	-2.598495
0.155900	-2.577722
0.156000	-2.562142
0.156100	-2.546237
0.156200	-2.506314
0.156300	-2.439125
0.156400	-2.345320
0.156500	-2.269368
0.156600	-2.220031
0.156700	-2.183353
0.156800	-2.147000
0.156900	-2.062284
0.157000	-1.969128
0.157100	-1.889281
0.157200	-1.784441
0.157300	-1.718550
0.157400	-1.647142
0.157500	-1.572488
0.157600	-1.490694
0.157700	-1.404030
0.157800	-1.314770
0.157900	-1.250178
0.158000	-1.202464
0.158100	-1.154751
0.158200	-1.120020
0.158300	-1.096975
0.158400	-1.075228
0.158500	-1.043095
0.158600	-1.016803
0.158700	-0.990188
0.158800	-0.973309
0.158900	-0.966818
0.159000	-0.968116
0.159100	-0.956756
0.159200	-0.907095
0.159300	-0.768498
0.159400	-0.638665
0.159500	-0.627305
0.159600	-0.752269
0.159700	-0.848345
0.159800	-0.832441
0.159900	-0.706503
0.160000	-0.600040
0.160100	-0.556546
0.160200	-0.624384
0.160300	-0.681510
0.160400	-0.707477
0.160500	-0.636393
0.160600	-0.560766
0.160700	-0.511754
0.160800	-0.503964
0.160900	-0.522140
0.161000	-0.521491
0.161100	-0.522465
0.161200	-0.514026
0.161300	-0.507859
0.161400	-0.504938
0.161500	-0.507859
0.161600	-0.534475
0.161700	-0.552976
0.161800	-0.591926
0.161900	-0.609453
0.162000	-0.664307
0.162100	-0.689949
0.162200	-0.698388
0.162300	-0.689949
0.162400	-0.746427
0.162500	-0.863276
0.162600	-0.927219
0.162700	-0.904173
0.162800	-0.827247
0.162900	-0.790570
0.163000	-0.845749
0.163100	-0.972011
0.163200	-1.057701
0.163300	-1.042445
0.163400	-0.971686
0.163500	-0.930789
0.163600	-0.978178
0.163700	-1.064192
0.163800	-1.116126
0.163900	-1.134951
0.164000	-1.139495
0.164100	-1.147610
0.164200	-1.177147
0.164300	-1.221290
0.164400	-1.259915
0.164500	-1.280689
0.164600	-1.297242
0.164700	-1.318340
0.164800	-1.329051
0.164900	-1.319639
0.165000	-1.310226
0.165100	-1.292374
0.165200	-1.310226
0.165300	-1.363782
0.165400	-1.384230
0.165500	-1.384230
0.165600	-1.338789
0.165700	-1.319639
0.165800	-1.323858
0.165900	-1.317691
0.166000	-1.312498
0.166100	-1.297567
0.166200	-1.284584
0.166300	-1.271600
0.166400	-1.259266
0.166500	-1.256994
0.166600	-1.263810
0.166700	-1.260240
0.166800	-1.265758
0.166900	-1.271276
0.167000	-1.280689
0.167100	-1.290102
0.167200	-1.301137
0.167300	-1.328727
0.167400	-1.355992
0.167500	-1.404030
0.167600	-1.530617
0.167700	-1.684794
0.167800	-1.748412
0.167900	-1.683171
0.168000	-1.589691
0.168100	-1.570216
0.168200	-1.685443
0.168300	-1.835400
0.168400	-1.927906
0.168500	-1.907458
0.168600	-1.845787
0.168700	-1.810732
0.168800	-1.845138
0.168900	-1.933749
0.169000	-2.017167
0.169100	-2.048327
0.169200	-2.031448
0.169300	-2.029825
0.169400	-2.048327
0.169500	-2.072021
0.169600	-2.095391
0.169700	-2.107725
0.169800	-2.118112
0.169900	-2.153816
0.170000	-2.193740
0.170100	-2.214189
0.170200	-2.224575
0.170300	-2.242427
0.170400	-2.269692
0.170500	-2.306695
0.170600	-2.334934
0.170700	-2.310914
0.170800	-2.237883
0.170900	-2.223601
0.171000	-2.286895
0.171100	-2.397903
0.171200	-2.497550
0.171300	-2.486839
0.171400	-2.388490
0.171500	-2.312213
0.171600	-2.343697
0.171700	-2.440748
0.171800	-2.527087
0.171900	-2.540395
0.172000	-2.491383
0.172100	-2.434905
0.172200	-2.404719
0.172300	-2.409912
0.172400	-2.415106
0.172500	-2.398552
0.172600	-2.369989
0.172700	-2.333635
0.172800	-2.291439
0.172900	-2.239831
0.173000	-2.152518
0.173100	-2.066179
0.173200	-1.988928
0.173300	-1.940890
0.173400	-1.896746
0.173500	-1.851954
0.173600	-1.755228
0.173700	-1.674407
0.173800	-1.579954
0.173900	-1.485500
0.174000	-1.423830
0.174100	-1.363782
0.174200	-1.290751
0.174300	-1.209605
0.174400	-1.118722
0.174500	-1.034006
0.174600	-0.969414
0.174700	-0.927868
0.174800	-0.901901
0.174900	-0.864899
0.175000	-0.853863
0.175100	-0.819457
0.175200	-0.801930
0.175300	-0.769796
0.175400	-0.755515
0.175500	-0.736689
0.175600	-0.745453
0.175700	-0.749672
0.175800	-0.734092
0.175900	-0.663983
0.176000	-0.496823
0.176100	-0.405291
0.176200	-0.445539
0.176300	-0.589004
0.176400	-0.655219
0.176500	-0.586732
0.176600	-0.456575
0.176700	-0.351735
0.176800	-0.359850
0.176900	-0.438723
0.177000	-0.500718
0.177100	-0.495200
0.177200	-0.428661
0.177300	-0.358551
0.177400	-0.338427
0.177500	-0.342971
0.177600	-0.363420
0.177700	-0.378351
0.177800	-0.377702
0.177900	-0.370885
0.178000	-0.370236
0.178100	-0.385492
0.178200	-0.382570
0.178300	-0.408537
0.178400	-0.424117
0.178500	-0.474752
0.178600	-0.518570
0.178700	-0.563687
0.178800	-0.568231
0.178900	-0.577319
0.179000	-0.581864
0.179100	-0.672422
0.179200	-0.789596
0.179300	-0.826598
0.179400	-0.798684
0.179500	-0.716565
0.179600	-0.722083
0.179700	-0.812641
0.179800	-0.932087
0.179900	-0.994407
0.180000	-0.968765
0.180100	-0.894761
0.180200	-0.875286
0.180300	-0.936307
0.180400	-1.015830
0.180500	-1.058674
0.180600	-1.075228
0.180700	-1.064517
0.180800	-1.087562
0.180900	-1.131381
0.181000	-1.183963
0.181100	-1.218693
0.181200	-1.238493
0.181300	-1.260565
0.181400	-1.291400
0.181500	-1.308603
0.181600	-1.305032
0.181700	-1.296269
0.181800	-1.287830
0.181900	-1.324507
0.182000	-1.383257
0.182100	-1.402732
0.182200	-1.407276
0.182300	-1.374168
0.182400	-1.380335
0.182500	-1.393319
0.182600	-1.390398
0.182700	-1.388450
0.182800	-1.374168
0.182900	-1.363133
0.183000	-1.347553
0.183100	-1.344307
0.183200	-1.339763
0.183300	-1.341710
0.183400	-1.336841
0.183500	-1.340736
0.183600	-1.343009
0.183700	-1.350474
0.183800	-1.345605
0.183900	-1.356966
0.184000	-1.372870
0.184100	-1.390722
0.184200	-1.455963
0.184300	-1.594884
0.184400	-1.736727
0.184500	-1.765290
0.184600	-1.685443
0.184700	-1.585147
0.184800	-1.608842
0.184900	-1.759448
0.185000	-1.924011
0.185100	-1.993472
0.185200	-1.953548
0.185300	-1.890255
0.185400	-1.882140
0.185500	-1.957768
0.185600	-2.069100
0.185700	-2.139210
0.185800	-2.155764
0.185900	-2.150895
0.186000	-2.150895
0.186100	-2.172967
0.186200	-2.206074
0.186300	-2.232041
0.186400	-2.238208
0.186500	-2.242427
0.186600	-2.260279
0.186700	-2.295984
0.186800	-2.309941
0.186900	-2.312537
0.187000	-2.311888
0.187100	-2.332986
0.187200	-2.360576
0.187300	-2.369989
0.187400	-2.311888
0.187500	-2.224900
0.187600	-2.211267
0.187700	-2.283974
0.187800	-2.398876
0.187900	-2.464442
0.188000	-2.419001
0.188100	-2.318704
0.188200	-2.257683
0.188300	-2.302151
0.188400	-2.417378
0.188500	-2.521894
0.188600	-2.542667
0.188700	-2.480347
0.188800	-2.411535
0.188900	-2.386542
0.189000	-2.408289
0.189100	-2.431659
0.189200	-2.440748
0.189300	-2.418027
0.189400	-2.381024
0.189500	-2.337206
0.189600	-2.300852
0.189700	-2.243726
0.189800	-2.181081
0.189900	-2.122007
0.190000	-2.070723
0.190100	-2.021062
0.190200	-1.950627
0.190300	-1.848384
0.190400	-1.749386
0.190500	-1.622474
0.190600	-1.545548
0.190700	-1.487123
0.190800	-1.426102
0.190900	-1.359562
0.191000	-1.280364
0.191100	-1.188183
0.191200	-1.109958
0.191300	-1.063868
0.191400	-1.029137
0.191500	-1.002846
0.191600	-0.971362
0.191700	-0.956431
0.191800	-0.923973
0.191900	-0.902226
0.192000	-0.886646
0.192100	-0.861653
0.192200	-0.863925
0.192300	-0.860355
0.192400	-0.858732
0.192500	-0.838283
0.192600	-0.725329
0.192700	-0.580565
0.192800	-0.498446
0.192900	-0.599391
0.193000	-0.722407
0.193100	-0.751620
0.193200	-0.657491
0.193300	-0.507534
0.193400	-0.442618
0.193500	-0.458522
0.193600	-0.555248
0.193700	-0.605883
0.193800	-0.576995
0.193900	-0.500069
0.194000	-0.419897
0.194100	-0.398799
0.194200	-0.409511
0.194300	-0.452031
0.194400	-0.465339
0.194500	-0.456250
0.194600	-0.431582
0.194700	-0.421196
0.194800	-0.426713
0.194900	-0.434179
0.195000	-0.469558
0.195100	-0.496823
0.195200	-0.539019
0.195300	-0.572126
0.195400	-0.608479
0.195500	-0.610751
0.195600	-0.623410
0.195700	-0.647754
0.195800	-0.759085
0.195900	-0.855486
0.196000	-0.877558
0.196100	-0.835037
0.196200	-0.770446
0.196300	-0.792842
0.196400	-0.899305
0.196500	-1.024918
0.196600	-1.080421
0.196700	-1.045691
0.196800	-0.982073
0.196900	-0.969090
0.197000	-1.027515
0.197100	-1.117748
0.197200	-1.169032
0.197300	-1.199543
0.197400	-1.202464
0.197500	-1.220316
0.197600	-1.247906
0.197700	-1.301137
0.197800	-1.357615
0.197900	-1.394617
0.198000	-1.419285
0.198100	-1.441357
0.198200	-1.446550
0.198300	-1.434865
0.198400	-1.404679
0.198500	-1.401109
0.198600	-1.443629
0.198700	-1.494588
0.198800	-1.516660
0.198900	-1.488097
0.199000	-1.454340
0.199100	-1.454340
0.199200	-1.449147
0.199300	-1.442006
0.199400	-1.427725
0.199500	-1.409872
0.199600	-1.393968
0.199700	-1.375791
0.199800	-1.361185
0.199900	-1.348202
0.200000	-1.338464
0.200100	-1.343333
0.200200	-1.336517
0.200300	-1.339438
0.200400	-1.341386
0.200500	-1.343333
0.200600	-1.356966
0.200700	-1.368975
0.200800	-1.406951
0.200900	-1.488097
0.201000	-1.646493
0.201100	-1.763343
0.201200	-1.757500
0.201300	-1.666617
0.201400	-1.612087
0.201500	-1.667266
0.201600	-1.835076
0.201700	-1.974322
0.201800	-2.016842
0.201900	-1.968479
0.202000	-1.915897
0.202100	-1.925959
0.202200	-2.009377
0.202300	-2.105453
0.202400	-2.168098
0.202500	-2.178484
0.202600	-2.179783
0.202700	-2.177835
0.202800	-2.193740
0.202900	-2.207048
0.203000	-2.232690
0.203100	-2.249568
0.203200	-2.272289
0.203300	-2.308967
0.203400	-2.339802
0.203500	-2.337530
0.203600	-2.331039
0.203700	-2.341425
0.203800	-2.366743
0.203900	-2.398227
0.204000	-2.391086
0.204100	-2.319678
0.204200	-2.244375
0.204300	-2.250866
0.204400	-2.321950
0.204500	-2.420624
0.204600	-2.440748
0.204700	-2.375506
0.204800	-2.278781
0.204900	-2.237559
0.205000	-2.293711
0.205100	-2.398876
0.205200	-2.472881
0.205300	-2.465091
0.205400	-2.404070
0.205500	-2.351812
0.205600	-2.327144
0.205700	-2.330065
0.205800	-2.339802
0.205900	-2.329740
0.206000	-2.322275
0.206100	-2.293387
0.206200	-2.250542
0.206300	-2.183029
0.206400	-2.099611
0.206500	-2.027229
0.206600	-1.972050
0.206700	-1.930828
0.206800	-1.890255
0.206900	-1.817224
0.207000	-1.697777
0.207100	-1.603973
0.207200	-1.487123
0.207300	-1.409223
0.207400	-1.342359
0.207500	-1.268679
0.207600	-1.186560
0.207700	-1.106388
0.207800	-1.019075
0.207900	-0.935658
0.208000	-0.880479
0.208100	-0.824975
0.208200	-0.804202
0.208300	-0.782780
0.208400	-0.772393
0.208500	-0.749023
0.208600	-0.718188
0.208700	-0.692546
0.208800	-0.663658
0.208900	-0.666904
0.209000	-0.670799
0.209100	-0.674045
0.209200	-0.635420
0.209300	-0.508833
0.209400	-0.383544
0.209500	-0.327716
0.209600	-0.468909
0.209700	-0.583811
0.209800	-0.579916
0.209900	-0.473778
0.210000	-0.335831
0.210100	-0.298504
0.210200	-0.346542
0.210300	-0.448460
0.210400	-0.472479
0.210500	-0.434828
0.210600	-0.350761
0.210700	-0.291363
0.210800	-0.280002
0.210900	-0.288117
0.211000	-0.308890
0.211100	-0.313759
0.211200	-0.308890
0.211300	-0.308566
0.211400	-0.304346
0.211500	-0.301425
0.211600	-0.287468
0.211700	-0.321549
0.211800	-0.349138
0.211900	-0.407888
0.212000	-0.441644
0.212100	-0.468909
0.212200	-0.453329
0.212300	-0.463716
0.212400	-0.495200
0.212500	-0.628928
0.212600	-0.700336
0.212700	-0.702283
0.212800	-0.628603
0.212900	-0.585109
0.213000	-0.621787
0.213100	-0.737338
0.213200	-0.838932
0.213300	-0.863601
0.213400	-0.803878
0.213500	-0.745453
0.213600	-0.771095
0.213700	-0.848021
0.213800	-0.915209
0.213900	-0.943772
0.214000	-0.955133
0.214100	-0.964221
0.214200	-1.006092
0.214300	-1.059973
0.214400	-1.089185
0.214500	-1.107037
0.214600	-1.128784
0.214700	-1.164488
0.214800	-1.201491
0.214900	-1.216097
0.215000	-1.206035
0.215100	-1.186235
0.215200	-1.197920
0.215300	-1.262188
0.215400	-1.308603
0.215500	-1.326130
0.215600	-1.329051
0.215700	-1.307954
0.215800	-1.320612
0.215900	-1.330025
0.216000	-1.328402
0.216100	-1.325481
0.216200	-1.321911
0.216300	-1.330999
0.216400	-1.327753
0.216500	-1.334245
0.216600	-1.335219
0.216700	-1.340736
0.216800	-1.349500
0.216900	-1.360211
0.217000	-1.369300
0.217100	-1.384555
0.217200	-1.397863
0.217300	-1.418312
0.217400	-1.432918
0.217500	-1.464078
0.217600	-1.563075
0.217700	-1.732183
0.217800	-1.815601
0.217900	-1.778923
0.218000	-1.664345
0.218100	-1.623448
0.218200	-1.714006
0.218300	-1.884737
0.218400	-1.998341
0.218500	-1.994446
0.218600	-1.922064
0.218700	-1.866560
0.218800	-1.886035
0.218900	-1.965883
0.219000	-2.044107
0.219100	-2.080785
0.219200	-2.063907
0.219300	-2.054818
0.219400	-2.054494
0.219500	-2.071047
0.219600	-2.087601
0.219700	-2.088575
0.219800	-2.094742
0.219900	-2.104804
0.220000	-2.139210
0.220100	-2.168422
0.220200	-2.176862
0.220300	-2.161282
0.220400	-2.172642
0.220500	-2.203477
0.220600	-2.240480
0.220700	-2.224900
0.220800	-2.139534
0.220900	-2.078513
0.221000	-2.111296
0.221100	-2.210294
0.221200	-2.313836
0.221300	-2.320327
0.221400	-2.236909
0.221500	-2.142456
0.221600	-2.120059
0.221700	-2.201205
0.221800	-2.318704
0.221900	-2.383296
0.222000	-2.354084
0.222100	-2.288518
0.222200	-2.243726
0.222300	-2.233664
0.222400	-2.255411
0.222500	-2.259306
0.222600	-2.245349
0.222700	-2.222303
0.222800	-2.191468
0.222900	-2.152842
0.223000	-2.088575
0.223100	-2.012622
0.223200	-1.948030
0.223300	-1.900317
0.223400	-1.862016
0.223500	-1.824364
0.223600	-1.743219
0.223700	-1.652011
0.223800	-1.524775
0.223900	-1.429023
0.224000	-1.366703
0.224100	-1.311524
0.224200	-1.245309
0.224300	-1.169357
0.224400	-1.085615
0.224500	-1.009013
0.224600	-0.942149
0.224700	-0.898980
0.224800	-0.863276
0.224900	-0.836336
0.225000	-0.812966
0.225100	-0.805500
0.225200	-0.776937
0.225300	-0.768823
0.225400	-0.746751
0.225500	-0.748374
0.225600	-0.740909
0.225700	-0.761357
0.225800	-0.753243
0.225900	-0.702608
0.226000	-0.562713
0.226100	-0.446837
0.226200	-0.463067
0.226300	-0.602312
0.226400	-0.696116
0.226500	-0.673396
0.226600	-0.539992
0.226700	-0.434503
0.226800	-0.412432
0.226900	-0.485787
0.227000	-0.565959
0.227100	-0.580241
0.227200	-0.522465
0.227300	-0.450732
0.227400	-0.404317
0.227500	-0.410809
0.227600	-0.422494
0.227700	-0.447811
0.227800	-0.458847
0.227900	-0.460145
0.228000	-0.455601
0.228100	-0.456250
0.228200	-0.462742
0.228300	-0.472155
0.228400	-0.497472
0.228500	-0.538370
0.228600	-0.575047
0.228700	-0.612699
0.228800	-0.626980
0.228900	-0.624384
0.229000	-0.626656
0.229100	-0.695792
0.229200	-0.814913
0.229300	-0.863601
0.229400	-0.849319
0.229500	-0.769472
0.229600	-0.750646
0.229700	-0.809720
0.229800	-0.939877
0.229900	-1.026541
0.230000	-1.038226
0.230100	-0.968116
0.230200	-0.916832
0.230300	-0.947667
0.230400	-1.030111
0.230500	-1.087238
0.230600	-1.120345
0.230700	-1.123266
0.230800	-1.130732
0.230900	-1.153777
0.231000	-1.201491
0.231100	-1.227457
0.231200	-1.240765
0.231300	-1.251801
0.231400	-1.273872
0.231500	-1.282961
0.231600	-1.278092
0.231700	-1.260889
0.231800	-1.245634
0.231900	-1.273223
0.232000	-1.326130
0.232100	-1.348202
0.232200	-1.346903
0.232300	-1.342359
0.232400	-1.330674
0.232500	-1.326779
0.232600	-1.313472
0.232700	-1.289777
0.232800	-1.267705
0.232900	-1.251152
0.233000	-1.226159
0.233100	-1.209930
0.233200	-1.190779
0.233300	-1.182665
0.233400	-1.180068
0.233500	-1.183963
0.233600	-1.183314
0.233700	-1.186884
0.233800	-1.197271
0.233900	-1.209930
0.234000	-1.225185
0.234100	-1.259591
0.234200	-1.311524
0.234300	-1.449472
0.234400	-1.597806
0.234500	-1.656231
0.234600	-1.600402
0.234700	-1.503352
0.234800	-1.503677
0.234900	-1.627667
0.235000	-1.788985
0.235100	-1.888632
0.235200	-1.880842
0.235300	-1.823066
0.235400	-1.797749
0.235500	-1.847410
0.235600	-1.945434
0.235700	-2.035019
0.235800	-2.074293
0.235900	-2.073320
0.236000	-2.084680
0.236100	-2.102857
0.236200	-2.132394
0.236300	-2.159334
0.236400	-2.180757
0.236500	-2.204127
0.236600	-2.229119
0.236700	-2.268394
0.236800	-2.295010
0.236900	-2.304098
0.237000	-2.303124
0.237100	-2.326494
0.237200	-2.363497
0.237300	-2.386542
0.237400	-2.346619
0.237500	-2.256384
0.237600	-2.231391
0.237700	-2.282676
0.237800	-2.383296
0.237900	-2.468662
0.238000	-2.451134
0.238100	-2.357330
0.238200	-2.285597
0.238300	-2.293062
0.238400	-2.395631
0.238500	-2.503392
0.238600	-2.533903
0.238700	-2.493006
0.238800	-2.437826
0.238900	-2.413158
0.239000	-2.424194
0.239100	-2.442046
0.239200	-2.438476
0.239300	-2.423869
0.239400	-2.395955
0.239500	-2.361549
0.239600	-2.321626
0.239700	-2.254437
0.239800	-2.173616
0.239900	-2.101558
0.240000	-2.060336
0.240100	-2.026904
0.240200	-1.977243
0.240300	-1.877271
0.240400	-1.784765
0.240500	-1.662722
0.240600	-1.578331
0.240700	-1.513414
0.240800	-1.447849
0.240900	-1.375467
0.241000	-1.303085
0.241100	-1.211228
0.241200	-1.126188
0.241300	-1.055104
0.241400	-1.005768
0.241500	-0.972985
0.241600	-0.939553
0.241700	-0.923324
0.241800	-0.900603
0.241900	-0.875610
0.242000	-0.848994
0.242100	-0.826598
0.242200	-0.804851
0.242300	-0.803878
0.242400	-0.806799
0.242500	-0.789271
0.242600	-0.712670
0.242700	-0.548432
0.242800	-0.474427
0.242900	-0.531229
0.243000	-0.686703
0.243100	-0.745453
0.243200	-0.681186
0.243300	-0.551028
0.243400	-0.462093
0.243500	-0.476699
0.243600	-0.550054
0.243700	-0.625357
0.243800	-0.615295
0.243900	-0.553300
0.244000	-0.481892
0.244100	-0.455926
0.244200	-0.468260
0.244300	-0.486761
0.244400	-0.490331
0.244500	-0.484814
0.244600	-0.481243
0.244700	-0.490656
0.244800	-0.492604
0.244900	-0.490656
0.245000	-0.484489
0.245100	-0.520518
0.245200	-0.561415
0.245300	-0.615620
0.245400	-0.643534
0.245500	-0.643534
0.245600	-0.634121
0.245700	-0.638341
0.245800	-0.732794
0.245900	-0.830818
0.246000	-0.860679
0.246100	-0.816212
0.246200	-0.733443
0.246300	-0.729873
0.246400	-0.809395
0.246500	-0.926245
0.246600	-0.971037
0.246700	-0.932412
0.246800	-0.848670
0.246900	-0.818808
0.247000	-0.859706
0.247100	-0.933386
0.247200	-0.972011
0.247300	-0.979476
0.247400	-0.952536
0.247500	-0.956107
0.247600	-0.984994
0.247700	-1.030760
0.247800	-1.076851
0.247900	-1.093405
0.248000	-1.105739
0.248100	-1.117099
0.248200	-1.126512
0.248300	-1.120345
0.248400	-1.102493
0.248500	-1.093405
0.248600	-1.119047
0.248700	-1.166436
0.248800	-1.187534
0.248900	-1.166111
0.249000	-1.132030
0.249100	-1.130407
0.249200	-1.132355
0.249300	-1.130407
0.249400	-1.122617
0.249500	-1.120994
0.249600	-1.114178
0.249700	-1.107362
0.249800	-1.115152
0.249900	-1.107362
0.250000	-1.108985
0.250100	-1.109309
0.250200	-1.108660
0.250300	-1.110932
0.250400	-1.113853
0.250500	-1.120020
0.250600	-1.133978
0.250700	-1.153128
0.250800	-1.182016
0.250900	-1.244335
0.251000	-1.393643
0.251100	-1.528345
0.251200	-1.548145
0.251300	-1.462455
0.251400	-1.379686
0.251500	-1.408250
0.251600	-1.553013
0.251700	-1.710760
0.251800	-1.782169
0.251900	-1.743543
0.252000	-1.686417
0.252100	-1.681873
0.252200	-1.758150
0.252300	-1.855524
0.252400	-1.925959
0.252500	-1.940565
0.252600	-1.936346
0.252700	-1.943162
0.252800	-1.962961
0.252900	-1.993148
0.253000	-2.020737
0.253100	-2.037940
0.253200	-2.050274
0.253300	-2.081110
0.253400	-2.115840
0.253500	-2.143105
0.253600	-2.142780
0.253700	-2.151869
0.253800	-2.171344
0.253900	-2.207697
0.254000	-2.228470
0.254100	-2.182704
0.254200	-2.109348
0.254300	-2.105453
0.254400	-2.174589
0.254500	-2.286895
0.254600	-2.342399
0.254700	-2.302151
0.254800	-2.205100
0.254900	-2.144079
0.255000	-2.184002
0.255100	-2.288843
0.255200	-2.372585
0.255300	-2.376156
0.255400	-2.324547
0.255500	-2.261253
0.255600	-2.236260
0.255700	-2.247296
0.255800	-2.264824
0.255900	-2.274236
0.256000	-2.252165
0.256100	-2.217759
0.256200	-2.174589
0.256300	-2.120384
0.256400	-2.048327
0.256500	-1.983410
0.256600	-1.919143
0.256700	-1.877271
0.256800	-1.841567
0.256900	-1.781195
0.257000	-1.683496
0.257100	-1.596507
0.257200	-1.480956
0.257300	-1.407276
0.257400	-1.338789
0.257500	-1.273223
0.257600	-1.203438
0.257700	-1.130407
0.257800	-1.041147
0.257900	-0.966169
0.258000	-0.908718
0.258100	-0.871715
0.258200	-0.845424
0.258300	-0.816536
0.258400	-0.807773
0.258500	-0.779858
0.258600	-0.750322
0.258700	-0.725653
0.258800	-0.703906
0.258900	-0.695792
0.259000	-0.700985
0.259100	-0.701959
0.259200	-0.669825
0.259300	-0.552976
0.259400	-0.412756
0.259500	-0.356604
0.259600	-0.452355
0.259700	-0.585109
0.259800	-0.601988
0.259900	-0.504613
0.260000	-0.364069
0.260100	-0.307916
0.260200	-0.338103
0.260300	-0.434828
0.260400	-0.475725
0.260500	-0.444565
0.260600	-0.361148
0.260700	-0.297530
0.260800	-0.285845
0.260900	-0.303372
0.261000	-0.320575
0.261100	-0.321873
0.261200	-0.309864
0.261300	-0.298828
0.261400	-0.297205
0.261500	-0.310838
0.261600	-0.315382
0.261700	-0.342647
0.261800	-0.377702
0.261900	-0.421520
0.262000	-0.463716
0.262100	-0.498771
0.262200	-0.490007
0.262300	-0.503964
0.262400	-0.524088
0.262500	-0.651324
0.262600	-0.725653
0.262700	-0.750322
0.262800	-0.687677
0.262900	-0.626980
0.263000	-0.649377
0.263100	-0.760708
0.263200	-0.872040
0.263300	-0.907744
0.263400	-0.851267
0.263500	-0.783104
0.263600	-0.783429
0.263700	-0.855486
0.263800	-0.926245
0.263900	-0.960002
0.264000	-0.974608
0.264100	-0.963896
0.264200	-0.973634
0.264300	-1.014207
0.264400	-1.062569
0.264500	-1.095677
0.264600	-1.093405
0.264700	-1.092756
0.264800	-1.111906
0.264900	-1.111257
0.265000	-1.101844
0.265100	-1.100546
0.265200	-1.109309
0.265300	-1.167734
0.265400	-1.227133
0.265500	-1.252450
0.265600	-1.263810
0.265700	-1.263810
0.265800	-1.271276
0.265900	-1.265433
0.266000	-1.255371
0.266100	-1.241090
0.266200	-1.224211
0.266300	-1.215123
0.266400	-1.202464
0.266500	-1.197920
0.266600	-1.189157
0.266700	-1.185911
0.266800	-1.176498
0.266900	-1.181042
0.267000	-1.183639
0.267100	-1.186884
0.267200	-1.196946
0.267300	-1.208631
0.267400	-1.232975
0.267500	-1.265758
0.267600	-1.356966
0.267700	-1.525099
0.267800	-1.649739
0.267900	-1.632861
0.268000	-1.538083
0.268100	-1.492966
0.268200	-1.569892
0.268300	-1.744842
0.268400	-1.883114
0.268500	-1.915248
0.268600	-1.853577
0.268700	-1.807162
0.268800	-1.837997
0.268900	-1.932451
0.269000	-2.038914
0.269100	-2.085329
0.269200	-2.087926
0.269300	-2.080136
0.269400	-2.102207
0.269500	-2.135639
0.269600	-2.167773
0.269700	-2.184002
0.269800	-2.205100
0.269900	-2.215162
0.270000	-2.259955
0.270100	-2.291764
0.270200	-2.310590
0.270300	-2.301177
0.270400	-2.313836
0.270500	-2.342074
0.270600	-2.378103
0.270700	-2.368041
0.270800	-2.301501
0.270900	-2.221979
0.271000	-2.238857
0.271100	-2.327144
0.271200	-2.439774
0.271300	-2.463469
0.271400	-2.387841
0.271500	-2.284623
0.271600	-2.245349
0.271700	-2.305072
0.271800	-2.424843
0.271900	-2.500147
0.272000	-2.479373
0.272100	-2.406991
0.272200	-2.357654
0.272300	-2.348566
0.272400	-2.370638
0.272500	-2.379077
0.272600	-2.377779
0.272700	-2.358304
0.272800	-2.320327
0.272900	-2.288194
0.273000	-2.231716
0.273100	-2.148298
0.273200	-2.074293
0.273300	-2.017491
0.273400	-1.970427
0.273500	-1.935372
0.273600	-1.860718
0.273700	-1.762045
0.273800	-1.660126
0.273900	-1.550741
0.274000	-1.479333
0.274100	-1.417013
0.274200	-1.345930
0.274300	-1.262512
0.274400	-1.175849
0.274500	-1.081071
0.274600	-1.004469
0.274700	-0.952212
0.274800	-0.919429
0.274900	-0.890216
0.275000	-0.865873
0.275100	-0.848345
0.275200	-0.818159
0.275300	-0.782780
0.275400	-0.753243
0.275500	-0.736365
0.275600	-0.727601
0.275700	-0.733768
0.275800	-0.722083
0.275900	-0.686054
0.276000	-0.536747
0.276100	-0.416651
0.276200	-0.388088
0.276300	-0.527009
0.276400	-0.633147
0.276500	-0.624059
0.276600	-0.490981
0.276700	-0.370236
0.276800	-0.332260
0.276900	-0.389711
0.277000	-0.481892
0.277100	-0.506561
0.277200	-0.444890
0.277300	-0.352060
0.277400	-0.305644
0.277500	-0.299477
0.277600	-0.329339
0.277700	-0.338752
0.277800	-0.329988
0.277900	-0.318952
0.278000	-0.312461
0.278100	-0.317005
0.278200	-0.322523
0.278300	-0.327391
0.278400	-0.342322
0.278500	-0.374456
0.278600	-0.415028
0.278700	-0.454303
0.278800	-0.474427
0.278900	-0.472155
0.279000	-0.477348
0.279100	-0.512078
0.279200	-0.651649
0.279300	-0.720135
0.279400	-0.723057
0.279500	-0.645482
0.279600	-0.599391
0.279700	-0.645157
0.279800	-0.783104
0.279900	-0.891515
0.280000	-0.913586
0.280100	-0.840880
0.280200	-0.778560
0.280300	-0.789596
0.280400	-0.863601
0.280500	-0.933386
0.280600	-0.970713
0.280700	-0.976555
0.280800	-0.960975
0.280900	-0.984021
0.281000	-1.020049
0.281100	-1.066140
0.281200	-1.091782
0.281300	-1.107686
0.281400	-1.131381
0.281500	-1.145662
0.281600	-1.143715
0.281700	-1.128460
0.281800	-1.116450
0.281900	-1.125538
0.282000	-1.188832
0.282100	-1.229405
0.282200	-1.232651
0.282300	-1.185586
0.282400	-1.169682
0.282500	-1.184612
0.282600	-1.180068
0.282700	-1.180393
0.282800	-1.169032
0.282900	-1.157672
0.283000	-1.157672
0.283100	-1.150531
0.283200	-1.150531
0.283300	-1.151505
0.283400	-1.148584
0.283500	-1.156698
0.283600	-1.162216
0.283700	-1.179094
0.283800	-1.195324
0.283900	-1.210579
0.284000	-1.240116
0.284100	-1.268679
0.284200	-1.309901
0.284300	-1.431619
0.284400	-1.590989
0.284500	-1.682522
0.284600	-1.627343
0.284700	-1.533214
0.284800	-1.493615
0.284900	-1.594560
0.285000	-1.761071
0.285100	-1.881491
0.285200	-1.890579
0.285300	-1.825663
0.285400	-1.777300
0.285500	-1.809434
0.285600	-1.904861
0.285700	-1.998341
0.285800	-2.043133
0.285900	-2.034370
0.286000	-2.032097
0.286100	-2.039887
0.286200	-2.062608
0.286300	-2.099935
0.286400	-2.132394
0.286500	-2.145702
0.286600	-2.165826
0.286700	-2.191143
0.286800	-2.216461
0.286900	-2.218084
0.287000	-2.222628
0.287100	-2.240480
0.287200	-2.281702
0.287300	-2.310914
0.287400	-2.274886
0.287500	-2.191143
0.287600	-2.137262
0.287700	-2.164852
0.287800	-2.257358
0.287900	-2.351812
0.288000	-2.349215
0.288100	-2.262876
0.288200	-2.159009
0.288300	-2.132718
0.288400	-2.216461
0.288500	-2.327793
0.288600	-2.386542
0.288700	-2.358628
0.288800	-2.289816
0.288900	-2.237883
0.289000	-2.236260
0.289100	-2.253788
0.289200	-2.266771
0.289300	-2.266446
0.289400	-2.251840
0.289500	-2.217434
0.289600	-2.178809
0.289700	-2.105778
0.289800	-2.026255
0.289900	-1.966532
0.290000	-1.923038
0.290100	-1.890904
0.290200	-1.855524
0.290300	-1.765940
0.290400	-1.678627
0.290500	-1.592288
0.290600	-1.488746
0.290700	-1.423505
0.290800	-1.360861
0.290900	-1.290102
0.291000	-1.220316
0.291100	-1.127486
0.291200	-1.045367
0.291300	-0.975581
0.291400	-0.930140
0.291500	-0.892813
0.291600	-0.868469
0.291700	-0.848670
0.291800	-0.824002
0.291900	-0.809395
0.292000	-0.776937
0.292100	-0.768823
0.292200	-0.745777
0.292300	-0.751944
0.292400	-0.758761
0.292500	-0.744154
0.292600	-0.692871
0.292700	-0.524737
0.292800	-0.441644
0.292900	-0.441644
0.293000	-0.606207
0.293100	-0.673396
0.293200	-0.642885
0.293300	-0.506236
0.293400	-0.395554
0.293500	-0.392632
0.293600	-0.444241
0.293700	-0.522140
0.293800	-0.525711
0.293900	-0.457549
0.294000	-0.388413
0.294100	-0.338427
0.294200	-0.333558
0.294300	-0.338427
0.294400	-0.355630
0.294500	-0.358227
0.294600	-0.350761
0.294700	-0.343945
0.294800	-0.333558
0.294900	-0.332585
0.295000	-0.320900
0.295100	-0.374456
0.295200	-0.403019
0.295300	-0.471506
0.295400	-0.505262
0.295500	-0.511105
0.295600	-0.504613
0.295700	-0.515324
0.295800	-0.586732
0.295900	-0.704231
0.296000	-0.752594
0.296100	-0.734742
0.296200	-0.667878
0.296300	-0.648727
0.296400	-0.717539
0.296500	-0.842827
0.296600	-0.909042
0.296700	-0.907095
0.296800	-0.843801
0.296900	-0.807448
0.297000	-0.831467
0.297100	-0.896059
0.297200	-0.946044
0.297300	-0.969414
0.297400	-0.966818
0.297500	-0.973959
0.297600	-1.004794
0.297700	-1.048937
0.297800	-1.080097
0.297900	-1.108660
0.298000	-1.131381
0.298100	-1.157672
0.298200	-1.172927
0.298300	-1.169032
0.298400	-1.149233
0.298500	-1.139171
0.298600	-1.168708
0.298700	-1.222913
0.298800	-1.256345
0.298900	-1.259591
0.299000	-1.216746
0.299100	-1.210579
0.299200	-1.219667
0.299300	-1.213825
0.299400	-1.211877
0.299500	-1.202464
0.299600	-1.193376
0.299700	-1.182016
0.299800	-1.176822
0.299900	-1.175524
0.300000	-1.178121
0.300100	-1.177147
0.300200	-1.173577
0.300300	-1.177147
0.300400	-1.178121
0.300500	-1.186235
0.300600	-1.199219
0.300700	-1.215772
0.300800	-1.236870
0.300900	-1.291400
0.301000	-1.432918
0.301100	-1.590665
0.301200	-1.621825
0.301300	-1.555935
0.301400	-1.471868
0.301500	-1.500756
0.301600	-1.631562
0.301700	-1.790608
0.301800	-1.884737
0.301900	-1.865586
0.302000	-1.813978
0.302100	-1.797424
0.302200	-1.861042
0.302300	-1.946732
0.302400	-2.027229
0.302500	-2.068775
0.302600	-2.068775
0.302700	-2.069100
0.302800	-2.083706
0.302900	-2.103181
0.303000	-2.122981
0.303100	-2.129472
0.303200	-2.138885
0.303300	-2.165501
0.303400	-2.181081
0.303500	-2.196661
0.303600	-2.197310
0.303700	-2.189845
0.303800	-2.208671
0.303900	-2.239181
0.304000	-2.254437
0.304100	-2.201205
0.304200	-2.109348
0.304300	-2.086627
0.304400	-2.141482
0.304500	-2.241129
0.304600	-2.309616
0.304700	-2.268394
0.304800	-2.163229
0.304900	-2.091496
0.305000	-2.123630
0.305100	-2.214838
0.305200	-2.298256
0.305300	-2.312537
0.305400	-2.265148
0.305500	-2.219706
0.305600	-2.203802
0.305700	-2.216785
0.305800	-2.234637
0.305900	-2.230742
0.306000	-2.213539
0.306100	-2.190169
0.306200	-2.166475
0.306300	-2.132394
0.306400	-2.059362
0.306500	-1.978866
0.306600	-1.912002
0.306700	-1.869806
0.306800	-1.836699
0.306900	-1.792880
0.307000	-1.691935
0.307100	-1.602999
0.307200	-1.497185
0.307300	-1.418312
0.307400	-1.353071
0.307500	-1.283610
0.307600	-1.215123
0.307700	-1.143390
0.307800	-1.059648
0.307900	-0.982073
0.308000	-0.923648
0.308100	-0.886321
0.308200	-0.853863
0.308300	-0.832765
0.308400	-0.822379
0.308500	-0.807773
0.308600	-0.779209
0.308700	-0.763305
0.308800	-0.736689
0.308900	-0.740259
0.309000	-0.738961
0.309100	-0.754541
0.309200	-0.728899
0.309300	-0.637042
0.309400	-0.484814
0.309500	-0.412107
0.309600	-0.482217
0.309700	-0.622761
0.309800	-0.681186
0.309900	-0.601338
0.310000	-0.461119
0.310100	-0.372184
0.310200	-0.379974
0.310300	-0.478322
0.310400	-0.533501
0.310500	-0.520842
0.310600	-0.452680
0.310700	-0.389711
0.310800	-0.352384
0.310900	-0.344594
0.311000	-0.362446
0.311100	-0.368938
0.311200	-0.375754
0.311300	-0.364069
0.311400	-0.355955
0.311500	-0.355305
0.311600	-0.358227
0.311700	-0.354981
0.311800	-0.405616
0.311900	-0.429959
0.312000	-0.494551
0.312100	-0.519868
0.312200	-0.538370
0.312300	-0.522790
0.312400	-0.550379
0.312500	-0.642560
0.312600	-0.750646
0.312700	-0.778560
0.312800	-0.740259
0.312900	-0.659763
0.313000	-0.664632
0.313100	-0.759734
0.313200	-0.882426
0.313300	-0.920727
0.313400	-0.894761
0.313500	-0.823028
0.313600	-0.803553
0.313700	-0.861978
0.313800	-0.950589
0.313900	-0.982398
0.314000	-0.988565
0.314100	-0.983696
0.314200	-1.003496
0.314300	-1.043095
0.314400	-1.089834
0.314500	-1.129109
0.314600	-1.144689
0.314700	-1.167409
0.314800	-1.196297
0.314900	-1.216746
0.315000	-1.205061
0.315100	-1.189157
0.315200	-1.182989
0.315300	-1.205386
0.315400	-1.244985
0.315500	-1.255047
0.315600	-1.239142
0.315700	-1.199219
0.315800	-1.202140
0.315900	-1.207333
0.316000	-1.198569
0.316100	-1.192402
0.316200	-1.170980
0.316300	-1.164164
0.316400	-1.155075
0.316500	-1.149233
0.316600	-1.150856
0.316700	-1.149882
0.316800	-1.156374
0.316900	-1.158970
0.317000	-1.177472
0.317100	-1.186884
0.317200	-1.208307
0.317300	-1.225185
0.317400	-1.260240
0.317500	-1.293347
0.317600	-1.368001
0.317700	-1.532240
0.317800	-1.673758
0.317900	-1.694856
0.318000	-1.612412
0.318100	-1.553338
0.318200	-1.592612
0.318300	-1.754255
0.318400	-1.910703
0.318500	-1.977243
0.318600	-1.941863
0.318700	-1.887009
0.318800	-1.887983
0.318900	-1.962637
0.319000	-2.061959
0.319100	-2.120709
0.319200	-2.137912
0.319300	-2.130122
0.319400	-2.132718
0.319500	-2.148623
0.319600	-2.172317
0.319700	-2.194064
0.319800	-2.198933
0.319900	-2.204127
0.320000	-2.219706
0.320100	-2.250866
0.320200	-2.258981
0.320300	-2.251191
0.320400	-2.242103
0.320500	-2.252814
0.320600	-2.274886
0.320700	-2.280079
0.320800	-2.215162
0.320900	-2.138236
0.321000	-2.130446
0.321100	-2.193415
0.321200	-2.303124
0.321300	-2.339802
0.321400	-2.275210
0.321500	-2.171993
0.321600	-2.123630
0.321700	-2.168098
0.321800	-2.275859
0.321900	-2.353435
0.322000	-2.353110
0.322100	-2.293711
0.322200	-2.245349
0.322300	-2.231716
0.322400	-2.243726
0.322500	-2.263201
0.322600	-2.256060
0.322700	-2.242427
0.322800	-2.216136
0.322900	-2.181081
0.323000	-2.130446
0.323100	-2.052546
0.323200	-1.983085
0.323300	-1.924661
0.323400	-1.878570
0.323500	-1.847410
0.323600	-1.781195
0.323700	-1.689987
0.323800	-1.621500
0.323900	-1.519257
0.324000	-1.442006
0.324100	-1.377739
0.324200	-1.319314
0.324300	-1.246608
0.324400	-1.169032
0.324500	-1.085939
0.324600	-1.010636
0.324700	-0.970713
0.324800	-0.928517
0.324900	-0.916508
0.325000	-0.888918
0.325100	-0.879830
0.325200	-0.849644
0.325300	-0.836336
0.325400	-0.814264
0.325500	-0.802579
0.325600	-0.799658
0.325700	-0.808746
0.325800	-0.813290
0.325900	-0.774990
0.326000	-0.666255
0.326100	-0.519544
0.326200	-0.456575
0.326300	-0.574074
0.326400	-0.685081
0.326500	-0.712021
0.326600	-0.599391
0.326700	-0.484814
0.326800	-0.428661
0.326900	-0.466637
0.327000	-0.553625
0.327100	-0.587706
0.327200	-0.551677
0.327300	-0.472479
0.327400	-0.401396
0.327500	-0.389711
0.327600	-0.383869
0.327700	-0.407563
0.327800	-0.400098
0.327900	-0.392308
0.328000	-0.370236
0.328100	-0.362771
0.328200	-0.366666
0.328300	-0.356279
0.328400	-0.378026
0.328500	-0.409511
0.328600	-0.460794
0.328700	-0.497472
0.328800	-0.528632
0.328900	-0.528308
0.329000	-0.523114
0.329100	-0.551353
0.329200	-0.669825
0.329300	-0.760708
0.329400	-0.775639
0.329500	-0.717863
0.329600	-0.646455
0.329700	-0.682484
0.329800	-0.788622
0.329900	-0.900928
0.330000	-0.928517
0.330100	-0.869768
0.330200	-0.799658
0.330300	-0.799009
0.330400	-0.873663
0.330500	-0.950264
0.330600	-0.977204
0.330700	-0.979801
0.330800	-0.965195
0.330900	-0.985319
0.331000	-1.027515
0.331100	-1.072307
0.331200	-1.103791
0.331300	-1.116450
0.331400	-1.135600
0.331500	-1.153128
0.331600	-1.152803
0.331700	-1.140469
0.331800	-1.120670
0.331900	-1.119696
0.332000	-1.174875
0.332100	-1.222588
0.332200	-1.244660
0.332300	-1.210579
0.332400	-1.182665
0.332500	-1.192727
0.332600	-1.191429
0.332700	-1.186560
0.332800	-1.179744
0.332900	-1.176498
0.333000	-1.168383
0.333100	-1.168383
0.333200	-1.163515
0.333300	-1.161892
0.333400	-1.157023
0.333500	-1.168059
0.333600	-1.170980
0.333700	-1.180068
0.333800	-1.180393
0.333900	-1.186235
0.334000	-1.198245
0.334100	-1.225510
0.334200	-1.259915
0.334300	-1.356316
0.334400	-1.515686
0.334500	-1.630589
0.334600	-1.615009
0.334700	-1.515037
0.334800	-1.473815
0.334900	-1.556259
0.335000	-1.722770
0.335100	-1.854226
0.335200	-1.873052
0.335300	-1.812679
0.335400	-1.759448
0.335500	-1.786713
0.335600	-1.880842
0.335700	-1.983085
0.335800	-2.016517
0.335900	-2.018140
0.336000	-2.001262
0.336100	-2.012298
0.336200	-2.031124
0.336300	-2.059687
0.336400	-2.074293
0.336500	-2.081434
0.336600	-2.085978
0.336700	-2.118112
0.336800	-2.151544
0.336900	-2.161282
0.337000	-2.164852
0.337100	-2.170370
0.337200	-2.188222
0.337300	-2.213864
0.337400	-2.207372
0.337500	-2.125902
0.337600	-2.054818
0.337700	-2.077539
0.337800	-2.163554
0.337900	-2.264824
0.338000	-2.280404
0.338100	-2.199258
0.338200	-2.097988
0.338300	-2.073320
0.338400	-2.145702
0.338500	-2.266771
0.338600	-2.335583
0.338700	-2.306046
0.338800	-2.229769
0.338900	-2.175563
0.339000	-2.175888
0.339100	-2.198933
0.339200	-2.224575
0.339300	-2.226523
0.339400	-2.199907
0.339500	-2.162255
0.339600	-2.118761
0.339700	-2.059038
0.339800	-1.985033
0.339900	-1.925310
0.340000	-1.869481
0.340100	-1.834751
0.340200	-1.803916
0.340300	-1.727963
0.340400	-1.635133
0.340500	-1.565997
0.340600	-1.459209
0.340700	-1.395591
0.340800	-1.347228
0.340900	-1.286207
0.341000	-1.211877
0.341100	-1.133004
0.341200	-1.046665
0.341300	-0.970388
0.341400	-0.929166
0.341500	-0.905796
0.341600	-0.872689
0.341700	-0.864574
0.341800	-0.840231
0.341900	-0.812641
0.342000	-0.779858
0.342100	-0.758761
0.342200	-0.743181
0.342300	-0.738961
0.342400	-0.744804
0.342500	-0.738312
0.342600	-0.686054
0.342700	-0.545835
0.342800	-0.414704
0.342900	-0.387439
0.343000	-0.533176
0.343100	-0.632498
0.343200	-0.610102
0.343300	-0.489033
0.343400	-0.365692
0.343500	-0.325444
0.343600	-0.389062
0.343700	-0.476374
0.343800	-0.499420
0.343900	-0.453005
0.344000	-0.366990
0.344100	-0.309539
0.344200	-0.307592
0.344300	-0.332585
0.344400	-0.353683
0.344500	-0.358876
0.344600	-0.343296
0.344700	-0.328041
0.344800	-0.323496
0.344900	-0.328690
0.345000	-0.326093
0.345100	-0.348165
0.345200	-0.380298
0.345300	-0.420222
0.345400	-0.445539
0.345500	-0.463391
0.345600	-0.450732
0.345700	-0.462742
0.345800	-0.501692
0.345900	-0.628279
0.346000	-0.684756
0.346100	-0.686054
0.346200	-0.608804
0.346300	-0.566933
0.346400	-0.605883
0.346500	-0.730522
0.346600	-0.825625
0.346700	-0.838608
0.346800	-0.766551
0.346900	-0.696441
0.347000	-0.710073
0.347100	-0.789271
0.347200	-0.860679
0.347300	-0.896383
0.347400	-0.903524
0.347500	-0.894761
0.347600	-0.913911
0.347700	-0.953185
0.347800	-1.004145
0.347900	-1.038875
0.348000	-1.063543
0.348100	-1.081720
0.348200	-1.093729
0.348300	-1.084966
0.348400	-1.073930
0.348500	-1.061596
0.348600	-1.084316
0.348700	-1.141118
0.348800	-1.182340
0.348900	-1.183963
0.349000	-1.145013
0.349100	-1.134951
0.349200	-1.151505
0.349300	-1.153452
0.349400	-1.157672
0.349500	-1.157672
0.349600	-1.160593
0.349700	-1.160593
0.349800	-1.158321
0.349900	-1.153452
0.350000	-1.160593
0.350100	-1.163515
0.350200	-1.177796
0.350300	-1.187858
0.350400	-1.202789
0.350500	-1.218369
0.350600	-1.233300
0.350700	-1.254722
0.350800	-1.274522
0.350900	-1.326130
0.351000	-1.441357
0.351100	-1.607219
0.351200	-1.679925
0.351300	-1.624097
0.351400	-1.528994
0.351500	-1.496211
0.351600	-1.611114
0.351700	-1.772431
0.351800	-1.891878
0.351900	-1.890579
0.352000	-1.823715
0.352100	-1.790283
0.352200	-1.825663
0.352300	-1.924985
0.352400	-2.012298
0.352500	-2.051897
0.352600	-2.057090
0.352700	-2.049300
0.352800	-2.059038
0.352900	-2.073644
0.353000	-2.099935
0.353100	-2.124928
0.353200	-2.141807
0.353300	-2.166150
0.353400	-2.198933
0.353500	-2.221005
0.353600	-2.225549
0.353700	-2.222303
0.353800	-2.238208
0.353900	-2.266771
0.354000	-2.290141
0.354100	-2.262876
0.354200	-2.173940
0.354300	-2.136613
0.354400	-2.176862
0.354500	-2.283974
0.354600	-2.380051
0.354700	-2.378428
0.354800	-2.291439
0.354900	-2.209969
0.355000	-2.206723
0.355100	-2.292089
0.355200	-2.399201
0.355300	-2.447564
0.355400	-2.408939
0.355500	-2.348891
0.355600	-2.305721
0.355700	-2.300852
0.355800	-2.308318
0.355900	-2.310265
0.356000	-2.303449
0.356100	-2.276509
0.356200	-2.236585
0.356300	-2.186274
0.356400	-2.113892
0.356500	-2.027229
0.356600	-1.958093
0.356700	-1.918493
0.356800	-1.885386
0.356900	-1.844164
0.357000	-1.751658
0.357100	-1.659476
0.357200	-1.563725
0.357300	-1.480631
0.357400	-1.418961
0.357500	-1.348851
0.357600	-1.278417
0.357700	-1.198569
0.357800	-1.110283
0.357900	-1.029137
0.358000	-0.960002
0.358100	-0.914885
0.358200	-0.886321
0.358300	-0.852889
0.358400	-0.835687
0.358500	-0.812641
0.358600	-0.783429
0.358700	-0.746751
0.358800	-0.727276
0.358900	-0.710073
0.359000	-0.712995
0.359100	-0.708775
0.359200	-0.692221
0.359300	-0.627630
0.359400	-0.452355
0.359500	-0.367964
0.359600	-0.371210
0.359700	-0.539992
0.359800	-0.596145
0.359900	-0.551028
0.360000	-0.402045
0.360100	-0.304671
0.360200	-0.304671
0.360300	-0.372508
0.360400	-0.446188
0.360500	-0.435802
0.360600	-0.381272
0.360700	-0.284871
0.360800	-0.255983
0.360900	-0.249167
0.361000	-0.260528
0.361100	-0.267668
0.361200	-0.258580
0.361300	-0.244298
0.361400	-0.237482
0.361500	-0.231640
0.361600	-0.223201
0.361700	-0.230666
0.361800	-0.256308
0.361900	-0.294933
0.362000	-0.340050
0.362100	-0.379649
0.362200	-0.372833
0.362300	-0.368938
0.362400	-0.364069
0.362500	-0.457224
0.362600	-0.568556
0.362700	-0.619190
0.362800	-0.597119
0.362900	-0.512403
0.363000	-0.497472
0.363100	-0.573100
0.363200	-0.711047
0.363300	-0.791219
0.363400	-0.780832
0.363500	-0.701634
0.363600	-0.657167
0.363700	-0.695792
0.363800	-0.776288
0.363900	-0.829520
0.364000	-0.852889
0.364100	-0.843801
0.364200	-0.848994
0.364300	-0.878531
0.364400	-0.918455
0.364500	-0.953185
0.364600	-0.963572
0.364700	-0.975906
0.364800	-1.004145
0.364900	-1.019075
0.365000	-1.016803
0.365100	-1.005768
0.365200	-0.998951
0.365300	-1.030111
0.365400	-1.093080
0.365500	-1.133004
0.365600	-1.145987
0.365700	-1.133328
0.365800	-1.129758
0.365900	-1.133328
0.366000	-1.135600
0.366100	-1.129758
0.366200	-1.129433
0.366300	-1.127486
0.366400	-1.130732
0.366500	-1.129433
0.366600	-1.124565
0.366700	-1.129758
0.366800	-1.138522
0.366900	-1.142417
0.367000	-1.149233
0.367100	-1.154102
0.367200	-1.157672
0.367300	-1.172278
0.367400	-1.174550
0.367500	-1.193701
0.367600	-1.238818
0.367700	-1.369624
0.367800	-1.505300
0.367900	-1.536460
0.368000	-1.453367
0.368100	-1.354693
0.368200	-1.363782
0.368300	-1.493615
0.368400	-1.670188
0.368500	-1.744842
0.368600	-1.722121
0.368700	-1.652660
0.368800	-1.627992
0.368900	-1.681873
0.369000	-1.784116
0.369100	-1.864937
0.369200	-1.879868
0.369300	-1.875973
0.369400	-1.875973
0.369500	-1.889930
0.369600	-1.924336
0.369700	-1.947706
0.369800	-1.970102
0.369900	-1.982761
0.370000	-2.009701
0.370100	-2.046704
0.370200	-2.066503
0.370300	-2.073644
0.370400	-2.073644
0.370500	-2.101558
0.370600	-2.136289
0.370700	-2.151219
0.370800	-2.099935
0.370900	-2.012622
0.371000	-1.990226
0.371100	-2.047677
0.371200	-2.166475
0.371300	-2.247296
0.371400	-2.220356
0.371500	-2.125902
0.371600	-2.051572
0.371700	-2.080136
0.371800	-2.190169
0.371900	-2.309291
0.372000	-2.347592
0.372100	-2.306695
0.372200	-2.259630
0.372300	-2.240155
0.372400	-2.255735
0.372500	-2.280728
0.372600	-2.288843
0.372700	-2.276833
0.372800	-2.253139
0.372900	-2.222303
0.373000	-2.161282
0.373100	-2.083057
0.373200	-2.000288
0.373300	-1.936670
0.373400	-1.899668
0.373500	-1.870455
0.373600	-1.821443
0.373700	-1.738350
0.373800	-1.659152
0.373900	-1.587419
0.374000	-1.494264
0.374100	-1.419285
0.374200	-1.354369
0.374300	-1.281338
0.374400	-1.192402
0.374500	-1.100221
0.374600	-1.020698
0.374700	-0.957080
0.374800	-0.919104
0.374900	-0.887295
0.375000	-0.860355
0.375100	-0.841854
0.375200	-0.824002
0.375300	-0.800307
0.375400	-0.768498
0.375500	-0.739610
0.375600	-0.726627
0.375700	-0.741882
0.375800	-0.737663
0.375900	-0.729873
0.376000	-0.613348
0.376100	-0.465014
0.376200	-0.376403
0.376300	-0.461768
0.376400	-0.601338
0.376500	-0.648078
0.376600	-0.570503
0.376700	-0.423792
0.376800	-0.349463
0.376900	-0.347840
0.377000	-0.440670
0.377100	-0.494551
0.377200	-0.498771
0.377300	-0.420222
0.377400	-0.351086
0.377500	-0.323496
0.377600	-0.327067
0.377700	-0.342971
0.377800	-0.361472
0.377900	-0.357253
0.378000	-0.345893
0.378100	-0.341024
0.378200	-0.331286
0.378300	-0.324795
0.378400	-0.330962
0.378500	-0.356928
0.378600	-0.398150
0.378700	-0.439697
0.378800	-0.465014
0.378900	-0.471830
0.379000	-0.451382
0.379100	-0.464365
0.379200	-0.554923
0.379300	-0.647754
0.379400	-0.670799
0.379500	-0.627954
0.379600	-0.539343
0.379700	-0.553300
0.379800	-0.642236
0.379900	-0.763305
0.380000	-0.809395
0.380100	-0.768498
0.380200	-0.692221
0.380300	-0.666904
0.380400	-0.724355
0.380500	-0.800632
0.380600	-0.846722
0.380700	-0.859381
0.380800	-0.856784
0.380900	-0.873338
0.381000	-0.903200
0.381100	-0.948641
0.381200	-0.974932
0.381300	-0.988240
0.381400	-1.009013
0.381500	-1.028164
0.381600	-1.032059
0.381700	-1.023295
0.381800	-1.012259
0.381900	-1.009013
0.382000	-1.051534
0.382100	-1.103791
0.382200	-1.134627
0.382300	-1.130407
0.382400	-1.091782
0.382500	-1.094703
0.382600	-1.097300
0.382700	-1.095352
0.382800	-1.091457
0.382900	-1.082369
0.383000	-1.074579
0.383100	-1.067114
0.383200	-1.065815
0.383300	-1.060297
0.383400	-1.064192
0.383500	-1.068412
0.383600	-1.076851
0.383700	-1.083343
0.383800	-1.093729
0.383900	-1.104441
0.384000	-1.108985
0.384100	-1.132355
0.384200	-1.158321
0.384300	-1.227782
0.384400	-1.392994
0.384500	-1.501405
0.384600	-1.515362
0.384700	-1.414741
0.384800	-1.344956
0.384900	-1.385204
0.385000	-1.535161
0.385100	-1.681223
0.385200	-1.738025
0.385300	-1.701348
0.385400	-1.646169
0.385500	-1.651037
0.385600	-1.724718
0.385700	-1.833453
0.385800	-1.897396
0.385900	-1.920116
0.386000	-1.928556
0.386100	-1.942513
0.386200	-1.966856
0.386300	-1.998016
0.386400	-2.026255
0.386500	-2.048327
0.386600	-2.072995
0.386700	-2.109997
0.386800	-2.150246
0.386900	-2.166150
0.387000	-2.164852
0.387100	-2.163554
0.387200	-2.196661
0.387300	-2.227496
0.387400	-2.239831
0.387500	-2.174914
0.387600	-2.101234
0.387700	-2.103830
0.387800	-2.182379
0.387900	-2.295984
0.388000	-2.344671
0.388100	-2.297282
0.388200	-2.194389
0.388300	-2.139534
0.388400	-2.178160
0.388500	-2.286571
0.388600	-2.365120
0.388700	-2.360900
0.388800	-2.296957
0.388900	-2.248919
0.389000	-2.233664
0.389100	-2.244699
0.389200	-2.250866
0.389300	-2.243076
0.389400	-2.221329
0.389500	-2.184976
0.389600	-2.149272
0.389700	-2.105453
0.389800	-2.039563
0.389900	-1.961663
0.390000	-1.897720
0.390100	-1.856823
0.390200	-1.816574
0.390300	-1.742894
0.390400	-1.640326
0.390500	-1.529968
0.390600	-1.414092
0.390700	-1.342359
0.390800	-1.269004
0.390900	-1.201491
0.391000	-1.129109
0.391100	-1.051534
0.391200	-0.966818
0.391300	-0.894111
0.391400	-0.841529
0.391500	-0.813290
0.391600	-0.783429
0.391700	-0.766875
0.391800	-0.747076
0.391900	-0.728899
0.392000	-0.695143
0.392100	-0.673071
0.392200	-0.660088
0.392300	-0.650350
0.392400	-0.661061
0.392500	-0.650675
0.392600	-0.615620
0.392700	-0.495200
0.392800	-0.343945
0.392900	-0.303697
0.393000	-0.414379
0.393100	-0.542914
0.393200	-0.546160
0.393300	-0.435802
0.393400	-0.305320
0.393500	-0.239105
0.393600	-0.283573
0.393700	-0.364394
0.393800	-0.410484
0.393900	-0.357577
0.394000	-0.282924
0.394100	-0.208594
0.394200	-0.198857
0.394300	-0.206322
0.394400	-0.226771
0.394500	-0.224824
0.394600	-0.214112
0.394700	-0.206322
0.394800	-0.198857
0.394900	-0.209244
0.395000	-0.210542
0.395100	-0.227420
0.395200	-0.259878
0.395300	-0.309539
0.395400	-0.370885
0.395500	-0.409511
0.395600	-0.422818
0.395700	-0.423468
0.395800	-0.464365
0.395900	-0.584460
0.396000	-0.678589
0.396100	-0.700660
0.396200	-0.648078
0.396300	-0.599391
0.396400	-0.642885
0.396500	-0.755515
0.396600	-0.862627
0.396700	-0.891190
0.396800	-0.836660
0.396900	-0.763954
0.397000	-0.762006
0.397100	-0.833415
0.397200	-0.903200
0.397300	-0.924622
0.397400	-0.925596
0.397500	-0.906121
0.397600	-0.916183
0.397700	-0.938904
0.397800	-0.977854
0.397900	-0.993433
0.398000	-0.990188
0.398100	-1.001223
0.398200	-1.013882
0.398300	-1.009013
0.398400	-0.999925
0.398500	-0.993433
0.398600	-1.004794
0.398700	-1.064192
0.398800	-1.126188
0.398900	-1.149557
0.399000	-1.158646
0.399100	-1.142741
0.399200	-1.160269
0.399300	-1.171954
0.399400	-1.175524
0.399500	-1.176498
0.399600	-1.168059
0.399700	-1.166436
0.399800	-1.164164
0.399900	-1.162865
0.400000	-1.166436
0.400100	-1.164813
0.400200	-1.168383
0.400300	-1.173252
0.400400	-1.175524
0.400500	-1.180068
0.400600	-1.186235
0.400700	-1.200517
0.400800	-1.225834
0.400900	-1.250178
0.401000	-1.350798
0.401100	-1.507247
0.401200	-1.601052
0.401300	-1.557233
0.401400	-1.458884
0.401500	-1.405328
0.401600	-1.489071
0.401700	-1.643247
0.401800	-1.757825
0.401900	-1.770808
0.402000	-1.714331
0.402100	-1.665643
0.402200	-1.689987
0.402300	-1.769185
0.402400	-1.861367
0.402500	-1.900641
0.402600	-1.904536
0.402700	-1.900641
0.402800	-1.917844
0.402900	-1.942513
0.403000	-1.974971
0.403100	-2.006455
0.403200	-2.015544
0.403300	-2.026580
0.403400	-2.063257
0.403500	-2.088900
0.403600	-2.107076
0.403700	-2.106752
0.403800	-2.115191
0.403900	-2.144728
0.404000	-2.166475
0.404100	-2.156737
0.404200	-2.074293
0.404300	-2.024307
0.404400	-2.040212
0.404500	-2.119410
0.404600	-2.217434
0.404700	-2.232041
0.404800	-2.148623
0.404900	-2.051248
0.405000	-2.025606
0.405100	-2.099611
0.405200	-2.205425
0.405300	-2.266771
0.405400	-2.237883
0.405500	-2.170045
0.405600	-2.118437
0.405700	-2.109673
0.405800	-2.118761
0.405900	-2.121682
0.406000	-2.110322
0.406100	-2.087277
0.406200	-2.052222
0.406300	-2.004508
0.406400	-1.957443
0.406500	-1.878570
0.406600	-1.810083
0.406700	-1.755553
0.406800	-1.706865
0.406900	-1.667916
0.407000	-1.569242
0.407100	-1.467324
0.407200	-1.338789
0.407300	-1.245958
0.407400	-1.176498
0.407500	-1.105090
0.407600	-1.033682
0.407700	-0.952861
0.407800	-0.863925
0.407900	-0.768498
0.408000	-0.696116
0.408100	-0.641587
0.408200	-0.611725
0.408300	-0.575696
0.408400	-0.569529
0.408500	-0.544212
0.408600	-0.518570
0.408700	-0.490007
0.408800	-0.477024
0.408900	-0.464040
0.409000	-0.481892
0.409100	-0.485463
0.409200	-0.476374
0.409300	-0.423792
0.409400	-0.280976
0.409500	-0.157311
0.409600	-0.169969
0.409700	-0.304995
0.409800	-0.420222
0.409900	-0.385167
0.410000	-0.275458
0.410100	-0.163478
0.410200	-0.140757
0.410300	-0.200480
0.410400	-0.280652
0.410500	-0.298828
0.410600	-0.245921
0.410700	-0.168346
0.410800	-0.121282
0.410900	-0.127449
0.411000	-0.138160
0.411100	-0.147898
0.411200	-0.150819
0.411300	-0.138809
0.411400	-0.133292
0.411500	-0.126475
0.411600	-0.135564
0.411700	-0.127774
0.411800	-0.154389
0.411900	-0.184575
0.412000	-0.238781
0.412100	-0.280652
0.412200	-0.299477
0.412300	-0.303697
0.412400	-0.304995
0.412500	-0.373482
0.412600	-0.487735
0.412700	-0.554923
0.412800	-0.545186
0.412900	-0.472804
0.413000	-0.441320
0.413100	-0.499095
0.413200	-0.630226
0.413300	-0.713968
0.413400	-0.722083
0.413500	-0.647104
0.413600	-0.587706
0.413700	-0.613023
0.413800	-0.694818
0.413900	-0.751944
0.414000	-0.779209
0.414100	-0.771744
0.414200	-0.770121
0.414300	-0.787973
0.414400	-0.824975
0.414500	-0.859706
0.414600	-0.877558
0.414700	-0.894436
0.414800	-0.922025
0.414900	-0.944097
0.415000	-0.940851
0.415100	-0.934035
0.415200	-0.927219
0.415300	-0.948641
0.415400	-1.010312
0.415500	-1.047963
0.415600	-1.060297
0.415700	-1.046016
0.415800	-1.030760
0.415900	-1.042445
0.416000	-1.034980
0.416100	-1.029137
0.416200	-1.021672
0.416300	-1.015830
0.416400	-1.012259
0.416500	-1.004469
0.416600	-0.993758
0.416700	-0.990188
0.416800	-0.989863
0.416900	-0.992460
0.417000	-0.990188
0.417100	-0.995381
0.417200	-1.000899
0.417300	-1.004469
0.417400	-1.028164
0.417500	-1.052507
0.417600	-1.097624
0.417700	-1.228756
0.417800	-1.376440
0.417900	-1.446875
0.418000	-1.386178
0.418100	-1.300488
0.418200	-1.290102
0.418300	-1.415066
0.418400	-1.586445
0.418500	-1.691935
0.418600	-1.685443
0.418700	-1.631887
0.418800	-1.616632
0.418900	-1.671161
0.419000	-1.779572
0.419100	-1.867534
0.419200	-1.899018
0.419300	-1.903887
0.419400	-1.907458
0.419500	-1.933424
0.419600	-1.957119
0.419700	-1.979515
0.419800	-1.992498
0.419900	-2.003859
0.420000	-2.032097
0.420100	-2.073969
0.420200	-2.097988
0.420300	-2.093768
0.420400	-2.091821
0.420500	-2.101558
0.420600	-2.136938
0.420700	-2.161931
0.420800	-2.136289
0.420900	-2.051572
0.421000	-2.017167
0.421100	-2.055143
0.421200	-2.155764
0.421300	-2.250217
0.421400	-2.229769
0.421500	-2.127849
0.421600	-2.042160
0.421700	-2.046704
0.421800	-2.142456
0.421900	-2.252489
0.422000	-2.290790
0.422100	-2.241454
0.422200	-2.173291
0.422300	-2.140184
0.422400	-2.142131
0.422500	-2.157387
0.422600	-2.149921
0.422700	-2.132069
0.422800	-2.105778
0.422900	-2.074618
0.423000	-2.027878
0.423100	-1.968155
0.423200	-1.890255
0.423300	-1.816574
0.423400	-1.766913
0.423500	-1.720498
0.423600	-1.669863
0.423700	-1.567295
0.423800	-1.455963
0.423900	-1.333271
0.424000	-1.250178
0.424100	-1.189481
0.424200	-1.124565
0.424300	-1.055753
0.424400	-0.970713
0.424500	-0.876909
0.424600	-0.788622
0.424700	-0.723057
0.424800	-0.672746
0.424900	-0.639639
0.425000	-0.608155
0.425100	-0.589653
0.425200	-0.564985
0.425300	-0.527009
0.425400	-0.502016
0.425500	-0.465339
0.425600	-0.464365
0.425700	-0.453654
0.425800	-0.470207
0.425900	-0.453654
0.426000	-0.375429
0.426100	-0.218007
0.426200	-0.118685
0.426300	-0.159258
0.426400	-0.302723
0.426500	-0.375429
0.426600	-0.321873
0.426700	-0.184900
0.426800	-0.097912
0.426900	-0.097263
0.427000	-0.178733
0.427100	-0.253062
0.427200	-0.255334
0.427300	-0.187497
0.427400	-0.116089
0.427500	-0.083631
0.427600	-0.094017
0.427700	-0.116413
0.427800	-0.129721
0.427900	-0.125177
0.428000	-0.117062
0.428100	-0.112843
0.428200	-0.117062
0.428300	-0.113492
0.428400	-0.111869
0.428500	-0.135564
0.428600	-0.179382
0.428700	-0.222551
0.428800	-0.262800
0.428900	-0.283897
0.429000	-0.267019
0.429100	-0.278380
0.429200	-0.351735
0.429300	-0.482866
0.429400	-0.524737
0.429500	-0.493577
0.429600	-0.409186
0.429700	-0.392957
0.429800	-0.465339
0.429900	-0.606207
0.430000	-0.686054
0.430100	-0.675343
0.430200	-0.597443
0.430300	-0.553949
0.430400	-0.594198
0.430500	-0.683133
0.430600	-0.735391
0.430700	-0.761033
0.430800	-0.746751
0.430900	-0.750971
0.431000	-0.783753
0.431100	-0.826274
0.431200	-0.860355
0.431300	-0.874636
0.431400	-0.894111
0.431500	-0.913262
0.431600	-0.924947
0.431700	-0.922350
0.431800	-0.914885
0.431900	-0.914885
0.432000	-0.949939
0.432100	-1.014856
0.432200	-1.053806
0.432300	-1.063543
0.432400	-1.042445
0.432500	-1.036603
0.432600	-1.050560
0.432700	-1.052507
0.432800	-1.054455
0.432900	-1.054779
0.433000	-1.050884
0.433100	-1.041796
0.433200	-1.046340
0.433300	-1.049911
0.433400	-1.062245
0.433500	-1.071982
0.433600	-1.090159
0.433700	-1.108336
0.433800	-1.121319
0.433900	-1.144040
0.434000	-1.157347
0.434100	-1.193701
0.434200	-1.232651
0.434300	-1.300164
0.434400	-1.447849
0.434500	-1.604947
0.434600	-1.643896
0.434700	-1.566646
0.434800	-1.484202
0.434900	-1.499133
0.435000	-1.647142
0.435100	-1.799047
0.435200	-1.881166
0.435300	-1.843515
0.435400	-1.775677
0.435500	-1.757176
0.435600	-1.827286
0.435700	-1.929854
0.435800	-2.005806
0.435900	-2.035019
0.436000	-2.024957
0.436100	-2.011973
0.436200	-2.023334
0.436300	-2.043782
0.436400	-2.067152
0.436500	-2.087601
0.436600	-2.102207
0.436700	-2.117463
0.436800	-2.143754
0.436900	-2.145052
0.437000	-2.149272
0.437100	-2.143754
0.437200	-2.167773
0.437300	-2.189845
0.437400	-2.190819
0.437500	-2.134017
0.437600	-2.040212
0.437700	-2.019114
0.437800	-2.064231
0.437900	-2.168422
0.438000	-2.234962
0.438100	-2.191792
0.438200	-2.089549
0.438300	-2.006455
0.438400	-2.023334
0.438500	-2.118761
0.438600	-2.218084
0.438700	-2.238208
0.438800	-2.176212
0.438900	-2.107076
0.439000	-2.065205
0.439100	-2.071372
0.439200	-2.084031
0.439300	-2.080785
0.439400	-2.069425
0.439500	-2.037615
0.439600	-1.995744
0.439700	-1.932126
0.439800	-1.854875
0.439900	-1.777300
0.440000	-1.716928
0.440100	-1.682522
0.440200	-1.652011
0.440300	-1.594560
0.440400	-1.508546
0.440500	-1.431295
0.440600	-1.336192
0.440700	-1.244660
0.440800	-1.180393
0.440900	-1.120994
0.441000	-1.050884
0.441100	-0.977529
0.441200	-0.895734
0.441300	-0.815563
0.441400	-0.754217
0.441500	-0.715916
0.441600	-0.688651
0.441700	-0.665281
0.441800	-0.656193
0.441900	-0.628928
0.442000	-0.601014
0.442100	-0.576346
0.442200	-0.558818
0.442300	-0.556546
0.442400	-0.555897
0.442500	-0.567257
0.442600	-0.537720
0.442700	-0.446837
0.442800	-0.277081
0.442900	-0.225148
0.443000	-0.292012
0.443100	-0.443267
0.443200	-0.490331
0.443300	-0.403344
0.443400	-0.265072
0.443500	-0.180680
0.443600	-0.203401
0.443700	-0.283248
0.443800	-0.345243
0.443900	-0.324470
0.444000	-0.255983
0.444100	-0.190418
0.444200	-0.165101
0.444300	-0.176785
0.444400	-0.189120
0.444500	-0.195936
0.444600	-0.196585
0.444700	-0.190742
0.444800	-0.178408
0.444900	-0.173864
0.445000	-0.157311
0.445100	-0.170943
0.445200	-0.200480
0.445300	-0.250141
0.445400	-0.291038
0.445500	-0.332909
0.445600	-0.329014
0.445700	-0.331611
0.445800	-0.348165
0.445900	-0.466962
0.446000	-0.561090
0.446100	-0.595821
0.446200	-0.551353
0.446300	-0.480919
0.446400	-0.492604
0.446500	-0.579916
0.446600	-0.692871
0.446700	-0.733119
0.446800	-0.696116
0.446900	-0.621787
0.447000	-0.605883
0.447100	-0.654894
0.447200	-0.716890
0.447300	-0.737987
0.447400	-0.754217
0.447500	-0.747725
0.447600	-0.766875
0.447700	-0.795438
0.447800	-0.819457
0.447900	-0.845099
0.448000	-0.863601
0.448100	-0.885672
0.448200	-0.910665
0.448300	-0.912288
0.448400	-0.901577
0.448500	-0.889567
0.448600	-0.884698
0.448700	-0.937605
0.448800	-0.990188
0.448900	-1.010312
0.449000	-0.988565
0.449100	-0.962274
0.449200	-0.970388
0.449300	-0.981099
0.449400	-0.972011
0.449500	-0.968116
0.449600	-0.957405
0.449700	-0.947992
0.449800	-0.940527
0.449900	-0.936307
0.450000	-0.931114
0.450100	-0.933061
0.450200	-0.935333
0.450300	-0.937930
0.450400	-0.947992
0.450500	-0.949939
0.450600	-0.966818
0.450700	-0.979801
0.450800	-1.007066
0.450900	-1.033032
0.451000	-1.118073
0.451100	-1.269328
0.451200	-1.401758
0.451300	-1.393643
0.451400	-1.300164
0.451500	-1.230054
0.451600	-1.275820
0.451700	-1.437787
0.451800	-1.586121
0.451900	-1.636756
0.452000	-1.587419
0.452100	-1.531591
0.452200	-1.541004
0.452300	-1.613386
0.452400	-1.709462
0.452500	-1.763018
0.452600	-1.786713
0.452700	-1.784441
0.452800	-1.794178
0.452900	-1.813004
0.453000	-1.830532
0.453100	-1.846111
0.453200	-1.854226
0.453300	-1.877596
0.453400	-1.917520
0.453500	-1.949329
0.453600	-1.963286
0.453700	-1.961338
0.453800	-1.961988
0.453900	-1.997692
0.454000	-2.030150
0.454100	-2.029501
0.454200	-1.947057
0.454300	-1.882789
0.454400	-1.886684
0.454500	-1.955171
0.454600	-2.069100
0.454700	-2.119086
0.454800	-2.051248
0.454900	-1.953873
0.455000	-1.909081
0.455100	-1.966532
0.455200	-2.077215
0.455300	-2.157387
0.455400	-2.150246
0.455500	-2.094093
0.455600	-2.054169
0.455700	-2.039887
0.455800	-2.045081
0.455900	-2.054818
0.456000	-2.040212
0.456100	-2.025930
0.456200	-2.004833
0.456300	-1.972699
0.456400	-1.913300
0.456500	-1.820469
0.456600	-1.733806
0.456700	-1.679276
0.456800	-1.637729
0.456900	-1.607543
0.457000	-1.537758
0.457100	-1.438111
0.457200	-1.369949
0.457300	-1.265109
0.457400	-1.189157
0.457500	-1.124565
0.457600	-1.058350
0.457700	-0.982398
0.457800	-0.911639
0.457900	-0.824326
0.458000	-0.764279
0.458100	-0.716565
0.458200	-0.690274
0.458300	-0.667229
0.458400	-0.649377
0.458500	-0.645806
0.458600	-0.635744
0.458700	-0.614322
0.458800	-0.599066
0.458900	-0.589978
0.459000	-0.595496
0.459100	-0.600689
0.459200	-0.603286
0.459300	-0.546160
0.459400	-0.430933
0.459500	-0.275134
0.459600	-0.236508
0.459700	-0.352709
0.459800	-0.461444
0.459900	-0.467935
0.460000	-0.348814
0.460100	-0.223850
0.460200	-0.164127
0.460300	-0.205998
0.460400	-0.291363
0.460500	-0.317654
0.460600	-0.273835
0.460700	-0.198532
0.460800	-0.132967
0.460900	-0.122256
0.461000	-0.128423
0.461100	-0.132318
0.461200	-0.132318
0.461300	-0.117387
0.461400	-0.107325
0.461500	-0.105702
0.461600	-0.101158
0.461700	-0.091745
0.461800	-0.107000
0.461900	-0.141406
0.462000	-0.180356
0.462100	-0.219630
0.462200	-0.249492
0.462300	-0.235210
0.462400	-0.248518
0.462500	-0.270265
0.462600	-0.393281
0.462700	-0.447811
0.462800	-0.454952
0.462900	-0.387439
0.463000	-0.333558
0.463100	-0.362446
0.463200	-0.471506
0.463300	-0.567257
0.463400	-0.594847
0.463500	-0.540966
0.463600	-0.481243
0.463700	-0.483515
0.463800	-0.554923
0.463900	-0.628603
0.464000	-0.651649
0.464100	-0.663009
0.464200	-0.664307
0.464300	-0.695143
0.464400	-0.735391
0.464500	-0.778560
0.464600	-0.811343
0.464700	-0.830169
0.464800	-0.858083
0.464900	-0.884698
0.465000	-0.897357
0.465100	-0.888918
0.465200	-0.878207
0.465300	-0.887620
0.465400	-0.941825
0.465500	-0.986942
0.465600	-1.007066
0.465700	-0.983047
0.465800	-0.973959
0.465900	-0.976555
0.466000	-0.987591
0.466100	-0.988240
0.466200	-0.985968
0.466300	-0.982722
0.466400	-0.981749
0.466500	-0.980775
0.466600	-0.983047
0.466700	-0.991486
0.466800	-0.993109
0.466900	-1.003496
0.467000	-1.007715
0.467100	-1.015830
0.467200	-1.024593
0.467300	-1.038226
0.467400	-1.059648
0.467500	-1.087562
0.467600	-1.118722
0.467700	-1.223562
0.467800	-1.383581
0.467900	-1.482904
0.468000	-1.455314
0.468100	-1.356966
0.468200	-1.311524
0.468300	-1.397538
0.468400	-1.563400
0.468500	-1.692259
0.468600	-1.705567
0.468700	-1.649090
0.468800	-1.599104
0.468900	-1.628316
0.469000	-1.712708
0.469100	-1.806837
0.469200	-1.847410
0.469300	-1.856498
0.469400	-1.851954
0.469500	-1.863639
0.469600	-1.891228
0.469700	-1.918818
0.469800	-1.941863
0.469900	-1.956794
0.470000	-1.972699
0.470100	-2.002236
0.470200	-2.026580
0.470300	-2.037940
0.470400	-2.048002
0.470500	-2.070074
0.470600	-2.107725
0.470700	-2.146675
0.470800	-2.129472
0.470900	-2.060985
0.471000	-2.011000
0.471100	-2.038589
0.471200	-2.134666
0.471300	-2.235611
0.471400	-2.249893
0.471500	-2.179783
0.471600	-2.091821
0.471700	-2.084680
0.471800	-2.156413
0.471900	-2.258007
0.472000	-2.306695
0.472100	-2.277158
0.472200	-2.215811
0.472300	-2.189845
0.472400	-2.189845
0.472500	-2.208346
0.472600	-2.209969
0.472700	-2.197310
0.472800	-2.172642
0.472900	-2.141807
0.473000	-2.095716
0.473100	-2.015544
0.473200	-1.913949
0.473300	-1.832804
0.473400	-1.780546
0.473500	-1.740622
0.473600	-1.699400
0.473700	-1.618904
0.473800	-1.529643
0.473900	-1.476736
0.474000	-1.386503
0.474100	-1.315094
0.474200	-1.246283
0.474300	-1.175849
0.474400	-1.090808
0.474500	-1.003820
0.474600	-0.912937
0.474700	-0.847372
0.474800	-0.792842
0.474900	-0.760059
0.475000	-0.720135
0.475100	-0.705529
0.475200	-0.663009
0.475300	-0.640613
0.475400	-0.609453
0.475500	-0.585434
0.475600	-0.568880
0.475700	-0.556222
0.475800	-0.571801
0.475900	-0.539019
0.476000	-0.494876
0.476100	-0.330313
0.476200	-0.216060
0.476300	-0.179382
0.476400	-0.330962
0.476500	-0.409835
0.476600	-0.380298
0.476700	-0.248843
0.476800	-0.129721
0.476900	-0.110895
0.477000	-0.172241
0.477100	-0.246895
0.477200	-0.242676
0.477300	-0.184575
0.477400	-0.108299
0.477500	-0.056366
0.477600	-0.066752
0.477700	-0.074867
0.477800	-0.090771
0.477900	-0.082332
0.478000	-0.070647
0.478100	-0.067401
0.478200	-0.073893
0.478300	-0.079411
0.478400	-0.078113
0.478500	-0.095640
0.478600	-0.133941
0.478700	-0.170618
0.478800	-0.225473
0.478900	-0.229692
0.479000	-0.229043
0.479100	-0.233263
0.479200	-0.291038
0.479300	-0.412432
0.479400	-0.463067
0.479500	-0.444241
0.479600	-0.375105
0.479700	-0.344919
0.479800	-0.403019
0.479900	-0.516623
0.480000	-0.590627
0.480100	-0.577319
0.480200	-0.504613
0.480300	-0.449110
0.480400	-0.483191
0.480500	-0.563038
0.480600	-0.616269
0.480700	-0.628279
0.480800	-0.615945
0.480900	-0.622112
0.481000	-0.654894
0.481100	-0.696766
0.481200	-0.736040
0.481300	-0.752269
0.481400	-0.766875
0.481500	-0.792193
0.481600	-0.814264
0.481700	-0.813615
0.481800	-0.808422
0.481900	-0.795114
0.482000	-0.826274
0.482100	-0.892813
0.482200	-0.933710
0.482300	-0.949615
0.482400	-0.928517
0.482500	-0.919429
0.482600	-0.936632
0.482700	-0.941825
0.482800	-0.942799
0.482900	-0.945071
0.483000	-0.944097
0.483100	-0.942799
0.483200	-0.940527
0.483300	-0.947343
0.483400	-0.942799
0.483500	-0.945720
0.483600	-0.947018
0.483700	-0.953185
0.483800	-0.963572
0.483900	-0.973634
0.484000	-0.978827
0.484100	-1.001873
0.484200	-1.021672
0.484300	-1.063868
0.484400	-1.181367
0.484500	-1.332622
0.484600	-1.385853
0.484700	-1.319963
0.484800	-1.215123
0.484900	-1.197271
0.485000	-1.311524
0.485100	-1.476736
0.485200	-1.577032
0.485300	-1.569242
0.485400	-1.506598
0.485500	-1.478684
0.485600	-1.531915
0.485700	-1.642923
0.485800	-1.731534
0.485900	-1.764966
0.486000	-1.760746
0.486100	-1.760422
0.486200	-1.783467
0.486300	-1.820469
0.486400	-1.856823
0.486500	-1.878570
0.486600	-1.885061
0.486700	-1.905835
0.486800	-1.942513
0.486900	-1.978217
0.487000	-1.987630
0.487100	-1.996069
0.487200	-2.011973
0.487300	-2.048002
0.487400	-2.071697
0.487500	-2.050599
0.487600	-1.968479
0.487700	-1.936670
0.487800	-1.983410
0.487900	-2.083382
0.488000	-2.173291
0.488100	-2.151869
0.488200	-2.056766
0.488300	-1.976269
0.488400	-1.979190
0.488500	-2.074942
0.488600	-2.183029
0.488700	-2.218733
0.488800	-2.172967
0.488900	-2.105453
0.489000	-2.063907
0.489100	-2.071372
0.489200	-2.100584
0.489300	-2.105453
0.489400	-2.094742
0.489500	-2.064556
0.489600	-2.027553
0.489700	-1.977892
0.489800	-1.923038
0.489900	-1.861367
0.490000	-1.780546
0.490100	-1.721796
0.490200	-1.682197
0.490300	-1.624097
0.490400	-1.522503
0.490500	-1.419285
0.490600	-1.292049
0.490700	-1.198245
0.490800	-1.133328
0.490900	-1.073605
0.491000	-0.998302
0.491100	-0.917157
0.491200	-0.827247
0.491300	-0.744804
0.491400	-0.681510
0.491500	-0.645157
0.491600	-0.619515
0.491700	-0.594847
0.491800	-0.575047
0.491900	-0.556222
0.492000	-0.528632
0.492100	-0.512078
0.492200	-0.486112
0.492300	-0.494551
0.492400	-0.477673
0.492500	-0.491954
0.492600	-0.465339
0.492700	-0.386790
0.492800	-0.233587
0.492900	-0.136537
0.493000	-0.194313
0.493100	-0.324795
0.493200	-0.399124
0.493300	-0.319277
0.493400	-0.191716
0.493500	-0.090122
0.493600	-0.084929
0.493700	-0.166074
0.493800	-0.235535
0.493900	-0.239754
0.494000	-0.158933
0.494100	-0.095315
0.494200	-0.049225
0.494300	-0.054743
0.494400	-0.069674
0.494500	-0.092719
0.494600	-0.101807
0.494700	-0.088175
0.494800	-0.084604
0.494900	-0.074542
0.495000	-0.084604
0.495100	-0.093043
0.495200	-0.133616
0.495300	-0.161855
0.495400	-0.210542
0.495500	-0.241702
0.495600	-0.244623
0.495700	-0.250790
0.495800	-0.260852
0.495900	-0.349463
0.496000	-0.449434
0.496100	-0.491305
0.496200	-0.460145
0.496300	-0.382895
0.496400	-0.373157
0.496500	-0.451057
0.496600	-0.578618
0.496700	-0.653272
0.496800	-0.642560
0.496900	-0.571801
0.497000	-0.536097
0.497100	-0.572126
0.497200	-0.649052
0.497300	-0.695143
0.497400	-0.717863
0.497500	-0.714293
0.497600	-0.727276
0.497700	-0.747400
0.497800	-0.783429
0.497900	-0.821405
0.498000	-0.854837
0.498100	-0.878531
0.498200	-0.905472
0.498300	-0.907095
0.498400	-0.884374
0.498500	-0.870092
0.498600	-0.862302
0.498700	-0.896708
0.498800	-0.954484
0.498900	-0.986617
0.499000	-0.979801
0.499100	-0.934684
0.499200	-0.935333
0.499300	-0.942474
0.499400	-0.941825
0.499500	-0.939877
0.499600	-0.934360
0.499700	-0.923973
0.499800	-0.918455
0.499900	-0.917806
0.500000	-0.920078
0.500100	-0.923973
0.500200	-0.923648
0.500300	-0.925920
0.500400	-0.937930
0.500500	-0.949290
0.500600	-0.958703
0.500700	-0.979476
0.500800	-0.997328
0.500900	-1.021997
0.501000	-1.081720
0.501100	-1.229729
0.501200	-1.371896
0.501300	-1.381634
0.501400	-1.307304
0.501500	-1.217395
0.501600	-1.252125
0.501700	-1.390398
0.501800	-1.549118
0.501900	-1.617281
0.502000	-1.583849
0.502100	-1.514388
0.502200	-1.504975
0.502300	-1.565672
0.502400	-1.666617
0.502500	-1.744192
0.502600	-1.761720
0.502700	-1.762369
0.502800	-1.763018
0.502900	-1.774054
0.503000	-1.799372
0.503100	-1.829558
0.503200	-1.857147
0.503300	-1.871754
0.503400	-1.906159
0.503500	-1.928556
0.503600	-1.944460
0.503700	-1.941214
0.503800	-1.954198
0.503900	-1.986007
0.504000	-2.016842
0.504100	-2.030799
0.504200	-1.970751
0.504300	-1.886684
0.504400	-1.872403
0.504500	-1.938942
0.504600	-2.048002
0.504700	-2.118112
0.504800	-2.078513
0.504900	-1.980813
0.505000	-1.928556
0.505100	-1.965558
0.505200	-2.073644
0.505300	-2.161931
0.505400	-2.176862
0.505500	-2.131420
0.505600	-2.080136
0.505700	-2.062933
0.505800	-2.079162
0.505900	-2.096689
0.506000	-2.093444
0.506100	-2.082408
0.506200	-2.057090
0.506300	-2.031448
0.506400	-1.983735
0.506500	-1.910703
0.506600	-1.834426
0.506700	-1.776002
0.506800	-1.742245
0.506900	-1.717252
0.507000	-1.654283
0.507100	-1.560154
0.507200	-1.474140
0.507300	-1.358588
0.507400	-1.283935
0.507500	-1.218044
0.507600	-1.152154
0.507700	-1.078474
0.507800	-1.001223
0.507900	-0.914235
0.508000	-0.836011
0.508100	-0.777911
0.508200	-0.732145
0.508300	-0.697415
0.508400	-0.677615
0.508500	-0.663334
0.508600	-0.634446
0.508700	-0.607181
0.508800	-0.573100
0.508900	-0.565634
0.509000	-0.544537
0.509100	-0.556546
0.509200	-0.550379
0.509300	-0.519868
0.509400	-0.408537
0.509500	-0.258255
0.509600	-0.190742
0.509700	-0.285845
0.509800	-0.409186
0.509900	-0.426389
0.510000	-0.312785
0.510100	-0.193664
0.510200	-0.111220
0.510300	-0.141406
0.510400	-0.217034
0.510500	-0.274160
0.510600	-0.239105
0.510700	-0.170294
0.510800	-0.103430
0.510900	-0.075191
0.511000	-0.092394
0.511100	-0.112194
0.511200	-0.109597
0.511300	-0.107325
0.511400	-0.113817
0.511500	-0.116738
0.511600	-0.119335
0.511700	-0.111869
0.511800	-0.119335
0.511900	-0.167697
0.512000	-0.196910
0.512100	-0.263124
0.512200	-0.289091
0.512300	-0.295582
0.512400	-0.294284
0.512500	-0.316356
0.512600	-0.417625
0.512700	-0.516298
0.512800	-0.532202
0.512900	-0.480919
0.513000	-0.397826
0.513100	-0.403993
0.513200	-0.510131
0.513300	-0.627630
0.513400	-0.653921
0.513500	-0.599391
0.513600	-0.515649
0.513700	-0.509157
0.513800	-0.564336
0.513900	-0.630226
0.514000	-0.657167
0.514100	-0.670799
0.514200	-0.664956
0.514300	-0.675992
0.514400	-0.701310
0.514500	-0.733768
0.514600	-0.755839
0.514700	-0.773367
0.514800	-0.796412
0.514900	-0.818484
0.515000	-0.826923
0.515100	-0.824326
0.515200	-0.813615
0.515300	-0.819782
0.515400	-0.869119
0.515500	-0.928192
0.515600	-0.957080
0.515700	-0.961300
0.515800	-0.935333
0.515900	-0.936956
0.516000	-0.941825
0.516100	-0.935658
0.516200	-0.930465
0.516300	-0.924622
0.516400	-0.923973
0.516500	-0.920402
0.516600	-0.917806
0.516700	-0.916508
0.516800	-0.920402
0.516900	-0.923648
0.517000	-0.927219
0.517100	-0.935009
0.517200	-0.943448
0.517300	-0.958703
0.517400	-0.970064
0.517500	-1.000574
0.517600	-1.028488
0.517700	-1.115801
0.517800	-1.276145
0.517900	-1.392345
0.518000	-1.388775
0.518100	-1.295295
0.518200	-1.232651
0.518300	-1.292374
0.518400	-1.450445
0.518500	-1.599753
0.518600	-1.656231
0.518700	-1.612087
0.518800	-1.561128
0.518900	-1.569892
0.519000	-1.649414
0.519100	-1.758150
0.519200	-1.825014
0.519300	-1.837997
0.519400	-1.829558
0.519500	-1.845462
0.519600	-1.867534
0.519700	-1.889930
0.519800	-1.918818
0.519900	-1.934723
0.520000	-1.953548
0.520100	-1.977568
0.520200	-1.997692
0.520300	-2.010350
0.520400	-2.016193
0.520500	-2.015544
0.520600	-2.042160
0.520700	-2.064231
0.520800	-2.066503
0.520900	-1.998990
0.521000	-1.930178
0.521100	-1.920116
0.521200	-2.008403
0.521300	-2.112269
0.521400	-2.151219
0.521500	-2.072670
0.521600	-1.958093
0.521700	-1.915897
0.521800	-1.981138
0.521900	-2.092470
0.522000	-2.167449
0.522100	-2.145702
0.522200	-2.082732
0.522300	-2.041510
0.522400	-2.029825
0.522500	-2.034694
0.522600	-2.046055
0.522700	-2.039238
0.522800	-2.027229
0.522900	-1.998990
0.523000	-1.954847
0.523100	-1.881816
0.523200	-1.798398
0.523300	-1.720498
0.523400	-1.659801
0.523500	-1.618254
0.523600	-1.577032
0.523700	-1.510493
0.523800	-1.420908
0.523900	-1.352746
0.524000	-1.242713
0.524100	-1.166111
0.524200	-1.101519
0.524300	-1.034980
0.524400	-0.960975
0.524500	-0.870092
0.524600	-0.783753
0.524700	-0.703906
0.524800	-0.653921
0.524900	-0.616594
0.525000	-0.587057
0.525100	-0.569529
0.525200	-0.555897
0.525300	-0.546484
0.525400	-0.521167
0.525500	-0.511429
0.525600	-0.498121
0.525700	-0.513052
0.525800	-0.518245
0.525900	-0.529281
0.526000	-0.478322
0.526100	-0.363745
0.526200	-0.219955
0.526300	-0.199506
0.526400	-0.309864
0.526500	-0.419248
0.526600	-0.437100
0.526700	-0.303697
0.526800	-0.188470
0.526900	-0.129721
0.527000	-0.157635
0.527100	-0.232289
0.527200	-0.264098
0.527300	-0.228069
0.527400	-0.141081
0.527500	-0.077463
0.527600	-0.045330
0.527700	-0.047602
0.527800	-0.050523
0.527900	-0.071621
0.528000	-0.074867
0.528100	-0.059287
0.528200	-0.043707
0.528300	-0.035268
0.528400	-0.041110
0.528500	-0.078113
0.528600	-0.110246
0.528700	-0.144003
0.528800	-0.185874
0.528900	-0.209893
0.529000	-0.223525
0.529100	-0.221902
0.529200	-0.267993
0.529300	-0.382895
0.529400	-0.469558
0.529500	-0.471181
0.529600	-0.412107
0.529700	-0.366341
0.529800	-0.401396
0.529900	-0.513701
0.530000	-0.614971
0.530100	-0.631525
0.530200	-0.565310
0.530300	-0.502666
0.530400	-0.513701
0.530500	-0.573749
0.530600	-0.623085
0.530700	-0.635095
0.530800	-0.640613
0.530900	-0.635095
0.531000	-0.660412
0.531100	-0.693844
0.531200	-0.722732
0.531300	-0.747725
0.531400	-0.763629
0.531500	-0.789271
0.531600	-0.805176
0.531700	-0.798360
0.531800	-0.786350
0.531900	-0.769147
0.532000	-0.783753
0.532100	-0.840880
0.532200	-0.887944
0.532300	-0.908718
0.532400	-0.879830
0.532500	-0.863925
0.532600	-0.881128
0.532700	-0.875610
0.532800	-0.873987
0.532900	-0.870092
0.533000	-0.862302
0.533100	-0.855811
0.533200	-0.850942
0.533300	-0.850293
0.533400	-0.855486
0.533500	-0.857109
0.533600	-0.861004
0.533700	-0.860679
0.533800	-0.871715
0.533900	-0.877882
0.534000	-0.889243
0.534100	-0.909042
0.534200	-0.943448
0.534300	-0.978827
0.534400	-1.084316
0.534500	-1.245958
0.534600	-1.339438
0.534700	-1.306980
0.534800	-1.214799
0.534900	-1.179744
0.535000	-1.261863
0.535100	-1.423505
0.535200	-1.539056
0.535300	-1.565672
0.535400	-1.516985
0.535500	-1.472192
0.535600	-1.497185
0.535700	-1.580927
0.535800	-1.672460
0.535900	-1.739324
0.536000	-1.760746
0.536100	-1.770159
0.536200	-1.779572
0.536300	-1.798398
0.536400	-1.827935
0.536500	-1.845787
0.536600	-1.878570
0.536700	-1.907782
0.536800	-1.933424
0.536900	-1.957768
0.537000	-1.971400
0.537100	-1.971076
0.537200	-1.979190
0.537300	-2.005806
0.537400	-2.027229
0.537500	-2.014570
0.537600	-1.931801
0.537700	-1.872403
0.537800	-1.892851
0.537900	-1.995420
0.538000	-2.090847
0.538100	-2.097014
0.538200	-2.020088
0.538300	-1.929854
0.538400	-1.930178
0.538500	-2.024957
0.538600	-2.132394
0.538700	-2.173940
0.538800	-2.148947
0.538900	-2.108374
0.539000	-2.090847
0.539100	-2.091496
0.539200	-2.102857
0.539300	-2.105129
0.539400	-2.090847
0.539500	-2.083706
0.539600	-2.067152
0.539700	-2.024632
0.539800	-1.949978
0.539900	-1.862016
0.540000	-1.795152
0.540100	-1.750360
0.540200	-1.712708
0.540300	-1.674407
0.540400	-1.581252
0.540500	-1.487123
0.540600	-1.411820
0.540700	-1.305357
0.540800	-1.232326
0.540900	-1.163839
0.541000	-1.089185
0.541100	-1.003820
0.541200	-0.917806
0.541300	-0.836011
0.541400	-0.759734
0.541500	-0.714942
0.541600	-0.682808
0.541700	-0.648403
0.541800	-0.630875
0.541900	-0.613673
0.542000	-0.582837
0.542100	-0.563687
0.542200	-0.539343
0.542300	-0.538694
0.542400	-0.534150
0.542500	-0.549405
0.542600	-0.539343
0.542700	-0.470532
0.542800	-0.336480
0.542900	-0.220929
0.543000	-0.236833
0.543100	-0.367640
0.543200	-0.462093
0.543300	-0.429635
0.543400	-0.303372
0.543500	-0.207945
0.543600	-0.174513
0.543700	-0.250141
0.543800	-0.316356
0.543900	-0.335831
0.544000	-0.275458
0.544100	-0.205998
0.544200	-0.165425
0.544300	-0.163802
0.544400	-0.172241
0.544500	-0.172566
0.544600	-0.178408
0.544700	-0.170294
0.544800	-0.167373
0.544900	-0.166074
0.545000	-0.155038
0.545100	-0.171592
0.545200	-0.201454
0.545300	-0.222876
0.545400	-0.260203
0.545500	-0.297854
0.545600	-0.324795
0.545700	-0.318628
0.545800	-0.324146
0.545900	-0.379324
0.546000	-0.505262
0.546100	-0.566608
0.546200	-0.532527
0.546300	-0.468260
0.546400	-0.431907
0.546500	-0.498771
0.546600	-0.635744
0.546700	-0.712995
0.546800	-0.690923
0.546900	-0.622761
0.547000	-0.584136
0.547100	-0.638341
0.547200	-0.727601
0.547300	-0.770770
0.547400	-0.782455
0.547500	-0.778560
0.547600	-0.790894
0.547700	-0.819133
0.547800	-0.860355
0.547900	-0.894111
0.548000	-0.912937
0.548100	-0.919753
0.548200	-0.939228
0.548300	-0.954159
0.548400	-0.945395
0.548500	-0.926245
0.548600	-0.907419
0.548700	-0.925271
0.548800	-0.977529
0.548900	-1.000899
0.549000	-1.001223
0.549100	-0.957080
0.549200	-0.951238
0.549300	-0.964546
0.549400	-0.961300
0.549500	-0.955133
0.549600	-0.947992
0.549700	-0.943772
0.549800	-0.946369
0.549900	-0.952212
0.550000	-0.954808
0.550100	-0.959352
0.550200	-0.960975
0.550300	-0.963896
0.550400	-0.968441
0.550500	-0.978503
0.550600	-0.990837
0.550700	-0.999601
0.550800	-1.015830
0.550900	-1.039849
0.551000	-1.080421
0.551100	-1.213825
0.551200	-1.352746
0.551300	-1.407925
0.551400	-1.345605
0.551500	-1.253424
0.551600	-1.246608
0.551700	-1.368975
0.551800	-1.520555
0.551900	-1.614684
0.552000	-1.616632
0.552100	-1.559180
0.552200	-1.539381
0.552300	-1.578655
0.552400	-1.676679
0.552500	-1.763018
0.552600	-1.793204
0.552700	-1.793529
0.552800	-1.784765
0.552900	-1.804889
0.553000	-1.837023
0.553100	-1.865586
0.553200	-1.887658
0.553300	-1.899343
0.553400	-1.914598
0.553500	-1.940241
0.553600	-1.963610
0.553700	-1.981138
0.553800	-1.988928
0.553900	-1.998016
0.554000	-2.014895
0.554100	-2.022035
0.554200	-1.983735
0.554300	-1.899668
0.554400	-1.857796
0.554500	-1.909081
0.554600	-2.011000
0.554700	-2.092794
0.554800	-2.071372
0.554900	-1.967181
0.555000	-1.882465
0.555100	-1.902264
0.555200	-2.004833
0.555300	-2.101234
0.555400	-2.118761
0.555500	-2.069425
0.555600	-2.016517
0.555700	-1.997692
0.555800	-2.001587
0.555900	-2.011973
0.556000	-2.004183
0.556100	-1.986331
0.556200	-1.963286
0.556300	-1.932775
0.556400	-1.876298
0.556500	-1.795152
0.556600	-1.710436
0.556700	-1.642274
0.556800	-1.588068
0.556900	-1.536784
0.557000	-1.475438
0.557100	-1.373519
0.557200	-1.286531
0.557300	-1.192727
0.557400	-1.099572
0.557500	-1.021672
0.557600	-0.950264
0.557700	-0.878856
0.557800	-0.794789
0.557900	-0.708450
0.558000	-0.625033
0.558100	-0.567582
0.558200	-0.531553
0.558300	-0.504613
0.558400	-0.490007
0.558500	-0.477024
0.558600	-0.465014
0.558700	-0.447487
0.558800	-0.428985
0.558900	-0.407563
0.559000	-0.401071
0.559100	-0.425740
0.559200	-0.421845
0.559300	-0.425090
0.559400	-0.313434
0.559500	-0.201129
0.559600	-0.088499
0.559700	-0.171917
0.559800	-0.288766
0.559900	-0.360823
0.560000	-0.288442
0.560100	-0.171592
0.560200	-0.089148
0.560300	-0.089148
0.560400	-0.165101
0.560500	-0.213788
0.560600	-0.206972
0.560700	-0.143029
0.560800	-0.066428
0.560900	-0.030075
0.561000	-0.026180
0.561100	-0.032671
0.561200	-0.030724
0.561300	-0.032022
0.561400	-0.019039
0.561500	-0.015793
0.561600	-0.007678
0.561700	0.001410
0.561800	-0.004757
0.561900	-0.051497
0.562000	-0.069024
0.562100	-0.112843
0.562200	-0.150819
0.562300	-0.156986
0.562400	-0.161530
0.562500	-0.168671
0.562600	-0.266045
0.562700	-0.375429
0.562800	-0.420871
0.562900	-0.378351
0.563000	-0.307916
0.563100	-0.303697
0.563200	-0.399449
0.563300	-0.527983
0.563400	-0.588680
0.563500	-0.549730
0.563600	-0.479620
0.563700	-0.466962
0.563800	-0.531878
0.563900	-0.609453
0.564000	-0.641262
0.564100	-0.650675
0.564200	-0.650999
0.564300	-0.675668
0.564400	-0.708126
0.564500	-0.745453
0.564600	-0.782455
0.564700	-0.804527
0.564800	-0.825625
0.564900	-0.852565
0.565000	-0.860030
0.565100	-0.851916
0.565200	-0.838932
0.565300	-0.836336
0.565400	-0.868794
0.565500	-0.923973
0.565600	-0.943448
0.565700	-0.931763
0.565800	-0.897357
0.565900	-0.901577
0.566000	-0.906445
0.566100	-0.903200
0.566200	-0.903200
0.566300	-0.898655
0.566400	-0.900928
0.566500	-0.897033
0.566600	-0.899629
0.566700	-0.899305
0.566800	-0.898980
0.566900	-0.910665
0.567000	-0.918455
0.567100	-0.927543
0.567200	-0.932412
0.567300	-0.950264
0.567400	-0.961949
0.567500	-0.988565
0.567600	-1.011935
0.567700	-1.090808
0.567800	-1.240116
0.567900	-1.378713
0.568000	-1.393643
0.568100	-1.320937
0.568200	-1.245958
0.568300	-1.281662
0.568400	-1.434541
0.568500	-1.579305
0.568600	-1.658503
0.568700	-1.621500
0.568800	-1.582226
0.568900	-1.585796
0.569000	-1.659801
0.569100	-1.755553
0.569200	-1.830207
0.569300	-1.859095
0.569400	-1.860393
0.569500	-1.874350
0.569600	-1.902589
0.569700	-1.924336
0.569800	-1.949978
0.569900	-1.964909
0.570000	-1.994446
0.570100	-2.022035
0.570200	-2.047353
0.570300	-2.068451
0.570400	-2.079487
0.570500	-2.072670
0.570600	-2.097663
0.570700	-2.118437
0.570800	-2.135639
0.570900	-2.083057
0.571000	-2.000288
0.571100	-1.972699
0.571200	-2.055792
0.571300	-2.173616
0.571400	-2.241778
0.571500	-2.182704
0.571600	-2.071372
0.571700	-2.011973
0.571800	-2.065205
0.571900	-2.185950
0.572000	-2.274886
0.572100	-2.267745
0.572200	-2.206723
0.572300	-2.154790
0.572400	-2.137912
0.572500	-2.144728
0.572600	-2.151869
0.572700	-2.140508
0.572800	-2.119735
0.572900	-2.096040
0.573000	-2.066503
0.573100	-2.010350
0.573200	-1.926608
0.573300	-1.849033
0.573400	-1.791257
0.573500	-1.751982
0.573600	-1.719524
0.573700	-1.665319
0.573800	-1.564698
0.573900	-1.493290
0.574000	-1.402732
0.574100	-1.331324
0.574200	-1.258293
0.574300	-1.193051
0.574400	-1.117748
0.574500	-1.031410
0.574600	-0.946694
0.574700	-0.862951
0.574800	-0.815887
0.574900	-0.778885
0.575000	-0.753892
0.575100	-0.731496
0.575200	-0.716890
0.575300	-0.700011
0.575400	-0.677940
0.575500	-0.661386
0.575600	-0.645806
0.575700	-0.638341
0.575800	-0.656193
0.575900	-0.666904
0.576000	-0.654570
0.576100	-0.537396
0.576200	-0.402045
0.576300	-0.343620
0.576400	-0.441320
0.576500	-0.574723
0.576600	-0.601338
0.576700	-0.510780
0.576800	-0.377702
0.576900	-0.309215
0.577000	-0.339076
0.577100	-0.428012
0.577200	-0.476374
0.577300	-0.448460
0.577400	-0.370561
0.577500	-0.299477
0.577600	-0.294609
0.577700	-0.312461
0.577800	-0.343296
0.577900	-0.335831
0.578000	-0.333883
0.578100	-0.320251
0.578200	-0.318628
0.578300	-0.317654
0.578400	-0.321873
0.578500	-0.342647
0.578600	-0.360499
0.578700	-0.385492
0.578800	-0.424441
0.578900	-0.455277
0.579000	-0.453654
0.579100	-0.450083
0.579200	-0.463067
0.579300	-0.554599
0.579400	-0.638665
0.579500	-0.645157
0.579600	-0.578618
0.579700	-0.502341
0.579800	-0.502990
0.579900	-0.606856
0.580000	-0.724355
0.580100	-0.759085
0.580200	-0.692871
0.580300	-0.619190
0.580400	-0.612050
0.580500	-0.668851
0.580600	-0.745777
0.580700	-0.781157
0.580800	-0.784403
0.580900	-0.760384
0.581000	-0.757462
0.581100	-0.771419
0.581200	-0.805176
0.581300	-0.823677
0.581400	-0.828221
0.581500	-0.824975
0.581600	-0.822054
0.581700	-0.802579
0.581800	-0.770446
0.581900	-0.737663
0.582000	-0.724680
0.582100	-0.754541
0.582200	-0.783104
0.582300	-0.785701
0.582400	-0.760708
0.582500	-0.729873
0.582600	-0.719811
0.582700	-0.716890
0.582800	-0.709100
0.582900	-0.699687
0.583000	-0.692546
0.583100	-0.681510
0.583200	-0.680536
0.583300	-0.681510
0.583400	-0.683458
0.583500	-0.689625
0.583600	-0.693520
0.583700	-0.699687
0.583800	-0.714618
0.583900	-0.729548
0.584000	-0.742532
0.584100	-0.759410
0.584200	-0.780183
0.584300	-0.809071
0.584400	-0.902226
0.584500	-1.063219
0.584600	-1.173252
0.584700	-1.157997
0.584800	-1.064517
0.584900	-1.015830
0.585000	-1.080097
0.585100	-1.242713
0.585200	-1.374818
0.585300	-1.417338
0.585400	-1.369949
0.585500	-1.309252
0.585600	-1.322560
0.585700	-1.400460
0.585800	-1.500106
0.585900	-1.574111
0.586000	-1.595858
0.586100	-1.582550
0.586200	-1.583524
0.586300	-1.610140
0.586400	-1.646818
0.586500	-1.677004
0.586600	-1.694207
0.586700	-1.723095
0.586800	-1.744842
0.586900	-1.773080
0.587000	-1.791582
0.587100	-1.807162
0.587200	-1.825663
0.587300	-1.855200
0.587400	-1.886684
0.587500	-1.895448
0.587600	-1.835725
0.587700	-1.779247
0.587800	-1.795477
0.587900	-1.883114
0.588000	-1.999315
0.588100	-2.047677
0.588200	-1.978866
0.588300	-1.892851
0.588400	-1.864288
0.588500	-1.927582
0.588600	-2.041186
0.588700	-2.124279
0.588800	-2.122981
0.588900	-2.068126
0.589000	-2.010350
0.589100	-1.987630
0.589200	-2.001587
0.589300	-2.008727
0.589400	-1.995095
0.589500	-1.978541
0.589600	-1.944460
0.589700	-1.897396
0.589800	-1.845462
0.589900	-1.781195
0.590000	-1.693233
0.590100	-1.618254
0.590200	-1.571190
0.590300	-1.537109
0.590400	-1.465051
0.590500	-1.370273
0.590600	-1.308603
0.590700	-1.221290
0.590800	-1.150207
0.590900	-1.086913
0.591000	-1.015180
0.591100	-0.940202
0.591200	-0.866522
0.591300	-0.786999
0.591400	-0.713644
0.591500	-0.654894
0.591600	-0.625033
0.591700	-0.600689
0.591800	-0.591601
0.591900	-0.576670
0.592000	-0.551677
0.592100	-0.536097
0.592200	-0.505587
0.592300	-0.493253
0.592400	-0.485787
0.592500	-0.496823
0.592600	-0.488709
0.592700	-0.435802
0.592800	-0.324470
0.592900	-0.165750
0.593000	-0.161855
0.593100	-0.273511
0.593200	-0.394580
0.593300	-0.387439
0.593400	-0.268642
0.593500	-0.144003
0.593600	-0.101807
0.593700	-0.161530
0.593800	-0.234561
0.593900	-0.262475
0.594000	-0.218332
0.594100	-0.146275
0.594200	-0.095965
0.594300	-0.080709
0.594400	-0.089148
0.594500	-0.097912
0.594600	-0.111220
0.594700	-0.119010
0.594800	-0.111220
0.594900	-0.105702
0.595000	-0.099535
0.595100	-0.107000
0.595200	-0.110895
0.595300	-0.170618
0.595400	-0.205024
0.595500	-0.255983
0.595600	-0.266370
0.595700	-0.267668
0.595800	-0.266695
0.595900	-0.312461
0.596000	-0.430933
0.596100	-0.499744
0.596200	-0.498121
0.596300	-0.432880
0.596400	-0.382570
0.596500	-0.436126
0.596600	-0.544861
0.596700	-0.638665
0.596800	-0.657816
0.596900	-0.603935
0.597000	-0.550054
0.597100	-0.563038
0.597200	-0.633472
0.597300	-0.688976
0.597400	-0.716240
