0.000100,-2.818888
0.000200,-2.993514
0.000300,-3.299272
0.000400,-3.553747
0.000500,-3.519341
0.000600,-3.305440
0.000700,-3.161324
0.000800,-3.117505
0.000900,-3.204494
0.001000,-3.276876
0.001100,-3.238575
0.001200,-3.169763
0.001300,-3.043825
0.001400,-2.965275
0.001500,-2.879910
0.001600,-2.738716
0.001700,-2.578047
0.001800,-2.447239
0.001900,-2.383946
0.002000,-2.322924
0.002100,-2.256709
0.002200,-2.002560
0.002300,-1.837997
0.002400,-1.504651
0.002500,-1.479333
0.002600,-1.456612
0.002700,-1.395915
0.002800,-1.276145
0.002900,-1.122293
0.003000,-0.932412
0.003100,-0.852889
0.003200,-0.777262
0.003300,-0.829844
0.003400,-0.816861
0.003500,-0.786999
0.003600,-0.795114
0.003700,-0.716565
0.003800,-0.661711
0.003900,-0.682484
0.004000,-0.663009
0.004100,-0.764279
0.004200,-0.749672
0.004300,-0.864574
0.004400,-0.662035
0.004500,-0.546484
0.004600,-0.112194
0.004700,-0.134590
0.004800,-0.428985
0.004900,-0.871391
0.005000,-0.892813
0.005100,-0.490981
0.005200,-0.244948
0.005300,-0.058962
0.005400,-0.181005
0.005500,-0.399124
0.005600,-0.499095
0.005700,-0.497797
0.005800,-0.216709
0.005900,-0.146924
0.006000,-0.019039
0.006100,-0.127124
0.006200,-0.111545
0.006300,-0.146275
0.006400,-0.108299
0.006500,-0.098886
0.006600,-0.071621
0.006700,-0.088824
0.006800,-0.012547
0.006900,-0.060585
0.007000,-0.209893
0.007100,-0.204050
0.007200,-0.272862
0.007300,-0.287792
0.007400,-0.183277
0.007500,-0.189444
0.007600,-0.172241
0.007700,-0.400422
0.007800,-0.648403
0.007900,-0.639315
0.008000,-0.449110
0.008100,-0.239105
0.008200,-0.260528
0.008300,-0.557844
0.008400,-0.887944
0.008500,-0.890216
0.008600,-0.732145
0.008700,-0.549081
0.008800,-0.555248
0.008900,-0.707801
0.009000,-0.886321
0.009100,-0.911639
0.009200,-0.943448
0.009300,-0.873663
0.009400,-0.905147
0.009500,-0.971686
0.009600,-1.066464
0.009700,-1.074579
0.009800,-1.050884
0.009900,-1.118722
0.010000,-1.192402
0.010100,-1.188832
0.010200,-1.152154
0.010300,-1.115476
0.010400,-1.110608
0.010500,-1.247906
0.010600,-1.389424
0.010700,-1.415390
0.010800,-1.385204
0.010900,-1.309252
0.011000,-1.315744
0.011100,-1.331648
0.011200,-1.335868
0.011300,-1.337166
0.011400,-1.347877
0.011500,-1.335219
0.011600,-1.358264
0.011700,-1.382608
0.011800,-1.410522
0.011900,-1.417338
0.012000,-1.450445
0.012100,-1.458235
0.012200,-1.499457
0.012300,-1.530942
0.012400,-1.588717
0.012500,-1.621825
0.012600,-1.691286
0.012700,-1.758799
0.012800,-1.900966
0.012900,-2.290790
0.013000,-2.445616
0.013100,-2.329091
0.013200,-2.053845
0.013300,-1.901940
0.013400,-2.118112
0.013500,-2.500147
0.013600,-2.766630
0.013700,-2.747804
0.013800,-2.519946
0.013900,-2.346294
0.014000,-2.388165
0.014100,-2.557922
0.014200,-2.781885
0.014300,-2.825704
0.014400,-2.806229
0.014500,-2.683536
0.014600,-2.663737
0.014700,-2.707231
0.014800,-2.733522
0.014900,-2.781885
0.015000,-2.748778
0.015100,-2.768253
0.015200,-2.831222
0.015300,-2.920158
0.015400,-2.911070
0.015500,-2.892893
0.015600,-2.866277
0.015700,-2.976311
0.015800,-3.036684
0.015900,-3.045772
0.016000,-2.873742
0.016100,-2.664061
0.016200,-2.786105
0.016300,-3.015586
0.016400,-3.282719
0.016500,-3.351855
0.016600,-3.100627
0.016700,-2.843881
0.016800,-2.827002
0.016900,-3.055185
0.017000,-3.306413
0.017100,-3.410605
0.017200,-3.310633
0.017300,-3.078880
0.017400,-2.991242
0.017500,-2.988970
0.017600,-3.037982
0.017700,-3.042851
0.017800,-2.971442
0.017900,-2.931518
0.018000,-2.880883
0.018100,-2.820511
0.018200,-2.755269
0.018300,-2.581942
0.018400,-2.454056
0.018500,-2.373559
0.018600,-2.360576
0.018700,-2.401473
0.018800,-2.282026
0.018900,-2.046704
0.019000,-1.848059
0.019100,-1.588068
0.019200,-1.638054
0.019300,-1.573787
0.019400,-1.474140
0.019500,-1.322235
0.019600,-1.151830
0.019700,-0.963247
0.019800,-0.848021
0.019900,-0.806474
0.020000,-0.872040
0.020100,-0.733443
0.020200,-0.761033
0.020300,-0.710398
0.020400,-0.696766
0.020500,-0.608155
0.020600,-0.589653
0.020700,-0.640937
0.020800,-0.661386
0.020900,-0.758436
0.021000,-0.676641
0.021100,-0.695792
0.021200,-0.298179
0.021300,-0.113167
0.021400,-0.064805
0.021500,-0.606856
0.021600,-0.865224
0.021700,-0.697090
0.021800,-0.388413
0.021900,-0.084929
0.022000,-0.080060
0.022100,-0.248843
0.022200,-0.541615
0.022300,-0.579916
0.022400,-0.425740
0.022500,-0.235859
0.022600,-0.076165
0.022700,-0.142055
0.022800,-0.169320
0.022900,-0.291363
0.023000,-0.247869
0.023100,-0.232614
0.023200,-0.213139
0.023300,-0.230991
0.023400,-0.258255
0.023500,-0.268642
0.023600,-0.323496
0.023700,-0.555897
0.023800,-0.478971
0.023900,-0.652298
0.024000,-0.567257
0.024100,-0.576021
0.024200,-0.523439
0.024300,-0.632823
0.024400,-1.019400
0.024500,-1.130407
0.024600,-1.040822
0.024700,-0.776937
0.024800,-0.577644
0.024900,-0.734417
0.025000,-1.035305
0.025100,-1.287830
0.025200,-1.202789
0.025300,-0.991486
0.025400,-0.777911
0.025500,-0.770446
0.025600,-0.910016
0.025700,-1.046665
0.025800,-1.028813
0.025900,-0.998951
0.026000,-0.901252
0.026100,-0.952536
0.026200,-1.027190
0.026300,-1.070035
0.026400,-1.044068
0.026500,-1.044068
0.026600,-1.093405
0.026700,-1.170655
0.026800,-1.155075
0.026900,-1.163839
0.027000,-1.156698
0.027100,-1.201166
0.027200,-1.420584
0.027300,-1.528345
0.027400,-1.562751
0.027500,-1.544899
0.027600,-1.413767
0.027700,-1.509195
0.027800,-1.518283
0.027900,-1.498808
0.028000,-1.474140
0.028100,-1.478359
0.028200,-1.480307
0.028300,-1.471868
0.028400,-1.500431
0.028500,-1.482904
0.028600,-1.485176
0.028700,-1.504326
0.028800,-1.484526
0.028900,-1.450121
0.029000,-1.471219
0.029100,-1.426102
0.029200,-1.472517
0.029300,-1.479982
0.029400,-1.506273
0.029500,-1.726990
0.029600,-2.007105
0.029700,-2.110971
0.029800,-1.751658
0.029900,-1.546846
0.030000,-1.476736
0.030100,-1.769835
0.030200,-2.162904
0.030300,-2.351487
0.030400,-2.254437
0.030500,-1.955496
0.030600,-1.867859
0.030700,-2.003859
0.030800,-2.299879
0.030900,-2.470285
0.031000,-2.517674
0.031100,-2.498199
0.031200,-2.433282
0.031300,-2.470609
0.031400,-2.494304
0.031500,-2.558247
0.031600,-2.620567
0.031700,-2.616347
0.031800,-2.676720
0.031900,-2.722486
0.032000,-2.784482
0.032100,-2.726381
0.032200,-2.738066
0.032300,-2.708205
0.032400,-2.815317
0.032500,-2.834468
0.032600,-2.728978
0.032700,-2.530657
0.032800,-2.464442
0.032900,-2.632577
0.033000,-2.889647
0.033100,-3.070116
0.033200,-3.007796
0.033300,-2.720539
0.033400,-2.533254
0.033500,-2.586486
0.033600,-2.820511
0.033700,-3.083424
0.033800,-3.149639
0.033900,-3.032789
0.034000,-2.868224
0.034100,-2.787728
0.034200,-2.790000
0.034300,-2.854267
0.034400,-2.899060
0.034500,-2.913991
0.034600,-2.888673
0.034700,-2.817265
0.034800,-2.704310
0.034900,-2.629980
0.035000,-2.488137
0.035100,-2.402771
0.035200,-2.393359
0.035300,-2.347917
0.035400,-2.310590
0.035500,-2.104804
0.035600,-1.872078
0.035700,-1.618904
0.035800,-1.538083
0.035900,-1.522503
0.036000,-1.444603
0.036100,-1.339763
0.036200,-1.222264
0.036300,-1.059973
0.036400,-0.942474
0.036500,-0.887944
0.036600,-0.809071
0.036700,-0.878531
0.036800,-0.810045
0.036900,-0.909367
0.037000,-0.835037
0.037100,-0.794789
0.037200,-0.812966
0.037300,-0.743830
0.037400,-0.865224
0.037500,-0.805500
0.037600,-0.884698
0.037700,-0.785052
0.037800,-0.610427
0.037900,-0.356604
0.038000,-0.057339
0.038100,-0.402694
0.038200,-0.663658
0.038300,-0.905796
0.038400,-0.482541
0.038500,-0.291363
0.038600,0.019911
0.038700,-0.093693
0.038800,-0.344594
0.038900,-0.441969
0.039000,-0.414379
0.039100,-0.167697
0.039200,-0.041110
0.039300,0.055940
0.039400,-0.034294
0.039500,-0.119984
0.039600,-0.073244
0.039700,-0.013521
0.039800,-0.010924
0.039900,-0.017416
0.040000,-0.023258
0.040100,-0.003459
0.040200,0.038088
0.040300,-0.119659
0.040400,-0.259878
0.040500,-0.285196
0.040600,-0.386141
0.040700,-0.336155
0.040800,-0.292012
0.040900,-0.298179
0.041000,-0.428012
0.041100,-0.801605
0.041200,-0.823028
0.041300,-0.677291
0.041400,-0.407888
0.041500,-0.398799
0.041600,-0.590952
0.041700,-0.932087
0.041800,-0.987266
0.041900,-0.838932
0.042000,-0.649377
0.042100,-0.623085
0.042200,-0.807123
0.042300,-0.923324
0.042400,-0.943123
0.042500,-0.936307
0.042600,-0.921376
0.042700,-0.952536
0.042800,-1.059973
0.042900,-1.122942
0.043000,-1.136899
0.043100,-1.082694
0.043200,-1.159944
0.043300,-1.233949
0.043400,-1.282961
0.043500,-1.251152
0.043600,-1.217395
0.043700,-1.196622
0.043800,-1.273872
0.043900,-1.468297
0.044000,-1.529319
0.044100,-1.492641
0.044200,-1.427400
0.044300,-1.315744
0.044400,-1.352097
0.044500,-1.325481
0.044600,-1.298865
0.044700,-1.247257
0.044800,-1.234598
0.044900,-1.225510
0.045000,-1.224211
0.045100,-1.197596
0.045200,-1.219667
0.045300,-1.217720
0.045400,-1.252450
0.045500,-1.223562
0.045600,-1.233300
0.045700,-1.265109
0.045800,-1.294321
0.045900,-1.323209
0.046000,-1.346254
0.046100,-1.473491
0.046200,-1.792880
0.046300,-2.116814
0.046400,-2.084680
0.046500,-1.767238
0.046600,-1.633510
0.046700,-1.695830
0.046800,-2.132394
0.046900,-2.456328
0.047000,-2.562142
0.047100,-2.357654
0.047200,-2.201854
0.047300,-2.159983
0.047400,-2.413807
0.047500,-2.682238
0.047600,-2.824406
0.047700,-2.788701
0.047800,-2.761761
0.047900,-2.794219
0.048000,-2.890621
0.048100,-2.960406
0.048200,-3.021104
0.048300,-3.025972
0.048400,-3.046746
0.048500,-3.106145
0.048600,-3.203195
0.048700,-3.284991
0.048800,-3.290509
0.048900,-3.281745
0.049000,-3.295377
0.049100,-3.361917
0.049200,-3.410605
0.049300,-3.272657
0.049400,-3.070765
0.049500,-3.011366
0.049600,-3.231110
0.049700,-3.535570
0.049800,-3.640411
0.049900,-3.429106
0.050000,-3.087968
0.050100,-2.969170
0.050200,-3.151587
0.050300,-3.474873
0.050400,-3.625805
0.050500,-3.505384
0.050600,-3.273630
0.050700,-3.174957
0.050800,-3.215530
0.050900,-3.279797
0.051000,-3.289860
0.051100,-3.216828
0.051200,-3.168789
0.051300,-3.106145
0.051400,-3.061027
0.051500,-3.005199
0.051600,-2.880559
0.051700,-2.711450
0.051800,-2.636472
0.051900,-2.619593
0.052000,-2.583564
0.052100,-2.507287
0.052200,-2.264824
0.052300,-2.103506
0.052400,-1.792555
0.052500,-1.776975
0.052600,-1.747114
0.052700,-1.677978
0.052800,-1.550741
0.052900,-1.416040
0.053000,-1.248880
0.053100,-1.177796
0.053200,-1.113853
0.053300,-1.155725
0.053400,-1.078149
0.053500,-1.052507
0.053600,-1.033682
0.053700,-0.954159
0.053800,-0.892813
0.053900,-0.862302
0.054000,-0.824326
0.054100,-0.858407
0.054200,-0.843152
0.054300,-0.880803
0.054400,-0.797061
0.054500,-0.457549
0.054600,-0.185225
0.054700,-0.046628
0.054800,-0.429635
0.054900,-0.705205
0.055000,-0.747400
0.055100,-0.326418
0.055200,-0.132318
0.055300,0.008551
0.055400,-0.130370
0.055500,-0.311487
0.055600,-0.430933
0.055700,-0.299477
0.055800,-0.064805
0.055900,0.044579
0.056000,0.124426
0.056100,0.073467
0.056200,-0.050523
0.056300,-0.034294
0.056400,0.005629
0.056500,0.057887
0.056600,0.043281
0.056700,0.082880
0.056800,0.081582
0.056900,-0.019039
0.057000,0.017639
0.057100,-0.123229
0.057200,-0.113167
0.057300,-0.216709
0.057400,-0.057989
0.057500,-0.124852
0.057600,-0.042084
0.057700,-0.390685
0.057800,-0.583811
0.057900,-0.535448
0.058000,-0.286494
0.058100,-0.166074
0.058200,-0.135888
0.058300,-0.451382
0.058400,-0.733443
0.058500,-0.736689
0.058600,-0.588031
0.058700,-0.369262
0.058800,-0.410809
0.058900,-0.558169
0.059000,-0.745453
0.059100,-0.799983
0.059200,-0.856460
0.059300,-0.783753
0.059400,-0.853214
0.059500,-0.932737
0.059600,-1.006741
0.059700,-1.063868
0.059800,-1.097300
0.059900,-1.161892
0.060000,-1.219667
0.060100,-1.260565
0.060200,-1.243362
0.060300,-1.278092
0.060400,-1.307954
0.060500,-1.455963
0.060600,-1.573787
0.060700,-1.607219
0.060800,-1.636756
0.060900,-1.657529
0.061000,-1.555610
0.061100,-1.603324
0.061200,-1.585472
0.061300,-1.596832
0.061400,-1.604297
0.061500,-1.607868
0.061600,-1.586770
0.061700,-1.614359
0.061800,-1.624746
0.061900,-1.633185
0.062000,-1.623448
0.062100,-1.640326
0.062200,-1.605920
0.062300,-1.585796
0.062400,-1.583849
0.062500,-1.583849
0.062600,-1.610140
0.062700,-1.599429
0.062800,-1.778923
0.062900,-2.117463
0.063000,-2.249893
0.063100,-2.017816
0.063200,-1.738675
0.063300,-1.581577
0.063400,-1.720498
0.063500,-2.065205
0.063600,-2.275859
0.063700,-2.282676
0.063800,-2.056766
0.063900,-1.922388
0.064000,-1.950952
0.064100,-2.166475
0.064200,-2.296957
0.064300,-2.355058
0.064400,-2.357005
0.064500,-2.273263
0.064600,-2.304098
0.064700,-2.369015
0.064800,-2.374857
0.064900,-2.419650
0.065000,-2.440099
0.065100,-2.456652
0.065200,-2.484567
0.065300,-2.650429
0.065400,-2.566037
0.065500,-2.542992
0.065600,-2.564414
0.065700,-2.647832
0.065800,-2.678992
0.065900,-2.635498
0.066000,-2.386867
0.066100,-2.242752
0.066200,-2.365120
0.066300,-2.664710
0.066400,-2.828950
0.066500,-2.769226
0.066600,-2.551106
0.066700,-2.303774
0.066800,-2.306695
0.066900,-2.528385
0.067000,-2.765007
0.067100,-2.847776
0.067200,-2.728978
0.067300,-2.593302
0.067400,-2.532280
0.067500,-2.543965
0.067600,-2.603364
0.067700,-2.604662
0.067800,-2.581942
0.067900,-2.568309
0.068000,-2.507287
0.068100,-2.431659
0.068200,-2.302800
0.068300,-2.146675
0.068400,-2.054494
0.068500,-2.019439
0.068600,-2.015544
0.068700,-2.002885
0.068800,-1.869481
0.068900,-1.649414
0.069000,-1.560479
0.069100,-1.302436
0.069200,-1.307954
0.069300,-1.242713
0.069400,-1.156374
0.069500,-0.992135
0.069600,-0.883076
0.069700,-0.708126
0.069800,-0.708450
0.069900,-0.629577
0.070000,-0.700336
0.070100,-0.631200
0.070200,-0.672746
0.070300,-0.643534
0.070400,-0.598417
0.070500,-0.632174
0.070600,-0.488059
0.070700,-0.606207
0.070800,-0.518895
0.070900,-0.662360
0.071000,-0.607830
0.071100,-0.533825
0.071200,-0.209568
0.071300,-0.004757
0.071400,-0.114141
0.071500,-0.501367
0.071600,-0.688976
0.071700,-0.511429
0.071800,-0.260203
0.071900,-0.154065
0.072000,-0.160556
0.072100,-0.369262
0.072200,-0.538694
0.072300,-0.521491
0.072400,-0.416327
0.072500,-0.261826
0.072600,-0.211840
0.072700,-0.311811
0.072800,-0.327067
0.072900,-0.336804
0.073000,-0.320251
0.073100,-0.347840
0.073200,-0.320575
0.073300,-0.356279
0.073400,-0.403344
0.073500,-0.386790
0.073600,-0.402045
0.073700,-0.620164
0.073800,-0.661711
0.073900,-0.717539
0.074000,-0.736365
0.074100,-0.575047
0.074200,-0.594522
0.074300,-0.751295
0.074400,-1.120994
0.074500,-1.162541
0.074600,-1.031085
0.074700,-0.722083
0.074800,-0.729224
0.074900,-0.856135
0.075000,-1.146961
0.075100,-1.286207
0.075200,-1.188183
0.075300,-0.979476
0.075400,-0.828546
0.075500,-0.917481
0.075600,-1.097624
0.075700,-1.189481
0.075800,-1.138846
0.075900,-1.147285
0.076000,-1.077176
0.076100,-1.146636
0.076200,-1.199543
0.076300,-1.269328
0.076400,-1.260889
0.076500,-1.285233
0.076600,-1.328727
0.076700,-1.334245
0.076800,-1.322560
0.076900,-1.310226
0.077000,-1.318989
0.077100,-1.357939
0.077200,-1.552364
0.077300,-1.605271
0.077400,-1.641624
0.077500,-1.483553
0.077600,-1.513739
0.077700,-1.568918
0.077800,-1.576383
0.077900,-1.578006
0.078000,-1.549768
0.078100,-1.559180
0.078200,-1.544899
0.078300,-1.516011
0.078400,-1.520880
0.078500,-1.483553
0.078600,-1.502054
0.078700,-1.480956
0.078800,-1.473815
0.078900,-1.438436
0.079000,-1.483228
0.079100,-1.448173
0.079200,-1.516660
0.079300,-1.487772
0.079400,-1.578655
0.079500,-1.830207
0.079600,-2.161282
0.079700,-2.101234
0.079800,-1.800994
0.079900,-1.603648
0.080000,-1.544574
0.080100,-1.912976
0.080200,-2.208346
0.080300,-2.333635
0.080400,-2.227821
0.080500,-1.995744
0.080600,-1.924011
0.080700,-2.029825
0.080800,-2.277807
0.080900,-2.405368
0.081000,-2.403421
0.081100,-2.300528
0.081200,-2.269043
0.081300,-2.311888
0.081400,-2.336881
0.081500,-2.404394
0.081600,-2.453082
0.081700,-2.410237
0.081800,-2.385244
0.081900,-2.496901
0.082000,-2.493655
0.082100,-2.524490
0.082200,-2.484891
0.082300,-2.558572
0.082400,-2.651402
0.082500,-2.625760
0.082600,-2.595899
0.082700,-2.324547
0.082800,-2.362199
0.082900,-2.531631
0.083000,-2.831871
0.083100,-2.913666
0.083200,-2.780911
0.083300,-2.576099
0.083400,-2.450485
0.083500,-2.505015
0.083600,-2.775393
0.083700,-2.981504
0.083800,-3.039930
0.083900,-2.891595
0.084000,-2.722162
0.084100,-2.678018
0.084200,-2.691002
0.084300,-2.752023
0.084400,-2.775718
0.084500,-2.747804
0.084600,-2.699116
0.084700,-2.596872
0.084800,-2.468337
0.084900,-2.299879
0.085000,-2.154790
0.085100,-2.128174
0.085200,-2.109024
0.085300,-2.084355
0.085400,-2.066503
0.085500,-1.879219
0.085600,-1.763343
0.085700,-1.730235
0.085800,-1.488421
0.085900,-1.470894
0.086000,-1.435839
0.086100,-1.338140
0.086200,-1.211553
0.086300,-1.054779
0.086400,-0.956107
0.086500,-0.918130
0.086600,-0.957080
0.086700,-0.967467
0.086800,-0.926570
0.086900,-1.018102
0.087000,-0.874636
0.087100,-0.884374
0.087200,-0.804527
0.087300,-0.846073
0.087400,-0.914235
0.087500,-0.899629
0.087600,-0.997653
0.087700,-0.787973
0.087800,-0.683782
0.087900,-0.191392
0.088000,-0.157311
0.088100,-0.385167
0.088200,-0.799658
0.088300,-0.779534
0.088400,-0.514350
0.088500,-0.261177
0.088600,-0.172241
0.088700,-0.145950
0.088800,-0.411458
0.088900,-0.417301
0.089000,-0.407888
0.089100,-0.172566
0.089200,-0.060261
0.089300,-0.003783
0.089400,-0.053444
0.089500,-0.081358
0.089600,-0.059936
0.089700,-0.111545
0.089800,-0.078437
0.089900,-0.037865
0.090000,-0.011898
0.090100,-0.075191
0.090200,-0.096289
0.090300,-0.167373
0.090400,-0.286819
0.090500,-0.312461
0.090600,-0.306294
0.090700,-0.177759
0.090800,-0.171592
0.090900,-0.219630
0.091000,-0.455601
0.091100,-0.693844
0.091200,-0.649377
0.091300,-0.456250
0.091400,-0.272212
0.091500,-0.437749
0.091600,-0.587057
0.091700,-0.897682
0.091800,-0.915534
0.091900,-0.862302
0.092000,-0.689300
0.092100,-0.632823
0.092200,-0.758436
0.092300,-0.916183
0.092400,-0.957405
0.092500,-0.971037
0.092600,-1.010636
0.092700,-1.056078
0.092800,-1.108985
0.092900,-1.166760
0.093000,-1.171954
0.093100,-1.164813
0.093200,-1.223238
0.093300,-1.282312
0.093400,-1.292374
0.093500,-1.195648
0.093600,-1.172603
0.093700,-1.115476
0.093800,-1.182016
0.093900,-1.301137
0.094000,-1.311849
0.094100,-1.284259
0.094200,-1.037901
0.094300,-1.009987
0.094400,-1.039849
0.094500,-0.969414
0.094600,-0.926894
0.094700,-0.882426
0.094800,-0.837634
0.094900,-0.827897
0.095000,-0.804527
0.095100,-0.812966
0.095200,-0.802255
0.095300,-0.813940
0.095400,-0.826274
0.095500,-0.824002
0.095600,-0.859706
0.095700,-0.859381
0.095800,-0.959028
0.095900,-0.989214
0.096000,-1.090159
0.096100,-1.184612
0.096200,-1.566646
0.096300,-1.828259
0.096400,-1.772431
0.096500,-1.511142
0.096600,-1.340736
0.096700,-1.498483
0.096800,-1.876947
0.096900,-2.206723
0.097000,-2.270991
0.097100,-2.061310
0.097200,-1.913625
0.097300,-1.904212
0.097400,-2.128174
0.097500,-2.345320
0.097600,-2.423220
0.097700,-2.334934
0.097800,-2.270991
0.097900,-2.320976
0.098000,-2.374533
0.098100,-2.396604
0.098200,-2.399201
0.098300,-2.429387
0.098400,-2.435554
0.098500,-2.442371
0.098600,-2.570906
0.098700,-2.653675
0.098800,-2.566362
0.098900,-2.588109
0.099000,-2.645560
0.099100,-2.765981
0.099200,-2.737742
0.099300,-2.600118
0.099400,-2.415430
0.099500,-2.469960
0.099600,-2.748778
0.099700,-3.005848
0.099800,-3.003901
0.099900,-2.846802
0.100000,-2.589082
0.100100,-2.575125
0.100200,-2.782210
0.100300,-3.082125
0.100400,-3.238251
0.100500,-3.151262
0.100600,-2.998058
0.100700,-2.899060
0.100800,-2.934764
0.100900,-3.024025
0.101000,-3.051939
0.101100,-3.041228
0.101200,-2.977609
0.101300,-2.896463
0.101400,-2.845828
0.101500,-2.767603
0.101600,-2.598171
0.101700,-2.458600
0.101800,-2.359926
0.101900,-2.353110
0.102000,-2.346294
0.102100,-2.295334
0.102200,-2.080785
0.102300,-1.986007
0.102400,-1.726340
0.102500,-1.762369
0.102600,-1.790608
0.102700,-1.744192
0.102800,-1.630913
0.102900,-1.548145
0.103000,-1.389748
0.103100,-1.419285
0.103200,-1.356641
0.103300,-1.442655
0.103400,-1.379037
0.103500,-1.440059
0.103600,-1.416040
0.103700,-1.390722
0.103800,-1.270951
0.103900,-1.267381
0.104000,-1.193701
0.104100,-1.211553
0.104200,-1.154102
0.104300,-1.205061
0.104400,-1.077176
0.104500,-0.748374
0.104600,-0.359850
0.104700,-0.323172
0.104800,-0.610751
0.104900,-0.926570
0.105000,-0.748049
0.105100,-0.383219
0.105200,0.018937
0.105300,0.124426
0.105400,0.062431
0.105500,-0.162828
0.105600,-0.143354
0.105700,-0.002485
0.105800,0.277629
0.105900,0.434077
0.106000,0.452903
0.106100,0.307166
0.106200,0.268865
0.106300,0.250039
0.106400,0.314956
0.106500,0.375003
0.106600,0.376626
0.106700,0.400970
0.106800,0.395452
0.106900,0.231538
0.107000,0.215958
0.107100,0.189343
0.107200,0.155262
0.107300,0.049448
0.107400,0.120207
0.107500,0.068274
0.107600,0.043930
0.107700,-0.309215
0.107800,-0.484164
0.107900,-0.428661
0.108000,-0.188146
0.108100,0.005629
0.108200,-0.111545
0.108300,-0.412756
0.108400,-0.716240
0.108500,-0.666579
0.108600,-0.443916
0.108700,-0.283248
0.108800,-0.331286
0.108900,-0.519544
0.109000,-0.677615
0.109100,-0.670799
0.109200,-0.692221
0.109300,-0.598093
0.109400,-0.663983
0.109500,-0.708775
0.109600,-0.795763
0.109700,-0.831467
0.109800,-0.790245
0.109900,-0.736365
0.110000,-0.742532
0.110100,-0.738961
0.110200,-0.700985
0.110300,-0.710073
0.110400,-0.715267
0.110500,-0.880479
0.110600,-0.962598
0.110700,-0.972336
0.110800,-0.971686
0.110900,-0.926894
0.111000,-0.899305
0.111100,-0.901577
0.111200,-0.884698
0.111300,-0.852240
0.111400,-0.869119
0.111500,-0.870741
0.111600,-0.874961
0.111700,-0.861978
0.111800,-0.863925
0.111900,-0.892813
0.112000,-0.901577
0.112100,-0.916183
0.112200,-0.901901
0.112300,-0.937605
0.112400,-0.992460
0.112500,-1.007066
0.112600,-1.090159
0.112700,-1.106388
0.112800,-1.316393
0.112900,-1.631887
0.113000,-1.821119
0.113100,-1.609166
0.113200,-1.363457
0.113300,-1.246608
0.113400,-1.563725
0.113500,-1.950952
0.113600,-2.204127
0.113700,-2.139534
0.113800,-1.890255
0.113900,-1.768861
0.114000,-1.836699
0.114100,-2.129472
0.114200,-2.344671
0.114300,-2.396929
0.114400,-2.356356
0.114500,-2.298580
0.114600,-2.316757
0.114700,-2.371936
0.114800,-2.414132
0.114900,-2.498199
0.115000,-2.517674
0.115100,-2.570257
0.115200,-2.649780
0.115300,-2.663737
0.115400,-2.692949
0.115500,-2.666333
0.115600,-2.731575
0.115700,-2.784157
0.115800,-2.815642
0.115900,-2.752673
0.116000,-2.553378
0.116100,-2.447889
0.116200,-2.530657
0.116300,-2.765656
0.116400,-2.965275
0.116500,-2.921781
0.116600,-2.634200
0.116700,-2.418351
0.116800,-2.433607
0.116900,-2.639393
0.117000,-2.878936
0.117100,-2.942879
0.117200,-2.826353
0.117300,-2.659192
0.117400,-2.600767
0.117500,-2.585187
0.117600,-2.624137
0.117700,-2.630305
0.117800,-2.617646
0.117900,-2.593627
0.118000,-2.517674
0.118100,-2.429063
0.118200,-2.280728
0.118300,-2.083057
0.118400,-1.980164
0.118500,-1.971725
0.118600,-1.968804
0.118700,-1.947381
0.118800,-1.746465
0.118900,-1.543925
0.119000,-1.417013
0.119100,-1.213500
0.119200,-1.239467
0.119300,-1.166436
0.119400,-1.107686
0.119500,-1.018426
0.119600,-0.933061
0.119700,-0.799333
0.119800,-0.770121
0.119900,-0.785701
0.120000,-0.781157
0.120100,-0.821405
0.120200,-0.828546
0.120300,-0.883725
0.120400,-0.784403
0.120500,-0.799658
0.120600,-0.754541
0.120700,-0.781481
0.120800,-0.852240
0.120900,-0.866197
0.121000,-0.873014
0.121100,-0.781806
0.121200,-0.415353
0.121300,-0.249492
0.121400,-0.369587
0.121500,-0.790894
0.121600,-1.037577
0.121700,-0.783753
0.121800,-0.543563
0.121900,-0.211840
0.122000,-0.355630
0.122100,-0.520518
0.122200,-0.705854
0.122300,-0.627630
0.122400,-0.437425
0.122500,-0.191392
0.122600,-0.181330
0.122700,-0.263449
0.122800,-0.232614
0.122900,-0.156661
0.123000,-0.112843
0.123100,-0.087850
0.123200,-0.036891
0.123300,-0.007678
0.123400,-0.006380
0.123500,0.096837
0.123600,-0.017740
0.123700,-0.005406
0.123800,-0.164776
0.123900,-0.128423
0.124000,-0.129397
0.124100,-0.045654
0.124200,-0.042084
0.124300,-0.175487
0.124400,-0.548107
0.124500,-0.593873
0.124600,-0.488059
0.124700,-0.190093
0.124800,-0.161530
0.124900,-0.313110
0.125000,-0.652298
0.125100,-0.762331
0.125200,-0.667229
0.125300,-0.442293
0.125400,-0.326742
0.125500,-0.458522
0.125600,-0.626980
0.125700,-0.679238
0.125800,-0.624708
0.125900,-0.618541
0.126000,-0.608479
0.126100,-0.699362
0.126200,-0.741558
0.126300,-0.734417
0.126400,-0.675668
0.126500,-0.732145
0.126600,-0.803553
0.126700,-0.834064
0.126800,-0.796412
0.126900,-0.773691
0.127000,-0.774665
0.127100,-0.847696
0.127200,-1.020049
0.127300,-1.052507
0.127400,-1.078149
0.127500,-1.078474
0.127600,-0.991486
0.127700,-1.057376
0.127800,-1.063868
0.127900,-1.062894
0.128000,-1.063219
0.128100,-1.095677
0.128200,-1.112231
0.128300,-1.123266
0.128400,-1.145338
0.128500,-1.183963
0.128600,-1.245958
0.128700,-1.278417
0.128800,-1.304383
0.128900,-1.376765
0.129000,-1.429672
0.129100,-1.515686
0.129200,-1.562426
0.129300,-1.631562
0.129400,-1.692908
0.129500,-2.018140
0.129600,-2.356031
0.129700,-2.376805
0.129800,-2.124279
0.129900,-1.835725
0.130000,-1.907133
0.130100,-2.280728
0.130200,-2.647507
0.130300,-2.745532
0.130400,-2.561817
0.130500,-2.338829
0.130600,-2.336881
0.130700,-2.561493
0.130800,-2.797465
0.130900,-2.904902
0.131000,-2.825379
0.131100,-2.775069
0.131200,-2.745532
0.131300,-2.822134
0.131400,-2.884129
0.131500,-2.902630
0.131600,-2.878287
0.131700,-2.866926
0.131800,-2.904902
0.131900,-2.954888
0.132000,-3.017858
0.132100,-2.993839
0.132200,-2.923404
0.132300,-2.961380
0.132400,-3.012340
0.132500,-3.056483
0.132600,-2.901332
0.132700,-2.701713
0.132800,-2.663087
0.132900,-2.837064
0.133000,-3.092837
0.133100,-3.244093
0.133200,-3.053237
0.133300,-2.755594
0.133400,-2.584538
0.133500,-2.715021
0.133600,-3.000655
0.133700,-3.222995
0.133800,-3.181124
0.133900,-2.997084
0.134000,-2.863031
0.134100,-2.863680
0.134200,-2.936063
0.134300,-3.009419
0.134400,-3.034412
0.134500,-2.968846
0.134600,-2.925676
0.134700,-2.847451
0.134800,-2.787403
0.134900,-2.683536
0.135000,-2.544939
0.135100,-2.461846
0.135200,-2.434256
0.135300,-2.402447
0.135400,-2.357979
0.135500,-2.116489
0.135600,-1.972699
0.135700,-1.660450
0.135800,-1.606894
0.135900,-1.589042
0.136000,-1.529643
0.136100,-1.413118
0.136200,-1.288154
0.136300,-1.091782
0.136400,-1.018102
0.136500,-0.926570
0.136600,-0.970713
0.136700,-0.898006
0.136800,-0.894761
0.136900,-0.881453
0.137000,-0.825949
0.137100,-0.775314
0.137200,-0.751295
0.137300,-0.740259
0.137400,-0.754217
0.137500,-0.832765
0.137600,-0.848021
0.137700,-0.708450
0.137800,-0.557844
0.137900,-0.107974
0.138000,-0.105377
0.138100,-0.264747
0.138200,-0.828870
0.138300,-0.661061
0.138400,-0.433205
0.138500,-0.120957
0.138600,-0.024557
0.138700,-0.190742
0.138800,-0.392957
0.138900,-0.578942
0.139000,-0.439372
0.139100,-0.199506
0.139200,-0.074218
0.139300,-0.061234
0.139400,-0.179707
0.139500,-0.282275
0.139600,-0.256957
0.139700,-0.255334
0.139800,-0.229043
0.139900,-0.242026
0.140000,-0.236508
0.140100,-0.265396
0.140200,-0.294609
0.140300,-0.457549
0.140400,-0.477024
0.140500,-0.568231
0.140600,-0.593873
0.140700,-0.526360
0.140800,-0.536747
0.140900,-0.528632
0.141000,-0.776613
0.141100,-1.078799
0.141200,-1.040173
0.141300,-0.864899
0.141400,-0.601988
0.141500,-0.715267
0.141600,-0.907744
0.141700,-1.241090
0.141800,-1.192078
0.141900,-1.078799
0.142000,-0.822703
0.142100,-0.789271
0.142200,-0.934684
0.142300,-1.096326
0.142400,-1.062569
0.142500,-1.028813
0.142600,-0.941500
0.142700,-0.949290
0.142800,-0.986617
0.142900,-1.027515
0.143000,-1.048288
0.143100,-1.032708
0.143200,-1.056402
0.143300,-1.082369
0.143400,-1.034980
0.143500,-0.947667
0.143600,-0.902226
0.143700,-0.782780
0.143800,-0.852240
0.143900,-1.010312
0.144000,-1.035954
0.144100,-1.037901
0.144200,-1.032383
0.144300,-0.980126
0.144400,-1.003496
0.144500,-0.986942
0.144600,-0.988240
0.144700,-0.973309
0.144800,-0.993758
0.144900,-1.007066
0.145000,-1.029787
0.145100,-1.075877
0.145200,-1.091457
0.145300,-1.128784
0.145400,-1.133328
0.145500,-1.185262
0.145600,-1.263161
0.145700,-1.266407
0.145800,-1.349825
0.145900,-1.351448
0.146000,-1.473166
0.146100,-1.591963
0.146200,-2.020737
0.146300,-2.211592
0.146400,-2.081110
0.146500,-1.751658
0.146600,-1.593262
0.146700,-1.750684
0.146800,-2.175563
0.146900,-2.479373
0.147000,-2.463469
0.147100,-2.244375
0.147200,-2.109997
0.147300,-2.157711
0.147400,-2.440423
0.147500,-2.647183
0.147600,-2.701713
0.147700,-2.607259
0.147800,-2.607584
0.147900,-2.609856
0.148000,-2.685808
0.148100,-2.759813
0.148200,-2.786105
0.148300,-2.805580
0.148400,-2.850697
0.148500,-2.947423
0.148600,-3.063624
0.148700,-3.064598
0.148800,-3.035385
0.148900,-3.050641
0.149000,-3.151587
0.149100,-3.214231
0.149200,-3.216828
0.149300,-3.037982
0.149400,-2.822783
0.149500,-2.931843
0.149600,-3.159701
0.149700,-3.426185
0.149800,-3.462863
0.149900,-3.222671
0.150000,-2.951318
0.150100,-2.912043
0.150200,-3.113286
0.150300,-3.431378
0.150400,-3.567704
0.150500,-3.431703
0.150600,-3.261296
0.150700,-3.157429
0.150800,-3.186642
0.150900,-3.248962
0.151000,-3.276227
0.151100,-3.251234
0.151200,-3.214880
0.151300,-3.164570
0.151400,-3.087643
0.151500,-2.979232
0.151600,-2.797141
0.151700,-2.658219
0.151800,-2.610505
0.151900,-2.604662
0.152000,-2.585512
0.152100,-2.467039
0.152200,-2.216461
0.152300,-2.144403
0.152400,-1.845462
0.152500,-1.862665
0.152600,-1.813004
0.152700,-1.715629
0.152800,-1.568918
0.152900,-1.423830
0.153000,-1.226483
0.153100,-1.172603
0.153200,-1.139495
0.153300,-1.128784
0.153400,-1.105414
0.153500,-1.056727
0.153600,-1.058999
0.153700,-0.974608
0.153800,-0.893138
0.153900,-0.860679
0.154000,-0.830493
0.154100,-0.868794
0.154200,-0.844450
0.154300,-0.852889
0.154400,-0.689300
0.154500,-0.352709
0.154600,-0.117387
0.154700,0.009849
0.154800,-0.495200
0.154900,-0.754541
0.155000,-0.516947
0.155100,-0.148547
0.155200,0.166297
0.155300,0.182526
0.155400,-0.055716
0.155500,-0.263124
0.155600,-0.291038
0.155700,-0.069349
0.155800,0.109496
0.155900,0.199405
0.156000,0.098784
0.156100,-0.026829
0.156200,-0.093693
0.156300,-0.066752
0.156400,-0.020662
0.156500,-0.034943
0.156600,-0.087201
0.156700,-0.113492
0.156800,-0.159258
0.156900,-0.162504
0.157000,-0.252738
0.157100,-0.291363
0.157200,-0.338752
0.157300,-0.372184
0.157400,-0.246246
0.157500,-0.254360
0.157600,-0.216060
0.157700,-0.608804
0.157800,-0.741558
0.157900,-0.638341
0.158000,-0.386141
0.158100,-0.180356
0.158200,-0.375105
0.158300,-0.696766
0.158400,-0.954159
0.158500,-0.881777
0.158600,-0.688326
0.158700,-0.487086
0.158800,-0.566284
0.158900,-0.794789
0.159000,-0.973634
0.159100,-0.959352
0.159200,-0.940851
0.159300,-0.866846
0.159400,-0.968441
0.159500,-1.061271
0.159600,-1.172603
0.159700,-1.162541
0.159800,-1.115801
0.159900,-1.113853
0.160000,-1.196946
0.160100,-1.227133
0.160200,-1.200841
0.160300,-1.209930
0.160400,-1.218693
0.160500,-1.395266
0.160600,-1.500106
0.160700,-1.515686
0.160800,-1.477710
0.160900,-1.429997
0.161000,-1.431619
0.161100,-1.426751
0.161200,-1.400784
0.161300,-1.395266
0.161400,-1.386827
0.161500,-1.363457
0.161600,-1.368975
0.161700,-1.352097
0.161800,-1.341061
0.161900,-1.330674
0.162000,-1.307954
0.162100,-1.328078
0.162200,-1.265433
0.162300,-1.309901
0.162400,-1.259591
0.162500,-1.306006
0.162600,-1.286531
0.162700,-1.320937
0.162800,-1.547820
0.162900,-1.860069
0.163000,-1.957119
0.163100,-1.725042
0.163200,-1.421557
0.163300,-1.343009
0.163400,-1.664670
0.163500,-2.042484
0.163600,-2.261902
0.163700,-2.146351
0.163800,-1.897071
0.163900,-1.795152
0.164000,-1.914274
0.164100,-2.182704
0.164200,-2.325521
0.164300,-2.353110
0.164400,-2.217759
0.164500,-2.168422
0.164600,-2.198609
0.164700,-2.227821
0.164800,-2.282676
0.164900,-2.304098
0.165000,-2.258656
0.165100,-2.263850
0.165200,-2.318055
0.165300,-2.343048
0.165400,-2.333960
0.165500,-2.283649
0.165600,-2.317731
0.165700,-2.362199
0.165800,-2.373559
0.165900,-2.302800
0.166000,-2.020412
0.166100,-1.961988
0.166200,-2.073320
0.166300,-2.376805
0.166400,-2.585512
0.166500,-2.531956
0.166600,-2.209644
0.166700,-1.988603
0.166800,-2.060336
0.166900,-2.332661
0.167000,-2.613751
0.167100,-2.640042
0.167200,-2.477101
0.167300,-2.289816
0.167400,-2.196337
0.167500,-2.215487
0.167600,-2.303124
0.167700,-2.340451
0.167800,-2.306370
0.167900,-2.200232
0.168000,-2.093119
0.168100,-2.034370
0.168200,-1.924661
0.168300,-1.778274
0.168400,-1.678951
0.168500,-1.661099
0.168600,-1.664021
0.168700,-1.653634
0.168800,-1.505624
0.168900,-1.307304
0.169000,-1.148584
0.169100,-0.998951
0.169200,-1.026216
0.169300,-1.003820
0.169400,-0.947343
0.169500,-0.832765
0.169600,-0.687677
0.169700,-0.569205
0.169800,-0.523763
0.169900,-0.539343
0.170000,-0.564985
0.170100,-0.552327
0.170200,-0.625033
0.170300,-0.573100
0.170400,-0.556546
0.170500,-0.492279
0.170600,-0.607181
0.170700,-0.561739
0.170800,-0.700660
0.170900,-0.675668
0.171000,-0.675668
0.171100,-0.563687
0.171200,-0.218332
0.171300,-0.053769
0.171400,-0.254360
0.171500,-0.731820
0.171600,-0.932412
0.171700,-0.654894
0.171800,-0.428985
0.171900,-0.175812
0.172000,-0.261826
0.172100,-0.505587
0.172200,-0.705205
0.172300,-0.730522
0.172400,-0.546809
0.172500,-0.383544
0.172600,-0.301100
0.172700,-0.319277
0.172800,-0.447162
0.172900,-0.436126
0.173000,-0.500393
0.173100,-0.503315
0.173200,-0.486436
0.173300,-0.470532
0.173400,-0.486761
0.173500,-0.517596
0.173600,-0.587057
0.173700,-0.779534
0.173800,-0.817835
0.173900,-0.836985
0.174000,-0.848670
0.174100,-0.847696
0.174200,-0.898980
0.174300,-1.046016
0.174400,-1.413443
0.174500,-1.349176
0.174600,-1.252450
0.174700,-0.951562
0.174800,-0.906445
0.174900,-1.110932
0.175000,-1.454016
0.175100,-1.547171
0.175200,-1.391696
0.175300,-1.196297
0.175400,-1.078474
0.175500,-1.147285
0.175600,-1.326130
0.175700,-1.379037
0.175800,-1.379037
0.175900,-1.360861
0.176000,-1.352421
0.176100,-1.429347
0.176200,-1.468946
0.176300,-1.541328
0.176400,-1.495238
0.176500,-1.520231
0.176600,-1.595209
0.176700,-1.617930
0.176800,-1.522503
0.176900,-1.412469
0.177000,-1.410522
0.177100,-1.541978
0.177200,-1.728937
0.177300,-1.789309
0.177400,-1.782169
0.177500,-1.766264
0.177600,-1.709787
0.177700,-1.746789
0.177800,-1.753605
0.177900,-1.739648
0.178000,-1.747763
0.178100,-1.773405
0.178200,-1.810407
0.178300,-1.801644
0.178400,-1.815601
0.178500,-1.809109
0.178600,-1.875973
0.178700,-1.862341
0.178800,-1.910703
0.178900,-1.947706
0.179000,-1.936346
0.179100,-2.001587
0.179200,-1.994446
0.179300,-2.094742
0.179400,-2.151219
0.179500,-2.494629
0.179600,-2.770200
0.179700,-2.721513
0.179800,-2.452433
0.179900,-2.130771
0.180000,-2.228795
0.180100,-2.560519
0.180200,-2.880559
0.180300,-2.889972
0.180400,-2.674123
0.180500,-2.367716
0.180600,-2.364795
0.180700,-2.540070
0.180800,-2.802009
0.180900,-2.881857
0.181000,-2.833494
0.181100,-2.776367
0.181200,-2.740338
0.181300,-2.757866
0.181400,-2.819537
0.181500,-2.802334
0.181600,-2.837064
0.181700,-2.831222
0.181800,-2.875365
0.181900,-2.932492
0.182000,-2.952292
0.182100,-2.875690
0.182200,-2.794869
0.182300,-2.894516
0.182400,-2.893542
0.182500,-2.911070
0.182600,-2.719890
0.182700,-2.476776
0.182800,-2.510858
0.182900,-2.672500
0.183000,-2.950344
0.183100,-3.116856
0.183200,-2.919184
0.183300,-2.598495
0.183400,-2.485216
0.183500,-2.647507
0.183600,-2.943203
0.183700,-3.137629
0.183800,-3.111013
0.183900,-2.898086
0.184000,-2.759489
0.184100,-2.742935
0.184200,-2.792596
0.184300,-2.820511
0.184400,-2.806554
0.184500,-2.777016
0.184600,-2.762410
0.184700,-2.686782
0.184800,-2.629006
0.184900,-2.466390
0.185000,-2.328117
0.185100,-2.263525
0.185200,-2.275859
0.185300,-2.302800
0.185400,-2.243401
0.185500,-1.992174
0.185600,-1.874350
0.185700,-1.559180
0.185800,-1.575734
0.185900,-1.530942
0.186000,-1.456937
0.186100,-1.349825
0.186200,-1.220316
0.186300,-1.024593
0.186400,-0.926245
0.186500,-0.832116
0.186600,-0.873338
0.186700,-0.844126
0.186800,-0.813290
0.186900,-0.821730
0.187000,-0.796088
0.187100,-0.727276
0.187200,-0.773691
0.187300,-0.702933
0.187400,-0.780183
0.187500,-0.735391
0.187600,-0.843477
0.187700,-0.765252
0.187800,-0.487735
0.187900,-0.180031
0.188000,-0.087201
0.188100,-0.470532
0.188200,-0.946694
0.188300,-0.858083
0.188400,-0.648727
0.188500,-0.230666
0.188600,-0.150494
0.188700,-0.242351
0.188800,-0.578942
0.188900,-0.659114
0.189000,-0.551677
0.189100,-0.311162
0.189200,-0.172890
0.189300,-0.146924
0.189400,-0.226446
0.189500,-0.263773
0.189600,-0.299477
0.189700,-0.276107
0.189800,-0.264098
0.189900,-0.265721
0.190000,-0.273835
0.190100,-0.249816
0.190200,-0.256957
0.190300,-0.406914
0.190400,-0.446188
0.190500,-0.463391
0.190600,-0.497148
0.190700,-0.455601
0.190800,-0.422818
0.190900,-0.409186
0.191000,-0.672097
0.191100,-0.937930
0.191200,-0.818808
0.191300,-0.594847
0.191400,-0.359850
0.191500,-0.402370
0.191600,-0.693844
0.191700,-0.972985
0.191800,-0.978827
0.191900,-0.794465
0.192000,-0.524737
0.192100,-0.503639
0.192200,-0.669501
0.192300,-0.801930
0.192400,-0.780508
0.192500,-0.765577
0.192600,-0.637367
0.192700,-0.673720
0.192800,-0.690598
0.192900,-0.690274
0.193000,-0.625682
0.193100,-0.607830
0.193200,-0.610102
0.193300,-0.613023
0.193400,-0.564661
0.193500,-0.489358
0.193600,-0.439048
0.193700,-0.401396
0.193800,-0.507210
0.193900,-0.623735
0.194000,-0.588355
0.194100,-0.548107
0.194200,-0.504288
0.194300,-0.433205
0.194400,-0.428985
0.194500,-0.391334
0.194600,-0.390685
0.194700,-0.390360
0.194800,-0.394580
0.194900,-0.367640
0.195000,-0.385492
0.195100,-0.385167
0.195200,-0.401396
0.195300,-0.427687
0.195400,-0.427038
0.195500,-0.431258
0.195600,-0.450732
0.195700,-0.467611
0.195800,-0.452355
0.195900,-0.546809
0.196000,-0.561739
0.196100,-0.795114
0.196200,-1.088861
0.196300,-1.362159
0.196400,-1.117099
0.196500,-0.853863
0.196600,-0.715916
0.196700,-0.898006
0.196800,-1.323534
0.196900,-1.602999
0.197000,-1.565023
0.197100,-1.351123
0.197200,-1.196622
0.197300,-1.280040
0.197400,-1.536135
0.197500,-1.744192
0.197600,-1.803916
0.197700,-1.777625
0.197800,-1.779897
0.197900,-1.837348
0.198000,-1.892202
0.198100,-1.960040
0.198200,-2.006131
0.198300,-2.060336
0.198400,-2.112269
0.198500,-2.186274
0.198600,-2.359277
0.198700,-2.303449
0.198800,-2.338179
0.198900,-2.401473
0.199000,-2.519946
0.199100,-2.603689
0.199200,-2.656271
0.199300,-2.487488
0.199400,-2.329416
0.199500,-2.512805
0.199600,-2.796816
0.199700,-3.102899
0.199800,-3.153859
0.199900,-2.945800
0.200000,-2.711775
0.200100,-2.754296
0.200200,-3.005524
0.200300,-3.340495
0.200400,-3.490778
0.200500,-3.395674
0.200600,-3.279473
0.200700,-3.243444
0.200800,-3.301545
0.200900,-3.396972
0.201000,-3.427808
0.201100,-3.439818
0.201200,-3.436572
0.201300,-3.413202
0.201400,-3.371979
0.201500,-3.258699
0.201600,-3.048369
0.201700,-2.909771
0.201800,-2.890945
0.201900,-2.839661
0.202000,-2.794869
0.202100,-2.630629
0.202200,-2.362848
0.202300,-2.269368
0.202400,-1.986656
0.202500,-2.008078
0.202600,-1.935696
0.202700,-1.842866
0.202800,-1.706865
0.202900,-1.576059
0.203000,-1.368001
0.203100,-1.329701
0.203200,-1.261863
0.203300,-1.252450
0.203400,-1.193376
0.203500,-1.139820
0.203600,-1.150531
0.203700,-1.042121
0.203800,-0.974932
0.203900,-0.891190
0.204000,-0.839906
0.204100,-0.814913
0.204200,-0.846073
0.204300,-0.713644
0.204400,-0.610751
0.204500,-0.208270
0.204600,0.174087
0.204700,0.049773
0.204800,-0.225473
0.204900,-0.605883
0.205000,-0.190093
0.205100,0.075414
0.205200,0.390259
0.205300,0.449008
0.205400,0.230889
0.205500,0.024131
0.205600,-0.015468
0.205700,0.195185
0.205800,0.375977
0.205900,0.482764
0.206000,0.431481
0.206100,0.416550
0.206200,0.402917
0.206300,0.429533
0.206400,0.493800
0.206500,0.498993
0.206600,0.496397
0.206700,0.512626
0.206800,0.559366
0.206900,0.427910
0.207000,0.366889
0.207100,0.263672
0.207200,0.206870
0.207300,0.211090
0.207400,0.285743
0.207500,0.309113
0.207600,0.171491
0.207700,-0.200155
0.207800,-0.294609
0.207900,-0.177435
0.208000,0.045228
0.208100,0.168894
0.208200,-0.078113
0.208300,-0.367964
0.208400,-0.569529
0.208500,-0.499095
0.208600,-0.316031
0.208700,-0.196910
0.208800,-0.363095
0.208900,-0.589329
0.209000,-0.752594
0.209100,-0.748374
0.209200,-0.773691
0.209300,-0.763305
0.209400,-0.906770
0.209500,-1.025567
0.209600,-1.097300
0.209700,-1.098598
0.209800,-1.118073
0.209900,-1.213825
0.210000,-1.292698
0.210100,-1.297242
0.210200,-1.306006
0.210300,-1.315419
0.210400,-1.366054
0.210500,-1.566321
0.210600,-1.676355
0.210700,-1.727639
0.210800,-1.732183
0.210900,-1.651686
0.211000,-1.726990
0.211100,-1.753930
0.211200,-1.767238
0.211300,-1.763992
0.211400,-1.776326
0.211500,-1.800021
0.211600,-1.813978
0.211700,-1.810083
0.211800,-1.831830
0.211900,-1.819496
0.212000,-1.802617
0.212100,-1.819820
0.212200,-1.809758
0.212300,-1.814302
0.212400,-1.820469
0.212500,-1.870131
0.212600,-1.838321
0.212700,-1.966856
0.212800,-2.159983
0.212900,-2.569283
0.213000,-2.540719
0.213100,-2.347268
0.213200,-2.059038
0.213300,-2.035343
0.213400,-2.347917
0.213500,-2.664061
0.213600,-2.844530
0.213700,-2.640367
0.213800,-2.459574
0.213900,-2.344346
0.214000,-2.548185
0.214100,-2.791947
0.214200,-2.968846
0.214300,-2.930869
0.214400,-2.850048
0.214500,-2.842582
0.214600,-2.869847
0.214700,-2.933466
0.214800,-2.994163
0.214900,-2.976636
0.215000,-2.954564
0.215100,-2.960406
0.215200,-3.034087
0.215300,-3.114908
0.215400,-3.141849
0.215500,-3.108417
0.215600,-3.086994
0.215700,-3.146393
0.215800,-3.174957
0.215900,-3.077257
0.216000,-2.869523
0.216100,-2.782859
0.216200,-2.933466
0.216300,-3.200274
0.216400,-3.388858
0.216500,-3.243444
0.216600,-2.956187
0.216700,-2.749427
0.216800,-2.817589
0.216900,-3.081801
0.217000,-3.313230
0.217100,-3.287263
0.217200,-3.080178
0.217300,-2.856215
0.217400,-2.769876
0.217500,-2.802659
0.217600,-2.868224
0.217700,-2.855566
0.217800,-2.806229
0.217900,-2.691975
0.218000,-2.568634
0.218100,-2.509235
0.218200,-2.409588
0.218300,-2.270017
0.218400,-2.187897
0.218500,-2.148298
0.218600,-2.101234
0.218700,-2.071047
0.218800,-1.860069
0.218900,-1.705892
0.219000,-1.444278
0.219100,-1.364756
0.219200,-1.331324
0.219300,-1.275820
0.219400,-1.164813
0.219500,-1.001548
0.219600,-0.841204
0.219700,-0.777911
0.219800,-0.700011
0.219900,-0.737014
0.220000,-0.741558
0.220100,-0.709100
0.220200,-0.740909
0.220300,-0.683458
0.220400,-0.667229
0.220500,-0.610102
0.220600,-0.691572
0.220700,-0.678589
0.220800,-0.778560
0.220900,-0.739286
0.221000,-0.829844
0.221100,-0.565310
0.221200,-0.229043
0.221300,-0.102132
0.221400,-0.310838
0.221500,-0.779858
0.221600,-0.797386
0.221700,-0.602961
0.221800,-0.365692
0.221900,-0.211840
0.222000,-0.280976
0.222100,-0.485787
0.222200,-0.658140
0.222300,-0.515000
0.222400,-0.364069
0.222500,-0.190742
0.222600,-0.264098
0.222700,-0.282924
0.222800,-0.371210
0.222900,-0.332909
0.223000,-0.341673
0.223100,-0.342647
0.223200,-0.367964
0.223300,-0.382570
0.223400,-0.426713
0.223500,-0.418599
0.223600,-0.530904
0.223700,-0.657491
0.223800,-0.637692
0.223900,-0.728899
0.224000,-0.633472
0.224100,-0.648727
0.224200,-0.653272
0.224300,-0.964546
0.224400,-1.237844
0.224500,-1.226808
0.224600,-1.100546
0.224700,-0.812641
0.224800,-0.885997
0.224900,-1.099247
0.225000,-1.439085
0.225100,-1.511791
0.225200,-1.408899
0.225300,-1.196622
0.225400,-1.138197
0.225500,-1.296593
0.225600,-1.459858
0.225700,-1.489071
0.225800,-1.528670
0.225900,-1.458884
0.226000,-1.485176
0.226100,-1.526398
0.226200,-1.578980
0.226300,-1.574111
0.226400,-1.564698
0.226500,-1.622474
0.226600,-1.662398
0.226700,-1.655581
0.226800,-1.616632
0.226900,-1.594560
0.227000,-1.559505
0.227100,-1.667591
0.227200,-1.801319
0.227300,-1.828584
0.227400,-1.787037
0.227500,-1.750684
0.227600,-1.645519
0.227700,-1.650388
0.227800,-1.603973
0.227900,-1.568269
0.228000,-1.500756
0.228100,-1.481930
0.228200,-1.452393
0.228300,-1.425452
0.228400,-1.366378
0.228500,-1.367677
0.228600,-1.332297
0.228700,-1.316393
0.228800,-1.292698
0.228900,-1.286856
0.229000,-1.301137
0.229100,-1.281013
0.229200,-1.330350
0.229300,-1.338140
0.229400,-1.461481
0.229500,-1.791582
0.229600,-2.059362
0.229700,-2.003210
0.229800,-1.640975
0.229900,-1.497510
0.230000,-1.565023
0.230100,-2.039563
0.230200,-2.293387
0.230300,-2.349864
0.230400,-2.085005
0.230500,-1.928880
0.230600,-1.915572
0.230700,-2.170370
0.230800,-2.404719
0.230900,-2.443344
0.231000,-2.396929
0.231100,-2.335583
0.231200,-2.313186
0.231300,-2.370962
0.231400,-2.403421
0.231500,-2.419974
0.231600,-2.391411
0.231700,-2.352461
0.231800,-2.381349
0.231900,-2.486514
0.232000,-2.410561
0.232100,-2.377454
0.232200,-2.331363
0.232300,-2.366743
0.232400,-2.384919
0.232500,-2.339802
0.232600,-2.138885
0.232700,-1.897396
0.232800,-1.942513
0.232900,-2.061959
0.233000,-2.290466
0.233100,-2.346294
0.233200,-2.109673
0.233300,-1.839295
0.233400,-1.744517
0.233500,-1.926283
0.233600,-2.187573
0.233700,-2.316108
0.233800,-2.213215
0.233900,-2.018140
0.234000,-1.925310
0.234100,-1.915897
0.234200,-1.956145
0.234300,-1.992498
0.234400,-1.968155
0.234500,-1.907133
0.234600,-1.850006
0.234700,-1.785739
0.234800,-1.728937
0.234900,-1.536135
0.235000,-1.412145
0.235100,-1.349825
0.235200,-1.347877
0.235300,-1.358913
0.235400,-1.287830
0.235500,-1.076202
0.235600,-0.970713
0.235700,-0.695143
0.235800,-0.755190
0.235900,-0.713644
0.236000,-0.653921
0.236100,-0.552976
0.236200,-0.438398
0.236300,-0.310189
0.236400,-0.282275
0.236500,-0.307267
0.236600,-0.314084
0.236700,-0.343945
0.236800,-0.354981
0.236900,-0.387114
0.237000,-0.325119
0.237100,-0.362122
0.237200,-0.332585
0.237300,-0.459821
0.237400,-0.430608
0.237500,-0.552651
0.237600,-0.539992
0.237700,-0.474752
0.237800,-0.200155
0.237900,0.095214
0.238000,0.124102
0.238100,-0.329663
0.238200,-0.662035
0.238300,-0.605558
0.238400,-0.278704
0.238500,-0.038838
0.238600,0.064054
0.238700,-0.216060
0.238800,-0.411458
0.238900,-0.490331
0.239000,-0.336804
0.239100,-0.094342
0.239200,-0.021311
0.239300,-0.131344
0.239400,-0.204699
0.239500,-0.232614
0.239600,-0.239754
0.239700,-0.208270
0.239800,-0.225473
0.239900,-0.244298
0.240000,-0.272212
0.240100,-0.238131
0.240200,-0.197234
0.240300,-0.450083
0.240400,-0.473778
0.240500,-0.656193
0.240600,-0.643209
0.240700,-0.594198
0.240800,-0.568556
0.240900,-0.567257
0.241000,-0.937281
0.241100,-1.068412
0.241200,-1.019075
0.241300,-0.823028
0.241400,-0.568556
0.241500,-0.781481
0.241600,-1.013882
0.241700,-1.321586
0.241800,-1.281662
0.241900,-1.078149
0.242000,-0.859381
0.242100,-0.877233
0.242200,-1.054455
0.242300,-1.199219
0.242400,-1.141118
0.242500,-1.142417
0.242600,-1.047639
0.242700,-1.085939
0.242800,-1.138197
0.242900,-1.171954
0.243000,-1.143715
0.243100,-1.105739
0.243200,-1.125863
0.243300,-1.182016
0.243400,-1.144040
0.243500,-1.104441
0.243600,-1.064517
0.243700,-1.043419
0.243800,-1.183639
0.243900,-1.276145
0.244000,-1.283935
0.244100,-1.251801
0.244200,-1.067763
0.244300,-1.153128
0.244400,-1.161892
0.244500,-1.137873
0.244600,-1.121968
0.244700,-1.099896
0.244800,-1.135600
0.244900,-1.105414
0.245000,-1.136899
0.245100,-1.120345
0.245200,-1.151830
0.245300,-1.178770
0.245400,-1.182016
0.245500,-1.216097
0.245600,-1.230703
0.245700,-1.270627
0.245800,-1.326130
0.245900,-1.378713
0.246000,-1.414417
0.246100,-1.639028
0.246200,-2.001911
0.246300,-2.126551
0.246400,-1.985033
0.246500,-1.633834
0.246600,-1.651686
0.246700,-1.821119
0.246800,-2.336232
0.246900,-2.497550
0.247000,-2.438151
0.247100,-2.184652
0.247200,-2.100584
0.247300,-2.218408
0.247400,-2.455354
0.247500,-2.681589
0.247600,-2.689703
0.247700,-2.608882
0.247800,-2.598820
0.247900,-2.668605
0.248000,-2.717293
0.248100,-2.758191
0.248200,-2.788701
0.248300,-2.812071
0.248400,-2.832520
0.248500,-2.934764
0.248600,-3.037008
0.248700,-2.986698
0.248800,-2.952941
0.248900,-2.944826
0.249000,-3.031490
0.249100,-3.027595
0.249200,-2.940282
0.249300,-2.732548
0.249400,-2.591679
0.249500,-2.716319
0.249600,-2.929895
0.249700,-3.144121
0.249800,-3.072713
0.249900,-2.771498
0.250000,-2.527736
0.250100,-2.526113
0.250200,-2.733522
0.250300,-3.007471
0.250400,-3.058755
0.250500,-2.891270
0.250600,-2.708529
0.250700,-2.605961
0.250800,-2.599469
0.250900,-2.619269
0.251000,-2.650429
0.251100,-2.601741
0.251200,-2.532929
0.251300,-2.416079
0.251400,-2.312862
0.251500,-2.201854
0.251600,-2.000288
0.251700,-1.863314
0.251800,-1.830207
0.251900,-1.785739
0.252000,-1.735104
0.252100,-1.544899
0.252200,-1.298541
0.252300,-1.047314
0.252400,-0.886321
0.252500,-0.910990
0.252600,-0.828870
0.252700,-0.729548
0.252800,-0.627954
0.252900,-0.519868
0.253000,-0.394580
0.253100,-0.392308
0.253200,-0.373807
0.253300,-0.448136
0.253400,-0.427038
0.253500,-0.552651
0.253600,-0.529606
0.253700,-0.530904
0.253800,-0.491305
0.253900,-0.539992
0.254000,-0.552002
0.254100,-0.704880
0.254200,-0.725329
0.254300,-0.826274
0.254400,-0.655219
0.254500,-0.383544
0.254600,-0.057015
0.254700,-0.228394
0.254800,-0.654245
0.254900,-0.883725
0.255000,-0.689300
0.255100,-0.395229
0.255200,-0.161530
0.255300,-0.213788
0.255400,-0.407238
0.255500,-0.578942
0.255600,-0.525386
0.255700,-0.287468
0.255800,-0.091096
0.255900,-0.012223
0.256000,-0.090771
0.256100,-0.133616
0.256200,-0.098237
0.256300,-0.072595
0.256400,-0.031373
0.256500,0.023157
0.256600,0.057563
0.256700,0.148121
0.256800,0.154937
0.256900,0.186097
0.257000,0.097811
0.257100,0.206545
0.257200,0.125725
0.257300,0.300350
0.257400,0.402593
0.257500,0.505485
0.257600,0.371433
0.257700,0.109820
0.257800,0.116961
0.257900,0.278927
0.258000,0.614220
0.258100,0.689523
0.258200,0.558067
0.258300,0.258154
0.258400,0.186746
0.258500,0.294182
0.258600,0.572998
0.258700,0.723604
0.258800,0.614220
0.258900,0.466535
0.259000,0.403242
0.259100,0.446087
0.259200,0.469132
0.259300,0.476597
0.259400,0.391557
0.259500,0.336054
0.259600,0.338001
0.259700,0.405514
0.259800,0.396426
0.259900,0.379223
0.260000,0.349686
0.260100,0.413953
0.260200,0.489256
0.260300,0.511003
0.260400,0.468807
0.260500,0.278603
0.260600,0.212063
0.260700,0.230889
0.260800,0.269190
0.260900,0.360073
0.261000,0.284445
0.261100,0.299376
0.261200,0.313008
0.261300,0.325018
0.261400,0.307166
0.261500,0.290288
0.261600,0.313008
0.261700,0.303595
0.261800,0.301648
0.261900,0.273734
0.262000,0.270488
0.262100,0.229591
0.262200,0.229591
0.262300,0.169219
0.262400,0.156235
0.262500,0.103329
0.262600,-0.024557
0.262700,-0.103430
0.262800,-0.418923
0.262900,-0.789921
0.263000,-0.829844
0.263100,-0.578942
0.263200,-0.296232
0.263300,-0.414379
0.263400,-0.870741
0.263500,-1.288154
0.263600,-1.450770
0.263700,-1.325481
0.263800,-1.120020
0.263900,-1.155075
0.264000,-1.435514
0.264100,-1.711410
0.264200,-1.930178
0.264300,-1.950952
0.264400,-1.928231
0.264500,-1.990226
0.264600,-2.097014
0.264700,-2.169721
0.264800,-2.243726
0.264900,-2.242427
0.265000,-2.258656
0.265100,-2.289816
0.265200,-2.422571
0.265300,-2.495278
0.265400,-2.460223
0.265500,-2.430361
0.265600,-2.434581
0.265700,-2.515077
0.265800,-2.602066
0.265900,-2.515077
0.266000,-2.330714
0.266100,-2.326819
0.266200,-2.503392
0.266300,-2.797465
0.266400,-3.018182
0.266500,-2.909771
0.266600,-2.655622
0.266700,-2.523841
0.266800,-2.661789
0.266900,-2.968521
0.267000,-3.240198
0.267100,-3.237601
0.267200,-3.064922
0.267300,-2.937685
0.267400,-2.918210
0.267500,-2.997409
0.267600,-3.091863
0.267700,-3.111013
0.267800,-3.092188
0.267900,-3.060054
0.268000,-3.027920
0.268100,-3.008769
0.268200,-2.978259
0.268300,-2.892244
0.268400,-2.860110
0.268500,-2.848100
0.268600,-2.901007
0.268700,-2.925027
0.268800,-2.729303
0.268900,-2.655297
0.269000,-2.405368
0.269100,-2.417378
0.269200,-2.431659
0.269300,-2.442695
0.269400,-2.374533
0.269500,-2.272614
0.269600,-2.122332
0.269700,-2.029176
0.269800,-2.017167
0.269900,-2.059362
0.270000,-2.066828
0.270100,-2.054494
0.270200,-2.066828
0.270300,-2.031124
0.270400,-1.989577
0.270500,-1.956794
0.270600,-1.995744
0.270700,-1.966207
0.270800,-1.978541
0.270900,-1.931477
0.271000,-1.876947
0.271100,-1.610140
0.271200,-1.187534
0.271300,-1.100221
0.271400,-1.260240
0.271500,-1.654608
0.271600,-1.553338
0.271700,-1.234923
0.271800,-0.780508
0.271900,-0.655868
0.272000,-0.697739
0.272100,-0.890216
0.272200,-0.919104
0.272300,-0.797710
0.272400,-0.453654
0.272500,-0.238456
0.272600,-0.181330
0.272700,-0.140757
0.272800,-0.171268
0.272900,-0.159258
0.273000,-0.083955
0.273100,-0.008003
0.273200,0.064379
0.273300,0.115338
0.273400,0.196483
0.273500,0.205247
0.273600,0.163701
0.273700,0.225371
0.273800,0.187395
0.273900,0.234784
0.274000,0.387337
0.274100,0.498020
0.274200,0.600263
0.274300,0.331185
0.274400,0.211090
0.274500,0.223424
0.274600,0.462316
0.274700,0.778458
0.274800,0.721981
0.274900,0.566506
0.275000,0.299051
0.275100,0.331185
0.275200,0.478545
0.275300,0.701857
0.275400,0.739184
0.275500,0.604482
0.275600,0.461991
0.275700,0.474001
0.275800,0.426936
0.275900,0.480817
0.276000,0.420769
0.276100,0.360722
0.276200,0.293209
0.276300,0.279576
0.276400,0.278927
0.276500,0.205572
0.276600,0.148770
0.276700,0.132865
0.276800,0.116961
0.276900,0.098784
0.277000,0.074441
0.277100,-0.093043
0.277200,-0.284871
0.277300,-0.366666
0.277400,-0.422494
0.277500,-0.357902
0.277600,-0.482541
0.277700,-0.587706
0.277800,-0.614646
0.277900,-0.680212
0.278000,-0.755190
0.278100,-0.830493
0.278200,-0.863276
0.278300,-0.938579
0.278400,-0.977529
0.278500,-1.019725
0.278600,-1.100546
0.278700,-1.131056
0.278800,-1.208631
0.278900,-1.260889
0.279000,-1.359562
0.279100,-1.380985
0.279200,-1.455639
0.279300,-1.516985
0.279400,-1.670837
0.279500,-2.024957
0.279600,-2.304098
0.279700,-2.148947
0.279800,-1.853252
0.279900,-1.689987
0.280000,-1.885386
0.280100,-2.300852
0.280200,-2.622515
0.280300,-2.610830
0.280400,-2.401798
0.280500,-2.230093
0.280600,-2.311888
0.280700,-2.553054
0.280800,-2.789026
0.280900,-2.885752
0.281000,-2.858162
0.281100,-2.841609
0.281200,-2.872120
0.281300,-2.909771
0.281400,-2.973390
0.281500,-3.010717
0.281600,-3.039280
0.281700,-3.031815
0.281800,-3.144770
0.281900,-3.204494
0.282000,-3.237926
0.282100,-3.174632
0.282200,-3.173983
0.282300,-3.172360
0.282400,-3.219749
0.282500,-3.192160
0.282600,-2.982803
0.282700,-2.812071
0.282800,-2.862707
0.282900,-3.028569
0.283000,-3.251559
0.283100,-3.265840
0.283200,-2.973390
0.283300,-2.705283
0.283400,-2.656271
0.283500,-2.812396
0.283600,-3.053562
0.283700,-3.099978
0.283800,-2.949371
0.283900,-2.765981
0.284000,-2.665360
0.284100,-2.635822
0.284200,-2.611479
0.284300,-2.604338
0.284400,-2.534877
0.284500,-2.482294
0.284600,-2.405044
0.284700,-2.296308
0.284800,-2.166799
0.284900,-1.893501
0.285000,-1.690312
0.285100,-1.662722
0.285200,-1.635133
0.285300,-1.592612
0.285400,-1.455314
0.285500,-1.233624
0.285600,-1.145013
0.285700,-0.951562
0.285800,-0.838608
0.285900,-0.742207
0.286000,-0.635744
0.286100,-0.495200
0.286200,-0.339725
0.286300,-0.172566
0.286400,-0.094991
0.286500,-0.051172
0.286600,-0.032671
0.286700,-0.007029
0.286800,-0.002161
0.286900,-0.013196
0.287000,0.044579
0.287100,0.103329
0.287200,0.052694
0.287300,0.087099
0.287400,-0.048251
0.287500,-0.036242
0.287600,-0.153091
0.287700,0.043605
0.287800,0.154288
0.287900,0.615843
0.288000,0.382144
0.288100,0.038088
0.288200,-0.254685
0.288300,-0.100833
0.288400,0.233161
0.288500,0.404216
0.288600,0.484063
0.288700,0.166622
0.288800,0.065028
0.288900,-0.076165
0.289000,0.154937
0.289100,0.291910
0.289200,0.381495
0.289300,0.287691
0.289400,0.182851
0.289500,0.183176
0.289600,0.143577
0.289700,0.154612
0.289800,0.084178
0.289900,0.013095
0.290000,-0.022934
0.290100,-0.078113
0.290200,-0.121282
0.290300,-0.257931
0.290400,-0.284547
0.290500,-0.492604
0.290600,-0.460794
0.290700,-0.416327
0.290800,-0.443592
0.290900,-0.475725
0.291000,-0.899629
0.291100,-1.039849
0.291200,-0.954159
0.291300,-0.687677
0.291400,-0.536422
0.291500,-0.687677
0.291600,-1.034980
0.291700,-1.204412
0.291800,-1.158646
0.291900,-0.938255
0.292000,-0.749023
0.292100,-0.789596
0.292200,-0.994732
0.292300,-1.128460
0.292400,-1.059973
0.292500,-1.038550
0.292600,-0.946369
0.292700,-1.003171
0.292800,-1.020698
0.292900,-1.054455
0.293000,-0.997653
0.293100,-0.940202
0.293200,-0.931763
0.293300,-0.959677
0.293400,-0.913262
0.293500,-0.843152
0.293600,-0.771419
0.293700,-0.729548
0.293800,-0.838932
0.293900,-0.870741
0.294000,-0.834713
0.294100,-0.751944
0.294200,-0.560441
0.294300,-0.587381
0.294400,-0.542589
0.294500,-0.467286
0.294600,-0.381272
0.294700,-0.336804
0.294800,-0.283573
0.294900,-0.251115
0.295000,-0.210542
0.295100,-0.150494
0.295200,-0.128747
0.295300,-0.085903
0.295400,-0.061234
0.295500,-0.043058
0.295600,-0.033645
0.295700,0.016665
0.295800,-0.046628
0.295900,-0.027153
0.296000,-0.089148
0.296100,-0.239105
0.296200,-0.656842
0.296300,-0.695792
0.296400,-0.513377
0.296500,-0.193988
0.296600,-0.202752
0.296700,-0.462742
0.296800,-0.880154
0.296900,-1.092756
0.297000,-0.952536
0.297100,-0.771744
0.297200,-0.676641
0.297300,-0.873663
0.297400,-1.178445
0.297500,-1.372870
0.297600,-1.418961
0.297700,-1.328078
0.297800,-1.357615
0.297900,-1.438436
0.298000,-1.549768
0.298100,-1.621825
0.298200,-1.673109
0.298300,-1.686417
0.298400,-1.757825
0.298500,-1.927906
0.298600,-2.012622
0.298700,-2.077864
0.298800,-2.058064
0.298900,-2.118437
0.299000,-2.228795
0.299100,-2.311564
0.299200,-2.307019
0.299300,-2.109024
0.299400,-2.083382
0.299500,-2.225549
0.299600,-2.488462
0.299700,-2.748778
0.299800,-2.683536
0.299900,-2.436204
0.300000,-2.283325
0.300100,-2.393683
0.300200,-2.712100
0.300300,-3.018832
0.300400,-3.089591
0.300500,-2.956836
0.300600,-2.821160
0.300700,-2.816616
0.300800,-2.908148
0.300900,-3.008120
0.301000,-3.056159
0.301100,-3.030841
0.301200,-3.014937
0.301300,-2.972416
0.301400,-2.953590
0.301500,-2.920483
0.301600,-2.768577
0.301700,-2.686133
0.301800,-2.612777
0.301900,-2.590056
0.302000,-2.626410
0.302100,-2.458600
0.302200,-2.297931
0.302300,-2.307669
0.302400,-2.030475
0.302500,-2.064556
0.302600,-1.986656
0.302700,-1.881816
0.302800,-1.733157
0.302900,-1.600727
0.303000,-1.485825
0.303100,-1.400460
0.303200,-1.388125
0.303300,-1.315744
0.303400,-1.256020
0.303500,-1.247581
0.303600,-1.163839
0.303700,-1.145662
0.303800,-1.001548
0.303900,-1.055104
0.304000,-0.945720
0.304100,-0.982398
0.304200,-0.897357
0.304300,-0.918455
0.304400,-0.648727
0.304500,-0.321224
0.304600,-0.044681
0.304700,-0.255983
0.304800,-0.684431
0.304900,-0.639315
0.305000,-0.432556
0.305100,-0.013196
0.305200,0.129295
0.305300,0.174412
0.305400,-0.100184
0.305500,-0.220929
0.305600,-0.147573
0.305700,0.133190
0.305800,0.362994
0.305900,0.443165
0.306000,0.370459
0.306100,0.375328
0.306200,0.350011
0.306300,0.464588
0.306400,0.520416
0.306500,0.565857
0.306600,0.551251
0.306700,0.558716
0.306800,0.584683
0.306900,0.562287
0.307000,0.379872
0.307100,0.325342
0.307200,0.261075
0.307300,0.300350
0.307400,0.326641
0.307500,0.328913
0.307600,0.095539
0.307700,-0.295907
0.307800,-0.291687
0.307900,-0.265721
0.308000,-0.019688
0.308100,-0.111869
0.308200,-0.344919
0.308300,-0.789921
0.308400,-0.938904
0.308500,-0.900928
0.308600,-0.701310
0.308700,-0.659763
0.308800,-0.906770
0.308900,-1.172278
0.309000,-1.319314
0.309100,-1.338140
0.309200,-1.362159
0.309300,-1.391047
0.309400,-1.531266
0.309500,-1.640975
0.309600,-1.708488
0.309700,-1.695505
0.309800,-1.756202
0.309900,-1.803916
0.310000,-1.879544
0.310100,-1.881816
0.310200,-1.869157
0.310300,-1.862016
0.310400,-1.935047
0.310500,-2.133692
0.310600,-2.182379
0.310700,-2.170045
0.310800,-1.998341
0.310900,-1.994446
0.311000,-2.030799
0.311100,-1.993797
0.311200,-1.937644
0.311300,-1.874350
0.311400,-1.838646
0.311500,-1.769835
0.311600,-1.776002
0.311700,-1.704593
0.311800,-1.704269
0.311900,-1.681223
0.312000,-1.619877
0.312100,-1.616632
0.312200,-1.613061
0.312300,-1.615333
0.312400,-1.615658
0.312500,-1.657854
0.312600,-1.687066
0.312700,-1.734130
0.312800,-2.036642
0.312900,-2.270341
0.313000,-2.230093
0.313100,-1.834751
0.313200,-1.528994
0.313300,-1.545548
0.313400,-1.928231
0.313500,-2.245673
0.313600,-2.263201
0.313700,-2.006455
0.313800,-1.678951
0.313900,-1.597157
0.314000,-1.734130
0.314100,-1.956794
0.314200,-2.008403
0.314300,-1.950303
0.314400,-1.818197
0.314500,-1.716603
0.314600,-1.695181
0.314700,-1.736403
0.314800,-1.744192
0.314900,-1.744517
0.315000,-1.729586
0.315100,-1.774379
0.315200,-1.817873
0.315300,-1.863964
0.315400,-1.830856
0.315500,-1.840269
0.315600,-1.905510
0.315700,-2.001587
0.315800,-2.008727
0.315900,-1.898694
0.316000,-1.701023
0.316100,-1.726665
0.316200,-1.921739
0.316300,-2.198284
0.316400,-2.370313
0.316500,-2.207048
0.316600,-1.903887
0.316700,-1.791582
0.316800,-1.967830
0.316900,-2.293062
0.317000,-2.541693
0.317100,-2.513130
0.317200,-2.356356
0.317300,-2.228795
0.317400,-2.204776
0.317500,-2.252814
0.317600,-2.276833
0.317700,-2.244050
0.317800,-2.160632
0.317900,-2.078837
0.318000,-1.980489
0.318100,-1.850331
0.318200,-1.666942
0.318300,-1.532240
0.318400,-1.475438
0.318500,-1.454340
0.318600,-1.426102
0.318700,-1.358264
0.318800,-1.116126
0.318900,-0.986293
0.319000,-0.872364
0.319100,-0.634446
0.319200,-0.530580
0.319300,-0.422494
0.319400,-0.253711
0.319500,-0.056041
0.319600,0.181877
0.319700,0.369810
0.319800,0.511977
0.319900,0.548330
0.320000,0.652845
0.320100,0.760606
0.320200,0.794038
0.320300,1.011183
0.320400,1.127383
0.320500,1.297140
0.320600,1.275717
0.320700,1.433139
0.320800,1.429569
0.320900,1.508767
0.321000,1.660022
0.321100,2.055687
0.321200,2.422140
0.321300,2.690895
0.321400,2.332231
0.321500,2.126771
0.321600,2.128718
0.321700,2.642532
0.321800,2.910312
0.321900,3.144336
0.322000,2.958351
0.322100,2.806446
0.322200,2.720432
0.322300,2.861950
0.322400,3.155048
0.322500,3.269301
0.322600,3.320910
0.322700,3.222886
0.322800,3.177119
0.322900,3.144012
0.323000,3.107009
0.323100,3.113501
0.323200,3.086561
0.323300,3.016775
0.323400,2.944069
0.323500,2.849940
0.323600,2.600336
0.323700,2.464985
0.323800,2.370532
0.323900,2.199477
0.324000,2.233234
0.324100,2.123200
0.324200,2.054389
0.324300,1.601597
0.324400,1.320834
0.324500,1.205283
0.324600,1.296815
0.324700,1.382505
0.324800,1.162763
0.324900,0.766124
0.325000,0.308140
0.325100,0.144226
0.325200,0.151691
0.325300,0.242574
0.325400,0.106899
0.325500,-0.254036
0.325600,-0.553949
0.325700,-0.718512
0.325800,-0.885672
0.325900,-0.952536
0.326000,-1.142092
0.326100,-1.294646
0.326200,-1.461157
0.326300,-1.551066
0.326400,-1.628316
0.326500,-1.742570
0.326600,-1.857147
0.326700,-1.916221
0.326800,-1.925634
0.326900,-1.958742
0.327000,-2.014570
0.327100,-2.180107
0.327200,-2.354084
0.327300,-2.389464
0.327400,-2.393034
0.327500,-2.247296
0.327600,-2.350189
0.327700,-2.414456
0.327800,-2.362848
0.327900,-2.358304
0.328000,-2.349540
0.328100,-2.341101
0.328200,-2.311888
0.328300,-2.275859
0.328400,-2.277158
0.328500,-2.239831
0.328600,-2.209320
0.328700,-2.155764
0.328800,-2.114217
0.328900,-2.098962
0.329000,-2.093119
0.329100,-2.087926
0.329200,-2.081759
0.329300,-2.062284
0.329400,-2.171668
0.329500,-2.521569
0.329600,-2.687756
0.329700,-2.473531
0.329800,-2.115840
0.329900,-1.874350
0.330000,-2.085978
0.330100,-2.474829
0.330200,-2.752348
0.330300,-2.695546
0.330400,-2.434905
0.330500,-2.296308
0.330600,-2.339153
0.330700,-2.584538
0.330800,-2.746830
0.330900,-2.793570
0.331000,-2.718916
0.331100,-2.684185
0.331200,-2.677045
0.331300,-2.681913
0.331400,-2.690028
0.331500,-2.707555
0.331600,-2.733198
0.331700,-2.742935
0.331800,-2.822458
0.331900,-2.899060
0.332000,-2.877313
0.332100,-2.748128
0.332200,-2.740338
0.332300,-2.739689
0.332400,-2.759813
0.332500,-2.681264
0.332600,-2.460872
0.332700,-2.246647
0.332800,-2.342074
0.332900,-2.525139
0.333000,-2.762086
0.333100,-2.725408
0.333200,-2.464767
0.333300,-2.196661
0.333400,-2.171668
0.333500,-2.425168
0.333600,-2.732224
0.333700,-2.888024
0.333800,-2.787079
0.333900,-2.623164
0.334000,-2.599145
0.334100,-2.603040
0.334200,-2.693274
0.334300,-2.748453
0.334400,-2.781236
0.334500,-2.810124
0.334600,-2.755269
0.334700,-2.709828
0.334800,-2.588758
0.334900,-2.426141
0.335000,-2.364471
0.335100,-2.354409
0.335200,-2.377454
0.335300,-2.365769
0.335400,-2.213539
0.335500,-2.019439
0.335600,-1.972374
0.335700,-1.690636
0.335800,-1.692908
0.335900,-1.604622
0.336000,-1.528020
0.336100,-1.364106
0.336200,-1.213176
0.336300,-1.042445
0.336400,-0.962274
0.336500,-0.916832
0.336600,-0.915209
0.336700,-0.910665
0.336800,-0.848670
0.336900,-0.862302
0.337000,-0.670799
0.337100,-0.638990
0.337200,-0.538045
0.337300,-0.513377
0.337400,-0.565634
0.337500,-0.488709
0.337600,-0.491630
0.337700,-0.325768
0.337800,-0.032347
0.337900,0.350984
0.338000,0.241600
0.338100,-0.250466
0.338200,-0.433205
0.338300,-0.421520
0.338400,0.106250
0.338500,0.162727
0.338600,0.295156
0.338700,0.062107
0.338800,-0.116738
0.338900,-0.068700
0.339000,0.090670
0.339100,0.405514
0.339200,0.472053
0.339300,0.521065
0.339400,0.548654
0.339500,0.582086
0.339600,0.687900
0.339700,0.718086
0.339800,0.763203
0.339900,0.759632
0.340000,0.832014
0.340100,0.817408
0.340200,0.812864
0.340300,0.701208
0.340400,0.707050
0.340500,0.660635
0.340600,0.709971
0.340700,0.814487
0.340800,0.764501
0.340900,0.702182
0.341000,0.280225
0.341100,0.219853
0.341200,0.252311
0.341300,0.526907
0.341400,0.531452
0.341500,0.349361
0.341600,-0.030075
0.341700,-0.255659
0.341800,-0.243325
0.341900,-0.101158
0.342000,-0.020013
0.342100,-0.183277
0.342200,-0.405616
0.342300,-0.564336
0.342400,-0.540317
0.342500,-0.605558
0.342600,-0.589978
0.342700,-0.743830
0.342800,-0.796088
0.342900,-0.855811
0.343000,-0.857109
0.343100,-0.861653
0.343200,-0.927543
0.343300,-0.960975
0.343400,-0.939228
0.343500,-0.892488
0.343600,-0.838283
0.343700,-0.859381
0.343800,-1.045042
0.343900,-1.084641
0.344000,-1.079123
0.344100,-0.934360
0.344200,-0.890866
0.344300,-0.952861
0.344400,-0.947343
0.344500,-0.929815
0.344600,-0.916183
0.344700,-0.916508
0.344800,-0.912613
0.344900,-0.929166
0.345000,-0.931114
0.345100,-0.922350
0.345200,-0.923973
0.345300,-0.916832
0.345400,-0.933386
0.345500,-0.937605
0.345600,-0.991811
0.345700,-0.991811
0.345800,-1.018751
0.345900,-1.084966
0.346000,-1.138522
0.346100,-1.393319
0.346200,-1.727963
0.346300,-1.774703
0.346400,-1.534512
0.346500,-1.239142
0.346600,-1.287505
0.346700,-1.616956
0.346800,-2.088900
0.346900,-2.272614
0.347000,-2.187897
0.347100,-1.978217
0.347200,-1.952250
0.347300,-2.118761
0.347400,-2.406342
0.347500,-2.589732
0.347600,-2.629331
0.347700,-2.598495
0.347800,-2.629980
0.347900,-2.668930
0.348000,-2.737417
0.348100,-2.792921
0.348200,-2.797790
0.348300,-2.801036
0.348400,-2.839661
0.348500,-2.961705
0.348600,-2.940607
0.348700,-2.918860
0.348800,-2.844205
0.348900,-2.862382
0.349000,-2.901981
0.349100,-2.904253
0.349200,-2.760463
0.349300,-2.479698
0.349400,-2.329091
0.349500,-2.488462
0.349600,-2.725408
0.349700,-2.880883
0.349800,-2.702038
0.349900,-2.380051
0.350000,-2.177511
0.350100,-2.254437
0.350200,-2.503717
0.350300,-2.685808
0.350400,-2.664710
0.350500,-2.491383
0.350600,-2.373234
0.350700,-2.375182
0.350800,-2.423869
0.350900,-2.467688
0.351000,-2.469636
0.351100,-2.436204
0.351200,-2.445292
0.351300,-2.367716
0.351400,-2.238208
0.351500,-2.057090
0.351600,-1.888632
0.351700,-1.805214
0.351800,-1.802617
0.351900,-1.776975
0.352000,-1.747114
0.352100,-1.516985
0.352200,-1.328727
0.352300,-1.238168
0.352400,-0.944097
0.352500,-0.927868
0.352600,-0.830169
0.352700,-0.674694
0.352800,-0.465988
0.352900,-0.272862
0.353000,-0.142380
0.353100,-0.059611
0.353200,0.028999
0.353300,0.043605
0.353400,0.164674
0.353500,0.104302
0.353600,0.209791
0.353700,0.266593
0.353800,0.297428
0.353900,0.402268
0.354000,0.322097
0.354100,0.385390
0.354200,0.231863
0.354300,0.313333
0.354400,0.416550
0.354500,0.836558
0.354600,0.829093
0.354700,0.720034
0.354800,0.127997
0.354900,0.118908
0.355000,0.227643
0.355100,0.656416
0.355200,0.742105
0.355300,0.676864
0.355400,0.428235
0.355500,0.261075
0.355600,0.316254
0.355700,0.465237
0.355800,0.651547
0.355900,0.643432
0.356000,0.545733
0.356100,0.541189
0.356200,0.485036
0.356300,0.499967
0.356400,0.522363
0.356500,0.510029
0.356600,0.466860
0.356700,0.507433
0.356800,0.449657
0.356900,0.541838
0.357000,0.312684
0.357100,0.349037
0.357200,0.239653
0.357300,0.351958
0.357400,0.437323
0.357500,0.442516
0.357600,0.296130
0.357700,0.004007
0.357800,0.105601
0.357900,0.314307
0.358000,0.700559
0.358100,0.678812
0.358200,0.559366
0.358300,0.271137
0.358400,0.315605
0.358500,0.465237
0.358600,0.785599
0.358700,0.855709
0.358800,0.684979
0.358900,0.513600
0.359000,0.469781
0.359100,0.488282
0.359200,0.516196
0.359300,0.489256
0.359400,0.361371
0.359500,0.223099
0.359600,0.123453
0.359700,0.082231
0.359800,0.009524
0.359900,-0.074218
0.360000,-0.165425
0.360100,-0.210867
0.360200,-0.260528
0.360300,-0.292986
0.360400,-0.446837
0.360500,-0.654894
0.360600,-0.751295
0.360700,-0.808097
0.360800,-0.702933
0.360900,-0.809395
0.361000,-0.905147
0.361100,-0.926245
0.361200,-0.967791
0.361300,-0.985968
0.361400,-0.981099
0.361500,-0.972985
0.361600,-0.974283
0.361700,-0.983047
0.361800,-0.982722
0.361900,-0.960975
0.362000,-0.963247
0.362100,-0.939228
0.362200,-0.958054
0.362300,-0.908393
0.362400,-0.940851
0.362500,-0.892813
0.362600,-0.972985
0.362700,-1.000899
0.362800,-1.291725
0.362900,-1.488097
0.363000,-1.320612
0.363100,-1.002197
0.363200,-0.679238
0.363300,-0.798360
0.363400,-1.100221
0.363500,-1.412145
0.363600,-1.341386
0.363700,-1.108336
0.363800,-0.861653
0.363900,-0.838283
0.364000,-1.038875
0.364100,-1.280040
0.364200,-1.353395
0.364300,-1.303409
0.364400,-1.171629
0.364500,-1.201491
0.364600,-1.227133
0.364700,-1.281662
0.364800,-1.316068
0.364900,-1.311524
0.365000,-1.293347
0.365100,-1.360211
0.365200,-1.460183
0.365300,-1.468622
0.365400,-1.417338
0.365500,-1.399810
0.365600,-1.449796
0.365700,-1.544574
0.365800,-1.592288
0.365900,-1.456612
0.366000,-1.270951
0.366100,-1.330350
0.366200,-1.549768
0.366300,-1.831505
0.366400,-1.936021
0.366500,-1.735753
0.366600,-1.475763
0.366700,-1.407925
0.366800,-1.603973
0.366900,-1.926608
0.367000,-2.131420
0.367100,-2.068775
0.367200,-1.909730
0.367300,-1.788011
0.367400,-1.784441
0.367500,-1.881816
0.367600,-1.970751
0.367700,-1.995744
0.367800,-1.965233
0.367900,-1.908107
0.368000,-1.865586
0.368100,-1.788011
0.368200,-1.640326
0.368300,-1.559830
0.368400,-1.533863
0.368500,-1.537109
0.368600,-1.535810
0.368700,-1.487772
0.368800,-1.295944
0.368900,-1.234923
0.369000,-0.977854
0.369100,-1.036927
0.369200,-1.020374
0.369300,-1.005443
0.369400,-0.916183
0.369500,-0.820431
0.369600,-0.674369
0.369700,-0.609778
0.369800,-0.621138
0.369900,-0.643209
0.370000,-0.676317
0.370100,-0.613348
0.370200,-0.727276
0.370300,-0.598093
0.370400,-0.637692
0.370500,-0.573100
0.370600,-0.633147
0.370700,-0.631200
0.370800,-0.681510
0.370900,-0.704555
0.371000,-0.651324
0.371100,-0.487735
0.371200,-0.052471
0.371300,-0.211516
0.371400,-0.477997
0.371500,-0.829520
0.371600,-0.763305
0.371700,-0.468584
0.371800,-0.289740
0.371900,-0.232938
0.372000,-0.423468
0.372100,-0.649052
0.372200,-0.663334
0.372300,-0.573100
0.372400,-0.274160
0.372500,-0.239105
0.372600,-0.173215
0.372700,-0.313110
0.372800,-0.252738
0.372900,-0.255659
0.373000,-0.197234
0.373100,-0.192365
0.373200,-0.138809
0.373300,-0.138160
0.373400,-0.052471
0.373500,-0.132318
0.373600,-0.142380
0.373700,-0.216384
0.373800,-0.257931
0.373900,-0.187497
0.374000,-0.085903
0.374100,-0.023258
0.374200,-0.141731
0.374300,-0.403993
0.374400,-0.546809
0.374500,-0.445215
0.374600,-0.194962
0.374700,-0.008003
0.374800,-0.128747
0.374900,-0.390036
0.375000,-0.634770
0.375100,-0.632823
0.375200,-0.464365
0.375300,-0.267668
0.375400,-0.320900
0.375500,-0.500393
0.375600,-0.624708
0.375700,-0.595171
0.375800,-0.601663
0.375900,-0.521816
0.376000,-0.594198
0.376100,-0.621138
0.376200,-0.708775
0.376300,-0.782780
0.376400,-0.791868
0.376500,-0.843477
0.376600,-0.901577
0.376700,-0.920402
0.376800,-0.918130
0.376900,-0.924297
0.377000,-0.982398
0.377100,-1.167085
0.377200,-1.316393
0.377300,-1.319639
0.377400,-1.151830
0.377500,-1.162541
0.377600,-1.265109
0.377700,-1.317042
0.377800,-1.323858
0.377900,-1.310226
0.378000,-1.333271
0.378100,-1.366054
0.378200,-1.367677
0.378300,-1.384880
0.378400,-1.401758
0.378500,-1.450121
0.378600,-1.434216
0.378700,-1.456937
0.378800,-1.482579
0.378900,-1.499457
0.379000,-1.533214
0.379100,-1.567295
0.379200,-1.579305
0.379300,-1.668889
0.379400,-1.808460
0.379500,-2.219706
0.379600,-2.306046
0.379700,-2.126227
0.379800,-1.779572
0.379900,-1.736078
0.380000,-1.949978
0.380100,-2.335907
0.380200,-2.544290
0.380300,-2.410237
0.380400,-2.186274
0.380500,-2.038265
0.380600,-2.152518
0.380700,-2.376156
0.380800,-2.504366
0.380900,-2.495278
0.381000,-2.395955
0.381100,-2.315783
0.381200,-2.323898
0.381300,-2.344346
0.381400,-2.332012
0.381500,-2.327468
0.381600,-2.309291
0.381700,-2.325845
0.381800,-2.380051
0.381900,-2.423220
0.382000,-2.421273
0.382100,-2.358953
0.382200,-2.385244
0.382300,-2.416079
0.382400,-2.482294
0.382500,-2.373559
0.382600,-2.209969
0.382700,-2.062933
0.382800,-2.212241
0.382900,-2.448538
0.383000,-2.703660
0.383100,-2.622839
0.383200,-2.362848
0.383300,-2.117787
0.383400,-2.132394
0.383500,-2.384270
0.383600,-2.648806
0.383700,-2.730601
0.383800,-2.571555
0.383900,-2.398552
0.384000,-2.314160
0.384100,-2.363821
0.384200,-2.430686
0.384300,-2.438151
0.384400,-2.422571
0.384500,-2.381024
0.384600,-2.297931
0.384700,-2.258656
0.384800,-2.143429
0.384900,-1.995095
0.385000,-1.935696
0.385100,-1.949004
0.385200,-1.980164
0.385300,-2.003210
0.385400,-1.863314
0.385500,-1.732508
0.385600,-1.717901
0.385700,-1.484851
0.385800,-1.536784
0.385900,-1.494588
0.386000,-1.421233
0.386100,-1.265109
0.386200,-1.159620
0.386300,-1.021348
0.386400,-0.963572
0.386500,-0.937605
0.386600,-0.901577
0.386700,-0.887620
0.386800,-0.832441
0.386900,-0.769472
0.387000,-0.621138
0.387100,-0.533825
0.387200,-0.477997
0.387300,-0.476699
0.387400,-0.426713
0.387500,-0.374780
0.387600,-0.318303
0.387700,-0.056366
0.387800,0.222125
0.387900,0.591824
0.388000,0.333132
0.388100,0.006928
0.388200,-0.142380
0.388300,0.238679
0.388400,0.525285
0.388500,0.858305
0.388600,0.775212
0.388700,0.583060
0.388800,0.433753
0.388900,0.498993
0.389000,0.786248
0.389100,1.015727
0.389200,1.082916
0.389300,0.995603
0.389400,0.998849
0.389500,0.931985
0.389600,0.972558
0.389700,0.968338
0.389800,0.977102
0.389900,0.970610
0.390000,0.981971
0.390100,0.929389
0.390200,0.984243
0.390300,0.698287
0.390400,0.778783
0.390500,0.599289
0.390600,0.705103
0.390700,0.769370
0.390800,0.787546
0.390900,0.674592
0.391000,0.249390
0.391100,0.263996
0.391200,0.310087
0.391300,0.588253
0.391400,0.627528
0.391500,0.390583
0.391600,0.052045
0.391700,-0.142704
0.391800,-0.092070
0.391900,0.118908
0.392000,0.230889
0.392100,0.098784
0.392200,-0.120633
0.392300,-0.244948
0.392400,-0.287792
0.392500,-0.308890
0.392600,-0.304671
0.392700,-0.415678
0.392800,-0.506561
0.392900,-0.588680
0.393000,-0.639315
0.393100,-0.681510
0.393200,-0.741233
0.393300,-0.752918
0.393400,-0.733119
0.393500,-0.691897
0.393600,-0.623085
0.393700,-0.685081
0.393800,-0.837959
0.393900,-0.864899
0.394000,-0.748374
0.394100,-0.614322
0.394200,-0.603935
0.394300,-0.648403
0.394400,-0.603935
0.394500,-0.560441
0.394600,-0.515973
0.394700,-0.502341
0.394800,-0.449759
0.394900,-0.422494
0.395000,-0.401071
0.395100,-0.365692
0.395200,-0.381272
0.395300,-0.364718
0.395400,-0.368289
0.395500,-0.368289
0.395600,-0.390360
0.395700,-0.410484
0.395800,-0.391334
0.395900,-0.478971
0.396000,-0.487086
0.396100,-0.819457
0.396200,-1.089185
0.396300,-1.114178
0.396400,-0.809395
0.396500,-0.515649
0.396600,-0.589329
0.396700,-0.931114
0.396800,-1.368001
0.396900,-1.428698
0.397000,-1.331324
0.397100,-1.152479
0.397200,-1.127486
0.397300,-1.360211
0.397400,-1.643247
0.397500,-1.839944
0.397600,-1.838646
0.397700,-1.805863
0.397800,-1.829233
0.397900,-1.915897
0.398000,-2.015544
0.398100,-2.085329
0.398200,-2.167773
0.398300,-2.203477
0.398400,-2.327144
0.398500,-2.419001
0.398600,-2.514753
0.398700,-2.490084
0.398800,-2.535851
0.398900,-2.577722
0.399000,-2.696520
0.399100,-2.743909
0.399200,-2.687107
0.399300,-2.507612
0.399400,-2.509559
0.399500,-2.664386
0.399600,-2.934440
0.399700,-3.129515
0.399800,-2.976960
0.399900,-2.701713
0.400000,-2.544939
0.400100,-2.635173
0.400200,-2.945476
0.400300,-3.185343
0.400400,-3.169114
0.400500,-3.006822
0.400600,-2.845504
0.400700,-2.809799
0.400800,-2.843232
0.400900,-2.888998
0.401000,-2.896139
0.401100,-2.860759
0.401200,-2.789026
0.401300,-2.690028
0.401400,-2.601417
0.401500,-2.404394
0.401600,-2.233339
0.401700,-2.149921
0.401800,-2.131095
0.401900,-2.091821
0.402000,-2.011973
0.402100,-1.752307
0.402200,-1.621825
0.402300,-1.379362
0.402400,-1.304059
0.402500,-1.269653
0.402600,-1.211228
0.402700,-1.123591
0.402800,-0.962923
0.402900,-0.792193
0.403000,-0.696441
0.403100,-0.601014
0.403200,-0.610751
0.403300,-0.570179
0.403400,-0.558818
0.403500,-0.560441
0.403600,-0.503639
0.403700,-0.425090
0.403800,-0.413081
0.403900,-0.381272
0.404000,-0.456250
0.404100,-0.468260
0.404200,-0.615295
0.404300,-0.478971
0.404400,-0.337453
0.404500,0.126374
0.404600,0.102030
0.404700,-0.130695
0.404800,-0.646455
0.404900,-0.714942
0.405000,-0.419573
0.405100,-0.165750
0.405200,-0.005406
0.405300,-0.283573
0.405400,-0.483191
0.405500,-0.654894
0.405600,-0.603611
0.405700,-0.428012
0.405800,-0.285520
0.405900,-0.345243
0.406000,-0.386141
0.406100,-0.448460
0.406200,-0.471830
0.406300,-0.480594
0.406400,-0.500069
0.406500,-0.509157
0.406600,-0.536097
0.406700,-0.582188
0.406800,-0.660737
0.406900,-0.752918
0.407000,-0.866197
0.407100,-0.892813
0.407200,-0.981099
0.407300,-0.805500
0.407400,-0.787324
0.407500,-0.767524
0.407600,-0.966169
0.407700,-1.282961
0.407800,-1.163839
0.407900,-0.983696
0.408000,-0.649701
0.408100,-0.716890
0.408200,-0.957405
0.408300,-1.232975
0.408400,-1.237844
0.408500,-1.047963
0.408600,-0.746751
0.408700,-0.709749
0.408800,-0.851267
0.408900,-0.966818
0.409000,-0.905147
0.409100,-0.886971
0.409200,-0.830818
0.409300,-0.863925
0.409400,-0.898655
0.409500,-0.953834
0.409600,-0.990188
0.409700,-0.969414
0.409800,-0.902550
0.409900,-0.965195
0.410000,-0.966493
0.410100,-0.867820
0.410200,-0.780508
0.410300,-0.725978
0.410400,-0.873014
0.410500,-1.046665
0.410600,-1.068737
0.410700,-1.076202
0.410800,-1.053157
0.410900,-0.997004
0.411000,-1.028164
0.411100,-1.003820
0.411200,-1.027839
0.411300,-1.013882
0.411400,-1.045691
0.411500,-1.030436
0.411600,-1.056078
0.411700,-1.109634
0.411800,-1.124889
0.411900,-1.162216
0.412000,-1.191429
0.412100,-1.217071
0.412200,-1.229080
0.412300,-1.251801
0.412400,-1.317042
0.412500,-1.332622
0.412600,-1.388775
0.412700,-1.567295
0.412800,-1.920116
0.412900,-2.150895
0.413000,-2.025281
0.413100,-1.763343
0.413200,-1.590665
0.413300,-1.750360
0.413400,-2.216136
0.413500,-2.511507
0.413600,-2.517674
0.413700,-2.370638
0.413800,-2.191468
0.413900,-2.259306
0.414000,-2.503717
0.414100,-2.710801
0.414200,-2.816291
0.414300,-2.779938
0.414400,-2.750076
0.414500,-2.735470
0.414600,-2.783184
0.414700,-2.827976
0.414800,-2.812396
0.414900,-2.820511
0.415000,-2.803632
0.415100,-2.873418
0.415200,-2.990593
0.415300,-2.930220
0.415400,-2.887375
0.415500,-2.849074
0.415600,-2.903929
0.415700,-2.981829
0.415800,-2.951643
0.415900,-2.757541
0.416000,-2.553054
0.416100,-2.601741
0.416200,-2.804606
0.416300,-3.076608
0.416400,-3.144446
0.416500,-2.904578
0.416600,-2.587459
0.416700,-2.530657
0.416800,-2.714047
0.416900,-3.001953
0.417000,-3.156131
0.417100,-3.064922
0.417200,-2.885752
0.417300,-2.773121
0.417400,-2.787079
0.417500,-2.818563
0.417600,-2.837389
0.417700,-2.813045
0.417800,-2.721837
0.417900,-2.645560
0.418000,-2.573178
0.418100,-2.474180
0.418200,-2.276184
0.418300,-2.104155
0.418400,-2.086627
0.418500,-2.037940
0.418600,-2.026904
0.418700,-1.923362
0.418800,-1.695181
0.418900,-1.646169
0.419000,-1.317042
0.419100,-1.346254
0.419200,-1.337815
0.419300,-1.273872
0.419400,-1.171304
0.419500,-1.050560
0.419600,-0.910016
0.419700,-0.885348
0.419800,-0.821405
0.419900,-0.945071
0.420000,-0.908393
0.420100,-0.930789
0.420200,-0.962598
0.420300,-0.890216
0.420400,-0.926894
0.420500,-0.872364
0.420600,-0.951562
0.420700,-0.970064
0.420800,-1.059973
0.420900,-1.129109
0.421000,-0.972985
0.421100,-0.739610
0.421200,-0.330962
0.421300,-0.495525
0.421400,-0.804527
0.421500,-1.201491
0.421600,-1.060297
0.421700,-0.694169
0.421800,-0.366666
0.421900,-0.248518
0.422000,-0.453329
0.422100,-0.609128
0.422200,-0.739935
0.422300,-0.482866
0.422400,-0.297854
0.422500,-0.094666
0.422600,-0.133292
0.422700,-0.142055
0.422800,-0.161206
0.422900,-0.214762
0.423000,-0.203077
0.423100,-0.175163
0.423200,-0.199831
0.423300,-0.232938
0.423400,-0.267993
0.423500,-0.351086
0.423600,-0.487735
0.423700,-0.495200
0.423800,-0.587057
0.423900,-0.629252
0.424000,-0.556546
0.424100,-0.511754
0.424200,-0.640288
0.424300,-0.942799
0.424400,-1.096326
0.424500,-1.022970
0.424600,-0.797061
0.424700,-0.634121
0.424800,-0.782455
0.424900,-1.092756
0.425000,-1.302111
0.425100,-1.278417
0.425200,-1.121643
0.425300,-0.984345
0.425400,-1.054779
0.425500,-1.295944
0.425600,-1.431619
0.425700,-1.428374
0.425800,-1.482579
0.425900,-1.448498
0.426000,-1.554636
0.426100,-1.613710
0.426200,-1.700049
0.426300,-1.704918
0.426400,-1.723744
0.426500,-1.737701
0.426600,-1.759448
0.426700,-1.723744
0.426800,-1.604297
0.426900,-1.581901
0.427000,-1.605271
0.427100,-1.787687
0.427200,-1.863639
0.427300,-1.850006
0.427400,-1.848384
0.427500,-1.842216
0.427600,-1.780546
0.427700,-1.788985
0.427800,-1.768212
0.427900,-1.777625
0.428000,-1.760422
0.428100,-1.773080
0.428200,-1.793204
0.428300,-1.778274
0.428400,-1.777625
0.428500,-1.772756
0.428600,-1.728613
0.428700,-1.755228
0.428800,-1.728288
0.428900,-1.747763
0.429000,-1.679276
0.429100,-1.708813
0.429200,-1.676355
0.429300,-1.720823
0.429400,-1.906808
0.429500,-2.204776
0.429600,-2.289492
0.429700,-1.980813
0.429800,-1.612087
0.429900,-1.504651
0.430000,-1.717252
0.430100,-2.033396
0.430200,-2.209969
0.430300,-2.049300
0.430400,-1.759448
0.430500,-1.632861
0.430600,-1.676355
0.430700,-1.925634
0.430800,-2.026580
0.430900,-2.063582
0.431000,-1.975620
0.431100,-1.994770
0.431200,-2.012298
0.431300,-2.056117
0.431400,-2.087277
0.431500,-2.068775
0.431600,-2.057090
0.431700,-2.095716
0.431800,-2.214189
0.431900,-2.235936
0.432000,-2.239181
0.432100,-2.185301
0.432200,-2.230418
0.432300,-2.255086
0.432400,-2.314160
0.432500,-2.263850
0.432600,-2.041510
0.432700,-2.001262
0.432800,-2.132394
0.432900,-2.383296
0.433000,-2.625436
0.433100,-2.568634
0.433200,-2.338829
0.433300,-2.171344
0.433400,-2.277807
0.433500,-2.545588
0.433600,-2.785131
0.433700,-2.853294
0.433800,-2.749427
0.433900,-2.652376
0.434000,-2.641016
0.434100,-2.692300
0.434200,-2.789026
0.434300,-2.824081
0.434400,-2.836415
0.434500,-2.816616
0.434600,-2.785456
0.434700,-2.753971
0.434800,-2.647832
0.434900,-2.526762
0.435000,-2.450485
0.435100,-2.453082
0.435200,-2.473531
0.435300,-2.489760
0.435400,-2.338829
0.435500,-2.177511
0.435600,-2.043133
0.435700,-1.910703
0.435800,-1.913300
0.435900,-1.895773
0.436000,-1.814952
0.436100,-1.678951
0.436200,-1.546846
0.436300,-1.441357
0.436400,-1.402732
0.436500,-1.337166
0.436600,-1.339438
0.436700,-1.289452
0.436800,-1.295295
0.436900,-1.252775
0.437000,-1.102168
0.437100,-1.097949
0.437200,-0.997004
0.437300,-1.038875
0.437400,-0.964546
0.437500,-1.016154
0.437600,-0.959677
0.437700,-0.675668
0.437800,-0.308241
0.437900,0.003033
0.438000,-0.203401
0.438100,-0.529281
0.438200,-0.674694
0.438300,-0.413081
0.438400,-0.081683
0.438500,0.096837
0.438600,0.092617
0.438700,-0.190742
0.438800,-0.313434
0.438900,-0.319277
0.439000,-0.050523
0.439100,0.001734
0.439200,0.058212
0.439300,-0.070972
0.439400,-0.142380
0.439500,-0.204050
0.439600,-0.184900
0.439700,-0.215086
0.439800,-0.192041
0.439900,-0.230666
0.440000,-0.235210
0.440100,-0.249492
0.440200,-0.310513
0.440300,-0.406589
0.440400,-0.495200
0.440500,-0.558818
0.440600,-0.475401
0.440700,-0.419897
0.440800,-0.420871
0.440900,-0.603935
0.441000,-0.935009
0.441100,-0.922999
0.441200,-0.762656
0.441300,-0.479620
0.441400,-0.497148
0.441500,-0.719486
0.441600,-1.019725
0.441700,-1.128460
0.441800,-1.009987
0.441900,-0.772718
0.442000,-0.690598
0.442100,-0.883725
0.442200,-1.079448
0.442300,-1.089510
0.442400,-1.059973
0.442500,-1.006741
0.442600,-0.994407
0.442700,-1.042770
0.442800,-1.078474
0.442900,-1.041147
0.443000,-0.970064
0.443100,-0.947992
0.443200,-0.999601
0.443300,-1.013558
0.443400,-0.977529
0.443500,-0.925920
0.443600,-0.875935
0.443700,-0.953510
0.443800,-1.130083
0.443900,-1.180717
0.444000,-1.167734
0.444100,-1.127486
0.444200,-1.054130
0.444300,-1.103142
0.444400,-1.104116
0.444500,-1.094054
0.444600,-1.076202
0.444700,-1.068737
0.444800,-1.027515
0.444900,-1.007066
0.445000,-0.986617
0.445100,-0.917806
0.445200,-0.917157
0.445300,-0.866522
0.445400,-0.871715
0.445500,-0.845424
0.445600,-0.783104
0.445700,-0.804527
0.445800,-0.823677
0.445900,-0.883400
0.446000,-0.940527
0.446100,-1.281338
0.446200,-1.543925
0.446300,-1.545873
0.446400,-1.289452
0.446500,-1.087562
0.446600,-1.196622
0.446700,-1.605271
0.446800,-1.966856
0.446900,-2.064556
0.447000,-1.877596
0.447100,-1.694531
0.447200,-1.772431
0.447300,-2.001911
0.447400,-2.291764
0.447500,-2.427764
0.447600,-2.420948
0.447700,-2.375182
0.447800,-2.422246
0.447900,-2.536500
0.448000,-2.614400
0.448100,-2.641016
0.448200,-2.698792
0.448300,-2.706257
0.448400,-2.799413
0.448500,-2.905227
0.448600,-2.860110
0.448700,-2.883805
0.448800,-2.833494
0.448900,-2.899060
0.449000,-2.961380
0.449100,-2.999356
0.449200,-2.872444
0.449300,-2.675422
0.449400,-2.674123
0.449500,-2.836091
0.449600,-3.129839
0.449700,-3.267788
0.449800,-3.092512
0.449900,-2.835117
0.450000,-2.740663
0.450100,-2.927948
0.450200,-3.226890
0.450300,-3.425861
0.450400,-3.381717
0.450500,-3.194107
0.450600,-3.068493
0.450700,-3.084073
0.450800,-3.155806
0.450900,-3.210661
0.451000,-3.195405
0.451100,-3.152560
0.451200,-3.069142
0.451300,-3.004550
0.451400,-2.949371
0.451500,-2.799088
0.451600,-2.637121
0.451700,-2.603364
0.451800,-2.603364
0.451900,-2.580643
0.452000,-2.512481
0.452100,-2.278456
0.452200,-2.175563
0.452300,-1.874675
0.452400,-1.898369
0.452500,-1.867859
0.452600,-1.825663
0.452700,-1.732183
0.452800,-1.600078
0.452900,-1.470245
0.453000,-1.428049
0.453100,-1.412469
0.453200,-1.449147
0.453300,-1.418961
0.453400,-1.420908
0.453500,-1.382283
0.453600,-1.367028
0.453700,-1.244011
0.453800,-1.253748
0.453900,-1.191429
0.454000,-1.211553
0.454100,-1.170980
0.454200,-1.162865
0.454300,-1.131381
0.454400,-0.766875
0.454500,-0.452680
0.454600,-0.342647
0.454700,-0.743505
0.454800,-1.009013
0.454900,-0.996355
0.455000,-0.717214
0.455100,-0.374780
0.455200,-0.273511
0.455300,-0.478971
0.455400,-0.736689
0.455500,-0.818159
0.455600,-0.727276
0.455700,-0.558494
0.455800,-0.354007
0.455900,-0.449759
0.456000,-0.529281
0.456100,-0.635744
0.456200,-0.583162
0.456300,-0.608155
0.456400,-0.604260
0.456500,-0.596145
0.456600,-0.594522
0.456700,-0.652622
0.456800,-0.626656
0.456900,-0.745128
0.457000,-0.799658
0.457100,-0.893462
0.457200,-0.910665
0.457300,-0.779534
0.457400,-0.763954
0.457500,-0.771419
0.457600,-1.062569
0.457700,-1.281987
0.457800,-1.241414
0.457900,-1.078149
0.458000,-0.828221
0.458100,-0.936956
0.458200,-1.200517
0.458300,-1.493290
0.458400,-1.470245
0.458500,-1.268030
0.458600,-1.025567
0.458700,-1.019725
0.458800,-1.171629
0.458900,-1.323858
0.459000,-1.280364
0.459100,-1.247906
0.459200,-1.160918
0.459300,-1.189481
0.459400,-1.217071
0.459500,-1.216746
0.459600,-1.154751
0.459700,-1.145338
0.459800,-1.151180
0.459900,-1.186235
0.460000,-1.180068
0.460100,-1.128460
0.460200,-1.093405
0.460300,-1.077500
0.460400,-1.234923
0.460500,-1.358588
0.460600,-1.352746
0.460700,-1.349825
0.460800,-1.338464
0.460900,-1.305682
0.461000,-1.315094
0.461100,-1.277767
0.461200,-1.282312
0.461300,-1.282961
0.461400,-1.291725
0.461500,-1.290751
0.461600,-1.266083
0.461700,-1.302436
0.461800,-1.298216
0.461900,-1.322884
0.462000,-1.326130
0.462100,-1.361834
0.462200,-1.352097
0.462300,-1.381309
0.462400,-1.402407
0.462500,-1.399486
0.462600,-1.410522
0.462700,-1.528020
0.462800,-1.798398
0.462900,-1.931477
0.463000,-1.715954
0.463100,-1.333596
0.463200,-1.132679
0.463300,-1.345930
0.463400,-1.784765
0.463500,-1.993797
0.463600,-1.933749
0.463700,-1.699725
0.463800,-1.535486
0.463900,-1.651362
0.464000,-1.930178
0.464100,-2.168747
0.464200,-2.202179
0.464300,-2.179134
0.464400,-2.109348
0.464500,-2.148947
0.464600,-2.256709
0.464700,-2.360900
0.464800,-2.390762
0.464900,-2.413807
0.465000,-2.470285
0.465100,-2.535526
0.465200,-2.638744
0.465300,-2.641990
0.465400,-2.679317
0.465500,-2.680940
0.465600,-2.784157
0.465700,-2.841284
0.465800,-2.870172
0.465900,-2.702362
0.466000,-2.625436
0.466100,-2.756568
0.466200,-2.983776
0.466300,-3.283043
0.466400,-3.321993
0.466500,-3.080178
0.466600,-2.830248
0.466700,-2.862057
0.466800,-3.125295
0.466900,-3.459942
0.467000,-3.585232
0.467100,-3.462214
0.467200,-3.278824
0.467300,-3.198651
0.467400,-3.248637
0.467500,-3.333029
0.467600,-3.380743
0.467700,-3.340495
0.467800,-3.293755
0.467900,-3.198327
0.468000,-3.136006
0.468100,-3.036684
0.468200,-2.859785
0.468300,-2.735470
0.468400,-2.681589
0.468500,-2.638095
0.468600,-2.628032
0.468700,-2.473206
0.468800,-2.236909
0.468900,-2.095391
0.469000,-1.817873
0.469100,-1.831505
0.469200,-1.790932
0.469300,-1.716603
0.469400,-1.603648
0.469500,-1.496861
0.469600,-1.365405
0.469700,-1.336192
0.469800,-1.327104
0.469900,-1.362159
0.470000,-1.380660
0.470100,-1.346579
0.470200,-1.386503
0.470300,-1.243362
0.470400,-1.306655
0.470500,-1.175849
0.470600,-1.219018
0.470700,-1.184288
0.470800,-1.229729
0.470900,-1.235896
0.471000,-1.030760
0.471100,-0.790894
0.471200,-0.371535
0.471300,-0.503639
0.471400,-0.850942
0.471500,-1.087238
0.471600,-0.929166
0.471700,-0.515973
0.471800,-0.306294
0.471900,-0.209568
0.472000,-0.429310
0.472100,-0.651649
0.472200,-0.627305
0.472300,-0.359850
0.472400,-0.116413
0.472500,-0.037865
0.472600,0.032570
0.472700,-0.099860
0.472800,-0.106676
0.472900,-0.106351
0.473000,-0.027153
0.473100,0.006279
0.473200,0.030622
0.473300,0.026403
0.473400,0.043930
0.473500,-0.060261
0.473600,-0.101807
0.473700,-0.091745
0.473800,-0.133292
0.473900,-0.152117
0.474000,-0.120633
0.474100,-0.086227
0.474200,-0.208919
0.474300,-0.558818
0.474400,-0.708450
0.474500,-0.633147
0.474600,-0.382895
0.474700,-0.261177
0.474800,-0.410484
0.474900,-0.743830
0.475000,-0.944746
0.475100,-0.907744
0.475200,-0.657816
0.475300,-0.472155
0.475400,-0.524088
0.475500,-0.731820
0.475600,-0.855811
0.475700,-0.832116
0.475800,-0.825625
0.475900,-0.729224
0.476000,-0.786350
0.476100,-0.842503
0.476200,-0.846073
0.476300,-0.843477
0.476400,-0.872040
0.476500,-0.936632
0.476600,-0.997653
0.476700,-0.991486
0.476800,-0.949615
0.476900,-0.937930
0.477000,-0.953834
0.477100,-1.144040
0.477200,-1.226159
0.477300,-1.226159
0.477400,-1.224861
0.477500,-1.132030
0.477600,-1.205061
0.477700,-1.213500
0.477800,-1.233949
0.477900,-1.256670
0.478000,-1.277443
0.478100,-1.303085
0.478200,-1.319314
0.478300,-1.361185
0.478400,-1.381634
0.478500,-1.407276
0.478600,-1.432593
0.478700,-1.454989
0.478800,-1.484202
0.478900,-1.522827
0.479000,-1.545548
0.479100,-1.620527
0.479200,-1.610789
0.479300,-1.710111
0.479400,-1.907458
0.479500,-2.353759
0.479600,-2.381024
0.479700,-2.169072
0.479800,-1.877596
0.479900,-1.821119
0.480000,-2.201854
0.480100,-2.575450
0.480200,-2.740338
0.480300,-2.593951
0.480400,-2.414132
0.480500,-2.329091
0.480600,-2.476127
0.480700,-2.722486
0.480800,-2.882506
0.480900,-2.884129
0.481000,-2.851346
0.481100,-2.824730
0.481200,-2.847127
0.481300,-2.867251
0.481400,-2.932492
0.481500,-2.927948
0.481600,-2.957161
0.481700,-3.001304
0.481800,-3.072063
0.481900,-3.114584
0.482000,-3.085696
0.482100,-3.113935
0.482200,-3.178527
0.482300,-3.216503
0.482400,-3.204169
0.482500,-3.142174
0.482600,-2.862707
0.482700,-2.750076
0.482800,-2.862382
0.482900,-3.100302
0.483000,-3.241496
0.483100,-3.060054
0.483200,-2.752673
0.483300,-2.529359
0.483400,-2.583564
0.483500,-2.792921
0.483600,-2.993514
0.483700,-3.018182
0.483800,-2.866602
0.483900,-2.767603
0.484000,-2.718591
0.484100,-2.711450
0.484200,-2.736119
0.484300,-2.764033
0.484400,-2.771498
0.484500,-2.760463
0.484600,-2.682887
0.484700,-2.604987
0.484800,-2.476127
0.484900,-2.295010
0.485000,-2.202828
0.485100,-2.182704
0.485200,-2.125253
0.485300,-2.081759
0.485400,-1.846111
0.485500,-1.650064
0.485600,-1.371572
0.485700,-1.257968
0.485800,-1.220641
0.485900,-1.182016
0.486000,-1.060297
0.486100,-0.941500
0.486200,-0.814589
0.486300,-0.721758
0.486400,-0.705854
0.486500,-0.693520
0.486600,-0.692871
0.486700,-0.675992
0.486800,-0.720460
0.486900,-0.674369
0.487000,-0.598417
0.487100,-0.608155
0.487200,-0.602312
0.487300,-0.670799
0.487400,-0.623085
0.487500,-0.720785
0.487600,-0.570503
0.487700,-0.506885
0.487800,-0.017740
0.487900,-0.006056
0.488000,-0.265721
0.488100,-0.710398
0.488200,-0.742207
0.488300,-0.539668
0.488400,-0.125177
0.488500,-0.045654
0.488600,-0.126151
0.488700,-0.403993
0.488800,-0.560117
0.488900,-0.443916
0.489000,-0.255983
0.489100,-0.157635
0.489200,-0.226122
0.489300,-0.275134
0.489400,-0.384842
0.489500,-0.338752
0.489600,-0.335181
0.489700,-0.325444
0.489800,-0.348489
0.489900,-0.416327
0.490000,-0.376728
0.490100,-0.442618
0.490200,-0.412756
0.490300,-0.640288
0.490400,-0.628928
0.490500,-0.690598
0.490600,-0.612699
0.490700,-0.533176
0.490800,-0.597119
0.490900,-0.731496
0.491000,-1.117099
0.491100,-1.030111
0.491200,-0.883725
0.491300,-0.549730
0.491400,-0.653921
0.491500,-0.823352
0.491600,-1.136899
0.491700,-1.188507
0.491800,-1.054455
0.491900,-0.836660
0.492000,-0.738312
0.492100,-0.898331
0.492200,-1.067763
0.492300,-1.082044
0.492400,-1.050560
0.492500,-1.026865
0.492600,-1.056727
0.492700,-1.122293
0.492800,-1.165462
0.492900,-1.162541
0.493000,-1.133004
0.493100,-1.181691
0.493200,-1.268679
0.493300,-1.318340
0.493400,-1.321586
0.493500,-1.310550
0.493600,-1.302436
0.493700,-1.413443
0.493800,-1.580278
0.493900,-1.636431
0.494000,-1.633185
0.494100,-1.622149
0.494200,-1.491018
0.494300,-1.530293
0.494400,-1.501405
0.494500,-1.464402
0.494600,-1.454016
0.494700,-1.467648
0.494800,-1.430321
0.494900,-1.437787
0.495000,-1.414417
0.495100,-1.425777
0.495200,-1.404679
0.495300,-1.407276
0.495400,-1.409548
0.495500,-1.420584
0.495600,-1.417338
0.495700,-1.416364
0.495800,-1.437137
0.495900,-1.484202
0.496000,-1.569242
0.496100,-1.867534
0.496200,-2.137912
0.496300,-2.056117
0.496400,-1.698426
0.496500,-1.469596
0.496600,-1.590340
0.496700,-1.998665
0.496800,-2.325196
0.496900,-2.381674
0.497000,-2.177511
0.497100,-1.983085
0.497200,-2.032097
0.497300,-2.244699
0.497400,-2.532929
0.497500,-2.646858
0.497600,-2.668605
0.497700,-2.594925
0.497800,-2.608557
0.497900,-2.733522
0.498000,-2.814019
0.498100,-2.853294
0.498200,-2.844854
0.498300,-2.849399
0.498400,-2.982803
0.498500,-3.062975
0.498600,-3.097706
0.498700,-3.053562
0.498800,-3.059729
0.498900,-3.133410
0.499000,-3.200923
0.499100,-3.247988
0.499200,-3.086670
0.499300,-2.870821
0.499400,-2.897762
0.499500,-3.107443
0.499600,-3.402490
0.499700,-3.502787
0.499800,-3.283368
0.499900,-3.019805
0.500000,-2.928922
0.500100,-3.094460
0.500200,-3.376199
0.500300,-3.530052
0.500400,-3.450854
0.500500,-3.204169
0.500600,-3.045772
0.500700,-3.022727
0.500800,-3.061352
0.500900,-3.067844
0.501000,-3.004874
0.501100,-2.932492
0.501200,-2.838038
0.501300,-2.746830
0.501400,-2.674773
0.501500,-2.506638
0.501600,-2.355382
0.501700,-2.266122
0.501800,-2.240480
0.501900,-2.226523
0.502000,-2.118112
0.502100,-1.875973
0.502200,-1.743868
0.502300,-1.409548
0.502400,-1.394942
0.502500,-1.341061
0.502600,-1.269004
0.502700,-1.123266
0.502800,-0.974608
0.502900,-0.811668
0.503000,-0.708775
0.503100,-0.659763
0.503200,-0.637692
0.503300,-0.594847
0.503400,-0.563038
0.503500,-0.539992
0.503600,-0.511105
0.503700,-0.440021
0.503800,-0.517921
0.503900,-0.452031
0.504000,-0.561415
0.504100,-0.499744
0.504200,-0.526360
0.504300,-0.515649
0.504400,-0.176785
0.504500,-0.048900
0.504600,0.151042
0.504700,-0.402694
0.504800,-0.625357
0.504900,-0.631849
0.505000,-0.304995
0.505100,-0.106351
0.505200,-0.005082
0.505300,-0.129397
0.505400,-0.386141
0.505500,-0.410809
0.505600,-0.278055
0.505700,-0.035268
0.505800,0.036140
0.505900,0.012121
0.506000,-0.112843
0.506100,-0.080709
0.506200,-0.084929
0.506300,-0.049874
0.506400,-0.053769
0.506500,-0.078113
0.506600,-0.121282
0.506700,-0.122256
0.506800,-0.233263
0.506900,-0.316031
0.507000,-0.469558
0.507100,-0.519868
0.507200,-0.626656
0.507300,-0.480919
0.507400,-0.590303
0.507500,-0.584136
0.507600,-1.016803
0.507700,-1.133653
0.507800,-1.107362
0.507900,-0.947018
0.508000,-0.790245
0.508100,-0.923324
0.508200,-1.194025
0.508300,-1.439734
0.508400,-1.408899
0.508500,-1.298541
0.508600,-1.145987
0.508700,-1.189806
0.508800,-1.338464
0.508900,-1.468622
0.509000,-1.460832
0.509100,-1.482904
0.509200,-1.432593
0.509300,-1.515686
0.509400,-1.559180
0.509500,-1.584498
0.509600,-1.542627
0.509700,-1.504651
0.509800,-1.555285
0.509900,-1.563725
0.510000,-1.553338
0.510100,-1.493615
0.510200,-1.445577
0.510300,-1.450121
0.510400,-1.631887
0.510500,-1.713357
0.510600,-1.722121
0.510700,-1.707515
0.510800,-1.628316
0.510900,-1.673758
0.511000,-1.700374
0.511100,-1.715954
0.511200,-1.734130
0.511300,-1.727963
0.511400,-1.760097
0.511500,-1.744517
0.511600,-1.778923
0.511700,-1.778274
0.511800,-1.776651
0.511900,-1.788011
0.512000,-1.753281
0.512100,-1.781844
0.512200,-1.783142
0.512300,-1.731534
0.512400,-1.757825
0.512500,-1.732832
0.512600,-1.778598
0.512700,-1.875649
0.512800,-2.245998
0.512900,-2.318380
0.513000,-2.087601
0.513100,-1.781520
0.513200,-1.611438
0.513300,-1.899018
0.513400,-2.293711
0.513500,-2.455029
0.513600,-2.324222
0.513700,-2.069749
0.513800,-1.907458
0.513900,-2.032097
0.514000,-2.270341
0.514100,-2.422571
0.514200,-2.443994
0.514300,-2.363497
0.514400,-2.350514
0.514500,-2.367392
0.514600,-2.432309
0.514700,-2.484567
0.514800,-2.468986
0.514900,-2.463793
0.515000,-2.507612
0.515100,-2.634200
0.515200,-2.714696
0.515300,-2.715670
0.515400,-2.626734
0.515500,-2.692949
0.515600,-2.750401
0.515700,-2.809150
0.515800,-2.751050
0.515900,-2.604338
0.516000,-2.453731
0.516100,-2.554677
0.516200,-2.799413
0.516300,-3.027595
0.516400,-2.965600
0.516500,-2.693923
0.516600,-2.517999
0.516700,-2.589082
0.516800,-2.842258
0.516900,-3.118479
0.517000,-3.164894
0.517100,-3.049018
0.517200,-2.899709
0.517300,-2.876015
0.517400,-2.944177
0.517500,-3.038307
0.517600,-3.048369
0.517700,-2.986049
0.517800,-2.947098
0.517900,-2.906201
0.518000,-2.867900
0.518100,-2.784806
0.518200,-2.599794
0.518300,-2.467364
0.518400,-2.448538
0.518500,-2.424519
0.518600,-2.427115
0.518700,-2.263850
0.518800,-2.064231
0.518900,-1.846111
0.519000,-1.694207
0.519100,-1.762045
0.519200,-1.738025
0.519300,-1.680250
0.519400,-1.558531
0.519500,-1.451419
0.519600,-1.356641
0.519700,-1.330350
0.519800,-1.330025
0.519900,-1.344956
0.520000,-1.316717
0.520100,-1.379037
0.520200,-1.331648
0.520300,-1.277118
0.520400,-1.237844
0.520500,-1.261214
0.520600,-1.254398
0.520700,-1.224861
0.520800,-1.342359
0.520900,-1.215448
0.521000,-1.193701
0.521100,-0.742532
0.521200,-0.672422
0.521300,-0.607830
0.521400,-1.269977
0.521500,-1.271276
0.521600,-1.177472
0.521700,-0.754541
0.521800,-0.528957
0.521900,-0.576995
0.522000,-0.760708
0.522100,-0.926894
0.522200,-0.899954
0.522300,-0.618541
0.522400,-0.408212
0.522500,-0.327716
0.522600,-0.400422
0.522700,-0.367964
0.522800,-0.352709
0.522900,-0.326418
0.523000,-0.250141
0.523100,-0.222551
0.523200,-0.208270
0.523300,-0.217683
0.523400,-0.190093
0.523500,-0.204375
0.523600,-0.327716
0.523700,-0.323496
0.523800,-0.363745
0.523900,-0.274809
0.524000,-0.221578
0.524100,-0.164451
0.524200,-0.266695
0.524300,-0.607181
0.524400,-0.659114
0.524500,-0.586083
0.524600,-0.341998
0.524700,-0.326418
0.524800,-0.523439
0.524900,-0.873338
0.525000,-1.044393
0.525100,-1.024593
0.525200,-0.809395
0.525300,-0.680536
0.525400,-0.875935
0.525500,-1.117424
0.525600,-1.238493
0.525700,-1.182665
0.525800,-1.132679
0.525900,-1.074579
0.526000,-1.157023
0.526100,-1.230703
0.526200,-1.256994
0.526300,-1.207982
0.526400,-1.205061
0.526500,-1.213500
0.526600,-1.205710
0.526700,-1.166760
0.526800,-1.099572
0.526900,-1.036927
0.527000,-1.056078
0.527100,-1.204087
0.527200,-1.201166
0.527300,-1.169032
0.527400,-1.135925
0.527500,-0.992784
0.527600,-1.054779
0.527700,-1.033682
0.527800,-0.994732
0.527900,-0.981099
0.528000,-0.975906
0.528100,-0.965519
0.528200,-0.949615
0.528300,-0.950264
0.528400,-0.960975
0.528500,-0.933710
0.528600,-0.960326
0.528700,-0.950264
0.528800,-0.984345
0.528900,-0.958054
0.529000,-1.040498
0.529100,-1.057376
0.529200,-1.141118
0.529300,-1.192078
0.529400,-1.547495
0.529500,-1.876622
0.529600,-1.881166
0.529700,-1.640326
0.529800,-1.349825
0.529900,-1.475114
0.530000,-1.825014
0.530100,-2.284948
0.530200,-2.390113
0.530300,-2.236260
0.530400,-2.050274
0.530500,-1.998990
0.530600,-2.224900
0.530700,-2.430036
0.530800,-2.594276
0.530900,-2.568958
0.531000,-2.492681
0.531100,-2.483917
0.531200,-2.481645
0.531300,-2.536824
0.531400,-2.577073
0.531500,-2.572204
0.531600,-2.579669
0.531700,-2.632577
0.531800,-2.624137
0.531900,-2.691975
0.532000,-2.648157
0.532100,-2.668930
0.532200,-2.724434
0.532300,-2.757866
0.532400,-2.805580
0.532500,-2.725083
0.532600,-2.552404
0.532700,-2.530333
0.532800,-2.691651
0.532900,-2.949695
0.533000,-3.131787
0.533100,-3.003576
0.533200,-2.744883
0.533300,-2.641340
0.533400,-2.735794
0.533500,-3.025323
0.533600,-3.253181
0.533700,-3.290184
0.533800,-3.143147
0.533900,-3.019156
0.534000,-2.987347
0.534100,-3.071414
0.534200,-3.132761
0.534300,-3.162947
0.534400,-3.149314
0.534500,-3.146718
0.534600,-3.078880
0.534700,-3.008445
0.534800,-2.899060
0.534900,-2.769226
0.535000,-2.738391
0.535100,-2.730601
0.535200,-2.705608
0.535300,-2.635498
0.535400,-2.415106
0.535500,-2.288194
0.535600,-1.997043
0.535700,-1.975945
0.535800,-1.958417
0.535900,-1.929854
0.536000,-1.834426
0.536100,-1.728937
0.536200,-1.597806
0.536300,-1.477386
0.536400,-1.455314
0.536500,-1.414741
0.536600,-1.438111
0.536700,-1.384230
0.536800,-1.397214
0.536900,-1.329051
0.537000,-1.255047
0.537100,-1.184937
0.537200,-1.167734
0.537300,-1.163190
0.537400,-1.161892
0.537500,-1.164164
0.537600,-1.061596
0.537700,-0.818159
0.537800,-0.517596
0.537900,-0.225473
0.538000,-0.719162
0.538100,-0.936956
0.538200,-0.939228
0.538300,-0.533501
0.538400,-0.311811
0.538500,-0.168022
0.538600,-0.323496
0.538700,-0.518895
0.538800,-0.561090
0.538900,-0.411783
0.539000,-0.124528
0.539100,0.018288
0.539200,0.053018
0.539300,-0.052471
0.539400,0.031271
0.539500,-0.036566
0.539600,-0.011898
0.539700,-0.022609
0.539800,-0.015468
0.539900,-0.025530
0.540000,0.068598
0.540100,0.047500
0.540200,-0.082657
0.540300,-0.182303
0.540400,-0.204050
0.540500,-0.176785
0.540600,-0.061559
0.540700,0.007577
0.540800,0.006928
0.540900,-0.292012
0.541000,-0.514675
0.541100,-0.453005
0.541200,-0.308566
0.541300,0.007252
0.541400,-0.152442
0.541500,-0.372833
0.541600,-0.664307
0.541700,-0.633147
0.541800,-0.486436
0.541900,-0.295907
0.542000,-0.348165
0.542100,-0.519219
0.542200,-0.673720
0.542300,-0.644508
0.542400,-0.700660
0.542500,-0.679887
0.542600,-0.794140
0.542700,-0.853214
0.542800,-0.885348
0.542900,-0.885672
0.543000,-0.885672
0.543100,-0.970388
0.543200,-1.030760
0.543300,-1.066140
0.543400,-1.057376
0.543500,-1.009663
0.543600,-1.016154
0.543700,-1.184288
0.543800,-1.349825
0.543900,-1.366378
0.544000,-1.369624
0.544100,-1.278092
0.544200,-1.317042
0.544300,-1.315744
0.544400,-1.315744
0.544500,-1.335543
0.544600,-1.359887
0.544700,-1.390398
0.544800,-1.395266
0.544900,-1.443304
0.545000,-1.475114
0.545100,-1.534188
0.545200,-1.583524
0.545300,-1.592612
0.545400,-1.652011
0.545500,-1.659476
0.545600,-1.706865
0.545700,-1.708813
0.545800,-1.796450
0.545900,-1.818847
0.546000,-2.043782
0.546100,-2.380051
0.546200,-2.637121
0.546300,-2.496576
0.546400,-2.174589
0.546500,-1.948355
0.546600,-2.176537
0.546700,-2.597197
0.546800,-2.825704
0.546900,-2.811747
0.547000,-2.525464
0.547100,-2.344996
0.547200,-2.361874
0.547300,-2.618295
0.547400,-2.818888
0.547500,-2.827327
0.547600,-2.783833
0.547700,-2.695546
0.547800,-2.672500
0.547900,-2.703660
0.548000,-2.754945
0.548100,-2.680940
0.548200,-2.610830
0.548300,-2.539746
0.548400,-2.567660
0.548500,-2.554352
0.548600,-2.452757
0.548700,-2.394657
0.548800,-2.334934
0.548900,-2.367716
0.549000,-2.398552
0.549100,-2.384270
0.549200,-2.170694
0.549300,-1.964909
0.549400,-2.054818
0.549500,-2.283000
0.549600,-2.542342
0.549700,-2.592328
0.549800,-2.336556
0.549900,-2.082083
0.550000,-2.051572
0.550100,-2.285272
0.550200,-2.595250
0.550300,-2.718591
0.550400,-2.633226
0.550500,-2.404719
0.550600,-2.311888
0.550700,-2.343697
0.550800,-2.464442
0.550900,-2.540719
0.551000,-2.517674
0.551100,-2.511832
0.551200,-2.478724
0.551300,-2.458275
0.551400,-2.419974
0.551500,-2.344346
0.551600,-2.248919
0.551700,-2.231067
0.551800,-2.250542
0.551900,-2.283974
0.552000,-2.228795
0.552100,-2.051572
0.552200,-1.911353
0.552300,-1.728288
0.552400,-1.791906
0.552500,-1.800345
0.552600,-1.763667
0.552700,-1.663371
0.552800,-1.517634
0.552900,-1.388125
0.553000,-1.282636
0.553100,-1.276794
0.553200,-1.271600
0.553300,-1.238818
0.553400,-1.219992
0.553500,-1.166111
0.553600,-1.191104
0.553700,-1.068087
0.553800,-1.184612
0.553900,-1.076202
0.554000,-1.240441
0.554100,-1.139820
0.554200,-1.334245
0.554300,-1.120020
0.554400,-0.958379
0.554500,-0.645157
0.554600,-0.713319
0.554700,-1.227457
0.554800,-1.435190
0.554900,-1.407276
0.555000,-0.990188
0.555100,-0.859381
0.555200,-0.751295
0.555300,-1.057701
0.555400,-1.283610
0.555500,-1.380011
0.555600,-1.181367
0.555700,-0.921376
0.555800,-0.798360
0.555900,-0.841529
0.556000,-0.903524
0.556100,-0.910340
0.556200,-0.953834
0.556300,-0.887620
0.556400,-0.829844
0.556500,-0.809071
0.556600,-0.853539
0.556700,-0.789596
0.556800,-0.869119
0.556900,-0.922025
0.557000,-0.942474
0.557100,-0.972336
0.557200,-1.042121
0.557300,-0.856460
0.557400,-0.843477
0.557500,-0.801605
0.557600,-1.081395
0.557700,-1.159944
0.557800,-1.039524
0.557900,-0.788622
0.558000,-0.526360
0.558100,-0.662360
0.558200,-0.904823
0.558300,-1.096001
0.558400,-1.023295
0.558500,-0.806474
0.558600,-0.546484
0.558700,-0.565959
0.558800,-0.698713
0.558900,-0.806474
0.559000,-0.781481
0.559100,-0.795763
0.559200,-0.692871
0.559300,-0.724355
0.559400,-0.764603
0.559500,-0.802904
0.559600,-0.778885
0.559700,-0.766551
0.559800,-0.796412
0.559900,-0.798035
0.560000,-0.793166
0.560100,-0.752594
0.560200,-0.740259
0.560300,-0.769147
0.560400,-0.945720
0.560500,-1.018751
0.560600,-0.994732
0.560700,-0.970713
0.560800,-0.847047
0.560900,-0.918130
0.561000,-0.916508
0.561100,-0.888269
0.561200,-0.924622
0.561300,-0.942149
0.561400,-0.912937
0.561500,-0.909691
0.561600,-0.916508
0.561700,-0.925596
0.561800,-0.884698
0.561900,-0.865224
0.562000,-0.880479
0.562100,-0.841529
0.562200,-0.873014
0.562300,-0.827897
0.562400,-0.861978
0.562500,-0.844126
0.562600,-0.904498
0.562700,-1.104116
0.562800,-1.433242
0.562900,-1.576383
0.563000,-1.305682
0.563100,-1.076526
0.563200,-1.046990
0.563300,-1.358588
0.563400,-1.758150
0.563500,-1.965558
0.563600,-1.901940
0.563700,-1.692908
0.563800,-1.642598
0.563900,-1.795801
0.564000,-2.065530
0.564100,-2.250542
0.564200,-2.317731
0.564300,-2.327468
0.564400,-2.304098
0.564500,-2.410561
0.564600,-2.477750
0.564700,-2.536500
0.564800,-2.614075
0.564900,-2.650104
0.565000,-2.736443
0.565100,-2.852320
0.565200,-2.920158
0.565300,-2.962354
0.565400,-2.937685
0.565500,-2.972741
0.565600,-3.091538
0.565700,-3.110364
0.565800,-3.058431
0.565900,-2.899385
0.566000,-2.790649
0.566100,-2.950993
0.566200,-3.215854
0.566300,-3.436247
0.566400,-3.330433
0.566500,-3.026946
0.566600,-2.837714
0.566700,-2.886077
0.566800,-3.106794
0.566900,-3.320695
0.567000,-3.339196
0.567100,-3.206766
0.567200,-3.045447
0.567300,-3.007471
0.567400,-3.005199
0.567500,-3.001953
0.567600,-2.972741
0.567700,-2.930220
0.567800,-2.894516
0.567900,-2.828625
0.568000,-2.740014
0.568100,-2.611154
0.568200,-2.395955
0.568300,-2.302151
0.568400,-2.262551
0.568500,-2.225224
0.568600,-2.219382
0.568700,-2.005806
0.568800,-1.823066
0.568900,-1.511142
0.569000,-1.431619
0.569100,-1.452393
0.569200,-1.417987
0.569300,-1.299514
0.569400,-1.176822
0.569500,-1.044717
0.569600,-0.972985
0.569700,-0.936307
0.569800,-0.914885
0.569900,-0.969414
0.570000,-0.936307
0.570100,-1.012908
0.570200,-0.994732
0.570300,-0.943772
0.570400,-0.962274
0.570500,-0.922999
0.570600,-1.033032
0.570700,-1.053157
0.570800,-1.229405
0.570900,-1.135925
0.571000,-1.101195
0.571100,-0.635095
0.571200,-0.554923
0.571300,-0.577319
0.571400,-1.179094
0.571500,-1.200841
0.571600,-1.054779
0.571700,-0.629252
0.571800,-0.421520
0.571900,-0.458847
0.572000,-0.668527
0.572100,-0.780832
0.572200,-0.673071
0.572300,-0.457224
0.572400,-0.193015
0.572500,-0.193988
0.572600,-0.243325
0.572700,-0.169969
0.572800,-0.149521
0.572900,-0.067726
0.573000,-0.032996
0.573100,-0.027153
0.573200,-0.029425
0.573300,0.032570
0.573400,0.067949
0.573500,0.127023
0.573600,-0.032671
0.573700,0.020560
0.573800,-0.045979
0.573900,0.102030
0.574000,0.214985
0.574100,0.330860
0.574200,0.142603
0.574300,-0.104079
0.574400,-0.044032
0.574500,0.132541
0.574600,0.448359
0.574700,0.469781
0.574800,0.304245
0.574900,0.015691
0.575000,-0.007029
0.575100,0.141305
0.575200,0.454201
0.575300,0.573972
0.575400,0.429533
0.575500,0.280875
0.575600,0.253610
0.575700,0.345791
0.575800,0.397075
0.575900,0.397075
0.576000,0.346765
0.576100,0.261724
0.576200,0.272760
0.576300,0.289314
0.576400,0.319175
0.576500,0.246469
0.576600,0.171815
0.576700,0.178307
0.576800,0.207844
0.576900,0.223099
0.577000,0.123453
0.577100,-0.090447
0.577200,-0.156012
0.577300,-0.217358
0.577400,-0.254685
0.577500,-0.218007
0.577600,-0.371859
0.577700,-0.423468
0.577800,-0.514026
0.577900,-0.582837
0.578000,-0.686054
0.578100,-0.802904
0.578200,-0.899305
0.578300,-1.022321
0.578400,-1.106388
0.578500,-1.203763
0.578600,-1.297242
0.578700,-1.425777
0.578800,-1.527696
0.578900,-1.676679
0.579000,-1.787362
0.579100,-1.944135
0.579200,-2.096365
0.579300,-2.254112
0.579400,-2.668930
0.579500,-3.010717
0.579600,-3.115233
0.579700,-2.754296
0.579800,-2.702038
0.579900,-2.801036
0.580000,-3.248637
0.580100,-3.633595
0.580200,-3.698512
0.580300,-3.567704
0.580400,-3.344714
0.580500,-3.344065
0.580600,-3.545308
0.580700,-3.758236
0.580800,-3.835487
0.580900,-3.788098
0.581000,-3.684555
0.581100,-3.610874
0.581200,-3.609576
0.581300,-3.655667
0.581400,-3.649175
0.581500,-3.622234
0.581600,-3.548554
0.581700,-3.595294
0.581800,-3.605031
0.581900,-3.658588
0.582000,-3.584583
0.582100,-3.569327
0.582200,-3.515446
0.582300,-3.580038
0.582400,-3.551475
0.582500,-3.426185
0.582600,-3.167816
0.582700,-3.160999
0.582800,-3.325564
0.582900,-3.532324
0.583000,-3.652421
0.583100,-3.447608
0.583200,-3.122374
0.583300,-3.025648
0.583400,-3.158727
0.583500,-3.375550
0.583600,-3.532324
0.583700,-3.484935
0.583800,-3.301869
0.583900,-3.111663
0.584000,-3.069791
0.584100,-3.124321
0.584200,-3.179501
0.584300,-3.133085
0.584400,-3.041877
0.584500,-2.928922
0.584600,-2.851346
0.584700,-2.767928
0.584800,-2.639393
0.584900,-2.429712
0.585000,-2.317406
0.585100,-2.272289
0.585200,-2.188547
0.585300,-2.097663
0.585400,-1.821119
0.585500,-1.650713
0.585600,-1.316068
0.585700,-1.271276
0.585800,-1.183963
0.585900,-1.083018
0.586000,-0.919429
0.586100,-0.756164
0.586200,-0.584460
0.586300,-0.460470
0.586400,-0.398150
0.586500,-0.378026
0.586600,-0.369262
0.586700,-0.332909
0.586800,-0.341348
0.586900,-0.243649
0.587000,-0.213139
0.587100,-0.213463
0.587200,-0.198208
0.587300,-0.323172
0.587400,-0.344594
0.587500,-0.439697
0.587600,-0.394255
0.587700,-0.203401
0.587800,0.180579
0.587900,0.093591
0.588000,-0.242026
0.588100,-0.661386
0.588200,-0.631525
0.588300,-0.434828
0.588400,-0.157311
0.588500,-0.110895
0.588600,-0.190093
0.588700,-0.493577
0.588800,-0.604584
0.588900,-0.518895
0.589000,-0.332909
0.589100,-0.289740
0.589200,-0.349463
0.589300,-0.394255
0.589400,-0.467935
0.589500,-0.458847
0.589600,-0.510131
0.589700,-0.486761
0.589800,-0.528632
0.589900,-0.560441
0.590000,-0.494226
0.590100,-0.641587
0.590200,-0.736365
0.590300,-0.834713
0.590400,-0.807773
0.590500,-0.964546
0.590600,-0.792193
0.590700,-0.799983
0.590800,-0.808746
0.590900,-1.126837
0.591000,-1.320288
0.591100,-1.272250
0.591200,-1.006092
0.591300,-0.848345
0.591400,-0.895734
0.591500,-1.194350
0.591600,-1.422531
0.591700,-1.366703
0.591800,-1.131056
0.591900,-0.946694
0.592000,-1.016803
0.592100,-1.215448
0.592200,-1.276794
0.592300,-1.210254
0.592400,-1.223562
0.592500,-1.203438
0.592600,-1.285233
0.592700,-1.310550
0.592800,-1.330025
0.592900,-1.336841
0.593000,-1.313147
0.593100,-1.359562
0.593200,-1.397214
0.593300,-1.376765
0.593400,-1.283935
0.593500,-1.214474
0.593600,-1.203114
0.593700,-1.331324
0.593800,-1.436164
0.593900,-1.382608
0.594000,-1.253748
0.594100,-1.117099
0.594200,-1.145662
0.594300,-1.132679
0.594400,-1.081720
0.594500,-1.072956
0.594600,-1.049911
0.594700,-1.003171
0.594800,-0.983047
0.594900,-0.973959
0.595000,-0.945720
0.595100,-0.935658
0.595200,-0.948966
0.595300,-0.934035
0.595400,-0.920402
0.595500,-0.897357
0.595600,-0.905472
0.595700,-0.899954
0.595800,-0.955782
0.595900,-0.962923
0.596000,-1.113529
0.596100,-1.460507
0.596200,-1.606569
0.596300,-1.392345
0.596400,-1.095677
0.596500,-0.990837
0.596600,-1.144040
0.596700,-1.590016
0.596800,-1.767887
0.596900,-1.718226
0.597000,-1.481605
0.597100,-1.378063
0.597200,-1.432918
0.597300,-1.688040
0.597400,-1.857472
0.597500,-1.864288
0.597600,-1.858121
0.597700,-1.790283
0.597800,-1.850656
0.597900,-1.867859
0.598000,-1.942837
0.598100,-1.942188
0.598200,-2.000613
0.598300,-2.047028
0.598400,-2.118761
0.598500,-2.221979
0.598600,-2.256709
0.598700,-2.263850
0.598800,-2.283000
0.598900,-2.317081
0.599000,-2.428738
0.599100,-2.437177
0.599200,-2.302475
0.599300,-2.157711
0.599400,-2.298580
0.599500,-2.684835
0.599600,-2.950993
0.599700,-2.996435
0.599800,-2.747155
0.599900,-2.547536
0.600000,-2.645235
0.600100,-2.995137
0.600200,-3.358347
0.600300,-3.455722
0.600400,-3.324590
0.600500,-3.180150
0.600600,-3.220074
0.600700,-3.345688
0.600800,-3.493374
0.600900,-3.491102
0.601000,-3.415798
0.601100,-3.405412
0.601200,-3.388209
0.601300,-3.388858
0.601400,-3.252857
0.601500,-3.038631
0.601600,-2.935413
0.601700,-2.898735
0.601800,-2.887375
0.601900,-2.888998
0.602000,-2.737742
0.602100,-2.505989
0.602200,-2.431335
0.602300,-2.110971
0.602400,-2.111945
0.602500,-2.056117
0.602600,-1.925959
0.602700,-1.739973
0.602800,-1.555935
0.602900,-1.395591
0.603000,-1.273872
0.603100,-1.270627
0.603200,-1.212851
0.603300,-1.173577
0.603400,-1.095352
0.603500,-1.072631
0.603600,-0.924622
0.603700,-0.916832
0.603800,-0.851591
0.603900,-0.824326
0.604000,-0.762980
0.604100,-0.796412
0.604200,-0.695792
0.604300,-0.539019
0.604400,-0.118361
0.604500,0.140980
0.604600,0.078985
0.604700,-0.348814
0.604800,-0.577319
0.604900,-0.357902
0.605000,-0.006056
0.605100,0.221801
0.605200,0.190966
0.605300,0.055940
0.605400,-0.187172
0.605500,-0.134590
0.605600,-0.026829
0.605700,0.201028
0.605800,0.197782
0.605900,0.162402
0.606000,0.016016
0.606100,0.016016
0.606200,-0.075191
0.606300,0.005954
0.606400,0.015042
0.606500,-0.020013
0.606600,-0.091096
0.606700,-0.211191
0.606800,-0.326093
0.606900,-0.460794
0.607000,-0.525062
0.607100,-0.693195
0.607200,-0.757138
0.607300,-0.820756
0.607400,-0.841204
0.607500,-0.945720
0.607600,-1.434541
0.607700,-1.619553
0.607800,-1.532565
0.607900,-1.343333
0.608000,-1.269653
0.608100,-1.536784
0.608200,-1.985682
0.608300,-2.209320
0.608400,-2.087926
0.608500,-1.814627
0.608600,-1.707190
0.608700,-1.835400
0.608800,-2.131095
0.608900,-2.246647
0.609000,-2.173940
0.609100,-2.135315
0.609200,-2.089549
0.609300,-2.195038
0.609400,-2.276184
0.609500,-2.288518
0.609600,-2.215162
0.609700,-2.176212
0.609800,-2.183678
0.609900,-2.185625
0.610000,-2.123305
0.610100,-2.024957
0.610200,-1.952250
0.610300,-1.956794
0.610400,-2.105453
0.610500,-2.144728
0.610600,-2.104155
0.610700,-2.053845
0.610800,-1.894474
0.610900,-1.960040
0.611000,-1.948355
0.611100,-1.906808
0.611200,-1.904212
0.611300,-1.907782
0.611400,-1.859095
0.611500,-1.833777
0.611600,-1.781195
0.611700,-1.763992
0.611800,-1.742894
0.611900,-1.726016
0.612000,-1.708813
0.612100,-1.704918
0.612200,-1.697128
0.612300,-1.682846
0.612400,-1.698751
0.612500,-1.705567
0.612600,-1.700049
0.612700,-1.954198
0.612800,-2.276184
0.612900,-2.236585
0.613000,-1.953548
0.613100,-1.676679
0.613200,-1.697777
0.613300,-1.955171
0.613400,-2.327793
0.613500,-2.395631
0.613600,-2.260929
0.613700,-2.022685
0.613800,-1.915248
0.613900,-2.036317
0.614000,-2.257034
0.614100,-2.439125
0.614200,-2.458924
0.614300,-2.403745
0.614400,-2.290141
0.614500,-2.295984
0.614600,-2.339802
0.614700,-2.419001
0.614800,-2.426141
0.614900,-2.470934
0.615000,-2.476127
0.615100,-2.500147
0.615200,-2.599145
0.615300,-2.642314
0.615400,-2.641340
0.615500,-2.707555
0.615600,-2.757866
0.615700,-2.822458
0.615800,-2.754945
0.615900,-2.593627
0.616000,-2.511832
0.616100,-2.734496
0.616200,-3.096732
0.616300,-3.236952
0.616400,-3.164570
0.616500,-2.848749
0.616600,-2.727030
0.616700,-2.837064
0.616800,-3.160675
0.616900,-3.406710
0.617000,-3.422290
0.617100,-3.241496
0.617200,-3.074011
0.617300,-3.074985
0.617400,-3.146393
0.617500,-3.200923
0.617600,-3.205143
0.617700,-3.162298
0.617800,-3.129190
0.617900,-3.087643
0.618000,-3.003251
0.618100,-2.884778
0.618200,-2.637121
0.618300,-2.530333
0.618400,-2.574476
0.618500,-2.572204
0.618600,-2.551431
0.618700,-2.356681
0.618800,-2.210294
0.618900,-2.171993
0.619000,-1.896097
0.619100,-1.910703
0.619200,-1.886360
0.619300,-1.756851
0.619400,-1.597806
0.619500,-1.436488
0.619600,-1.319314
0.619700,-1.270627
0.619800,-1.227782
0.619900,-1.242063
0.620000,-1.174226
0.620100,-1.169682
0.620200,-1.056078
0.620300,-0.983047
0.620400,-0.920402
0.620500,-0.905796
0.620600,-0.914235
0.620700,-0.921376
0.620800,-0.964221
0.620900,-0.887620
0.621000,-0.549405
0.621100,-0.301100
0.621200,0.026078
0.621300,-0.438074
0.621400,-0.717214
0.621500,-0.792193
0.621600,-0.395554
0.621700,-0.174513
0.621800,-0.020986
0.621900,-0.034294
0.622000,-0.321224
0.622100,-0.383219
0.622200,-0.318628
0.622300,-0.118361
0.622400,0.033543
0.622500,0.071844
0.622600,0.035166
0.622700,-0.048576
0.622800,-0.095640
0.622900,-0.105702
0.623000,-0.054094
0.623100,-0.022609
0.623200,0.009524
0.623300,-0.008652
0.623400,-0.048576
0.623500,-0.048576
0.623600,-0.179382
0.623700,-0.179058
0.623800,-0.347515
0.623900,-0.212814
0.624000,-0.272212
0.624100,-0.216384
0.624200,-0.485463
0.624300,-0.806799
0.624400,-0.790570
0.624500,-0.528632
0.624600,-0.388088
0.624700,-0.378675
0.624800,-0.683133
0.624900,-1.007066
0.625000,-1.034980
0.625100,-0.881777
0.625200,-0.638990
0.625300,-0.643534
0.625400,-0.857109
0.625500,-1.078474
0.625600,-1.063868
0.625700,-1.031734
0.625800,-1.038550
0.625900,-1.121968
0.626000,-1.230054
0.626100,-1.293023
0.626200,-1.289777
0.626300,-1.232975
0.626400,-1.271276
0.626500,-1.330350
0.626600,-1.358913
0.626700,-1.283935
0.626800,-1.215448
0.626900,-1.155725
0.627000,-1.250178
0.627100,-1.408250
0.627200,-1.430970
0.627300,-1.399810
0.627400,-1.222588
0.627500,-1.224536
0.627600,-1.229729
0.627700,-1.191104
0.627800,-1.183314
0.627900,-1.159944
0.628000,-1.157997
0.628100,-1.146961
0.628200,-1.130407
0.628300,-1.185586
0.628400,-1.179419
0.628500,-1.190455
0.628600,-1.193701
0.628700,-1.163515
0.628800,-1.204087
0.628900,-1.188832
0.629000,-1.192402
0.629100,-1.251152
0.629200,-1.318665
0.629300,-1.409223
0.629400,-1.732183
0.629500,-1.941214
0.629600,-1.844813
0.629700,-1.519906
0.629800,-1.328402
0.629900,-1.516985
0.630000,-1.919467
0.630100,-2.202828
0.630200,-2.265797
0.630300,-2.062933
0.630400,-1.885386
0.630500,-1.877271
0.630600,-2.064231
0.630700,-2.287220
0.630800,-2.399850
0.630900,-2.392060
0.631000,-2.355707
0.631100,-2.312862
0.631200,-2.325521
0.631300,-2.401473
0.631400,-2.449511
0.631500,-2.452108
0.631600,-2.460547
0.631700,-2.484891
0.631800,-2.557273
0.631900,-2.630629
0.632000,-2.673150
0.632100,-2.661465
0.632200,-2.734171
0.632300,-2.812071
0.632400,-2.846802
0.632500,-2.675097
0.632600,-2.477426
0.632700,-2.486189
0.632800,-2.769876
0.632900,-3.037008
0.633000,-3.114259
0.633100,-2.884454
0.633200,-2.561817
0.633300,-2.483268
0.633400,-2.670553
0.633500,-2.984750
0.633600,-3.096407
0.633700,-2.992865
0.633800,-2.766954
0.633900,-2.636796
0.634000,-2.646858
0.634100,-2.732548
