0.000100,-1.295295
0.000200,-1.258942
0.000300,-1.355343
0.000400,-1.445252
0.000500,-1.466350
0.000600,-1.459534
0.000700,-1.378388
0.000800,-1.393968
0.000900,-1.414741
0.001000,-1.397214
0.001100,-1.441682
0.001200,-1.420259
0.001300,-1.426426
0.001400,-1.418961
0.001500,-1.441357
0.001600,-1.468622
0.001700,-1.462779
0.001800,-1.491667
0.001900,-1.482904
0.002000,-1.494588
0.002100,-1.531266
0.002200,-1.575085
0.002300,-1.627992
0.002400,-1.654283
0.002500,-1.702646
0.002600,-1.739648
0.002700,-1.987954
0.002800,-2.196012
0.002900,-2.199582
0.003000,-1.990551
0.003100,-1.828259
0.003200,-1.888632
0.003300,-2.139210
0.003400,-2.391736
0.003500,-2.405044
0.003600,-2.314160
0.003700,-2.159334
0.003800,-2.162580
0.003900,-2.278456
0.004000,-2.433931
0.004100,-2.489111
0.004200,-2.432633
0.004300,-2.448538
0.004400,-2.464442
0.004500,-2.454705
0.004600,-2.508586
0.004700,-2.521569
0.004800,-2.514753
0.004900,-2.520920
0.005000,-2.546562
0.005100,-2.593627
0.005200,-2.626410
0.005300,-2.616672
0.005400,-2.627383
0.005500,-2.625436
0.005600,-2.652376
0.005700,-2.652376
0.005800,-2.591679
0.005900,-2.450810
0.006000,-2.392709
0.006100,-2.535202
0.006200,-2.740338
0.006300,-2.823432
0.006400,-2.639717
0.006500,-2.406666
0.006600,-2.370313
0.006700,-2.482294
0.006800,-2.700415
0.006900,-2.775069
0.007000,-2.708854
0.007100,-2.602390
0.007200,-2.536175
0.007300,-2.571230
0.007400,-2.582915
0.007500,-2.571879
0.007600,-2.562142
0.007700,-2.563765
0.007800,-2.544290
0.007900,-2.503392
0.008000,-2.403745
0.008100,-2.303124
0.008200,-2.197635
0.008300,-2.182379
0.008400,-2.157062
0.008500,-2.100260
0.008600,-2.095067
0.008700,-1.919792
0.008800,-1.857796
0.008900,-1.617605
0.009000,-1.659476
0.009100,-1.642274
0.009200,-1.591314
0.009300,-1.523152
0.009400,-1.459858
0.009500,-1.316393
0.009600,-1.318016
0.009700,-1.277443
0.009800,-1.304708
0.009900,-1.281662
0.010000,-1.258942
0.010100,-1.281987
0.010200,-1.241414
0.010300,-1.207333
0.010400,-1.213500
0.010500,-1.177796
0.010600,-1.187858
0.010700,-1.202789
0.010800,-1.205710
0.010900,-1.159944
0.011000,-0.897033
0.011100,-0.737014
0.011200,-0.650675
0.011300,-0.967467
0.011400,-1.134627
0.011500,-1.120020
0.011600,-0.886646
0.011700,-0.684756
0.011800,-0.638665
0.011900,-0.717863
0.012000,-0.869443
0.012100,-0.966493
0.012200,-0.850942
0.012300,-0.700985
0.012400,-0.611076
0.012500,-0.610751
0.012600,-0.630875
0.012700,-0.694493
0.012800,-0.658789
0.012900,-0.653596
0.013000,-0.638016
0.013100,-0.657167
0.013200,-0.651324
0.013300,-0.625033
0.013400,-0.625357
0.013500,-0.683782
0.013600,-0.775964
0.013700,-0.780508
0.013800,-0.872040
0.013900,-0.710723
0.014000,-0.721758
0.014100,-0.685081
0.014200,-0.901901
0.014300,-1.098598
0.014400,-1.019075
0.014500,-0.866846
0.014600,-0.657816
0.014700,-0.719486
0.014800,-0.928517
0.014900,-1.126837
0.015000,-1.082694
0.015100,-0.927219
0.015200,-0.773691
0.015300,-0.851267
0.015400,-0.956756
0.015500,-1.056078
0.015600,-1.019075
0.015700,-1.050884
0.015800,-1.010961
0.015900,-1.058350
0.016000,-1.095028
0.016100,-1.150207
0.016200,-1.135276
0.016300,-1.095352
0.016400,-1.141118
0.016500,-1.182989
0.016600,-1.218369
0.016700,-1.171954
0.016800,-1.162541
0.016900,-1.153128
0.017000,-1.274846
0.017100,-1.357939
0.017200,-1.357939
0.017300,-1.319963
0.017400,-1.252450
0.017500,-1.280689
0.017600,-1.323209
0.017700,-1.307304
0.017800,-1.324183
0.017900,-1.338464
0.018000,-1.357290
0.018100,-1.375791
0.018200,-1.397863
0.018300,-1.428374
0.018400,-1.447524
0.018500,-1.457586
0.018600,-1.504326
0.018700,-1.527696
0.018800,-1.560154
0.018900,-1.579954
0.019000,-1.615982
0.019100,-1.663696
0.019200,-1.665643
0.019300,-1.826961
0.019400,-2.092145
0.019500,-2.227496
0.019600,-2.115515
0.019700,-1.915572
0.019800,-1.849033
0.019900,-1.951925
0.020000,-2.277482
0.020100,-2.477101
0.020200,-2.419974
0.020300,-2.298256
0.020400,-2.166150
0.020500,-2.237559
0.020600,-2.398227
0.020700,-2.558572
0.020800,-2.575774
0.020900,-2.556624
0.021000,-2.446915
0.021100,-2.464442
0.021200,-2.544614
0.021300,-2.545264
0.021400,-2.572853
0.021500,-2.544290
0.021600,-2.535526
0.021700,-2.580968
0.021800,-2.655297
0.021900,-2.638419
0.022000,-2.618620
0.022100,-2.628032
0.022200,-2.635822
0.022300,-2.716319
0.022400,-2.716319
0.022500,-2.609856
0.022600,-2.516051
0.022700,-2.571879
0.022800,-2.735470
0.022900,-2.894840
0.023000,-2.933466
0.023100,-2.765981
0.023200,-2.601741
0.023300,-2.630305
0.023400,-2.771498
0.023500,-2.931843
0.023600,-3.003251
0.023700,-2.913666
0.023800,-2.793246
0.023900,-2.725732
0.024000,-2.738066
0.024100,-2.807852
0.024200,-2.803632
0.024300,-2.777990
0.024400,-2.733847
0.024500,-2.704959
0.024600,-2.666982
0.024700,-2.592653
0.024800,-2.484567
0.024900,-2.396604
0.025000,-2.342399
0.025100,-2.327793
0.025200,-2.317406
0.025300,-2.241454
0.025400,-2.082408
0.025500,-1.941539
0.025600,-1.779572
0.025700,-1.806188
0.025800,-1.754904
0.025900,-1.691610
0.026000,-1.567295
0.026100,-1.498483
0.026200,-1.385529
0.026300,-1.358588
0.026400,-1.335868
0.026500,-1.306331
0.026600,-1.304059
0.026700,-1.310875
0.026800,-1.292374
0.026900,-1.259591
0.027000,-1.197920
0.027100,-1.246932
0.027200,-1.203763
0.027300,-1.294646
0.027400,-1.308927
0.027500,-1.252775
0.027600,-1.191104
0.027700,-0.885997
0.027800,-0.776613
0.027900,-0.671448
0.028000,-1.160593
0.028100,-1.226483
0.028200,-1.120020
0.028300,-0.915858
0.028400,-0.692546
0.028500,-0.722083
0.028600,-0.790245
0.028700,-1.014856
0.028800,-0.935333
0.028900,-0.866197
0.029000,-0.680212
0.029100,-0.714942
0.029200,-0.675343
0.029300,-0.710723
0.029400,-0.726302
0.029500,-0.685081
0.029600,-0.656842
0.029700,-0.620489
0.029800,-0.634770
0.029900,-0.632823
0.030000,-0.606207
0.030100,-0.674369
0.030200,-0.743830
0.030300,-0.742532
0.030400,-0.840555
0.030500,-0.774016
0.030600,-0.687677
0.030700,-0.688651
0.030800,-0.702933
0.030900,-0.984994
0.031000,-0.980775
0.031100,-1.006417
0.031200,-0.788298
0.031300,-0.736365
0.031400,-0.801930
0.031500,-1.036603
0.031600,-1.145013
0.031700,-1.100870
0.031800,-0.977529
0.031900,-0.885348
0.032000,-0.912613
0.032100,-1.016154
0.032200,-1.072307
0.032300,-1.032383
0.032400,-1.078474
0.032500,-1.038875
0.032600,-1.115801
0.032700,-1.158646
0.032800,-1.156049
0.032900,-1.119047
0.033000,-1.118722
0.033100,-1.176822
0.033200,-1.218369
0.033300,-1.217071
0.033400,-1.189806
0.033500,-1.183314
0.033600,-1.220316
0.033700,-1.356316
0.033800,-1.381309
0.033900,-1.380335
0.034000,-1.393643
0.034100,-1.338789
0.034200,-1.376765
0.034300,-1.372221
0.034400,-1.368651
0.034500,-1.384880
0.034600,-1.377090
0.034700,-1.386503
0.034800,-1.412145
0.034900,-1.428698
0.035000,-1.419935
0.035100,-1.454340
0.035200,-1.469596
0.035300,-1.485500
0.035400,-1.485500
0.035500,-1.505949
0.035600,-1.541328
0.035700,-1.580927
0.035800,-1.644870
0.035900,-1.689663
0.036000,-1.878245
0.036100,-2.146351
0.036200,-2.173291
0.036300,-2.041186
0.036400,-1.856823
0.036500,-1.837023
0.036600,-2.080460
0.036700,-2.328766
0.036800,-2.476776
0.036900,-2.379077
0.037000,-2.263850
0.037100,-2.214513
0.037200,-2.318704
0.037300,-2.502419
0.037400,-2.598495
0.037500,-2.598171
0.037600,-2.569283
0.037700,-2.583564
0.037800,-2.609531
0.037900,-2.664386
0.038000,-2.680290
0.038100,-2.705283
0.038200,-2.716644
0.038300,-2.762086
0.038400,-2.799737
0.038500,-2.836091
0.038600,-2.819861
0.038700,-2.826029
0.038800,-2.841609
0.038900,-2.863356
0.039000,-2.876664
0.039100,-2.811422
0.039200,-2.655622
0.039300,-2.560519
0.039400,-2.697169
0.039500,-2.872444
0.039600,-3.005848
0.039700,-2.911070
0.039800,-2.748778
0.039900,-2.648806
0.040000,-2.683536
0.040100,-2.848749
0.040200,-2.999032
0.040300,-2.996435
0.040400,-2.916588
0.040500,-2.818563
0.040600,-2.824406
0.040700,-2.868874
0.040800,-2.888024
0.040900,-2.831547
0.041000,-2.807527
0.041100,-2.786429
0.041200,-2.760787
0.041300,-2.688405
0.041400,-2.601092
0.041500,-2.455354
0.041600,-2.383946
0.041700,-2.349864
0.041800,-2.333635
0.041900,-2.312213
0.042000,-2.156737
0.042100,-2.012622
0.042200,-1.823066
0.042300,-1.784441
0.042400,-1.775028
0.042500,-1.700049
0.042600,-1.627343
0.042700,-1.508870
0.042800,-1.411495
0.042900,-1.357939
0.043000,-1.331973
0.043100,-1.308278
0.043200,-1.297892
0.043300,-1.304383
0.043400,-1.296593
0.043500,-1.311849
0.043600,-1.205386
0.043700,-1.268030
0.043800,-1.170980
0.043900,-1.209605
0.044000,-1.203438
0.044100,-1.259915
0.044200,-1.238493
0.044300,-1.082044
0.044400,-0.871391
0.044500,-0.694169
0.044600,-0.877882
0.044700,-1.170655
0.044800,-1.149233
0.044900,-1.097949
0.045000,-0.733119
0.045100,-0.746427
0.045200,-0.730197
0.045300,-0.991811
0.045400,-1.040498
0.045500,-0.946044
0.045600,-0.777262
0.045700,-0.642885
0.045800,-0.695467
0.045900,-0.717863
0.046000,-0.757787
0.046100,-0.761682
0.046200,-0.694818
0.046300,-0.673071
0.046400,-0.677291
0.046500,-0.700985
0.046600,-0.692221
0.046700,-0.689625
0.046800,-0.762980
0.046900,-0.901252
0.047000,-0.900928
0.047100,-0.943448
0.047200,-0.883076
0.047300,-0.801281
0.047400,-0.838283
0.047500,-0.882102
0.047600,-1.194025
0.047700,-1.177472
0.047800,-1.126512
0.047900,-0.853539
0.048000,-0.910340
0.048100,-1.042770
0.048200,-1.297892
0.048300,-1.328078
0.048400,-1.231677
0.048500,-1.055753
0.048600,-1.016803
0.048700,-1.120670
0.048800,-1.238818
0.048900,-1.235247
0.049000,-1.161567
0.049100,-1.165787
0.049200,-1.156049
0.049300,-1.248230
0.049400,-1.283610
0.049500,-1.302760
0.049600,-1.248555
0.049700,-1.242388
0.049800,-1.271276
0.049900,-1.282312
0.050000,-1.251476
0.050100,-1.229405
0.050200,-1.210579
0.050300,-1.266732
0.050400,-1.382608
0.050500,-1.391047
0.050600,-1.394617
0.050700,-1.252450
0.050800,-1.296593
0.050900,-1.324832
0.051000,-1.316393
0.051100,-1.319639
0.051200,-1.306006
0.051300,-1.323858
0.051400,-1.323858
0.051500,-1.336841
0.051600,-1.364431
0.051700,-1.340736
0.051800,-1.385204
0.051900,-1.364756
0.052000,-1.408574
0.052100,-1.393968
0.052200,-1.442980
0.052300,-1.445577
0.052400,-1.498159
0.052500,-1.530293
0.052600,-1.562751
0.052700,-1.796775
0.052800,-2.064556
0.052900,-2.036642
0.053000,-1.832804
0.053100,-1.659476
0.053200,-1.776002
0.053300,-2.038265
0.053400,-2.311888
0.053500,-2.347268
0.053600,-2.250866
0.053700,-2.097663
0.053800,-2.147649
0.053900,-2.317081
0.054000,-2.507937
0.054100,-2.578371
0.054200,-2.516376
0.054300,-2.480672
0.054400,-2.510858
0.054500,-2.572529
0.054600,-2.654648
0.054700,-2.660815
0.054800,-2.688080
0.054900,-2.680940
0.055000,-2.724758
0.055100,-2.753322
0.055200,-2.846802
0.055300,-2.851995
0.055400,-2.834143
0.055500,-2.885103
0.055600,-2.931843
0.055700,-2.944177
0.055800,-2.856215
0.055900,-2.721188
0.056000,-2.712100
0.056100,-2.842582
0.056200,-3.025972
0.056300,-3.088617
0.056400,-2.958459
0.056500,-2.752673
0.056600,-2.678343
0.056700,-2.768577
0.056800,-2.965924
0.056900,-3.046097
0.057000,-3.023700
0.057100,-2.852644
0.057200,-2.733198
0.057300,-2.728004
0.057400,-2.752348
0.057500,-2.776692
0.057600,-2.741312
0.057700,-2.718267
0.057800,-2.685808
0.057900,-2.637445
0.058000,-2.557273
0.058100,-2.456652
0.058200,-2.234313
0.058300,-2.152518
0.058400,-2.142780
0.058500,-2.132069
0.058600,-2.095391
0.058700,-1.943486
0.058800,-1.892202
0.058900,-1.835076
0.059000,-1.681223
0.059100,-1.664345
0.059200,-1.615658
0.059300,-1.528020
0.059400,-1.438436
0.059500,-1.312822
0.059600,-1.275171
0.059700,-1.210254
0.059800,-1.262188
0.059900,-1.280040
0.060000,-1.257319
0.060100,-1.236870
0.060200,-1.204087
0.060300,-1.181367
0.060400,-1.160918
0.060500,-1.188507
0.060600,-1.218693
0.060700,-1.207333
0.060800,-1.284584
0.060900,-1.156698
0.061000,-1.093405
0.061100,-0.723706
0.061200,-0.697090
0.061300,-0.867496
0.061400,-1.183314
0.061500,-1.114827
0.061600,-0.944746
0.061700,-0.747725
0.061800,-0.719162
0.061900,-0.747725
0.062000,-0.946694
0.062100,-1.032059
0.062200,-0.939877
0.062300,-0.827247
0.062400,-0.768823
0.062500,-0.792517
0.062600,-0.785701
0.062700,-0.854188
0.062800,-0.814264
0.062900,-0.822703
0.063000,-0.815238
0.063100,-0.841204
0.063200,-0.845099
0.063300,-0.877882
0.063400,-0.875610
0.063500,-0.994407
0.063600,-1.017777
0.063700,-1.089185
0.063800,-1.067763
0.063900,-1.018751
0.064000,-0.954808
0.064100,-0.961300
0.064200,-1.142741
0.064300,-1.359887
0.064400,-1.321586
0.064500,-1.205061
0.064600,-0.971037
0.064700,-1.056727
0.064800,-1.233949
0.064900,-1.466674
0.065000,-1.471219
0.065100,-1.339438
0.065200,-1.174875
0.065300,-1.189157
0.065400,-1.305032
0.065500,-1.412469
0.065600,-1.405004
0.065700,-1.407925
0.065800,-1.371572
0.065900,-1.397863
0.066000,-1.461481
0.066100,-1.499457
0.066200,-1.512765
0.066300,-1.472517
0.066400,-1.499782
0.066500,-1.525099
0.066600,-1.534837
0.066700,-1.502703
0.066800,-1.502703
0.066900,-1.469271
0.067000,-1.568593
0.067100,-1.635782
0.067200,-1.606245
0.067300,-1.592937
0.067400,-1.446875
0.067500,-1.492316
0.067600,-1.487772
0.067700,-1.467648
0.067800,-1.455639
0.067900,-1.445901
0.068000,-1.418312
0.068100,-1.403705
0.068200,-1.416689
0.068300,-1.428698
0.068400,-1.412794
0.068500,-1.426426
0.068600,-1.380335
0.068700,-1.390398
0.068800,-1.394942
0.068900,-1.434865
0.069000,-1.420908
0.069100,-1.481930
0.069200,-1.507572
0.069300,-1.584498
0.069400,-1.861691
0.069500,-1.953224
0.069600,-1.877271
0.069700,-1.603324
0.069800,-1.580278
0.069900,-1.744517
0.070000,-1.998990
0.070100,-2.178484
0.070200,-2.133043
0.070300,-2.014895
0.070400,-1.854875
0.070500,-1.947706
0.070600,-2.109348
0.070700,-2.243726
0.070800,-2.279105
0.070900,-2.220356
0.071000,-2.200232
0.071100,-2.199907
0.071200,-2.260929
0.071300,-2.300203
0.071400,-2.311564
0.071500,-2.313511
0.071600,-2.306370
0.071700,-2.339802
0.071800,-2.435879
0.071900,-2.419001
0.072000,-2.398552
0.072100,-2.393034
0.072200,-2.436528
0.072300,-2.493655
0.072400,-2.524815
0.072500,-2.394332
0.072600,-2.295984
0.072700,-2.351487
0.072800,-2.524166
0.072900,-2.731250
0.073000,-2.750725
0.073100,-2.594276
0.073200,-2.449836
0.073300,-2.453731
0.073400,-2.596223
0.073500,-2.837064
0.073600,-2.925027
0.073700,-2.862057
0.073800,-2.778315
0.073900,-2.733198
0.074000,-2.780911
0.074100,-2.843881
0.074200,-2.865303
0.074300,-2.878287
0.074400,-2.867251
0.074500,-2.837714
0.074600,-2.809475
0.074700,-2.730276
0.074800,-2.637770
0.074900,-2.545913
0.075000,-2.524490
0.075100,-2.506314
0.075200,-2.509884
0.075300,-2.429712
0.075400,-2.275535
0.075500,-2.244699
0.075600,-2.011000
0.075700,-2.027553
0.075800,-1.993148
0.075900,-1.926608
0.076000,-1.823715
0.076100,-1.759123
0.076200,-1.618579
0.076300,-1.598130
0.076400,-1.567944
0.076500,-1.571190
0.076600,-1.570865
0.076700,-1.519581
0.076800,-1.540679
0.076900,-1.438111
0.077000,-1.436164
0.077100,-1.388450
0.077200,-1.354693
0.077300,-1.469596
0.077400,-1.392670
0.077500,-1.355667
0.077600,-1.232975
0.077700,-0.985643
0.077800,-0.875610
0.077900,-0.745128
0.078000,-1.259915
0.078100,-1.200517
0.078200,-1.128784
0.078300,-0.822379
0.078400,-0.688651
0.078500,-0.688002
0.078600,-0.833739
0.078700,-0.996030
0.078800,-0.943772
0.078900,-0.776288
0.079000,-0.666904
0.079100,-0.607830
0.079200,-0.659439
0.079300,-0.715591
0.079400,-0.717539
0.079500,-0.656193
0.079600,-0.615945
0.079700,-0.612699
0.079800,-0.650675
0.079900,-0.668527
0.080000,-0.649701
0.080100,-0.729873
0.080200,-0.731171
0.080300,-0.849319
0.080400,-0.863276
0.080500,-0.844126
0.080600,-0.763954
0.080700,-0.731171
0.080800,-0.785376
0.080900,-0.980126
0.081000,-1.118398
0.081100,-1.005768
0.081200,-0.844450
0.081300,-0.664956
0.081400,-0.794465
0.081500,-0.985319
0.081600,-1.158970
0.081700,-1.084966
0.081800,-0.953834
0.081900,-0.815887
0.082000,-0.880479
0.082100,-0.991161
0.082200,-1.094054
0.082300,-1.102493
0.082400,-1.143390
0.082500,-1.086913
0.082600,-1.186884
0.082700,-1.223562
0.082800,-1.329376
0.082900,-1.315744
0.083000,-1.314445
0.083100,-1.360861
0.083200,-1.381958
0.083300,-1.410846
0.083400,-1.374818
0.083500,-1.373519
0.083600,-1.400784
0.083700,-1.523152
0.083800,-1.580278
0.083900,-1.579305
0.084000,-1.462779
0.084100,-1.480307
0.084200,-1.533538
0.084300,-1.538407
0.084400,-1.521853
0.084500,-1.527371
0.084600,-1.524775
0.084700,-1.519581
0.084800,-1.536135
0.084900,-1.553338
0.085000,-1.556259
0.085100,-1.572488
0.085200,-1.588068
0.085300,-1.604947
0.085400,-1.620527
0.085500,-1.651037
0.085600,-1.641624
0.085700,-1.683496
0.085800,-1.720173
0.085900,-1.791257
0.086000,-1.953548
0.086100,-2.250542
0.086200,-2.291764
0.086300,-2.157711
0.086400,-1.906808
0.086500,-1.879868
0.086600,-2.075267
0.086700,-2.411860
0.086800,-2.534877
0.086900,-2.448862
0.087000,-2.266446
0.087100,-2.194714
0.087200,-2.259630
0.087300,-2.455029
0.087400,-2.544290
0.087500,-2.551431
0.087600,-2.489111
0.087700,-2.465091
0.087800,-2.508586
0.087900,-2.506963
0.088000,-2.538447
0.088100,-2.512805
0.088200,-2.488137
0.088300,-2.524490
0.088400,-2.558247
0.088500,-2.604662
0.088600,-2.592004
0.088700,-2.539097
0.088800,-2.487488
0.088900,-2.518648
0.089000,-2.545913
0.089100,-2.490409
0.089200,-2.344346
0.089300,-2.261253
0.089400,-2.355058
0.089500,-2.521244
0.089600,-2.647183
0.089700,-2.585512
0.089800,-2.414456
0.089900,-2.271640
0.090000,-2.292738
0.090100,-2.469960
0.090200,-2.659192
0.090300,-2.696520
0.090400,-2.584214
0.090500,-2.505989
0.090600,-2.489760
0.090700,-2.484242
0.090800,-2.542992
0.090900,-2.560194
0.091000,-2.552729
0.091100,-2.528061
0.091200,-2.481970
0.091300,-2.435230
0.091400,-2.321950
0.091500,-2.206723
0.091600,-2.134341
0.091700,-2.091821
0.091800,-2.079487
0.091900,-2.063907
0.092000,-1.918169
0.092100,-1.769510
0.092200,-1.704593
0.092300,-1.504326
0.092400,-1.508870
0.092500,-1.448822
0.092600,-1.390722
0.092700,-1.284584
0.092800,-1.218044
0.092900,-1.129758
0.093000,-1.117748
0.093100,-1.077825
0.093200,-1.079772
0.093300,-1.068737
0.093400,-1.090159
0.093500,-1.073605
0.093600,-1.006741
0.093700,-1.006417
0.093800,-0.954484
0.093900,-0.984345
0.094000,-0.964221
0.094100,-1.053481
0.094200,-0.924622
0.094300,-0.883400
0.094400,-0.633797
0.094500,-0.495525
0.094600,-0.580241
0.094700,-0.865873
0.094800,-1.017777
0.094900,-0.793491
0.095000,-0.624708
0.095100,-0.507210
0.095200,-0.545186
0.095300,-0.702283
0.095400,-0.788622
0.095500,-0.805825
0.095600,-0.605558
0.095700,-0.553949
0.095800,-0.550054
0.095900,-0.614971
0.096000,-0.686703
0.096100,-0.619190
0.096200,-0.663009
0.096300,-0.669825
0.096400,-0.690274
0.096500,-0.719486
0.096600,-0.743505
0.096700,-0.737663
0.096800,-0.837634
0.096900,-0.842827
0.097000,-0.899954
0.097100,-0.918780
0.097200,-0.889567
0.097300,-0.820756
0.097400,-0.867496
0.097500,-0.939228
0.097600,-1.173901
0.097700,-1.121643
0.097800,-1.073605
0.097900,-0.817185
0.098000,-0.872689
0.098100,-0.972011
0.098200,-1.207009
0.098300,-1.253424
0.098400,-1.191429
0.098500,-1.030111
0.098600,-0.998627
0.098700,-1.086589
0.098800,-1.232975
0.098900,-1.264784
0.099000,-1.240765
0.099100,-1.265433
0.099200,-1.271925
0.099300,-1.347553
0.099400,-1.383906
0.099500,-1.449472
0.099600,-1.398837
0.099700,-1.432918
0.099800,-1.484202
0.099900,-1.509195
0.100000,-1.472517
0.100100,-1.411495
0.100200,-1.379686
0.100300,-1.449147
0.100400,-1.545873
0.100500,-1.572488
0.100600,-1.526398
0.100700,-1.360861
0.100800,-1.401433
0.100900,-1.432269
0.101000,-1.397863
0.101100,-1.375791
0.101200,-1.371247
0.101300,-1.357290
0.101400,-1.350474
0.101500,-1.358913
0.101600,-1.339114
0.101700,-1.325156
0.101800,-1.335543
0.101900,-1.306980
0.102000,-1.324183
0.102100,-1.299190
0.102200,-1.320288
0.102300,-1.342684
0.102400,-1.368326
0.102500,-1.396565
0.102600,-1.465376
0.102700,-1.664670
0.102800,-1.957443
0.102900,-1.941863
0.103000,-1.752632
0.103100,-1.542302
0.103200,-1.641300
0.103300,-1.914274
0.103400,-2.184327
0.103500,-2.267745
0.103600,-2.143754
0.103700,-1.989577
0.103800,-1.960365
0.103900,-2.133043
0.104000,-2.297606
0.104100,-2.388490
0.104200,-2.352461
0.104300,-2.321626
0.104400,-2.353759
0.104500,-2.416404
0.104600,-2.444967
0.104700,-2.459249
0.104800,-2.481645
0.104900,-2.492357
0.105000,-2.550132
0.105100,-2.636796
0.105200,-2.643937
0.105300,-2.666333
0.105400,-2.631603
0.105500,-2.663737
0.105600,-2.736768
0.105700,-2.786754
0.105800,-2.715670
0.105900,-2.539746
0.106000,-2.548834
0.106100,-2.629006
0.106200,-2.807852
0.106300,-2.907824
0.106400,-2.796816
0.106500,-2.591030
0.106600,-2.502419
0.106700,-2.588758
0.106800,-2.778639
0.106900,-2.890296
0.107000,-2.868224
0.107100,-2.720539
0.107200,-2.621541
0.107300,-2.640691
0.107400,-2.701064
0.107500,-2.734821
0.107600,-2.728653
0.107700,-2.670553
0.107800,-2.655622
0.107900,-2.622839
0.108000,-2.605636
0.108100,-2.489111
0.108200,-2.384919
0.108300,-2.326819
0.108400,-2.322599
0.108500,-2.309616
0.108600,-2.291764
0.108700,-2.123630
0.108800,-2.047677
0.108900,-1.847734
0.109000,-1.818847
0.109100,-1.818847
0.109200,-1.754255
0.109300,-1.664670
0.109400,-1.574111
0.109500,-1.439734
0.109600,-1.409548
0.109700,-1.380335
0.109800,-1.399161
0.109900,-1.407276
0.110000,-1.372870
0.110100,-1.433567
0.110200,-1.353395
0.110300,-1.400135
0.110400,-1.282636
0.110500,-1.344956
0.110600,-1.301137
0.110700,-1.387152
0.110800,-1.360211
0.110900,-1.298865
0.111000,-1.164813
0.111100,-0.913911
0.111200,-0.882751
0.111300,-1.043095
0.111400,-1.336517
0.111500,-1.282312
0.111600,-1.102168
0.111700,-0.883076
0.111800,-0.840231
0.111900,-0.968116
0.112000,-1.102493
0.112100,-1.126188
0.112200,-1.036603
0.112300,-0.894761
0.112400,-0.788298
0.112500,-0.846398
0.112600,-0.875286
0.112700,-0.928192
0.112800,-0.875610
0.112900,-0.872364
0.113000,-0.849968
0.113100,-0.879505
0.113200,-0.861004
0.113300,-0.852240
0.113400,-0.832116
0.113500,-0.911963
0.113600,-0.951562
0.113700,-0.956107
0.113800,-1.038226
0.113900,-0.933710
0.114000,-0.951238
0.114100,-0.852889
0.114200,-1.070035
0.114300,-1.258293
0.114400,-1.193051
0.114500,-1.078474
0.114600,-0.802255
0.114700,-0.861653
0.114800,-1.019400
0.114900,-1.285233
0.115000,-1.301787
0.115100,-1.196297
0.115200,-1.000250
0.115300,-1.007715
0.115400,-1.101195
0.115500,-1.258293
0.115600,-1.259266
0.115700,-1.232651
0.115800,-1.157997
0.115900,-1.178121
0.116000,-1.220641
0.116100,-1.291075
0.116200,-1.318016
0.116300,-1.262188
0.116400,-1.256345
0.116500,-1.270302
0.116600,-1.272574
0.116700,-1.234923
0.116800,-1.217720
0.116900,-1.202789
0.117000,-1.289128
0.117100,-1.353395
0.117200,-1.364106
0.117300,-1.297242
0.117400,-1.245309
0.117500,-1.299839
0.117600,-1.334894
0.117700,-1.324832
0.117800,-1.360861
0.117900,-1.369624
0.118000,-1.392020
0.118100,-1.431619
0.118200,-1.465376
0.118300,-1.484851
0.118400,-1.497185
0.118500,-1.521529
0.118600,-1.534512
0.118700,-1.573462
0.118800,-1.599429
0.118900,-1.640326
0.119000,-1.674732
0.119100,-1.714331
0.119200,-1.719524
0.119300,-1.819171
0.119400,-2.082408
0.119500,-2.278131
0.119600,-2.154465
0.119700,-1.980813
0.119800,-1.839620
0.119900,-2.022360
0.120000,-2.236260
0.120100,-2.457301
0.120200,-2.418351
0.120300,-2.298905
0.120400,-2.133367
0.120500,-2.184002
0.120600,-2.346619
0.120700,-2.523841
0.120800,-2.527087
0.120900,-2.464118
0.121000,-2.432958
0.121100,-2.433607
0.121200,-2.479698
0.121300,-2.549483
0.121400,-2.553378
0.121500,-2.548185
0.121600,-2.556624
0.121700,-2.568958
0.121800,-2.635173
0.121900,-2.654324
0.122000,-2.642963
0.122100,-2.625436
0.122200,-2.650429
0.122300,-2.709178
0.122400,-2.702687
0.122500,-2.586161
0.122600,-2.480022
0.122700,-2.524815
0.122800,-2.676720
0.122900,-2.844205
0.123000,-2.912368
0.123100,-2.759813
0.123200,-2.574801
0.123300,-2.528385
0.123400,-2.664386
0.123500,-2.878287
0.123600,-2.998058
0.123700,-2.944177
0.123800,-2.784482
0.123900,-2.724109
0.124000,-2.734496
0.124100,-2.790324
0.124200,-2.819537
0.124300,-2.800386
0.124400,-2.763708
0.124500,-2.705283
0.124600,-2.654324
0.124700,-2.578696
0.124800,-2.448862
0.124900,-2.359926
0.125000,-2.304098
0.125100,-2.264499
0.125200,-2.225549
0.125300,-2.166475
0.125400,-1.953548
0.125500,-1.897071
0.125600,-1.679601
0.125700,-1.698426
0.125800,-1.638379
0.125900,-1.580927
0.126000,-1.479009
0.126100,-1.379362
0.126200,-1.217395
0.126300,-1.163515
0.126400,-1.119047
0.126500,-1.143066
0.126600,-1.146961
0.126700,-1.104765
0.126800,-1.161892
0.126900,-1.052832
0.127000,-1.070035
0.127100,-0.965519
0.127200,-1.028164
0.127300,-1.013558
0.127400,-1.063543
0.127500,-1.110932
0.127600,-0.960975
0.127700,-0.809395
0.127800,-0.551028
0.127900,-0.588680
0.128000,-0.896059
0.128100,-1.070359
0.128200,-0.996679
0.128300,-0.693520
0.128400,-0.651973
0.128500,-0.565310
0.128600,-0.758436
0.128700,-0.846722
0.128800,-0.966493
0.128900,-0.820107
0.129000,-0.670474
0.129100,-0.598093
0.129200,-0.614646
0.129300,-0.643534
0.129400,-0.645806
0.129500,-0.699038
0.129600,-0.622436
0.129700,-0.601988
0.129800,-0.556222
0.129900,-0.550054
0.130000,-0.517921
0.130100,-0.485138
0.130200,-0.626007
0.130300,-0.623085
0.130400,-0.663334
0.130500,-0.606207
0.130600,-0.481243
0.130700,-0.502990
0.130800,-0.498446
0.130900,-0.713644
0.131000,-0.841529
0.131100,-0.778236
0.131200,-0.592899
0.131300,-0.466312
0.131400,-0.534150
0.131500,-0.779858
0.131600,-0.956756
0.131700,-0.912288
0.131800,-0.773691
0.131900,-0.672422
0.132000,-0.738312
0.132100,-0.881128
0.132200,-1.008040
0.132300,-0.974283
0.132400,-1.001873
0.132500,-0.961300
0.132600,-1.082694
0.132700,-1.147935
0.132800,-1.214149
0.132900,-1.218044
0.133000,-1.226159
0.133100,-1.269977
0.133200,-1.322235
0.133300,-1.308927
0.133400,-1.293347
0.133500,-1.285233
0.133600,-1.308927
0.133700,-1.434865
0.133800,-1.491992
0.133900,-1.417987
0.134000,-1.366703
0.134100,-1.326130
0.134200,-1.388775
0.134300,-1.372221
0.134400,-1.370598
0.134500,-1.370273
0.134600,-1.363457
0.134700,-1.332622
0.134800,-1.338789
0.134900,-1.332622
0.135000,-1.372870
0.135100,-1.352746
0.135200,-1.370273
0.135300,-1.368001
0.135400,-1.336841
0.135500,-1.327753
0.135600,-1.334245
0.135700,-1.376765
0.135800,-1.394617
0.135900,-1.450445
0.136000,-1.618904
0.136100,-1.852279
0.136200,-1.884412
0.136300,-1.733481
0.136400,-1.587095
0.136500,-1.545548
0.136600,-1.751658
0.136700,-2.048327
0.136800,-2.144079
0.136900,-2.062933
0.137000,-1.910054
0.137100,-1.874026
0.137200,-1.968155
0.137300,-2.175239
0.137400,-2.320003
0.137500,-2.355382
0.137600,-2.280728
0.137700,-2.274886
0.137800,-2.339153
0.137900,-2.371936
0.138000,-2.409912
0.138100,-2.438476
0.138200,-2.436204
0.138300,-2.480996
0.138400,-2.556624
0.138500,-2.592004
0.138600,-2.618295
0.138700,-2.613102
0.138800,-2.629006
0.138900,-2.717942
0.139000,-2.775393
0.139100,-2.776367
0.139200,-2.651727
0.139300,-2.530657
0.139400,-2.604662
0.139500,-2.811422
0.139600,-2.948072
0.139700,-2.928922
0.139800,-2.697818
0.139900,-2.511182
0.140000,-2.517674
0.140100,-2.719240
0.140200,-2.844205
0.140300,-2.845828
0.140400,-2.704634
0.140500,-2.559221
0.140600,-2.494953
0.140700,-2.475803
0.140800,-2.466714
0.140900,-2.458600
0.141000,-2.407316
0.141100,-2.345969
0.141200,-2.273263
0.141300,-2.207048
0.141400,-2.133692
0.141500,-2.019439
0.141600,-1.960040
0.141700,-1.955820
0.141800,-1.963935
0.141900,-1.989902
0.142000,-1.883763
0.142100,-1.766589
0.142200,-1.720823
0.142300,-1.568593
0.142400,-1.645519
0.142500,-1.616632
0.142600,-1.588393
0.142700,-1.494264
0.142800,-1.433242
0.142900,-1.380985
0.143000,-1.405004
0.143100,-1.458235
0.143200,-1.486149
0.143300,-1.500106
0.143400,-1.513414
0.143500,-1.540355
0.143600,-1.465701
0.143700,-1.442655
0.143800,-1.407600
0.143900,-1.419935
0.144000,-1.430646
0.144100,-1.413118
0.144200,-1.301462
0.144300,-1.210904
0.144400,-0.864574
0.144500,-0.741233
0.144600,-0.797386
0.144700,-1.147285
0.144800,-1.148584
0.144900,-0.973634
0.145000,-0.777586
0.145100,-0.539343
0.145200,-0.633147
0.145300,-0.697090
0.145400,-0.860355
0.145500,-0.768498
0.145600,-0.618866
0.145700,-0.496498
0.145800,-0.419248
0.145900,-0.507210
0.146000,-0.560766
0.146100,-0.559467
0.146200,-0.521491
0.146300,-0.495200
0.146400,-0.480594
0.146500,-0.489358
0.146600,-0.478646
0.146700,-0.518570
0.146800,-0.642236
0.146900,-0.618217
0.147000,-0.655219
0.147100,-0.710723
0.147200,-0.705529
0.147300,-0.631849
0.147400,-0.659114
0.147500,-0.741558
0.147600,-1.037577
0.147700,-1.129758
0.147800,-1.016479
0.147900,-0.824326
0.148000,-0.820431
0.148100,-0.955782
0.148200,-1.262188
0.148300,-1.344956
0.148400,-1.270302
0.148500,-1.094054
0.148600,-1.050560
0.148700,-1.142092
0.148800,-1.267381
0.148900,-1.326779
0.149000,-1.249204
0.149100,-1.243686
0.149200,-1.207009
0.149300,-1.280364
0.149400,-1.295619
0.149500,-1.336841
0.149600,-1.239467
0.149700,-1.230054
0.149800,-1.265433
0.149900,-1.296269
0.150000,-1.275171
0.150100,-1.244335
0.150200,-1.230054
0.150300,-1.278741
0.150400,-1.352097
0.150500,-1.428698
0.150600,-1.458560
0.150700,-1.506598
0.150800,-1.440383
0.150900,-1.499457
0.151000,-1.529643
0.151100,-1.540679
0.151200,-1.538407
0.151300,-1.561777
0.151400,-1.568918
0.151500,-1.612737
0.151600,-1.604947
0.151700,-1.646169
0.151800,-1.644546
0.151900,-1.693558
0.152000,-1.709787
0.152100,-1.726990
0.152200,-1.718550
0.152300,-1.710760
0.152400,-1.745815
0.152500,-1.731209
0.152600,-1.805863
0.152700,-1.977568
0.152800,-2.208346
0.152900,-2.170045
0.153000,-1.963286
0.153100,-1.825014
0.153200,-1.800021
0.153300,-2.074293
0.153400,-2.302800
0.153500,-2.423869
0.153600,-2.329091
0.153700,-2.176862
0.153800,-2.159983
0.153900,-2.246322
0.154000,-2.453406
0.154100,-2.522543
0.154200,-2.579994
0.154300,-2.464767
0.154400,-2.482619
0.154500,-2.505340
0.154600,-2.590381
0.154700,-2.609531
0.154800,-2.630954
0.154900,-2.642314
0.155000,-2.647507
0.155100,-2.710152
0.155200,-2.760463
0.155300,-2.741312
0.155400,-2.683861
0.155500,-2.714696
0.155600,-2.767279
0.155700,-2.739689
0.155800,-2.677369
0.155900,-2.428414
0.156000,-2.454056
0.156100,-2.534228
0.156200,-2.729303
0.156300,-2.788701
0.156400,-2.719565
0.156500,-2.515077
0.156600,-2.393359
0.156700,-2.472557
0.156800,-2.669579
0.156900,-2.824081
0.157000,-2.808501
0.157100,-2.717942
0.157200,-2.622839
0.157300,-2.601741
0.157400,-2.634200
0.157500,-2.694248
0.157600,-2.699116
0.157700,-2.692949
0.157800,-2.663087
0.157900,-2.616023
0.158000,-2.569283
0.158100,-2.434905
0.158200,-2.337855
0.158300,-2.259306
0.158400,-2.241129
0.158500,-2.236585
0.158600,-2.206723
0.158700,-2.012947
0.158800,-1.891553
0.158900,-1.680899
0.159000,-1.650064
0.159100,-1.593262
0.159200,-1.588393
0.159300,-1.491667
0.159400,-1.394617
0.159500,-1.264784
0.159600,-1.232001
0.159700,-1.185911
0.159800,-1.185262
0.159900,-1.175849
0.160000,-1.162541
0.160100,-1.183314
0.160200,-1.143390
0.160300,-1.108336
0.160400,-1.043419
0.160500,-1.112231
0.160600,-1.017777
0.160700,-1.187209
0.160800,-1.112880
0.160900,-1.147610
0.161000,-0.889892
0.161100,-0.734742
0.161200,-0.479945
0.161300,-0.762331
0.161400,-1.051534
0.161500,-1.019400
0.161600,-0.861978
0.161700,-0.636393
0.161800,-0.492279
0.161900,-0.541940
0.162000,-0.625033
0.162100,-0.781481
0.162200,-0.660737
0.162300,-0.627305
0.162400,-0.446513
0.162500,-0.474427
0.162600,-0.471181
0.162700,-0.488059
0.162800,-0.543563
0.162900,-0.486112
0.163000,-0.514350
0.163100,-0.523439
0.163200,-0.527983
0.163300,-0.536097
0.163400,-0.540642
0.163500,-0.631849
0.163600,-0.637367
0.163700,-0.737987
0.163800,-0.775964
0.163900,-0.714618
0.164000,-0.676966
0.164100,-0.703257
0.164200,-0.904823
0.164300,-1.166436
0.164400,-1.117748
0.164500,-0.960651
0.164600,-0.764603
0.164700,-0.768174
0.164800,-0.963247
0.164900,-1.209605
0.165000,-1.259266
0.165100,-1.115152
0.165200,-0.926570
0.165300,-0.924297
0.165400,-1.041147
0.165500,-1.174550
0.165600,-1.193701
0.165700,-1.193701
0.165800,-1.143715
0.165900,-1.152479
0.166000,-1.233949
0.166100,-1.310875
0.166200,-1.351448
0.166300,-1.318340
0.166400,-1.335868
0.166500,-1.369624
0.166600,-1.356316
0.166700,-1.381634
0.166800,-1.411820
0.166900,-1.416689
0.167000,-1.533863
0.167100,-1.623448
0.167200,-1.663696
0.167300,-1.672460
0.167400,-1.679276
0.167500,-1.596507
0.167600,-1.624422
0.167700,-1.613710
0.167800,-1.635782
0.167900,-1.615009
0.168000,-1.622799
0.168100,-1.606894
0.168200,-1.641949
0.168300,-1.623448
0.168400,-1.614359
0.168500,-1.641949
0.168600,-1.635782
0.168700,-1.635133
0.168800,-1.647791
0.168900,-1.656880
0.169000,-1.726340
0.169100,-1.710760
0.169200,-1.764641
0.169300,-1.806837
0.169400,-2.091821
0.169500,-2.250217
0.169600,-2.157062
0.169700,-1.923687
0.169800,-1.869481
0.169900,-1.923687
0.170000,-2.221329
0.170100,-2.446590
0.170200,-2.467688
0.170300,-2.344671
0.170400,-2.236585
0.170500,-2.299879
0.170600,-2.467364
0.170700,-2.673799
0.170800,-2.745532
0.170900,-2.755918
0.171000,-2.755269
0.171100,-2.737093
0.171200,-2.813370
0.171300,-2.910745
0.171400,-2.926974
0.171500,-3.000655
0.171600,-2.978259
0.171700,-2.980531
0.171800,-3.053887
0.171900,-3.121400
0.172000,-3.072713
0.172100,-3.069791
0.172200,-3.104197
0.172300,-3.123997
0.172400,-3.172684
0.172500,-3.064922
0.172600,-2.917561
0.172700,-2.899060
0.172800,-3.097056
0.172900,-3.252532
0.173000,-3.284017
0.173100,-3.100951
0.173200,-2.896788
0.173300,-2.806229
0.173400,-2.909447
0.173500,-3.133734
0.173600,-3.214556
0.173700,-3.162947
0.173800,-2.997409
0.173900,-2.924378
0.174000,-2.931194
0.174100,-2.955862
0.174200,-2.993839
0.174300,-2.957485
0.174400,-2.881857
0.174500,-2.830573
0.174600,-2.785780
0.174700,-2.704634
0.174800,-2.525139
0.174900,-2.409588
0.175000,-2.341750
0.175100,-2.282026
0.175200,-2.250542
0.175300,-2.154141
0.175400,-1.958417
0.175500,-1.851629
0.175600,-1.573787
0.175700,-1.590016
0.175800,-1.513739
0.175900,-1.472841
0.176000,-1.346254
0.176100,-1.284259
0.176200,-1.097624
0.176300,-1.070359
0.176400,-1.056727
0.176500,-1.070684
0.176600,-1.059324
0.176700,-1.064192
0.176800,-1.050884
0.176900,-1.007715
0.177000,-0.953510
0.177100,-0.999925
0.177200,-0.957080
0.177300,-1.055753
0.177400,-1.006092
0.177500,-1.120994
0.177600,-0.994083
0.177700,-0.843152
0.177800,-0.654894
0.177900,-0.662684
0.178000,-1.007715
0.178100,-1.189481
0.178200,-1.150531
0.178300,-0.951887
0.178400,-0.745453
0.178500,-0.761682
0.178600,-0.804202
0.178700,-1.015830
0.178800,-1.014531
0.178900,-0.951887
0.179000,-0.835362
0.179100,-0.722083
0.179200,-0.731496
0.179300,-0.743181
0.179400,-0.818159
0.179500,-0.798360
0.179600,-0.776937
0.179700,-0.771419
0.179800,-0.756489
0.179900,-0.774665
0.180000,-0.826274
0.180100,-0.876259
0.180200,-0.924622
0.180300,-0.949615
0.180400,-0.961300
0.180500,-0.951238
0.180600,-0.846398
0.180700,-0.807773
0.180800,-0.838283
0.180900,-1.090808
0.181000,-1.187534
0.181100,-1.078799
0.181200,-0.844775
0.181300,-0.752918
0.181400,-0.770770
0.181500,-0.982073
0.181600,-1.130732
0.181700,-1.113529
0.181800,-0.976231
0.181900,-0.821730
0.182000,-0.872364
0.182100,-0.931763
0.182200,-1.039524
0.182300,-0.998951
0.182400,-1.039849
0.182500,-0.991486
0.182600,-1.049911
0.182700,-1.060947
0.182800,-1.046990
0.182900,-1.024918
0.183000,-1.030760
0.183100,-1.066140
0.183200,-1.113529
0.183300,-1.117748
0.183400,-1.103791
0.183500,-1.120670
0.183600,-1.108660
0.183700,-1.216746
0.183800,-1.284908
0.183900,-1.276794
0.184000,-1.302760
0.184100,-1.268355
0.184200,-1.278092
0.184300,-1.291725
0.184400,-1.294646
0.184500,-1.287830
0.184600,-1.297892
0.184700,-1.313147
0.184800,-1.285233
0.184900,-1.268355
0.185000,-1.299190
0.185100,-1.304708
0.185200,-1.310875
0.185300,-1.294970
0.185400,-1.312498
0.185500,-1.285233
0.185600,-1.340087
0.185700,-1.335868
0.185800,-1.401758
0.185900,-1.393968
0.186000,-1.532240
0.186100,-1.821119
0.186200,-1.848059
0.186300,-1.742894
0.186400,-1.545548
0.186500,-1.566646
0.186600,-1.645195
0.186700,-1.915248
0.186800,-2.074618
0.186900,-2.023983
0.187000,-1.894799
0.187100,-1.806188
0.187200,-1.847410
0.187300,-1.956470
0.187400,-2.064231
0.187500,-2.096365
0.187600,-2.043458
0.187700,-2.043133
0.187800,-2.061310
0.187900,-2.059362
0.188000,-2.085005
0.188100,-2.083382
0.188200,-2.104155
0.188300,-2.106102
0.188400,-2.181406
0.188500,-2.261253
0.188600,-2.270341
0.188700,-2.260604
0.188800,-2.287869
0.188900,-2.375182
0.189000,-2.409912
0.189100,-2.370313
0.189200,-2.198933
0.189300,-2.133367
0.189400,-2.215487
0.189500,-2.469960
0.189600,-2.608557
0.189700,-2.571230
0.189800,-2.450485
0.189900,-2.276509
0.190000,-2.312537
0.190100,-2.473206
0.190200,-2.651727
0.190300,-2.732548
0.190400,-2.686133
0.190500,-2.585512
0.190600,-2.588433
0.190700,-2.634524
0.190800,-2.684510
0.190900,-2.677045
0.191000,-2.688405
0.191100,-2.687756
0.191200,-2.642639
0.191300,-2.618944
0.191400,-2.527736
0.191500,-2.417378
0.191600,-2.329416
0.191700,-2.339153
0.191800,-2.294361
0.191900,-2.277807
0.192000,-2.160632
0.192100,-2.003534
0.192200,-1.902264
0.192300,-1.718550
0.192400,-1.725367
0.192500,-1.654932
0.192600,-1.592612
0.192700,-1.451094
0.192800,-1.360536
0.192900,-1.255047
0.193000,-1.248555
0.193100,-1.245634
0.193200,-1.252450
0.193300,-1.203438
0.193400,-1.242063
0.193500,-1.219667
0.193600,-1.214474
0.193700,-1.147935
0.193800,-1.205061
0.193900,-1.179744
0.194000,-1.278741
0.194100,-1.247257
0.194200,-1.320612
0.194300,-1.133653
0.194400,-0.946694
0.194500,-0.734417
0.194600,-0.849319
0.194700,-1.166760
0.194800,-1.293023
0.194900,-1.123266
0.195000,-0.867820
0.195100,-0.787324
0.195200,-0.798035
0.195300,-0.872040
0.195400,-0.990512
0.195500,-0.957080
0.195600,-0.818484
0.195700,-0.713644
0.195800,-0.700660
0.195900,-0.781806
0.196000,-0.771744
0.196100,-0.847047
0.196200,-0.831142
0.196300,-0.840555
0.196400,-0.806799
0.196500,-0.879505
0.196600,-0.894111
0.196700,-0.935658
0.196800,-1.030760
0.196900,-1.048288
0.197000,-1.159295
0.197100,-1.160918
0.197200,-1.205386
0.197300,-1.125863
0.197400,-1.234598
0.197500,-1.282961
0.197600,-1.627667
0.197700,-1.615658
0.197800,-1.590989
0.197900,-1.311524
0.198000,-1.377414
0.198100,-1.435514
0.198200,-1.612087
0.198300,-1.644546
0.198400,-1.574111
0.198500,-1.413767
0.198600,-1.325481
0.198700,-1.324507
0.198800,-1.388775
0.198900,-1.432918
0.199000,-1.392020
0.199100,-1.351123
0.199200,-1.283610
0.199300,-1.348526
0.199400,-1.396889
0.199500,-1.462779
0.199600,-1.445252
0.199700,-1.454340
0.199800,-1.483228
0.199900,-1.502054
0.200000,-1.495887
0.200100,-1.434541
0.200200,-1.436488
0.200300,-1.504651
0.200400,-1.655906
0.200500,-1.713357
0.200600,-1.747114
0.200700,-1.792231
0.200800,-1.786388
0.200900,-1.775352
0.201000,-1.806512
0.201100,-1.832804
0.201200,-1.823715
0.201300,-1.838646
0.201400,-1.844164
0.201500,-1.837023
0.201600,-1.853901
0.201700,-1.870455
0.201800,-1.851305
0.201900,-1.855200
0.202000,-1.842216
0.202100,-1.815601
0.202200,-1.842541
0.202300,-1.843839
0.202400,-1.891878
0.202500,-1.908107
0.202600,-1.904536
0.202700,-2.109348
0.202800,-2.318380
0.202900,-2.282351
0.203000,-2.119086
0.203100,-1.940890
0.203200,-1.915248
0.203300,-2.080785
0.203400,-2.316757
0.203500,-2.348241
0.203600,-2.271964
0.203700,-2.114866
0.203800,-2.061635
0.203900,-2.177186
0.204000,-2.316757
0.204100,-2.405368
0.204200,-2.392385
0.204300,-2.307019
0.204400,-2.256709
0.204500,-2.300852
0.204600,-2.381024
0.204700,-2.434256
0.204800,-2.408289
0.204900,-2.386542
0.205000,-2.431010
0.205100,-2.523841
0.205200,-2.557598
0.205300,-2.536500
0.205400,-2.569932
0.205500,-2.667307
0.205600,-2.705608
0.205700,-2.737417
0.205800,-2.616023
0.205900,-2.471259
0.206000,-2.443994
0.206100,-2.571879
0.206200,-2.786105
0.206300,-2.814344
0.206400,-2.681589
0.206500,-2.505664
0.206600,-2.455029
0.206700,-2.532280
0.206800,-2.663087
0.206900,-2.761761
0.207000,-2.771174
0.207100,-2.753646
0.207200,-2.687431
0.207300,-2.638744
0.207400,-2.658868
0.207500,-2.713073
0.207600,-2.752673
0.207700,-2.775718
0.207800,-2.753322
0.207900,-2.691002
0.208000,-2.631927
0.208100,-2.549808
0.208200,-2.462495
0.208300,-2.406991
0.208400,-2.398227
0.208500,-2.362848
0.208600,-2.337530
0.208700,-2.189196
0.208800,-2.110647
0.208900,-1.945758
0.209000,-1.890255
0.209100,-1.877921
0.209200,-1.875973
0.209300,-1.815925
0.209400,-1.710436
0.209500,-1.556584
0.209600,-1.504326
0.209700,-1.475763
0.209800,-1.487448
0.209900,-1.456937
0.210000,-1.502378
0.210100,-1.444603
0.210200,-1.470569
0.210300,-1.362483
0.210400,-1.363782
0.210500,-1.341386
0.210600,-1.329051
0.210700,-1.445252
0.210800,-1.382608
0.210900,-1.395915
0.211000,-1.149233
0.211100,-1.043095
0.211200,-0.804851
0.211300,-1.093080
0.211400,-1.347228
0.211500,-1.322235
0.211600,-1.240441
0.211700,-0.989214
0.211800,-0.978827
0.211900,-0.980775
0.212000,-1.117424
0.212100,-1.206684
0.212200,-1.142092
0.212300,-1.093080
0.212400,-0.906770
0.212500,-0.922025
0.212600,-0.967142
0.212700,-0.993109
0.212800,-0.937930
0.212900,-0.896059
0.213000,-0.855486
0.213100,-0.852240
0.213200,-0.907095
0.213300,-0.901252
0.213400,-0.852889
0.213500,-0.861978
0.213600,-0.977529
0.213700,-1.041796
0.213800,-1.016154
0.213900,-0.991486
0.214000,-0.924947
0.214100,-0.982073
0.214200,-1.122942
0.214300,-1.299839
0.214400,-1.248555
0.214500,-1.115476
0.214600,-0.915858
0.214700,-1.006417
0.214800,-1.154751
0.214900,-1.316393
0.215000,-1.316393
0.215100,-1.265758
0.215200,-1.160269
0.215300,-1.127810
0.215400,-1.142417
0.215500,-1.228431
0.215600,-1.283935
0.215700,-1.340087
0.215800,-1.320612
0.215900,-1.325156
0.216000,-1.370923
0.216100,-1.458884
0.216200,-1.553663
0.216300,-1.527696
0.216400,-1.550417
0.216500,-1.613061
0.216600,-1.604622
0.216700,-1.614035
0.216800,-1.591314
0.216900,-1.593262
0.217000,-1.631887
0.217100,-1.730885
0.217200,-1.728613
0.217300,-1.711410
0.217400,-1.563400
0.217500,-1.601052
0.217600,-1.594884
0.217700,-1.582550
0.217800,-1.567944
0.217900,-1.578331
0.218000,-1.562426
0.218100,-1.568269
0.218200,-1.583849
0.218300,-1.583849
0.218400,-1.573787
0.218500,-1.602999
0.218600,-1.588393
0.218700,-1.637405
0.218800,-1.641949
0.218900,-1.685443
0.219000,-1.692259
0.219100,-1.716928
0.219200,-1.742245
0.219300,-1.804565
0.219400,-2.069425
0.219500,-2.209644
0.219600,-2.213864
0.219700,-2.043133
0.219800,-1.893501
0.219900,-1.956470
0.220000,-2.184002
0.220100,-2.416079
0.220200,-2.385244
0.220300,-2.285272
0.220400,-2.150895
0.220500,-2.188222
0.220600,-2.319678
0.220700,-2.480672
0.220800,-2.515402
0.220900,-2.507612
0.221000,-2.501769
0.221100,-2.492032
0.221200,-2.529359
0.221300,-2.566362
0.221400,-2.629655
0.221500,-2.642314
0.221600,-2.633226
0.221700,-2.663087
0.221800,-2.766305
0.221900,-2.797141
0.222000,-2.713723
0.222100,-2.757217
0.222200,-2.789026
0.222300,-2.855241
0.222400,-2.826678
0.222500,-2.666009
0.222600,-2.612128
0.222700,-2.653999
0.222800,-2.776692
0.222900,-2.977934
0.223000,-2.975337
0.223100,-2.871795
0.223200,-2.731575
0.223300,-2.683212
0.223400,-2.793570
0.223500,-2.956511
0.223600,-3.078880
0.223700,-3.072713
0.223800,-2.956187
0.223900,-2.870497
0.224000,-2.847451
0.224100,-2.842907
0.224200,-2.866926
0.224300,-2.848100
0.224400,-2.825704
0.224500,-2.746506
0.224600,-2.688730
0.224700,-2.604662
0.224800,-2.471583
0.224900,-2.372585
0.225000,-2.335583
0.225100,-2.298256
0.225200,-2.307344
0.225300,-2.287220
0.225400,-2.147000
0.225500,-2.095067
0.225600,-1.914923
0.225700,-1.906808
0.225800,-1.886684
0.225900,-1.854875
0.226000,-1.747763
0.226100,-1.665968
0.226200,-1.502703
0.226300,-1.447199
0.226400,-1.431619
0.226500,-1.388125
0.226600,-1.377414
0.226700,-1.342035
0.226800,-1.332946
0.226900,-1.292049
0.227000,-1.192402
0.227100,-1.201491
0.227200,-1.163190
0.227300,-1.230054
0.227400,-1.224211
0.227500,-1.185262
0.227600,-1.181691
0.227700,-0.948641
0.227800,-0.713968
0.227900,-0.630226
0.228000,-0.983047
0.228100,-1.131705
0.228200,-1.097949
0.228300,-0.866522
0.228400,-0.650350
0.228500,-0.607830
0.228600,-0.668527
0.228700,-0.902550
0.228800,-0.926570
0.228900,-0.862627
0.229000,-0.748374
0.229100,-0.642236
0.229200,-0.703906
0.229300,-0.765901
0.229400,-0.817835
0.229500,-0.806150
0.229600,-0.760059
0.229700,-0.770446
0.229800,-0.756489
0.229900,-0.747076
0.230000,-0.698388
0.230100,-0.775639
0.230200,-0.756164
0.230300,-0.787648
0.230400,-0.845099
0.230500,-0.822703
0.230600,-0.713968
0.230700,-0.620489
0.230800,-0.680212
0.230900,-0.895085
0.231000,-1.020374
0.231100,-0.974283
0.231200,-0.748374
0.231300,-0.675992
0.231400,-0.682484
0.231500,-0.906121
0.231600,-1.081395
0.231700,-1.085939
0.231800,-0.971362
0.231900,-0.818159
0.232000,-0.820431
0.232100,-0.945395
0.232200,-1.080746
0.232300,-1.073281
0.232400,-1.110283
0.232500,-1.072956
0.232600,-1.133328
0.232700,-1.208631
0.232800,-1.307304
0.232900,-1.356966
0.233000,-1.344631
0.233100,-1.372870
0.233200,-1.429997
0.233300,-1.442006
0.233400,-1.439085
0.233500,-1.411171
0.233600,-1.409872
0.233700,-1.503352
0.233800,-1.594884
0.233900,-1.595209
0.234000,-1.517958
0.234100,-1.424154
0.234200,-1.479009
0.234300,-1.499133
0.234400,-1.519906
0.234500,-1.494588
0.234600,-1.535161
0.234700,-1.549118
0.234800,-1.606894
0.234900,-1.608842
0.235000,-1.661099
0.235100,-1.658178
0.235200,-1.713033
0.235300,-1.721147
0.235400,-1.780546
0.235500,-1.795477
0.235600,-1.869157
0.235700,-1.958742
0.235800,-1.983735
0.235900,-2.090847
0.236000,-2.235611
0.236100,-2.525789
0.236200,-2.706906
0.236300,-2.603364
0.236400,-2.422896
0.236500,-2.302800
0.236600,-2.458275
0.236700,-2.752023
0.236800,-2.926650
0.236900,-2.908148
0.237000,-2.739040
0.237100,-2.672500
0.237200,-2.734496
0.237300,-2.889322
0.237400,-3.031815
0.237500,-3.083424
0.237600,-3.024025
0.237700,-3.009094
0.237800,-3.003901
0.237900,-3.043175
0.238000,-3.081152
0.238100,-3.074985
0.238200,-3.103548
0.238300,-3.094784
0.238400,-3.122698
0.238500,-3.182097
0.238600,-3.197678
0.238700,-3.145419
0.238800,-3.185668
0.238900,-3.191835
0.239000,-3.240523
0.239100,-3.228838
0.239200,-3.094460
0.239300,-2.993514
0.239400,-3.069791
0.239500,-3.256103
0.239600,-3.367760
0.239700,-3.388209
0.239800,-3.215530
0.239900,-3.045123
0.240000,-3.062650
0.240100,-3.193458
0.240200,-3.383989
0.240300,-3.396323
0.240400,-3.313554
0.240500,-3.179825
0.240600,-3.107118
0.240700,-3.161324
0.240800,-3.197678
0.240900,-3.199625
0.241000,-3.145095
0.241100,-3.129515
0.241200,-3.088293
0.241300,-3.072713
0.241400,-2.982154
0.241500,-2.846802
0.241600,-2.767603
0.241700,-2.775718
0.241800,-2.756568
0.241900,-2.767928
0.242000,-2.664386
0.242100,-2.507287
0.242200,-2.463793
0.242300,-2.210943
0.242400,-2.203477
0.242500,-2.139210
0.242600,-2.060336
0.242700,-1.944135
0.242800,-1.831505
0.242900,-1.717252
0.243000,-1.666293
0.243100,-1.618254
0.243200,-1.616307
0.243300,-1.588068
0.243400,-1.599429
0.243500,-1.551715
0.243600,-1.504975
0.243700,-1.431295
0.243800,-1.406951
0.243900,-1.404030
0.244000,-1.454016
0.244100,-1.387152
0.244200,-1.407925
0.244300,-1.252775
0.244400,-1.058025
0.244500,-0.727276
0.244600,-0.896383
0.244700,-1.095677
0.244800,-1.325806
0.244900,-1.110608
0.245000,-0.941825
0.245100,-0.738637
0.245200,-0.722083
0.245300,-0.825949
0.245400,-0.914235
0.245500,-0.894436
0.245600,-0.737663
0.245700,-0.622761
0.245800,-0.533501
0.245900,-0.519868
0.246000,-0.538694
0.246100,-0.449434
0.246200,-0.466312
0.246300,-0.392308
0.246400,-0.387114
0.246500,-0.369587
0.246600,-0.329988
0.246700,-0.320575
0.246800,-0.457549
0.246900,-0.480919
0.247000,-0.442942
0.247100,-0.525711
0.247200,-0.531878
0.247300,-0.520518
0.247400,-0.519544
0.247500,-0.608804
0.247600,-0.853863
0.247700,-0.994083
0.247800,-0.889892
0.247900,-0.673071
0.248000,-0.658789
0.248100,-0.735391
0.248200,-1.040498
0.248300,-1.122942
0.248400,-1.062569
0.248500,-0.885348
0.248600,-0.853214
0.248700,-0.960002
0.248800,-1.061596
0.248900,-1.111906
0.249000,-1.052832
0.249100,-1.088861
0.249200,-1.101844
0.249300,-1.210579
0.249400,-1.244660
0.249500,-1.288479
0.249600,-1.283935
0.249700,-1.347553
0.249800,-1.428374
0.249900,-1.472517
0.250000,-1.475763
0.250100,-1.455639
0.250200,-1.481930
0.250300,-1.518608
0.250400,-1.688040
0.250500,-1.746140
0.250600,-1.757500
0.250700,-1.680574
0.250800,-1.734780
0.250900,-1.816250
0.251000,-1.818847
0.251100,-1.820469
0.251200,-1.843515
0.251300,-1.847410
0.251400,-1.876947
0.251500,-1.874350
0.251600,-1.857796
0.251700,-1.853577
0.251800,-1.844164
0.251900,-1.848708
0.252000,-1.808460
0.252100,-1.833777
0.252200,-1.855200
0.252300,-1.868508
0.252400,-1.888956
0.252500,-1.932775
0.252600,-1.926933
0.252700,-2.106752
0.252800,-2.348891
0.252900,-2.446590
0.253000,-2.245024
0.253100,-2.096365
0.253200,-2.059038
0.253300,-2.272938
0.253400,-2.531956
0.253500,-2.625760
0.253600,-2.535851
0.253700,-2.403421
0.253800,-2.322275
0.253900,-2.460223
0.254000,-2.610180
0.254100,-2.685159
0.254200,-2.677369
0.254300,-2.623164
0.254400,-2.601092
0.254500,-2.636147
0.254600,-2.642639
0.254700,-2.665360
0.254800,-2.632901
0.254900,-2.618620
0.255000,-2.630305
0.255100,-2.663087
0.255200,-2.730276
0.255300,-2.653675
0.255400,-2.655622
0.255500,-2.649455
0.255600,-2.671202
0.255700,-2.723460
0.255800,-2.646858
0.255900,-2.506963
0.256000,-2.412509
0.256100,-2.527736
0.256200,-2.727680
0.256300,-2.842582
0.256400,-2.791623
0.256500,-2.579669
0.256600,-2.439125
0.256700,-2.513454
0.256800,-2.719240
0.256900,-2.859785
0.257000,-2.809475
0.257100,-2.717293
0.257200,-2.639393
0.257300,-2.631603
0.257400,-2.654324
0.257500,-2.663087
0.257600,-2.634849
0.257700,-2.603689
0.257800,-2.534228
0.257900,-2.488786
0.258000,-2.429712
0.258100,-2.308642
0.258200,-2.203802
0.258300,-2.117787
0.258400,-2.094742
0.258500,-2.096040
0.258600,-2.080785
0.258700,-1.947706
0.258800,-1.842216
0.258900,-1.748087
0.259000,-1.603973
0.259100,-1.615333
0.259200,-1.618904
0.259300,-1.514063
0.259400,-1.424803
0.259500,-1.331973
0.259600,-1.247257
0.259700,-1.253099
0.259800,-1.219018
0.259900,-1.230378
0.260000,-1.182665
0.260100,-1.177796
0.260200,-1.186235
0.260300,-1.105414
0.260400,-1.149233
0.260500,-1.072631
0.260600,-1.085939
0.260700,-1.114827
0.260800,-1.080746
0.260900,-1.093729
0.261000,-0.873663
0.261100,-0.733119
0.261200,-0.504613
0.261300,-0.737987
0.261400,-0.982398
0.261500,-1.014531
0.261600,-0.874961
0.261700,-0.568556
0.261800,-0.540317
0.261900,-0.497797
0.262000,-0.710073
0.262100,-0.694818
0.262200,-0.694169
0.262300,-0.496174
0.262400,-0.379000
0.262500,-0.425740
0.262600,-0.430284
0.262700,-0.514026
0.262800,-0.462417
0.262900,-0.436451
0.263000,-0.403993
0.263100,-0.424766
0.263200,-0.473453
0.263300,-0.477997
0.263400,-0.549081
0.263500,-0.524088
0.263600,-0.634770
0.263700,-0.606207
0.263800,-0.674045
0.263900,-0.639315
0.264000,-0.584460
0.264100,-0.560117
0.264200,-0.702608
0.264300,-0.960002
0.264400,-1.012259
0.264500,-0.845749
0.264600,-0.684756
0.264700,-0.607505
0.264800,-0.779534
0.264900,-1.032383
0.265000,-1.088861
0.265100,-0.996355
0.265200,-0.854512
0.265300,-0.810369
0.265400,-0.905472
0.265500,-1.021997
0.265600,-1.044717
0.265700,-1.041472
0.265800,-1.007066
0.265900,-0.998627
0.266000,-1.055429
0.266100,-1.120020
0.266200,-1.150207
0.266300,-1.121319
0.266400,-1.106063
0.266500,-1.139495
0.266600,-1.136574
0.266700,-1.123266
0.266800,-1.106713
0.266900,-1.106388
0.267000,-1.123915
0.267100,-1.235896
0.267200,-1.236221
0.267300,-1.210254
0.267400,-1.052507
0.267500,-1.092431
0.267600,-1.097300
0.267700,-1.099572
0.267800,-1.097624
0.267900,-1.090159
0.268000,-1.093405
0.268100,-1.101519
0.268200,-1.111257
0.268300,-1.117748
0.268400,-1.138846
0.268500,-1.154751
0.268600,-1.180068
0.268700,-1.207333
0.268800,-1.206359
0.268900,-1.235572
0.269000,-1.239142
0.269100,-1.306331
0.269200,-1.314770
0.269300,-1.447849
0.269400,-1.636756
0.269500,-1.893176
0.269600,-1.852928
0.269700,-1.696803
0.269800,-1.528020
0.269900,-1.593586
0.270000,-1.812030
0.270100,-2.070074
0.270200,-2.139210
0.270300,-1.970427
0.270400,-1.839944
0.270500,-1.840594
0.270600,-1.962637
0.270700,-2.172642
0.270800,-2.239831
0.270900,-2.262551
0.271000,-2.191143
0.271100,-2.198609
0.271200,-2.232690
0.271300,-2.303449
0.271400,-2.335258
0.271500,-2.347592
0.271600,-2.346943
0.271700,-2.392385
0.271800,-2.428089
0.271900,-2.471908
0.272000,-2.500147
0.272100,-2.477750
0.272200,-2.515402
0.272300,-2.564414
0.272400,-2.588109
0.272500,-2.533579
0.272600,-2.403421
0.272700,-2.439449
0.272800,-2.554352
0.272900,-2.758515
0.273000,-2.894516
0.273100,-2.773771
0.273200,-2.581292
0.273300,-2.545264
0.273400,-2.672825
0.273500,-2.874067
0.273600,-2.988645
0.273700,-2.960082
0.273800,-2.817914
0.273900,-2.743584
0.274000,-2.722811
0.274100,-2.736119
0.274200,-2.757217
0.274300,-2.717942
0.274400,-2.689054
0.274500,-2.632577
0.274600,-2.593302
0.274700,-2.539421
0.274800,-2.386542
0.274900,-2.288843
0.275000,-2.256060
0.275100,-2.260604
0.275200,-2.267745
0.275300,-2.220356
0.275400,-2.074618
0.275500,-2.012622
0.275600,-1.815276
0.275700,-1.829233
0.275800,-1.799696
0.275900,-1.791906
0.276000,-1.711085
0.276100,-1.634808
0.276200,-1.560479
0.276300,-1.495562
0.276400,-1.501405
0.276500,-1.519906
0.276600,-1.539381
0.276700,-1.550741
0.276800,-1.595858
0.276900,-1.557557
0.277000,-1.498159
0.277100,-1.499133
0.277200,-1.523476
0.277300,-1.560154
0.277400,-1.591639
0.277500,-1.597481
0.277600,-1.554961
0.277700,-1.284259
0.277800,-1.180068
0.277900,-1.022646
0.278000,-1.418961
0.278100,-1.644546
0.278200,-1.636756
0.278300,-1.436813
0.278400,-1.159295
0.278500,-1.138197
0.278600,-1.234273
0.278700,-1.433567
0.278800,-1.468946
0.278900,-1.406627
0.279000,-1.307954
0.279100,-1.177147
0.279200,-1.205061
0.279300,-1.200517
0.279400,-1.248880
0.279500,-1.203114
0.279600,-1.181042
0.279700,-1.172927
0.279800,-1.170980
0.279900,-1.181042
0.280000,-1.138846
0.280100,-1.214799
0.280200,-1.273223
0.280300,-1.270951
0.280400,-1.254722
0.280500,-1.319314
0.280600,-1.159944
0.280700,-1.188183
0.280800,-1.213500
0.280900,-1.412794
0.281000,-1.549118
0.281100,-1.514063
0.281200,-1.286207
0.281300,-1.127810
0.281400,-1.155725
0.281500,-1.342035
0.281600,-1.528670
0.281700,-1.504651
0.281800,-1.378713
0.281900,-1.210254
0.282000,-1.205386
0.282100,-1.294970
0.282200,-1.399810
0.282300,-1.338464
0.282400,-1.329051
0.282500,-1.260240
0.282600,-1.310875
0.282700,-1.371572
0.282800,-1.400135
0.282900,-1.392994
0.283000,-1.360861
0.283100,-1.369300
0.283200,-1.391047
0.283300,-1.398512
0.283400,-1.343658
0.283500,-1.325806
0.283600,-1.310875
0.283700,-1.409548
0.283800,-1.503028
0.283900,-1.482254
0.284000,-1.423830
0.284100,-1.326779
0.284200,-1.360211
0.284300,-1.373195
0.284400,-1.349176
0.284500,-1.367352
0.284600,-1.350149
0.284700,-1.355992
0.284800,-1.352097
0.284900,-1.333920
0.285000,-1.358913
0.285100,-1.364431
0.285200,-1.388450
0.285300,-1.366378
0.285400,-1.383581
0.285500,-1.411820
0.285600,-1.437462
0.285700,-1.480631
0.285800,-1.575085
0.285900,-1.617281
0.286000,-1.800994
0.286100,-2.060661
0.286200,-2.267745
0.286300,-2.137912
0.286400,-2.016193
0.286500,-1.936346
0.286600,-2.123630
0.286700,-2.408289
0.286800,-2.587784
0.286900,-2.615049
0.287000,-2.433931
0.287100,-2.390437
0.287200,-2.459898
0.287300,-2.671527
0.287400,-2.842258
0.287500,-2.879260
0.287600,-2.845504
0.287700,-2.778964
0.287800,-2.831547
0.287900,-2.931843
0.288000,-2.983452
0.288100,-3.000006
0.288200,-2.959757
0.288300,-2.960731
0.288400,-3.011042
0.288500,-3.105171
0.288600,-3.074335
0.288700,-3.086020
0.288800,-3.011691
0.288900,-3.067519
0.289000,-3.061677
0.289100,-3.070765
0.289200,-2.906850
0.289300,-2.808501
0.289400,-2.894516
0.289500,-3.053887
0.289600,-3.222021
0.289700,-3.260971
0.289800,-3.086670
0.289900,-2.883480
0.290000,-2.883155
0.290100,-3.043825
0.290200,-3.211635
0.290300,-3.243444
0.290400,-3.194432
0.290500,-3.038631
0.290600,-2.968196
0.290700,-2.947098
0.290800,-3.004225
0.290900,-3.018182
0.291000,-2.950993
0.291100,-2.881208
0.291200,-2.810449
0.291300,-2.769226
0.291400,-2.670553
0.291500,-2.523841
0.291600,-2.398876
0.291700,-2.348566
0.291800,-2.313511
0.291900,-2.322924
0.292000,-2.203477
0.292100,-2.003859
0.292200,-1.956145
0.292300,-1.731534
0.292400,-1.763018
0.292500,-1.736078
0.292600,-1.651686
0.292700,-1.560803
0.292800,-1.459534
0.292900,-1.338789
0.293000,-1.290751
0.293100,-1.296269
0.293200,-1.283285
0.293300,-1.304708
0.293400,-1.269328
0.293500,-1.270302
0.293600,-1.218369
0.293700,-1.143066
0.293800,-1.202140
0.293900,-1.151830
0.294000,-1.301462
0.294100,-1.190130
0.294200,-1.299839
0.294300,-1.069061
0.294400,-0.991486
0.294500,-0.773042
0.294600,-0.776613
0.294700,-1.193376
0.294800,-1.295295
0.294900,-1.269328
0.295000,-1.006417
0.295100,-0.873014
0.295200,-0.860679
0.295300,-1.024593
0.295400,-1.226159
0.295500,-1.191104
0.295600,-1.109309
0.295700,-0.918130
0.295800,-0.897682
0.295900,-0.970713
0.296000,-1.035954
0.296100,-1.113853
0.296200,-1.093405
0.296300,-1.066464
0.296400,-1.053806
0.296500,-1.114178
0.296600,-1.150207
0.296700,-1.194674
0.296800,-1.243686
0.296900,-1.387476
0.297000,-1.400784
0.297100,-1.509195
0.297200,-1.453042
0.297300,-1.489395
0.297400,-1.410846
0.297500,-1.536135
0.297600,-1.732183
0.297700,-1.904536
0.297800,-1.842216
0.297900,-1.654283
0.298000,-1.547495
0.298100,-1.640001
0.298200,-1.918818
0.298300,-2.040212
0.298400,-1.985033
0.298500,-1.826637
0.298600,-1.687715
0.298700,-1.735753
0.298800,-1.831505
0.298900,-1.915248
0.299000,-1.867209
0.299100,-1.870780
0.299200,-1.767562
0.299300,-1.847410
0.299400,-1.849033
0.299500,-1.909081
0.299600,-1.855524
0.299700,-1.822742
0.299800,-1.820145
0.299900,-1.825338
0.300000,-1.792231
0.300100,-1.728613
0.300200,-1.677004
0.300300,-1.649739
0.300400,-1.718550
0.300500,-1.690961
0.300600,-1.684469
0.300700,-1.659152
0.300800,-1.635133
0.300900,-1.630264
0.301000,-1.620527
0.301100,-1.571515
0.301200,-1.550417
0.301300,-1.543276
0.301400,-1.522503
0.301500,-1.500106
0.301600,-1.483877
0.301700,-1.463104
0.301800,-1.462130
0.301900,-1.474140
0.302000,-1.457911
0.302100,-1.452068
0.302200,-1.435190
0.302300,-1.483877
0.302400,-1.469596
0.302500,-1.548145
0.302600,-1.568918
0.302700,-1.735753
0.302800,-1.981138
0.302900,-2.035668
0.303000,-1.900966
0.303100,-1.658178
0.303200,-1.622799
0.303300,-1.812030
0.303400,-2.155764
0.303500,-2.274236
0.303600,-2.179134
0.303700,-2.042809
0.303800,-1.959715
0.303900,-2.065205
0.304000,-2.277807
0.304100,-2.417378
0.304200,-2.415106
0.304300,-2.385569
0.304400,-2.407965
0.304500,-2.424843
0.304600,-2.479049
0.304700,-2.505340
0.304800,-2.538447
0.304900,-2.566037
0.305000,-2.618295
0.305100,-2.685484
0.305200,-2.722162
0.305300,-2.764682
0.305400,-2.780911
0.305500,-2.853294
0.305600,-2.912368
0.305700,-2.951318
0.305800,-2.896788
0.305900,-2.802983
0.306000,-2.764033
0.306100,-2.887050
0.306200,-3.111338
0.306300,-3.276552
0.306400,-3.230136
0.306500,-3.015910
0.306600,-2.867575
0.306700,-2.912043
0.306800,-3.081476
0.306900,-3.289210
0.307000,-3.316800
0.307100,-3.223969
0.307200,-3.123348
0.307300,-3.111338
0.307400,-3.174957
0.307500,-3.247988
0.307600,-3.264867
0.307700,-3.283043
0.307800,-3.250260
0.307900,-3.256752
0.308000,-3.237277
0.308100,-3.172360
0.308200,-3.052913
0.308300,-3.014287
0.308400,-3.016559
0.308500,-3.016235
0.308600,-3.029543
0.308700,-2.906850
0.308800,-2.785780
0.308900,-2.682563
0.309000,-2.534552
0.309100,-2.556299
0.309200,-2.510209
0.309300,-2.436204
0.309400,-2.360576
0.309500,-2.261902
0.309600,-2.175563
0.309700,-2.146026
0.309800,-2.108050
0.309900,-2.078188
0.310000,-2.043133
0.310100,-2.003210
0.310200,-1.991200
0.310300,-1.865262
0.310400,-1.868832
0.310500,-1.785415
0.310600,-1.827935
0.310700,-1.725367
0.310800,-1.786064
0.310900,-1.678627
0.311000,-1.526722
0.311100,-1.195324
0.311200,-1.048288
0.311300,-1.135276
0.311400,-1.457262
0.311500,-1.418312
0.311600,-1.244011
0.311700,-0.820431
0.311800,-0.727925
0.311900,-0.668527
0.312000,-0.852889
0.312100,-0.881453
0.312200,-0.826598
0.312300,-0.599716
0.312400,-0.418599
0.312500,-0.358876
0.312600,-0.402370
0.312700,-0.442293
0.312800,-0.414055
0.312900,-0.443916
0.313000,-0.409835
0.313100,-0.414379
0.313200,-0.397826
0.313300,-0.405291
0.313400,-0.436775
0.313500,-0.460470
0.313600,-0.584785
0.313700,-0.593548
0.313800,-0.649052
0.313900,-0.567257
0.314000,-0.587381
0.314100,-0.502016
0.314200,-0.702608
0.314300,-0.903849
0.314400,-0.962923
0.314500,-0.873338
0.314600,-0.645806
0.314700,-0.633472
0.314800,-0.793816
0.314900,-1.071009
0.315000,-1.191429
0.315100,-1.115152
0.315200,-0.971037
0.315300,-0.896059
0.315400,-1.054455
0.315500,-1.187209
0.315600,-1.272899
0.315700,-1.246283
0.315800,-1.293023
0.315900,-1.316717
0.316000,-1.445252
0.316100,-1.528670
0.316200,-1.590989
0.316300,-1.550741
0.316400,-1.589042
0.316500,-1.622799
0.316600,-1.662073
0.316700,-1.644870
0.316800,-1.621825
0.316900,-1.625720
0.317000,-1.680574
0.317100,-1.802293
0.317200,-1.818197
0.317300,-1.785415
0.317400,-1.687066
0.317500,-1.692584
0.317600,-1.714655
0.317700,-1.681873
0.317800,-1.669863
0.317900,-1.657854
0.318000,-1.648765
0.318100,-1.644546
0.318200,-1.636431
0.318300,-1.637080
0.318400,-1.656555
0.318500,-1.657204
0.318600,-1.666942
0.318700,-1.652011
0.318800,-1.677653
0.318900,-1.684145
0.319000,-1.689013
0.319100,-1.741920
0.319200,-1.751982
0.319300,-1.796775
0.319400,-1.996069
0.319500,-2.224251
0.319600,-2.256709
0.319700,-2.026904
0.319800,-1.891878
0.319900,-1.937319
0.320000,-2.256709
0.320100,-2.514104
0.320200,-2.569932
0.320300,-2.448538
0.320400,-2.329416
0.320500,-2.299229
0.320600,-2.458275
0.320700,-2.636147
0.320800,-2.761112
0.320900,-2.731899
0.321000,-2.722811
0.321100,-2.689054
0.321200,-2.748778
0.321300,-2.816291
0.321400,-2.863356
0.321500,-2.864979
0.321600,-2.859136
0.321700,-2.920158
0.321800,-3.001304
0.321900,-3.054211
0.322000,-3.025323
0.322100,-2.994488
0.322200,-3.060054
0.322300,-3.116531
0.322400,-3.166193
0.322500,-3.098679
0.322600,-2.944826
0.322700,-2.969495
0.322800,-3.100951
0.322900,-3.346986
0.323000,-3.453775
0.323100,-3.357698
0.323200,-3.126269
0.323300,-3.034736
0.323400,-3.142174
0.323500,-3.346662
0.323600,-3.478768
0.323700,-3.457670
0.323800,-3.306413
0.323900,-3.233382
0.324000,-3.224618
0.324100,-3.283368
0.324200,-3.309010
0.324300,-3.305115
0.324400,-3.292456
0.324500,-3.257076
0.324600,-3.224618
0.324700,-3.149964
0.324800,-3.043175
0.324900,-2.934764
0.325000,-2.849723
0.325100,-2.830573
0.325200,-2.780911
0.325300,-2.743909
0.325400,-2.581617
0.325500,-2.486514
0.325600,-2.288518
0.325700,-2.226847
0.325800,-2.200556
0.325900,-2.186599
0.326000,-2.088250
0.326100,-2.001587
0.326200,-1.884737
0.326300,-1.792555
0.326400,-1.770808
0.326500,-1.790932
0.326600,-1.762694
0.326700,-1.743543
0.326800,-1.724393
0.326900,-1.723744
0.327000,-1.639352
0.327100,-1.654932
0.327200,-1.585147
0.327300,-1.607543
0.327400,-1.605920
0.327500,-1.573462
0.327600,-1.464727
0.327700,-1.301787
0.327800,-1.049586
0.327900,-0.964546
0.328000,-1.137548
0.328100,-1.529643
0.328200,-1.322235
0.328300,-1.171954
0.328400,-0.880803
0.328500,-0.852240
0.328600,-0.892164
0.328700,-1.034006
0.328800,-1.134302
0.328900,-0.987266
0.329000,-0.834713
0.329100,-0.711696
0.329200,-0.683133
0.329300,-0.782131
0.329400,-0.831142
0.329500,-0.863925
0.329600,-0.791219
0.329700,-0.755839
0.329800,-0.712345
0.329900,-0.722732
0.330000,-0.700985
0.330100,-0.716565
0.330200,-0.810369
0.330300,-0.801281
0.330400,-0.880479
0.330500,-0.816212
0.330600,-0.795763
0.330700,-0.673071
0.330800,-0.715267
0.330900,-0.841854
0.331000,-1.008040
0.331100,-0.967142
0.331200,-0.833090
0.331300,-0.633147
0.331400,-0.687028
0.331500,-0.790570
0.331600,-1.000899
0.331700,-0.982398
0.331800,-0.866197
0.331900,-0.693520
0.332000,-0.667553
0.332100,-0.757462
0.332200,-0.842503
0.332300,-0.834713
0.332400,-0.848994
0.332500,-0.797710
0.332600,-0.823677
0.332700,-0.859056
0.332800,-0.860030
0.332900,-0.867171
0.333000,-0.848021
0.333100,-0.906445
0.333200,-0.935982
0.333300,-0.968116
0.333400,-0.933061
0.333500,-0.944422
0.333600,-0.945395
0.333700,-1.074904
0.333800,-1.171954
0.333900,-1.199868
0.334000,-1.197920
0.334100,-1.228431
0.334200,-1.161892
0.334300,-1.203763
0.334400,-1.211228
0.334500,-1.245309
0.334600,-1.259266
0.334700,-1.301787
0.334800,-1.316717
0.334900,-1.356316
0.335000,-1.375791
0.335100,-1.395266
0.335200,-1.435839
0.335300,-1.456612
0.335400,-1.491343
0.335500,-1.519906
0.335600,-1.552689
0.335700,-1.572488
0.335800,-1.636431
0.335900,-1.723095
0.336000,-1.819820
0.336100,-2.095391
0.336200,-2.265148
0.336300,-2.191143
0.336400,-2.025930
0.336500,-1.892202
0.336600,-2.078513
0.336700,-2.320003
0.336800,-2.560519
0.336900,-2.528385
0.337000,-2.395631
0.337100,-2.313836
0.337200,-2.335258
0.337300,-2.505340
0.337400,-2.647183
0.337500,-2.689703
0.337600,-2.635173
0.337700,-2.617321
0.337800,-2.651402
0.337900,-2.691326
0.338000,-2.711126
0.338100,-2.728004
0.338200,-2.698792
0.338300,-2.700090
0.338400,-2.770849
0.338500,-2.831871
0.338600,-2.862057
0.338700,-2.762735
0.338800,-2.813694
0.338900,-2.858487
0.339000,-2.936387
0.339100,-2.945151
0.339200,-2.895814
0.339300,-2.774095
0.339400,-2.874067
0.339500,-3.055185
0.339600,-3.291158
0.339700,-3.340495
0.339800,-3.185343
0.339900,-3.058755
0.340000,-3.074335
0.340100,-3.266814
0.340200,-3.495322
0.340300,-3.581012
0.340400,-3.556344
0.340500,-3.432352
0.340600,-3.424562
0.340700,-3.420018
0.340800,-3.479417
0.340900,-3.490128
0.341000,-3.486558
0.341100,-3.464486
0.341200,-3.422939
0.341300,-3.380743
0.341400,-3.339196
0.341500,-3.184370
0.341600,-3.088293
0.341700,-3.051290
0.341800,-3.012664
0.341900,-2.994488
0.342000,-2.882506
0.342100,-2.706257
0.342200,-2.627708
0.342300,-2.373559
0.342400,-2.350189
0.342500,-2.286895
0.342600,-2.201205
0.342700,-2.034694
0.342800,-1.900641
0.342900,-1.787362
0.343000,-1.675056
0.343100,-1.632211
0.343200,-1.564698
0.343300,-1.498159
0.343400,-1.438111
0.343500,-1.376116
0.343600,-1.243037
0.343700,-1.152154
0.343800,-1.009013
0.343900,-1.015830
0.344000,-0.959028
0.344100,-0.949939
0.344200,-0.861653
0.344300,-0.739286
0.344400,-0.390360
0.344500,-0.130046
0.344600,-0.030399
0.344700,-0.369587
0.344800,-0.352709
0.344900,-0.262150
0.345000,0.079634
0.345100,0.258479
0.345200,0.426936
0.345300,0.329562
0.345400,0.276655
0.345500,0.354879
0.345600,0.565208
0.345700,0.783652
0.345800,0.917704
0.345900,0.914782
0.346000,0.930038
0.346100,1.009885
0.346200,1.028061
0.346300,1.125761
0.346400,1.131603
0.346500,1.141990
0.346600,1.129331
0.346700,1.138744
0.346800,1.116348
0.346900,1.042992
0.347000,0.999498
0.347100,0.880701
0.347200,0.864472
0.347300,0.920300
0.347400,0.897904
0.347500,0.793389
0.347600,0.513275
0.347700,0.384741
0.347800,0.387987
0.347900,0.493476
0.348000,0.578841
0.348100,0.407137
0.348200,0.117935
0.348300,-0.100184
0.348400,-0.093043
0.348500,0.005629
0.348600,0.066975
0.348700,-0.041759
0.348800,-0.258580
0.348900,-0.414704
0.349000,-0.429959
0.349100,-0.506561
0.349200,-0.530580
0.349300,-0.711047
0.349400,-0.869443
0.349500,-0.988889
0.349600,-1.113853
0.349700,-1.177472
0.349800,-1.319963
0.349900,-1.463104
0.350000,-1.564374
0.350100,-1.641624
0.350200,-1.743219
0.350300,-1.832804
0.350400,-2.073644
0.350500,-2.197310
0.350600,-2.271964
0.350700,-2.195038
0.350800,-2.260929
0.350900,-2.388814
0.351000,-2.445941
0.351100,-2.463793
0.351200,-2.496252
0.351300,-2.513454
0.351400,-2.577073
0.351500,-2.607259
0.351600,-2.665360
0.351700,-2.703660
0.351800,-2.724758
0.351900,-2.765007
0.352000,-2.778639
0.352100,-2.818563
0.352200,-2.836091
0.352300,-2.873418
0.352400,-2.897762
0.352500,-2.971118
0.352600,-3.056483
0.352700,-3.234680
0.352800,-3.497269
0.352900,-3.596268
0.353000,-3.400218
0.353100,-3.235978
0.353200,-3.219425
0.353300,-3.418395
0.353400,-3.763754
0.353500,-3.895860
0.353600,-3.828022
0.353700,-3.630998
0.353800,-3.554396
0.353900,-3.707276
0.354000,-3.896509
0.354100,-4.014334
0.354200,-3.987718
0.354300,-3.875086
0.354400,-3.839707
0.354500,-3.838733
0.354600,-3.898132
0.354700,-3.926046
0.354800,-3.870218
0.354900,-3.827048
0.355000,-3.798160
0.355100,-3.831592
0.355200,-3.866647
0.355300,-3.819582
0.355400,-3.762780
0.355500,-3.743629
0.355600,-3.779658
0.355700,-3.786799
0.355800,-3.773491
0.355900,-3.564783
0.356000,-3.469679
0.356100,-3.532324
0.356200,-3.705977
0.356300,-3.838733
0.356400,-3.785176
0.356500,-3.521938
0.356600,-3.358671
0.356700,-3.352829
0.356800,-3.495646
0.356900,-3.673194
0.357000,-3.674168
0.357100,-3.525508
0.357200,-3.346986
0.357300,-3.262594
0.357400,-3.285965
0.357500,-3.320046
0.357600,-3.286938
0.357700,-3.228513
0.357800,-3.154183
0.357900,-3.084398
0.358000,-3.006497
0.358100,-2.916263
0.358200,-2.775718
0.358300,-2.679966
0.358400,-2.653675
0.358500,-2.612128
0.358600,-2.581942
0.358700,-2.424194
0.358800,-2.286571
0.358900,-2.227821
0.359000,-2.011000
0.359100,-2.024957
0.359200,-1.961014
0.359300,-1.863964
0.359400,-1.736403
0.359500,-1.583524
0.359600,-1.482579
0.359700,-1.424154
0.359800,-1.387152
0.359900,-1.365729
0.360000,-1.330674
0.360100,-1.332622
0.360200,-1.245309
0.360300,-1.189481
0.360400,-1.041796
0.360500,-1.105090
0.360600,-0.994407
0.360700,-1.098598
0.360800,-0.988565
0.360900,-1.001873
0.361000,-0.868794
0.361100,-0.546160
0.361200,-0.400422
0.361300,-0.416976
0.361400,-0.749348
0.361500,-0.696766
0.361600,-0.584785
0.361700,-0.282275
0.361800,-0.076165
0.361900,-0.128098
0.362000,-0.138809
0.362100,-0.319601
0.362200,-0.198857
0.362300,-0.074867
0.362400,0.137734
0.362500,0.154937
0.362600,0.168245
0.362700,0.170517
0.362800,0.151367
0.362900,0.209142
0.363000,0.253285
0.363100,0.305867
0.363200,0.305543
0.363300,0.316254
0.363400,0.336378
0.363500,0.269839
0.363600,0.276655
0.363700,0.198106
0.363800,0.229915
0.363900,0.171166
0.364000,0.319175
0.364100,0.247118
0.364200,0.260101
0.364300,0.001410
0.364400,0.007252
0.364500,0.082555
0.364600,0.265295
0.364700,0.298077
0.364800,0.174087
0.364900,-0.086552
0.365000,-0.150170
0.365100,-0.129072
0.365200,0.047825
0.365300,0.076064
0.365400,-0.056366
0.365500,-0.205024
0.365600,-0.309215
0.365700,-0.338427
0.365800,-0.363420
0.365900,-0.419897
0.366000,-0.539019
0.366100,-0.662360
0.366200,-0.780832
0.366300,-0.853214
0.366400,-0.966169
0.366500,-1.069386
0.366600,-1.144364
0.366700,-1.222913
0.366800,-1.279066
0.366900,-1.347228
0.367000,-1.441682
0.367100,-1.670837
0.367200,-1.756851
0.367300,-1.788011
0.367400,-1.719200
0.367500,-1.810407
0.367600,-1.909081
0.367700,-1.975945
0.367800,-2.007105
0.367900,-2.079811
0.368000,-2.151219
0.368100,-2.233664
0.368200,-2.291764
0.368300,-2.325845
0.368400,-2.385569
0.368500,-2.434256
0.368600,-2.473206
0.368700,-2.515727
0.368800,-2.554352
0.368900,-2.615049
0.369000,-2.643937
0.369100,-2.671851
0.369200,-2.769876
0.369300,-2.790324
0.369400,-3.013963
0.369500,-3.185668
0.369600,-3.226566
0.369700,-3.020130
0.369800,-2.789351
0.369900,-2.843232
0.370000,-3.087319
0.370100,-3.324915
0.370200,-3.348609
0.370300,-3.217477
0.370400,-3.015261
0.370500,-2.957810
0.370600,-3.070116
0.370700,-3.230136
0.370800,-3.296027
0.370900,-3.222671
0.371000,-3.181773
0.371100,-3.151911
0.371200,-3.157429
0.371300,-3.178852
0.371400,-3.164570
0.371500,-3.135033
0.371600,-3.076932
0.371700,-3.117505
0.371800,-3.136006
0.371900,-3.123348
0.372000,-3.061027
0.372100,-2.992216
0.372200,-3.020779
0.372300,-3.004225
0.372400,-2.999356
0.372500,-2.888024
0.372600,-2.735794
0.372700,-2.686782
0.372800,-2.768577
0.372900,-2.921456
0.373000,-3.012015
0.373100,-2.868874
0.373200,-2.658868
0.373300,-2.521244
0.373400,-2.586810
0.373500,-2.754296
0.373600,-2.865952
0.373700,-2.819212
0.373800,-2.653999
0.373900,-2.534228
0.374000,-2.499497
0.374100,-2.532929
0.374200,-2.564414
0.374300,-2.565063
0.374400,-2.519622
0.374500,-2.463793
0.374600,-2.425492
0.374700,-2.332661
0.374800,-2.197959
0.374900,-2.086627
0.375000,-2.037940
0.375100,-2.034370
0.375200,-1.993148
0.375300,-1.936995
0.375400,-1.773080
0.375500,-1.705892
0.375600,-1.598130
0.375700,-1.482904
0.375800,-1.453042
0.375900,-1.420259
0.376000,-1.323534
0.376100,-1.248230
0.376200,-1.153128
0.376300,-1.097624
0.376400,-1.113853
0.376500,-1.104441
0.376600,-1.131056
0.376700,-1.108011
0.376800,-1.216097
0.376900,-1.145987
0.377000,-1.148908
0.377100,-1.150531
0.377200,-1.172603
0.377300,-1.185911
0.377400,-1.238818
0.377500,-1.290751
0.377600,-1.277443
0.377700,-1.131705
0.377800,-0.946044
0.377900,-0.848670
0.378000,-1.158970
0.378100,-1.419610
0.378200,-1.514388
0.378300,-1.276145
0.378400,-1.144364
0.378500,-1.138522
0.378600,-1.233949
0.378700,-1.428374
0.378800,-1.543600
0.378900,-1.472517
0.379000,-1.341061
0.379100,-1.241090
0.379200,-1.277767
0.379300,-1.361185
0.379400,-1.457262
0.379500,-1.431944
0.379600,-1.466350
0.379700,-1.426426
0.379800,-1.442331
0.379900,-1.458235
0.380000,-1.488097
0.380100,-1.450445
0.380200,-1.524775
0.380300,-1.580278
0.380400,-1.605271
0.380500,-1.677653
0.380600,-1.584173
0.380700,-1.520555
0.380800,-1.478035
0.380900,-1.604622
0.381000,-1.790283
0.381100,-1.743868
0.381200,-1.628641
0.381300,-1.395591
0.381400,-1.423180
0.381500,-1.574760
0.381600,-1.799696
0.381700,-1.825338
0.381800,-1.737376
0.381900,-1.520880
0.382000,-1.490369
0.382100,-1.617930
0.382200,-1.744517
0.382300,-1.764317
0.382400,-1.734130
0.382500,-1.685768
0.382600,-1.706216
0.382700,-1.740622
0.382800,-1.804565
0.382900,-1.821768
0.383000,-1.792231
0.383100,-1.794178
0.383200,-1.817548
0.383300,-1.834751
0.383400,-1.820145
0.383500,-1.817224
0.383600,-1.816574
0.383700,-1.883114
0.383800,-1.998341
0.383900,-2.017167
0.384000,-2.003210
0.384100,-1.867534
0.384200,-1.934398
0.384300,-1.973673
0.384400,-1.965558
0.384500,-1.957768
0.384600,-1.983410
0.384700,-1.984708
0.384800,-1.982112
0.384900,-1.978541
0.385000,-1.985033
0.385100,-2.001262
0.385200,-2.017491
0.385300,-2.005482
0.385400,-2.000613
0.385500,-2.002236
0.385600,-2.010026
0.385700,-2.012298
0.385800,-2.091821
0.385900,-2.066828
0.386000,-2.189196
0.386100,-2.481970
0.386200,-2.642639
0.386300,-2.582266
0.386400,-2.331363
0.386500,-2.241129
0.386600,-2.285921
0.386700,-2.642963
0.386800,-2.853294
0.386900,-2.861408
0.387000,-2.702038
0.387100,-2.592977
0.387200,-2.624787
0.387300,-2.739689
0.387400,-2.915289
0.387500,-2.957161
0.387600,-2.915289
0.387700,-2.877637
0.387800,-2.869847
0.387900,-2.915614
0.388000,-2.977285
0.388100,-2.972741
0.388200,-2.975986
0.388300,-2.917886
0.388400,-2.936712
0.388500,-2.975013
0.388600,-2.967872
0.388700,-2.928922
0.388800,-2.853943
0.388900,-2.879910
0.389000,-2.865952
0.389100,-2.878936
0.389200,-2.729627
0.389300,-2.585837
0.389400,-2.594600
0.389500,-2.698792
0.389600,-2.889322
0.389700,-2.938659
0.389800,-2.772472
0.389900,-2.570257
0.390000,-2.500147
0.390100,-2.603040
0.390200,-2.769876
0.390300,-2.843556
0.390400,-2.789026
0.390500,-2.657570
0.390600,-2.573502
0.390700,-2.543316
0.390800,-2.563765
0.390900,-2.567984
0.391000,-2.555975
0.391100,-2.525139
0.391200,-2.467364
0.391300,-2.410886
0.391400,-2.303449
0.391500,-2.152193
0.391600,-2.088575
0.391700,-2.055792
0.391800,-2.039887
0.391900,-1.999639
0.392000,-1.951601
0.392100,-1.802293
0.392200,-1.766913
0.392300,-1.621176
0.392400,-1.584822
0.392500,-1.572164
0.392600,-1.554636
0.392700,-1.472517
0.392800,-1.407925
0.392900,-1.313147
0.393000,-1.254398
0.393100,-1.277767
0.393200,-1.295944
0.393300,-1.305357
0.393400,-1.286207
0.393500,-1.293347
0.393600,-1.219018
0.393700,-1.176822
0.393800,-1.127161
0.393900,-1.158321
0.394000,-1.188183
0.394100,-1.224536
0.394200,-1.244011
0.394300,-1.179744
0.394400,-0.999276
0.394500,-0.749997
0.394600,-0.745777
0.394700,-1.096651
0.394800,-1.366054
0.394900,-1.190455
0.395000,-1.054455
0.395100,-0.855811
0.395200,-0.819133
0.395300,-0.871391
0.395400,-1.087887
0.395500,-1.049586
0.395600,-0.966818
0.395700,-0.789921
0.395800,-0.708450
0.395900,-0.716890
0.396000,-0.760059
0.396100,-0.762331
0.396200,-0.689625
0.396300,-0.692546
0.396400,-0.656517
0.396500,-0.640937
0.396600,-0.638341
0.396700,-0.675992
0.396800,-0.660088
0.396900,-0.692871
0.397000,-0.677940
0.397100,-0.759085
0.397200,-0.735066
0.397300,-0.631849
0.397400,-0.620813
0.397500,-0.643209
0.397600,-0.950264
0.397700,-1.067438
0.397800,-1.017777
0.397900,-0.881128
0.398000,-0.740909
0.398100,-0.882102
0.398200,-1.089834
0.398300,-1.287180
0.398400,-1.296269
0.398500,-1.195648
0.398600,-1.131705
0.398700,-1.192727
0.398800,-1.348202
0.398900,-1.473491
0.399000,-1.445577
0.399100,-1.526398
0.399200,-1.526398
0.399300,-1.663696
0.399400,-1.747763
0.399500,-1.798722
0.399600,-1.835725
0.399700,-1.877596
0.399800,-1.978866
0.399900,-2.053520
0.400000,-2.114866
0.400100,-2.140184
0.400200,-2.159334
0.400300,-2.196986
0.400400,-2.354409
0.400500,-2.463469
0.400600,-2.496252
0.400700,-2.486839
0.400800,-2.389464
0.400900,-2.457951
0.401000,-2.473206
0.401100,-2.464767
0.401200,-2.507612
0.401300,-2.520271
0.401400,-2.565712
0.401500,-2.594600
0.401600,-2.661140
0.401700,-2.716644
0.401800,-2.772797
0.401900,-2.815966
0.402000,-2.840635
0.402100,-2.928922
0.402200,-2.935413
0.402300,-3.026622
0.402400,-3.075958
0.402500,-3.156780
0.402600,-3.204494
0.402700,-3.354776
0.402800,-3.660536
0.402900,-3.786799
0.403000,-3.698187
0.403100,-3.471627
0.403200,-3.403464
0.403300,-3.640411
0.403400,-3.886122
0.403500,-3.984796
0.403600,-3.918256
0.403700,-3.718961
0.403800,-3.640087
0.403900,-3.693319
0.404000,-3.870218
0.404100,-3.964023
0.404200,-3.955908
0.404300,-3.819258
0.404400,-3.772517
0.404500,-3.766350
0.404600,-3.785501
0.404700,-3.741357
0.404800,-3.667352
0.404900,-3.556993
0.405000,-3.501164
0.405100,-3.487532
0.405200,-3.424562
0.405300,-3.329459
0.405400,-3.157104
0.405500,-3.064922
0.405600,-3.042526
0.405700,-2.980855
0.405800,-2.844854
0.405900,-2.609207
0.406000,-2.437502
0.406100,-2.436528
0.406200,-2.517999
0.406300,-2.620892
0.406400,-2.514753
0.406500,-2.265797
0.406600,-2.081434
0.406700,-2.043133
0.406800,-2.180107
0.406900,-2.314809
0.407000,-2.313186
0.407100,-2.169072
0.407200,-2.037291
0.407300,-1.971076
0.407400,-1.966532
0.407500,-1.957119
0.407600,-1.935372
0.407700,-1.839620
0.407800,-1.756527
0.407900,-1.698426
0.408000,-1.642923
0.408100,-1.567620
0.408200,-1.401433
0.408300,-1.315419
0.408400,-1.248230
0.408500,-1.225834
0.408600,-1.193051
0.408700,-1.030436
0.408800,-0.961624
0.408900,-0.966493
0.409000,-0.786675
0.409100,-0.877558
0.409200,-0.852889
0.409300,-0.848670
0.409400,-0.785701
0.409500,-0.738312
0.409600,-0.728575
0.409700,-0.773691
0.409800,-0.799983
0.409900,-0.892813
0.410000,-0.850942
0.410100,-0.991811
0.410200,-0.992135
0.410300,-1.071658
0.410400,-1.080421
0.410500,-1.202464
0.410600,-1.245958
0.410700,-1.355992
0.410800,-1.482254
0.410900,-1.420908
0.411000,-1.460832
0.411100,-1.204736
0.411200,-1.165462
0.411300,-1.170655
0.411400,-1.611763
0.411500,-1.652660
0.411600,-1.634808
0.411700,-1.412469
0.411800,-1.359562
0.411900,-1.388125
0.412000,-1.543925
0.412100,-1.714331
0.412200,-1.735429
0.412300,-1.558856
0.412400,-1.457911
0.412500,-1.429023
0.412600,-1.528345
0.412700,-1.639352
0.412800,-1.643896
0.412900,-1.650388
0.413000,-1.637080
0.413100,-1.646169
0.413200,-1.669214
0.413300,-1.733806
0.413400,-1.752307
0.413500,-1.781195
0.413600,-1.898694
0.413700,-1.869157
0.413800,-1.977243
0.413900,-1.902264
0.414000,-1.855200
0.414100,-1.853901
0.414200,-1.948030
0.414300,-2.205100
0.414400,-2.273587
0.414500,-2.168422
0.414600,-2.007754
0.414700,-1.871754
0.414800,-2.027553
0.414900,-2.264499
0.415000,-2.403745
0.415100,-2.360576
0.415200,-2.197310
0.415300,-2.116164
0.415400,-2.198933
0.415500,-2.320976
0.415600,-2.400175
0.415700,-2.332661
0.415800,-2.297606
0.415900,-2.244375
0.416000,-2.308967
0.416100,-2.362523
0.416200,-2.384270
0.416300,-2.299879
0.416400,-2.255411
0.416500,-2.232365
0.416600,-2.252489
0.416700,-2.213864
0.416800,-2.196337
0.416900,-2.120384
0.417000,-2.118437
0.417100,-2.192766
0.417200,-2.215811
0.417300,-2.172317
0.417400,-2.027553
0.417500,-1.967181
0.417600,-2.000938
0.417700,-1.962637
0.417800,-1.935372
0.417900,-1.936021
0.418000,-1.957768
0.418100,-1.958093
0.418200,-1.981463
0.418300,-2.039238
0.418400,-2.074293
0.418500,-2.109348
0.418600,-2.183353
0.418700,-2.194714
0.418800,-2.228795
0.418900,-2.274886
0.419000,-2.315783
0.419100,-2.424194
0.419200,-2.472232
0.419300,-2.614400
0.419400,-2.850697
0.419500,-3.109391
0.419600,-3.190212
0.419700,-3.006822
0.419800,-2.888349
0.419900,-2.851022
0.420000,-3.154832
0.420100,-3.390805
0.420200,-3.494997
0.420300,-3.357373
0.420400,-3.178852
0.420500,-3.073362
0.420600,-3.139252
0.420700,-3.296676
0.420800,-3.354127
0.420900,-3.334328
0.421000,-3.254155
0.421100,-3.217477
0.421200,-3.193458
0.421300,-3.237926
0.421400,-3.224618
0.421500,-3.209038
0.421600,-3.167491
0.421700,-3.132111
0.421800,-3.166193
0.421900,-3.131787
0.422000,-3.073037
0.422100,-3.039605
0.422200,-2.975986
0.422300,-2.992216
0.422400,-2.932168
0.422500,-2.874067
0.422600,-2.663737
0.422700,-2.620892
0.422800,-2.706582
0.422900,-2.874067
0.423000,-2.992540
0.423100,-2.885752
0.423200,-2.631278
0.423300,-2.491707
0.423400,-2.519297
0.423500,-2.644911
0.423600,-2.774744
0.423700,-2.733522
0.423800,-2.544614
0.423900,-2.391736
0.424000,-2.306695
0.424100,-2.316757
0.424200,-2.314809
0.424300,-2.291764
0.424400,-2.224900
0.424500,-2.135964
0.424600,-2.083057
0.424700,-2.007429
0.424800,-1.882789
0.424900,-1.779897
0.425000,-1.708813
0.425100,-1.728288
0.425200,-1.656555
0.425300,-1.638703
0.425400,-1.512116
0.425500,-1.410522
0.425600,-1.318016
0.425700,-1.180068
0.425800,-1.197271
0.425900,-1.132679
0.426000,-1.038226
0.426100,-0.951562
0.426200,-0.830493
0.426300,-0.743181
0.426400,-0.727276
0.426500,-0.699038
0.426600,-0.691248
0.426700,-0.648403
0.426800,-0.651649
0.426900,-0.610427
0.427000,-0.533825
0.427100,-0.578293
0.427200,-0.593873
0.427300,-0.636393
0.427400,-0.695143
0.427500,-0.698713
0.427600,-0.771419
0.427700,-0.600365
0.427800,-0.481568
0.427900,-0.318628
0.428000,-0.625682
0.428100,-0.974932
0.428200,-0.913586
0.428300,-0.813615
0.428400,-0.615945
0.428500,-0.512403
0.428600,-0.631200
0.428700,-0.814589
0.428800,-0.908068
0.428900,-0.789596
0.429000,-0.707477
0.429100,-0.630551
0.429200,-0.639964
0.429300,-0.681186
0.429400,-0.780508
0.429500,-0.805176
0.429600,-0.770121
0.429700,-0.780832
0.429800,-0.815563
0.429900,-0.831792
0.430000,-0.862627
0.430100,-0.947667
0.430200,-1.106388
0.430300,-1.115801
0.430400,-1.237195
0.430500,-1.182989
0.430600,-1.248555
0.430700,-1.176498
0.430800,-1.244335
0.430900,-1.374818
0.431000,-1.622149
0.431100,-1.620851
0.431200,-1.542627
0.431300,-1.334245
0.431400,-1.368651
0.431500,-1.529968
0.431600,-1.748737
0.431700,-1.763018
0.431800,-1.657529
0.431900,-1.470894
0.432000,-1.424803
0.432100,-1.562426
0.432200,-1.694207
0.432300,-1.662073
0.432400,-1.628316
0.432500,-1.566646
0.432600,-1.575085
0.432700,-1.566646
0.432800,-1.595209
0.432900,-1.621500
0.433000,-1.565672
0.433100,-1.568593
0.433200,-1.583524
0.433300,-1.568593
0.433400,-1.501729
0.433500,-1.470894
0.433600,-1.453691
0.433700,-1.509844
0.433800,-1.626044
0.433900,-1.619877
0.434000,-1.586445
0.434100,-1.489395
0.434200,-1.550092
0.434300,-1.607868
0.434400,-1.601701
0.434500,-1.626044
0.434600,-1.633185
0.434700,-1.667591
0.434800,-1.687391
0.434900,-1.691610
0.435000,-1.728613
0.435100,-1.761395
0.435200,-1.789634
0.435300,-1.808460
0.435400,-1.855200
0.435500,-1.876298
0.435600,-1.913949
0.435700,-1.933749
0.435800,-1.993797
0.435900,-2.026904
0.436000,-2.112919
0.436100,-2.409263
0.436200,-2.576424
0.436300,-2.558896
0.436400,-2.317406
0.436500,-2.183029
0.436600,-2.336232
0.436700,-2.565388
0.436800,-2.839012
0.436900,-2.838038
0.437000,-2.690353
0.437100,-2.542667
0.437200,-2.611154
0.437300,-2.745532
0.437400,-2.922105
0.437500,-3.001629
0.437600,-2.977609
0.437700,-2.954888
0.437800,-2.967547
0.437900,-3.045123
0.438000,-3.066545
0.438100,-3.097056
0.438200,-3.099004
0.438300,-3.105820
0.438400,-3.163921
0.438500,-3.231434
0.438600,-3.264542
0.438700,-3.219749
0.438800,-3.200274
0.438900,-3.273306
0.439000,-3.327836
0.439100,-3.384314
0.439200,-3.290509
0.439300,-3.205143
0.439400,-3.231110
0.439500,-3.407684
0.439600,-3.618664
0.439700,-3.713118
0.439800,-3.579065
0.439900,-3.401517
0.440000,-3.369707
0.440100,-3.534272
0.440200,-3.757262
0.440300,-3.889044
0.440400,-3.848146
0.440500,-3.703381
0.440600,-3.644631
0.440700,-3.641710
0.440800,-3.684555
0.440900,-3.701433
0.441000,-3.655991
0.441100,-3.610225
0.441200,-3.552773
0.441300,-3.485584
0.441400,-3.387560
0.441500,-3.202871
0.441600,-3.078555
0.441700,-2.996111
0.441800,-2.955213
0.441900,-2.888673
0.442000,-2.777341
0.442100,-2.567011
0.442200,-2.471583
0.442300,-2.255411
0.442400,-2.171668
0.442500,-2.104479
0.442600,-2.009377
0.442700,-1.867534
0.442800,-1.727963
0.442900,-1.578980
0.443000,-1.429997
0.443100,-1.428374
0.443200,-1.352421
0.443300,-1.349176
0.443400,-1.282636
0.443500,-1.254073
0.443600,-1.179094
0.443700,-1.110283
0.443800,-1.077176
0.443900,-1.040498
0.444000,-0.985643
0.444100,-0.994407
0.444200,-0.890216
0.444300,-0.885348
0.444400,-0.512728
0.444500,-0.330637
0.444600,-0.097588
0.444700,-0.561090
0.444800,-0.567582
0.444900,-0.532202
0.445000,-0.335181
0.445100,-0.031048
0.445200,-0.050848
0.445300,-0.163153
0.445400,-0.376079
0.445500,-0.429310
0.445600,-0.365367
0.445700,-0.277730
0.445800,-0.214437
0.445900,-0.307592
0.446000,-0.458198
0.446100,-0.492928
0.446200,-0.576670
0.446300,-0.603286
0.446400,-0.661386
0.446500,-0.699362
0.446600,-0.800307
0.446700,-0.844450
0.446800,-0.979152
0.446900,-1.059973
0.447000,-1.113529
0.447100,-1.271276
0.447200,-1.307304
0.447300,-1.337491
0.447400,-1.338140
0.447500,-1.444278
0.447600,-1.672784
0.447700,-1.889606
0.447800,-1.897720
0.447900,-1.752632
0.448000,-1.616956
0.448100,-1.691610
0.448200,-1.925634
0.448300,-2.167773
0.448400,-2.178160
0.448500,-2.045730
0.448600,-1.869806
0.448700,-1.898369
0.448800,-2.024632
0.448900,-2.172642
0.449000,-2.148947
0.449100,-2.160957
0.449200,-2.068775
0.449300,-2.093768
0.449400,-2.110647
0.449500,-2.133367
0.449600,-2.139859
0.449700,-2.096365
0.449800,-2.102857
0.449900,-2.098312
0.450000,-2.062284
0.450100,-2.008727
0.450200,-1.947381
0.450300,-1.899668
0.450400,-1.955171
0.450500,-1.991525
0.450600,-1.959715
0.450700,-1.874999
0.450800,-1.744517
0.450900,-1.761720
0.451000,-1.731534
0.451100,-1.688364
0.451200,-1.672784
0.451300,-1.646169
0.451400,-1.641300
0.451500,-1.615982
0.451600,-1.606569
0.451700,-1.618579
0.451800,-1.608842
0.451900,-1.640651
0.452000,-1.593262
0.452100,-1.645844
0.452200,-1.629615
0.452300,-1.660126
0.452400,-1.664345
0.452500,-1.670512
0.452600,-1.733481
0.452700,-1.816250
0.452800,-2.134990
0.452900,-2.248594
0.453000,-2.152842
0.453100,-1.944785
0.453200,-1.842216
0.453300,-2.044107
0.453400,-2.322924
0.453500,-2.538772
0.453600,-2.453082
0.453700,-2.313186
0.453800,-2.189196
0.453900,-2.257683
0.454000,-2.437502
0.454100,-2.584538
0.454200,-2.639068
0.454300,-2.565388
0.454400,-2.574476
0.454500,-2.604662
0.454600,-2.690677
0.454700,-2.762086
0.454800,-2.807527
0.454900,-2.801685
0.455000,-2.829924
0.455100,-2.910420
0.455200,-2.936063
0.455300,-2.988645
0.455400,-2.954239
0.455500,-2.992216
0.455600,-3.021104
0.455700,-3.071414
0.455800,-3.083099
0.455900,-2.932817
0.456000,-2.884454
0.456100,-2.959108
0.456200,-3.156455
0.456300,-3.364189
0.456400,-3.371006
0.456500,-3.190861
0.456600,-3.023700
0.456700,-3.022402
0.456800,-3.171386
0.456900,-3.379120
0.457000,-3.427808
0.457100,-3.346986
0.457200,-3.220723
0.457300,-3.154183
0.457400,-3.149639
0.457500,-3.187940
0.457600,-3.232733
0.457700,-3.205143
0.457800,-3.164570
0.457900,-3.112312
0.458000,-3.048044
0.458100,-2.935738
0.458200,-2.810124
0.458300,-2.780262
0.458400,-2.761761
0.458500,-2.709178
0.458600,-2.695870
0.458700,-2.600443
0.458800,-2.456003
0.458900,-2.413807
0.459000,-2.177511
0.459100,-2.221329
0.459200,-2.202828
0.459300,-2.161606
0.459400,-2.107725
0.459500,-2.023658
0.459600,-1.951601
0.459700,-1.933100
0.459800,-1.943162
0.459900,-2.031773
0.460000,-1.986007
0.460100,-2.132718
0.460200,-2.076565
0.460300,-2.082732
0.460400,-2.031773
0.460500,-2.049300
0.460600,-2.102857
0.460700,-2.075592
0.460800,-2.208671
0.460900,-2.149597
0.461000,-2.071372
0.461100,-1.847734
0.461200,-1.610140
0.461300,-1.789959
0.461400,-1.998341
0.461500,-2.283325
0.461600,-2.077864
0.461700,-1.856498
0.461800,-1.675706
0.461900,-1.619553
0.462000,-1.832804
0.462100,-1.905186
0.462200,-1.996718
0.462300,-1.824689
0.462400,-1.665319
0.462500,-1.591314
0.462600,-1.616632
0.462700,-1.671161
0.462800,-1.652660
0.462900,-1.653309
0.463000,-1.644546
0.463100,-1.608842
0.463200,-1.594235
0.463300,-1.572164
0.463400,-1.617930
0.463500,-1.619553
0.463600,-1.742245
0.463700,-1.710436
0.463800,-1.740947
0.463900,-1.739973
0.464000,-1.652985
0.464100,-1.689013
0.464200,-1.723095
0.464300,-2.020737
0.464400,-2.080460
0.464500,-1.990551
0.464600,-1.790608
0.464700,-1.688689
0.464800,-1.819496
0.464900,-2.036966
0.465000,-2.178484
0.465100,-2.085978
0.465200,-1.876947
0.465300,-1.704918
0.465400,-1.772107
0.465500,-1.877921
0.465600,-1.894474
0.465700,-1.828584
0.465800,-1.807486
0.465900,-1.724718
0.466000,-1.773080
0.466100,-1.813329
0.466200,-1.853252
0.466300,-1.809758
0.466400,-1.770484
0.466500,-1.816899
0.466600,-1.851954
0.466700,-1.847734
0.466800,-1.825663
0.466900,-1.825338
0.467000,-1.838646
0.467100,-1.988928
0.467200,-2.045730
0.467300,-2.051248
0.467400,-1.912002
0.467500,-1.945109
0.467600,-2.012947
0.467700,-2.049300
0.467800,-2.076565
0.467900,-2.111945
0.468000,-2.143105
0.468100,-2.170045
0.468200,-2.197310
0.468300,-2.224575
0.468400,-2.254112
0.468500,-2.282351
0.468600,-2.328442
0.468700,-2.366094
0.468800,-2.379726
0.468900,-2.415755
0.469000,-2.390437
0.469100,-2.463793
0.469200,-2.457626
0.469300,-2.501769
0.469400,-2.660491
0.469500,-2.847451
0.469600,-2.946774
0.469700,-2.710152
0.469800,-2.637121
0.469900,-2.612128
0.470000,-2.873742
0.470100,-3.170088
0.470200,-3.235005
0.470300,-3.179501
0.470400,-2.991891
0.470500,-3.021753
0.470600,-3.135033
0.470700,-3.307063
0.470800,-3.433326
0.470900,-3.394376
0.471000,-3.350881
0.471100,-3.305764
0.471200,-3.381717
0.471300,-3.411254
0.471400,-3.430405
0.471500,-3.415798
0.471600,-3.371979
0.471700,-3.401841
0.471800,-3.446309
0.471900,-3.479742
0.472000,-3.415474
0.472100,-3.337249
0.472200,-3.349259
0.472300,-3.340170
0.472400,-3.380094
0.472500,-3.280122
0.472600,-3.150937
0.472700,-3.066221
0.472800,-3.167816
0.472900,-3.376199
0.473000,-3.542062
0.473100,-3.444362
0.473200,-3.258050
0.473300,-3.165868
0.473400,-3.249936
0.473500,-3.461565
0.473600,-3.645605
0.473700,-3.680660
0.473800,-3.577442
0.473900,-3.457345
0.474000,-3.449231
0.474100,-3.512200
0.474200,-3.562835
0.474300,-3.556019
0.474400,-3.497918
0.474500,-3.449880
0.474600,-3.397622
0.474700,-3.317125
0.474800,-3.198976
0.474900,-3.072063
0.475000,-2.990593
0.475100,-2.970793
0.475200,-2.925676
0.475300,-2.891595
0.475400,-2.754620
0.475500,-2.641665
0.475600,-2.594276
0.475700,-2.352786
0.475800,-2.380375
0.475900,-2.362199
0.476000,-2.280728
0.476100,-2.189845
0.476200,-2.076890
0.476300,-2.002560
0.476400,-1.986331
0.476500,-2.000613
0.476600,-1.992174
0.476700,-1.999315
0.476800,-2.011973
0.476900,-1.980813
0.477000,-1.905835
0.477100,-1.930178
0.477200,-1.912002
0.477300,-1.930503
0.477400,-1.981463
0.477500,-1.939591
0.477600,-1.914274
0.477700,-1.759772
0.477800,-1.484202
0.477900,-1.420259
0.478000,-1.507572
0.478100,-1.981787
0.478200,-1.836374
0.478300,-1.855200
0.478400,-1.481281
0.478500,-1.405977
0.478600,-1.416040
0.478700,-1.612737
0.478800,-1.778598
0.478900,-1.731534
0.479000,-1.654932
0.479100,-1.544250
0.479200,-1.526722
0.479300,-1.625720
0.479400,-1.627343
0.479500,-1.700374
0.479600,-1.718226
0.479700,-1.682522
0.479800,-1.725691
0.479900,-1.738999
0.480000,-1.772756
0.480100,-1.788985
0.480200,-1.865262
0.480300,-1.930828
0.480400,-2.017167
0.480500,-2.107076
0.480600,-2.060336
0.480700,-2.064880
0.480800,-2.085978
0.480900,-2.194714
0.481000,-2.468986
0.481100,-2.457301
0.481200,-2.388165
0.481300,-2.160308
0.481400,-2.195363
0.481500,-2.347592
0.481600,-2.606610
0.481700,-2.663087
0.481800,-2.600767
0.481900,-2.411860
0.482000,-2.369664
0.482100,-2.475478
0.482200,-2.579669
0.482300,-2.642963
0.482400,-2.653350
0.482500,-2.628682
0.482600,-2.638095
0.482700,-2.684835
0.482800,-2.757541
0.482900,-2.815317
0.483000,-2.808826
0.483100,-2.842258
0.483200,-2.898411
0.483300,-2.936712
0.483400,-2.948072
0.483500,-2.962354
0.483600,-2.983127
0.483700,-3.066545
0.483800,-3.210985
0.483900,-3.226241
0.484000,-3.210336
0.484100,-3.060703
0.484200,-3.086345
0.484300,-3.122374
0.484400,-3.085696
0.484500,-3.052588
0.484600,-3.048693
0.484700,-3.043825
0.484800,-3.039280
0.484900,-3.052913
0.485000,-3.053562
0.485100,-3.074011
0.485200,-3.055834
0.485300,-3.079529
0.485400,-3.089591
0.485500,-3.119128
0.485600,-3.110689
0.485700,-3.093161
0.485800,-3.147367
0.485900,-3.187291
0.486000,-3.249611
0.486100,-3.478443
0.486200,-3.712469
0.486300,-3.684230
0.486400,-3.450854
0.486500,-3.333678
0.486600,-3.331082
0.486700,-3.611199
0.486800,-3.847497
0.486900,-3.877359
0.487000,-3.779658
0.487100,-3.628402
0.487200,-3.659237
0.487300,-3.785825
0.487400,-3.938056
0.487500,-4.001999
0.487600,-3.991288
0.487700,-3.919879
0.487800,-3.970839
0.487900,-3.980252
0.488000,-4.028940
0.488100,-4.014983
0.488200,-4.029589
0.488300,-4.028291
0.488400,-4.071785
0.488500,-4.122096
0.488600,-4.186689
0.488700,-4.127290
0.488800,-4.096129
0.488900,-4.100674
0.489000,-4.159748
0.489100,-4.157152
0.489200,-4.074382
0.489300,-3.898781
0.489400,-3.926371
0.489500,-4.031212
0.489600,-4.202918
0.489700,-4.253878
0.489800,-4.133457
0.489900,-3.898457
0.490000,-3.827697
0.490100,-3.900080
0.490200,-4.058477
0.490300,-4.119500
0.490400,-4.053933
0.490500,-3.899106
0.490600,-3.778360
0.490700,-3.729672
0.490800,-3.734541
0.490900,-3.717987
0.491000,-3.646578
0.491100,-3.590425
0.491200,-3.512849
0.491300,-3.442090
0.491400,-3.327187
0.491500,-3.210012
0.491600,-3.066870
0.491700,-2.968196
0.491800,-2.917886
0.491900,-2.847451
0.492000,-2.755594
0.492100,-2.542342
0.492200,-2.379726
0.492300,-2.160308
0.492400,-2.089873
0.492500,-2.055143
0.492600,-1.969128
0.492700,-1.833777
0.492800,-1.716928
0.492900,-1.585147
0.493000,-1.531915
0.493100,-1.457586
0.493200,-1.461481
0.493300,-1.415715
0.493400,-1.409548
0.493500,-1.390398
0.493600,-1.340087
0.493700,-1.281987
0.493800,-1.284584
0.493900,-1.305032
0.494000,-1.324507
0.494100,-1.463429
0.494200,-1.391371
0.494300,-1.458560
0.494400,-1.209605
0.494500,-0.974283
0.494600,-0.966169
0.494700,-1.215123
0.494800,-1.552040
0.494900,-1.436164
0.495000,-1.400460
0.495100,-1.166760
0.495200,-1.198569
0.495300,-1.376765
0.495400,-1.553663
0.495500,-1.681548
0.495600,-1.559830
0.495700,-1.468622
0.495800,-1.450770
0.495900,-1.519257
0.496000,-1.678302
0.496100,-1.620851
0.496200,-1.695830
0.496300,-1.724393
0.496400,-1.750035
0.496500,-1.818197
0.496600,-1.897396
0.496700,-1.930178
0.496800,-1.985682
0.496900,-2.184976
0.497000,-2.201854
0.497100,-2.372910
0.497200,-2.457301
0.497300,-2.437502
0.497400,-2.445616
0.497500,-2.479698
0.497600,-2.743909
0.497700,-2.932168
0.497800,-2.972091
0.497900,-2.842907
0.498000,-2.683861
0.498100,-2.784157
0.498200,-2.982154
0.498300,-3.208713
0.498400,-3.178202
0.498500,-3.040579
0.498600,-2.876015
0.498700,-2.882506
0.498800,-3.005524
0.498900,-3.089266
0.499000,-3.036684
0.499100,-3.018182
0.499200,-2.941256
0.499300,-3.020454
0.499400,-3.057457
0.499500,-3.089915
0.499600,-3.076283
0.499700,-3.036684
0.499800,-3.094784
0.499900,-3.133085
0.500000,-3.197678
0.500100,-3.200274
0.500200,-3.205468
0.500300,-3.187615
0.500400,-3.300246
0.500500,-3.410280
0.500600,-3.408658
0.500700,-3.350881
0.500800,-3.270384
0.500900,-3.318098
0.501000,-3.324915
0.501100,-3.284666
0.501200,-3.282394
0.501300,-3.294404
0.501400,-3.277201
0.501500,-3.274604
0.501600,-3.229811
0.501700,-3.230136
0.501800,-3.242470
0.501900,-3.248637
0.502000,-3.261621
0.502100,-3.277850
0.502200,-3.242470
0.502300,-3.278174
0.502400,-3.302843
0.502500,-3.329783
0.502600,-3.396648
0.502700,-3.491751
0.502800,-3.791668
0.502900,-3.957207
0.503000,-3.842628
0.503100,-3.613146
0.503200,-3.457994
0.503300,-3.624507
0.503400,-3.894562
0.503500,-4.104244
0.503600,-4.090611
0.503700,-3.920853
0.503800,-3.854313
0.503900,-3.884824
0.504000,-4.071136
0.504100,-4.193505
0.504200,-4.185391
0.504300,-4.118201
0.504400,-4.067566
0.504500,-4.070812
0.504600,-4.125342
0.504700,-4.168512
0.504800,-4.160397
0.504900,-4.133457
0.505000,-4.154230
0.505100,-4.199023
0.505200,-4.237974
0.505300,-4.289583
0.505400,-4.251931
0.505500,-4.276275
0.505600,-4.285363
0.505700,-4.308084
0.505800,-4.362290
0.505900,-4.233105
0.506000,-4.098077
0.506100,-4.146440
0.506200,-4.289258
0.506300,-4.492774
0.506400,-4.498617
0.506500,-4.312628
0.506600,-4.108139
0.506700,-4.088339
0.506800,-4.232131
0.506900,-4.425260
0.507000,-4.481413
0.507100,-4.350280
0.507200,-4.187014
0.507300,-4.125018
0.507400,-4.116578
0.507500,-4.181171
0.507600,-4.153257
0.507700,-4.094831
0.507800,-4.030238
0.507900,-3.965970
0.508000,-3.948118
0.508100,-3.877683
0.508200,-3.758236
0.508300,-3.665404
0.508400,-3.625156
0.508500,-3.597566
0.508600,-3.569976
0.508700,-3.474873
0.508800,-3.296351
0.508900,-3.185668
0.509000,-3.039930
0.509100,-3.076283
0.509200,-3.054211
0.509300,-3.029218
0.509400,-2.942554
0.509500,-2.881208
0.509600,-2.805580
0.509700,-2.754296
0.509800,-2.794869
0.509900,-2.831547
0.510000,-2.862382
0.510100,-2.850372
0.510200,-2.899709
0.510300,-2.811422
0.510400,-2.830897
0.510500,-2.798439
0.510600,-2.870497
0.510700,-2.821484
0.510800,-2.926650
0.510900,-2.839661
0.511000,-2.822783
0.511100,-2.556949
0.511200,-2.382323
0.511300,-2.405368
0.511400,-2.753646
0.511500,-2.865952
0.511600,-2.716319
0.511700,-2.425817
0.511800,-2.160308
0.511900,-2.196337
0.512000,-2.252165
0.512100,-2.456652
0.512200,-2.442046
0.512300,-2.313836
0.512400,-2.103506
0.512500,-2.016193
0.512600,-2.047353
0.512700,-2.024632
0.512800,-2.031773
0.512900,-2.033071
0.513000,-1.989902
0.513100,-1.945758
0.513200,-1.946083
0.513300,-1.998016
0.513400,-1.921415
0.513500,-1.959391
0.513600,-2.001587
0.513700,-2.032097
0.513800,-2.024957
0.513900,-2.034045
0.514000,-1.927582
0.514100,-1.897720
0.514200,-1.924336
0.514300,-2.127525
0.514400,-2.246971
0.514500,-2.166475
0.514600,-2.015544
0.514700,-1.857472
0.514800,-2.023983
0.514900,-2.242103
0.515000,-2.413483
0.515100,-2.356356
0.515200,-2.242103
0.515300,-2.121682
0.515400,-2.215487
0.515500,-2.380375
0.515600,-2.480996
0.515700,-2.446266
0.515800,-2.503068
0.515900,-2.484242
0.516000,-2.561817
0.516100,-2.617970
0.516200,-2.673799
0.516300,-2.708205
0.516400,-2.706257
0.516500,-2.801360
0.516600,-2.832845
0.516700,-2.855566
0.516800,-2.836091
0.516900,-2.853294
0.517000,-2.884454
0.517100,-3.029218
0.517200,-3.074335
0.517300,-3.096083
0.517400,-3.078880
0.517500,-2.985724
0.517600,-3.047395
0.517700,-3.084398
0.517800,-3.076608
0.517900,-3.107768
0.518000,-3.125295
0.518100,-3.142498
0.518200,-3.135357
0.518300,-3.153209
0.518400,-3.167491
0.518500,-3.176904
0.518600,-3.182097
0.518700,-3.204494
0.518800,-3.218775
0.518900,-3.208064
0.519000,-3.212284
0.519100,-3.254480
0.519200,-3.286614
0.519300,-3.350881
0.519400,-3.501489
0.519500,-3.769596
0.519600,-3.807248
0.519700,-3.612172
0.519800,-3.397297
0.519900,-3.346013
0.520000,-3.549527
0.520100,-3.814389
0.520200,-3.889693
0.520300,-3.774790
0.520400,-3.577766
0.520500,-3.480066
0.520600,-3.579714
0.520700,-3.698837
0.520800,-3.794265
0.520900,-3.783229
0.521000,-3.740708
0.521100,-3.658913
0.521200,-3.691371
0.521300,-3.725777
0.521400,-3.736164
0.521500,-3.734216
0.521600,-3.716040
0.521700,-3.745901
0.521800,-3.836461
0.521900,-3.895211
0.522000,-3.879631
0.522100,-3.880604
0.522200,-3.880929
0.522300,-3.975708
0.522400,-3.960128
0.522500,-3.960453
0.522600,-3.815687
0.522700,-3.756288
0.522800,-3.884175
0.522900,-4.080225
0.523000,-4.240895
0.523100,-4.196751
0.523200,-3.991613
0.523300,-3.878981
0.523400,-3.936758
0.523500,-4.128588
0.523600,-4.295750
0.523700,-4.325612
0.523800,-4.214928
0.523900,-4.116254
0.524000,-4.097752
0.524100,-4.128588
0.524200,-4.178250
0.524300,-4.187338
0.524400,-4.182794
0.524500,-4.137676
0.524600,-4.087041
0.524700,-4.020176
0.524800,-3.958180
0.524900,-3.848146
0.525000,-3.786150
0.525100,-3.755639
0.525200,-3.713443
0.525300,-3.696564
0.525400,-3.540439
0.525500,-3.416123
0.525600,-3.186642
0.525700,-3.127567
0.525800,-3.139901
0.525900,-3.090240
0.526000,-2.996435
0.526100,-2.875365
0.526200,-2.756243
0.526300,-2.670553
0.526400,-2.609531
0.526500,-2.576099
0.526600,-2.572204
0.526700,-2.528061
0.526800,-2.596872
0.526900,-2.487488
0.527000,-2.504691
0.527100,-2.400499
0.527200,-2.447564
0.527300,-2.415755
0.527400,-2.481970
0.527500,-2.456977
0.527600,-2.478399
0.527700,-2.269368
0.527800,-2.111296
0.527900,-1.837023
0.528000,-2.106752
0.528100,-2.375831
0.528200,-2.372585
0.528300,-2.245998
0.528400,-2.000613
0.528500,-1.897071
0.528600,-1.960040
0.528700,-2.175888
0.528800,-2.232041
0.528900,-2.148947
0.529000,-2.058389
0.529100,-1.879219
0.529200,-1.955171
0.529300,-1.980489
0.529400,-2.069749
0.529500,-2.066503
0.529600,-2.018465
0.529700,-2.012298
0.529800,-2.015219
0.529900,-2.022360
0.530000,-2.062608
0.530100,-2.109997
0.530200,-2.129148
0.530300,-2.286246
0.530400,-2.312862
0.530500,-2.358628
0.530600,-2.342399
0.530700,-2.258981
0.530800,-2.284299
0.530900,-2.390762
0.531000,-2.687107
0.531100,-2.704310
0.531200,-2.632252
0.531300,-2.406991
0.531400,-2.374857
0.531500,-2.544290
0.531600,-2.755269
0.531700,-2.826029
0.531800,-2.755269
0.531900,-2.589407
0.532000,-2.553054
0.532100,-2.654324
0.532200,-2.781236
0.532300,-2.822134
0.532400,-2.844205
0.532500,-2.868874
0.532600,-2.875041
0.532700,-2.953266
0.532800,-2.998383
0.532900,-3.083748
0.533000,-3.090565
0.533100,-3.133085
0.533200,-3.148016
0.533300,-3.155806
0.533400,-3.135033
0.533500,-3.089266
0.533600,-3.070116
0.533700,-3.115558
0.533800,-3.238251
0.533900,-3.214556
0.534000,-3.185019
0.534100,-3.043175
0.534200,-3.088617
0.534300,-3.094460
0.534400,-3.077906
0.534500,-3.055510
0.534600,-3.037657
0.534700,-3.002602
0.534800,-3.009743
0.534900,-2.983776
0.535000,-2.995461
0.535100,-2.987022
0.535200,-2.989294
0.535300,-2.957810
0.535400,-2.971118
0.535500,-2.979232
0.535600,-2.979557
0.535700,-2.981829
0.535800,-3.050316
0.535900,-3.080503
0.536000,-3.177553
0.536100,-3.364514
0.536200,-3.624507
0.536300,-3.575819
0.536400,-3.390805
0.536500,-3.164894
0.536600,-3.309335
0.536700,-3.540114
0.536800,-3.790045
0.536900,-3.846198
0.537000,-3.732918
0.537100,-3.593996
0.537200,-3.588802
0.537300,-3.762131
0.537400,-3.963698
0.537500,-4.063346
0.537600,-4.037379
0.537700,-3.989016
0.537800,-4.006219
0.537900,-4.061074
0.538000,-4.141896
0.538100,-4.171433
0.538200,-4.163643
0.538300,-4.190909
0.538400,-4.259396
0.538500,-4.306461
0.538600,-4.309383
0.538700,-4.317173
0.538800,-4.305163
0.538900,-4.333402
0.539000,-4.396047
0.539100,-4.431752
0.539200,-4.355474
0.539300,-4.196427
0.539400,-4.174030
0.539500,-4.281468
0.539600,-4.437919
0.539700,-4.506082
0.539800,-4.384362
0.539900,-4.210708
0.540000,-4.113657
0.540100,-4.220121
0.540200,-4.385336
0.540300,-4.500564
0.540400,-4.473299
0.540500,-4.363588
0.540600,-4.260695
0.540700,-4.230508
0.540800,-4.272380
0.540900,-4.295101
0.541000,-4.277573
0.541100,-4.260045
0.541200,-4.254852
0.541300,-4.235052
0.541400,-4.155204
0.541500,-4.029265
0.541600,-3.967918
0.541700,-3.943899
0.541800,-3.950066
0.541900,-3.944548
0.542000,-3.923774
0.542100,-3.768622
0.542200,-3.704030
0.542300,-3.618664
0.542400,-3.517393
0.542500,-3.494348
0.542600,-3.465135
0.542700,-3.383015
0.542800,-3.275578
0.542900,-3.203845
0.543000,-3.133410
0.543100,-3.083099
0.543200,-3.065896
0.543300,-3.061027
0.543400,-3.044474
0.543500,-3.069467
0.543600,-2.957161
0.543700,-2.951967
0.543800,-2.894191
0.543900,-2.966573
0.544000,-2.979881
0.544100,-3.068493
0.544200,-3.177229
0.544300,-3.000655
0.544400,-2.984750
0.544500,-2.584538
0.544600,-2.709828
0.544700,-2.850372
0.544800,-3.272332
0.544900,-3.129190
0.545000,-3.051290
0.545100,-2.846477
0.545200,-2.808501
0.545300,-2.893867
0.545400,-3.059405
0.545500,-3.138279
0.545600,-3.015910
0.545700,-2.875041
0.545800,-2.803308
0.545900,-2.852644
0.546000,-2.859136
0.546100,-2.891270
0.546200,-2.899385
0.546300,-2.841609
0.546400,-2.808501
0.546500,-2.796167
0.546600,-2.821484
0.546700,-2.773121
0.546800,-2.851671
0.546900,-2.798439
0.547000,-2.955538
0.547100,-2.894191
0.547200,-2.956511
0.547300,-2.824406
0.547400,-2.814019
0.547500,-2.781236
0.547600,-2.948072
0.547700,-3.092837
0.547800,-2.999032
0.547900,-2.880559
0.548000,-2.697493
0.548100,-2.750401
0.548200,-2.940282
0.548300,-3.123997
0.548400,-3.132111
0.548500,-3.036684
0.548600,-2.891595
0.548700,-2.902306
0.548800,-3.011691
0.548900,-3.101601
0.549000,-3.043500
0.549100,-3.076932
0.549200,-3.049992
0.549300,-3.078555
0.549400,-3.120426
0.549500,-3.148990
0.549600,-3.152885
0.549700,-3.099653
0.549800,-3.118479
0.549900,-3.161649
0.550000,-3.157104
0.550100,-3.114259
0.550200,-3.077257
0.550300,-3.055510
0.550400,-3.124971
0.550500,-3.158078
0.550600,-3.128216
0.550700,-3.126269
0.550800,-3.132436
0.550900,-3.078555
0.551000,-3.104522
0.551100,-3.052264
0.551200,-3.087319
0.551300,-3.103873
0.551400,-3.098679
0.551500,-3.106145
0.551600,-3.100951
0.551700,-3.102574
0.551800,-3.087968
0.551900,-3.112961
0.552000,-3.140551
0.552100,-3.111987
0.552200,-3.110040
0.552300,-3.130164
0.552400,-3.181773
0.552500,-3.204169
0.552600,-3.280771
0.552700,-3.335301
0.552800,-3.636192
0.552900,-3.768298
0.553000,-3.661185
0.553100,-3.455722
0.553200,-3.304790
0.553300,-3.457670
0.553400,-3.773491
0.553500,-3.946820
0.553600,-3.946495
0.553700,-3.762780
0.553800,-3.659562
0.553900,-3.670922
0.554000,-3.868270
0.554100,-3.979928
0.554200,-4.045169
0.554300,-3.980901
0.554400,-3.966944
0.554500,-3.984472
0.554600,-4.037379
0.554700,-4.061723
0.554800,-4.059776
0.554900,-4.046468
0.555000,-4.063671
0.555100,-4.130211
0.555200,-4.179873
0.555300,-4.147739
0.555400,-4.161696
0.555500,-4.148712
0.555600,-4.209085
0.555700,-4.237324
0.555800,-4.245114
0.555900,-4.140598
0.556000,-4.004596
0.556100,-4.065943
0.556200,-4.217525
0.556300,-4.408057
0.556400,-4.439542
0.556500,-4.271406
0.556600,-4.112683
0.556700,-4.092234
0.556800,-4.223692
0.556900,-4.409355
0.557000,-4.488230
0.557100,-4.425585
0.557200,-4.320094
0.557300,-4.283740
0.557400,-4.340867
0.557500,-4.398644
0.557600,-4.421040
0.557700,-4.411303
0.557800,-4.411627
0.557900,-4.414549
0.558000,-4.431752
0.558100,-4.376247
0.558200,-4.251931
0.558300,-4.167214
0.558400,-4.152607
0.558500,-4.155529
0.558600,-4.146116
0.558700,-4.101323
0.558800,-3.957207
0.558900,-3.894237
0.559000,-3.675142
0.559100,-3.724803
0.559200,-3.702407
0.559300,-3.649500
0.559400,-3.549527
0.559500,-3.483961
0.559600,-3.394376
0.559700,-3.341144
0.559800,-3.349583
0.559900,-3.353478
0.560000,-3.341468
0.560100,-3.335626
0.560200,-3.361268
0.560300,-3.303817
0.560400,-3.281096
0.560500,-3.277850
0.560600,-3.297650
0.560700,-3.219100
0.560800,-3.324915
0.560900,-3.237601
0.561000,-3.243444
0.561100,-2.948397
0.561200,-2.864329
0.561300,-2.739040
0.561400,-3.169439
0.561500,-3.329783
0.561600,-3.183720
0.561700,-2.972091
0.561800,-2.794544
0.561900,-2.754296
0.562000,-2.915938
0.562100,-3.045772
0.562200,-3.071414
0.562300,-2.848100
0.562400,-2.756892
0.562500,-2.695870
0.562600,-2.784806
0.562700,-2.805255
0.562800,-2.862707
0.562900,-2.790000
0.563000,-2.743909
0.563100,-2.733198
0.563200,-2.740014
0.563300,-2.754296
0.563400,-2.748128
0.563500,-2.790324
0.563600,-2.747804
0.563700,-2.815966
0.563800,-2.836091
0.563900,-2.796816
0.564000,-2.678018
0.564100,-2.589082
0.564200,-2.637121
0.564300,-2.771498
0.564400,-2.897112
0.564500,-2.788701
0.564600,-2.609856
0.564700,-2.369989
0.564800,-2.484567
0.564900,-2.632577
0.565000,-2.749427
0.565100,-2.655947
0.565200,-2.450485
0.565300,-2.261253
0.565400,-2.277807
0.565500,-2.349864
0.565600,-2.384919
0.565700,-2.299554
0.565800,-2.281702
0.565900,-2.198933
0.566000,-2.280079
0.566100,-2.313836
0.566200,-2.400824
0.566300,-2.425817
0.566400,-2.404719
0.566500,-2.453406
0.566600,-2.504691
0.566700,-2.523517
0.566800,-2.521244
0.566900,-2.542342
0.567000,-2.510209
0.567100,-2.625760
0.567200,-2.693274
0.567300,-2.730601
0.567400,-2.750076
0.567500,-2.772148
0.567600,-2.750401
0.567700,-2.759164
0.567800,-2.755918
0.567900,-2.778639
0.568000,-2.801036
0.568100,-2.812071
0.568200,-2.837064
0.568300,-2.845179
0.568400,-2.866277
0.568500,-2.889647
0.568600,-2.917237
0.568700,-2.923728
0.568800,-2.968521
0.568900,-2.923728
0.569000,-3.031166
0.569100,-3.038631
0.569200,-3.138279
0.569300,-3.129839
0.569400,-3.304141
0.569500,-3.577117
0.569600,-3.628077
0.569700,-3.491751
0.569800,-3.252857
0.569900,-3.253506
0.570000,-3.438844
0.570100,-3.731295
0.570200,-3.868270
0.570300,-3.776088
0.570400,-3.637815
0.570500,-3.552773
0.570600,-3.652421
0.570700,-3.835162
0.570800,-3.969541
0.570900,-3.929292
0.571000,-3.919230
0.571100,-3.891316
0.571200,-3.925722
0.571300,-4.014009
0.571400,-4.063995
0.571500,-4.113008
0.571600,-4.117552
0.571700,-4.167214
0.571800,-4.228885
0.571900,-4.286986
0.572000,-4.291855
0.572100,-4.258747
0.572200,-4.258747
0.572300,-4.305488
0.572400,-4.339894
0.572500,-4.360343
0.572600,-4.174030
0.572700,-4.147089
0.572800,-4.214928
0.572900,-4.410654
0.573000,-4.591124
0.573100,-4.552498
0.573200,-4.367808
0.573300,-4.252255
0.573400,-4.284065
0.573500,-4.483686
0.573600,-4.664480
0.573700,-4.743355
0.573800,-4.666428
0.573900,-4.563209
0.574000,-4.552173
0.574100,-4.587553
0.574200,-4.652146
0.574300,-4.662858
0.574400,-4.661235
0.574500,-4.639487
0.574600,-4.590475
0.574700,-4.539190
0.574800,-4.426558
0.574900,-4.303215
0.575000,-4.258098
0.575100,-4.201295
0.575200,-4.167214
0.575300,-4.140598
0.575400,-3.985121
0.575500,-3.864375
0.575600,-3.757911
0.575700,-3.613471
0.575800,-3.620612
0.575900,-3.572573
0.576000,-3.513174
0.576100,-3.376848
0.576200,-3.302194
0.576300,-3.191510
0.576400,-3.165868
0.576500,-3.166193
0.576600,-3.166193
0.576700,-3.172035
0.576800,-3.191186
0.576900,-3.126918
0.577000,-3.171062
0.577100,-3.072063
0.577200,-3.192484
0.577300,-3.102574
0.577400,-3.253831
0.577500,-3.189563
0.577600,-3.205143
0.577700,-3.020454
0.577800,-2.800711
0.577900,-2.699441
0.578000,-2.756243
0.578100,-3.198976
0.578200,-3.122374
0.578300,-3.027920
0.578400,-2.718267
0.578500,-2.608882
0.578600,-2.651727
0.578700,-2.789026
0.578800,-2.923728
0.578900,-2.874716
0.579000,-2.692300
0.579100,-2.578696
0.579200,-2.542018
0.579300,-2.648157
0.579400,-2.596223
0.579500,-2.683212
0.579600,-2.646209
0.579700,-2.633550
0.579800,-2.640042
0.579900,-2.657894
0.580000,-2.683861
0.580100,-2.669255
0.580200,-2.809799
0.580300,-2.765331
0.580400,-2.780587
0.580500,-2.837389
0.580600,-2.786754
0.580700,-2.755269
0.580800,-2.725732
0.580900,-2.802334
0.581000,-3.021104
0.581100,-3.013963
0.581200,-2.921781
0.581300,-2.688405
0.581400,-2.621865
0.581500,-2.773446
0.581600,-3.000330
0.581700,-3.089915
0.581800,-2.999681
0.581900,-2.785131
0.582000,-2.748128
0.582100,-2.830573
0.582200,-2.936712
0.582300,-2.956836
0.582400,-2.945151
0.582500,-2.944177
0.582600,-2.912368
0.582700,-2.987996
0.582800,-2.988321
0.582900,-2.967223
0.583000,-2.951318
0.583100,-2.942230
0.583200,-2.977934
0.583300,-2.981829
0.583400,-2.928597
0.583500,-2.919833
0.583600,-2.885427
0.583700,-2.945800
0.583800,-3.060054
0.583900,-3.083099
0.584000,-3.083099
0.584100,-3.111663
0.584200,-3.055510
0.584300,-3.099328
0.584400,-3.097706
0.584500,-3.150288
0.584600,-3.147691
0.584700,-3.186966
0.584800,-3.191510
0.584900,-3.247339
0.585000,-3.262919
0.585100,-3.306738
0.585200,-3.335301
0.585300,-3.375225
0.585400,-3.398271
0.585500,-3.453775
0.585600,-3.480066
0.585700,-3.507007
0.585800,-3.582960
0.585900,-3.604707
0.586000,-3.713118
0.586100,-3.923774
0.586200,-4.229210
0.586300,-4.207138
0.586400,-3.995183
0.586500,-3.856261
0.586600,-3.859831
0.586700,-4.132808
0.586800,-4.385336
0.586900,-4.441489
0.587000,-4.315225
0.587100,-4.152283
0.587200,-4.109437
0.587300,-4.231157
0.587400,-4.395073
0.587500,-4.499915
0.587600,-4.456096
0.587700,-4.400916
0.587800,-4.399618
0.587900,-4.416172
0.588000,-4.478817
0.588100,-4.482063
0.588200,-4.511600
0.588300,-4.496994
0.588400,-4.560937
0.588500,-4.639163
0.588600,-4.683631
0.588700,-4.628451
0.588800,-4.608652
0.588900,-4.600537
0.589000,-4.651497
0.589100,-4.657015
0.589200,-4.597616
0.589300,-4.436296
0.589400,-4.360343
0.589500,-4.506407
0.589600,-4.690447
0.589700,-4.796588
0.589800,-4.661559
0.589900,-4.447007
0.590000,-4.334376
0.590100,-4.399293
0.590200,-4.603783
0.590300,-4.749198
0.590400,-4.718362
0.590500,-4.591773
0.590600,-4.481413
0.590700,-4.475571
0.590800,-4.500889
0.590900,-4.508679
0.591000,-4.519066
0.591100,-4.443112
0.591200,-4.404811
0.591300,-4.373651
0.591400,-4.302891
0.591500,-4.215253
0.591600,-4.098402
0.591700,-4.073084
0.591800,-4.042573
0.591900,-3.994534
0.592000,-4.021150
0.592100,-3.872814
0.592200,-3.807897
0.592300,-3.576143
0.592400,-3.557317
0.592500,-3.565432
0.592600,-3.569976
0.592700,-3.473250
0.592800,-3.377173
0.592900,-3.282069
0.593000,-3.202222
0.593100,-3.218451
0.593200,-3.175281
0.593300,-3.214556
0.593400,-3.131138
0.593500,-3.191510
0.593600,-3.084398
0.593700,-3.059729
0.593800,-3.004874
0.593900,-2.953590
0.594000,-3.047720
0.594100,-2.947423
0.594200,-3.024025
0.594300,-2.806878
0.594400,-2.664710
0.594500,-2.371936
0.594600,-2.301177
0.594700,-2.581617
0.594800,-2.770200
0.594900,-2.759489
0.595000,-2.559870
0.595100,-2.343373
0.595200,-2.280404
0.595300,-2.386867
0.595400,-2.565063
0.595500,-2.644586
0.595600,-2.512805
0.595700,-2.374533
0.595800,-2.273587
0.595900,-2.274236
0.596000,-2.408614
0.596100,-2.405368
0.596200,-2.464767
0.596300,-2.420624
0.596400,-2.397903
0.596500,-2.423545
0.596600,-2.469636
0.596700,-2.514428
0.596800,-2.523841
0.596900,-2.612452
0.597000,-2.708205
0.597100,-2.723460
0.597200,-2.736443
0.597300,-2.642963
0.597400,-2.585512
0.597500,-2.616672
0.597600,-2.715995
0.597700,-3.029543
0.597800,-2.929895
0.597900,-2.816291
0.598000,-2.559221
0.598100,-2.589082
0.598200,-2.764682
0.598300,-2.978583
0.598400,-3.020779
0.598500,-2.926000
0.598600,-2.745532
0.598700,-2.744233
0.598800,-2.835117
0.598900,-2.994812
0.599000,-2.993514
0.599100,-3.033113
0.599200,-2.986049
0.599300,-2.982478
0.599400,-3.036684
0.599500,-3.087643
0.599600,-3.103223
0.599700,-3.079204
0.599800,-3.124646
0.599900,-3.182422
0.600000,-3.209687
0.600100,-3.180475
0.600200,-3.190537
0.600300,-3.199950
0.600400,-3.301545
0.600500,-3.429431
0.600600,-3.451827
0.600700,-3.470329
0.600800,-3.515446
0.600900,-3.492076
0.601000,-3.568678
0.601100,-3.571275
0.601200,-3.608926
0.601300,-3.609900
0.601400,-3.633920
0.601500,-3.667676
0.601600,-3.710197
0.601700,-3.753367
0.601800,-3.772193
0.601900,-3.808222
0.602000,-3.857883
0.602100,-3.892939
0.602200,-3.939679
0.602300,-3.994859
0.602400,-4.030888
0.602500,-4.089313
0.602600,-4.127939
0.602700,-4.200971
0.602800,-4.461614
0.602900,-4.622933
0.603000,-4.556718
0.603100,-4.333727
0.603200,-4.219148
0.603300,-4.321068
0.603400,-4.544708
0.603500,-4.766725
0.603600,-4.760883
0.603700,-4.603783
0.603800,-4.436620
0.603900,-4.453824
0.604000,-4.582685
0.604100,-4.701808
0.604200,-4.755365
0.604300,-4.685579
0.604400,-4.615143
0.604500,-4.619363
0.604600,-4.606704
0.604700,-4.632022
0.604800,-4.618714
0.604900,-4.582035
0.605000,-4.594370
0.605100,-4.629425
0.605200,-4.647927
0.605300,-4.638514
0.605400,-4.595668
0.605500,-4.567429
0.605600,-4.621960
0.605700,-4.654418
0.605800,-4.701159
0.605900,-4.558990
0.606000,-4.445384
0.606100,-4.484010
0.606200,-4.645005
0.606300,-4.851118
0.606400,-4.901754
0.606500,-4.756339
0.606600,-4.600861
0.606700,-4.594694
0.606800,-4.731670
0.606900,-4.936809
0.607000,-5.069566
0.607100,-5.034186
0.607200,-4.911492
0.607300,-4.851118
0.607400,-4.882603
0.607500,-4.964075
0.607600,-4.981927
0.607700,-4.997183
0.607800,-4.974786
0.607900,-4.924800
0.608000,-4.892016
0.608100,-4.813466
0.608200,-4.660910
0.608300,-4.556068
0.608400,-4.481738
0.608500,-4.448306
0.608600,-4.396047
0.608700,-4.326910
0.608800,-4.134755
0.608900,-4.032835
0.609000,-3.766350
0.609100,-3.783553
0.609200,-3.752718
0.609300,-3.705328
0.609400,-3.578091
0.609500,-3.512200
0.609600,-3.371330
0.609700,-3.297650
0.609800,-3.276552
0.609900,-3.233057
0.610000,-3.240523
0.610100,-3.168465
0.610200,-3.202546
0.610300,-3.148665
0.610400,-3.070765
0.610500,-3.123997
0.610600,-3.031490
0.610700,-3.144770
0.610800,-3.086020
0.610900,-3.204494
0.611000,-3.036684
0.611100,-2.877637
0.611200,-2.606935
0.611300,-2.582915
0.611400,-2.932168
0.611500,-3.152560
0.611600,-3.104197
0.611700,-2.888673
0.611800,-2.697818
0.611900,-2.623813
0.612000,-2.778639
0.612100,-2.939308
0.612200,-3.056483
0.612300,-2.917886
0.612400,-2.801685
0.612500,-2.731250
0.612600,-2.725083
0.612700,-2.764358
0.612800,-2.762086
0.612900,-2.765331
0.613000,-2.759813
0.613100,-2.707231
0.613200,-2.732873
0.613300,-2.700415
0.613400,-2.668281
0.613500,-2.626410
0.613600,-2.760138
0.613700,-2.793246
0.613800,-2.899385
0.613900,-2.875041
0.614000,-2.803957
0.614100,-2.798764
0.614200,-2.814668
0.614300,-3.116531
0.614400,-3.182747
0.614500,-3.142174
0.614600,-2.921781
0.614700,-2.787079
0.614800,-2.834143
0.614900,-3.039605
0.615000,-3.237926
0.615100,-3.182747
0.615200,-3.038307
0.615300,-2.875041
0.615400,-2.910745
0.615500,-3.030841
0.615600,-3.136006
0.615700,-3.110689
0.615800,-3.135357
0.615900,-3.076283
0.616000,-3.166842
0.616100,-3.221697
0.616200,-3.277201
0.616300,-3.263893
0.616400,-3.254480
0.616500,-3.305115
0.616600,-3.361268
0.616700,-3.376848
0.616800,-3.344065
0.616900,-3.319072
0.617000,-3.324265
0.617100,-3.432028
0.617200,-3.475522
0.617300,-3.477145
0.617400,-3.436896
0.617500,-3.376848
0.617600,-3.353154
0.617700,-3.344714
0.617800,-3.319397
0.617900,-3.315177
0.618000,-3.292132
0.618100,-3.296676
0.618200,-3.301869
0.618300,-3.288561
0.618400,-3.279148
0.618500,-3.268112
0.618600,-3.268112
0.618700,-3.288237
0.618800,-3.289860
0.618900,-3.308361
0.619000,-3.333354
0.619100,-3.385612
0.619200,-3.403140
0.619300,-3.482338
0.619400,-3.606979
0.619500,-3.925397
0.619600,-4.040301
0.619700,-3.914361
0.619800,-3.694617
0.619900,-3.633595
0.620000,-3.875736
0.620100,-4.100024
0.620200,-4.303865
0.620300,-4.209410
0.620400,-4.040301
0.620500,-3.886772
0.620600,-3.958180
0.620700,-4.104244
0.620800,-4.239272
0.620900,-4.205515
0.621000,-4.134106
0.621100,-4.076979
0.621200,-4.109113
0.621300,-4.154555
0.621400,-4.187663
0.621500,-4.208436
0.621600,-4.201620
0.621700,-4.223367
0.621800,-4.277898
0.621900,-4.283091
0.622000,-4.363264
0.622100,-4.366510
0.622200,-4.420391
0.622300,-4.473299
0.622400,-4.561586
0.622500,-4.576517
0.622600,-4.448630
0.622700,-4.428506
0.622800,-4.536593
0.622900,-4.761857
0.623000,-4.970566
0.623100,-4.983225
0.623200,-4.852092
0.623300,-4.725827
0.623400,-4.757962
0.623500,-4.939406
0.623600,-5.140001
0.623700,-5.242247
0.623800,-5.170188
0.623900,-5.034510
0.624000,-5.003674
0.624100,-5.056907
0.624200,-5.101375
0.624300,-5.091962
0.624400,-5.021851
0.624500,-4.987120
0.624600,-4.947845
0.624700,-4.912141
0.624800,-4.838135
0.624900,-4.695316
0.625000,-4.584307
0.625100,-4.525233
0.625200,-4.472325
0.625300,-4.425585
0.625400,-4.260370
0.625500,-4.049714
0.625600,-3.857559
0.625700,-3.684555
0.625800,-3.657614
0.625900,-3.544659
0.626000,-3.444037
0.626100,-3.334652
0.626200,-3.218451
0.626300,-3.166193
0.626400,-3.073362
0.626500,-3.083424
0.626600,-3.091214
0.626700,-3.079853
0.626800,-3.117505
0.626900,-3.078230
0.627000,-3.036684
0.627100,-3.067195
0.627200,-3.026622
0.627300,-3.096083
0.627400,-3.089266
0.627500,-3.146718
0.627600,-3.074011
0.627700,-2.995461
0.627800,-2.765331
0.627900,-2.559545
0.628000,-2.776043
0.628100,-2.976311
0.628200,-3.234680
0.628300,-3.002927
0.628400,-2.880559
0.628500,-2.634524
0.628600,-2.690353
0.628700,-2.790974
0.628800,-2.916263
0.628900,-2.940282
0.629000,-2.766630
0.629100,-2.662763
0.629200,-2.597197
0.629300,-2.605961
0.629400,-2.611479
0.629500,-2.620892
0.629600,-2.612777
0.629700,-2.593302
0.629800,-2.549159
0.629900,-2.573827
0.630000,-2.600443
0.630100,-2.584214
0.630200,-2.669904
0.630300,-2.686782
0.630400,-2.704310
0.630500,-2.710801
0.630600,-2.771498
0.630700,-2.616347
0.630800,-2.716319
0.630900,-2.698467
0.631000,-3.044474
0.631100,-3.049667
0.631200,-3.024349
0.631300,-2.798764
0.631400,-2.768253
0.631500,-2.874716
0.631600,-3.140226
0.631700,-3.258050
0.631800,-3.203195
0.631900,-3.025323
