0.000100,-1.178445
0.000200,-1.206035
0.000300,-1.224211
0.000400,-1.209605
0.000500,-1.177472
0.000600,-1.172603
0.000700,-1.218044
0.000800,-1.354693
0.000900,-1.368651
0.001000,-1.377414
0.001100,-1.256345
0.001200,-1.268355
0.001300,-1.299190
0.001400,-1.299514
0.001500,-1.281987
0.001600,-1.272899
0.001700,-1.289128
0.001800,-1.278417
0.001900,-1.294321
0.002000,-1.303085
0.002100,-1.300813
0.002200,-1.303409
0.002300,-1.297567
0.002400,-1.335543
0.002500,-1.329376
0.002600,-1.414741
0.002700,-1.383581
0.002800,-1.463753
0.002900,-1.468622
0.003000,-1.485500
0.003100,-1.682846
0.003200,-1.942513
0.003300,-1.887009
0.003400,-1.796126
0.003500,-1.567944
0.003600,-1.676679
0.003700,-1.831181
0.003800,-2.134990
0.003900,-2.166475
0.004000,-2.083382
0.004100,-1.968804
0.004200,-1.955171
0.004300,-2.035343
0.004400,-2.213215
0.004500,-2.344996
0.004600,-2.327144
0.004700,-2.347268
0.004800,-2.348241
0.004900,-2.396604
0.005000,-2.429063
0.005100,-2.458600
0.005200,-2.489760
0.005300,-2.494953
0.005400,-2.525464
0.005500,-2.587135
0.005600,-2.670228
0.005700,-2.636796
0.005800,-2.645560
0.005900,-2.684835
0.006000,-2.711126
0.006100,-2.756243
0.006200,-2.662438
0.006300,-2.539746
0.006400,-2.545588
0.006500,-2.660815
0.006600,-2.878936
0.006700,-2.885103
0.006800,-2.802009
0.006900,-2.591679
0.007000,-2.470285
0.007100,-2.524166
0.007200,-2.676395
0.007300,-2.802659
0.007400,-2.789675
0.007500,-2.663412
0.007600,-2.567335
0.007700,-2.508910
0.007800,-2.473855
0.007900,-2.484567
0.008000,-2.474504
0.008100,-2.449836
0.008200,-2.415430
0.008300,-2.351487
0.008400,-2.224900
0.008500,-2.092470
0.008600,-2.011324
0.008700,-1.975295
0.008800,-1.958417
0.008900,-1.939591
0.009000,-1.929205
0.009100,-1.774703
0.009200,-1.716928
0.009300,-1.667916
0.009400,-1.501405
0.009500,-1.479982
0.009600,-1.482254
0.009700,-1.382932
0.009800,-1.302111
0.009900,-1.182016
0.010000,-1.167085
0.010100,-1.103467
0.010200,-1.136574
0.010300,-1.152803
0.010400,-1.134302
0.010500,-1.196297
0.010600,-1.095677
0.010700,-1.178121
0.010800,-1.067438
0.010900,-1.124889
0.011000,-1.047314
0.011100,-1.175199
0.011200,-1.193376
0.011300,-1.117424
0.011400,-1.040822
0.011500,-0.741558
0.011600,-0.750322
0.011700,-0.897357
0.011800,-1.154426
0.011900,-1.100546
0.012000,-0.927543
0.012100,-0.827572
0.012200,-0.667878
0.012300,-0.774665
0.012400,-0.863276
0.012500,-0.962274
0.012600,-0.874636
0.012700,-0.735066
0.012800,-0.606207
0.012900,-0.632174
0.013000,-0.629577
0.013100,-0.663009
0.013200,-0.681510
0.013300,-0.651973
0.013400,-0.623735
0.013500,-0.581214
0.013600,-0.564012
0.013700,-0.548107
0.013800,-0.579916
0.013900,-0.555897
0.014000,-0.697090
0.014100,-0.744479
0.014200,-0.678264
0.014300,-0.602637
0.014400,-0.560766
0.014500,-0.511754
0.014600,-0.749672
0.014700,-0.873987
0.014800,-0.843477
0.014900,-0.653596
0.015000,-0.515000
0.015100,-0.571152
0.015200,-0.688002
0.015300,-0.904173
0.015400,-0.891190
0.015500,-0.791219
0.015600,-0.637367
0.015700,-0.637042
0.015800,-0.758436
0.015900,-0.792517
0.016000,-0.758111
0.016100,-0.841204
0.016200,-0.826923
0.016300,-0.912288
0.016400,-0.941825
0.016500,-0.966493
0.016600,-0.999925
0.016700,-0.970388
0.016800,-1.014207
0.016900,-1.045691
0.017000,-1.055753
0.017100,-1.033032
0.017200,-1.019400
0.017300,-0.994083
0.017400,-1.095028
0.017500,-1.212202
0.017600,-1.223562
0.017700,-1.200192
0.017800,-1.092106
0.017900,-1.139495
0.018000,-1.171304
0.018100,-1.155725
0.018200,-1.145987
0.018300,-1.163190
0.018400,-1.141118
0.018500,-1.147935
0.018600,-1.157023
0.018700,-1.162541
0.018800,-1.152479
0.018900,-1.166436
0.019000,-1.173901
0.019100,-1.203763
0.019200,-1.203438
0.019300,-1.235247
0.019400,-1.231677
0.019500,-1.275495
0.019600,-1.309901
0.019700,-1.346254
0.019800,-1.651037
0.019900,-1.756527
0.020000,-1.733806
0.020100,-1.499457
0.020200,-1.369949
0.020300,-1.480307
0.020400,-1.782169
0.020500,-1.975945
0.020600,-2.064556
0.020700,-1.919143
0.020800,-1.873701
0.020900,-1.840594
0.021000,-2.050274
0.021100,-2.223601
0.021200,-2.295010
0.021300,-2.318380
0.021400,-2.279754
0.021500,-2.347268
0.021600,-2.450485
0.021700,-2.482944
0.021800,-2.500796
0.021900,-2.530333
0.022000,-2.541369
0.022100,-2.611479
0.022200,-2.732873
0.022300,-2.718916
0.022400,-2.681589
0.022500,-2.624787
0.022600,-2.723785
0.022700,-2.708205
0.022800,-2.713073
0.022900,-2.595899
0.023000,-2.413807
0.023100,-2.439125
0.023200,-2.586810
0.023300,-2.786429
0.023400,-2.757541
0.023500,-2.627059
0.023600,-2.436204
0.023700,-2.411211
0.023800,-2.545913
0.023900,-2.729627
0.024000,-2.844854
0.024100,-2.776043
0.024200,-2.667632
0.024300,-2.611154
0.024400,-2.574801
0.024500,-2.589732
0.024600,-2.610505
0.024700,-2.560519
0.024800,-2.542992
0.024900,-2.471908
0.025000,-2.412184
0.025100,-2.280728
0.025200,-2.137912
0.025300,-2.049300
0.025400,-2.002236
0.025500,-1.986980
0.025600,-1.973673
0.025700,-1.924011
0.025800,-1.804889
0.025900,-1.759772
0.026000,-1.557557
0.026100,-1.591963
0.026200,-1.575410
0.026300,-1.549118
0.026400,-1.446550
0.026500,-1.383257
0.026600,-1.260240
0.026700,-1.260240
0.026800,-1.212526
0.026900,-1.275171
0.027000,-1.194674
0.027100,-1.237519
0.027200,-1.231028
0.027300,-1.207982
0.027400,-1.194350
0.027500,-1.171629
0.027600,-1.230703
0.027700,-1.213176
0.027800,-1.277443
0.027900,-1.269328
0.028000,-1.207009
0.028100,-1.022321
0.028200,-0.726302
0.028300,-0.856135
0.028400,-1.024918
0.028500,-1.305357
0.028600,-1.169682
0.028700,-1.097624
0.028800,-0.833739
0.028900,-0.807123
0.029000,-0.831142
0.029100,-1.025243
0.029200,-1.053806
0.029300,-1.022646
0.029400,-0.862951
0.029500,-0.816212
0.029600,-0.814589
0.029700,-0.852565
0.029800,-0.868145
0.029900,-0.886646
0.030000,-0.885672
0.030100,-0.938579
0.030200,-0.909367
0.030300,-0.980450
0.030400,-0.971037
0.030500,-1.078149
0.030600,-1.040822
0.030700,-1.153128
0.030800,-1.246608
0.030900,-1.214474
0.031000,-1.126512
0.031100,-1.087562
0.031200,-1.138522
0.031300,-1.288803
0.031400,-1.478359
0.031500,-1.349176
0.031600,-1.152154
0.031700,-1.012908
0.031800,-1.066464
0.031900,-1.248555
0.032000,-1.413443
0.032100,-1.386178
0.032200,-1.205710
0.032300,-1.063219
0.032400,-1.083343
0.032500,-1.189481
0.032600,-1.255047
0.032700,-1.227133
0.032800,-1.265433
0.032900,-1.212526
0.033000,-1.276469
0.033100,-1.310226
0.033200,-1.386827
0.033300,-1.414092
0.033400,-1.402732
0.033500,-1.444603
0.033600,-1.493939
0.033700,-1.495887
0.033800,-1.489071
0.033900,-1.491018
0.034000,-1.486474
0.034100,-1.600402
0.034200,-1.620851
0.034300,-1.636106
0.034400,-1.588068
0.034500,-1.512116
0.034600,-1.569892
0.034700,-1.564698
0.034800,-1.571515
0.034900,-1.564374
0.035000,-1.574111
0.035100,-1.560803
0.035200,-1.546197
0.035300,-1.565347
0.035400,-1.556259
0.035500,-1.540355
0.035600,-1.588393
0.035700,-1.573787
0.035800,-1.585796
0.035900,-1.566646
0.036000,-1.598779
0.036100,-1.602999
0.036200,-1.668565
0.036300,-1.634484
0.036400,-1.788660
0.036500,-1.971725
0.036600,-2.082408
0.036700,-1.949978
0.036800,-1.753605
0.036900,-1.690312
0.037000,-1.791582
0.037100,-2.037291
0.037200,-2.163878
0.037300,-2.126227
0.037400,-1.989577
0.037500,-1.877921
0.037600,-1.947057
0.037700,-2.042809
0.037800,-2.196986
0.037900,-2.193091
0.038000,-2.158685
0.038100,-2.139859
0.038200,-2.171668
0.038300,-2.244375
0.038400,-2.245673
0.038500,-2.276833
0.038600,-2.291439
0.038700,-2.297282
0.038800,-2.383296
0.038900,-2.441721
0.039000,-2.516700
0.039100,-2.463793
0.039200,-2.528710
0.039300,-2.568309
0.039400,-2.648157
0.039500,-2.619269
0.039600,-2.449511
0.039700,-2.425168
0.039800,-2.520920
0.039900,-2.741637
0.040000,-2.843881
0.040100,-2.824081
0.040200,-2.679966
0.040300,-2.538772
0.040400,-2.546237
0.040500,-2.726057
0.040600,-2.890945
0.040700,-2.978259
0.040800,-2.918535
0.040900,-2.811747
0.041000,-2.734171
0.041100,-2.729627
0.041200,-2.748128
0.041300,-2.752348
0.041400,-2.708205
0.041500,-2.682887
0.041600,-2.610505
0.041700,-2.501445
0.041800,-2.367067
0.041900,-2.217110
0.042000,-2.153167
0.042100,-2.115515
0.042200,-2.074942
0.042300,-2.058713
0.042400,-1.936346
0.042500,-1.796126
0.042600,-1.768536
0.042700,-1.528020
0.042800,-1.576708
0.042900,-1.526073
0.043000,-1.459534
0.043100,-1.362808
0.043200,-1.263161
0.043300,-1.203763
0.043400,-1.131056
0.043500,-1.139495
0.043600,-1.142092
0.043700,-1.118722
0.043800,-1.108985
0.043900,-1.058674
0.044000,-1.025892
0.044100,-0.946694
0.044200,-1.000574
0.044300,-0.937605
0.044400,-1.034655
0.044500,-0.974932
0.044600,-0.954808
0.044700,-0.850617
0.044800,-0.586083
0.044900,-0.476050
0.045000,-0.519219
0.045100,-0.804202
0.045200,-0.857758
0.045300,-0.655544
0.045400,-0.578293
0.045500,-0.354656
0.045600,-0.416002
0.045700,-0.493902
0.045800,-0.573749
0.045900,-0.565310
0.046000,-0.390685
0.046100,-0.351410
0.046200,-0.269291
0.046300,-0.353683
0.046400,-0.365692
0.046500,-0.330962
0.046600,-0.337453
0.046700,-0.312461
0.046800,-0.322847
0.046900,-0.301425
0.047000,-0.330637
0.047100,-0.342647
0.047200,-0.430933
0.047300,-0.437749
0.047400,-0.494551
0.047500,-0.489682
0.047600,-0.490331
0.047700,-0.412432
0.047800,-0.481892
0.047900,-0.600365
0.048000,-0.849319
0.048100,-0.847696
0.048200,-0.762980
0.048300,-0.551353
0.048400,-0.597443
0.048500,-0.674694
0.048600,-0.977854
0.048700,-1.094703
0.048800,-1.066140
0.048900,-0.922675
0.049000,-0.851591
0.049100,-0.993433
0.049200,-1.088861
0.049300,-1.156374
0.049400,-1.186884
0.049500,-1.210254
0.049600,-1.239791
0.049700,-1.295944
0.049800,-1.355667
0.049900,-1.403381
0.050000,-1.392345
0.050100,-1.431295
0.050200,-1.470894
0.050300,-1.495887
0.050400,-1.453042
0.050500,-1.413443
0.050600,-1.416689
0.050700,-1.471219
0.050800,-1.620202
0.050900,-1.650064
0.051000,-1.611438
0.051100,-1.484851
0.051200,-1.528994
0.051300,-1.571515
0.051400,-1.554961
0.051500,-1.554636
0.051600,-1.582550
0.051700,-1.554961
0.051800,-1.555610
0.051900,-1.548145
0.052000,-1.511467
0.052100,-1.548145
0.052200,-1.540679
0.052300,-1.594884
0.052400,-1.586445
0.052500,-1.616307
0.052600,-1.664994
0.052700,-1.656231
0.052800,-1.745166
0.052900,-1.773080
0.053000,-1.849033
0.053100,-2.040861
0.053200,-2.301177
0.053300,-2.309291
0.053400,-2.104479
0.053500,-1.984384
0.053600,-2.008078
0.053700,-2.262551
0.053800,-2.484891
0.053900,-2.584214
0.054000,-2.464442
0.054100,-2.360576
0.054200,-2.318380
0.054300,-2.431335
0.054400,-2.629980
0.054500,-2.725408
0.054600,-2.700739
0.054700,-2.675422
0.054800,-2.647832
0.054900,-2.683861
0.055000,-2.667632
0.055100,-2.673474
0.055200,-2.670228
0.055300,-2.677045
0.055400,-2.689379
0.055500,-2.748128
0.055600,-2.799413
0.055700,-2.718591
0.055800,-2.678668
0.055900,-2.696844
0.056000,-2.680290
0.056100,-2.691651
0.056200,-2.643937
0.056300,-2.450485
0.056400,-2.398227
0.056500,-2.487488
0.056600,-2.713723
0.056700,-2.736443
0.056800,-2.630629
0.056900,-2.402447
0.057000,-2.236585
0.057100,-2.285272
0.057200,-2.439449
0.057300,-2.574801
0.057400,-2.547211
0.057500,-2.369989
0.057600,-2.223926
0.057700,-2.162904
0.057800,-2.147974
0.057900,-2.140184
0.058000,-2.108050
0.058100,-2.047677
0.058200,-2.003859
0.058300,-1.927257
0.058400,-1.825987
0.058500,-1.665968
0.058600,-1.578980
0.058700,-1.506273
0.058800,-1.497185
0.058900,-1.447199
0.059000,-1.412145
0.059100,-1.251152
0.059200,-1.133653
0.059300,-1.075877
0.059400,-0.919429
0.059500,-0.910990
0.059600,-0.885023
0.059700,-0.803553
0.059800,-0.708450
0.059900,-0.566284
0.060000,-0.525062
0.060100,-0.507534
0.060200,-0.509157
0.060300,-0.526360
0.060400,-0.507210
0.060500,-0.509157
0.060600,-0.468584
0.060700,-0.433205
0.060800,-0.488059
0.060900,-0.461768
0.061000,-0.532527
0.061100,-0.522140
0.061200,-0.641587
0.061300,-0.542589
0.061400,-0.429635
0.061500,-0.175487
0.061600,-0.191392
0.061700,-0.292661
0.061800,-0.736040
0.061900,-0.719811
0.062000,-0.613673
0.062100,-0.317329
0.062200,-0.326093
0.062300,-0.327067
0.062400,-0.535448
0.062500,-0.647104
0.062600,-0.615295
0.062700,-0.489358
0.062800,-0.381272
0.062900,-0.426713
0.063000,-0.421520
0.063100,-0.483840
0.063200,-0.479296
0.063300,-0.453329
0.063400,-0.455601
0.063500,-0.410809
0.063600,-0.470857
0.063700,-0.482541
0.063800,-0.569205
0.063900,-0.504613
0.064000,-0.685730
0.064100,-0.695143
0.064200,-0.704555
0.064300,-0.685730
0.064400,-0.599066
0.064500,-0.678589
0.064600,-0.730847
0.064700,-1.072631
0.064800,-0.982398
0.064900,-0.831142
0.065000,-0.625357
0.065100,-0.632823
0.065200,-0.787324
0.065300,-1.044393
0.065400,-1.080421
0.065500,-0.972660
0.065600,-0.807448
0.065700,-0.732470
0.065800,-0.843801
0.065900,-0.920078
0.066000,-0.935982
0.066100,-0.987266
0.066200,-0.922999
0.066300,-0.907744
0.066400,-0.873663
0.066500,-0.925596
0.066600,-0.960975
0.066700,-0.927543
0.066800,-0.919753
0.066900,-0.929166
0.067000,-0.892488
0.067100,-0.827897
0.067200,-0.818808
0.067300,-0.794140
0.067400,-0.851916
0.067500,-0.925271
0.067600,-0.899954
0.067700,-0.861653
0.067800,-0.714618
0.067900,-0.772393
0.068000,-0.798684
0.068100,-0.768823
0.068200,-0.774665
0.068300,-0.787648
0.068400,-0.774990
0.068500,-0.721758
0.068600,-0.754217
0.068700,-0.758761
0.068800,-0.758436
0.068900,-0.757787
0.069000,-0.759410
0.069100,-0.778885
0.069200,-0.782780
0.069300,-0.836011
0.069400,-0.848021
0.069500,-0.906445
0.069600,-0.999601
0.069700,-1.055753
0.069800,-1.389748
0.069900,-1.578980
0.070000,-1.608517
0.070100,-1.381309
0.070200,-1.360861
0.070300,-1.479658
0.070400,-1.760097
0.070500,-2.046055
0.070600,-2.052871
0.070700,-1.992823
0.070800,-1.860718
0.070900,-1.912326
0.071000,-2.030799
0.071100,-2.224251
0.071200,-2.349215
0.071300,-2.323573
0.071400,-2.295334
0.071500,-2.305721
0.071600,-2.408939
0.071700,-2.460872
0.071800,-2.487163
0.071900,-2.524815
0.072000,-2.532929
0.072100,-2.578371
0.072200,-2.626085
0.072300,-2.668605
0.072400,-2.617646
0.072500,-2.608233
0.072600,-2.709503
0.072700,-2.759489
0.072800,-2.820186
0.072900,-2.677369
0.073000,-2.554352
0.073100,-2.572204
0.073200,-2.777666
0.073300,-3.014612
0.073400,-3.042526
0.073500,-2.916263
0.073600,-2.710152
0.073700,-2.668281
0.073800,-2.796491
0.073900,-2.985399
0.074000,-3.134059
0.074100,-3.085047
0.074200,-2.964301
0.074300,-2.902306
0.074400,-2.907175
0.074500,-2.947748
0.074600,-2.999356
0.074700,-3.012340
0.074800,-3.014937
0.074900,-2.986373
0.075000,-2.935738
0.075100,-2.865303
0.075200,-2.765331
0.075300,-2.689054
0.075400,-2.655297
0.075500,-2.638744
0.075600,-2.632577
0.075700,-2.571879
0.075800,-2.402447
0.075900,-2.312862
0.076000,-2.092794
0.076100,-2.086627
0.076200,-2.040537
0.076300,-1.993148
0.076400,-1.891553
0.076500,-1.810407
0.076600,-1.670188
0.076700,-1.607543
0.076800,-1.529643
0.076900,-1.542627
0.077000,-1.502378
0.077100,-1.549443
0.077200,-1.504651
0.077300,-1.551715
0.077400,-1.420584
0.077500,-1.445901
0.077600,-1.417338
0.077700,-1.521529
0.077800,-1.593911
0.077900,-1.617281
0.078000,-1.604947
0.078100,-1.343658
0.078200,-1.098598
0.078300,-1.111581
0.078400,-1.327104
0.078500,-1.652985
0.078600,-1.518283
0.078700,-1.434216
0.078800,-1.106063
0.078900,-1.078149
0.079000,-1.159295
0.079100,-1.246283
0.079200,-1.343333
0.079300,-1.211228
0.079400,-1.084966
0.079500,-0.942149
0.079600,-0.909691
0.079700,-0.951887
0.079800,-0.887944
0.079900,-0.895734
0.080000,-0.810694
0.080100,-0.819133
0.080200,-0.784403
0.080300,-0.816212
0.080400,-0.729548
0.080500,-0.826923
0.080600,-0.738961
0.080700,-0.809071
0.080800,-0.863276
0.080900,-0.775639
0.081000,-0.747076
0.081100,-0.617892
0.081200,-0.721434
0.081300,-0.907419
0.081400,-1.109958
0.081500,-1.012259
0.081600,-0.776288
0.081700,-0.648078
0.081800,-0.646780
0.081900,-0.897033
0.082000,-1.094054
0.082100,-1.047639
0.082200,-0.854837
0.082300,-0.721109
0.082400,-0.749023
0.082500,-0.846073
0.082600,-0.931438
0.082700,-0.910016
0.082800,-0.933710
0.082900,-0.851916
0.083000,-0.896383
0.083100,-0.917157
0.083200,-0.981099
0.083300,-0.995706
0.083400,-0.962598
0.083500,-0.978178
0.083600,-1.038550
0.083700,-1.043095
0.083800,-1.044393
0.083900,-1.041147
0.084000,-1.037901
0.084100,-1.148584
0.084200,-1.235247
0.084300,-1.225185
0.084400,-1.139820
0.084500,-1.093405
0.084600,-1.139171
0.084700,-1.119371
0.084800,-1.115801
0.084900,-1.117748
0.085000,-1.112555
0.085100,-1.097949
0.085200,-1.118073
0.085300,-1.115801
0.085400,-1.115476
0.085500,-1.103467
0.085600,-1.115476
0.085700,-1.098598
0.085800,-1.147285
0.085900,-1.166111
0.086000,-1.207982
0.086100,-1.264135
0.086200,-1.298216
0.086300,-1.353395
0.086400,-1.481930
0.086500,-1.776002
0.086600,-1.882465
0.086700,-1.769185
0.086800,-1.644546
0.086900,-1.549768
0.087000,-1.803591
0.087100,-2.041186
0.087200,-2.278131
0.087300,-2.315459
0.087400,-2.208346
0.087500,-2.086952
0.087600,-2.157387
0.087700,-2.338179
0.087800,-2.516376
0.087900,-2.579345
0.088000,-2.516051
0.088100,-2.513130
0.088200,-2.541044
0.088300,-2.609207
0.088400,-2.647507
0.088500,-2.639393
0.088600,-2.646209
0.088700,-2.631603
0.088800,-2.715021
0.088900,-2.793895
0.089000,-2.825055
0.089100,-2.806554
0.089200,-2.761761
0.089300,-2.800062
0.089400,-2.851346
0.089500,-2.858487
0.089600,-2.678992
0.089700,-2.595899
0.089800,-2.680940
0.089900,-2.903604
0.090000,-3.037657
0.090100,-3.025323
0.090200,-2.847451
0.090300,-2.662438
0.090400,-2.667632
0.090500,-2.821160
0.090600,-3.026297
0.090700,-3.080827
0.090800,-3.014287
0.090900,-2.861084
0.091000,-2.789675
0.091100,-2.786754
0.091200,-2.861084
0.091300,-2.902955
0.091400,-2.917886
0.091500,-2.885427
0.091600,-2.790974
0.091700,-2.737093
0.091800,-2.641340
0.091900,-2.539097
0.092000,-2.510858
0.092100,-2.483593
0.092200,-2.482944
0.092300,-2.512481
0.092400,-2.435554
0.092500,-2.300203
0.092600,-2.279754
0.092700,-2.050923
0.092800,-2.110971
0.092900,-2.077539
0.093000,-2.027229
0.093100,-1.940890
0.093200,-1.853901
0.093300,-1.788336
0.093400,-1.722445
0.093500,-1.731858
0.093600,-1.706865
0.093700,-1.715629
0.093800,-1.722445
0.093900,-1.682197
0.094000,-1.623123
0.094100,-1.526722
0.094200,-1.510818
0.094300,-1.447849
0.094400,-1.433892
0.094500,-1.482254
0.094600,-1.337491
0.094700,-1.351123
0.094800,-0.996030
0.094900,-0.991486
0.095000,-0.845424
0.095100,-1.279066
0.095200,-1.285233
0.095300,-1.193701
0.095400,-1.033682
0.095500,-0.873987
0.095600,-0.903849
0.095700,-0.995056
0.095800,-1.178770
0.095900,-1.117424
0.096000,-1.054130
0.096100,-0.867820
0.096200,-0.811018
0.096300,-0.899305
0.096400,-0.891515
0.096500,-0.915209
0.096600,-0.862302
0.096700,-0.847696
0.096800,-0.824651
0.096900,-0.799983
0.097000,-0.798360
0.097100,-0.783429
0.097200,-0.921701
0.097300,-0.786350
0.097400,-0.942474
0.097500,-0.907744
0.097600,-0.891839
0.097700,-0.776613
0.097800,-0.745777
0.097900,-0.798360
0.098000,-1.065166
0.098100,-1.120994
0.098200,-0.996679
0.098300,-0.746751
0.098400,-0.726627
0.098500,-0.744479
0.098600,-0.997004
0.098700,-1.081071
0.098800,-1.025243
0.098900,-0.875935
0.099000,-0.754217
0.099100,-0.822379
0.099200,-0.903200
0.099300,-0.980775
0.099400,-1.013882
0.099500,-1.037901
0.099600,-0.973634
0.099700,-1.021023
0.099800,-1.070684
0.099900,-1.160918
0.100000,-1.170980
0.100100,-1.166436
0.100200,-1.207982
0.100300,-1.222264
0.100400,-1.215448
0.100500,-1.211553
0.100600,-1.230378
0.100700,-1.269653
0.100800,-1.405328
0.100900,-1.402083
0.101000,-1.407925
0.101100,-1.234598
0.101200,-1.276145
0.101300,-1.337491
0.101400,-1.326779
0.101500,-1.347553
0.101600,-1.319639
0.101700,-1.318016
0.101800,-1.326130
0.101900,-1.325156
0.102000,-1.324832
0.102100,-1.315094
0.102200,-1.303085
0.102300,-1.324507
0.102400,-1.332622
0.102500,-1.300813
0.102600,-1.321261
0.102700,-1.322884
0.102800,-1.342035
0.102900,-1.369300
0.103000,-1.361185
0.103100,-1.578331
0.103200,-1.760746
0.103300,-1.814952
0.103400,-1.633185
0.103500,-1.465051
0.103600,-1.458235
0.103700,-1.607868
0.103800,-1.846761
0.103900,-1.924985
0.104000,-1.864937
0.104100,-1.689987
0.104200,-1.650713
0.104300,-1.725691
0.104400,-1.838646
0.104500,-1.965233
0.104600,-1.914923
0.104700,-1.877271
0.104800,-1.849357
0.104900,-1.886684
0.105000,-1.896746
0.105100,-1.868508
0.105200,-1.871104
0.105300,-1.838646
0.105400,-1.816574
0.105500,-1.876947
0.105600,-1.972699
0.105700,-1.851629
0.105800,-1.852928
0.105900,-1.870131
0.106000,-1.918818
0.106100,-1.950952
0.106200,-1.914274
0.106300,-1.738675
0.106400,-1.683171
0.106500,-1.839295
0.106600,-2.064231
0.106700,-2.148623
0.106800,-2.117787
0.106900,-1.905835
0.107000,-1.815925
0.107100,-1.886684
0.107200,-2.068451
0.107300,-2.283000
0.107400,-2.307019
0.107500,-2.219057
0.107600,-2.153816
0.107700,-2.132718
0.107800,-2.179783
0.107900,-2.230093
0.108000,-2.251191
0.108100,-2.263850
0.108200,-2.248919
0.108300,-2.221329
0.108400,-2.182055
0.108500,-2.103506
0.108600,-2.008727
0.108700,-1.976918
0.108800,-1.982761
0.108900,-1.994770
0.109000,-2.018790
0.109100,-1.884412
0.109200,-1.781520
0.109300,-1.739973
0.109400,-1.609491
0.109500,-1.648441
0.109600,-1.611114
0.109700,-1.563725
0.109800,-1.475763
0.109900,-1.350798
0.110000,-1.324507
0.110100,-1.282961
0.110200,-1.271600
0.110300,-1.276145
0.110400,-1.241739
0.110500,-1.287180
0.110600,-1.226483
0.110700,-1.204736
0.110800,-1.125538
0.110900,-1.227457
0.111000,-1.178770
0.111100,-1.281662
0.111200,-1.252775
0.111300,-1.222913
0.111400,-1.053157
0.111500,-0.853539
0.111600,-0.693844
0.111700,-0.868145
0.111800,-1.220966
0.111900,-1.219343
0.112000,-1.087562
0.112100,-0.825949
0.112200,-0.699687
0.112300,-0.774016
0.112400,-0.884049
0.112500,-0.997653
0.112600,-0.955782
0.112700,-0.810369
0.112800,-0.746751
0.112900,-0.669825
0.113000,-0.785052
0.113100,-0.688976
0.113200,-0.761033
0.113300,-0.708450
0.113400,-0.746102
0.113500,-0.731820
0.113600,-0.731496
0.113700,-0.706178
0.113800,-0.735066
0.113900,-0.740584
0.114000,-0.778885
0.114100,-0.931763
0.114200,-0.984994
0.114300,-0.941825
0.114400,-0.935333
0.114500,-0.918455
0.114600,-1.105090
0.114700,-1.316717
0.114800,-1.370598
0.114900,-1.238168
0.115000,-1.070359
0.115100,-1.170006
0.115200,-1.298865
0.115300,-1.613386
0.115400,-1.643247
0.115500,-1.559180
0.115600,-1.406302
0.115700,-1.337166
0.115800,-1.480631
0.115900,-1.602025
0.116000,-1.630913
0.116100,-1.646818
0.116200,-1.606569
0.116300,-1.627667
0.116400,-1.671161
0.116500,-1.740298
0.116600,-1.781195
0.116700,-1.735104
0.116800,-1.756527
0.116900,-1.776651
0.117000,-1.797424
0.117100,-1.740622
0.117200,-1.729586
0.117300,-1.748412
0.117400,-1.803267
0.117500,-1.907782
0.117600,-1.935047
0.117700,-1.900641
0.117800,-1.818847
0.117900,-1.864613
0.118000,-1.924336
0.118100,-1.923687
0.118200,-1.933100
0.118300,-1.928231
0.118400,-1.928880
0.118500,-1.919143
0.118600,-1.923038
0.118700,-1.916871
0.118800,-1.951601
0.118900,-1.951276
0.119000,-1.984708
0.119100,-1.961988
0.119200,-1.965558
0.119300,-1.985682
0.119400,-2.024632
0.119500,-2.048976
0.119600,-2.085654
0.119700,-2.145052
0.119800,-2.420299
0.119900,-2.528710
0.120000,-2.499173
0.120100,-2.283974
0.120200,-2.104155
0.120300,-2.134666
0.120400,-2.386218
0.120500,-2.547860
0.120600,-2.605961
0.120700,-2.429387
0.120800,-2.307344
0.120900,-2.266771
0.121000,-2.394008
0.121100,-2.487488
0.121200,-2.543965
0.121300,-2.518648
0.121400,-2.465416
0.121500,-2.456652
0.121600,-2.458275
0.121700,-2.458275
0.121800,-2.463793
0.121900,-2.432633
0.122000,-2.410886
0.122100,-2.422571
0.122200,-2.520595
0.122300,-2.541044
0.122400,-2.497874
0.122500,-2.454056
0.122600,-2.486839
0.122700,-2.540070
0.122800,-2.570906
0.122900,-2.407316
0.123000,-2.299554
0.123100,-2.302151
0.123200,-2.449511
0.123300,-2.655297
0.123400,-2.662763
0.123500,-2.565712
0.123600,-2.361874
0.123700,-2.305396
0.123800,-2.449836
0.123900,-2.621216
0.124000,-2.762410
0.124100,-2.712100
0.124200,-2.571230
0.124300,-2.516376
0.124400,-2.524166
0.124500,-2.600118
0.124600,-2.609207
0.124700,-2.616672
0.124800,-2.613426
0.124900,-2.568958
0.125000,-2.496901
0.125100,-2.453406
0.125200,-2.334609
0.125300,-2.246647
0.125400,-2.191792
0.125500,-2.174589
0.125600,-2.136938
0.125700,-2.097014
0.125800,-1.938293
0.125900,-1.876298
0.126000,-1.647467
0.126100,-1.628966
0.126200,-1.585796
0.126300,-1.549443
0.126400,-1.464078
0.126500,-1.367677
0.126600,-1.224211
0.126700,-1.205386
0.126800,-1.202140
0.126900,-1.215448
0.127000,-1.236870
0.127100,-1.197271
0.127200,-1.240765
0.127300,-1.176498
0.127400,-1.206359
0.127500,-1.127486
0.127600,-1.186884
0.127700,-1.179094
0.127800,-1.275495
0.127900,-1.267381
0.128000,-1.204412
0.128100,-1.127810
0.128200,-0.787973
0.128300,-0.830169
0.128400,-1.047963
0.128500,-1.330350
0.128600,-1.206684
0.128700,-1.094379
0.128800,-1.021348
0.128900,-0.895085
0.129000,-1.022970
0.129100,-1.157672
0.129200,-1.206684
0.129300,-1.133653
0.129400,-1.015830
0.129500,-0.993758
0.129600,-0.952861
0.129700,-1.039524
0.129800,-1.050884
0.129900,-1.013882
0.130000,-0.994407
0.130100,-1.002846
0.130200,-0.985968
0.130300,-1.012908
0.130400,-1.033682
0.130500,-1.024593
0.130600,-1.056402
0.130700,-1.043419
0.130800,-1.064192
0.130900,-1.049262
0.131000,-0.924622
0.131100,-0.929491
0.131200,-0.837309
0.131300,-1.165462
0.131400,-1.207009
0.131500,-1.121643
0.131600,-0.857758
0.131700,-0.715916
0.131800,-0.732794
0.131900,-0.940527
0.132000,-1.122293
0.132100,-1.071658
0.132200,-0.942474
0.132300,-0.738312
0.132400,-0.730522
0.132500,-0.813290
0.132600,-0.901901
0.132700,-0.878207
0.132800,-0.902226
0.132900,-0.792842
0.133000,-0.832765
0.133100,-0.834064
0.133200,-0.892488
0.133300,-0.915209
0.133400,-0.865873
0.133500,-0.871715
0.133600,-0.874312
0.133700,-0.841529
0.133800,-0.808422
0.133900,-0.774990
0.134000,-0.760059
0.134100,-0.840555
0.134200,-0.869443
0.134300,-0.849968
0.134400,-0.714942
0.134500,-0.709100
0.134600,-0.741233
0.134700,-0.732470
0.134800,-0.711047
0.134900,-0.732470
0.135000,-0.721109
0.135100,-0.724355
0.135200,-0.701634
0.135300,-0.718512
0.135400,-0.695143
0.135500,-0.704880
0.135600,-0.688326
0.135700,-0.682808
0.135800,-0.705205
0.135900,-0.711696
0.136000,-0.725004
0.136100,-0.791219
0.136200,-0.842503
0.136300,-0.863925
0.136400,-0.966818
0.136500,-1.261538
0.136600,-1.426751
0.136700,-1.321261
0.136800,-1.185586
0.136900,-1.142092
0.137000,-1.281338
0.137100,-1.539381
0.137200,-1.728937
0.137300,-1.754255
0.137400,-1.618254
0.137500,-1.566321
0.137600,-1.635782
0.137700,-1.803591
0.137800,-1.948030
0.137900,-2.057090
0.138000,-2.053845
0.138100,-2.031448
0.138200,-2.069425
0.138300,-2.144403
0.138400,-2.186599
0.138500,-2.242752
0.138600,-2.259955
0.138700,-2.294036
0.138800,-2.350514
0.138900,-2.473531
0.139000,-2.506314
0.139100,-2.493655
0.139200,-2.508586
0.139300,-2.612128
0.139400,-2.704310
0.139500,-2.726381
0.139600,-2.624787
0.139700,-2.531631
0.139800,-2.647832
0.139900,-2.903604
0.140000,-3.066221
0.140100,-3.081476
0.140200,-2.929895
0.140300,-2.787079
0.140400,-2.796491
0.140500,-2.972416
0.140600,-3.184694
0.140700,-3.261945
0.140800,-3.184694
0.140900,-3.067844
0.141000,-3.019805
0.141100,-3.037008
0.141200,-3.096083
0.141300,-3.123348
0.141400,-3.117830
0.141500,-3.096732
0.141600,-3.066221
0.141700,-3.006497
0.141800,-2.947423
0.141900,-2.826678
0.142000,-2.770200
0.142100,-2.721188
0.142200,-2.720863
0.142300,-2.748128
0.142400,-2.649455
0.142500,-2.514104
0.142600,-2.464118
0.142700,-2.233664
0.142800,-2.264174
0.142900,-2.214189
0.143000,-2.163878
0.143100,-2.045081
0.143200,-1.971400
0.143300,-1.851954
0.143400,-1.832479
0.143500,-1.790283
0.143600,-1.794827
0.143700,-1.776002
0.143800,-1.710436
0.143900,-1.768536
0.144000,-1.630589
0.144100,-1.649090
0.144200,-1.498159
0.144300,-1.587419
0.144400,-1.566646
0.144500,-1.612737
0.144600,-1.616307
0.144700,-1.470245
0.144800,-1.353071
0.144900,-1.012259
0.145000,-1.129758
0.145100,-1.294646
0.145200,-1.543600
0.145300,-1.343658
0.145400,-1.182989
0.145500,-1.054130
0.145600,-1.017453
0.145700,-1.148584
0.145800,-1.226483
0.145900,-1.192078
0.146000,-1.134951
0.146100,-0.967467
0.146200,-0.893138
0.146300,-0.926894
0.146400,-0.971362
0.146500,-0.930789
0.146600,-0.879505
0.146700,-0.862302
0.146800,-0.826598
0.146900,-0.806474
0.147000,-0.810369
0.147100,-0.844126
0.147200,-0.837634
0.147300,-0.833415
0.147400,-0.888269
0.147500,-0.855486
0.147600,-0.886646
0.147700,-0.758436
0.147800,-0.844775
0.147900,-0.813615
0.148000,-1.156374
0.148100,-1.195973
0.148200,-1.103142
0.148300,-0.860030
0.148400,-0.851916
0.148500,-0.954808
0.148600,-1.219667
0.148700,-1.319314
0.148800,-1.268355
0.148900,-1.090484
0.149000,-0.970064
0.149100,-1.057052
0.149200,-1.157672
0.149300,-1.262837
0.149400,-1.252125
0.149500,-1.248555
0.149600,-1.193376
0.149700,-1.257643
0.149800,-1.337166
0.149900,-1.406302
0.150000,-1.412145
0.150100,-1.408899
0.150200,-1.429023
0.150300,-1.423830
0.150400,-1.393643
0.150500,-1.396240
0.150600,-1.377739
0.150700,-1.404679
0.150800,-1.533538
0.150900,-1.563725
0.151000,-1.556259
0.151100,-1.416040
0.151200,-1.403056
0.151300,-1.441357
0.151400,-1.425128
0.151500,-1.416689
0.151600,-1.388450
0.151700,-1.337491
0.151800,-1.344956
0.151900,-1.326455
0.152000,-1.316068
0.152100,-1.283285
0.152200,-1.291400
0.152300,-1.277443
0.152400,-1.291400
0.152500,-1.258293
0.152600,-1.315094
0.152700,-1.300488
0.152800,-1.370598
0.152900,-1.370273
0.153000,-1.456288
0.153100,-1.640001
0.153200,-1.955496
0.153300,-1.988928
0.153400,-1.888307
0.153500,-1.720823
0.153600,-1.734130
0.153700,-1.918169
0.153800,-2.272938
0.153900,-2.320003
0.154000,-2.285597
0.154100,-2.160632
0.154200,-2.121033
0.154300,-2.197310
0.154400,-2.371936
0.154500,-2.496252
0.154600,-2.502419
0.154700,-2.489760
0.154800,-2.419325
0.154900,-2.436528
0.155000,-2.461196
0.155100,-2.470609
0.155200,-2.455354
0.155300,-2.495278
0.155400,-2.455354
0.155500,-2.491058
0.155600,-2.567984
0.155700,-2.493979
0.155800,-2.457626
0.155900,-2.456328
0.156000,-2.464442
0.156100,-2.486839
0.156200,-2.399526
0.156300,-2.222628
0.156400,-2.092794
0.156500,-2.198609
0.156600,-2.376480
0.156700,-2.410561
0.156800,-2.312862
0.156900,-2.037615
0.157000,-1.877921
0.157100,-1.895773
0.157200,-2.019114
0.157300,-2.134017
0.157400,-2.122332
0.157500,-1.945109
0.157600,-1.800994
0.157700,-1.718550
0.157800,-1.717901
0.157900,-1.715629
0.158000,-1.661424
0.158100,-1.596183
0.158200,-1.537433
0.158300,-1.457911
0.158400,-1.404355
0.158500,-1.260889
0.158600,-1.094054
0.158700,-0.978503
0.158800,-0.935658
0.158900,-0.915534
0.159000,-0.912937
0.159100,-0.740584
0.159200,-0.615945
0.159300,-0.484164
0.159400,-0.359525
0.159500,-0.351086
0.159600,-0.322198
0.159700,-0.209244
0.159800,-0.106027
0.159900,0.018613
0.160000,0.072818
0.160100,0.121830
0.160200,0.152016
0.160300,0.148770
0.160400,0.219529
0.160500,0.169219
0.160600,0.239004
0.160700,0.273085
0.160800,0.344817
0.160900,0.396750
0.161000,0.249715
0.161100,0.347414
0.161200,0.168569
0.161300,0.361371
0.161400,0.307166
0.161500,0.670697
0.161600,0.593771
0.161700,0.504836
0.161800,0.122803
0.161900,0.079959
0.162000,0.235109
0.162100,0.321772
0.162200,0.427910
0.162300,0.283796
0.162400,0.076713
0.162500,-0.054094
0.162600,-0.082008
0.162700,0.056264
0.162800,-0.004108
0.162900,0.045228
0.163000,-0.157311
0.163100,-0.204050
0.163200,-0.406589
0.163300,-0.462742
0.163400,-0.530580
0.163500,-0.623735
0.163600,-0.709100
0.163700,-0.772393
0.163800,-0.810694
0.163900,-1.034006
0.164000,-1.080097
0.164100,-1.237844
0.164200,-1.331648
0.164300,-1.368651
0.164400,-1.310875
0.164500,-1.368975
0.164600,-1.487772
0.164700,-1.790283
0.164800,-1.861042
0.164900,-1.741920
0.165000,-1.566646
0.165100,-1.588068
0.165200,-1.769185
0.165300,-2.057740
0.165400,-2.092145
0.165500,-2.004833
0.165600,-1.798722
0.165700,-1.815601
0.165800,-1.929529
0.165900,-2.037940
0.166000,-2.016842
0.166100,-1.990226
0.166200,-1.932451
0.166300,-1.975620
0.166400,-2.025606
0.166500,-2.062933
0.166600,-2.060336
0.166700,-1.981787
0.166800,-1.872403
0.166900,-1.845787
0.167000,-1.867209
0.167100,-1.796450
0.167200,-1.720173
0.167300,-1.654932
0.167400,-1.690312
0.167500,-1.806188
0.167600,-1.779247
0.167700,-1.760097
0.167800,-1.745815
0.167900,-1.644546
0.168000,-1.684145
0.168100,-1.654932
0.168200,-1.660775
0.168300,-1.631238
0.168400,-1.637405
0.168500,-1.633510
0.168600,-1.601701
0.168700,-1.628316
0.168800,-1.606894
0.168900,-1.614359
0.169000,-1.602999
0.169100,-1.581577
0.169200,-1.556908
0.169300,-1.539056
0.169400,-1.568918
0.169500,-1.585796
0.169600,-1.613710
0.169700,-1.641624
0.169800,-1.820794
0.169900,-2.050923
0.170000,-1.954198
0.170100,-1.841567
0.170200,-1.586445
0.170300,-1.704918
0.170400,-1.894799
0.170500,-2.157062
0.170600,-2.184327
0.170700,-2.092145
0.170800,-1.913949
0.170900,-1.947057
0.171000,-2.083057
0.171100,-2.289492
0.171200,-2.334934
0.171300,-2.342074
0.171400,-2.313836
0.171500,-2.337206
0.171600,-2.371936
0.171700,-2.433931
0.171800,-2.467688
0.171900,-2.459898
0.172000,-2.488462
0.172100,-2.503068
0.172200,-2.589082
0.172300,-2.639068
0.172400,-2.643937
0.172500,-2.639717
0.172600,-2.668605
0.172700,-2.736119
0.172800,-2.791298
0.172900,-2.728004
0.173000,-2.592328
0.173100,-2.621216
0.173200,-2.777341
0.173300,-2.960731
0.173400,-3.059405
0.173500,-2.933141
0.173600,-2.724758
0.173700,-2.686133
0.173800,-2.804281
0.173900,-3.065572
0.174000,-3.176255
0.174100,-3.128541
0.174200,-2.999681
0.174300,-2.941580
0.174400,-2.990593
0.174500,-3.051615
0.174600,-3.061677
0.174700,-3.013963
0.174800,-2.981829
0.174900,-2.970793
0.175000,-2.980531
0.175100,-2.950020
0.175200,-2.837064
0.175300,-2.736443
0.175400,-2.681264
0.175500,-2.716968
0.175600,-2.735145
0.175700,-2.722486
0.175800,-2.560844
0.175900,-2.500471
0.176000,-2.267420
0.176100,-2.313511
0.176200,-2.274886
0.176300,-2.281702
0.176400,-2.172967
0.176500,-2.108374
0.176600,-1.958742
0.176700,-1.943486
0.176800,-1.917195
0.176900,-1.946408
0.177000,-1.917195
0.177100,-1.928556
0.177200,-1.940890
0.177300,-1.911028
0.177400,-1.806837
0.177500,-1.799047
0.177600,-1.765940
0.177700,-1.791257
0.177800,-1.778598
0.177900,-1.819820
0.178000,-1.688040
0.178100,-1.449796
0.178200,-1.152479
0.178300,-1.048288
0.178400,-1.252775
0.178500,-1.495562
0.178600,-1.468297
0.178700,-1.187534
0.178800,-0.992460
0.178900,-0.762980
0.179000,-0.868469
0.179100,-0.892488
0.179200,-0.955133
0.179300,-0.775964
0.179400,-0.614971
0.179500,-0.474427
0.179600,-0.412756
0.179700,-0.406265
0.179800,-0.376079
0.179900,-0.366990
0.180000,-0.329014
0.180100,-0.284871
0.180200,-0.239430
0.180300,-0.201454
0.180400,-0.161855
0.180500,-0.159258
0.180600,-0.262150
0.180700,-0.186847
0.180800,-0.251764
0.180900,-0.214437
0.181000,-0.199182
0.181100,-0.133292
0.181200,-0.119335
0.181300,-0.220929
0.181400,-0.479620
0.181500,-0.374456
0.181600,-0.157635
0.181700,0.019262
0.181800,-0.009950
0.181900,-0.206972
0.182000,-0.445539
0.182100,-0.407238
0.182200,-0.281625
0.182300,-0.117387
0.182400,-0.144327
0.182500,-0.313434
0.182600,-0.450732
0.182700,-0.478971
0.182800,-0.518245
0.182900,-0.473453
0.183000,-0.580890
0.183100,-0.655219
0.183200,-0.793816
0.183300,-0.821405
0.183400,-0.824651
0.183500,-0.881777
0.183600,-0.946694
0.183700,-0.921701
0.183800,-0.901577
0.183900,-0.940851
0.184000,-0.968765
0.184100,-1.088536
0.184200,-1.222264
0.184300,-1.237519
0.184400,-1.271925
0.184500,-1.318665
0.184600,-1.281662
0.184700,-1.332946
0.184800,-1.326455
0.184900,-1.358264
0.185000,-1.413767
0.185100,-1.429997
0.185200,-1.454989
0.185300,-1.503352
0.185400,-1.537758
0.185500,-1.607543
0.185600,-1.664670
0.185700,-1.714980
0.185800,-1.742570
0.185900,-1.774703
0.186000,-1.850006
0.186100,-1.876298
0.186200,-1.952899
0.186300,-2.029825
0.186400,-2.163229
0.186500,-2.480672
0.186600,-2.619593
0.186700,-2.518323
0.186800,-2.270341
0.186900,-2.210618
0.187000,-2.386867
0.187100,-2.695546
0.187200,-2.868224
0.187300,-2.855241
0.187400,-2.732873
0.187500,-2.635498
0.187600,-2.663412
0.187700,-2.840959
0.187800,-2.975013
0.187900,-2.991566
0.188000,-3.001953
0.188100,-2.948721
0.188200,-2.935738
0.188300,-2.929895
0.188400,-2.992216
0.188500,-3.020130
0.188600,-3.032139
0.188700,-3.004550
0.188800,-3.016884
0.188900,-3.053237
0.189000,-3.086994
0.189100,-3.049018
0.189200,-3.018182
0.189300,-3.030841
0.189400,-3.038631
0.189500,-3.043500
0.189600,-2.869523
0.189700,-2.714696
0.189800,-2.752673
0.189900,-2.898411
0.190000,-3.010717
0.190100,-2.982478
0.190200,-2.763059
0.190300,-2.548185
0.190400,-2.479373
0.190500,-2.611803
0.190600,-2.779288
0.190700,-2.790649
0.190800,-2.654324
0.190900,-2.495927
0.191000,-2.435230
0.191100,-2.425168
0.191200,-2.442046
0.191300,-2.492681
0.191400,-2.422571
0.191500,-2.368366
0.191600,-2.295984
0.191700,-2.264174
0.191800,-2.203477
0.191900,-2.063582
0.192000,-1.985682
0.192100,-1.945758
0.192200,-1.952575
0.192300,-1.944460
0.192400,-1.861367
0.192500,-1.735104
0.192600,-1.689338
0.192700,-1.504975
0.192800,-1.560479
0.192900,-1.543925
0.193000,-1.505300
0.193100,-1.414092
0.193200,-1.353720
0.193300,-1.208956
0.193400,-1.181367
0.193500,-1.216097
0.193600,-1.218044
0.193700,-1.226808
0.193800,-1.221615
0.193900,-1.261863
0.194000,-1.221290
0.194100,-1.170655
0.194200,-1.181042
0.194300,-1.214799
0.194400,-1.254073
0.194500,-1.331324
0.194600,-1.333271
0.194700,-1.311849
0.194800,-1.045042
0.194900,-0.961300
0.195000,-0.846398
0.195100,-1.364106
0.195200,-1.438760
0.195300,-1.380335
0.195400,-1.084316
0.195500,-0.989538
0.195600,-0.979152
0.195700,-1.091782
0.195800,-1.298216
0.195900,-1.270951
0.196000,-1.230703
0.196100,-1.058350
0.196200,-1.091457
0.196300,-1.085290
0.196400,-1.184937
0.196500,-1.234923
0.196600,-1.278417
0.196700,-1.200841
0.196800,-1.177472
0.196900,-1.189806
0.197000,-1.170331
0.197100,-1.187209
0.197200,-1.159944
0.197300,-1.282312
0.197400,-1.182016
0.197500,-1.317042
0.197600,-1.225510
0.197700,-1.221939
0.197800,-1.154102
0.197900,-1.177472
0.198000,-1.468622
0.198100,-1.511142
0.198200,-1.436813
0.198300,-1.151830
0.198400,-1.099896
0.198500,-1.151505
0.198600,-1.432918
0.198700,-1.548145
0.198800,-1.480307
0.198900,-1.284259
0.199000,-1.175849
0.199100,-1.232001
0.199200,-1.366054
0.199300,-1.429023
0.199400,-1.403381
0.199500,-1.378388
0.199600,-1.301137
0.199700,-1.369624
0.199800,-1.392670
0.199900,-1.407276
0.200000,-1.379686
0.200100,-1.357939
0.200200,-1.421233
0.200300,-1.450770
0.200400,-1.443304
0.200500,-1.395591
0.200600,-1.359887
0.200700,-1.375467
0.200800,-1.475438
0.200900,-1.505300
0.201000,-1.473491
0.201100,-1.416689
0.201200,-1.301462
0.201300,-1.280040
0.201400,-1.233300
0.201500,-1.194999
0.201600,-1.144040
0.201700,-1.109958
0.201800,-1.034006
0.201900,-1.020374
0.202000,-1.045042
0.202100,-1.010636
0.202200,-0.986617
0.202300,-0.961624
0.202400,-0.957080
0.202500,-0.949290
0.202600,-0.952861
0.202700,-0.964546
0.202800,-0.956431
0.202900,-1.012259
0.203000,-0.993109
0.203100,-1.184288
0.203200,-1.393643
0.203300,-1.459534
0.203400,-1.230703
0.203500,-1.049586
0.203600,-1.004145
0.203700,-1.120994
0.203800,-1.466025
0.203900,-1.555610
0.204000,-1.497834
0.204100,-1.315419
0.204200,-1.271925
0.204300,-1.321911
0.204400,-1.483553
0.204500,-1.598779
0.204600,-1.595534
0.204700,-1.567620
0.204800,-1.498159
0.204900,-1.504326
0.205000,-1.589042
0.205100,-1.580603
0.205200,-1.593586
0.205300,-1.591314
0.205400,-1.590016
0.205500,-1.633510
0.205600,-1.734780
0.205700,-1.789309
0.205800,-1.714980
0.205900,-1.765615
0.206000,-1.791906
0.206100,-1.846761
0.206200,-1.818197
0.206300,-1.677328
0.206400,-1.614359
0.206500,-1.793854
0.206600,-2.035019
0.206700,-2.190169
0.206800,-2.176212
0.206900,-1.971725
0.207000,-1.853252
0.207100,-1.937968
0.207200,-2.171668
0.207300,-2.407316
0.207400,-2.465416
0.207500,-2.423545
0.207600,-2.340127
0.207700,-2.343373
0.207800,-2.406666
0.207900,-2.482619
0.208000,-2.543641
0.208100,-2.541044
0.208200,-2.570257
0.208300,-2.517349
0.208400,-2.497550
0.208500,-2.455679
0.208600,-2.376480
0.208700,-2.335583
0.208800,-2.376805
0.208900,-2.388165
0.209000,-2.448213
0.209100,-2.326170
0.209200,-2.223926
0.209300,-2.084031
0.209400,-1.988279
0.209500,-2.008078
0.209600,-1.998341
0.209700,-1.937319
0.209800,-1.840918
0.209900,-1.715305
0.210000,-1.661424
0.210100,-1.610789
0.210200,-1.638703
0.210300,-1.598130
0.210400,-1.591639
0.210500,-1.578655
0.210600,-1.508546
0.210700,-1.494913
0.210800,-1.396565
0.210900,-1.486149
0.211000,-1.418636
0.211100,-1.610140
0.211200,-1.531915
0.211300,-1.601701
0.211400,-1.360211
0.211500,-1.261214
0.211600,-1.066464
0.211700,-1.226483
0.211800,-1.611114
0.211900,-1.610140
0.212000,-1.554312
0.212100,-1.264460
0.212200,-1.186560
0.212300,-1.219992
0.212400,-1.296269
0.212500,-1.497185
0.212600,-1.388775
0.212700,-1.285233
0.212800,-1.075553
0.212900,-1.078799
0.213000,-1.119696
0.213100,-1.153777
0.213200,-1.188183
0.213300,-1.152803
0.213400,-1.133328
0.213500,-1.115152
0.213600,-1.092756
0.213700,-1.113204
0.213800,-1.153128
0.213900,-1.175524
0.214000,-1.290102
0.214100,-1.320937
0.214200,-1.376116
0.214300,-1.285233
0.214400,-1.280364
0.214500,-1.193376
0.214600,-1.396889
0.214700,-1.579954
0.214800,-1.627992
0.214900,-1.451419
0.215000,-1.192078
0.215100,-1.209281
0.215200,-1.277118
0.215300,-1.547171
0.215400,-1.626694
0.215500,-1.542951
0.215600,-1.368975
0.215700,-1.271600
0.215800,-1.332946
0.215900,-1.457911
0.216000,-1.460507
0.216100,-1.484851
0.216200,-1.429672
0.216300,-1.443304
0.216400,-1.461806
0.216500,-1.496861
0.216600,-1.483228
0.216700,-1.445252
0.216800,-1.423830
0.216900,-1.442980
0.217000,-1.400460
0.217100,-1.335543
0.217200,-1.199868
0.217300,-1.135276
0.217400,-1.166111
0.217500,-1.294646
0.217600,-1.287505
0.217700,-1.272899
0.217800,-1.231352
0.217900,-1.122293
0.218000,-1.127810
0.218100,-1.113204
0.218200,-1.126837
0.218300,-1.080746
0.218400,-1.078149
0.218500,-1.073930
0.218600,-1.049911
0.218700,-1.041147
0.218800,-1.025892
0.218900,-1.031734
0.219000,-1.001223
0.219100,-0.982722
0.219200,-0.940202
0.219300,-0.941500
0.219400,-0.907419
0.219500,-0.928842
0.219600,-0.916183
0.219700,-0.924622
0.219800,-1.150856
0.219900,-1.282961
0.220000,-1.257319
0.220100,-1.050235
0.220200,-0.886646
0.220300,-0.964870
0.220400,-1.130732
0.220500,-1.384555
0.220600,-1.445252
0.220700,-1.363457
0.220800,-1.230703
0.220900,-1.197271
0.221000,-1.296918
0.221100,-1.482254
0.221200,-1.578006
0.221300,-1.575085
0.221400,-1.553663
0.221500,-1.554312
0.221600,-1.622799
0.221700,-1.617281
0.221800,-1.628641
0.221900,-1.661099
0.222000,-1.651362
0.222100,-1.681548
0.222200,-1.785415
0.222300,-1.809109
0.222400,-1.820145
0.222500,-1.830207
0.222600,-1.901291
0.222700,-1.941539
0.222800,-1.989253
0.222900,-1.883763
0.223000,-1.725691
0.223100,-1.772431
0.223200,-1.957443
0.223300,-2.208995
0.223400,-2.278781
0.223500,-2.218733
0.223600,-2.022035
0.223700,-1.937968
0.223800,-2.075267
0.223900,-2.286571
0.224000,-2.494629
0.224100,-2.462495
0.224200,-2.419001
0.224300,-2.372261
0.224400,-2.381674
0.224500,-2.448213
0.224600,-2.514753
0.224700,-2.561168
0.224800,-2.584538
0.224900,-2.601417
0.225000,-2.616997
0.225100,-2.614075
0.225200,-2.558247
0.225300,-2.516700
0.225400,-2.505015
0.225500,-2.555001
0.225600,-2.597522
0.225700,-2.643612
0.225800,-2.506963
0.225900,-2.468337
0.226000,-2.274561
0.226100,-2.310265
0.226200,-2.324222
0.226300,-2.341750
0.226400,-2.260279
0.226500,-2.214189
0.226600,-2.082408
0.226700,-2.037940
0.226800,-2.033071
0.226900,-2.091172
0.227000,-2.064556
0.227100,-2.157387
0.227200,-2.150895
0.227300,-2.157711
0.227400,-2.096365
0.227500,-2.105778
0.227600,-2.133043
0.227700,-2.130122
0.227800,-2.236260
0.227900,-2.193091
0.228000,-2.160308
0.228100,-1.945758
0.228200,-1.710760
0.228300,-1.664994
0.228400,-1.788985
0.228500,-2.233664
0.228600,-1.992174
0.228700,-1.947057
0.228800,-1.545548
0.228900,-1.561777
0.229000,-1.518608
0.229100,-1.713357
0.229200,-1.798073
0.229300,-1.648116
0.229400,-1.529643
0.229500,-1.341710
0.229600,-1.362159
0.229700,-1.376116
0.229800,-1.373844
0.229900,-1.315744
0.230000,-1.280689
0.230100,-1.244660
0.230200,-1.235247
0.230300,-1.237519
0.230400,-1.177796
0.230500,-1.211553
0.230600,-1.183314
0.230700,-1.220316
0.230800,-1.160269
0.230900,-1.239142
0.231000,-1.117424
0.231100,-1.086589
0.231200,-1.069710
0.231300,-1.256670
0.231400,-1.448498
0.231500,-1.457911
0.231600,-1.260565
0.231700,-1.058999
0.231800,-1.064517
0.231900,-1.251476
0.232000,-1.515362
0.232100,-1.491992
0.232200,-1.361834
0.232300,-1.152479
0.232400,-1.130407
0.232500,-1.230054
0.232600,-1.311199
0.232700,-1.271600
0.232800,-1.276469
0.232900,-1.181042
0.233000,-1.231677
0.233100,-1.228431
0.233200,-1.281013
0.233300,-1.275820
0.233400,-1.199543
0.233500,-1.204087
0.233600,-1.239791
0.233700,-1.236870
0.233800,-1.223887
0.233900,-1.164813
0.234000,-1.122942
0.234100,-1.171304
0.234200,-1.275171
0.234300,-1.239142
0.234400,-1.209281
0.234500,-1.047314
0.234600,-1.099247
0.234700,-1.109309
0.234800,-1.073605
0.234900,-1.051858
0.235000,-1.047314
0.235100,-1.034006
0.235200,-1.050560
0.235300,-1.057376
0.235400,-1.028813
0.235500,-1.046990
0.235600,-1.049262
0.235700,-1.077500
0.235800,-1.067438
0.235900,-1.072956
0.236000,-1.098923
0.236100,-1.114503
0.236200,-1.161567
0.236300,-1.182340
0.236400,-1.309577
0.236500,-1.605271
0.236600,-1.770808
0.236700,-1.735753
0.236800,-1.530617
0.236900,-1.468622
0.237000,-1.628966
0.237100,-1.940241
0.237200,-2.261902
0.237300,-2.258981
0.237400,-2.164527
0.237500,-2.068126
0.237600,-2.163229
0.237700,-2.355058
0.237800,-2.567660
0.237900,-2.664061
0.238000,-2.677369
0.238100,-2.663087
0.238200,-2.698792
0.238300,-2.806878
0.238400,-2.880234
0.238500,-2.899385
0.238600,-2.923728
0.238700,-2.965600
0.238800,-3.077906
0.238900,-3.182422
0.239000,-3.218775
0.239100,-3.189238
0.239200,-3.237601
0.239300,-3.279148
0.239400,-3.369707
0.239500,-3.417097
0.239600,-3.337573
0.239700,-3.218775
0.239800,-3.264867
0.239900,-3.422615
0.240000,-3.618015
0.240100,-3.689424
0.240200,-3.526482
0.240300,-3.337249
0.240400,-3.278824
0.240500,-3.408982
0.240600,-3.600487
0.240700,-3.707276
0.240800,-3.651772
0.240900,-3.491751
0.241000,-3.388858
0.241100,-3.369707
0.241200,-3.368409
0.241300,-3.371979
0.241400,-3.317449
0.241500,-3.265840
0.241600,-3.191510
0.241700,-3.145095
0.241800,-3.021753
0.241900,-2.850372
0.242000,-2.742611
0.242100,-2.682563
0.242200,-2.644586
0.242300,-2.640691
0.242400,-2.538772
0.242500,-2.334609
0.242600,-2.269043
0.242700,-2.024632
0.242800,-2.020737
0.242900,-1.969778
0.243000,-1.908107
0.243100,-1.780870
0.243200,-1.666942
0.243300,-1.519257
0.243400,-1.424479
0.243500,-1.383581
0.243600,-1.387152
0.243700,-1.327429
0.243800,-1.336517
0.243900,-1.300813
0.244000,-1.289777
0.244100,-1.214149
0.244200,-1.223238
0.244300,-1.202464
0.244400,-1.254722
0.244500,-1.261214
0.244600,-1.237195
0.244700,-1.223238
0.244800,-1.046016
0.244900,-0.837959
0.245000,-0.836336
0.245100,-1.137873
0.245200,-1.385853
0.245300,-1.293672
0.245400,-1.101844
0.245500,-0.890866
0.245600,-0.895734
0.245700,-1.086913
0.245800,-1.203438
0.245900,-1.241739
0.246000,-1.143715
0.246100,-1.028813
0.246200,-0.899954
0.246300,-0.960975
0.246400,-1.073281
0.246500,-1.078799
0.246600,-1.046340
0.246700,-1.058350
0.246800,-1.047314
0.246900,-1.041472
0.247000,-1.015505
0.247100,-1.043419
0.247200,-1.091782
0.247300,-1.218693
0.247400,-1.135925
0.247500,-1.234923
0.247600,-1.135600
0.247700,-1.095352
0.247800,-0.992135
0.247900,-1.022970
0.248000,-1.262188
0.248100,-1.274197
0.248200,-1.190455
0.248300,-0.990837
0.248400,-0.864250
0.248500,-0.908393
0.248600,-1.143390
0.248700,-1.329051
0.248800,-1.324832
0.248900,-1.186235
0.249000,-1.080746
0.249100,-1.108985
0.249200,-1.273223
0.249300,-1.325481
0.249400,-1.342035
0.249500,-1.364106
0.249600,-1.318016
0.249700,-1.385853
0.249800,-1.443629
0.249900,-1.490044
0.250000,-1.506923
0.250100,-1.479009
0.250200,-1.492316
0.250300,-1.529643
0.250400,-1.501080
0.250500,-1.444927
0.250600,-1.419610
0.250700,-1.399486
0.250800,-1.524775
0.250900,-1.555935
0.251000,-1.528670
0.251100,-1.390398
0.251200,-1.356316
0.251300,-1.372546
0.251400,-1.340412
0.251500,-1.314121
0.251600,-1.283935
0.251700,-1.296593
0.251800,-1.256994
0.251900,-1.244985
0.252000,-1.189806
0.252100,-1.183314
0.252200,-1.146312
0.252300,-1.143715
0.252400,-1.106388
0.252500,-1.096975
0.252600,-1.068087
0.252700,-1.108336
0.252800,-1.130407
0.252900,-1.160918
0.253000,-1.170006
0.253100,-1.369949
0.253200,-1.601052
0.253300,-1.738999
0.253400,-1.598779
0.253500,-1.472192
0.253600,-1.382608
0.253700,-1.631562
0.253800,-1.884737
0.253900,-2.084031
0.254000,-2.036642
0.254100,-1.899343
0.254200,-1.859419
0.254300,-1.957119
0.254400,-2.125253
0.254500,-2.252814
0.254600,-2.308967
0.254700,-2.270666
0.254800,-2.280404
0.254900,-2.325521
0.255000,-2.376156
0.255100,-2.380700
0.255200,-2.383621
0.255300,-2.356681
0.255400,-2.374533
0.255500,-2.428738
0.255600,-2.438151
0.255700,-2.422246
0.255800,-2.334609
0.255900,-2.270341
0.256000,-2.302800
0.256100,-2.295659
0.256200,-2.238208
0.256300,-2.051572
0.256400,-1.939916
0.256500,-2.003534
0.256600,-2.101883
0.256700,-2.241129
0.256800,-2.154141
0.256900,-1.955820
0.257000,-1.738999
0.257100,-1.723095
0.257200,-1.864937
0.257300,-2.018790
0.257400,-2.017491
0.257500,-1.868832
0.257600,-1.738675
0.257700,-1.707839
0.257800,-1.708813
0.257900,-1.751333
0.258000,-1.708488
0.258100,-1.669538
0.258200,-1.633510
0.258300,-1.599104
0.258400,-1.577032
0.258500,-1.501405
0.258600,-1.375467
0.258700,-1.308927
0.258800,-1.312173
0.258900,-1.317042
0.259000,-1.359562
0.259100,-1.246608
0.259200,-1.167409
0.259300,-1.143066
0.259400,-1.023620
0.259500,-1.080421
0.259600,-1.108660
0.259700,-1.091133
0.259800,-1.069386
0.259900,-1.010961
0.260000,-0.999601
0.260100,-1.027839
0.260200,-1.078799
0.260300,-1.094703
0.260400,-1.133653
0.260500,-1.160918
0.260600,-1.168059
0.260700,-1.185586
0.260800,-1.161567
0.260900,-1.245634
0.261000,-1.208307
0.261100,-1.319963
0.261200,-1.371572
0.261300,-1.369300
0.261400,-1.344307
0.261500,-1.073930
0.261600,-1.114503
0.261700,-1.154751
0.261800,-1.693558
0.261900,-1.657529
0.262000,-1.618579
0.262100,-1.311849
0.262200,-1.225185
0.262300,-1.295295
0.262400,-1.434541
0.262500,-1.575734
0.262600,-1.470569
0.262700,-1.338140
0.262800,-1.144364
0.262900,-1.140794
0.263000,-1.150207
0.263100,-1.120994
0.263200,-1.101195
0.263300,-0.982398
0.263400,-0.913262
0.263500,-0.844126
0.263600,-0.789921
0.263700,-0.716565
0.263800,-0.601338
0.263900,-0.682159
0.264000,-0.565634
0.264100,-0.620813
0.264200,-0.559792
0.264300,-0.579267
0.264400,-0.404966
0.264500,-0.421845
0.264600,-0.454303
0.264700,-0.737663
0.264800,-0.758111
0.264900,-0.650999
0.265000,-0.436126
0.265100,-0.418923
0.265200,-0.559143
0.265300,-0.859056
0.265400,-0.973959
0.265500,-0.905472
0.265600,-0.745777
0.265700,-0.724355
0.265800,-0.871391
0.265900,-1.053157
0.266000,-1.141118
0.266100,-1.140794
0.266200,-1.164813
0.266300,-1.189157
0.266400,-1.322560
0.266500,-1.414741
0.266600,-1.479982
0.266700,-1.476412
0.266800,-1.480956
0.266900,-1.585472
0.267000,-1.628316
0.267100,-1.660126
0.267200,-1.701997
0.267300,-1.710760
0.267400,-1.779247
0.267500,-1.948355
0.267600,-2.011973
0.267700,-2.031448
0.267800,-2.017167
0.267900,-2.002560
0.268000,-2.056117
0.268100,-2.058389
0.268200,-2.069749
0.268300,-2.054494
0.268400,-2.047353
0.268500,-2.004508
0.268600,-1.995095
0.268700,-1.958417
0.268800,-1.907133
0.268900,-1.863964
0.269000,-1.815925
0.269100,-1.738999
0.269200,-1.692908
0.269300,-1.671161
0.269400,-1.618904
0.269500,-1.576059
0.269600,-1.585472
0.269700,-1.582875
0.269800,-1.732508
0.269900,-1.897071
0.270000,-1.936670
0.270100,-1.661749
0.270200,-1.493615
0.270300,-1.462455
0.270400,-1.726990
0.270500,-1.911028
0.270600,-1.971400
0.270700,-1.875324
0.270800,-1.696803
0.270900,-1.716278
0.271000,-1.849033
0.271100,-2.029825
0.271200,-2.144728
0.271300,-2.136613
0.271400,-2.072346
0.271500,-2.083057
0.271600,-2.152193
0.271700,-2.273587
0.271800,-2.284948
0.271900,-2.302800
0.272000,-2.281702
0.272100,-2.365769
0.272200,-2.466065
0.272300,-2.432633
0.272400,-2.406017
0.272500,-2.374208
0.272600,-2.406666
0.272700,-2.450485
0.272800,-2.476452
0.272900,-2.391086
0.273000,-2.227496
0.273100,-2.208671
0.273200,-2.332661
0.273300,-2.517349
0.273400,-2.650429
0.273500,-2.558247
0.273600,-2.373234
0.273700,-2.286571
0.273800,-2.384919
0.273900,-2.631603
0.274000,-2.786754
0.274100,-2.772797
0.274200,-2.682563
0.274300,-2.569607
0.274400,-2.566362
0.274500,-2.599794
0.274600,-2.652376
0.274700,-2.648481
0.274800,-2.608557
0.274900,-2.512481
0.275000,-2.440748
0.275100,-2.347917
0.275200,-2.235286
0.275300,-2.082083
0.275400,-2.023334
0.275500,-1.980489
0.275600,-1.951925
0.275700,-1.954198
0.275800,-1.785415
0.275900,-1.710111
0.276000,-1.612087
0.276100,-1.461481
0.276200,-1.483228
0.276300,-1.416040
0.276400,-1.366378
0.276500,-1.255371
0.276600,-1.120994
0.276700,-1.094054
0.276800,-1.063868
0.276900,-1.103791
0.277000,-1.058999
0.277100,-1.052507
0.277200,-1.056727
0.277300,-1.058674
0.277400,-0.969739
0.277500,-0.993433
0.277600,-0.939553
0.277700,-1.006741
0.277800,-0.955782
0.277900,-1.019725
0.278000,-0.867171
0.278100,-0.784078
0.278200,-0.486761
0.278300,-0.477673
0.278400,-0.654894
0.278500,-0.928842
0.278600,-0.901901
0.278700,-0.670150
0.278800,-0.477997
0.278900,-0.381921
0.279000,-0.516298
0.279100,-0.651973
0.279200,-0.768498
0.279300,-0.699362
0.279400,-0.467935
0.279500,-0.458522
0.279600,-0.431258
0.279700,-0.591601
0.279800,-0.616269
0.279900,-0.640288
0.280000,-0.588680
0.280100,-0.601338
0.280200,-0.659439
0.280300,-0.655219
0.280400,-0.673720
0.280500,-0.671773
0.280600,-0.714942
0.280700,-0.800307
0.280800,-0.833415
0.280900,-0.828221
0.281000,-0.721109
0.281100,-0.718837
0.281200,-0.723381
0.281300,-0.955133
0.281400,-1.122293
0.281500,-1.068087
0.281600,-0.957405
0.281700,-0.731171
0.281800,-0.815238
0.281900,-0.976231
0.282000,-1.243362
0.282100,-1.285882
0.282200,-1.223887
0.282300,-1.049262
0.282400,-1.048288
0.282500,-1.197271
0.282600,-1.314121
0.282700,-1.366378
0.282800,-1.411820
0.282900,-1.387801
0.283000,-1.444927
0.283100,-1.505300
0.283200,-1.635133
0.283300,-1.716928
0.283400,-1.723419
0.283500,-1.766589
0.283600,-1.822417
0.283700,-1.885711
0.283800,-1.862341
0.283900,-1.858121
0.284000,-1.845462
0.284100,-1.938942
0.284200,-2.048651
0.284300,-2.040537
0.284400,-2.005806
0.284500,-1.851954
0.284600,-1.923687
0.284700,-1.937644
0.284800,-1.911353
0.284900,-1.915248
0.285000,-1.911677
0.285100,-1.909730
0.285200,-1.932775
0.285300,-1.943162
0.285400,-1.958417
0.285500,-1.956470
0.285600,-1.973023
0.285700,-1.992174
0.285800,-1.959391
0.285900,-1.999315
0.286000,-1.983410
0.286100,-2.018790
0.286200,-2.048651
0.286300,-2.074293
0.286400,-2.121682
0.286500,-2.372585
0.286600,-2.487812
0.286700,-2.383946
0.286800,-2.165826
0.286900,-2.068126
0.287000,-2.106102
0.287100,-2.421597
0.287200,-2.568958
0.287300,-2.566686
0.287400,-2.339802
0.287500,-2.198284
0.287600,-2.156088
0.287700,-2.330065
0.287800,-2.406991
0.287900,-2.476776
0.288000,-2.364471
0.288100,-2.323249
0.288200,-2.332337
0.288300,-2.361549
0.288400,-2.386867
0.288500,-2.378752
0.288600,-2.348566
0.288700,-2.332661
0.288800,-2.372261
0.288900,-2.389464
0.289000,-2.378752
0.289100,-2.319029
0.289200,-2.260929
0.289300,-2.298256
0.289400,-2.343373
0.289500,-2.298905
0.289600,-2.150895
0.289700,-1.960689
0.289800,-1.981138
0.289900,-2.111296
0.290000,-2.281377
0.290100,-2.286246
0.290200,-2.134341
0.290300,-1.901940
0.290400,-1.864613
0.290500,-2.019763
0.290600,-2.263525
0.290700,-2.408939
0.290800,-2.355707
0.290900,-2.257034
0.291000,-2.198933
0.291100,-2.225874
0.291200,-2.319029
0.291300,-2.376805
0.291400,-2.377454
0.291500,-2.333311
0.291600,-2.296957
0.291700,-2.269043
0.291800,-2.171993
0.291900,-2.047353
0.292000,-1.919143
0.292100,-1.882465
0.292200,-1.887009
0.292300,-1.902913
0.292400,-1.865262
0.292500,-1.695830
0.292600,-1.666942
0.292700,-1.505949
0.292800,-1.512765
0.292900,-1.507247
0.293000,-1.470569
0.293100,-1.387152
0.293200,-1.314445
0.293300,-1.163839
0.293400,-1.177147
0.293500,-1.155400
0.293600,-1.226483
0.293700,-1.228106
0.293800,-1.260240
0.293900,-1.326779
0.294000,-1.262188
0.294100,-1.358264
0.294200,-1.267056
0.294300,-1.429997
0.294400,-1.355343
0.294500,-1.469596
0.294600,-1.347877
0.294700,-1.370273
0.294800,-1.165462
0.294900,-0.949615
0.295000,-0.928842
0.295100,-1.255047
0.295200,-1.537758
0.295300,-1.389748
0.295400,-1.185586
0.295500,-1.029137
0.295600,-0.928842
0.295700,-1.123591
0.295800,-1.259915
0.295900,-1.402407
0.296000,-1.281013
0.296100,-1.212526
0.296200,-1.083343
0.296300,-1.149233
0.296400,-1.238818
0.296500,-1.237844
0.296600,-1.285882
0.296700,-1.331973
0.296800,-1.317042
0.296900,-1.356316
0.297000,-1.373519
0.297100,-1.401433
0.297200,-1.446550
0.297300,-1.518932
0.297400,-1.563725
0.297500,-1.631887
0.297600,-1.639352
0.297700,-1.556584
0.297800,-1.550092
0.297900,-1.597481
0.298000,-1.790932
0.298100,-1.930178
0.298200,-1.849357
0.298300,-1.597481
0.298400,-1.488421
0.298500,-1.479658
0.298600,-1.689338
0.298700,-1.808135
0.298800,-1.746465
0.298900,-1.542951
0.299000,-1.368651
0.299100,-1.324183
0.299200,-1.407600
0.299300,-1.449796
0.299400,-1.432269
0.299500,-1.408250
0.299600,-1.304708
0.299700,-1.327429
0.299800,-1.315094
0.299900,-1.343658
0.300000,-1.329376
0.300100,-1.282636
0.300200,-1.299190
0.300300,-1.288479
0.300400,-1.285557
0.300500,-1.244985
0.300600,-1.232975
0.300700,-1.210579
0.300800,-1.340412
0.300900,-1.400460
0.301000,-1.384880
0.301100,-1.273223
0.301200,-1.239467
0.301300,-1.279390
0.301400,-1.270302
0.301500,-1.245958
0.301600,-1.250827
0.301700,-1.256345
0.301800,-1.253748
0.301900,-1.276469
0.302000,-1.291075
0.302100,-1.298216
0.302200,-1.318340
0.302300,-1.337491
0.302400,-1.316717
0.302500,-1.377739
0.302600,-1.375467
0.302700,-1.435190
0.302800,-1.446550
0.302900,-1.490694
0.303000,-1.585472
0.303100,-1.645519
0.303200,-2.014245
0.303300,-2.102207
0.303400,-2.050923
0.303500,-1.802293
0.303600,-1.847410
0.303700,-1.990875
0.303800,-2.341750
0.303900,-2.504691
0.304000,-2.443020
0.304100,-2.307019
0.304200,-2.257358
0.304300,-2.370313
0.304400,-2.558247
0.304500,-2.677369
0.304600,-2.677694
0.304700,-2.606610
0.304800,-2.612452
0.304900,-2.623164
0.305000,-2.676395
0.305100,-2.698143
0.305200,-2.735470
0.305300,-2.743909
0.305400,-2.765331
0.305500,-2.790324
0.305600,-2.826029
0.305700,-2.844530
0.305800,-2.864654
0.305900,-2.854267
0.306000,-2.945476
0.306100,-2.944177
0.306200,-2.959108
0.306300,-2.783508
0.306400,-2.787728
0.306500,-2.864979
0.306600,-3.022727
0.306700,-3.203195
0.306800,-3.193133
0.306900,-3.072713
0.307000,-2.892568
0.307100,-2.917237
0.307200,-3.088293
0.307300,-3.287587
0.307400,-3.346013
0.307500,-3.281420
0.307600,-3.183396
0.307700,-3.152885
0.307800,-3.135357
0.307900,-3.187291
0.308000,-3.222346
0.308100,-3.228513
0.308200,-3.212284
0.308300,-3.170737
0.308400,-3.096407
0.308500,-2.990917
0.308600,-2.867251
0.308700,-2.807203
0.308800,-2.790974
0.308900,-2.776692
0.309000,-2.751050
0.309100,-2.588433
0.309200,-2.466390
0.309300,-2.426141
0.309400,-2.207048
0.309500,-2.237883
0.309600,-2.169721
0.309700,-2.106102
0.309800,-2.019763
0.309900,-1.911677
0.310000,-1.789634
0.310100,-1.756851
0.310200,-1.675056
0.310300,-1.689338
0.310400,-1.637729
0.310500,-1.705567
0.310600,-1.615658
0.310700,-1.568593
0.310800,-1.490044
0.310900,-1.463753
0.311000,-1.454340
0.311100,-1.452393
0.311200,-1.475114
0.311300,-1.426102
0.311400,-1.337491
0.311500,-1.097300
0.311600,-0.856460
0.311700,-0.967467
0.311800,-1.254722
0.311900,-1.311524
0.312000,-1.077176
0.312100,-0.893787
0.312200,-0.711696
0.312300,-0.744479
0.312400,-0.815238
0.312500,-0.977204
0.312600,-0.826598
0.312700,-0.692546
0.312800,-0.569529
0.312900,-0.523763
0.313000,-0.566284
0.313100,-0.509806
0.313200,-0.576346
0.313300,-0.564661
0.313400,-0.565634
0.313500,-0.587057
0.313600,-0.595171
0.313700,-0.596145
0.313800,-0.549405
0.313900,-0.707152
0.314000,-0.690598
0.314100,-0.861004
0.314200,-0.863601
0.314300,-0.933710
0.314400,-0.814264
0.314500,-0.905796
0.314600,-0.946369
0.314700,-1.282636
0.314800,-1.339763
0.314900,-1.341386
0.315000,-1.175524
0.315100,-1.179419
0.315200,-1.360211
0.315300,-1.619553
0.315400,-1.785090
0.315500,-1.747438
0.315600,-1.636756
0.315700,-1.618579
0.315800,-1.766264
0.315900,-1.897071
0.316000,-1.968479
0.316100,-1.985358
0.316200,-2.043133
0.316300,-2.062933
0.316400,-2.174914
0.316500,-2.239831
0.316600,-2.284948
0.316700,-2.280079
0.316800,-2.303124
0.316900,-2.354409
0.317000,-2.358628
0.317100,-2.315134
0.317200,-2.274886
0.317300,-2.266122
0.317400,-2.275210
0.317500,-2.393683
0.317600,-2.394332
0.317700,-2.381674
0.317800,-2.199907
0.317900,-2.262227
0.318000,-2.307993
0.318100,-2.288194
0.318200,-2.255411
0.318300,-2.248270
0.318400,-2.258656
0.318500,-2.239831
0.318600,-2.195687
0.318700,-2.171668
0.318800,-2.149921
0.318900,-2.157062
0.319000,-2.144079
0.319100,-2.110322
0.319200,-2.102857
0.319300,-2.103181
0.319400,-2.109024
0.319500,-2.157062
0.319600,-2.157387
0.319700,-2.188547
0.319800,-2.357330
0.319900,-2.604987
0.320000,-2.583889
0.320100,-2.380375
0.320200,-2.239831
0.320300,-2.210618
0.320400,-2.516376
0.320500,-2.729952
0.320600,-2.776043
0.320700,-2.593627
0.320800,-2.413483
0.320900,-2.396280
0.321000,-2.515077
0.321100,-2.670553
0.321200,-2.766954
0.321300,-2.734821
0.321400,-2.690028
0.321500,-2.666333
0.321600,-2.751699
0.321700,-2.772797
0.321800,-2.753646
0.321900,-2.741961
0.322000,-2.719565
0.322100,-2.756568
0.322200,-2.815966
0.322300,-2.913991
0.322400,-2.839986
0.322500,-2.837714
0.322600,-2.828950
0.322700,-2.924702
0.322800,-2.936712
0.322900,-2.892244
0.323000,-2.745532
0.323100,-2.722811
0.323200,-2.854267
0.323300,-3.042202
0.323400,-3.180475
0.323500,-3.067844
0.323600,-2.887050
0.323700,-2.781885
0.323800,-2.890621
0.323900,-3.082450
0.324000,-3.253181
0.324100,-3.230461
0.324200,-3.104522
0.324300,-3.032464
0.324400,-3.056159
0.324500,-3.098030
0.324600,-3.112636
0.324700,-3.104197
0.324800,-3.080827
0.324900,-3.062001
0.325000,-3.020779
0.325100,-2.969495
0.325200,-2.864979
0.325300,-2.750401
0.325400,-2.703336
0.325500,-2.707880
0.325600,-2.704634
0.325700,-2.705608
0.325800,-2.575450
0.325900,-2.491058
0.326000,-2.390113
0.326100,-2.266446
0.326200,-2.251516
0.326300,-2.208346
0.326400,-2.123305
0.326500,-2.028852
0.326600,-1.881166
0.326700,-1.828909
0.326800,-1.783792
0.326900,-1.791582
0.327000,-1.777949
0.327100,-1.745491
0.327200,-1.782169
0.327300,-1.749386
0.327400,-1.701023
0.327500,-1.692908
0.327600,-1.681873
0.327700,-1.700374
0.327800,-1.759772
0.327900,-1.734455
0.328000,-1.779247
0.328100,-1.552689
0.328200,-1.447524
0.328300,-1.214149
0.328400,-1.583524
0.328500,-1.811381
0.328600,-1.821443
0.328700,-1.674083
0.328800,-1.438760
0.328900,-1.455963
0.329000,-1.482579
0.329100,-1.643896
0.329200,-1.759123
0.329300,-1.657529
0.329400,-1.535810
0.329500,-1.424154
0.329600,-1.476412
0.329700,-1.526722
0.329800,-1.548469
0.329900,-1.587744
0.330000,-1.577032
0.330100,-1.577357
0.330200,-1.619553
0.330300,-1.644870
0.330400,-1.642274
0.330500,-1.656231
0.330600,-1.698751
0.330700,-1.735753
0.330800,-1.802617
0.330900,-1.847085
0.331000,-1.791906
0.331100,-1.750035
0.331200,-1.731534
0.331300,-1.889281
0.331400,-2.096040
0.331500,-2.076241
0.331600,-1.950952
0.331700,-1.695181
0.331800,-1.779247
0.331900,-1.902264
0.332000,-2.174265
0.332100,-2.183678
0.332200,-2.064556
0.332300,-1.913625
0.332400,-1.881816
0.332500,-2.000613
0.332600,-2.115515
0.332700,-2.142456
0.332800,-2.153167
0.332900,-2.115840
0.333000,-2.137262
0.333100,-2.175239
0.333200,-2.209320
0.333300,-2.276833
0.333400,-2.239181
0.333500,-2.227821
0.333600,-2.233014
0.333700,-2.225874
0.333800,-2.188547
0.333900,-2.169396
0.334000,-2.142780
0.334100,-2.221329
0.334200,-2.291439
0.334300,-2.270666
0.334400,-2.259630
0.334500,-2.102532
0.334600,-2.171668
0.334700,-2.171344
0.334800,-2.168747
0.334900,-2.175563
0.335000,-2.185625
0.335100,-2.192442
0.335200,-2.209644
0.335300,-2.199258
0.335400,-2.238857
0.335500,-2.298580
0.335600,-2.342724
0.335700,-2.351487
0.335800,-2.382647
0.335900,-2.431984
0.336000,-2.459898
0.336100,-2.532280
0.336200,-2.578696
0.336300,-2.672825
0.336400,-2.732548
0.336500,-2.995137
0.336600,-3.165219
0.336700,-3.093161
0.336800,-2.862707
0.336900,-2.801360
0.337000,-2.830573
0.337100,-3.115558
0.337200,-3.304790
0.337300,-3.346662
0.337400,-3.178202
0.337500,-3.074335
0.337600,-3.060054
0.337700,-3.239549
0.337800,-3.392753
0.337900,-3.444686
0.338000,-3.373278
0.338100,-3.342442
0.338200,-3.338547
0.338300,-3.401192
0.338400,-3.454749
0.338500,-3.480066
0.338600,-3.486558
0.338700,-3.481040
0.338800,-3.536869
0.338900,-3.659237
0.339000,-3.607953
0.339100,-3.654368
0.339200,-3.605681
0.339300,-3.683581
0.339400,-3.722856
0.339500,-3.771219
0.339600,-3.647228
0.339700,-3.478119
0.339800,-3.544659
0.339900,-3.644631
0.340000,-3.824776
0.340100,-3.845225
0.340200,-3.661185
0.340300,-3.430729
0.340400,-3.343091
0.340500,-3.455398
0.340600,-3.667352
0.340700,-3.737462
0.340800,-3.675142
0.340900,-3.533623
0.341000,-3.474548
0.341100,-3.432352
0.341200,-3.490778
0.341300,-3.528429
0.341400,-3.503436
0.341500,-3.485909
0.341600,-3.421316
0.341700,-3.372629
0.341800,-3.291158
0.341900,-3.173983
0.342000,-3.064273
0.342100,-3.049667
0.342200,-3.028569
0.342300,-3.014612
0.342400,-2.948721
0.342500,-2.804281
0.342600,-2.773771
0.342700,-2.553378
0.342800,-2.575125
0.342900,-2.540070
0.343000,-2.470609
0.343100,-2.390437
0.343200,-2.293387
0.343300,-2.137587
0.343400,-2.151219
0.343500,-2.103506
0.343600,-2.153167
0.343700,-2.134990
0.343800,-2.129148
0.343900,-2.145052
0.344000,-2.100584
0.344100,-2.101883
0.344200,-2.071697
0.344300,-2.116814
0.344400,-2.131420
0.344500,-2.136613
0.344600,-2.178484
0.344700,-2.028202
0.344800,-1.966532
0.344900,-1.592612
0.345000,-1.737052
0.345100,-1.925634
0.345200,-2.253788
0.345300,-2.072346
0.345400,-1.901940
0.345500,-1.703295
0.345600,-1.672460
0.345700,-1.829882
0.345800,-1.988279
0.345900,-2.016842
0.346000,-1.913949
0.346100,-1.746789
0.346200,-1.715629
0.346300,-1.716603
0.346400,-1.786388
0.346500,-1.748412
0.346600,-1.771133
0.346700,-1.760422
0.346800,-1.763667
0.346900,-1.802617
0.347000,-1.802942
0.347100,-1.815925
0.347200,-1.856498
0.347300,-1.996069
0.347400,-1.945109
0.347500,-2.052222
0.347600,-1.985358
0.347700,-1.943486
0.347800,-1.956145
0.347900,-1.997367
0.348000,-2.237883
0.348100,-2.362848
0.348200,-2.293062
0.348300,-2.123630
0.348400,-1.981787
0.348500,-2.072995
0.348600,-2.286571
0.348700,-2.467364
0.348800,-2.460547
0.348900,-2.316432
0.349000,-2.172642
0.349100,-2.182379
0.349200,-2.336556
0.349300,-2.433931
0.349400,-2.454056
0.349500,-2.450161
0.349600,-2.389464
0.349700,-2.466065
0.349800,-2.493979
0.349900,-2.556299
0.350000,-2.587135
0.350100,-2.539421
0.350200,-2.568634
0.350300,-2.578371
0.350400,-2.556624
0.350500,-2.506963
0.350600,-2.481645
0.350700,-2.428089
0.350800,-2.526762
0.350900,-2.570257
0.351000,-2.562467
0.351100,-2.408289
0.351200,-2.368690
0.351300,-2.409263
0.351400,-2.414781
0.351500,-2.406017
0.351600,-2.379726
0.351700,-2.363821
0.351800,-2.351163
0.351900,-2.348891
0.352000,-2.332661
0.352100,-2.350514
0.352200,-2.320976
0.352300,-2.294361
0.352400,-2.309616
0.352500,-2.276509
0.352600,-2.282351
0.352700,-2.282351
0.352800,-2.269368
0.352900,-2.298580
0.353000,-2.319678
0.353100,-2.492681
0.353200,-2.741312
0.353300,-2.890621
0.353400,-2.821809
0.353500,-2.602066
0.353600,-2.561168
0.353700,-2.689379
0.353800,-3.065572
0.353900,-3.240523
0.354000,-3.252532
0.354100,-3.088942
0.354200,-3.074335
0.354300,-3.153534
0.354400,-3.398595
0.354500,-3.516744
0.354600,-3.590425
0.354700,-3.513498
0.354800,-3.531026
0.354900,-3.621585
0.355000,-3.666053
0.355100,-3.712469
0.355200,-3.749796
0.355300,-3.720584
0.355400,-3.770895
0.355500,-3.850743
0.355600,-3.919230
0.355700,-3.908194
0.355800,-3.905922
0.355900,-3.895860
0.356000,-3.953312
0.356100,-3.959154
0.356200,-3.937731
0.356300,-3.747849
0.356400,-3.679037
0.356500,-3.754341
0.356600,-3.881578
0.356700,-4.032186
0.356800,-3.962075
0.356900,-3.780307
0.357000,-3.571599
0.357100,-3.578091
0.357200,-3.718312
0.357300,-3.893912
0.357400,-3.943574
0.357500,-3.805301
0.357600,-3.666703
0.357700,-3.606005
0.357800,-3.610874
0.357900,-3.688125
0.358000,-3.685529
0.358100,-3.656316
0.358200,-3.593022
0.358300,-3.514797
0.358400,-3.488505
0.358500,-3.396648
0.358600,-3.250585
0.358700,-3.183396
0.358800,-3.170412
0.358900,-3.171386
0.359000,-3.185992
0.359100,-3.088942
0.359200,-2.954564
0.359300,-2.931194
0.359400,-2.712749
0.359500,-2.763384
0.359600,-2.737742
0.359700,-2.668605
0.359800,-2.598171
0.359900,-2.537474
0.360000,-2.414456
0.360100,-2.390762
0.360200,-2.392709
0.360300,-2.397903
0.360400,-2.392709
0.360500,-2.420624
0.360600,-2.376805
0.360700,-2.381349
0.360800,-2.282676
0.360900,-2.354733
0.361000,-2.313511
0.361100,-2.446590
0.361200,-2.413483
0.361300,-2.483268
0.361400,-2.395955
0.361500,-2.185950
0.361600,-1.997043
0.361700,-2.167773
0.361800,-2.475478
0.361900,-2.735470
0.362000,-2.558572
0.362100,-2.365120
0.362200,-2.189845
0.362300,-2.221329
0.362400,-2.399526
0.362500,-2.532280
0.362600,-2.515727
0.362700,-2.317406
0.362800,-2.167124
0.362900,-2.138561
0.363000,-2.109348
0.363100,-2.197959
0.363200,-2.185301
0.363300,-2.119410
0.363400,-2.095067
0.363500,-2.084355
0.363600,-2.079487
0.363700,-2.063907
0.363800,-2.084031
0.363900,-2.240480
0.364000,-2.145702
0.364100,-2.187248
0.364200,-2.205425
0.364300,-2.205425
0.364400,-2.139859
0.364500,-2.139534
0.364600,-2.169396
0.364700,-2.455354
0.364800,-2.434256
0.364900,-2.338179
0.365000,-2.124928
0.365100,-1.962637
0.365200,-2.104155
0.365300,-2.307993
0.365400,-2.462495
0.365500,-2.393359
0.365600,-2.235611
0.365700,-2.078513
0.365800,-2.144728
0.365900,-2.280404
0.366000,-2.396929
0.366100,-2.375506
0.366200,-2.395955
0.366300,-2.350838
0.366400,-2.427764
0.366500,-2.456003
0.366600,-2.535526
0.366700,-2.522218
0.366800,-2.538772
0.366900,-2.600443
0.367000,-2.627383
0.367100,-2.612452
0.367200,-2.545588
0.367300,-2.442695
0.367400,-2.487163
0.367500,-2.612128
0.367600,-2.650753
0.367700,-2.613102
0.367800,-2.585512
0.367900,-2.510533
0.368000,-2.523517
0.368100,-2.505340
0.368200,-2.448862
0.368300,-2.432309
0.368400,-2.456652
0.368500,-2.447889
0.368600,-2.464118
0.368700,-2.443994
0.368800,-2.464118
0.368900,-2.476127
0.369000,-2.503068
0.369100,-2.503392
0.369200,-2.515727
0.369300,-2.535202
0.369400,-2.571879
0.369500,-2.621216
0.369600,-2.664386
0.369700,-2.768253
0.369800,-2.981504
0.369900,-3.268112
0.370000,-3.320046
0.370100,-3.125620
0.370200,-2.972091
0.370300,-2.974688
0.370400,-3.251234
0.370500,-3.561862
0.370600,-3.726102
0.370700,-3.595294
0.370800,-3.471627
0.370900,-3.454749
0.371000,-3.591723
0.371100,-3.797511
0.371200,-3.919879
0.371300,-3.906896
0.371400,-3.947794
0.371500,-3.880604
0.371600,-3.966295
0.371700,-4.001350
0.371800,-4.027642
0.371900,-4.047442
0.372000,-4.015957
0.372100,-4.071136
0.372200,-4.123719
0.372300,-4.154555
0.372400,-4.146116
0.372500,-4.095156
0.372600,-4.088989
0.372700,-4.153906
0.372800,-4.170784
0.372900,-4.098402
0.373000,-3.941951
0.373100,-3.845549
0.373200,-3.973111
0.373300,-4.138975
0.373400,-4.282766
0.373500,-4.167214
0.373600,-3.953312
0.373700,-3.761482
0.373800,-3.820881
0.373900,-4.003622
0.374000,-4.170460
0.374100,-4.173705
0.374200,-4.051012
0.374300,-3.925722
0.374400,-3.913063
0.374500,-3.939679
0.374600,-3.991613
0.374700,-3.980577
0.374800,-3.932863
0.374900,-3.897483
0.375000,-3.839382
0.375100,-3.774140
0.375200,-3.661185
0.375300,-3.520964
0.375400,-3.457994
0.375500,-3.411579
0.375600,-3.397297
0.375700,-3.381068
0.375800,-3.212933
0.375900,-3.112961
0.376000,-2.913017
0.376100,-2.849074
0.376200,-2.849723
0.376300,-2.829599
0.376400,-2.787728
0.376500,-2.686458
0.376600,-2.555326
0.376700,-2.506638
0.376800,-2.437826
0.376900,-2.455354
0.377000,-2.451134
0.377100,-2.441072
0.377200,-2.446266
0.377300,-2.473531
0.377400,-2.359602
0.377500,-2.446266
0.377600,-2.381998
0.377700,-2.527087
0.377800,-2.464767
0.377900,-2.585187
0.378000,-2.496901
0.378100,-2.389788
0.378200,-2.108050
0.378300,-2.024957
0.378400,-2.267420
0.378500,-2.647183
0.378600,-2.639068
0.378700,-2.508910
0.378800,-2.280728
0.378900,-2.138236
0.379000,-2.212241
0.379100,-2.412834
0.379200,-2.549159
0.379300,-2.460547
0.379400,-2.334934
0.379500,-2.203802
0.379600,-2.284948
0.379700,-2.315134
0.379800,-2.399201
0.379900,-2.305396
0.380000,-2.350189
0.380100,-2.334284
0.380200,-2.328117
0.380300,-2.357979
0.380400,-2.382323
0.380500,-2.313836
0.380600,-2.384595
0.380700,-2.482619
0.380800,-2.551106
0.380900,-2.556299
0.381000,-2.529359
0.381100,-2.414781
0.381200,-2.418027
0.381300,-2.516376
0.381400,-2.814993
0.381500,-2.728004
0.381600,-2.640691
0.381700,-2.331039
0.381800,-2.359277
0.381900,-2.434905
0.382000,-2.719565
0.382100,-2.715345
0.382200,-2.593951
0.382300,-2.320003
0.382400,-2.207697
0.382500,-2.310590
0.382600,-2.392060
0.382700,-2.381674
0.382800,-2.310914
0.382900,-2.246647
0.383000,-2.209320
0.383100,-2.274561
0.383200,-2.282026
0.383300,-2.233014
0.383400,-2.226198
0.383500,-2.250866
0.383600,-2.298905
0.383700,-2.314485
0.383800,-2.315783
0.383900,-2.302151
0.384000,-2.262551
0.384100,-2.327468
0.384200,-2.475154
0.384300,-2.485540
0.384400,-2.465091
0.384500,-2.440099
0.384600,-2.388165
0.384700,-2.412834
0.384800,-2.389788
0.384900,-2.414132
0.385000,-2.384270
0.385100,-2.384919
0.385200,-2.380051
0.385300,-2.379401
0.385400,-2.383296
0.385500,-2.388165
0.385600,-2.403096
0.385700,-2.383946
0.385800,-2.370313
0.385900,-2.383946
0.386000,-2.388490
0.386100,-2.435554
0.386200,-2.468337
0.386300,-2.492357
0.386400,-2.571555
0.386500,-2.756243
0.386600,-2.993839
0.386700,-2.962029
0.386800,-2.728978
0.386900,-2.630954
0.387000,-2.737093
0.387100,-3.045447
0.387200,-3.308036
0.387300,-3.353478
0.387400,-3.204494
0.387500,-3.074011
0.387600,-3.064598
0.387700,-3.249611
0.387800,-3.445660
0.387900,-3.507331
0.388000,-3.493050
0.388100,-3.436572
0.388200,-3.439169
0.388300,-3.482014
0.388400,-3.535246
0.388500,-3.559590
0.388600,-3.555695
0.388700,-3.550501
0.388800,-3.620612
0.388900,-3.754990
0.389000,-3.762455
0.389100,-3.758236
0.389200,-3.774140
0.389300,-3.808546
0.389400,-3.854313
0.389500,-3.901378
0.389600,-3.818284
0.389700,-3.698837
0.389800,-3.718312
0.389900,-3.898132
0.390000,-4.118526
0.390100,-4.253229
0.390200,-4.143519
0.390300,-3.926046
0.390400,-3.858208
0.390500,-3.979928
0.390600,-4.225964
0.390700,-4.354175
0.390800,-4.305812
0.390900,-4.169486
0.391000,-4.039327
0.391100,-4.048415
0.391200,-4.109437
0.391300,-4.127290
0.391400,-4.101323
0.391500,-4.023422
0.391600,-3.962075
0.391700,-3.928968
0.391800,-3.871191
0.391900,-3.760183
0.392000,-3.630024
0.392100,-3.585881
0.392200,-3.558291
0.392300,-3.546606
0.392400,-3.517393
0.392500,-3.339521
0.392600,-3.270384
0.392700,-3.011042
0.392800,-3.039605
0.392900,-3.043175
0.393000,-3.022727
0.393100,-2.940931
0.393200,-2.880559
0.393300,-2.736119
0.393400,-2.747804
0.393500,-2.714696
0.393600,-2.779938
0.393700,-2.752348
0.393800,-2.773121
0.393900,-2.796167
0.394000,-2.761436
0.394100,-2.707231
0.394200,-2.728978
0.394300,-2.717942
0.394400,-2.788701
0.394500,-2.763059
0.394600,-2.882506
0.394700,-2.728653
0.394800,-2.584863
0.394900,-2.192766
0.395000,-2.332012
0.395100,-2.507612
0.395200,-2.849723
0.395300,-2.779613
0.395400,-2.548185
0.395500,-2.295984
0.395600,-2.166475
0.395700,-2.345320
0.395800,-2.421922
0.395900,-2.538447
0.396000,-2.384919
0.396100,-2.271640
0.396200,-2.152842
0.396300,-2.083706
0.396400,-2.113243
0.396500,-2.130771
0.396600,-2.124604
0.396700,-2.090522
0.396800,-2.065530
0.396900,-2.068451
0.397000,-2.011973
0.397100,-2.014245
0.397200,-2.061635
0.397300,-2.078188
0.397400,-2.057415
0.397500,-2.115191
0.397600,-2.135315
0.397700,-2.087926
0.397800,-2.085329
0.397900,-2.122007
0.398000,-2.360576
0.398100,-2.552404
0.398200,-2.532280
0.398300,-2.364146
0.398400,-2.265797
0.398500,-2.307669
0.398600,-2.547860
0.398700,-2.741312
0.398800,-2.752673
0.398900,-2.599469
0.399000,-2.432633
0.399100,-2.462495
0.399200,-2.596872
0.399300,-2.731575
0.399400,-2.720863
0.399500,-2.748778
0.399600,-2.708205
0.399700,-2.783833
0.399800,-2.829274
0.399900,-2.905227
0.400000,-2.951643
0.400100,-2.917886
0.400200,-2.911719
0.400300,-2.918210
0.400400,-2.912043
0.400500,-2.871795
0.400600,-2.857838
0.400700,-2.830897
0.400800,-2.922755
0.400900,-2.983127
0.401000,-2.968196
0.401100,-2.850048
0.401200,-2.831871
0.401300,-2.884129
0.401400,-2.911719
0.401500,-2.887700
0.401600,-2.884454
0.401700,-2.911394
0.401800,-2.891919
0.401900,-2.904578
0.402000,-2.881857
0.402100,-2.942879
0.402200,-2.933141
0.402300,-2.964626
0.402400,-2.942879
0.402500,-2.991891
0.402600,-3.001629
0.402700,-3.032139
0.402800,-3.065247
0.402900,-3.107443
0.403000,-3.133085
0.403100,-3.247339
0.403200,-3.498243
0.403300,-3.643657
0.403400,-3.503761
0.403500,-3.314853
0.403600,-3.216503
0.403700,-3.376848
0.403800,-3.598215
0.403900,-3.743629
0.404000,-3.678712
0.404100,-3.502463
0.404200,-3.410930
0.404300,-3.481040
0.404400,-3.613146
0.404500,-3.681958
0.404600,-3.688125
0.404700,-3.645929
0.404800,-3.579714
0.404900,-3.601786
0.405000,-3.647228
0.405100,-3.657290
0.405200,-3.648201
0.405300,-3.655991
0.405400,-3.666703
0.405500,-3.695915
0.405600,-3.786475
0.405700,-3.798809
0.405800,-3.765052
0.405900,-3.772193
0.406000,-3.854962
0.406100,-3.918906
0.406200,-3.939030
0.406300,-3.818284
0.406400,-3.787448
0.406500,-3.843602
0.406600,-4.046792
0.406700,-4.231806
0.406800,-4.247711
0.406900,-4.066592
0.407000,-3.879955
0.407100,-3.900729
0.407200,-4.056530
0.407300,-4.245764
0.407400,-4.287960
0.407500,-4.190259
0.407600,-4.089313
0.407700,-4.047117
0.407800,-4.057179
0.407900,-4.093857
0.408000,-4.088989
0.408100,-4.053933
0.408200,-4.010763
0.408300,-3.949417
0.408400,-3.934161
0.408500,-3.864051
0.408600,-3.719935
0.408700,-3.639437
0.408800,-3.640736
0.408900,-3.651772
0.409000,-3.652745
0.409100,-3.576793
0.409200,-3.462539
0.409300,-3.440142
0.409400,-3.238900
0.409500,-3.295702
0.409600,-3.260322
0.409700,-3.228188
0.409800,-3.118479
0.409900,-3.060378
0.410000,-2.961380
0.410100,-2.953915
0.410200,-2.917237
0.410300,-2.924702
0.410400,-2.871146
0.410500,-2.866926
0.410600,-2.833494
0.410700,-2.748453
0.410800,-2.719890
0.410900,-2.629006
0.411000,-2.697818
0.411100,-2.654973
0.411200,-2.723135
0.411300,-2.624787
0.411400,-2.579669
0.411500,-2.312862
0.411600,-2.156413
0.411700,-2.214189
0.411800,-2.642963
0.411900,-2.685808
0.412000,-2.658868
0.412100,-2.387191
0.412200,-2.310914
0.412300,-2.218733
0.412400,-2.481970
0.412500,-2.543965
0.412600,-2.623813
0.412700,-2.455354
0.412800,-2.376480
0.412900,-2.296308
0.413000,-2.315783
0.413100,-2.394332
0.413200,-2.342399
0.413300,-2.280728
0.413400,-2.246647
0.413500,-2.232690
0.413600,-2.213215
0.413700,-2.196661
0.413800,-2.190169
0.413900,-2.102207
0.414000,-2.231391
0.414100,-2.194064
0.414200,-2.381674
0.414300,-2.329091
0.414400,-2.267096
0.414500,-2.226847
0.414600,-2.243726
0.414700,-2.564414
0.414800,-2.608557
0.414900,-2.582591
0.415000,-2.402447
0.415100,-2.343373
0.415200,-2.455679
0.415300,-2.746830
0.415400,-2.900034
0.415500,-2.881857
0.415600,-2.686458
0.415700,-2.554677
0.415800,-2.671527
0.415900,-2.813694
0.416000,-2.916588
0.416100,-2.867575
0.416200,-2.844205
0.416300,-2.762086
0.416400,-2.854267
0.416500,-2.904578
0.416600,-2.956836
0.416700,-2.934764
0.416800,-2.889647
0.416900,-2.885752
0.417000,-2.913342
0.417100,-2.909771
0.417200,-2.861733
0.417300,-2.855566
0.417400,-2.896139
0.417500,-3.061027
0.417600,-3.114908
0.417700,-3.115882
0.417800,-3.126918
0.417900,-3.118803
0.418000,-3.133085
0.418100,-3.143472
0.418200,-3.178852
0.418300,-3.158078
0.418400,-3.203195
0.418500,-3.238900
0.418600,-3.255778
0.418700,-3.278174
0.418800,-3.304141
0.418900,-3.316800
0.419000,-3.341468
0.419100,-3.351206
0.419200,-3.418395
0.419300,-3.372629
0.419400,-3.435598
0.419500,-3.447932
0.419600,-3.518043
0.419700,-3.572898
0.419800,-3.783878
0.419900,-3.961751
0.420000,-4.009465
0.420100,-3.831917
0.420200,-3.634893
0.420300,-3.604707
0.420400,-3.846848
0.420500,-4.090936
0.420600,-4.164942
0.420700,-4.047766
0.420800,-3.868270
0.420900,-3.799783
0.421000,-3.882227
0.421100,-4.087690
0.421200,-4.124368
0.421300,-4.113982
0.421400,-4.012386
0.421500,-4.021150
0.421600,-4.050687
0.421700,-4.104244
0.421800,-4.124693
0.421900,-4.106516
0.422000,-4.069838
0.422100,-4.110736
0.422200,-4.187987
0.422300,-4.181171
0.422400,-4.179873
0.422500,-4.154555
0.422600,-4.168188
0.422700,-4.244790
0.422800,-4.239596
0.422900,-4.233429
0.423000,-4.085743
0.423100,-4.074382
0.423200,-4.159099
0.423300,-4.337622
0.423400,-4.477843
0.423500,-4.399293
0.423600,-4.202918
0.423700,-4.051012
0.423800,-4.102621
0.423900,-4.299970
0.424000,-4.474597
0.424100,-4.506731
0.424200,-4.378844
0.424300,-4.272380
0.424400,-4.265239
0.424500,-4.303215
0.424600,-4.400591
0.424700,-4.425909
0.424800,-4.391503
0.424900,-4.369756
0.425000,-4.333077
0.425100,-4.288609
0.425200,-4.214603
0.425300,-4.133781
0.425400,-4.080874
0.425500,-4.080225
0.425600,-4.037055
0.425700,-4.049389
0.425800,-3.900080
0.425900,-3.798809
0.426000,-3.658913
0.426100,-3.588478
0.426200,-3.593346
0.426300,-3.586855
0.426400,-3.515446
0.426500,-3.399894
0.426600,-3.291482
0.426700,-3.225267
0.426800,-3.178852
0.426900,-3.147367
0.427000,-3.140226
0.427100,-3.075958
0.427200,-3.116531
0.427300,-2.980855
0.427400,-2.895490
0.427500,-2.804931
0.427600,-2.779938
0.427700,-2.796491
0.427800,-2.728004
0.427900,-2.728978
0.428000,-2.582266
0.428100,-2.422246
0.428200,-2.152193
0.428300,-2.031124
0.428400,-2.261902
0.428500,-2.618295
0.428600,-2.644911
0.428700,-2.452108
0.428800,-2.194389
0.428900,-2.232690
0.429000,-2.172642
0.429100,-2.463469
0.429200,-2.490734
0.429300,-2.493655
0.429400,-2.291115
0.429500,-2.139859
0.429600,-2.175239
0.429700,-2.153167
0.429800,-2.206723
0.429900,-2.136938
0.430000,-2.174265
0.430100,-2.157387
0.430200,-2.137912
0.430300,-2.121358
0.430400,-2.118437
0.430500,-2.113892
0.430600,-2.076565
0.430700,-2.272938
0.430800,-2.269043
0.430900,-2.293387
0.431000,-2.259306
0.431100,-2.208346
0.431200,-2.196986
0.431300,-2.269368
0.431400,-2.572529
0.431500,-2.487163
0.431600,-2.463793
0.431700,-2.154790
0.431800,-2.240480
0.431900,-2.337855
0.432000,-2.610180
0.432100,-2.667307
0.432200,-2.587135
0.432300,-2.407640
0.432400,-2.329740
0.432500,-2.464442
0.432600,-2.582915
0.432700,-2.630305
0.432800,-2.643612
0.432900,-2.648806
0.433000,-2.648806
0.433100,-2.717618
0.433200,-2.784806
0.433300,-2.872769
0.433400,-2.835442
0.433500,-2.888673
0.433600,-2.933790
0.433700,-2.972091
0.433800,-2.972091
0.433900,-2.975013
0.434000,-2.953915
0.434100,-3.003251
0.434200,-3.116856
0.434300,-3.209687
0.434400,-3.191510
0.434500,-3.233057
0.434600,-3.209363
0.434700,-3.257401
0.434800,-3.252208
0.434900,-3.259673
0.435000,-3.267463
0.435100,-3.266165
0.435200,-3.286938
0.435300,-3.295702
0.435400,-3.285640
0.435500,-3.256427
0.435600,-3.269411
0.435700,-3.263568
0.435800,-3.247339
0.435900,-3.252857
0.436000,-3.224943
0.436100,-3.226890
0.436200,-3.254480
0.436300,-3.247988
0.436400,-3.308685
0.436500,-3.442414
0.436600,-3.750446
0.436700,-3.643982
0.436800,-3.483312
0.436900,-3.319721
0.437000,-3.341468
0.437100,-3.618664
0.437200,-3.809520
0.437300,-3.845225
0.437400,-3.676765
0.437500,-3.560563
0.437600,-3.552449
0.437700,-3.700459
0.437800,-3.824127
0.437900,-3.897807
0.438000,-3.886122
0.438100,-3.857883
0.438200,-3.885149
0.438300,-3.931564
0.438400,-3.972787
0.438500,-3.984472
0.438600,-4.026019
0.438700,-4.011412
0.438800,-4.080549
0.438900,-4.154230
0.439000,-4.166565
0.439100,-4.156502
0.439200,-4.149037
0.439300,-4.191558
0.439400,-4.214279
0.439500,-4.227911
0.439600,-4.164942
0.439700,-3.993236
0.439800,-4.061074
0.439900,-4.172083
0.440000,-4.370405
0.440100,-4.494072
0.440200,-4.358395
0.440300,-4.163643
0.440400,-4.126965
0.440500,-4.237000
0.440600,-4.461289
0.440700,-4.590150
0.440800,-4.581062
0.440900,-4.463561
0.441000,-4.380467
0.441100,-4.391178
0.441200,-4.452201
0.441300,-4.471027
0.441400,-4.448955
0.441500,-4.403188
0.441600,-4.410978
0.441700,-4.391503
0.441800,-4.339245
0.441900,-4.206813
0.442000,-4.103270
0.442100,-4.085093
0.442200,-4.112683
0.442300,-4.126965
0.442400,-4.075031
0.442500,-3.940004
0.442600,-3.902352
0.442700,-3.687151
0.442800,-3.742006
0.442900,-3.728698
0.443000,-3.719285
0.443100,-3.630349
0.443200,-3.534272
0.443300,-3.403789
0.443400,-3.342118
0.443500,-3.276552
0.443600,-3.329459
0.443700,-3.265840
0.443800,-3.246041
0.443900,-3.267139
0.444000,-3.183720
0.444100,-3.129515
0.444200,-3.074011
0.444300,-3.077581
0.444400,-3.070765
0.444500,-3.057132
0.444600,-3.143472
0.444700,-3.004225
0.444800,-2.861084
0.444900,-2.500796
0.445000,-2.404394
0.445100,-2.613426
0.445200,-2.825055
0.445300,-2.707880
0.445400,-2.443994
0.445500,-2.316432
0.445600,-2.196661
0.445700,-2.299229
0.445800,-2.443994
0.445900,-2.470934
0.446000,-2.355382
0.446100,-2.307669
0.446200,-2.196012
0.446300,-2.260929
0.446400,-2.281053
0.446500,-2.261902
0.446600,-2.238532
0.446700,-2.246647
0.446800,-2.241454
0.446900,-2.240804
0.447000,-2.234313
0.447100,-2.259306
0.447200,-2.214513
0.447300,-2.364146
0.447400,-2.275210
0.447500,-2.346943
0.447600,-2.324547
0.447700,-2.220356
0.447800,-2.204127
0.447900,-2.171019
0.448000,-2.309616
0.448100,-2.522543
0.448200,-2.449836
0.448300,-2.326819
0.448400,-2.122656
0.448500,-2.173940
0.448600,-2.391411
0.448700,-2.626410
0.448800,-2.636796
0.448900,-2.491707
0.449000,-2.397254
0.449100,-2.448538
0.449200,-2.616023
0.449300,-2.724758
0.449400,-2.717293
0.449500,-2.763708
0.449600,-2.765981
0.449700,-2.822783
0.449800,-2.852320
0.449900,-2.854917
0.450000,-2.836415
0.450100,-2.837064
0.450200,-2.861733
0.450300,-2.905227
0.450400,-2.899709
0.450500,-2.848749
0.450600,-2.851022
0.450700,-2.835442
0.450800,-2.969170
0.450900,-3.031166
0.451000,-3.030517
0.451100,-3.027920
0.451200,-3.017209
0.451300,-2.945476
0.451400,-2.977934
0.451500,-2.941256
0.451600,-2.960406
0.451700,-2.946125
0.451800,-2.966898
0.451900,-2.943203
0.452000,-2.954564
0.452100,-2.949371
0.452200,-2.962029
0.452300,-2.955538
0.452400,-2.928922
0.452500,-2.875690
0.452600,-2.915614
0.452700,-2.888349
0.452800,-2.911394
0.452900,-2.954888
0.453000,-2.979557
0.453100,-3.087968
0.453200,-3.335301
0.453300,-3.415798
0.453400,-3.287587
0.453500,-3.028894
0.453600,-3.046097
0.453700,-3.175281
0.453800,-3.490128
0.453900,-3.654044
0.454000,-3.643982
0.454100,-3.525508
0.454200,-3.429756
0.454300,-3.520315
0.454400,-3.699486
0.454500,-3.826723
0.454600,-3.935784
0.454700,-3.904624
0.454800,-3.899106
0.454900,-3.871516
0.455000,-3.897158
0.455100,-3.971488
0.455200,-3.946820
0.455300,-3.963374
0.455400,-3.965321
0.455500,-3.973111
0.455600,-4.048415
0.455700,-4.068215
0.455800,-4.019203
0.455900,-4.004272
0.456000,-3.986419
0.456100,-4.026993
0.456200,-4.029914
0.456300,-3.934486
0.456400,-3.800432
0.456500,-3.884499
0.456600,-4.083795
0.456700,-4.245764
0.456800,-4.281468
0.456900,-4.088664
0.457000,-3.903975
0.457100,-3.912089
0.457200,-4.075680
0.457300,-4.258098
0.457400,-4.303215
0.457500,-4.234728
0.457600,-4.132808
0.457700,-4.048091
0.457800,-4.038678
0.457900,-4.065943
0.458000,-4.038353
0.458100,-4.008816
0.458200,-3.995183
0.458300,-3.992262
0.458400,-3.937731
0.458500,-3.844575
0.458600,-3.703381
0.458700,-3.593996
0.458800,-3.592697
0.458900,-3.581012
0.459000,-3.569002
0.459100,-3.480066
0.459200,-3.339196
0.459300,-3.286614
0.459400,-3.104846
0.459500,-3.126269
0.459600,-3.110364
0.459700,-3.057782
0.459800,-2.978583
0.459900,-2.911394
0.460000,-2.775069
0.460100,-2.779613
0.460200,-2.703660
0.460300,-2.738391
0.460400,-2.685808
0.460500,-2.736768
0.460600,-2.697493
0.460700,-2.661789
0.460800,-2.632901
0.460900,-2.559870
0.461000,-2.582266
0.461100,-2.587135
0.461200,-2.634524
0.461300,-2.586486
0.461400,-2.532280
0.461500,-2.257034
0.461600,-2.083057
0.461700,-2.102532
0.461800,-2.456652
0.461900,-2.616672
0.462000,-2.379726
0.462100,-2.297606
0.462200,-2.091821
0.462300,-2.172317
0.462400,-2.274561
0.462500,-2.399850
0.462600,-2.439774
0.462700,-2.256384
0.462800,-2.130122
0.462900,-2.099286
0.463000,-2.088900
0.463100,-2.093119
0.463200,-2.175888
0.463300,-2.172642
0.463400,-2.095067
0.463500,-2.104479
0.463600,-2.116164
0.463700,-2.097014
0.463800,-2.117787
0.463900,-2.232041
0.464000,-2.264824
0.464100,-2.313836
0.464200,-2.358953
0.464300,-2.426791
0.464400,-2.307669
0.464500,-2.372910
0.464600,-2.355058
0.464700,-2.748453
0.464800,-2.800062
0.464900,-2.734171
0.465000,-2.508910
0.465100,-2.525464
0.465200,-2.600767
0.465300,-2.854267
0.465400,-2.990593
0.465500,-2.926325
0.465600,-2.789351
0.465700,-2.755269
0.465800,-2.859785
0.465900,-2.982803
0.466000,-3.020779
0.466100,-2.960082
0.466200,-2.963652
0.466300,-2.981180
0.466400,-3.091863
0.466500,-3.113935
0.466600,-3.078230
0.466700,-3.022727
0.466800,-3.035710
0.466900,-3.109715
0.467000,-3.155806
0.467100,-3.170412
0.467200,-3.119777
0.467300,-3.120426
0.467400,-3.133734
0.467500,-3.306089
0.467600,-3.398271
0.467700,-3.405087
0.467800,-3.429431
0.467900,-3.372629
0.468000,-3.423913
0.468100,-3.440142
0.468200,-3.444362
0.468300,-3.446634
0.468400,-3.446959
0.468500,-3.445011
0.468600,-3.457345
0.468700,-3.427159
0.468800,-3.468057
0.468900,-3.436572
0.469000,-3.465135
0.469100,-3.470978
0.469200,-3.507007
0.469300,-3.514797
0.469400,-3.512849
0.469500,-3.526157
0.469600,-3.574196
0.469700,-3.622884
0.469800,-3.720584
0.469900,-4.008816
0.470000,-4.037055
0.470100,-3.878981
0.470200,-3.723830
0.470300,-3.702082
0.470400,-3.897158
0.470500,-4.069513
0.470600,-4.199023
0.470700,-4.077953
0.470800,-3.936758
0.470900,-3.885473
0.471000,-3.967593
0.471100,-4.109437
0.471200,-4.182145
0.471300,-4.164292
0.471400,-4.097428
0.471500,-4.074382
0.471600,-4.088339
0.471700,-4.098077
0.471800,-4.138326
0.471900,-4.099375
0.472000,-4.083146
0.472100,-4.120149
0.472200,-4.146116
0.472300,-4.186364
0.472400,-4.248360
0.472500,-4.152607
0.472600,-4.166240
0.472700,-4.137027
0.472800,-4.174355
0.472900,-4.107165
0.473000,-3.988042
0.473100,-3.873788
0.473200,-3.949092
0.473300,-4.170460
0.473400,-4.247062
0.473500,-4.192856
0.473600,-3.976682
0.473700,-3.841330
0.473800,-3.927994
0.473900,-4.129886
0.474000,-4.254852
0.474100,-4.269134
0.474200,-4.150335
0.474300,-4.073084
0.474400,-4.087041
0.474500,-4.116578
0.474600,-4.147089
0.474700,-4.110736
0.474800,-4.093533
0.474900,-4.088015
0.475000,-4.067566
0.475100,-4.040950
0.475200,-3.921178
0.475300,-3.794589
0.475400,-3.722856
0.475500,-3.719610
0.475600,-3.714092
0.475700,-3.719285
0.475800,-3.601786
0.475900,-3.467732
0.476000,-3.275253
0.476100,-3.226566
0.476200,-3.235005
0.476300,-3.194107
0.476400,-3.114584
0.476500,-2.971442
0.476600,-2.853294
0.476700,-2.778964
0.476800,-2.765007
0.476900,-2.734496
0.477000,-2.709503
0.477100,-2.701388
0.477200,-2.719565
0.477300,-2.701388
0.477400,-2.650753
0.477500,-2.670878
0.477600,-2.688405
0.477700,-2.662114
0.477800,-2.698792
0.477900,-2.756892
0.478000,-2.648157
0.478100,-2.614400
0.478200,-2.380375
0.478300,-2.335907
0.478400,-2.351812
0.478500,-2.827976
0.478600,-2.706582
0.478700,-2.608882
0.478800,-2.408289
0.478900,-2.332661
0.479000,-2.318704
0.479100,-2.491058
0.479200,-2.517999
0.479300,-2.450161
0.479400,-2.244050
0.479500,-2.117463
0.479600,-2.097339
0.479700,-2.184002
0.479800,-2.208671
0.479900,-2.211916
0.480000,-2.184002
0.480100,-2.114866
0.480200,-2.127525
0.480300,-2.134341
0.480400,-2.161606
0.480500,-2.166475
0.480600,-2.129472
0.480700,-2.279754
0.480800,-2.266446
0.480900,-2.381024
0.481000,-2.337855
0.481100,-2.252165
0.481200,-2.251840
0.481300,-2.358628
0.481400,-2.645235
0.481500,-2.695546
0.481600,-2.593302
0.481700,-2.409588
0.481800,-2.460223
0.481900,-2.570906
0.482000,-2.827976
0.482100,-2.894840
0.482200,-2.835766
0.482300,-2.682238
0.482400,-2.621216
0.482500,-2.733847
0.482600,-2.863031
0.482700,-2.911719
0.482800,-2.870821
0.482900,-2.880883
0.483000,-2.863031
0.483100,-2.917886
0.483200,-2.972741
0.483300,-3.038307
0.483400,-3.000979
0.483500,-2.978259
0.483600,-2.991566
0.483700,-2.987022
0.483800,-2.984426
0.483900,-2.956836
0.484000,-2.926325
0.484100,-2.980206
0.484200,-3.085696
0.484300,-3.078555
0.484400,-3.045447
0.484500,-2.880559
0.484600,-2.944826
0.484700,-2.985399
0.484800,-2.976311
0.484900,-2.973390
0.485000,-2.974363
0.485100,-2.987022
0.485200,-2.981504
0.485300,-2.977934
0.485400,-2.988970
0.485500,-2.963328
0.485600,-2.980531
0.485700,-2.940931
0.485800,-2.954564
0.485900,-2.936063
0.486000,-2.931194
0.486100,-2.938335
0.486200,-2.921781
0.486300,-2.980855
0.486400,-3.014612
0.486500,-3.247014
0.486600,-3.402166
0.486700,-3.322318
0.486800,-3.172684
0.486900,-2.984750
0.487000,-3.102250
0.487100,-3.270060
0.487200,-3.509603
0.487300,-3.568353
0.487400,-3.481365
0.487500,-3.364514
0.487600,-3.348934
0.487700,-3.504085
0.487800,-3.663781
0.487900,-3.782255
0.488000,-3.742980
0.488100,-3.728698
0.488200,-3.736813
0.488300,-3.769921
0.488400,-3.797511
0.488500,-3.844575
0.488600,-3.867946
0.488700,-3.864375
0.488800,-3.892614
0.488900,-3.984796
0.489000,-3.960453
0.489100,-3.957856
0.489200,-3.899106
0.489300,-4.014009
0.489400,-4.015957
0.489500,-4.062048
0.489600,-3.982849
0.489700,-3.868270
0.489800,-3.903975
0.489900,-3.987393
0.490000,-4.200971
0.490100,-4.214603
0.490200,-4.125667
0.490300,-4.007842
0.490400,-3.946495
0.490500,-4.055556
0.490600,-4.214928
0.490700,-4.365211
0.490800,-4.404486
0.490900,-4.317497
0.491000,-4.250957
0.491100,-4.246413
0.491200,-4.292179
0.491300,-4.341841
0.491400,-4.354500
0.491500,-4.348658
0.491600,-4.335999
0.491700,-4.305163
0.491800,-4.261993
0.491900,-4.138975
0.492000,-4.036406
0.492100,-4.003947
0.492200,-4.008167
0.492300,-4.004272
0.492400,-3.952987
0.492500,-3.790370
0.492600,-3.731295
0.492700,-3.520964
0.492800,-3.532974
0.492900,-3.495322
0.493000,-3.498568
0.493100,-3.412877
0.493200,-3.372953
0.493300,-3.226890
0.493400,-3.195730
0.493500,-3.166517
0.493600,-3.162622
0.493700,-3.186642
0.493800,-3.104846
0.493900,-3.210985
0.494000,-3.109391
0.494100,-3.131138
0.494200,-3.072063
0.494300,-3.083424
0.494400,-3.082775
0.494500,-3.056483
0.494600,-3.124646
0.494700,-2.981504
0.494800,-2.809799
0.494900,-2.616347
0.495000,-2.439449
0.495100,-2.786105
0.495200,-2.845504
0.495300,-2.948072
0.495400,-2.561168
0.495500,-2.582591
0.495600,-2.352786
0.495700,-2.487488
0.495800,-2.646209
0.495900,-2.626410
0.496000,-2.612777
0.496100,-2.408939
0.496200,-2.416079
0.496300,-2.269692
0.496400,-2.365444
0.496500,-2.377129
0.496600,-2.346619
0.496700,-2.332986
0.496800,-2.271315
0.496900,-2.290466
0.497000,-2.258656
0.497100,-2.264824
0.497200,-2.207372
0.497300,-2.210618
0.497400,-2.358953
0.497500,-2.274886
0.497600,-2.352136
0.497700,-2.132718
0.497800,-2.259306
0.497900,-2.164203
0.498000,-2.430686
0.498100,-2.544614
0.498200,-2.445616
0.498300,-2.303124
0.498400,-2.124928
0.498500,-2.265797
0.498600,-2.376480
0.498700,-2.536500
0.498800,-2.508261
0.498900,-2.389464
0.499000,-2.263201
0.499100,-2.241454
0.499200,-2.296957
0.499300,-2.373559
0.499400,-2.379401
0.499500,-2.397903
0.499600,-2.373559
0.499700,-2.408939
0.499800,-2.467364
0.499900,-2.528710
0.500000,-2.585837
0.500100,-2.615049
0.500200,-2.666982
0.500300,-2.690028
0.500400,-2.743909
0.500500,-2.747804
0.500600,-2.714696
0.500700,-2.725083
0.500800,-2.881532
0.500900,-3.031166
0.501000,-3.053562
0.501100,-3.071090
0.501200,-3.111663
0.501300,-3.056808
0.501400,-3.096407
0.501500,-3.081801
0.501600,-3.084722
0.501700,-3.099653
0.501800,-3.114584
0.501900,-3.140226
0.502000,-3.131787
0.502100,-3.130489
0.502200,-3.138279
0.502300,-3.144770
0.502400,-3.145419
0.502500,-3.155806
0.502600,-3.187615
0.502700,-3.214880
0.502800,-3.257076
0.502900,-3.289860
0.503000,-3.317125
0.503100,-3.450529
0.503200,-3.665729
0.503300,-3.882552
0.503400,-3.753691
0.503500,-3.625805
0.503600,-3.468381
0.503700,-3.624182
0.503800,-3.957856
0.503900,-4.115605
0.504000,-4.138975
0.504100,-4.003622
0.504200,-3.916309
0.504300,-3.945522
0.504400,-4.092234
0.504500,-4.194804
0.504600,-4.220121
0.504700,-4.182145
0.504800,-4.174355
0.504900,-4.116578
0.505000,-4.118201
0.505100,-4.141247
0.505200,-4.160073
0.505300,-4.122096
0.505400,-4.102621
0.505500,-4.119500
0.505600,-4.207138
0.505700,-4.141571
0.505800,-4.108464
0.505900,-4.069513
0.506000,-4.132483
0.506100,-4.134106
0.506200,-4.145142
0.506300,-3.988367
0.506400,-3.900080
0.506500,-3.984147
0.506600,-4.113332
0.506700,-4.267511
0.506800,-4.243492
0.506900,-4.103595
0.507000,-3.903650
0.507100,-3.868595
0.507200,-4.005245
0.507300,-4.182469
0.507400,-4.247062
0.507500,-4.197400
0.507600,-4.075356
0.507700,-3.994859
0.507800,-3.992262
0.507900,-4.030238
0.508000,-4.031537
0.508100,-3.998754
0.508200,-3.957856
0.508300,-3.876385
0.508400,-3.821854
0.508500,-3.689099
0.508600,-3.505059
0.508700,-3.370032
0.508800,-3.303492
0.508900,-3.238575
0.509000,-3.201897
0.509100,-3.092837
0.509200,-2.900358
0.509300,-2.848749
0.509400,-2.590056
0.509500,-2.606285
0.509600,-2.571555
0.509700,-2.517999
0.509800,-2.430361
0.509900,-2.331039
0.510000,-2.210943
0.510100,-2.196337
0.510200,-2.200232
0.510300,-2.221329
0.510400,-2.245024
0.510500,-2.244699
0.510600,-2.287220
0.510700,-2.255086
0.510800,-2.238532
0.510900,-2.292089
0.511000,-2.261902
0.511100,-2.369989
0.511200,-2.357979
0.511300,-2.421273
0.511400,-2.356031
0.511500,-2.158036
0.511600,-1.917195
0.511700,-1.939591
0.511800,-2.267420
0.511900,-2.417053
0.512000,-2.270991
0.512100,-2.081759
0.512200,-1.840594
0.512300,-1.843839
0.512400,-1.878570
0.512500,-2.024957
0.512600,-1.964909
0.512700,-1.876622
0.512800,-1.660450
0.512900,-1.573462
0.513000,-1.567944
0.513100,-1.568918
0.513200,-1.564049
0.513300,-1.573137
0.513400,-1.540679
0.513500,-1.528020
0.513600,-1.480631
0.513700,-1.527696
0.513800,-1.541328
0.513900,-1.602674
0.514000,-1.626044
0.514100,-1.756202
0.514200,-1.766913
0.514300,-1.825338
0.514400,-1.719849
0.514500,-1.753605
0.514600,-1.812355
0.514700,-2.157387
0.514800,-2.236909
0.514900,-2.227496
0.515000,-1.991525
0.515100,-2.023009
0.515200,-2.038589
0.515300,-2.347592
0.515400,-2.496576
0.515500,-2.506314
0.515600,-2.317731
0.515700,-2.184327
0.515800,-2.265797
0.515900,-2.354409
0.516000,-2.441721
0.516100,-2.400499
0.516200,-2.460547
0.516300,-2.383621
0.516400,-2.413158
0.516500,-2.427115
0.516600,-2.453082
0.516700,-2.460223
0.516800,-2.452108
0.516900,-2.481645
0.517000,-2.497874
0.517100,-2.480996
0.517200,-2.435230
0.517300,-2.448862
0.517400,-2.438151
0.517500,-2.579669
0.517600,-2.618295
0.517700,-2.610505
0.517800,-2.490084
0.517900,-2.492681
0.518000,-2.563440
0.518100,-2.538772
0.518200,-2.531631
0.518300,-2.552729
0.518400,-2.563765
0.518500,-2.567984
0.518600,-2.582591
0.518700,-2.589082
0.518800,-2.578047
0.518900,-2.557922
0.519000,-2.551431
0.519100,-2.518648
0.519200,-2.554352
0.519300,-2.570581
0.519400,-2.610830
0.519500,-2.607908
0.519600,-2.653025
0.519700,-2.677045
0.519800,-2.819537
0.519900,-3.065896
0.520000,-3.166193
0.520100,-2.975013
0.520200,-2.773121
0.520300,-2.715670
0.520400,-2.851346
0.520500,-3.149314
0.520600,-3.305764
0.520700,-3.230136
0.520800,-3.123672
0.520900,-3.025972
0.521000,-3.103223
0.521100,-3.231434
0.521200,-3.367760
0.521300,-3.394376
0.521400,-3.365163
0.521500,-3.342442
0.521600,-3.372629
0.521700,-3.400218
0.521800,-3.432352
0.521900,-3.446959
0.522000,-3.432028
0.522100,-3.435923
0.522200,-3.468706
0.522300,-3.527780
0.522400,-3.501813
0.522500,-3.482663
0.522600,-3.443064
0.522700,-3.478768
0.522800,-3.470653
0.522900,-3.441116
0.523000,-3.218451
0.523100,-3.151911
0.523200,-3.246690
0.523300,-3.468057
0.523400,-3.530377
0.523500,-3.485909
0.523600,-3.272332
0.523700,-3.109391
0.523800,-3.150937
0.523900,-3.298623
0.524000,-3.465135
0.524100,-3.473574
0.524200,-3.359970
0.524300,-3.263568
0.524400,-3.200923
0.524500,-3.200923
0.524600,-3.209687
0.524700,-3.206117
0.524800,-3.207415
0.524900,-3.172035
0.525000,-3.137629
0.525100,-3.045772
0.525200,-2.948397
0.525300,-2.836415
0.525400,-2.764358
0.525500,-2.764033
0.525600,-2.733198
0.525700,-2.717942
0.525800,-2.605636
0.525900,-2.476776
0.526000,-2.379401
0.526100,-2.238857
0.526200,-2.255735
0.526300,-2.242103
0.526400,-2.175239
0.526500,-2.078513
0.526600,-1.999639
0.526700,-1.929854
0.526800,-1.941214
0.526900,-1.904861
0.527000,-1.988603
0.527100,-1.939916
0.527200,-2.073320
0.527300,-2.023658
0.527400,-2.075592
0.527500,-1.979840
0.527600,-2.080460
0.527700,-2.180432
0.527800,-2.135964
0.527900,-2.374208
0.528000,-2.187248
0.528100,-2.308967
0.528200,-1.846436
0.528300,-1.922064
0.528400,-1.988928
0.528500,-2.354409
0.528600,-2.521244
0.528700,-2.344996
0.528800,-2.254761
0.528900,-2.109348
0.529000,-2.176862
0.529100,-2.388165
0.529200,-2.520920
0.529300,-2.636796
0.529400,-2.504042
0.529500,-2.462819
0.529600,-2.384595
0.529700,-2.473855
0.529800,-2.588433
0.529900,-2.554027
0.530000,-2.587784
0.530100,-2.600118
0.530200,-2.662763
0.530300,-2.612128
0.530400,-2.622839
0.530500,-2.611154
0.530600,-2.632577
0.530700,-2.635498
0.530800,-2.706582
0.530900,-2.753971
0.531000,-2.742611
0.531100,-2.662114
0.531200,-2.608557
0.531300,-2.699116
0.531400,-2.994812
0.531500,-2.904902
0.531600,-2.793895
0.531700,-2.516376
0.531800,-2.545588
0.531900,-2.598820
0.532000,-2.860759
0.532100,-2.905876
0.532200,-2.806878
0.532300,-2.598495
0.532400,-2.500471
0.532500,-2.561168
0.532600,-2.606935
0.532700,-2.624137
0.532800,-2.561817
0.532900,-2.541044
0.533000,-2.505989
0.533100,-2.529034
0.533200,-2.542992
0.533300,-2.524166
0.533400,-2.464767
0.533500,-2.447564
0.533600,-2.465741
0.533700,-2.462819
0.533800,-2.431010
0.533900,-2.369339
0.534000,-2.319029
0.534100,-2.302800
0.534200,-2.384919
0.534300,-2.389788
0.534400,-2.371287
0.534500,-2.335583
0.534600,-2.215162
0.534700,-2.226523
0.534800,-2.243726
0.534900,-2.233664
0.535000,-2.253788
0.535100,-2.254761
0.535200,-2.308642
0.535300,-2.334284
0.535400,-2.387191
0.535500,-2.440099
0.535600,-2.475478
0.535700,-2.522543
0.535800,-2.581617
0.535900,-2.644911
0.536000,-2.703011
0.536100,-2.769876
0.536200,-2.901657
0.536300,-2.978908
0.536400,-3.033762
0.536500,-3.314528
0.536600,-3.571599
0.536700,-3.646254
0.536800,-3.499217
0.536900,-3.396972
0.537000,-3.496945
0.537100,-3.764078
0.537200,-4.005570
0.537300,-4.124044
0.537400,-4.074707
0.537500,-3.945197
0.537600,-3.971813
0.537700,-4.165266
0.537800,-4.316199
0.537900,-4.461289
0.538000,-4.490177
0.538100,-4.472325
0.538200,-4.438568
0.538300,-4.525557
0.538400,-4.614819
0.538500,-4.636566
0.538600,-4.647927
0.538700,-4.605406
0.538800,-4.666428
0.538900,-4.686552
0.539000,-4.769971
0.539100,-4.715765
0.539200,-4.656041
0.539300,-4.638838
0.539400,-4.662533
0.539500,-4.705054
0.539600,-4.598914
0.539700,-4.402214
0.539800,-4.350280
0.539900,-4.455771
0.540000,-4.710572
0.540100,-4.757312
0.540200,-4.659612
0.540300,-4.409031
0.540400,-4.286337
0.540500,-4.388257
0.540600,-4.575219
0.540700,-4.706352
0.540800,-4.683631
0.540900,-4.525233
0.541000,-4.410654
0.541100,-4.374624
0.541200,-4.430129
0.541300,-4.476220
0.541400,-4.436620
0.541500,-4.391828
0.541600,-4.356123
0.541700,-4.310356
0.541800,-4.279196
0.541900,-4.176627
0.542000,-4.052310
0.542100,-3.989341
0.542200,-3.984796
0.542300,-4.008816
0.542400,-3.980577
0.542500,-3.810494
0.542600,-3.698512
0.542700,-3.451503
0.542800,-3.435273
0.542900,-3.453126
0.543000,-3.436247
0.543100,-3.342118
0.543200,-3.206441
0.543300,-3.075958
0.543400,-3.015261
0.543500,-2.951318
0.543600,-2.940607
0.543700,-2.934764
0.543800,-2.849399
0.543900,-2.892568
0.544000,-2.743584
0.544100,-2.772797
0.544200,-2.611479
0.544300,-2.704634
0.544400,-2.667632
0.544500,-2.638095
0.544600,-2.727680
0.544700,-2.526762
0.544800,-2.468662
0.544900,-2.103181
0.545000,-2.011000
0.545100,-2.159334
0.545200,-2.434581
0.545300,-2.402122
0.545400,-2.240804
0.545500,-2.097663
0.545600,-1.947381
0.545700,-1.964584
0.545800,-2.160957
0.545900,-2.182704
0.546000,-2.138561
0.546100,-1.929205
0.546200,-1.900641
0.546300,-1.843839
0.546400,-1.906159
0.546500,-1.901615
0.546600,-1.829558
0.546700,-1.823391
0.546800,-1.820469
0.546900,-1.801644
0.547000,-1.806188
0.547100,-1.787362
0.547200,-1.820145
0.547300,-1.917520
0.547400,-1.873052
0.547500,-1.938942
0.547600,-1.917844
0.547700,-1.824364
0.547800,-1.832479
0.547900,-1.809758
0.548000,-1.992823
0.548100,-2.135639
0.548200,-2.131744
0.548300,-2.014245
0.548400,-1.797749
0.548500,-1.818847
0.548600,-1.920441
0.548700,-2.175888
0.548800,-2.165826
0.548900,-2.022035
0.549000,-1.876298
0.549100,-1.871754
0.549200,-1.925959
0.549300,-2.018140
0.549400,-2.019114
0.549500,-2.055792
0.549600,-2.028527
0.549700,-2.037940
0.549800,-2.085329
0.549900,-2.109673
0.550000,-2.142456
0.550100,-2.116489
0.550200,-2.143429
0.550300,-2.205100
0.550400,-2.211916
0.550500,-2.229769
0.550600,-2.226523
0.550700,-2.212566
0.550800,-2.339802
0.550900,-2.484891
0.551000,-2.508910
0.551100,-2.491383
0.551200,-2.358304
0.551300,-2.441721
0.551400,-2.460223
0.551500,-2.455354
0.551600,-2.467039
0.551700,-2.451459
0.551800,-2.452757
0.551900,-2.465741
0.552000,-2.487488
0.552100,-2.484891
0.552200,-2.487163
0.552300,-2.522867
0.552400,-2.535526
0.552500,-2.554352
0.552600,-2.571230
0.552700,-2.562467
0.552800,-2.612777
0.552900,-2.631927
0.553000,-2.672176
0.553100,-2.763708
0.553200,-2.977934
0.553300,-3.188914
0.553400,-3.067195
0.553500,-2.854592
0.553600,-2.703336
0.553700,-2.807852
0.553800,-3.063949
0.553900,-3.261296
0.554000,-3.258050
0.554100,-3.061352
0.554200,-2.958134
0.554300,-2.992216
0.554400,-3.125295
0.554500,-3.280447
0.554600,-3.308361
0.554700,-3.267139
0.554800,-3.220074
0.554900,-3.223320
0.555000,-3.259998
0.555100,-3.253831
0.555200,-3.277525
0.555300,-3.245067
0.555400,-3.239224
0.555500,-3.300895
0.555600,-3.359321
0.555700,-3.322318
0.555800,-3.314853
0.555900,-3.265840
0.556000,-3.303167
0.556100,-3.321993
0.556200,-3.329783
0.556300,-3.242795
0.556400,-3.105820
0.556500,-3.177878
0.556600,-3.280122
0.556700,-3.419044
0.556800,-3.482014
0.556900,-3.317449
0.557000,-3.173983
0.557100,-3.158078
0.557200,-3.293105
0.557300,-3.480066
0.557400,-3.571924
0.557500,-3.563160
0.557600,-3.449231
0.557700,-3.370357
0.557800,-3.378796
0.557900,-3.436896
0.558000,-3.445336
0.558100,-3.413202
0.558200,-3.389507
0.558300,-3.353803
0.558400,-3.331082
0.558500,-3.211959
0.558600,-3.057782
0.558700,-2.964951
0.558800,-2.964301
0.558900,-2.942230
0.559000,-2.942879
0.559100,-2.849074
0.559200,-2.657570
0.559300,-2.620242
0.559400,-2.477426
0.559500,-2.419325
0.559600,-2.348566
0.559700,-2.252489
0.559800,-2.171668
0.559900,-2.095391
0.560000,-1.954198
0.560100,-1.940241
0.560200,-1.860069
0.560300,-1.869157
0.560400,-1.839944
0.560500,-1.855200
0.560600,-1.832479
0.560700,-1.746789
0.560800,-1.693233
0.560900,-1.607543
0.561000,-1.677328
0.561100,-1.557557
0.561200,-1.713033
0.561300,-1.599753
0.561400,-1.587419
0.561500,-1.226159
0.561600,-1.122617
0.561700,-0.903524
0.561800,-1.305682
0.561900,-1.436164
0.562000,-1.340412
0.562100,-1.060297
0.562200,-0.798360
0.562300,-0.824975
0.562400,-0.911639
0.562500,-1.115801
0.562600,-1.069386
0.562700,-0.984345
0.562800,-0.789596
0.562900,-0.703906
0.563000,-0.767524
0.563100,-0.788947
0.563200,-0.836336
0.563300,-0.862951
0.563400,-0.847047
0.563500,-0.863276
0.563600,-0.884049
0.563700,-0.946044
0.563800,-0.948641
0.563900,-1.117099
0.564000,-1.200841
0.564100,-1.317042
0.564200,-1.378063
0.564300,-1.528994
0.564400,-1.450770
0.564500,-1.569892
0.564600,-1.627018
0.564700,-1.919792
0.564800,-2.164203
0.564900,-2.198609
0.565000,-2.107725
0.565100,-2.041510
0.565200,-2.197310
0.565300,-2.547211
0.565400,-2.749102
0.565500,-2.770849
0.565600,-2.707555
0.565700,-2.627383
0.565800,-2.753971
0.565900,-2.922430
0.566000,-3.074985
0.566100,-3.067195
0.566200,-3.125620
0.566300,-3.108417
0.566400,-3.234680
0.566500,-3.320695
0.566600,-3.405087
0.566700,-3.397946
0.566800,-3.382366
0.566900,-3.440142
0.567000,-3.516420
0.567100,-3.535895
0.567200,-3.491751
0.567300,-3.475847
0.567400,-3.463512
0.567500,-3.607628
0.567600,-3.668001
0.567700,-3.622884
0.567800,-3.587504
0.567900,-3.448581
0.568000,-3.514148
0.568100,-3.499217
0.568200,-3.448906
0.568300,-3.448906
0.568400,-3.455073
0.568500,-3.420992
0.568600,-3.381392
0.568700,-3.394051
0.568800,-3.350881
0.568900,-3.362242
0.569000,-3.360944
0.569100,-3.362566
0.569200,-3.353803
0.569300,-3.349583
0.569400,-3.341468
0.569500,-3.304466
0.569600,-3.377173
0.569700,-3.342767
0.569800,-3.449555
0.569900,-3.679686
0.570000,-3.734866
0.570100,-3.521288
0.570200,-3.239549
0.570300,-3.152236
0.570400,-3.342118
0.570500,-3.587828
0.570600,-3.644955
0.570700,-3.566730
0.570800,-3.371979
0.570900,-3.259349
0.571000,-3.338223
0.571100,-3.511551
0.571200,-3.602110
0.571300,-3.638139
0.571400,-3.571599
0.571500,-3.510577
0.571600,-3.542711
0.571700,-3.615418
0.571800,-3.648526
0.571900,-3.665729
0.572000,-3.641060
0.572100,-3.700784
0.572200,-3.721233
0.572300,-3.783553
0.572400,-3.810819
0.572500,-3.827697
0.572600,-3.854313
0.572700,-3.897483
0.572800,-3.947794
0.572900,-3.918906
0.573000,-3.824451
0.573100,-3.719935
0.573200,-3.831592
0.573300,-4.030888
0.573400,-4.192856
0.573500,-4.196751
0.573600,-3.980901
0.573700,-3.830943
0.573800,-3.884499
0.573900,-4.103919
0.574000,-4.286986
0.574100,-4.320418
0.574200,-4.245439
0.574300,-4.122096
0.574400,-4.101972
0.574500,-4.131509
0.574600,-4.233105
0.574700,-4.263291
0.574800,-4.249009
0.574900,-4.236675
0.575000,-4.199672
0.575100,-4.183443
0.575200,-4.139949
0.575300,-4.020501
0.575400,-3.956557
0.575500,-3.962400
0.575600,-3.959479
0.575700,-3.944223
0.575800,-3.839707
0.575900,-3.699161
0.576000,-3.526806
0.576100,-3.430405
0.576200,-3.484286
0.576300,-3.454424
0.576400,-3.375550
0.576500,-3.266814
0.576600,-3.179825
0.576700,-3.079853
0.576800,-3.056159
0.576900,-3.056159
0.577000,-3.071414
0.577100,-3.054860
0.577200,-3.018182
0.577300,-2.996111
0.577400,-2.901007
0.577500,-2.870497
0.577600,-2.891270
0.577700,-2.825379
0.577800,-2.898411
0.577900,-2.857838
0.578000,-2.779613
0.578100,-2.676071
0.578200,-2.403745
0.578300,-2.305072
0.578400,-2.324871
0.578500,-2.738066
0.578600,-2.695546
0.578700,-2.651402
0.578800,-2.307019
0.578900,-2.293387
0.579000,-2.311564
0.579100,-2.425492
0.579200,-2.568958
0.579300,-2.492032
0.579400,-2.359277
0.579500,-2.235936
0.579600,-2.261578
0.579700,-2.299229
0.579800,-2.410237
0.579900,-2.351487
0.580000,-2.377779
0.580100,-2.342074
0.580200,-2.320976
0.580300,-2.355382
0.580400,-2.366418
0.580500,-2.382972
0.580600,-2.456977
0.580700,-2.489111
0.580800,-2.497874
0.580900,-2.579345
0.581000,-2.510209
0.581100,-2.505989
0.581200,-2.474504
0.581300,-2.589732
0.581400,-2.775718
0.581500,-2.809799
0.581600,-2.723135
0.581700,-2.440099
0.581800,-2.386867
0.581900,-2.425492
0.582000,-2.748453
0.582100,-2.779613
0.582200,-2.658543
0.582300,-2.461196
0.582400,-2.334609
0.582500,-2.419974
0.582600,-2.486839
0.582700,-2.535202
0.582800,-2.447564
0.582900,-2.411211
0.583000,-2.307669
0.583100,-2.317081
0.583200,-2.295984
0.583300,-2.309941
0.583400,-2.210294
0.583500,-2.171344
0.583600,-2.144079
0.583700,-2.117463
0.583800,-2.046704
0.583900,-1.974971
0.584000,-1.902264
0.584100,-1.890904
0.584200,-1.976594
0.584300,-1.934073
0.584400,-1.881166
0.584500,-1.742245
0.584600,-1.688689
0.584700,-1.694207
0.584800,-1.653634
0.584900,-1.631238
0.585000,-1.586121
0.585100,-1.586121
0.585200,-1.562751
0.585300,-1.560154
0.585400,-1.571839
0.585500,-1.578331
0.585600,-1.595534
0.585700,-1.597481
0.585800,-1.620527
0.585900,-1.649414
0.586000,-1.667591
0.586100,-1.701672
0.586200,-1.784765
0.586300,-1.835076
0.586400,-1.862341
0.586500,-2.077215
0.586600,-2.328117
0.586700,-2.406991
0.586800,-2.167449
0.586900,-2.075916
0.587000,-2.093768
0.587100,-2.386218
0.587200,-2.595250
0.587300,-2.703985
0.587400,-2.620892
0.587500,-2.469311
0.587600,-2.479049
0.587700,-2.605961
0.587800,-2.777016
0.587900,-2.847776
0.588000,-2.861408
0.588100,-2.776043
0.588200,-2.768577
0.588300,-2.849723
0.588400,-2.909122
0.588500,-2.914315
0.588600,-2.916912
0.588700,-2.903604
0.588800,-2.958783
0.588900,-2.990268
0.589000,-3.062001
0.589100,-3.057457
0.589200,-3.034087
0.589300,-3.048693
0.589400,-3.142174
0.589500,-3.187615
0.589600,-3.175930
0.589700,-3.022727
0.589800,-3.045772
0.589900,-3.186966
0.590000,-3.404763
0.590100,-3.552773
0.590200,-3.489804
0.590300,-3.316475
0.590400,-3.259998
0.590500,-3.413526
0.590600,-3.672221
0.590700,-3.827697
0.590800,-3.847821
0.590900,-3.792966
0.591000,-3.723830
0.591100,-3.710522
0.591200,-3.792317
0.591300,-3.864700
0.591400,-3.877034
0.591500,-3.861129
0.591600,-3.844900
0.591700,-3.841979
0.591800,-3.751419
0.591900,-3.638464
0.592000,-3.587179
0.592100,-3.543360
0.592200,-3.555695
0.592300,-3.548554
0.592400,-3.539141
0.592500,-3.416123
0.592600,-3.348609
0.592700,-3.273306
0.592800,-3.186317
0.592900,-3.195730
0.593000,-3.230785
0.593100,-3.162947
0.593200,-3.106794
0.593300,-3.002278
0.593400,-2.984750
0.593500,-2.984426
0.593600,-3.004550
0.593700,-2.997734
0.593800,-3.045772
0.593900,-3.031166
0.594000,-3.023051
0.594100,-3.012340
0.594200,-2.959757
0.594300,-2.968521
0.594400,-2.954239
0.594500,-3.027271
0.594600,-3.115882
0.594700,-2.992865
0.594800,-2.933790
0.594900,-2.585512
0.595000,-2.628682
0.595100,-2.707555
0.595200,-3.142823
0.595300,-3.087968
0.595400,-2.927623
0.595500,-2.720863
0.595600,-2.614400
0.595700,-2.592977
0.595800,-2.754945
0.595900,-2.817265
0.596000,-2.727030
0.596100,-2.570581
0.596200,-2.439449
0.596300,-2.406342
0.596400,-2.373234
0.596500,-2.390762
0.596600,-2.374208
0.596700,-2.345645
0.596800,-2.318380
0.596900,-2.316757
0.597000,-2.320003
0.597100,-2.260604
0.597200,-2.294685
0.597300,-2.282676
0.597400,-2.429387
0.597500,-2.384270
0.597600,-2.450810
0.597700,-2.356031
0.597800,-2.344346
0.597900,-2.272938
0.598000,-2.436853
0.598100,-2.688730
0.598200,-2.627059
0.598300,-2.520595
0.598400,-2.284948
0.598500,-2.351163
0.598600,-2.514104
0.598700,-2.760138
0.598800,-2.780262
0.598900,-2.652052
0.599000,-2.520271
0.599100,-2.495278
0.599200,-2.630629
0.599300,-2.718267
0.599400,-2.757541
0.599500,-2.781236
0.599600,-2.743260
0.599700,-2.743260
0.599800,-2.790000
0.599900,-2.853943
0.600000,-2.907175
0.600100,-2.845504
0.600200,-2.893867
0.600300,-2.931518
0.600400,-2.939633
0.600500,-2.895490
0.600600,-2.858162
0.600700,-2.811098
0.600800,-2.900683
0.600900,-2.995786
0.601000,-2.995461
0.601100,-2.929246
0.601200,-2.807852
0.601300,-2.844530
0.601400,-2.880234
0.601500,-2.852644
0.601600,-2.864979
0.601700,-2.890296
0.601800,-2.890296
0.601900,-2.898086
0.602000,-2.930869
0.602100,-2.944177
0.602200,-2.950993
0.602300,-2.950669
0.602400,-2.960731
0.602500,-2.955213
0.602600,-2.960082
0.602700,-2.973390
0.602800,-2.962678
0.602900,-3.015910
0.603000,-3.013963
0.603100,-3.093161
0.603200,-3.326538
0.603300,-3.467732
0.603400,-3.453450
0.603500,-3.200274
0.603600,-3.082775
0.603700,-3.145744
0.603800,-3.433975
0.603900,-3.601786
0.604000,-3.650798
0.604100,-3.492400
0.604200,-3.375550
0.604300,-3.389182
0.604400,-3.530701
0.604500,-3.701758
0.604600,-3.763754
0.604700,-3.747849
0.604800,-3.664106
0.604900,-3.656965
0.605000,-3.713443
0.605100,-3.721882
0.605200,-3.720584
0.605300,-3.727400
0.605400,-3.724479
0.605500,-3.761482
0.605600,-3.810819
0.605700,-3.787448
0.605800,-3.768622
0.605900,-3.741682
0.606000,-3.793291
0.606100,-3.771219
0.606200,-3.799458
0.606300,-3.626454
0.606400,-3.497594
0.606500,-3.503112
0.606600,-3.596917
0.606700,-3.787448
0.606800,-3.827048
0.606900,-3.643332
0.607000,-3.451827
0.607100,-3.403464
0.607200,-3.510253
0.607300,-3.673843
0.607400,-3.775763
0.607500,-3.801730
0.607600,-3.673194
0.607700,-3.606330
0.607800,-3.611848
0.607900,-3.666703
0.608000,-3.739734
0.608100,-3.748823
0.608200,-3.736488
0.608300,-3.725453
0.608400,-3.693968
0.608500,-3.634244
0.608600,-3.517069
0.608700,-3.453126
0.608800,-3.450854
0.608900,-3.466434
0.609000,-3.480391
0.609100,-3.435923
0.609200,-3.288237
0.609300,-3.243444
0.609400,-3.037008
0.609500,-3.021104
0.609600,-2.959757
0.609700,-2.893867
0.609800,-2.787728
0.609900,-2.700090
0.610000,-2.555001
0.610100,-2.503717
0.610200,-2.446266
0.610300,-2.423869
0.610400,-2.381349
0.610500,-2.388165
0.610600,-2.404394
0.610700,-2.358953
0.610800,-2.321950
0.610900,-2.250217
0.611000,-2.314809
0.611100,-2.299229
0.611200,-2.371936
0.611300,-2.451784
0.611400,-2.310590
0.611500,-2.280404
0.611600,-1.824364
0.611700,-2.072670
0.611800,-2.141807
0.611900,-2.531956
0.612000,-2.374857
0.612100,-2.176212
0.612200,-1.968479
0.612300,-1.892527
0.612400,-2.061635
0.612500,-2.174265
0.612600,-2.265473
0.612700,-2.122332
0.612800,-1.968479
0.612900,-1.869157
0.613000,-1.893176
0.613100,-1.936021
0.613200,-1.935047
0.613300,-1.984384
0.613400,-1.984708
0.613500,-2.027553
0.613600,-2.004833
0.613700,-2.070398
0.613800,-2.034694
0.613900,-2.067477
0.614000,-2.201205
0.614100,-2.233339
0.614200,-2.355707
0.614300,-2.290466
0.614400,-2.295334
0.614500,-2.289816
0.614600,-2.410886
0.614700,-2.585512
0.614800,-2.744233
0.614900,-2.658219
0.615000,-2.572853
0.615100,-2.375506
0.615200,-2.501120
0.615300,-2.729952
0.615400,-2.860434
0.615500,-2.845504
0.615600,-2.696844
0.615700,-2.550132
0.615800,-2.553378
0.615900,-2.646858
0.616000,-2.706582
0.616100,-2.586810
0.616200,-2.582266
0.616300,-2.481321
0.616400,-2.493006
0.616500,-2.476776
0.616600,-2.445941
0.616700,-2.351163
0.616800,-2.247945
0.616900,-2.204776
0.617000,-2.188871
0.617100,-2.100260
0.617200,-1.995095
0.617300,-1.909081
0.617400,-1.820145
0.617500,-1.871429
0.617600,-1.831181
0.617700,-1.779247
0.617800,-1.667266
0.617900,-1.505624
0.618000,-1.483877
0.618100,-1.425128
0.618200,-1.354693
0.618300,-1.290751
0.618400,-1.221939
0.618500,-1.175524
0.618600,-1.102818
0.618700,-1.075553
0.618800,-1.039849
0.618900,-0.982073
0.619000,-0.960651
0.619100,-0.914235
0.619200,-0.877882
0.619300,-0.839257
0.619400,-0.782131
0.619500,-0.828870
0.619600,-0.788947
0.619700,-0.806150
0.619800,-0.885672
0.619900,-1.129109
0.620000,-1.227133
0.620100,-1.048288
0.620200,-0.905147
0.620300,-0.793816
0.620400,-1.008364
0.620500,-1.305357
0.620600,-1.490369
0.620700,-1.466674
0.620800,-1.333271
0.620900,-1.297892
0.621000,-1.397863
0.621100,-1.655257
0.621200,-1.808135
0.621300,-1.927906
0.621400,-1.938618
0.621500,-1.963286
0.621600,-2.080136
0.621700,-2.222952
0.621800,-2.321950
0.621900,-2.398552
0.622000,-2.495927
0.622100,-2.586486
0.622200,-2.747804
0.622300,-2.874067
0.622400,-2.975986
0.622500,-3.058106
0.622600,-3.095758
0.622700,-3.254480
0.622800,-3.384638
0.622900,-3.446309
0.623000,-3.374901
0.623100,-3.382042
0.623200,-3.544334
0.623300,-3.766350
0.623400,-3.977006
0.623500,-4.005895
0.623600,-3.840031
0.623700,-3.753042
0.623800,-3.820881
0.623900,-4.049389
0.624000,-4.253878
0.624100,-4.323015
0.624200,-4.250957
0.624300,-4.130860
0.624400,-4.138975
0.624500,-4.212007
0.624600,-4.265239
0.624700,-4.249983
0.624800,-4.194804
0.624900,-4.160397
0.625000,-4.133132
0.625100,-4.117552
0.625200,-4.064969
0.625300,-3.955908
0.625400,-3.893588
0.625500,-3.873139
0.625600,-3.854638
0.625700,-3.826723
0.625800,-3.671247
0.625900,-3.516420
0.626000,-3.531351
0.626100,-3.354776
0.626200,-3.383989
0.626300,-3.340819
0.626400,-3.273630
0.626500,-3.159701
0.626600,-3.041877
0.626700,-2.975662
0.626800,-2.920483
0.626900,-2.941580
0.627000,-2.930545
0.627100,-2.945151
0.627200,-2.905876
0.627300,-2.950020
0.627400,-2.887375
0.627500,-2.888998
0.627600,-2.909447
0.627700,-2.868224
0.627800,-3.030841
0.627900,-2.921456
0.628000,-2.975662
0.628100,-2.783833
0.628200,-2.639393
0.628300,-2.394008
0.628400,-2.470609
0.628500,-2.875690
0.628600,-2.941580
0.628700,-2.925027
0.628800,-2.572204
0.628900,-2.340451
0.629000,-2.481645
0.629100,-2.528385
0.629200,-2.762735
0.629300,-2.621865
0.629400,-2.486189
0.629500,-2.375182
0.629600,-2.304747
0.629700,-2.383296
0.629800,-2.355382
0.629900,-2.426791
0.630000,-2.347592
0.630100,-2.335583
0.630200,-2.339153
0.630300,-2.367716
0.630400,-2.406017
0.630500,-2.439449
0.630600,-2.494304
0.630700,-2.662438
0.630800,-2.580968
0.630900,-2.710152
0.631000,-2.653675
0.631100,-2.623488
0.631200,-2.604987
0.631300,-2.735470
0.631400,-2.999356
0.631500,-3.012340
0.631600,-2.938335
0.631700,-2.773121
