0.000100,-1.015830
0.000200,-1.025567
0.000300,-1.022321
0.000400,-1.000250
0.000500,-1.046665
0.000600,-1.145013
0.000700,-1.179744
0.000800,-1.165462
0.000900,-1.152479
0.001000,-1.152479
0.001100,-1.268679
0.001200,-1.365080
0.001300,-1.355018
0.001400,-1.353720
0.001500,-1.353720
0.001600,-1.289128
0.001700,-1.307304
0.001800,-1.278741
0.001900,-1.290102
0.002000,-1.274522
0.002100,-1.303409
0.002200,-1.268030
0.002300,-1.294970
0.002400,-1.318989
0.002500,-1.300813
0.002600,-1.302111
0.002700,-1.296593
0.002800,-1.324183
0.002900,-1.268030
0.003000,-1.309252
0.003100,-1.300813
0.003200,-1.357615
0.003300,-1.358913
0.003400,-1.474140
0.003500,-1.669214
0.003600,-1.886360
0.003700,-1.749386
0.003800,-1.593586
0.003900,-1.464078
0.004000,-1.570541
0.004100,-1.798073
0.004200,-2.008403
0.004300,-2.015544
0.004400,-1.859744
0.004500,-1.767238
0.004600,-1.782169
0.004700,-1.943811
0.004800,-2.112919
0.004900,-2.169721
0.005000,-2.152842
0.005100,-2.142780
0.005200,-2.138561
0.005300,-2.155439
0.005400,-2.159659
0.005500,-2.151869
0.005600,-2.187248
0.005700,-2.217110
0.005800,-2.254437
0.005900,-2.333960
0.006000,-2.353759
0.006100,-2.324871
0.006200,-2.300203
0.006300,-2.354733
0.006400,-2.402771
0.006500,-2.405368
0.006600,-2.275859
0.006700,-2.158360
0.006800,-2.177186
0.006900,-2.369989
0.007000,-2.564089
0.007100,-2.626410
0.007200,-2.421597
0.007300,-2.217759
0.007400,-2.196012
0.007500,-2.359602
0.007600,-2.578696
0.007700,-2.646858
0.007800,-2.557922
0.007900,-2.417053
0.008000,-2.356681
0.008100,-2.420624
0.008200,-2.453731
0.008300,-2.446266
0.008400,-2.369015
0.008500,-2.359602
0.008600,-2.355058
0.008700,-2.333960
0.008800,-2.273587
0.008900,-2.095391
0.009000,-1.987630
0.009100,-1.960365
0.009200,-1.947057
0.009300,-1.985682
0.009400,-1.898369
0.009500,-1.705892
0.009600,-1.645195
0.009700,-1.400460
0.009800,-1.459209
0.009900,-1.406627
0.010000,-1.353071
0.010100,-1.253099
0.010200,-1.161567
0.010300,-1.055104
0.010400,-0.987916
0.010500,-0.957080
0.010600,-0.963896
0.010700,-0.944746
0.010800,-0.904823
0.010900,-0.955457
0.011000,-0.871066
0.011100,-0.877882
0.011200,-0.857109
0.011300,-0.861978
0.011400,-0.947343
0.011500,-0.885672
0.011600,-1.039849
0.011700,-0.832765
0.011800,-0.773042
0.011900,-0.389062
0.012000,-0.593548
0.012100,-0.726627
0.012200,-1.064517
0.012300,-0.933386
0.012400,-0.766875
0.012500,-0.550704
0.012600,-0.496498
0.012700,-0.671773
0.012800,-0.821080
0.012900,-0.891190
0.013000,-0.770121
0.013100,-0.656517
0.013200,-0.536097
0.013300,-0.602637
0.013400,-0.635095
0.013500,-0.627954
0.013600,-0.692546
0.013700,-0.643859
0.013800,-0.670799
0.013900,-0.666255
0.014000,-0.705854
0.014100,-0.730847
0.014200,-0.843477
0.014300,-0.824002
0.014400,-0.908393
0.014500,-0.907419
0.014600,-1.008689
0.014700,-0.949615
0.014800,-0.933710
0.014900,-1.019400
0.015000,-1.240441
0.015100,-1.417662
0.015200,-1.325481
0.015300,-1.173901
0.015400,-1.020049
0.015500,-1.094703
0.015600,-1.374818
0.015700,-1.582875
0.015800,-1.533538
0.015900,-1.354044
0.016000,-1.203438
0.016100,-1.275495
0.016200,-1.410197
0.016300,-1.536460
0.016400,-1.481605
0.016500,-1.486149
0.016600,-1.443629
0.016700,-1.491018
0.016800,-1.520231
0.016900,-1.518283
0.017000,-1.462455
0.017100,-1.400460
0.017200,-1.392670
0.017300,-1.420584
0.017400,-1.382932
0.017500,-1.312173
0.017600,-1.265433
0.017700,-1.251801
0.017800,-1.362159
0.017900,-1.402407
0.018000,-1.373519
0.018100,-1.375142
0.018200,-1.316068
0.018300,-1.358588
0.018400,-1.350149
0.018500,-1.351448
0.018600,-1.382608
0.018700,-1.382932
0.018800,-1.423830
0.018900,-1.428374
0.019000,-1.437787
0.019100,-1.453042
0.019200,-1.445252
0.019300,-1.476736
0.019400,-1.469920
0.019500,-1.464727
0.019600,-1.451744
0.019700,-1.433242
0.019800,-1.419935
0.019900,-1.478684
0.020000,-1.412145
0.020100,-1.607219
0.020200,-1.821119
0.020300,-1.897071
0.020400,-1.765615
0.020500,-1.514063
0.020600,-1.435839
0.020700,-1.591963
0.020800,-1.875973
0.020900,-1.939916
0.021000,-1.920441
0.021100,-1.767238
0.021200,-1.652660
0.021300,-1.708488
0.021400,-1.854551
0.021500,-1.986007
0.021600,-1.991849
0.021700,-1.889281
0.021800,-1.800670
0.021900,-1.827610
0.022000,-1.850656
0.022100,-1.859419
0.022200,-1.853252
0.022300,-1.863314
0.022400,-1.850331
0.022500,-1.864613
0.022600,-1.882465
0.022700,-1.884737
0.022800,-1.902913
0.022900,-1.847085
0.023000,-1.878570
0.023100,-1.914923
0.023200,-1.912976
0.023300,-1.788660
0.023400,-1.695505
0.023500,-1.758150
0.023600,-1.975295
0.023700,-2.104804
0.023800,-2.129148
0.023900,-1.923038
0.024000,-1.783142
0.024100,-1.830856
0.024200,-2.024957
0.024300,-2.217110
0.024400,-2.267420
0.024500,-2.200232
0.024600,-2.132069
0.024700,-2.093119
0.024800,-2.140184
0.024900,-2.181081
0.025000,-2.210294
0.025100,-2.208995
0.025200,-2.178484
0.025300,-2.140833
0.025400,-2.088575
0.025500,-2.010675
0.025600,-1.895773
0.025700,-1.848708
0.025800,-1.826961
0.025900,-1.793204
0.026000,-1.790608
0.026100,-1.675056
0.026200,-1.527696
0.026300,-1.385853
0.026400,-1.256994
0.026500,-1.274522
0.026600,-1.225185
0.026700,-1.157672
0.026800,-1.069386
0.026900,-0.947343
0.027000,-0.847696
0.027100,-0.825949
0.027200,-0.780508
0.027300,-0.818484
0.027400,-0.778560
0.027500,-0.868469
0.027600,-0.782131
0.027700,-0.808422
0.027800,-0.712670
0.027900,-0.792193
0.028000,-0.728575
0.028100,-0.846073
0.028200,-0.798360
0.028300,-0.812966
0.028400,-0.637367
0.028500,-0.435802
0.028600,-0.284547
0.028700,-0.363745
0.028800,-0.784727
0.028900,-0.808097
0.029000,-0.688651
0.029100,-0.461768
0.029200,-0.320575
0.029300,-0.339401
0.029400,-0.539668
0.029500,-0.601663
0.029600,-0.606856
0.029700,-0.423468
0.029800,-0.338752
0.029900,-0.339725
0.030000,-0.306943
0.030100,-0.413081
0.030200,-0.404966
0.030300,-0.446188
0.030400,-0.418274
0.030500,-0.419248
0.030600,-0.437749
0.030700,-0.475401
0.030800,-0.443592
0.030900,-0.526035
0.031000,-0.622436
0.031100,-0.696441
0.031200,-0.695143
0.031300,-0.711372
0.031400,-0.633797
0.031500,-0.635095
0.031600,-0.694169
0.031700,-1.012908
0.031800,-1.021997
0.031900,-0.948966
0.032000,-0.705854
0.032100,-0.639639
0.032200,-0.719486
0.032300,-0.988240
0.032400,-1.006417
0.032500,-0.880803
0.032600,-0.719811
0.032700,-0.633147
0.032800,-0.710073
0.032900,-0.769472
0.033000,-0.776937
0.033100,-0.745777
0.033200,-0.728250
0.033300,-0.711696
0.033400,-0.786999
0.033500,-0.827572
0.033600,-0.865548
0.033700,-0.817185
0.033800,-0.832441
0.033900,-0.886971
0.034000,-0.862627
0.034100,-0.822054
0.034200,-0.821080
0.034300,-0.848345
0.034400,-0.909691
0.034500,-1.043095
0.034600,-1.123915
0.034700,-1.121968
0.034800,-1.147285
0.034900,-1.088211
0.035000,-1.110608
0.035100,-1.077176
0.035200,-1.091457
0.035300,-1.087887
0.035400,-1.091457
0.035500,-1.077825
0.035600,-1.110932
0.035700,-1.111906
0.035800,-1.110283
0.035900,-1.129109
0.036000,-1.123591
0.036100,-1.176173
0.036200,-1.151505
0.036300,-1.218044
0.036400,-1.211877
0.036500,-1.261538
0.036600,-1.284259
0.036700,-1.355667
0.036800,-1.532565
0.036900,-1.838321
0.037000,-1.851305
0.037100,-1.646169
0.037200,-1.489395
0.037300,-1.505300
0.037400,-1.772431
0.037500,-2.005806
0.037600,-2.095391
0.037700,-1.959391
0.037800,-1.810407
0.037900,-1.762045
0.038000,-1.837672
0.038100,-2.005806
0.038200,-2.100584
0.038300,-2.086627
0.038400,-2.023658
0.038500,-1.989253
0.038600,-2.010350
0.038700,-2.042160
0.038800,-2.072021
0.038900,-2.057090
0.039000,-2.023983
0.039100,-2.062608
0.039200,-2.080136
0.039300,-2.143754
0.039400,-2.064556
0.039500,-2.078188
0.039600,-2.077539
0.039700,-2.155114
0.039800,-2.184327
0.039900,-2.117787
0.040000,-1.947381
0.040100,-1.932451
0.040200,-2.095716
0.040300,-2.298905
0.040400,-2.439449
0.040500,-2.321301
0.040600,-2.141157
0.040700,-2.058064
0.040800,-2.171668
0.040900,-2.356031
0.041000,-2.532929
0.041100,-2.557922
0.041200,-2.441721
0.041300,-2.388165
0.041400,-2.410561
0.041500,-2.487812
0.041600,-2.523517
0.041700,-2.534877
0.041800,-2.526438
0.041900,-2.546237
0.042000,-2.541044
0.042100,-2.507612
0.042200,-2.403421
0.042300,-2.301177
0.042400,-2.248270
0.042500,-2.235286
0.042600,-2.241778
0.042700,-2.230418
0.042800,-2.087601
0.042900,-1.981138
0.043000,-1.756527
0.043100,-1.718226
0.043200,-1.692908
0.043300,-1.652011
0.043400,-1.546197
0.043500,-1.435839
0.043600,-1.295295
0.043700,-1.186235
0.043800,-1.159944
0.043900,-1.151180
0.044000,-1.110608
0.044100,-1.078474
0.044200,-1.095677
0.044300,-1.074254
0.044400,-1.052507
0.044500,-0.996679
0.044600,-0.970388
0.044700,-0.984670
0.044800,-0.966818
0.044900,-1.010636
0.045000,-0.903524
0.045100,-0.795438
0.045200,-0.532202
0.045300,-0.524088
0.045400,-0.554599
0.045500,-1.044068
0.045600,-0.918455
0.045700,-0.799333
0.045800,-0.530580
0.045900,-0.461444
0.046000,-0.477673
0.046100,-0.719162
0.046200,-0.786026
0.046300,-0.714293
0.046400,-0.612699
0.046500,-0.497148
0.046600,-0.456575
0.046700,-0.560766
0.046800,-0.585434
0.046900,-0.577969
0.047000,-0.548107
0.047100,-0.554923
0.047200,-0.542589
0.047300,-0.559467
0.047400,-0.529930
0.047500,-0.564661
0.047600,-0.498446
0.047700,-0.594847
0.047800,-0.528308
0.047900,-0.519868
0.048000,-0.401071
0.048100,-0.364718
0.048200,-0.315057
0.048300,-0.429310
0.048400,-0.604584
0.048500,-0.572126
0.048600,-0.386141
0.048700,-0.192365
0.048800,-0.168346
0.048900,-0.355630
0.049000,-0.560441
0.049100,-0.515973
0.049200,-0.437100
0.049300,-0.268318
0.049400,-0.258905
0.049500,-0.366666
0.049600,-0.441320
0.049700,-0.463067
0.049800,-0.458522
0.049900,-0.455601
0.050000,-0.455601
0.050100,-0.513377
0.050200,-0.565310
0.050300,-0.596145
0.050400,-0.556871
0.050500,-0.565959
0.050600,-0.632174
0.050700,-0.654570
0.050800,-0.638990
0.050900,-0.622112
0.051000,-0.628603
0.051100,-0.742532
0.051200,-0.827897
0.051300,-0.863276
0.051400,-0.862302
0.051500,-0.757138
0.051600,-0.820756
0.051700,-0.879181
0.051800,-0.892164
0.051900,-0.920078
0.052000,-0.930789
0.052100,-0.953510
0.052200,-0.954484
0.052300,-1.032383
0.052400,-1.048937
0.052500,-1.063219
0.052600,-1.095352
0.052700,-1.125863
0.052800,-1.178770
0.052900,-1.199868
0.053000,-1.225185
0.053100,-1.254073
0.053200,-1.352746
0.053300,-1.371896
0.053400,-1.482904
0.053500,-1.730235
0.053600,-1.899992
0.053700,-1.831505
0.053800,-1.594884
0.053900,-1.473815
0.054000,-1.518932
0.054100,-1.842541
0.054200,-2.036966
0.054300,-2.063257
0.054400,-1.914598
0.054500,-1.796450
0.054600,-1.827935
0.054700,-1.988279
0.054800,-2.172642
0.054900,-2.211267
0.055000,-2.196986
0.055100,-2.171344
0.055200,-2.179458
0.055300,-2.252165
0.055400,-2.283649
0.055500,-2.280728
0.055600,-2.282351
0.055700,-2.283974
0.055800,-2.334934
0.055900,-2.363497
0.056000,-2.396280
0.056100,-2.344346
0.056200,-2.319354
0.056300,-2.357005
0.056400,-2.354733
0.056500,-2.321950
0.056600,-2.201530
0.056700,-2.060012
0.056800,-2.109024
0.056900,-2.238857
0.057000,-2.396280
0.057100,-2.459898
0.057200,-2.279754
0.057300,-2.089224
0.057400,-2.078188
0.057500,-2.220680
0.057600,-2.420299
0.057700,-2.513130
0.057800,-2.493979
0.057900,-2.360251
0.058000,-2.284948
0.058100,-2.294361
0.058200,-2.331039
0.058300,-2.355058
0.058400,-2.336556
0.058500,-2.322924
0.058600,-2.297282
0.058700,-2.253463
0.058800,-2.182704
0.058900,-2.037615
0.059000,-1.963610
0.059100,-1.941863
0.059200,-1.908431
0.059300,-1.916546
0.059400,-1.853577
0.059500,-1.667266
0.059600,-1.639352
0.059700,-1.429997
0.059800,-1.482579
0.059900,-1.408574
0.060000,-1.360211
0.060100,-1.257968
0.060200,-1.171954
0.060300,-1.064192
0.060400,-1.011610
0.060500,-0.977854
0.060600,-1.019075
0.060700,-0.970388
0.060800,-1.005768
0.060900,-0.960002
0.061000,-1.005443
0.061100,-0.928192
0.061200,-0.924297
0.061300,-0.946694
0.061400,-0.940202
0.061500,-1.048288
0.061600,-0.990512
0.061700,-0.993433
0.061800,-0.728575
0.061900,-0.643534
0.062000,-0.469883
0.062100,-0.899305
0.062200,-1.126188
0.062300,-0.948966
0.062400,-0.831142
0.062500,-0.531229
0.062600,-0.594198
0.062700,-0.636718
0.062800,-0.884374
0.062900,-0.841854
0.063000,-0.705205
0.063100,-0.569529
0.063200,-0.489358
0.063300,-0.536422
0.063400,-0.515649
0.063500,-0.586083
0.063600,-0.555248
0.063700,-0.502016
0.063800,-0.500069
0.063900,-0.512078
0.064000,-0.515000
0.064100,-0.454627
0.064200,-0.528957
0.064300,-0.585759
0.064400,-0.600689
0.064500,-0.647104
0.064600,-0.649377
0.064700,-0.531229
0.064800,-0.550054
0.064900,-0.536747
0.065000,-0.749023
0.065100,-0.898655
0.065200,-0.769796
0.065300,-0.616269
0.065400,-0.426389
0.065500,-0.533501
0.065600,-0.762006
0.065700,-0.908718
0.065800,-0.839257
0.065900,-0.659439
0.066000,-0.539992
0.066100,-0.601338
0.066200,-0.718512
0.066300,-0.807448
0.066400,-0.752269
0.066500,-0.761033
0.066600,-0.723381
0.066700,-0.846398
0.066800,-0.917481
0.066900,-0.976555
0.067000,-0.972660
0.067100,-0.954159
0.067200,-0.999276
0.067300,-1.066140
0.067400,-1.081720
0.067500,-1.064842
0.067600,-1.056727
0.067700,-1.051858
0.067800,-1.196297
0.067900,-1.255047
0.068000,-1.232001
0.068100,-1.094703
0.068200,-1.102493
0.068300,-1.152803
0.068400,-1.122942
0.068500,-1.127486
0.068600,-1.130732
0.068700,-1.112231
0.068800,-1.122293
0.068900,-1.096651
0.069000,-1.120994
0.069100,-1.067114
0.069200,-1.091782
0.069300,-1.090484
0.069400,-1.075228
0.069500,-1.070359
0.069600,-1.063219
0.069700,-1.090484
0.069800,-1.113853
0.069900,-1.168383
0.070000,-1.194350
0.070100,-1.312822
0.070200,-1.558207
0.070300,-1.638703
0.070400,-1.523476
0.070500,-1.270951
0.070600,-1.275171
0.070700,-1.432593
0.070800,-1.756851
0.070900,-1.866560
0.071000,-1.836699
0.071100,-1.633510
0.071200,-1.543600
0.071300,-1.662398
0.071400,-1.865262
0.071500,-2.034694
0.071600,-2.056441
0.071700,-2.004833
0.071800,-1.998016
0.071900,-2.010026
0.072000,-2.115515
0.072100,-2.169396
0.072200,-2.173291
0.072300,-2.171019
0.072400,-2.185950
0.072500,-2.256060
0.072600,-2.262227
0.072700,-2.295984
0.072800,-2.251191
0.072900,-2.277482
0.073000,-2.285597
0.073100,-2.310590
0.073200,-2.324222
0.073300,-2.155764
0.073400,-2.079811
0.073500,-2.165826
0.073600,-2.360900
0.073700,-2.553378
0.073800,-2.558896
0.073900,-2.349215
0.074000,-2.206074
0.074100,-2.256384
0.074200,-2.460223
0.074300,-2.665360
0.074400,-2.702687
0.074500,-2.592328
0.074600,-2.456328
0.074700,-2.429712
0.074800,-2.490084
0.074900,-2.542342
0.075000,-2.534552
0.075100,-2.477426
0.075200,-2.427115
0.075300,-2.386218
0.075400,-2.348566
0.075500,-2.239506
0.075600,-2.089224
0.075700,-2.043782
0.075800,-2.031448
0.075900,-1.985033
0.076000,-2.003210
0.076100,-1.891228
0.076200,-1.738350
0.076300,-1.711734
0.076400,-1.505949
0.076500,-1.565672
0.076600,-1.528670
0.076700,-1.469271
0.076800,-1.360211
0.076900,-1.263810
0.077000,-1.160269
0.077100,-1.118722
0.077200,-1.139820
0.077300,-1.147285
0.077400,-1.122942
0.077500,-1.162216
0.077600,-1.091782
0.077700,-1.094379
0.077800,-1.023944
0.077900,-1.027190
0.078000,-1.002846
0.078100,-0.984994
0.078200,-1.040498
0.078300,-0.968116
0.078400,-0.967467
0.078500,-0.616918
0.078600,-0.521167
0.078700,-0.440021
0.078800,-0.877882
0.078900,-0.930140
0.079000,-0.795438
0.079100,-0.577969
0.079200,-0.332909
0.079300,-0.376079
0.079400,-0.548107
0.079500,-0.663983
0.079600,-0.650999
0.079700,-0.493253
0.079800,-0.359850
0.079900,-0.310513
0.080000,-0.320900
0.080100,-0.363420
0.080200,-0.383544
0.080300,-0.379324
0.080400,-0.335831
0.080500,-0.318952
0.080600,-0.294933
0.080700,-0.289415
0.080800,-0.310189
0.080900,-0.412432
0.081000,-0.430608
0.081100,-0.360174
0.081200,-0.435477
0.081300,-0.404966
0.081400,-0.410160
0.081500,-0.385816
0.081600,-0.491954
0.081700,-0.703257
0.081800,-0.732794
0.081900,-0.707477
0.082000,-0.490007
0.082100,-0.435153
0.082200,-0.536422
0.082300,-0.818484
0.082400,-0.922675
0.082500,-0.875610
0.082600,-0.733443
0.082700,-0.638990
0.082800,-0.712021
0.082900,-0.843801
0.083000,-0.931438
0.083100,-0.896383
0.083200,-0.926245
0.083300,-0.903849
0.083400,-0.971362
0.083500,-1.032059
0.083600,-1.041472
0.083700,-1.002846
0.083800,-1.031734
0.083900,-1.061596
0.084000,-1.105090
0.084100,-1.049911
0.084200,-1.012259
0.084300,-1.004469
0.084400,-1.028813
0.084500,-1.149882
0.084600,-1.171954
0.084700,-1.158970
0.084800,-1.162216
0.084900,-1.050884
0.085000,-1.129109
0.085100,-1.105414
0.085200,-1.088211
0.085300,-1.102168
0.085400,-1.065491
0.085500,-1.048937
0.085600,-1.022321
0.085700,-1.011285
0.085800,-0.996030
0.085900,-0.964546
0.086000,-0.975581
0.086100,-0.988565
0.086200,-0.959677
0.086300,-0.968765
0.086400,-0.998951
0.086500,-1.033032
0.086600,-1.083667
0.086700,-1.111906
0.086800,-1.328078
0.086900,-1.617281
0.087000,-1.616307
0.087100,-1.451094
0.087200,-1.224861
0.087300,-1.281013
0.087400,-1.486799
0.087500,-1.787687
0.087600,-1.868832
0.087700,-1.744192
0.087800,-1.609166
0.087900,-1.542627
0.088000,-1.716603
0.088100,-1.905186
0.088200,-2.017816
0.088300,-2.045405
0.088400,-1.987305
0.088500,-1.980164
0.088600,-2.003534
0.088700,-2.021386
0.088800,-2.072670
0.088900,-2.081434
0.089000,-2.096689
0.089100,-2.113892
0.089200,-2.171019
0.089300,-2.249893
0.089400,-2.230418
0.089500,-2.232365
0.089600,-2.254112
0.089700,-2.316757
0.089800,-2.332661
0.089900,-2.245998
0.090000,-2.075592
0.090100,-2.036317
0.090200,-2.173616
0.090300,-2.365769
0.090400,-2.487488
0.090500,-2.394981
0.090600,-2.204451
0.090700,-2.101234
0.090800,-2.167773
0.090900,-2.327468
0.091000,-2.486839
0.091100,-2.497225
0.091200,-2.382647
0.091300,-2.304747
0.091400,-2.291764
0.091500,-2.313186
0.091600,-2.349864
0.091700,-2.338504
0.091800,-2.334609
0.091900,-2.312862
0.092000,-2.265797
0.092100,-2.204127
0.092200,-2.091172
0.092300,-1.994446
0.092400,-1.894799
0.092500,-1.859095
0.092600,-1.857147
0.092700,-1.847734
0.092800,-1.696803
0.092900,-1.612412
0.093000,-1.582226
0.093100,-1.400460
0.093200,-1.374818
0.093300,-1.355667
0.093400,-1.283935
0.093500,-1.220966
0.093600,-1.111257
0.093700,-1.043744
0.093800,-1.003820
0.093900,-0.998951
0.094000,-0.998951
0.094100,-0.960975
0.094200,-0.973959
0.094300,-0.953510
0.094400,-0.874636
0.094500,-0.875935
0.094600,-0.832441
0.094700,-0.872689
0.094800,-0.930140
0.094900,-0.946369
0.095000,-0.928192
0.095100,-0.723706
0.095200,-0.478322
0.095300,-0.327716
0.095400,-0.577319
0.095500,-0.891515
0.095600,-0.857758
0.095700,-0.677940
0.095800,-0.522465
0.095900,-0.414379
0.096000,-0.493253
0.096100,-0.620489
0.096200,-0.701634
0.096300,-0.535773
0.096400,-0.362771
0.096500,-0.223525
0.096600,-0.284547
0.096700,-0.267344
0.096800,-0.329988
0.096900,-0.302399
0.097000,-0.277406
0.097100,-0.221578
0.097200,-0.226122
0.097300,-0.259229
0.097400,-0.234236
0.097500,-0.277406
0.097600,-0.335181
0.097700,-0.417301
0.097800,-0.455277
0.097900,-0.410160
0.098000,-0.349463
0.098100,-0.340050
0.098200,-0.253711
0.098300,-0.518570
0.098400,-0.627954
0.098500,-0.643209
0.098600,-0.503639
0.098700,-0.266370
0.098800,-0.287468
0.098900,-0.457224
0.099000,-0.678914
0.099100,-0.678589
0.099200,-0.552976
0.099300,-0.409186
0.099400,-0.375105
0.099500,-0.476699
0.099600,-0.587706
0.099700,-0.597443
0.099800,-0.589978
0.099900,-0.589004
0.100000,-0.619840
0.100100,-0.680536
0.100200,-0.706503
0.100300,-0.699038
0.100400,-0.654894
0.100500,-0.691572
0.100600,-0.754866
0.100700,-0.749997
0.100800,-0.741233
0.100900,-0.678264
0.101000,-0.663009
0.101100,-0.742856
0.101200,-0.856784
0.101300,-0.834388
0.101400,-0.816536
0.101500,-0.683458
0.101600,-0.704231
0.101700,-0.709100
0.101800,-0.691897
0.101900,-0.701959
0.102000,-0.712345
0.102100,-0.722407
0.102200,-0.740584
0.102300,-0.789271
0.102400,-0.805500
0.102500,-0.858732
0.102600,-0.868469
0.102700,-0.909691
0.102800,-0.930465
0.102900,-0.956107
0.103000,-1.007390
0.103100,-1.044393
0.103200,-1.108336
0.103300,-1.175199
0.103400,-1.240441
0.103500,-1.481930
0.103600,-1.701997
0.103700,-1.625395
0.103800,-1.383581
0.103900,-1.274846
0.104000,-1.326130
0.104100,-1.661749
0.104200,-1.837672
0.104300,-1.903887
0.104400,-1.738025
0.104500,-1.609491
0.104600,-1.643572
0.104700,-1.832479
0.104800,-1.996393
0.104900,-2.042484
0.105000,-2.014245
0.105100,-1.964260
0.105200,-1.953548
0.105300,-1.998990
0.105400,-2.041510
0.105500,-2.067802
0.105600,-2.008078
0.105700,-1.980813
0.105800,-2.051897
0.105900,-2.091821
0.106000,-2.063907
0.106100,-2.021386
0.106200,-1.927582
0.106300,-1.960040
0.106400,-1.937968
0.106500,-1.959391
0.106600,-1.777625
0.106700,-1.629290
0.106800,-1.615333
0.106900,-1.732832
0.107000,-1.888632
0.107100,-1.925959
0.107200,-1.738350
0.107300,-1.520880
0.107400,-1.471543
0.107500,-1.599753
0.107600,-1.780221
0.107700,-1.853577
0.107800,-1.798722
0.107900,-1.659152
0.108000,-1.564374
0.108100,-1.567620
0.108200,-1.591314
0.108300,-1.615658
0.108400,-1.596507
0.108500,-1.557882
0.108600,-1.509195
0.108700,-1.474140
0.108800,-1.433242
0.108900,-1.325481
0.109000,-1.239467
0.109100,-1.165137
0.109200,-1.130407
0.109300,-1.122942
0.109400,-1.054779
0.109500,-0.877233
0.109600,-0.750646
0.109700,-0.543238
0.109800,-0.583811
0.109900,-0.556222
0.110000,-0.511754
0.110100,-0.413406
0.110200,-0.347191
0.110300,-0.252738
0.110400,-0.199182
0.110500,-0.178408
0.110600,-0.198857
0.110700,-0.186847
0.110800,-0.195936
0.110900,-0.200480
0.111000,-0.150170
0.111100,-0.185549
0.111200,-0.134265
0.111300,-0.218332
0.111400,-0.149196
0.111500,-0.304995
0.111600,-0.192365
0.111700,-0.177110
0.111800,0.034517
0.111900,0.234135
0.112000,0.220178
0.112100,-0.012872
0.112200,-0.352060
0.112300,-0.175812
0.112400,-0.041759
0.112500,0.196159
0.112600,0.200054
0.112700,0.077037
0.112800,-0.116089
0.112900,-0.218981
0.113000,-0.126475
0.113100,-0.002161
0.113200,0.080283
0.113300,0.018937
0.113400,-0.082008
0.113500,-0.103430
0.113600,-0.194962
0.113700,-0.188470
0.113800,-0.193339
0.113900,-0.227096
0.114000,-0.301749
0.114100,-0.289415
0.114200,-0.427363
0.114300,-0.512728
0.114400,-0.524737
0.114500,-0.606856
0.114600,-0.591926
0.114700,-0.626656
0.114800,-0.601988
0.114900,-0.686379
0.115000,-0.849644
0.115100,-1.058999
0.115200,-0.998627
0.115300,-0.886971
0.115400,-0.757787
0.115500,-0.864574
0.115600,-1.099572
0.115700,-1.296918
0.115800,-1.281987
0.115900,-1.132355
0.116000,-1.042121
0.116100,-1.126837
0.116200,-1.221939
0.116300,-1.297242
0.116400,-1.246608
0.116500,-1.292698
0.116600,-1.273872
0.116700,-1.353071
0.116800,-1.387152
0.116900,-1.418636
0.117000,-1.405328
0.117100,-1.399810
0.117200,-1.481605
0.117300,-1.558207
0.117400,-1.553338
0.117500,-1.534837
0.117600,-1.526722
0.117700,-1.541328
0.117800,-1.666293
0.117900,-1.713682
0.118000,-1.725691
0.118100,-1.712059
0.118200,-1.589691
0.118300,-1.631562
0.118400,-1.628641
0.118500,-1.627018
0.118600,-1.614035
0.118700,-1.597806
0.118800,-1.572488
0.118900,-1.564049
0.119000,-1.556259
0.119100,-1.524450
0.119200,-1.453691
0.119300,-1.463429
0.119400,-1.425777
0.119500,-1.403705
0.119600,-1.374818
0.119700,-1.374493
0.119800,-1.336192
0.119900,-1.347553
0.120000,-1.342359
0.120100,-1.466350
0.120200,-1.645519
0.120300,-1.703620
0.120400,-1.525099
0.120500,-1.317691
0.120600,-1.214474
0.120700,-1.379686
0.120800,-1.606245
0.120900,-1.777949
0.121000,-1.694531
0.121100,-1.539705
0.121200,-1.380985
0.121300,-1.407925
0.121400,-1.545223
0.121500,-1.668565
0.121600,-1.663696
0.121700,-1.582875
0.121800,-1.572488
0.121900,-1.545873
0.122000,-1.518608
0.122100,-1.528345
0.122200,-1.509519
0.122300,-1.522503
0.122400,-1.512441
0.122500,-1.490694
0.122600,-1.520231
0.122700,-1.522827
0.122800,-1.465701
0.122900,-1.453691
0.123000,-1.516011
0.123100,-1.526073
0.123200,-1.498808
0.123300,-1.377090
0.123400,-1.255047
0.123500,-1.317367
0.123600,-1.537758
0.123700,-1.644546
0.123800,-1.651686
0.123900,-1.436164
0.124000,-1.302436
0.124100,-1.338464
0.124200,-1.517958
0.124300,-1.746465
0.124400,-1.786388
0.124500,-1.697777
0.124600,-1.606245
0.124700,-1.620851
0.124800,-1.711085
0.124900,-1.748737
0.125000,-1.753605
0.125100,-1.732183
0.125200,-1.736727
0.125300,-1.722121
0.125400,-1.728937
0.125500,-1.653634
0.125600,-1.524775
0.125700,-1.446226
0.125800,-1.456612
0.125900,-1.447199
0.126000,-1.464402
0.126100,-1.360861
0.126200,-1.220316
0.126300,-1.193051
0.126400,-1.021023
0.126500,-1.071982
0.126600,-1.040822
0.126700,-0.975257
0.126800,-0.924297
0.126900,-0.855486
0.127000,-0.791868
0.127100,-0.765901
0.127200,-0.763954
0.127300,-0.805176
0.127400,-0.757462
0.127500,-0.814913
0.127600,-0.799658
0.127700,-0.758436
0.127800,-0.756164
0.127900,-0.718188
0.128000,-0.790894
0.128100,-0.740259
0.128200,-0.863276
0.128300,-0.718188
0.128400,-0.734417
0.128500,-0.369587
0.128600,-0.218332
0.128700,-0.330962
0.128800,-0.535124
0.128900,-0.802579
0.129000,-0.544212
0.129100,-0.481243
0.129200,-0.176785
0.129300,-0.299153
0.129400,-0.416651
0.129500,-0.556222
0.129600,-0.567906
0.129700,-0.425415
0.129800,-0.313110
0.129900,-0.265396
0.130000,-0.327716
0.130100,-0.372508
0.130200,-0.406914
0.130300,-0.385492
0.130400,-0.357253
0.130500,-0.329663
0.130600,-0.350761
0.130700,-0.355305
0.130800,-0.337778
0.130900,-0.424441
0.131000,-0.459172
0.131100,-0.498121
0.131200,-0.523763
0.131300,-0.558818
0.131400,-0.485138
0.131500,-0.520842
0.131600,-0.506561
0.131700,-0.799658
0.131800,-0.851916
0.131900,-0.770446
0.132000,-0.531878
0.132100,-0.474427
0.132200,-0.595496
0.132300,-0.912613
0.132400,-1.015505
0.132500,-0.951887
0.132600,-0.753243
0.132700,-0.685081
0.132800,-0.805176
0.132900,-0.954808
0.133000,-1.052183
0.133100,-0.990837
0.133200,-0.978503
0.133300,-0.945395
0.133400,-1.072307
0.133500,-1.131056
0.133600,-1.197596
0.133700,-1.128135
0.133800,-1.130083
0.133900,-1.196297
0.134000,-1.257643
0.134100,-1.260240
0.134200,-1.210579
0.134300,-1.207333
0.134400,-1.217395
0.134500,-1.336517
0.134600,-1.341061
0.134700,-1.322884
0.134800,-1.179094
0.134900,-1.169682
0.135000,-1.225510
0.135100,-1.203438
0.135200,-1.187209
0.135300,-1.157672
0.135400,-1.129758
0.135500,-1.129109
0.135600,-1.113204
0.135700,-1.068412
0.135800,-1.020374
0.135900,-0.996679
0.136000,-0.987916
0.136100,-0.977854
0.136200,-0.910340
0.136300,-0.929491
0.136400,-0.883725
0.136500,-0.920727
0.136600,-0.910665
0.136700,-0.891515
0.136800,-1.095028
0.136900,-1.353071
0.137000,-1.339114
0.137100,-1.114178
0.137200,-0.885672
0.137300,-0.879830
0.137400,-1.046665
0.137500,-1.343982
0.137600,-1.418636
0.137700,-1.324832
0.137800,-1.146312
0.137900,-1.086264
0.138000,-1.161567
0.138100,-1.334894
0.138200,-1.393968
0.138300,-1.392020
0.138400,-1.327104
0.138500,-1.340736
0.138600,-1.326130
0.138700,-1.399810
0.138800,-1.446875
0.138900,-1.449472
0.139000,-1.490044
0.139100,-1.473815
0.139200,-1.460507
0.139300,-1.580278
0.139400,-1.620202
0.139500,-1.614684
0.139600,-1.657854
0.139700,-1.718550
0.139800,-1.788985
0.139900,-1.807486
0.140000,-1.713682
0.140100,-1.679925
0.140200,-1.788660
0.140300,-2.049950
0.140400,-2.170370
0.140500,-2.165826
0.140600,-1.979190
0.140700,-1.881491
0.140800,-1.989253
0.140900,-2.237559
0.141000,-2.447889
0.141100,-2.469960
0.141200,-2.366094
0.141300,-2.272289
0.141400,-2.309291
0.141500,-2.391736
0.141600,-2.463793
0.141700,-2.478724
0.141800,-2.458275
0.141900,-2.461196
0.142000,-2.446915
0.142100,-2.381349
0.142200,-2.277482
0.142300,-2.205749
0.142400,-2.178160
0.142500,-2.183353
0.142600,-2.196337
0.142700,-2.200232
0.142800,-2.070074
0.142900,-1.991525
0.143000,-1.941863
0.143100,-1.815925
0.143200,-1.822092
0.143300,-1.796126
0.143400,-1.730885
0.143500,-1.626044
0.143600,-1.525424
0.143700,-1.433892
0.143800,-1.392994
0.143900,-1.423830
0.144000,-1.363782
0.144100,-1.330674
0.144200,-1.285557
0.144300,-1.239791
0.144400,-1.162541
0.144500,-1.102493
0.144600,-1.063868
0.144700,-0.998302
0.144800,-1.068412
0.144900,-1.012259
0.145000,-0.950589
0.145100,-0.805176
0.145200,-0.566608
0.145300,-0.350112
0.145400,-0.595171
0.145500,-0.802904
0.145600,-0.775639
0.145700,-0.575696
0.145800,-0.409835
0.145900,-0.274809
0.146000,-0.312785
0.146100,-0.473453
0.146200,-0.549730
0.146300,-0.468584
0.146400,-0.349138
0.146500,-0.241702
0.146600,-0.246246
0.146700,-0.212165
0.146800,-0.317979
0.146900,-0.341998
0.147000,-0.320251
0.147100,-0.278055
0.147200,-0.285196
0.147300,-0.301749
0.147400,-0.314408
0.147500,-0.402045
0.147600,-0.500393
0.147700,-0.477997
0.147800,-0.542589
0.147900,-0.558494
0.148000,-0.549405
0.148100,-0.547133
0.148200,-0.574074
0.148300,-0.684107
0.148400,-0.946369
0.148500,-0.940851
0.148600,-0.811992
0.148700,-0.624708
0.148800,-0.691248
0.148900,-0.828870
0.149000,-1.128460
0.149100,-1.136250
0.149200,-1.015180
0.149300,-0.824975
0.149400,-0.817185
0.149500,-0.934035
0.149600,-1.007066
0.149700,-1.006741
0.149800,-0.959352
0.149900,-0.941176
0.150000,-0.978178
0.150100,-1.046665
0.150200,-1.093405
0.150300,-1.094054
0.150400,-1.063543
0.150500,-1.112231
0.150600,-1.190779
0.150700,-1.226159
0.150800,-1.204087
0.150900,-1.165787
0.151000,-1.176822
0.151100,-1.275820
0.151200,-1.423505
0.151300,-1.435190
0.151400,-1.416040
0.151500,-1.309252
0.151600,-1.362483
0.151700,-1.395591
0.151800,-1.378388
0.151900,-1.379362
0.152000,-1.368326
0.152100,-1.361185
0.152200,-1.347877
0.152300,-1.379037
0.152400,-1.345281
0.152500,-1.368326
0.152600,-1.363457
0.152700,-1.387801
0.152800,-1.348202
0.152900,-1.355667
0.153000,-1.343658
0.153100,-1.353395
0.153200,-1.357939
0.153300,-1.376440
0.153400,-1.442331
0.153500,-1.669214
0.153600,-1.834102
0.153700,-1.770484
0.153800,-1.490694
0.153900,-1.295619
0.154000,-1.369949
0.154100,-1.554961
0.154200,-1.759448
0.154300,-1.766589
0.154400,-1.627018
0.154500,-1.483877
0.154600,-1.431944
0.154700,-1.584822
0.154800,-1.686417
0.154900,-1.751658
0.155000,-1.671811
0.155100,-1.632861
0.155200,-1.577682
0.155300,-1.594560
0.155400,-1.612737
0.155500,-1.619877
0.155600,-1.593586
0.155700,-1.589042
0.155800,-1.564374
0.155900,-1.601701
0.156000,-1.606894
0.156100,-1.582226
0.156200,-1.542951
0.156300,-1.525748
0.156400,-1.548145
0.156500,-1.552689
0.156600,-1.416040
0.156700,-1.238818
0.156800,-1.190779
0.156900,-1.329051
0.157000,-1.482904
0.157100,-1.480956
0.157200,-1.302436
0.157300,-1.066140
0.157400,-0.981424
0.157500,-1.119047
0.157600,-1.346903
0.157700,-1.452717
0.157800,-1.384230
0.157900,-1.246283
0.158000,-1.206035
0.158100,-1.240441
0.158200,-1.298216
0.158300,-1.289452
0.158400,-1.299190
0.158500,-1.289452
0.158600,-1.277443
0.158700,-1.305682
0.158800,-1.261214
0.158900,-1.136574
0.159000,-1.058025
0.159100,-1.040173
0.159200,-1.077176
0.159300,-1.099572
0.159400,-1.092106
0.159500,-0.957405
0.159600,-0.902550
0.159700,-0.750971
0.159800,-0.811343
0.159900,-0.799009
0.160000,-0.808097
0.160100,-0.770446
0.160200,-0.721434
0.160300,-0.654894
0.160400,-0.622112
0.160500,-0.663334
0.160600,-0.771095
0.160700,-0.769472
0.160800,-0.846722
0.160900,-0.888593
0.161000,-0.950264
0.161100,-0.958054
0.161200,-0.995706
0.161300,-1.023944
0.161400,-1.080421
0.161500,-1.124565
0.161600,-1.186235
0.161700,-1.211877
0.161800,-0.995381
0.161900,-0.823677
0.162000,-0.862302
0.162100,-1.073930
0.162200,-1.459858
0.162300,-1.302111
0.162400,-1.206035
0.162500,-0.907744
0.162600,-0.970713
0.162700,-0.990188
0.162800,-1.304383
0.162900,-1.315094
0.163000,-1.233949
0.163100,-1.060297
0.163200,-0.906121
0.163300,-0.896383
0.163400,-0.937930
0.163500,-0.950264
0.163600,-0.941176
0.163700,-0.920402
0.163800,-0.844450
0.163900,-0.808422
0.164000,-0.816861
0.164100,-0.774665
0.164200,-0.802579
0.164300,-0.808422
0.164400,-0.844450
0.164500,-0.833739
0.164600,-0.885672
0.164700,-0.750322
0.164800,-0.738637
0.164900,-0.700011
0.165000,-0.883725
0.165100,-1.048612
0.165200,-0.934035
0.165300,-0.673071
0.165400,-0.442618
0.165500,-0.453978
0.165600,-0.645157
0.165700,-0.824326
0.165800,-0.763629
0.165900,-0.559792
0.166000,-0.347191
0.166100,-0.302399
0.166200,-0.412107
0.166300,-0.490331
0.166400,-0.397176
0.166500,-0.270914
0.166600,0.544435
0.166700,0.487958
0.166800,0.649924
0.166900,0.597017
0.167000,0.838181
0.167100,1.485072
0.167200,1.562323
0.167300,1.628213
0.167400,1.996289
0.167500,2.477969
0.167600,3.016775
0.167700,3.258265
0.167800,2.868117
0.167900,2.540938
0.168000,2.517568
0.168100,3.283583
0.168200,3.658476
0.168300,3.432242
0.168400,3.381282
0.168500,3.399783
0.168600,3.326752
0.168700,3.332270
0.168800,3.352070
0.168900,3.279363
0.169000,3.070007
0.169100,3.137196
0.169200,2.949911
0.169300,2.930761
0.169400,2.933682
0.169500,2.734389
0.169600,2.759057
0.169700,2.383191
0.169800,2.143000
0.169900,1.776871
0.170000,1.604194
0.170100,0.525934
0.170200,-0.728575
0.170300,-0.879181
0.170400,-0.798035
0.170500,-0.662035
0.170600,-0.611725
0.170700,-0.717539
0.170800,-1.073605
0.170900,-1.302111
0.171000,-1.303085
0.171100,-1.208307
0.171200,-1.124240
0.171300,-1.204412
0.171400,-1.375467
0.171500,-1.570216
0.171600,-1.608842
0.171700,-1.667916
0.171800,-1.622799
0.171900,-1.700698
0.172000,-1.792555
0.172100,-1.870131
0.172200,-1.973673
0.172300,-2.037615
0.172400,-2.070074
0.172500,-2.124279
0.172600,-2.230742
0.172700,-2.287869
0.172800,-2.348566
0.172900,-2.429063
0.173000,-2.527087
0.173100,-2.632577
0.173200,-2.647507
0.173300,-2.573178
0.173400,-2.459574
0.173500,-2.568309
0.173600,-2.804281
0.173700,-2.987022
0.173800,-3.044149
0.173900,-2.893542
0.174000,-2.748128
0.174100,-2.748128
0.174200,-2.936063
0.174300,-3.171386
0.174400,-3.237277
0.174500,-3.145419
0.174600,-2.998383
0.174700,-2.939633
0.174800,-2.964301
0.174900,-2.981504
0.175000,-2.927623
0.175100,-2.841284
0.175200,-2.771498
0.175300,-2.664386
0.175400,-2.537149
0.175500,-2.400175
0.175600,-2.200232
0.175700,-2.048327
0.175800,-1.949653
0.175900,-1.866560
0.176000,-1.828584
0.176100,-1.648765
0.176200,-1.469920
0.176300,-1.384880
0.176400,-1.127810
0.176500,-1.142092
0.176600,-1.067763
0.176700,-0.982073
0.176800,-0.860030
0.176900,-0.735391
0.177000,-0.618217
0.177100,-0.501692
0.177200,-0.494226
0.177300,-0.451706
0.177400,-0.442942
0.177500,-0.373482
0.177600,-0.347191
0.177700,-0.300776
0.177800,-0.181005
0.177900,-0.188470
0.178000,-0.131344
0.178100,-0.172566
0.178200,-0.123554
0.178300,-0.100184
0.178400,-0.019039
0.178500,0.294182
0.178600,0.379547
0.178700,0.415901
0.178800,-0.030724
0.178900,-0.029101
0.179000,-0.067401
0.179100,0.252636
0.179200,0.316254
0.179300,0.283471
0.179400,0.152340
0.179500,-0.092719
0.179600,-0.120957
0.179700,-0.145626
0.179800,0.024780
0.179900,0.032245
0.180000,-0.027478
0.180100,-0.077463
0.180200,-0.150819
0.180300,-0.229043
0.180400,-0.234886
0.180500,-0.277081
0.180600,-0.295582
0.180700,-0.301425
0.180800,-0.349138
0.180900,-0.435802
0.181000,-0.410484
0.181100,-0.478971
0.181200,-0.519868
0.181300,-0.541940
0.181400,-0.467611
0.181500,-0.504938
0.181600,-0.474102
0.181700,-0.792842
0.181800,-0.825949
0.181900,-0.711047
0.182000,-0.506236
0.182100,-0.376728
0.182200,-0.512403
0.182300,-0.683782
0.182400,-0.813290
0.182500,-0.709100
0.182600,-0.520518
0.182700,-0.430933
0.182800,-0.459172
0.182900,-0.561090
0.183000,-0.627630
0.183100,-0.529606
0.183200,-0.562713
0.183300,-0.525711
0.183400,-0.599716
0.183500,-0.626331
0.183600,-0.627954
0.183700,-0.595496
0.183800,-0.571477
0.183900,-0.597443
0.184000,-0.618866
0.184100,-0.586083
0.184200,-0.472479
0.184300,-0.182953
0.184400,-0.241053
0.184500,-0.669501
0.184600,-0.690274
0.184700,-0.659114
0.184800,-0.261826
0.184900,-0.180680
0.185000,-0.458198
0.185100,-0.518570
0.185200,-0.708775
0.185300,-0.551677
0.185400,-0.504613
0.185500,-0.545186
0.185600,-0.690598
0.185700,-0.722083
0.185800,-0.707801
0.185900,-0.747400
0.186000,-0.787973
0.186100,-0.810694
0.186200,-0.825625
0.186300,-0.874312
0.186400,-0.866197
0.186500,-0.959352
0.186600,-0.988565
0.186700,-1.046016
0.186800,-1.233624
0.186900,-1.512765
0.187000,-1.611763
0.187100,-1.450770
0.187200,-1.319639
0.187300,-1.309252
0.187400,-1.531266
0.187500,-1.814952
0.187600,-1.998665
0.187700,-1.988928
0.187800,-1.829233
0.187900,-1.808784
0.188000,-1.940241
0.188100,-2.143429
0.188200,-2.258656
0.188300,-2.281702
0.188400,-2.246971
0.188500,-2.274561
0.188600,-2.281053
0.188700,-2.309616
0.188800,-2.337855
0.188900,-2.342074
0.189000,-2.346294
0.189100,-2.344022
0.189200,-2.379401
0.189300,-2.360900
0.189400,-2.369664
0.189500,-2.354084
0.189600,-2.308967
0.189700,-2.328442
0.189800,-2.350514
0.189900,-2.292738
0.190000,-2.092794
0.190100,-2.043133
0.190200,-2.131744
0.190300,-2.328117
0.190400,-2.400824
0.190500,-2.372261
0.190600,-2.150246
0.190700,-1.980813
0.190800,-2.013921
0.190900,-2.176537
0.191000,-2.356356
0.191100,-2.313186
0.191200,-2.164852
0.191300,-2.048651
0.191400,-2.030799
0.191500,-2.056441
0.191600,-2.064556
0.191700,-1.991525
0.191800,-1.915248
0.191900,-1.833777
0.192000,-1.773405
0.192100,-1.674407
0.192200,-1.544574
0.192300,-1.376440
0.192400,-1.275495
0.192500,-1.223562
0.192600,-1.199868
0.192700,-1.189806
0.192800,-1.034006
0.192900,-0.907095
0.193000,-0.791543
0.193100,-0.654894
0.193200,-0.677291
0.193300,-0.645482
0.193400,-0.570828
0.193500,-0.498121
0.193600,-0.399773
0.193700,-0.365692
0.193800,-0.373157
0.193900,-0.411133
0.194000,-0.442293
0.194100,-0.477673
0.194200,-0.499744
0.194300,-0.526360
0.194400,-0.460794
0.194500,-0.554599
0.194600,-0.536747
0.194700,-0.631849
0.194800,-0.626007
0.194900,-0.719811
0.195000,-0.620164
0.195100,-0.566284
0.195200,-0.270590
0.195300,-0.257606
0.195400,-0.318303
0.195500,-0.771419
0.195600,-0.728899
0.195700,-0.648403
0.195800,-0.374131
0.195900,-0.310189
0.196000,-0.364069
0.196100,-0.527009
0.196200,-0.676966
0.196300,-0.593873
0.196400,-0.479296
0.196500,-0.355955
0.196600,-0.373157
0.196700,-0.395554
0.196800,-0.481243
0.196900,-0.511105
0.197000,-0.539019
0.197100,-0.510456
0.197200,-0.570179
0.197300,-0.616918
0.197400,-0.620164
0.197500,-0.720135
0.197600,-0.786999
0.197700,-0.869443
0.197800,-0.869768
0.197900,-0.966818
0.198000,-0.895085
0.198100,-0.887620
0.198200,-0.819133
0.198300,-0.938255
0.198400,-1.140469
0.198500,-1.160593
0.198600,-0.985643
0.198700,-0.787324
0.198800,-0.736040
0.198900,-0.873663
0.199000,-1.120670
0.199100,-1.182989
0.199200,-1.052832
0.199300,-0.860679
0.199400,-0.803228
0.199500,-0.930789
0.199600,-1.044393
0.199700,-1.084316
0.199800,-1.009663
0.199900,-0.986293
0.200000,-0.984994
0.200100,-1.084966
0.200200,-1.133978
0.200300,-1.172278
0.200400,-1.094703
0.200500,-1.118398
0.200600,-1.182016
0.200700,-1.217395
0.200800,-1.189157
0.200900,-1.168059
0.201000,-1.180393
0.201100,-1.249853
0.201200,-1.370598
0.201300,-1.352746
0.201400,-1.372546
0.201500,-1.401433
0.201600,-1.363782
0.201700,-1.422856
0.201800,-1.414092
0.201900,-1.419610
0.202000,-1.445252
0.202100,-1.431619
0.202200,-1.463753
0.202300,-1.477061
0.202400,-1.470245
0.202500,-1.468946
0.202600,-1.486799
0.202700,-1.496211
0.202800,-1.524125
0.202900,-1.493615
0.203000,-1.556584
0.203100,-1.567944
0.203200,-1.626369
0.203300,-1.653959
0.203400,-1.685118
0.203500,-1.960689
0.203600,-2.171344
0.203700,-2.192442
0.203800,-1.997043
0.203900,-1.845462
0.204000,-1.920441
0.204100,-2.172317
0.204200,-2.415755
0.204300,-2.479049
0.204400,-2.391736
0.204500,-2.274561
0.204600,-2.281702
0.204700,-2.438800
0.204800,-2.654324
0.204900,-2.718267
0.205000,-2.748453
0.205100,-2.727680
0.205200,-2.753971
0.205300,-2.794219
0.205400,-2.846802
0.205500,-2.900683
0.205600,-2.897437
0.205700,-2.935089
0.205800,-2.915614
0.205900,-2.918860
0.206000,-2.929246
0.206100,-2.909122
0.206200,-2.870821
0.206300,-2.902630
0.206400,-2.864654
0.206500,-2.858812
0.206600,-2.738716
0.206700,-2.546237
0.206800,-2.518323
0.206900,-2.621865
0.207000,-2.820186
0.207100,-2.853943
0.207200,-2.728978
0.207300,-2.471583
0.207400,-2.369339
0.207500,-2.464442
0.207600,-2.674123
0.207700,-2.752348
0.207800,-2.685808
0.207900,-2.497550
0.208000,-2.415430
0.208100,-2.396280
0.208200,-2.408939
0.208300,-2.369664
0.208400,-2.278131
0.208500,-2.227821
0.208600,-2.147649
0.208700,-2.099935
0.208800,-1.962961
0.208900,-1.758799
0.209000,-1.584498
0.209100,-1.501080
0.209200,-1.451744
0.209300,-1.376116
0.209400,-1.274197
0.209500,-1.077500
0.209600,-0.944097
0.209700,-0.712345
0.209800,-0.681186
0.209900,-0.601663
0.210000,-0.511429
0.210100,-0.374780
0.210200,-0.216384
0.210300,-0.063182
0.210400,0.072169
0.210500,0.162402
0.210600,0.211739
0.210700,0.314956
0.210800,0.363968
0.210900,0.440569
0.211000,0.464912
0.211100,0.603184
0.211200,0.598965
0.211300,0.681408
0.211400,0.639213
0.211500,0.707699
0.211600,0.577542
0.211700,0.653494
0.211800,0.816434
0.211900,1.032281
0.212000,0.996902
0.212100,0.770344
0.212200,0.486010
0.212300,0.489256
0.212400,0.604482
0.212500,0.807995
0.212600,0.783327
0.212700,0.718411
0.212800,0.513600
0.212900,0.513600
0.213000,0.504836
0.213100,0.639537
0.213200,0.633370
0.213300,0.620062
0.213400,0.514898
0.213500,0.506459
0.213600,0.414602
0.213700,0.409734
0.213800,0.398049
0.213900,0.361046
0.214000,0.354879
0.214100,0.269514
0.214200,0.238679
0.214300,0.081906
0.214400,0.152016
0.214500,0.001410
0.214600,-0.050523
0.214700,-0.059287
0.214800,-0.018714
0.214900,-0.081034
0.215000,-0.250141
0.215100,-0.500393
0.215200,-0.479296
0.215300,-0.324146
0.215400,-0.193664
0.215500,-0.280652
0.215600,-0.545835
0.215700,-0.786675
0.215800,-0.755839
0.215900,-0.620489
0.216000,-0.510131
0.216100,-0.540966
0.216200,-0.732470
0.216300,-0.846073
0.216400,-0.809720
0.216500,-0.784727
0.216600,-0.786350
0.216700,-0.908718
0.216800,-1.030760
0.216900,-1.080097
0.217000,-1.075228
0.217100,-1.067114
0.217200,-1.142417
0.217300,-1.223238
0.217400,-1.255047
0.217500,-1.250827
0.217600,-1.250827
0.217700,-1.263486
0.217800,-1.328402
0.217900,-1.416364
0.218000,-1.477710
0.218100,-1.512441
0.218200,-1.577357
0.218300,-1.562426
0.218400,-1.657854
0.218500,-1.690961
0.218600,-1.726990
0.218700,-1.776651
0.218800,-1.824364
0.218900,-1.846761
0.219000,-1.890579
0.219100,-1.926283
0.219200,-1.959715
0.219300,-1.977892
0.219400,-1.987954
0.219500,-2.020088
0.219600,-1.987305
0.219700,-2.049625
0.219800,-2.063257
0.219900,-2.107401
0.220000,-2.170370
0.220100,-2.296308
0.220200,-2.584863
0.220300,-2.670553
0.220400,-2.611479
0.220500,-2.418676
0.220600,-2.366743
0.220700,-2.461846
0.220800,-2.777341
0.220900,-2.923728
0.221000,-2.906201
0.221100,-2.719890
0.221200,-2.583564
0.221300,-2.572204
0.221400,-2.691326
0.221500,-2.759489
0.221600,-2.751050
0.221700,-2.658219
0.221800,-2.507612
0.221900,-2.424843
0.222000,-2.344346
0.222100,-2.271640
0.222200,-2.182055
0.222300,-2.055792
0.222400,-1.904536
0.222500,-1.766913
0.222600,-1.674083
0.222700,-1.601701
0.222800,-1.442980
0.222900,-1.294970
0.223000,-1.184288
0.223100,-1.083343
0.223200,-0.983047
0.223300,-0.729873
0.223400,-0.503639
0.223500,-0.454303
0.223600,-0.563038
0.223700,-0.626331
0.223800,-0.576021
0.223900,-0.311811
0.224000,-0.045330
0.224100,0.023806
0.224200,-0.104404
0.224300,-0.300776
0.224400,-0.327067
0.224500,-0.214762
0.224600,-0.055067
0.224700,-0.002810
0.224800,-0.024881
0.224900,-0.071296
0.225000,-0.046953
0.225100,0.022508
0.225200,0.071844
0.225300,0.135462
0.225400,0.163052
0.225500,0.231863
0.225600,0.368187
0.225700,0.470430
0.225800,0.494125
0.225900,0.504511
0.226000,0.482115
0.226100,0.523662
0.226200,0.645380
0.226300,0.661609
0.226400,0.846945
0.226500,0.793064
0.226600,0.788196
0.226700,0.797284
0.226800,0.850515
0.226900,0.900825
0.227000,0.984243
0.227100,0.907966
0.227200,0.858954
0.227300,0.695690
0.227400,0.648301
0.227500,0.481466
0.227600,0.398373
0.227700,0.261075
0.227800,0.133190
0.227900,0.047500
0.228000,-0.186198
0.228100,-0.257282
0.228200,-0.569854
0.228300,-0.536747
0.228400,-0.749997
0.228500,-0.614646
0.228600,-0.583162
0.228700,-0.637367
0.228800,-1.186235
0.228900,-1.391371
0.229000,-1.348851
0.229100,-1.266407
0.229200,-1.143066
0.229300,-1.210904
0.229400,-1.361510
0.229500,-1.560803
0.229600,-1.601701
0.229700,-1.540355
0.229800,-1.402407
0.229900,-1.335543
0.230000,-1.357615
0.230100,-1.449472
0.230200,-1.496211
0.230300,-1.504326
0.230400,-1.476736
0.230500,-1.415066
0.230600,-1.392670
0.230700,-1.369949
0.230800,-1.395915
0.230900,-1.445252
0.231000,-1.517309
0.231100,-1.456937
0.231200,-1.489071
0.231300,-1.507247
0.231400,-1.436813
0.231500,-1.480631
0.231600,-1.415390
0.231700,-1.817224
0.231800,-1.834751
0.231900,-1.759123
0.232000,-1.520555
0.232100,-1.434216
0.232200,-1.502703
0.232300,-1.733481
0.232400,-1.878894
0.232500,-1.800021
0.232600,-1.599104
0.232700,-1.489720
0.232800,-1.507247
0.232900,-1.634808
0.233000,-1.748737
0.233100,-1.711734
0.233200,-1.718550
0.233300,-1.644546
0.233400,-1.725691
0.233500,-1.740947
0.233600,-1.727963
0.233700,-1.643896
0.233800,-1.649739
0.233900,-1.703295
0.234000,-1.700374
0.234100,-1.664345
0.234200,-1.607219
0.234300,-1.578655
0.234400,-1.535810
0.234500,-1.649090
0.234600,-1.668565
0.234700,-1.637729
0.234800,-1.605271
0.234900,-1.519906
0.235000,-1.466674
0.235100,-1.434216
0.235200,-1.384230
0.235300,-1.348202
0.235400,-1.316393
0.235500,-1.315419
0.235600,-1.298216
0.235700,-1.273223
0.235800,-1.263810
0.235900,-1.283610
0.236000,-1.262837
0.236100,-1.285882
0.236200,-1.293347
0.236300,-1.341386
0.236400,-1.356641
0.236500,-1.438760
0.236600,-1.430321
0.236700,-1.503352
0.236800,-1.670837
0.236900,-1.911028
0.237000,-1.958093
0.237100,-1.753281
0.237200,-1.606245
0.237300,-1.509195
0.237400,-1.721796
0.237500,-1.960689
0.237600,-2.067477
0.237700,-1.980164
0.237800,-1.811706
0.237900,-1.702321
0.238000,-1.743219
0.238100,-1.853252
0.238200,-1.941214
0.238300,-1.922388
0.238400,-1.909081
0.238500,-1.827286
0.238600,-1.810083
0.238700,-1.818197
0.238800,-1.854875
0.238900,-1.858446
0.239000,-1.830856
0.239100,-1.807162
0.239200,-1.832154
0.239300,-1.809758
0.239400,-1.849357
0.239500,-1.803916
0.239600,-1.796450
0.239700,-1.816899
0.239800,-1.857796
0.239900,-1.821119
0.240000,-1.669538
0.240100,-1.556908
0.240200,-1.668889
0.240300,-1.887983
0.240400,-1.988603
0.240500,-1.974646
0.240600,-1.768212
0.240700,-1.648441
0.240800,-1.711410
0.240900,-1.964260
0.241000,-2.173616
0.241100,-2.214513
0.241200,-2.125902
0.241300,-2.056117
0.241400,-2.091821
0.241500,-2.141157
0.241600,-2.212566
0.241700,-2.246647
0.241800,-2.254761
0.241900,-2.249568
0.242000,-2.237559
0.242100,-2.214513
0.242200,-2.143754
0.242300,-2.022685
0.242400,-1.973997
0.242500,-1.992823
0.242600,-1.990551
0.242700,-1.992174
0.242800,-1.836049
0.242900,-1.704593
0.243000,-1.566970
0.243100,-1.465051
0.243200,-1.491992
0.243300,-1.451419
0.243400,-1.381958
0.243500,-1.300813
0.243600,-1.183639
0.243700,-1.045367
0.243800,-1.030436
0.243900,-0.990837
0.244000,-0.929166
0.244100,-0.894436
0.244200,-0.873663
0.244300,-0.834388
0.244400,-0.712995
0.244500,-0.697415
0.244600,-0.595496
0.244700,-0.660088
0.244800,-0.556546
0.244900,-0.653921
0.245000,-0.489358
0.245100,-0.430284
0.245200,-0.131993
0.245300,0.060159
0.245400,-0.119659
0.245500,-0.366341
0.245600,-0.409511
0.245700,-0.257931
0.245800,-0.031697
0.245900,0.104302
0.246000,0.116312
0.246100,-0.052795
0.246200,-0.062208
0.246300,-0.118361
0.246400,0.043281
0.246500,0.179930
0.246600,0.208168
0.246700,0.154612
0.246800,0.159157
0.246900,0.123777
0.247000,0.099434
0.247100,0.105925
0.247200,0.107548
0.247300,0.109496
0.247400,0.119558
0.247500,0.096837
0.247600,0.014069
0.247700,0.045878
0.247800,-0.018390
0.247900,-0.036566
0.248000,-0.035917
0.248100,0.005629
0.248200,-0.001511
0.248300,-0.095640
0.248400,-0.363420
0.248500,-0.414379
0.248600,-0.294933
0.248700,-0.094991
0.248800,-0.122580
0.248900,-0.250790
0.249000,-0.548432
0.249100,-0.605883
0.249200,-0.528957
0.249300,-0.366990
0.249400,-0.333234
0.249500,-0.451057
0.249600,-0.552976
0.249700,-0.607830
0.249800,-0.551353
0.249900,-0.561739
0.250000,-0.564661
0.250100,-0.641587
0.250200,-0.660737
0.250300,-0.601988
0.250400,-0.578293
0.250500,-0.607505
0.250600,-0.666904
0.250700,-0.712670
0.250800,-0.674045
0.250900,-0.647754
0.251000,-0.626980
0.251100,-0.667553
0.251200,-0.821730
0.251300,-0.841854
0.251400,-0.854512
0.251500,-0.824975
0.251600,-0.721758
0.251700,-0.771744
0.251800,-0.743181
0.251900,-0.751944
0.252000,-0.733443
0.252100,-0.749997
0.252200,-0.785052
0.252300,-0.769796
0.252400,-0.800632
0.252500,-0.793491
0.252600,-0.790894
0.252700,-0.839257
0.252800,-0.833739
0.252900,-0.876584
0.253000,-0.909691
0.253100,-0.932412
0.253200,-1.031734
0.253300,-1.043419
0.253400,-1.139171
0.253500,-1.343333
0.253600,-1.603973
0.253700,-1.561452
0.253800,-1.411171
0.253900,-1.259591
0.254000,-1.298216
0.254100,-1.542302
0.254200,-1.829558
0.254300,-1.896422
0.254400,-1.797099
0.254500,-1.650064
0.254600,-1.626369
0.254700,-1.764317
0.254800,-1.929854
0.254900,-2.016517
0.255000,-2.030475
0.255100,-1.938618
0.255200,-1.924011
0.255300,-1.932451
0.255400,-2.008727
0.255500,-2.000938
0.255600,-1.977243
0.255700,-1.960689
0.255800,-1.936021
0.255900,-1.940241
0.256000,-2.004833
0.256100,-1.967830
0.256200,-1.898369
0.256300,-1.890904
0.256400,-1.920766
0.256500,-1.909405
0.256600,-1.833777
0.256700,-1.686092
0.256800,-1.659476
0.256900,-1.788011
0.257000,-1.967830
0.257100,-2.026904
0.257200,-1.923687
0.257300,-1.690961
0.257400,-1.617605
0.257500,-1.738025
0.257600,-1.947381
0.257700,-2.086952
0.257800,-2.043782
0.257900,-1.909405
0.258000,-1.819496
0.258100,-1.830207
0.258200,-1.900641
0.258300,-1.902264
0.258400,-1.900641
0.258500,-1.894799
0.258600,-1.884412
0.258700,-1.858770
0.258800,-1.812355
0.258900,-1.713033
0.259000,-1.593911
0.259100,-1.534837
0.259200,-1.569567
0.259300,-1.560154
0.259400,-1.530942
0.259500,-1.365080
0.259600,-1.272250
0.259700,-1.051534
0.259800,-1.050235
0.259900,-1.034655
0.260000,-1.024593
0.260100,-0.934035
0.260200,-0.861978
0.260300,-0.777586
0.260400,-0.728899
0.260500,-0.737014
0.260600,-0.734742
0.260700,-0.759734
0.260800,-0.710073
0.260900,-0.778885
0.261000,-0.730847
0.261100,-0.717214
0.261200,-0.701959
0.261300,-0.692546
0.261400,-0.727601
0.261500,-0.711696
0.261600,-0.716890
0.261700,-0.750322
0.261800,-0.490007
0.261900,-0.373157
0.262000,-0.128747
0.262100,-0.494226
0.262200,-0.749997
0.262300,-0.740584
0.262400,-0.544861
0.262500,-0.344919
0.262600,-0.287468
0.262700,-0.386465
0.262800,-0.582513
0.262900,-0.696766
0.263000,-0.667229
0.263100,-0.535124
0.263200,-0.443592
0.263300,-0.467611
0.263400,-0.500718
0.263500,-0.586083
0.263600,-0.553300
0.263700,-0.621463
0.263800,-0.594522
0.263900,-0.644832
0.264000,-0.641911
0.264100,-0.693520
0.264200,-0.755190
0.264300,-0.827572
0.264400,-0.869443
0.264500,-0.901901
0.264600,-1.028488
0.264700,-0.941176
0.264800,-0.994732
0.264900,-0.908068
0.265000,-1.184937
0.265100,-1.397538
0.265200,-1.403705
0.265300,-1.232975
0.265400,-1.047639
0.265500,-1.096326
0.265600,-1.290751
0.265700,-1.528345
0.265800,-1.492966
0.265900,-1.359238
0.266000,-1.162216
0.266100,-1.126512
0.266200,-1.238818
0.266300,-1.316393
0.266400,-1.283610
0.266500,-1.213825
0.266600,-1.162865
0.266700,-1.219992
0.266800,-1.242713
0.266900,-1.238493
0.267000,-1.175524
0.267100,-1.124565
0.267200,-1.170655
0.267300,-1.225185
0.267400,-1.229405
0.267500,-1.193376
0.267600,-1.174550
0.267700,-1.173252
0.267800,-1.284259
0.267900,-1.380335
0.268000,-1.394942
0.268100,-1.419935
0.268200,-1.415715
0.268300,-1.364106
0.268400,-1.394293
0.268500,-1.390722
0.268600,-1.383906
0.268700,-1.360211
0.268800,-1.345281
0.268900,-1.358913
0.269000,-1.342035
0.269100,-1.342684
0.269200,-1.367352
0.269300,-1.372221
0.269400,-1.375467
0.269500,-1.371572
0.269600,-1.377414
0.269700,-1.420908
0.269800,-1.418636
0.269900,-1.486149
0.270000,-1.466025
0.270100,-1.610140
0.270200,-1.839620
0.270300,-2.018790
0.270400,-1.899343
0.270500,-1.737052
0.270600,-1.567944
0.270700,-1.670188
0.270800,-1.938293
0.270900,-2.130122
0.271000,-2.115515
0.271100,-1.972374
0.271200,-1.828909
0.271300,-1.865911
0.271400,-1.987630
0.271500,-2.147974
0.271600,-2.136289
0.271700,-2.151219
0.271800,-2.090522
0.271900,-2.128499
0.272000,-2.167449
0.272100,-2.201854
0.272200,-2.251840
0.272300,-2.240480
0.272400,-2.278456
0.272500,-2.295659
0.272600,-2.393034
0.272700,-2.386542
0.272800,-2.366743
0.272900,-2.399526
0.273000,-2.419650
0.273100,-2.506314
0.273200,-2.509884
0.273300,-2.452108
0.273400,-2.291439
0.273500,-2.346619
0.273600,-2.555975
0.273700,-2.730276
0.273800,-2.801036
0.273900,-2.625436
0.274000,-2.436528
0.274100,-2.420299
0.274200,-2.639393
0.274300,-2.860110
0.274400,-2.952292
0.274500,-2.878611
0.274600,-2.780587
0.274700,-2.766954
0.274800,-2.834468
0.274900,-2.902306
0.275000,-2.895165
0.275100,-2.864979
0.275200,-2.870497
0.275300,-2.859785
0.275400,-2.877637
0.275500,-2.828625
0.275600,-2.679641
0.275700,-2.599469
0.275800,-2.555975
0.275900,-2.571555
0.276000,-2.573827
0.276100,-2.505664
0.276200,-2.338504
0.276300,-2.274236
0.276400,-2.071047
0.276500,-2.089873
0.276600,-2.038589
0.276700,-2.016842
0.276800,-1.904861
0.276900,-1.838971
0.277000,-1.696803
0.277100,-1.691286
0.277200,-1.689663
0.277300,-1.691286
0.277400,-1.674083
0.277500,-1.645519
0.277600,-1.654608
0.277700,-1.611114
0.277800,-1.638054
0.277900,-1.581252
0.278000,-1.635782
0.278100,-1.595534
0.278200,-1.621825
0.278300,-1.604622
0.278400,-1.526073
0.278500,-1.292374
0.278600,-1.064842
0.278700,-1.054779
0.278800,-1.310226
0.278900,-1.452068
0.279000,-1.320288
0.279100,-1.031734
0.279200,-0.897033
0.279300,-0.836660
0.279400,-0.952861
0.279500,-1.052832
0.279600,-1.038226
0.279700,-0.891515
0.279800,-0.713968
0.279900,-0.601338
0.280000,-0.659439
0.280100,-0.636393
0.280200,-0.650675
0.280300,-0.617892
0.280400,-0.584460
0.280500,-0.513052
0.280600,-0.512403
0.280700,-0.530255
0.280800,-0.553625
0.280900,-0.612374
0.281000,-0.662360
0.281100,-0.582837
0.281200,-0.664307
0.281300,-0.681186
0.281400,-0.616269
0.281500,-0.645482
0.281600,-0.558494
0.281700,-0.868794
0.281800,-0.962923
0.281900,-0.934684
0.282000,-0.727601
0.282100,-0.660088
0.282200,-0.745777
0.282300,-0.965195
0.282400,-1.148908
0.282500,-1.095677
0.282600,-0.895410
0.282700,-0.778236
0.282800,-0.861653
0.282900,-0.972985
0.283000,-1.036603
0.283100,-0.939877
0.283200,-0.924297
0.283300,-0.863276
0.283400,-0.975581
0.283500,-0.989538
0.283600,-0.984345
0.283700,-0.925596
0.283800,-0.931763
0.283900,-1.018102
0.284000,-1.051534
0.284100,-1.050235
0.284200,-1.041796
0.284300,-1.057701
0.284400,-1.065815
0.284500,-1.196297
0.284600,-1.298541
0.284700,-1.337491
0.284800,-1.371896
0.284900,-1.327104
0.285000,-1.383581
0.285100,-1.426751
0.285200,-1.445901
0.285300,-1.483877
0.285400,-1.526398
0.285500,-1.571515
0.285600,-1.589042
0.285700,-1.602674
0.285800,-1.632536
0.285900,-1.682197
0.286000,-1.690312
0.286100,-1.730885
0.286200,-1.733481
0.286300,-1.781844
0.286400,-1.814302
0.286500,-1.878894
0.286600,-1.903887
0.286700,-1.963286
0.286800,-2.178160
0.286900,-2.419974
0.287000,-2.557598
0.287100,-2.395631
0.287200,-2.269692
0.287300,-2.174914
0.287400,-2.408939
0.287500,-2.685159
0.287600,-2.827976
0.287700,-2.791623
0.287800,-2.629980
0.287900,-2.579345
0.288000,-2.632577
0.288100,-2.813370
0.288200,-2.983776
0.288300,-3.001304
0.288400,-2.995786
0.288500,-2.946449
0.288600,-2.960082
0.288700,-3.001304
0.288800,-3.054211
0.288900,-3.081801
0.289000,-3.089266
0.289100,-3.057132
0.289200,-3.091538
0.289300,-3.163596
0.289400,-3.173983
0.289500,-3.173334
0.289600,-3.162622
0.289700,-3.181124
0.289800,-3.183396
0.289900,-3.162622
0.290000,-3.019156
0.290100,-2.869198
0.290200,-2.948397
0.290300,-3.146718
0.290400,-3.256103
0.290500,-3.219749
0.290600,-3.005524
0.290700,-2.819537
0.290800,-2.868874
0.290900,-3.056483
0.291000,-3.252532
0.291100,-3.261621
0.291200,-3.122374
0.291300,-2.985399
0.291400,-2.977285
0.291500,-3.011366
0.291600,-2.997084
0.291700,-2.970468
0.291800,-2.918535
0.291900,-2.862382
0.292000,-2.799413
0.292100,-2.728653
0.292200,-2.651078
0.292300,-2.477750
0.292400,-2.377129
0.292500,-2.360576
0.292600,-2.327793
0.292700,-2.303449
0.292800,-2.178809
0.292900,-2.060336
0.293000,-1.902589
0.293100,-1.803916
0.293200,-1.832479
0.293300,-1.799696
0.293400,-1.734780
0.293500,-1.637405
0.293600,-1.549443
0.293700,-1.466999
0.293800,-1.461481
0.293900,-1.430970
0.294000,-1.504651
0.294100,-1.401433
0.294200,-1.510818
0.294300,-1.450121
0.294400,-1.438111
0.294500,-1.390398
0.294600,-1.398837
0.294700,-1.428374
0.294800,-1.446550
0.294900,-1.528020
0.295000,-1.417013
0.295100,-1.405004
0.295200,-1.121319
0.295300,-0.983047
0.295400,-1.087562
0.295500,-1.439409
0.295600,-1.505300
0.295700,-1.277767
0.295800,-1.166436
0.295900,-0.957729
0.296000,-1.033357
0.296100,-1.143390
0.296200,-1.293023
0.296300,-1.215772
0.296400,-1.175849
0.296500,-1.021672
0.296600,-1.017777
0.296700,-1.111906
0.296800,-1.175199
0.296900,-1.167734
0.297000,-1.205386
0.297100,-1.206359
0.297200,-1.225185
0.297300,-1.242388
0.297400,-1.248555
0.297500,-1.327753
0.297600,-1.356641
0.297700,-1.379686
0.297800,-1.428374
0.297900,-1.501729
0.298000,-1.453367
0.298100,-1.420584
0.298200,-1.450445
0.298300,-1.479009
0.298400,-1.735429
0.298500,-1.771133
0.298600,-1.623772
0.298700,-1.411820
0.298800,-1.389099
0.298900,-1.562426
0.299000,-1.864613
0.299100,-1.944785
0.299200,-1.844489
0.299300,-1.677978
0.299400,-1.633834
0.299500,-1.772107
0.299600,-1.881491
0.299700,-1.913949
0.299800,-1.834751
0.299900,-1.844813
0.300000,-1.838321
0.300100,-1.909405
0.300200,-1.909730
0.300300,-1.877921
0.300400,-1.828584
0.300500,-1.851629
0.300600,-1.889930
0.300700,-1.916871
0.300800,-1.865586
0.300900,-1.806188
0.301000,-1.778274
0.301100,-1.802293
0.301200,-1.916546
0.301300,-1.938293
0.301400,-1.917844
0.301500,-1.878894
0.301600,-1.769835
0.301700,-1.849033
0.301800,-1.820145
0.301900,-1.805863
0.302000,-1.777625
0.302100,-1.770808
0.302200,-1.782493
0.302300,-1.782169
0.302400,-1.782818
0.302500,-1.780546
0.302600,-1.788011
0.302700,-1.783792
0.302800,-1.805539
0.302900,-1.785415
0.303000,-1.812355
0.303100,-1.818847
0.303200,-1.888632
0.303300,-1.888956
0.303400,-1.968804
0.303500,-2.161282
0.303600,-2.420948
0.303700,-2.348241
0.303800,-2.187897
0.303900,-2.071047
0.304000,-2.081434
0.304100,-2.305721
0.304200,-2.591679
0.304300,-2.649780
0.304400,-2.546562
0.304500,-2.368366
0.304600,-2.410237
0.304700,-2.542342
0.304800,-2.746830
0.304900,-2.827976
0.305000,-2.836740
0.305100,-2.777990
0.305200,-2.803308
0.305300,-2.860110
0.305400,-2.934440
0.305500,-2.972091
0.305600,-2.951967
0.305700,-2.978908
0.305800,-3.000006
0.305900,-3.040903
0.306000,-3.114259
0.306100,-3.145744
0.306200,-3.126918
0.306300,-3.143472
0.306400,-3.181124
0.306500,-3.223644
0.306600,-3.149314
0.306700,-2.985399
0.306800,-2.965275
0.306900,-3.106469
0.307000,-3.322318
0.307100,-3.395025
0.307200,-3.295377
0.307300,-3.024999
0.307400,-2.925676
0.307500,-3.020130
0.307600,-3.256427
0.307700,-3.375874
0.307800,-3.346013
0.307900,-3.185019
0.308000,-3.100627
0.308100,-3.104197
0.308200,-3.165219
0.308300,-3.143472
0.308400,-3.102574
0.308500,-3.064922
0.308600,-3.051615
0.308700,-3.004874
0.308800,-2.959108
0.308900,-2.848749
0.309000,-2.701713
0.309100,-2.612128
0.309200,-2.585512
0.309300,-2.581292
0.309400,-2.545913
0.309500,-2.352136
0.309600,-2.255735
0.309700,-2.038265
0.309800,-2.011000
0.309900,-2.020737
0.310000,-2.000613
0.310100,-1.928880
0.310200,-1.833453
0.310300,-1.752307
0.310400,-1.701997
0.310500,-1.708164
0.310600,-1.709787
0.310700,-1.731209
0.310800,-1.691286
0.310900,-1.789634
0.311000,-1.697453
0.311100,-1.773730
0.311200,-1.739324
0.311300,-1.806512
0.311400,-1.821443
0.311500,-1.902589
0.311600,-1.924336
0.311700,-1.883439
0.311800,-1.848059
0.311900,-1.555935
0.312000,-1.538732
0.312100,-1.698426
0.312200,-2.068775
0.312300,-2.035668
0.312400,-1.776002
0.312500,-1.689338
0.312600,-1.614035
0.312700,-1.693882
0.312800,-1.880842
0.312900,-1.970751
0.313000,-1.879868
0.313100,-1.705567
0.313200,-1.671161
0.313300,-1.644870
0.313400,-1.695505
0.313500,-1.669214
0.313600,-1.700049
0.313700,-1.654608
0.313800,-1.637405
0.313900,-1.602350
0.314000,-1.585796
0.314100,-1.596832
0.314200,-1.607219
0.314300,-1.634808
0.314400,-1.611114
0.314500,-1.606894
0.314600,-1.674732
0.314700,-1.543600
0.314800,-1.475438
0.314900,-1.451744
0.315000,-1.526722
0.315100,-1.816250
0.315200,-1.738350
0.315300,-1.582550
0.315400,-1.398837
0.315500,-1.460832
0.315600,-1.623123
0.315700,-1.896422
0.315800,-1.891878
0.315900,-1.783142
0.316000,-1.618579
0.316100,-1.637080
0.316200,-1.817224
0.316300,-1.959066
0.316400,-1.972374
0.316500,-1.968804
0.316600,-1.945109
0.316700,-2.017491
0.316800,-2.115515
0.316900,-2.176212
0.317000,-2.154790
0.317100,-2.137912
0.317200,-2.196986
0.317300,-2.277158
0.317400,-2.300852
0.317500,-2.273587
0.317600,-2.260279
0.317700,-2.228795
0.317800,-2.330389
0.317900,-2.437826
0.318000,-2.458275
0.318100,-2.431659
0.318200,-2.392060
0.318300,-2.359926
0.318400,-2.415106
0.318500,-2.392385
0.318600,-2.409263
0.318700,-2.404719
0.318800,-2.400499
0.318900,-2.381024
0.319000,-2.374208
0.319100,-2.337855
0.319200,-2.307669
0.319300,-2.263201
0.319400,-2.229769
0.319500,-2.138561
0.319600,-2.112919
0.319700,-2.057090
0.319800,-1.977568
0.319900,-1.998990
0.320000,-1.975295
0.320100,-2.008727
0.320200,-2.194389
0.320300,-2.308318
0.320400,-2.181730
0.320500,-1.909405
0.320600,-1.771457
0.320700,-1.793854
0.320800,-2.055143
0.320900,-2.248919
0.321000,-2.240804
0.321100,-2.113243
0.321200,-1.953873
0.321300,-1.972050
0.321400,-2.151544
0.321500,-2.304098
0.321600,-2.376480
0.321700,-2.365444
0.321800,-2.319678
0.321900,-2.317731
0.322000,-2.325196
0.322100,-2.375182
0.322200,-2.422246
0.322300,-2.424519
0.322400,-2.480347
0.322500,-2.517674
0.322600,-2.604338
0.322700,-2.629331
0.322800,-2.660166
0.322900,-2.645885
0.323000,-2.721513
0.323100,-2.758191
0.323200,-2.814668
0.323300,-2.760787
0.323400,-2.639393
0.323500,-2.677045
0.323600,-2.900034
0.323700,-3.076932
0.323800,-3.170088
0.323900,-3.011042
0.324000,-2.817589
0.324100,-2.774744
0.324200,-2.933466
0.324300,-3.171062
0.324400,-3.260322
0.324500,-3.186317
0.324600,-3.068493
0.324700,-3.024999
0.324800,-3.053237
0.324900,-3.111013
0.325000,-3.130813
0.325100,-3.129515
0.325200,-3.098030
0.325300,-3.048369
0.325400,-3.058431
0.325500,-2.990268
0.325600,-2.850697
0.325700,-2.748453
0.325800,-2.714372
0.325900,-2.722486
0.326000,-2.704959
0.326100,-2.638419
0.326200,-2.465416
0.326300,-2.378428
0.326400,-2.181081
0.326500,-2.215811
0.326600,-2.183029
0.326700,-2.148947
0.326800,-2.054169
0.326900,-1.976269
0.327000,-1.841567
0.327100,-1.818847
0.327200,-1.800670
0.327300,-1.812679
0.327400,-1.833777
0.327500,-1.837348
0.327600,-1.878245
0.327700,-1.811057
0.327800,-1.824040
0.327900,-1.779247
0.328000,-1.865911
0.328100,-1.824040
0.328200,-1.941539
0.328300,-1.908756
0.328400,-1.938293
0.328500,-1.700374
0.328600,-1.580278
0.328700,-1.504975
0.328800,-1.849357
0.328900,-1.980813
0.329000,-1.958093
0.329100,-1.750035
0.329200,-1.544574
0.329300,-1.484851
0.329400,-1.609491
0.329500,-1.756202
0.329600,-1.783792
0.329700,-1.673758
0.329800,-1.560803
0.329900,-1.482254
0.330000,-1.489720
0.330100,-1.574111
0.330200,-1.559830
0.330300,-1.546197
0.330400,-1.520231
0.330500,-1.480631
0.330600,-1.447199
0.330700,-1.440383
0.330800,-1.450770
0.330900,-1.529319
0.331000,-1.525424
0.331100,-1.541978
0.331200,-1.590340
0.331300,-1.591314
0.331400,-1.534512
0.331500,-1.502054
0.331600,-1.500756
0.331700,-1.695181
0.331800,-1.857796
0.331900,-1.761720
0.332000,-1.555935
0.332100,-1.409223
0.332200,-1.492316
0.332300,-1.660450
0.332400,-1.853577
0.332500,-1.760422
0.332600,-1.593262
0.332700,-1.443954
0.332800,-1.463429
0.332900,-1.568918
0.333000,-1.608517
0.333100,-1.518608
0.333200,-1.490369
0.333300,-1.441357
0.333400,-1.520231
0.333500,-1.518932
0.333600,-1.511142
0.333700,-1.450445
0.333800,-1.462130
0.333900,-1.541004
0.334000,-1.615982
0.334100,-1.629290
0.334200,-1.595858
0.334300,-1.594884
0.334400,-1.625071
0.334500,-1.780221
0.334600,-1.880842
0.334700,-1.922064
0.334800,-1.938942
0.334900,-1.864613
0.335000,-1.929205
0.335100,-1.970102
0.335200,-1.949653
0.335300,-1.966532
0.335400,-2.012622
0.335500,-2.014895
0.335600,-2.028852
0.335700,-2.022685
0.335800,-2.037940
0.335900,-2.046055
0.336000,-2.076565
0.336100,-2.089224
0.336200,-2.088250
0.336300,-2.095716
0.336400,-2.111620
0.336500,-2.123305
0.336600,-2.162255
0.336700,-2.236585
0.336800,-2.354409
0.336900,-2.672176
0.337000,-2.743260
0.337100,-2.616347
0.337200,-2.443020
0.337300,-2.396929
0.337400,-2.598820
0.337500,-2.884778
0.337600,-3.064922
0.337700,-3.004874
0.337800,-2.825379
0.337900,-2.802334
0.338000,-2.871795
0.338100,-3.058106
0.338200,-3.196704
0.338300,-3.280447
0.338400,-3.248962
0.338500,-3.233382
0.338600,-3.292781
0.338700,-3.340170
0.338800,-3.414175
0.338900,-3.422939
0.339000,-3.451827
0.339100,-3.470004
0.339200,-3.518367
0.339300,-3.567380
0.339400,-3.595618
0.339500,-3.581012
0.339600,-3.573547
0.339700,-3.629375
0.339800,-3.663781
0.339900,-3.699161
0.340000,-3.576468
0.340100,-3.473574
0.340200,-3.538816
0.340300,-3.750770
0.340400,-3.899106
0.340500,-3.916633
0.340600,-3.729997
0.340700,-3.570625
0.340800,-3.614769
0.340900,-3.837759
0.341000,-4.035107
0.341100,-4.099051
0.341200,-4.026993
0.341300,-3.916633
0.341400,-3.928968
0.341500,-3.952987
0.341600,-3.976033
0.341700,-3.940004
0.341800,-3.897158
0.341900,-3.885473
0.342000,-3.838733
0.342100,-3.813415
0.342200,-3.739410
0.342300,-3.600163
0.342400,-3.493050
0.342500,-3.469679
0.342600,-3.444686
0.342700,-3.432352
0.342800,-3.296027
0.342900,-3.172684
0.343000,-2.964951
0.343100,-2.882182
0.343200,-2.899709
0.343300,-2.853618
0.343400,-2.822458
0.343500,-2.715021
0.343600,-2.648157
0.343700,-2.541693
0.343800,-2.547536
0.343900,-2.586161
0.344000,-2.610830
0.344100,-2.646209
0.344200,-2.678343
0.344300,-2.697818
0.344400,-2.663087
0.344500,-2.678992
0.344600,-2.673150
0.344700,-2.697493
0.344800,-2.676395
0.344900,-2.726706
0.345000,-2.683212
0.345100,-2.554027
0.345200,-2.302800
0.345300,-2.020088
0.345400,-2.159659
0.345500,-2.330389
0.345600,-2.468337
0.345700,-2.226198
0.345800,-2.041186
0.345900,-1.751658
0.346000,-1.662398
0.346100,-1.800345
0.346200,-1.806837
0.346300,-1.765615
0.346400,-1.636431
0.346500,-1.409872
0.346600,-1.316393
0.346700,-1.265433
0.346800,-1.217071
0.346900,-1.151180
0.347000,-1.111581
0.347100,-1.022646
0.347200,-0.939228
0.347300,-0.879181
0.347400,-0.867171
0.347500,-0.825949
0.347600,-0.925596
0.347700,-0.921376
0.347800,-1.003496
0.347900,-1.049586
0.348000,-1.132355
0.348100,-1.049911
0.348200,-1.142741
0.348300,-1.207982
0.348400,-1.590340
0.348500,-1.665968
0.348600,-1.626694
0.348700,-1.453691
0.348800,-1.466350
0.348900,-1.663371
0.349000,-1.951601
0.349100,-2.107076
0.349200,-2.040861
0.349300,-1.919792
0.349400,-1.906159
0.349500,-2.026580
0.349600,-2.190494
0.349700,-2.293062
0.349800,-2.267096
0.349900,-2.343697
0.350000,-2.385569
0.350100,-2.507937
0.350200,-2.564739
0.350300,-2.564739
0.350400,-2.566037
0.350500,-2.620242
0.350600,-2.674773
0.350700,-2.683212
0.350800,-2.633226
0.350900,-2.590381
0.351000,-2.525139
0.351100,-2.541044
0.351200,-2.623164
0.351300,-2.632252
0.351400,-2.600443
0.351500,-2.570581
0.351600,-2.487812
0.351700,-2.547536
0.351800,-2.546887
0.351900,-2.585837
0.352000,-2.584863
0.352100,-2.597197
0.352200,-2.611803
0.352300,-2.634524
0.352400,-2.643612
0.352500,-2.641016
0.352600,-2.691002
0.352700,-2.675097
0.352800,-2.706582
0.352900,-2.729303
0.353000,-2.798114
0.353100,-2.807852
0.353200,-2.907175
0.353300,-2.978908
0.353400,-3.098355
0.353500,-3.353154
0.353600,-3.601786
0.353700,-3.723180
0.353800,-3.555695
0.353900,-3.454424
0.354000,-3.447608
0.354100,-3.755964
0.354200,-4.046143
0.354300,-4.162994
0.354400,-4.155529
0.354500,-4.010114
0.354600,-3.995832
0.354700,-4.066267
0.354800,-4.228236
0.354900,-4.245764
0.355000,-4.248360
0.355100,-4.169161
0.355200,-4.130860
0.355300,-4.058153
0.355400,-4.030238
0.355500,-3.977331
0.355600,-3.877683
0.355700,-3.794265
0.355800,-3.694942
0.355900,-3.648526
0.356000,-3.579389
0.356100,-3.531026
0.356200,-3.426185
0.356300,-3.341468
0.356400,-3.313230
0.356500,-3.242795
0.356600,-3.156131
0.356700,-2.887375
0.356800,-2.749427
0.356900,-2.815317
0.357000,-2.950020
0.357100,-2.980206
0.357200,-2.890621
0.357300,-2.623813
0.357400,-2.515727
0.357500,-2.619269
0.357600,-2.869523
0.357700,-3.000979
0.357800,-3.008445
0.357900,-2.948072
0.358000,-2.919509
0.358100,-2.995786
0.358200,-3.086020
0.358300,-3.155157
0.358400,-3.205143
0.358500,-3.217477
0.358600,-3.281420
0.358700,-3.302194
0.358800,-3.293105
0.358900,-3.250585
0.359000,-3.180475
0.359100,-3.166517
0.359200,-3.189238
0.359300,-3.203520
0.359400,-3.215205
0.359500,-3.079853
0.359600,-3.018507
0.359700,-2.811098
0.359800,-2.803632
0.359900,-2.793570
0.360000,-2.754945
0.360100,-2.678018
0.360200,-2.545913
0.360300,-2.403421
0.360400,-2.371936
0.360500,-2.314160
0.360600,-2.271640
0.360700,-2.249893
0.360800,-2.146675
0.360900,-2.189520
0.361000,-2.051897
0.361100,-2.018790
0.361200,-1.892527
0.361300,-1.860718
0.361400,-1.794178
0.361500,-1.745166
0.361600,-1.769835
0.361700,-1.590989
0.361800,-1.372546
0.361900,-1.135925
0.362000,-0.946694
0.362100,-1.131056
0.362200,-1.399810
0.362300,-1.414741
0.362400,-1.120670
0.362500,-0.942799
0.362600,-0.792842
0.362700,-0.845424
0.362800,-0.915534
0.362900,-1.078474
0.363000,-0.997004
0.363100,-0.848670
0.363200,-0.739935
0.363300,-0.766226
0.363400,-0.722083
0.363500,-0.771419
0.363600,-0.825300
0.363700,-0.836011
0.363800,-0.834388
0.363900,-0.867496
0.364000,-0.864899
0.364100,-0.881128
0.364200,-0.892488
0.364300,-0.981749
0.364400,-1.120020
0.364500,-1.102493
0.364600,-1.237844
0.364700,-1.134302
0.364800,-1.195973
0.364900,-1.112231
0.365000,-1.321911
0.365100,-1.585472
0.365200,-1.560154
0.365300,-1.427400
0.365400,-1.231352
0.365500,-1.285882
0.365600,-1.442006
0.365700,-1.720823
0.365800,-1.714331
0.365900,-1.595209
0.366000,-1.368326
0.366100,-1.364756
0.366200,-1.535486
0.366300,-1.633834
0.366400,-1.606894
0.366500,-1.571190
0.366600,-1.567295
0.366700,-1.617281
0.366800,-1.698102
0.366900,-1.740298
0.367000,-1.735429
0.367100,-1.681873
0.367200,-1.732832
0.367300,-1.790283
0.367400,-1.837348
0.367500,-1.823715
0.367600,-1.842216
0.367700,-1.816899
0.367800,-1.897720
0.367900,-2.046704
0.368000,-2.059687
0.368100,-2.070398
0.368200,-1.992823
0.368300,-2.035992
0.368400,-2.092145
0.368500,-2.094417
0.368600,-2.128823
0.368700,-2.136613
0.368800,-2.144079
0.368900,-2.170370
0.369000,-2.196012
0.369100,-2.224900
0.369200,-2.240155
0.369300,-2.283000
0.369400,-2.297606
0.369500,-2.324547
0.369600,-2.368690
0.369700,-2.404070
0.369800,-2.448538
0.369900,-2.517674
0.370000,-2.612128
0.370100,-2.692625
0.370200,-2.965275
0.370300,-3.169763
0.370400,-3.143796
0.370500,-2.997409
0.370600,-2.873418
0.370700,-2.991242
0.370800,-3.244742
0.370900,-3.509279
0.371000,-3.526482
0.371100,-3.429756
0.371200,-3.345363
0.371300,-3.368084
0.371400,-3.549852
0.371500,-3.725128
0.371600,-3.832241
0.371700,-3.795238
0.371800,-3.785501
0.371900,-3.801081
0.372000,-3.850093
0.372100,-3.924423
0.372200,-3.958180
0.372300,-3.925397
0.372400,-3.941951
0.372500,-3.972462
0.372600,-4.027642
0.372700,-4.072110
0.372800,-4.070812
0.372900,-4.057828
0.373000,-4.074707
0.373100,-4.107165
0.373200,-4.136378
0.373300,-4.067566
0.373400,-3.946171
0.373500,-3.913063
0.373600,-4.078926
0.373700,-4.260370
0.373800,-4.284065
0.373900,-4.114631
0.374000,-3.867621
0.374100,-3.812441
0.374200,-3.954935
0.374300,-4.152607
0.374400,-4.219472
0.374500,-4.113008
0.374600,-3.971164
0.374700,-3.878657
0.374800,-3.880929
0.374900,-3.904948
0.375000,-3.905598
0.375100,-3.855287
0.375200,-3.814714
0.375300,-3.744279
0.375400,-3.719935
0.375500,-3.655018
0.375600,-3.550501
0.375700,-3.422939
0.375800,-3.370681
0.375900,-3.369058
0.376000,-3.325239
0.376100,-3.264217
0.376200,-3.069467
0.376300,-2.945151
0.376400,-2.783508
0.376500,-2.806878
0.376600,-2.810773
0.376700,-2.778315
0.376800,-2.699116
0.376900,-2.642314
0.377000,-2.517674
0.377100,-2.457626
0.377200,-2.479698
0.377300,-2.462495
0.377400,-2.483268
0.377500,-2.454056
0.377600,-2.473206
0.377700,-2.422571
0.377800,-2.364146
0.377900,-2.362848
0.378000,-2.348891
0.378100,-2.344671
0.378200,-2.405693
0.378300,-2.322924
0.378400,-2.424843
0.378500,-2.099286
0.378600,-1.921739
0.378700,-1.849357
0.378800,-2.208022
0.378900,-2.417702
0.379000,-2.305721
0.379100,-2.145052
0.379200,-1.929854
0.379300,-1.860069
0.379400,-1.991200
0.379500,-2.196337
0.379600,-2.267420
0.379700,-2.086627
0.379800,-1.982112
0.379900,-1.854551
0.380000,-1.859744
0.380100,-1.943162
0.380200,-1.995744
0.380300,-2.020412
0.380400,-1.959715
0.380500,-1.938618
0.380600,-1.939267
0.380700,-1.913949
0.380800,-1.930828
0.380900,-2.011324
0.381000,-2.120709
0.381100,-2.040537
0.381200,-2.136613
0.381300,-2.093119
0.381400,-2.083706
0.381500,-1.989253
0.381600,-1.994446
0.381700,-2.217434
0.381800,-2.349864
0.381900,-2.280728
0.382000,-2.036642
0.382100,-1.887983
0.382200,-1.902913
0.382300,-2.059687
0.382400,-2.184327
0.382500,-2.068451
0.382600,-1.832479
0.382700,-1.596507
0.382800,-1.532565
0.382900,-1.613386
0.383000,-1.668240
0.383100,-1.541978
0.383200,-1.486149
0.383300,-1.401433
0.383400,-1.474140
0.383500,-1.498159
0.383600,-1.520231
0.383700,-1.524125
0.383800,-1.524775
0.383900,-1.592612
0.384000,-1.670512
0.384100,-1.730560
0.384200,-1.740298
0.384300,-1.783142
0.384400,-1.823391
0.384500,-2.003859
0.384600,-2.138236
0.384700,-2.209969
0.384800,-2.257034
0.384900,-2.180757
0.385000,-2.308642
0.385100,-2.378428
0.385200,-2.385569
0.385300,-2.397578
0.385400,-2.434581
0.385500,-2.426141
0.385600,-2.445292
0.385700,-2.440748
0.385800,-2.456977
0.385900,-2.465091
0.386000,-2.482294
0.386100,-2.468986
0.386200,-2.489435
0.386300,-2.470609
0.386400,-2.541369
0.386500,-2.535851
0.386600,-2.638744
0.386700,-2.647183
0.386800,-2.765981
0.386900,-3.061677
0.387000,-3.178852
0.387100,-3.071739
0.387200,-2.862382
0.387300,-2.837714
0.387400,-2.973065
0.387500,-3.267139
0.387600,-3.513174
0.387700,-3.472601
0.387800,-3.354776
0.387900,-3.232408
0.388000,-3.329134
0.388100,-3.464486
0.388200,-3.596268
0.388300,-3.605681
0.388400,-3.615743
0.388500,-3.574196
0.388600,-3.598540
0.388700,-3.619313
0.388800,-3.684879
0.388900,-3.691047
0.389000,-3.713443
0.389100,-3.727075
0.389200,-3.754016
0.389300,-3.693643
0.389400,-3.757587
0.389500,-3.699810
0.389600,-3.656640
0.389700,-3.659562
0.389800,-3.623208
0.389900,-3.560888
0.390000,-3.411254
0.390100,-3.222995
0.390200,-3.253831
0.390300,-3.392428
0.390400,-3.497918
0.390500,-3.483637
0.390600,-3.261945
0.390700,-3.060054
0.390800,-3.066221
0.390900,-3.220398
0.391000,-3.413851
0.391100,-3.465460
0.391200,-3.367435
0.391300,-3.227864
0.391400,-3.181773
0.391500,-3.199950
0.391600,-3.236952
0.391700,-3.242795
0.391800,-3.192809
0.391900,-3.185668
0.392000,-3.137629
0.392100,-3.102250
0.392200,-3.055185
0.392300,-2.934115
0.392400,-2.871795
0.392500,-2.867575
0.392600,-2.868549
0.392700,-2.873093
0.392800,-2.769551
0.392900,-2.663737
0.393000,-2.503068
0.393100,-2.468986
0.393200,-2.522543
0.393300,-2.535526
0.393400,-2.521569
0.393500,-2.446590
0.393600,-2.399201
0.393700,-2.319029
0.393800,-2.314160
0.393900,-2.332661
0.394000,-2.327793
0.394100,-2.374857
0.394200,-2.343697
0.394300,-2.358628
0.394400,-2.282026
0.394500,-2.266771
0.394600,-2.262551
0.394700,-2.333960
0.394800,-2.413158
0.394900,-2.438800
0.395000,-2.448538
0.395100,-2.376156
0.395200,-2.135639
0.395300,-1.975945
0.395400,-2.026580
0.395500,-2.446915
0.395600,-2.455029
0.395700,-2.423869
0.395800,-2.133043
0.395900,-2.050599
0.396000,-2.000938
0.396100,-2.189845
0.396200,-2.330065
0.396300,-2.306370
0.396400,-2.202504
0.396500,-2.057415
0.396600,-2.049300
0.396700,-2.070723
0.396800,-2.131420
0.396900,-2.129148
0.397000,-2.119410
0.397100,-2.066828
0.397200,-2.011649
0.397300,-1.978541
0.397400,-1.927906
0.397500,-1.969778
0.397600,-1.904536
0.397700,-1.980813
0.397800,-1.860069
0.397900,-1.907458
0.398000,-1.849682
0.398100,-1.729911
0.398200,-1.693882
0.398300,-1.690636
0.398400,-1.966532
0.398500,-2.004508
0.398600,-1.867209
0.398700,-1.632861
0.398800,-1.568918
0.398900,-1.666942
0.399000,-1.923038
0.399100,-2.048976
0.399200,-1.942837
0.399300,-1.724393
0.399400,-1.632536
0.399500,-1.725367
0.399600,-1.835076
0.399700,-1.862665
0.399800,-1.815925
0.399900,-1.801968
0.400000,-1.788660
0.400100,-1.889930
0.400200,-1.935047
0.400300,-1.950303
0.400400,-1.936670
0.400500,-1.973348
0.400600,-2.056117
0.400700,-2.126227
0.400800,-2.166799
0.400900,-2.177835
0.401000,-2.203802
0.401100,-2.265797
0.401200,-2.451459
0.401300,-2.541693
0.401400,-2.526113
0.401500,-2.520595
0.401600,-2.474504
0.401700,-2.563765
0.401800,-2.571555
0.401900,-2.586161
0.402000,-2.564089
0.402100,-2.590056
0.402200,-2.594925
0.402300,-2.601092
0.402400,-2.618944
0.402500,-2.622515
0.402600,-2.652701
0.402700,-2.656920
0.402800,-2.671851
0.402900,-2.675097
0.403000,-2.709178
0.403100,-2.711126
0.403200,-2.746830
0.403300,-2.822783
0.403400,-2.848425
0.403500,-3.067195
0.403600,-3.284342
0.403700,-3.352829
0.403800,-3.167491
0.403900,-2.970793
0.404000,-2.948397
0.404100,-3.148990
0.404200,-3.402166
0.404300,-3.467083
0.404400,-3.344065
0.404500,-3.197353
0.404600,-3.138279
0.404700,-3.235978
0.404800,-3.425211
0.404900,-3.530377
0.405000,-3.532974
0.405100,-3.520964
0.405200,-3.496620
0.405300,-3.555695
0.405400,-3.618015
0.405500,-3.709223
0.405600,-3.746551
0.405700,-3.794914
0.405800,-3.866323
0.405900,-3.955259
0.406000,-4.063346
0.406100,-4.092884
0.406200,-4.120798
0.406300,-4.162994
0.406400,-4.216226
0.406500,-4.271731
0.406600,-4.286661
0.406700,-4.153581
0.406800,-4.055556
0.406900,-4.202594
0.407000,-4.419093
0.407100,-4.503810
0.407200,-4.422988
0.407300,-4.186040
0.407400,-4.033809
0.407500,-4.079900
0.407600,-4.298347
0.407700,-4.426234
0.407800,-4.386634
0.407900,-4.202918
0.408000,-4.056205
0.408100,-4.026343
0.408200,-3.993560
0.408300,-3.969541
0.408400,-3.875086
0.408500,-3.777711
0.408600,-3.705977
0.408700,-3.634244
0.408800,-3.535570
0.408900,-3.390481
0.409000,-3.207415
0.409100,-3.112636
0.409200,-3.046421
0.409300,-3.035710
0.409400,-3.061677
0.409500,-2.927623
0.409600,-2.848425
0.409700,-2.657894
0.409800,-2.697493
0.409900,-2.761112
0.410000,-2.779938
0.410100,-2.762086
0.410200,-2.691002
0.410300,-2.604662
0.410400,-2.578696
0.410500,-2.565388
0.410600,-2.574152
0.410700,-2.607259
0.410800,-2.565712
0.410900,-2.639717
0.411000,-2.470285
0.411100,-2.480672
0.411200,-2.375182
0.411300,-2.396604
0.411400,-2.393359
0.411500,-2.337530
0.411600,-2.417053
0.411700,-2.271315
0.411800,-2.174265
0.411900,-1.819820
0.412000,-1.708813
0.412100,-1.882789
0.412200,-2.134341
0.412300,-2.105453
0.412400,-1.886684
0.412500,-1.670837
0.412600,-1.516336
0.412700,-1.634808
0.412800,-1.768536
0.412900,-1.957443
0.413000,-1.869157
0.413100,-1.791906
0.413200,-1.624746
0.413300,-1.614035
0.413400,-1.695505
0.413500,-1.775352
0.413600,-1.837023
0.413700,-1.859744
0.413800,-1.852603
0.413900,-1.850980
0.414000,-1.862016
0.414100,-1.907133
0.414200,-1.969778
0.414300,-2.128174
0.414400,-2.097339
0.414500,-2.181406
0.414600,-2.276833
0.414700,-2.245998
0.414800,-2.230418
0.414900,-2.258332
0.415000,-2.368366
0.415100,-2.687431
0.415200,-2.707880
0.415300,-2.577722
0.415400,-2.407316
0.415500,-2.454056
0.415600,-2.665360
0.415700,-2.943528
0.415800,-2.960082
0.415900,-2.852969
0.416000,-2.633550
0.416100,-2.609531
0.416200,-2.724758
0.416300,-2.812721
0.416400,-2.774744
0.416500,-2.706257
0.416600,-2.690353
0.416700,-2.722486
0.416800,-2.739365
0.416900,-2.732224
0.417000,-2.668930
0.417100,-2.597197
0.417200,-2.587784
0.417300,-2.638095
0.417400,-2.590705
0.417500,-2.529034
0.417600,-2.468986
0.417700,-2.405693
0.417800,-2.451784
0.417900,-2.520595
0.418000,-2.492357
0.418100,-2.466390
0.418200,-2.282351
0.418300,-2.264174
0.418400,-2.219382
0.418500,-2.149272
0.418600,-2.083382
0.418700,-2.013272
0.418800,-1.958742
0.418900,-1.896746
0.419000,-1.844164
0.419100,-1.852928
0.419200,-1.806188
0.419300,-1.794827
0.419400,-1.768861
0.419500,-1.765290
0.419600,-1.748412
0.419700,-1.739973
0.419800,-1.794503
0.419900,-1.792555
0.420000,-1.880517
0.420100,-1.929854
0.420200,-2.214838
0.420300,-2.464442
0.420400,-2.431984
0.420500,-2.239831
0.420600,-2.142131
0.420700,-2.204451
0.420800,-2.406342
0.420900,-2.704310
0.421000,-2.729952
0.421100,-2.601741
0.421200,-2.453731
0.421300,-2.423220
0.421400,-2.529359
0.421500,-2.627383
0.421600,-2.730926
0.421700,-2.679641
0.421800,-2.711775
0.421900,-2.694572
0.422000,-2.766954
0.422100,-2.865628
0.422200,-2.898411
0.422300,-2.921132
0.422400,-2.968846
0.422500,-3.021753
0.422600,-3.104846
0.422700,-3.168140
0.422800,-3.160675
0.422900,-3.193133
0.423000,-3.168140
0.423100,-3.269086
0.423200,-3.302194
0.423300,-3.242795
0.423400,-3.087319
0.423500,-3.096083
0.423600,-3.293105
0.423700,-3.489479
0.423800,-3.558616
0.423900,-3.373278
0.424000,-3.135682
0.424100,-3.112636
0.424200,-3.241172
0.424300,-3.489804
0.424400,-3.587828
0.424500,-3.538491
0.424600,-3.436247
0.424700,-3.385937
0.424800,-3.448257
0.424900,-3.501164
0.425000,-3.503112
0.425100,-3.510253
0.425200,-3.479417
0.425300,-3.463837
0.425400,-3.449880
0.425500,-3.377173
0.425600,-3.259998
0.425700,-3.135357
0.425800,-3.099653
0.425900,-3.048693
0.426000,-2.999681
0.426100,-2.980206
0.426200,-2.824081
0.426300,-2.794544
0.426400,-2.719240
0.426500,-2.633550
0.426600,-2.641016
0.426700,-2.628357
0.426800,-2.525789
0.426900,-2.462170
0.427000,-2.348566
0.427100,-2.362523
0.427200,-2.324547
0.427300,-2.347917
0.427400,-2.331363
0.427500,-2.321950
0.427600,-2.370638
0.427700,-2.278131
0.427800,-2.323898
0.427900,-2.228146
0.428000,-2.353435
0.428100,-2.280079
0.428200,-2.388165
0.428300,-2.369989
0.428400,-2.322275
0.428500,-2.109673
0.428600,-1.936346
0.428700,-1.944135
0.428800,-2.153816
0.428900,-2.461521
0.429000,-2.393359
0.429100,-2.125902
0.429200,-1.996718
0.429300,-1.900966
0.429400,-2.027553
0.429500,-2.203802
0.429600,-2.235936
0.429700,-2.140833
0.429800,-1.929854
0.429900,-1.885061
0.430000,-1.815276
0.430100,-1.896097
0.430200,-1.881491
0.430300,-1.908431
0.430400,-1.887983
0.430500,-1.836699
0.430600,-1.863639
0.430700,-1.831181
0.430800,-1.907782
0.430900,-1.945758
0.431000,-1.986980
0.431100,-2.015219
0.431200,-2.104479
0.431300,-2.132069
0.431400,-2.074618
0.431500,-2.046379
0.431600,-2.000938
0.431700,-2.153816
0.431800,-2.363497
0.431900,-2.277158
0.432000,-2.109997
0.432100,-1.903563
0.432200,-1.949653
0.432300,-2.140508
0.432400,-2.360576
0.432500,-2.281377
0.432600,-2.143429
0.432700,-1.999315
0.432800,-2.032422
0.432900,-2.160957
0.433000,-2.248594
0.433100,-2.191468
0.433200,-2.185625
0.433300,-2.143429
0.433400,-2.238208
0.433500,-2.249568
0.433600,-2.281702
0.433700,-2.259630
0.433800,-2.234313
0.433900,-2.258656
0.434000,-2.313186
0.434100,-2.331363
0.434200,-2.286246
0.434300,-2.257683
0.434400,-2.217434
0.434500,-2.315459
0.434600,-2.403745
0.434700,-2.376480
0.434800,-2.370962
0.434900,-2.203802
0.435000,-2.264824
0.435100,-2.276833
0.435200,-2.247945
0.435300,-2.246647
0.435400,-2.255411
0.435500,-2.221329
0.435600,-2.208346
0.435700,-2.209969
0.435800,-2.191792
0.435900,-2.201205
0.436000,-2.206723
0.436100,-2.212890
0.436200,-2.210618
0.436300,-2.223601
0.436400,-2.200556
0.436500,-2.217434
0.436600,-2.258656
0.436700,-2.297606
0.436800,-2.407965
0.436900,-2.640691
0.437000,-2.744233
0.437100,-2.651402
0.437200,-2.390113
0.437300,-2.297606
0.437400,-2.460547
0.437500,-2.687756
0.437600,-2.911070
0.437700,-2.888349
0.437800,-2.749427
0.437900,-2.630629
0.438000,-2.666982
0.438100,-2.834143
0.438200,-2.974363
0.438300,-3.007796
0.438400,-2.979881
0.438500,-2.963652
0.438600,-3.016884
0.438700,-3.099978
0.438800,-3.187291
0.438900,-3.222671
0.439000,-3.227539
0.439100,-3.294404
0.439200,-3.376524
0.439300,-3.418720
0.439400,-3.524534
0.439500,-3.523561
0.439600,-3.569652
0.439700,-3.574845
0.439800,-3.669948
0.439900,-3.666703
0.440000,-3.559265
0.440100,-3.476171
0.440200,-3.553422
0.440300,-3.767973
0.440400,-3.951040
0.440500,-4.019203
0.440600,-3.870867
0.440700,-3.721233
0.440800,-3.778035
0.440900,-4.004921
0.441000,-4.187663
0.441100,-4.289583
0.441200,-4.255826
0.441300,-4.195453
0.441400,-4.150335
0.441500,-4.177601
0.441600,-4.248036
0.441700,-4.313278
0.441800,-4.306786
0.441900,-4.260370
0.442000,-4.192856
0.442100,-4.175328
0.442200,-4.123395
0.442300,-4.001350
0.442400,-3.890017
0.442500,-3.814064
0.442600,-3.836136
0.442700,-3.858533
0.442800,-3.796212
0.442900,-3.654044
0.443000,-3.597241
0.443100,-3.394376
0.443200,-3.351531
0.443300,-3.306413
0.443400,-3.204494
0.443500,-3.071414
0.443600,-2.949695
0.443700,-2.780587
0.443800,-2.721837
0.443900,-2.654648
0.444000,-2.612777
0.444100,-2.606610
0.444200,-2.573502
0.444300,-2.553378
0.444400,-2.439125
0.444500,-2.430686
0.444600,-2.359926
0.444700,-2.415430
0.444800,-2.382972
0.444900,-2.426141
0.445000,-2.319029
0.445100,-2.226847
0.445200,-1.974322
0.445300,-1.727963
0.445400,-1.826312
0.445500,-2.080460
0.445600,-2.288843
0.445700,-2.048327
0.445800,-1.887009
0.445900,-1.601701
0.446000,-1.631887
0.446100,-1.750035
0.446200,-1.816250
0.446300,-1.813653
0.446400,-1.658503
0.446500,-1.477710
0.446600,-1.365729
0.446700,-1.413443
0.446800,-1.419285
0.446900,-1.412794
0.447000,-1.413443
0.447100,-1.367028
0.447200,-1.325156
0.447300,-1.334245
0.447400,-1.344631
0.447500,-1.314121
0.447600,-1.421233
0.447700,-1.390398
0.447800,-1.449796
0.447900,-1.494588
0.448000,-1.561128
0.448100,-1.472192
0.448200,-1.562102
0.448300,-1.497185
0.448400,-1.861691
0.448500,-1.860718
0.448600,-1.835400
0.448700,-1.648441
0.448800,-1.576383
0.448900,-1.692584
0.449000,-1.921415
0.449100,-2.034370
0.449200,-1.969778
0.449300,-1.810732
0.449400,-1.742245
0.449500,-1.799696
0.449600,-1.937319
0.449700,-1.989577
0.449800,-1.953224
0.449900,-1.991849
0.450000,-1.956145
0.450100,-2.084355
0.450200,-2.119086
0.450300,-2.157062
0.450400,-2.117463
0.450500,-2.107725
0.450600,-2.152842
0.450700,-2.169072
0.450800,-2.156737
0.450900,-2.100909
0.451000,-2.052871
0.451100,-2.041186
0.451200,-2.155439
0.451300,-2.188547
0.451400,-2.165826
0.451500,-2.074618
0.451600,-2.012947
0.451700,-2.076241
0.451800,-2.073320
0.451900,-2.067152
0.452000,-2.052222
0.452100,-2.063907
0.452200,-2.048327
0.452300,-2.048651
0.452400,-2.038914
0.452500,-2.026580
0.452600,-2.026904
0.452700,-2.051248
0.452800,-2.052871
0.452900,-2.073320
0.453000,-2.100909
0.453100,-2.091172
0.453200,-2.139534
0.453300,-2.192442
0.453400,-2.223277
0.453500,-2.387516
0.453600,-2.662114
0.453700,-2.747804
0.453800,-2.559870
0.453900,-2.368366
0.454000,-2.337530
0.454100,-2.559545
0.454200,-2.849399
0.454300,-2.973065
0.454400,-2.872444
0.454500,-2.707231
0.454600,-2.677369
0.454700,-2.759489
0.454800,-2.963977
0.454900,-3.064922
0.455000,-3.074985
0.455100,-2.988321
0.455200,-3.020130
0.455300,-3.051939
0.455400,-3.141524
0.455500,-3.157429
0.455600,-3.169114
0.455700,-3.156780
0.455800,-3.232733
0.455900,-3.311282
0.456000,-3.339521
0.456100,-3.346986
0.456200,-3.303492
0.456300,-3.341468
0.456400,-3.402166
0.456500,-3.447932
0.456600,-3.423913
0.456700,-3.284666
0.456800,-3.223644
0.456900,-3.321020
0.457000,-3.510577
0.457100,-3.679037
0.457200,-3.589451
0.457300,-3.384638
0.457400,-3.274604
0.457500,-3.345039
0.457600,-3.516095
0.457700,-3.682283
0.457800,-3.697863
0.457900,-3.584907
0.458000,-3.453450
0.458100,-3.432352
0.458200,-3.483637
0.458300,-3.529403
0.458400,-3.507656
0.458500,-3.457345
0.458600,-3.430405
0.458700,-3.406710
0.458800,-3.353803
0.458900,-3.236952
0.459000,-3.123997
0.459100,-3.099978
0.459200,-3.107118
0.459300,-3.129839
0.459400,-3.139577
0.459500,-3.028244
0.459600,-2.935413
0.459700,-2.929895
0.459800,-2.782210
0.459900,-2.816940
0.460000,-2.808176
0.460100,-2.764033
0.460200,-2.677045
0.460300,-2.584863
0.460400,-2.564089
0.460500,-2.541044
0.460600,-2.577073
0.460700,-2.528061
0.460800,-2.600443
0.460900,-2.543641
0.461000,-2.572204
0.461100,-2.470934
0.461200,-2.514428
0.461300,-2.468986
0.461400,-2.509235
0.461500,-2.566037
0.461600,-2.560519
0.461700,-2.530008
0.461800,-2.394657
0.461900,-2.218408
0.462000,-1.975945
0.462100,-2.171019
0.462200,-2.584538
0.462300,-2.451134
0.462400,-2.407965
0.462500,-2.039238
0.462600,-2.038265
0.462700,-1.949978
0.462800,-2.240480
0.462900,-2.315459
0.463000,-2.192766
0.463100,-2.041510
0.463200,-1.863964
0.463300,-1.829558
0.463400,-1.867534
0.463500,-1.948355
0.463600,-1.896097
0.463700,-1.904861
0.463800,-1.882465
0.463900,-1.848059
0.464000,-1.884737
0.464100,-1.876622
0.464200,-1.934723
0.464300,-1.869157
0.464400,-2.073969
0.464500,-2.019114
0.464600,-2.185625
0.464700,-2.137912
0.464800,-2.079811
0.464900,-2.054169
0.465000,-2.174589
0.465100,-2.431659
0.465200,-2.396280
0.465300,-2.344022
0.465400,-2.088900
0.465500,-2.125902
0.465600,-2.254761
0.465700,-2.547536
0.465800,-2.581292
0.465900,-2.484242
0.466000,-2.263201
0.466100,-2.189196
0.466200,-2.314160
0.466300,-2.446266
0.466400,-2.498199
0.466500,-2.444643
0.466600,-2.429063
0.466700,-2.432633
0.466800,-2.497550
0.466900,-2.530657
0.467000,-2.540719
0.467100,-2.489435
0.467200,-2.475803
0.467300,-2.480022
0.467400,-2.459898
0.467500,-2.401149
0.467600,-2.316757
0.467700,-2.266122
0.467800,-2.302151
0.467900,-2.396929
0.468000,-2.374857
0.468100,-2.334284
0.468200,-2.177511
0.468300,-2.202179
0.468400,-2.225874
0.468500,-2.185301
0.468600,-2.184976
0.468700,-2.158685
0.468800,-2.163229
0.468900,-2.175563
0.469000,-2.158360
0.469100,-2.176212
0.469200,-2.183029
0.469300,-2.176862
0.469400,-2.188871
0.469500,-2.177835
0.469600,-2.195687
0.469700,-2.194064
0.469800,-2.217110
0.469900,-2.193415
0.470000,-2.249893
0.470100,-2.252814
0.470200,-2.445616
0.470300,-2.703985
0.470400,-2.653025
0.470500,-2.418676
0.470600,-2.235611
0.470700,-2.268069
0.470800,-2.516700
0.470900,-2.752023
0.471000,-2.719890
0.471100,-2.554677
0.471200,-2.372261
0.471300,-2.320003
0.471400,-2.498199
0.471500,-2.623164
0.471600,-2.715670
0.471700,-2.654324
0.471800,-2.592004
0.471900,-2.508261
0.472000,-2.551431
0.472100,-2.596872
0.472200,-2.594276
0.472300,-2.617321
0.472400,-2.624462
0.472500,-2.673799
0.472600,-2.723460
0.472700,-2.785780
0.472800,-2.741637
0.472900,-2.746506
0.473000,-2.762086
0.473100,-2.820186
0.473200,-2.890621
0.473300,-2.818563
0.473400,-2.714696
0.473500,-2.736768
0.473600,-2.861408
0.473700,-3.064922
0.473800,-3.221372
0.473900,-3.129839
0.474000,-2.948397
0.474100,-2.916263
0.474200,-3.058106
0.474300,-3.293755
0.474400,-3.447932
0.474500,-3.486233
0.474600,-3.406385
0.474700,-3.345039
0.474800,-3.369058
0.474900,-3.453450
0.475000,-3.518692
0.475100,-3.537193
0.475200,-3.555695
0.475300,-3.536219
0.475400,-3.517393
0.475500,-3.437546
0.475600,-3.337249
0.475700,-3.276552
0.475800,-3.280122
0.475900,-3.304141
0.476000,-3.316475
0.476100,-3.301220
0.476200,-3.160026
0.476300,-3.121725
0.476400,-3.068818
0.476500,-2.991891
0.476600,-2.998707
0.476700,-2.994488
0.476800,-2.932168
0.476900,-2.865952
0.477000,-2.730926
0.477100,-2.728653
0.477200,-2.673474
0.477300,-2.703660
0.477400,-2.693598
0.477500,-2.691975
0.477600,-2.693274
0.477700,-2.593302
0.477800,-2.560844
0.477900,-2.506638
0.478000,-2.451784
0.478100,-2.516051
0.478200,-2.436853
0.478300,-2.487163
0.478400,-2.282676
0.478500,-2.203153
0.478600,-1.767887
0.478700,-1.795477
0.478800,-1.980489
0.478900,-2.247296
0.479000,-2.140833
0.479100,-1.870780
0.479200,-1.593911
0.479300,-1.552364
0.479400,-1.581252
0.479500,-1.781520
0.479600,-1.778598
0.479700,-1.676679
0.479800,-1.412794
0.479900,-1.306331
0.480000,-1.295619
0.480100,-1.229729
0.480200,-1.268679
0.480300,-1.210904
0.480400,-1.191429
0.480500,-1.105090
0.480600,-1.046665
0.480700,-1.037577
0.480800,-0.986942
0.480900,-1.022970
0.481000,-0.978178
0.481100,-1.075228
0.481200,-1.006741
0.481300,-1.042445
0.481400,-0.957729
0.481500,-0.847372
0.481600,-0.883400
0.481700,-0.982398
0.481800,-1.203438
0.481900,-1.104765
0.482000,-0.968116
0.482100,-0.749672
0.482200,-0.781806
0.482300,-0.985968
0.482400,-1.158646
0.482500,-1.146312
0.482600,-1.011935
0.482700,-0.847696
0.482800,-0.879181
0.482900,-0.997004
0.483000,-1.098598
0.483100,-1.089510
0.483200,-1.101519
0.483300,-1.093405
0.483400,-1.158970
0.483500,-1.214799
0.483600,-1.256020
0.483700,-1.268030
0.483800,-1.282312
0.483900,-1.340412
0.484000,-1.398837
0.484100,-1.447849
0.484200,-1.439409
0.484300,-1.449796
0.484400,-1.463429
0.484500,-1.628641
0.484600,-1.775028
0.484700,-1.805863
0.484800,-1.837672
0.484900,-1.786388
0.485000,-1.907458
0.485100,-1.985358
0.485200,-2.027878
0.485300,-2.108050
0.485400,-2.164527
0.485500,-2.210943
0.485600,-2.272289
0.485700,-2.303124
0.485800,-2.334284
0.485900,-2.386542
0.486000,-2.400175
0.486100,-2.455029
0.486200,-2.478075
0.486300,-2.540719
0.486400,-2.551106
0.486500,-2.620892
0.486600,-2.637445
0.486700,-2.693923
0.486800,-2.805580
0.486900,-3.052913
0.487000,-3.206117
0.487100,-3.112636
0.487200,-2.881857
0.487300,-2.885103
0.487400,-2.987671
0.487500,-3.301545
0.487600,-3.485584
0.487700,-3.483312
0.487800,-3.276552
0.487900,-3.184370
0.488000,-3.219425
0.488100,-3.397622
0.488200,-3.556344
0.488300,-3.610874
0.488400,-3.524534
0.488500,-3.471952
0.488600,-3.472925
0.488700,-3.495646
0.488800,-3.522262
0.488900,-3.484286
0.489000,-3.463837
0.489100,-3.437870
0.489200,-3.429431
0.489300,-3.497918
0.489400,-3.424887
0.489500,-3.387235
0.489600,-3.341144
0.489700,-3.323292
0.489800,-3.333678
0.489900,-3.294728
0.490000,-3.157754
0.490100,-2.947423
0.490200,-2.994812
0.490300,-3.113286
0.490400,-3.269735
0.490500,-3.265191
0.490600,-3.026297
0.490700,-2.820186
0.490800,-2.792272
0.490900,-2.896788
0.491000,-3.060054
0.491100,-3.113610
0.491200,-3.017209
0.491300,-2.878936
0.491400,-2.818239
0.491500,-2.837389
0.491600,-2.858487
0.491700,-2.866277
0.491800,-2.840959
0.491900,-2.774744
0.492000,-2.744883
0.492100,-2.685808
0.492200,-2.553703
0.492300,-2.392060
0.492400,-2.330714
0.492500,-2.314485
0.492600,-2.283000
0.492700,-2.295659
0.492800,-2.239181
0.492900,-2.096689
0.493000,-2.052222
0.493100,-1.859419
0.493200,-1.911677
0.493300,-1.904212
0.493400,-1.871104
0.493500,-1.800994
0.493600,-1.722121
0.493700,-1.607543
0.493800,-1.636431
0.493900,-1.606245
0.494000,-1.664670
0.494100,-1.648116
0.494200,-1.690636
0.494300,-1.687391
0.494400,-1.649090
0.494500,-1.701348
0.494600,-1.676030
0.494700,-1.750360
0.494800,-1.754904
0.494900,-1.922713
0.495000,-1.866560
0.495100,-1.908107
0.495200,-1.655257
0.495300,-1.583200
0.495400,-1.452393
0.495500,-1.987954
0.495600,-2.141807
0.495700,-2.074618
0.495800,-1.836374
0.495900,-1.693233
0.496000,-1.672460
0.496100,-1.806188
0.496200,-1.995420
0.496300,-2.116489
0.496400,-1.937968
0.496500,-1.786713
0.496600,-1.743868
0.496700,-1.797424
0.496800,-1.822417
0.496900,-1.870131
0.497000,-1.886684
0.497100,-1.892202
0.497200,-1.870455
0.497300,-1.885711
0.497400,-1.901615
0.497500,-1.936670
0.497600,-1.928880
0.497700,-1.990551
0.497800,-2.004833
0.497900,-2.016517
0.498000,-2.035019
0.498100,-1.928556
0.498200,-1.918493
0.498300,-1.934073
0.498400,-2.166150
0.498500,-2.235611
0.498600,-2.155764
0.498700,-1.946408
0.498800,-1.858446
0.498900,-1.920116
0.499000,-2.162580
0.499100,-2.263850
0.499200,-2.181406
0.499300,-2.028202
0.499400,-1.864937
0.499500,-1.878894
0.499600,-1.961014
0.499700,-2.012298
0.499800,-1.979515
0.499900,-2.005806
0.500000,-1.971076
0.500100,-2.042160
0.500200,-2.051572
0.500300,-2.117787
0.500400,-2.101234
0.500500,-2.101234
0.500600,-2.154465
0.500700,-2.188871
0.500800,-2.193091
0.500900,-2.168422
0.501000,-2.175239
0.501100,-2.191792
0.501200,-2.339478
0.501300,-2.410561
0.501400,-2.420948
0.501500,-2.359277
0.501600,-2.347917
0.501700,-2.398227
0.501800,-2.424843
0.501900,-2.412509
0.502000,-2.460223
0.502100,-2.463469
0.502200,-2.484891
0.502300,-2.519946
0.502400,-2.561168
0.502500,-2.603040
0.502600,-2.619593
0.502700,-2.650429
0.502800,-2.706906
0.502900,-2.725732
0.503000,-2.785780
0.503100,-2.803632
0.503200,-2.874067
0.503300,-2.867575
0.503400,-2.956187
0.503500,-3.130489
0.503600,-3.426834
0.503700,-3.511226
0.503800,-3.334977
0.503900,-3.167167
0.504000,-3.075634
0.504100,-3.318098
0.504200,-3.576793
0.504300,-3.745901
0.504400,-3.630349
0.504500,-3.510253
0.504600,-3.431703
0.504700,-3.484286
0.504800,-3.691047
0.504900,-3.790694
0.505000,-3.803028
0.505100,-3.735515
0.505200,-3.678388
0.505300,-3.696240
0.505400,-3.738436
0.505500,-3.751419
0.505600,-3.722856
0.505700,-3.692020
0.505800,-3.682283
0.505900,-3.710846
0.506000,-3.727400
0.506100,-3.716364
0.506200,-3.699161
0.506300,-3.714417
0.506400,-3.742980
0.506500,-3.758236
0.506600,-3.706951
0.506700,-3.571275
0.506800,-3.555370
0.506900,-3.643008
0.507000,-3.859182
0.507100,-4.040625
0.507200,-4.000701
0.507300,-3.834838
0.507400,-3.723505
0.507500,-3.804976
0.507600,-3.965646
0.507700,-4.154230
0.507800,-4.235701
0.507900,-4.169486
0.508000,-4.054582
0.508100,-4.021150
0.508200,-4.056854
0.508300,-4.111710
0.508400,-4.098402
0.508500,-4.086067
0.508600,-4.059776
0.508700,-4.022124
0.508800,-3.976682
0.508900,-3.838084
0.509000,-3.717663
0.509100,-3.651447
0.509200,-3.614444
0.509300,-3.609900
0.509400,-3.583933
0.509500,-3.454099
0.509600,-3.301869
0.509700,-3.235654
0.509800,-3.011691
0.509900,-2.985399
0.510000,-2.936063
0.510100,-2.812721
0.510200,-2.660491
0.510300,-2.539421
0.510400,-2.400499
0.510500,-2.328117
0.510600,-2.240804
0.510700,-2.156737
0.510800,-2.076890
0.510900,-2.018790
0.511000,-1.933424
0.511100,-1.790932
0.511200,-1.694856
0.511300,-1.577682
0.511400,-1.511467
0.511500,-1.440708
0.511600,-1.394617
0.511700,-1.289777
0.511800,-1.063543
0.511900,-0.781481
0.512000,-0.441969
0.512100,-0.659763
0.512200,-0.783753
0.512300,-0.885348
0.512400,-0.539992
0.512500,-0.328365
0.512600,-0.092394
0.512700,-0.021960
0.512800,-0.187821
0.512900,-0.210542
0.513000,-0.131993
0.513100,0.107223
0.513200,0.237381
0.513300,0.250689
0.513400,0.246144
0.513500,0.230889
0.513600,0.240302
0.513700,0.288340
0.513800,0.330211
0.513900,0.324369
0.514000,0.317228
0.514100,0.294832
0.514200,0.344168
0.514300,0.177658
0.514400,0.238030
0.514500,0.041983
0.514600,0.068923
0.514700,0.014393
0.514800,0.065352
0.514900,0.032570
0.515000,-0.124528
0.515100,-0.385492
0.515200,-0.465663
0.515300,-0.444565
0.515400,-0.287792
0.515500,-0.327067
0.515600,-0.529930
0.515700,-0.822379
0.515800,-0.940202
0.515900,-0.882426
0.516000,-0.756813
0.516100,-0.761682
0.516200,-0.948641
0.516300,-1.120345
0.516400,-1.219343
0.516500,-1.255047
0.516600,-1.325156
0.516700,-1.412469
0.516800,-1.596832
0.516900,-1.704269
0.517000,-1.815276
0.517100,-1.811706
0.517200,-1.888307
0.517300,-2.006455
0.517400,-2.110647
0.517500,-2.156737
0.517600,-2.171993
0.517700,-2.203802
0.517800,-2.312213
0.517900,-2.496252
0.518000,-2.560194
0.518100,-2.561817
0.518200,-2.449836
0.518300,-2.522218
0.518400,-2.546887
0.518500,-2.538123
0.518600,-2.522218
0.518700,-2.501445
0.518800,-2.521894
0.518900,-2.503717
0.519000,-2.511182
0.519100,-2.504691
0.519200,-2.491058
0.519300,-2.510858
0.519400,-2.494953
0.519500,-2.505664
0.519600,-2.497874
0.519700,-2.495927
0.519800,-2.501120
0.519900,-2.543641
0.520000,-2.610505
0.520100,-2.642639
0.520200,-2.848749
0.520300,-3.132761
0.520400,-3.134384
0.520500,-2.945151
0.520600,-2.727355
0.520700,-2.800062
0.520800,-3.091214
0.520900,-3.364839
0.521000,-3.470329
0.521100,-3.347960
0.521200,-3.204818
0.521300,-3.175930
0.521400,-3.331082
0.521500,-3.522262
0.521600,-3.585556
0.521700,-3.559914
0.521800,-3.529079
0.521900,-3.536219
0.522000,-3.596917
0.522100,-3.687476
0.522200,-3.705977
0.522300,-3.700784
0.522400,-3.696564
0.522500,-3.761806
0.522600,-3.821530
0.522700,-3.861454
0.522800,-3.849769
0.522900,-3.850743
0.523000,-3.874437
0.523100,-3.903975
0.523200,-3.955584
0.523300,-3.879631
0.523400,-3.701758
0.523500,-3.646254
0.523600,-3.750121
0.523700,-3.909168
0.523800,-4.004596
0.523900,-3.856585
0.524000,-3.616392
0.524100,-3.498892
0.524200,-3.566081
0.524300,-3.747524
0.524400,-3.846848
0.524500,-3.806274
0.524600,-3.645280
0.524700,-3.519341
0.524800,-3.517718
0.524900,-3.559914
0.525000,-3.605681
0.525100,-3.540114
0.525200,-3.473574
0.525300,-3.434624
0.525400,-3.394700
0.525500,-3.335301
0.525600,-3.198002
0.525700,-3.080827
0.525800,-3.026946
0.525900,-2.993514
0.526000,-2.976960
0.526100,-2.936387
0.526200,-2.739365
0.526300,-2.657570
0.526400,-2.499822
0.526500,-2.424194
0.526600,-2.402447
0.526700,-2.357005
0.526800,-2.291764
0.526900,-2.181730
0.527000,-2.042809
0.527100,-1.989902
0.527200,-1.972699
0.527300,-2.004508
0.527400,-1.999315
0.527500,-2.036317
0.527600,-2.017491
0.527700,-2.007105
0.527800,-1.981787
0.527900,-2.014245
0.528000,-2.042484
0.528100,-2.080136
0.528200,-2.188222
0.528300,-2.210294
0.528400,-2.163554
0.528500,-2.071697
0.528600,-1.747763
0.528700,-1.728288
0.528800,-1.906808
0.528900,-2.318704
0.529000,-2.187897
0.529100,-2.123630
0.529200,-1.788660
0.529300,-1.754904
0.529400,-1.866885
0.529500,-2.037940
0.529600,-2.152193
0.529700,-1.989902
0.529800,-1.836374
0.529900,-1.693233
0.530000,-1.704918
0.530100,-1.752307
0.530200,-1.693233
0.530300,-1.711410
0.530400,-1.638054
0.530500,-1.591314
0.530600,-1.548469
0.530700,-1.571839
0.530800,-1.539705
0.530900,-1.575734
0.531000,-1.553013
0.531100,-1.582550
0.531200,-1.568918
0.531300,-1.617605
0.531400,-1.517634
0.531500,-1.526722
0.531600,-1.493615
0.531700,-1.640326
0.531800,-1.870455
0.531900,-1.782169
0.532000,-1.696479
0.532100,-1.394617
0.532200,-1.460183
0.532300,-1.601052
0.532400,-1.825663
0.532500,-1.825663
0.532600,-1.686092
0.532700,-1.461481
0.532800,-1.420259
0.532900,-1.541328
0.533000,-1.641300
0.533100,-1.628966
0.533200,-1.597806
0.533300,-1.547171
0.533400,-1.555285
0.533500,-1.611114
0.533600,-1.660450
0.533700,-1.696154
0.533800,-1.658503
0.533900,-1.665319
0.534000,-1.701672
0.534100,-1.685768
0.534200,-1.654283
0.534300,-1.637080
0.534400,-1.593586
0.534500,-1.689013
0.534600,-1.774379
0.534700,-1.753930
0.534800,-1.726016
0.534900,-1.612087
0.535000,-1.690636
0.535100,-1.708164
0.535200,-1.662722
0.535300,-1.688364
0.535400,-1.703620
0.535500,-1.701997
0.535600,-1.718226
0.535700,-1.738675
0.535800,-1.759123
0.535900,-1.771457
0.536000,-1.797749
0.536100,-1.793854
0.536200,-1.814952
0.536300,-1.807811
0.536400,-1.846436
0.536500,-1.829558
0.536600,-1.881166
0.536700,-1.919467
0.536800,-1.998341
0.536900,-2.271964
0.537000,-2.430036
0.537100,-2.337206
0.537200,-2.129148
0.537300,-2.010026
0.537400,-2.123954
0.537500,-2.390762
0.537600,-2.606285
0.537700,-2.562142
0.537800,-2.427440
0.537900,-2.311239
0.538000,-2.388814
0.538100,-2.548509
0.538200,-2.683536
0.538300,-2.748778
0.538400,-2.684835
0.538500,-2.659192
0.538600,-2.708854
0.538700,-2.752348
0.538800,-2.833819
0.538900,-2.882506
0.539000,-2.925027
0.539100,-2.955213
0.539200,-3.043175
0.539300,-3.135033
0.539400,-3.171062
0.539500,-3.190212
0.539600,-3.236628
0.539700,-3.327187
0.539800,-3.395999
0.539900,-3.437546
0.540000,-3.371006
0.540100,-3.270384
0.540200,-3.347960
0.540300,-3.557317
0.540400,-3.741357
0.540500,-3.833215
0.540600,-3.666053
0.540700,-3.537518
0.540800,-3.571275
0.540900,-3.741033
0.541000,-3.995832
0.541100,-4.122421
0.541200,-4.083146
0.541300,-3.987393
0.541400,-3.977331
0.541500,-4.036081
0.541600,-4.083471
0.541700,-4.145791
0.541800,-4.164942
0.541900,-4.160722
0.542000,-4.140922
0.542100,-4.135404
0.542200,-4.055881
0.542300,-3.928319
0.542400,-3.879631
0.542500,-3.904948
0.542600,-3.908194
0.542700,-3.881254
0.542800,-3.817310
0.542900,-3.663457
0.543000,-3.612172
0.543100,-3.391130
0.543200,-3.423264
0.543300,-3.372953
0.543400,-3.290833
0.543500,-3.195081
0.543600,-3.124646
0.543700,-2.959108
0.543800,-2.926325
0.543900,-2.908798
0.544000,-2.880883
0.544100,-2.904253
0.544200,-2.841609
0.544300,-2.892244
0.544400,-2.726381
0.544500,-2.751050
0.544600,-2.636472
0.544700,-2.644262
0.544800,-2.617646
0.544900,-2.639393
0.545000,-2.665360
0.545100,-2.515727
0.545200,-2.299229
0.545300,-2.004183
0.545400,-2.074293
0.545500,-2.338829
0.545600,-2.516051
0.545700,-2.445941
0.545800,-2.079487
0.545900,-2.070074
0.546000,-1.900317
0.546100,-2.189520
0.546200,-2.269692
0.546300,-2.279430
0.546400,-2.126551
0.546500,-1.988928
0.546600,-1.936346
0.546700,-1.956145
0.546800,-2.031448
0.546900,-2.014570
0.547000,-2.010026
0.547100,-1.977568
0.547200,-1.945109
0.547300,-1.950952
0.547400,-1.943162
0.547500,-1.950952
0.547600,-1.974971
0.547700,-2.046379
0.547800,-2.069100
0.547900,-2.084680
0.548000,-2.082083
0.548100,-1.990551
0.548200,-1.948355
0.548300,-2.036317
0.548400,-2.189196
0.548500,-2.290141
0.548600,-2.182704
0.548700,-1.958417
0.548800,-1.817224
0.548900,-1.900317
0.549000,-2.089549
0.549100,-2.235286
0.549200,-2.120059
0.549300,-1.944460
0.549400,-1.800345
0.549500,-1.839295
0.549600,-1.957768
0.549700,-2.018790
0.549800,-1.950952
0.549900,-1.967830
0.550000,-1.910379
0.550100,-1.972374
0.550200,-1.992823
0.550300,-1.980489
0.550400,-1.953224
0.550500,-1.947706
0.550600,-1.986980
0.550700,-2.035992
0.550800,-2.042809
0.550900,-1.986007
0.551000,-1.987630
0.551100,-2.004833
0.551200,-2.122007
0.551300,-2.157062
0.551400,-2.134017
0.551500,-2.111620
0.551600,-2.019114
0.551700,-2.034370
0.551800,-2.019114
0.551900,-1.984059
0.552000,-1.974646
0.552100,-1.986656
0.552200,-1.975620
0.552300,-1.985682
0.552400,-1.968155
0.552500,-1.985682
0.552600,-1.982436
0.552700,-1.961338
0.552800,-1.988603
0.552900,-1.986331
0.553000,-1.992174
0.553100,-1.985033
0.553200,-2.019114
0.553300,-2.108699
0.553400,-2.083057
0.553500,-2.298580
0.553600,-2.518648
0.553700,-2.660491
0.553800,-2.432309
0.553900,-2.309291
0.554000,-2.243726
0.554100,-2.482294
0.554200,-2.781885
0.554300,-2.946449
0.554400,-2.879585
0.554500,-2.723785
0.554600,-2.653675
0.554700,-2.786429
0.554800,-2.972091
0.554900,-3.140226
0.555000,-3.110040
0.555100,-3.064273
0.555200,-2.975986
0.555300,-3.060054
0.555400,-3.100302
0.555500,-3.121725
0.555600,-3.123348
0.555700,-3.115233
0.555800,-3.132761
0.555900,-3.189887
0.556000,-3.274279
0.556100,-3.271034
0.556200,-3.259673
0.556300,-3.252532
0.556400,-3.302843
0.556500,-3.344065
0.556600,-3.296351
0.556700,-3.123023
0.556800,-3.044474
0.556900,-3.117830
0.557000,-3.296676
0.557100,-3.453450
0.557200,-3.377173
0.557300,-3.176580
0.557400,-3.000655
0.557500,-3.013314
0.557600,-3.186317
0.557700,-3.339521
0.557800,-3.392104
0.557900,-3.275253
0.558000,-3.130164
0.558100,-3.084398
0.558200,-3.108092
0.558300,-3.166517
0.558400,-3.143147
0.558500,-3.122374
0.558600,-3.105496
0.558700,-3.073362
0.558800,-3.029867
0.558900,-2.946125
0.559000,-2.806229
0.559100,-2.719890
0.559200,-2.670228
0.559300,-2.614725
0.559400,-2.616997
0.559500,-2.461521
0.559600,-2.290466
0.559700,-2.094417
0.559800,-1.978866
0.559900,-1.969778
0.560000,-1.926283
0.560100,-1.843190
0.560200,-1.728288
0.560300,-1.613710
0.560400,-1.556908
0.560500,-1.473815
0.560600,-1.479982
0.560700,-1.494264
0.560800,-1.511467
0.560900,-1.544250
0.561000,-1.555935
0.561100,-1.579629
0.561200,-1.562751
0.561300,-1.643247
0.561400,-1.671486
0.561500,-1.760746
0.561600,-1.799696
0.561700,-1.713033
0.561800,-1.729262
0.561900,-1.350149
0.562000,-1.397214
0.562100,-1.434865
0.562200,-1.880193
0.562300,-1.922064
0.562400,-1.780546
0.562500,-1.620202
0.562600,-1.384555
0.562700,-1.455639
0.562800,-1.551066
0.562900,-1.757500
0.563000,-1.676355
0.563100,-1.542627
0.563200,-1.328402
0.563300,-1.299190
0.563400,-1.312822
0.563500,-1.291725
0.563600,-1.333596
0.563700,-1.278092
0.563800,-1.211228
0.563900,-1.156374
0.564000,-1.150856
0.564100,-1.168708
0.564200,-1.087887
0.564300,-1.191753
0.564400,-1.153777
0.564500,-1.216421
0.564600,-1.156374
0.564700,-1.161892
0.564800,-1.066464
0.564900,-1.050235
0.565000,-1.132355
0.565100,-1.392994
0.565200,-1.347228
0.565300,-1.251801
0.565400,-0.999601
0.565500,-0.942474
0.565600,-1.028813
0.565700,-1.271276
0.565800,-1.344307
0.565900,-1.267056
0.566000,-1.074254
0.566100,-1.024918
0.566200,-1.123266
0.566300,-1.230378
0.566400,-1.256670
0.566500,-1.264784
0.566600,-1.288803
0.566700,-1.280364
0.566800,-1.351448
0.566900,-1.389748
0.567000,-1.399161
0.567100,-1.378388
0.567200,-1.414741
0.567300,-1.490694
0.567400,-1.518608
0.567500,-1.504975
0.567600,-1.478684
0.567700,-1.453042
0.567800,-1.498808
0.567900,-1.620527
0.568000,-1.641624
0.568100,-1.619228
0.568200,-1.543600
0.568300,-1.510168
0.568400,-1.556259
0.568500,-1.560803
0.568600,-1.586770
0.568700,-1.589691
0.568800,-1.604297
0.568900,-1.640001
0.569000,-1.695830
0.569100,-1.732832
0.569200,-1.786713
0.569300,-1.831830
0.569400,-1.878570
0.569500,-1.929205
0.569600,-1.973348
0.569700,-2.011973
0.569800,-2.045405
0.569900,-2.107725
0.570000,-2.176862
0.570100,-2.286571
0.570200,-2.469960
0.570300,-2.821484
0.570400,-2.783184
0.570500,-2.704959
0.570600,-2.459574
0.570700,-2.631278
0.570800,-2.863031
0.570900,-3.213907
0.571000,-3.304790
0.571100,-3.209363
0.571200,-3.053237
0.571300,-3.077257
0.571400,-3.207415
0.571500,-3.405087
0.571600,-3.515771
0.571700,-3.486882
0.571800,-3.451827
0.571900,-3.454099
0.572000,-3.524210
0.572100,-3.543360
0.572200,-3.558616
0.572300,-3.544009
0.572400,-3.530701
0.572500,-3.581337
0.572600,-3.613146
0.572700,-3.598540
0.572800,-3.544334
0.572900,-3.540764
0.573000,-3.516420
0.573100,-3.537518
0.573200,-3.542062
0.573300,-3.420018
0.573400,-3.224293
0.573500,-3.217477
0.573600,-3.350557
0.573700,-3.529728
0.573800,-3.591074
0.573900,-3.451178
0.574000,-3.253831
0.574100,-3.125944
0.574200,-3.218775
0.574300,-3.401192
0.574400,-3.530052
0.574500,-3.508305
0.574600,-3.358671
0.574700,-3.265191
0.574800,-3.249611
0.574900,-3.247664
0.575000,-3.267139
0.575100,-3.229487
0.575200,-3.158403
0.575300,-3.125295
0.575400,-3.075309
0.575500,-3.003251
0.575600,-2.879260
0.575700,-2.703336
0.575800,-2.615374
0.575900,-2.574801
0.576000,-2.560844
0.576100,-2.525464
0.576200,-2.347592
0.576300,-2.223601
0.576400,-1.969453
0.576500,-1.961338
0.576600,-1.937644
0.576700,-1.888307
0.576800,-1.797099
0.576900,-1.679925
0.577000,-1.545223
0.577100,-1.506598
0.577200,-1.464727
0.577300,-1.490369
0.577400,-1.450445
0.577500,-1.464727
0.577600,-1.455314
0.577700,-1.469920
0.577800,-1.439085
0.577900,-1.489720
0.578000,-1.424803
0.578100,-1.478035
0.578200,-1.494913
0.578300,-1.529643
0.578400,-1.435839
0.578500,-1.324832
0.578600,-0.981099
0.578700,-0.963247
0.578800,-1.072307
0.578900,-1.457586
0.579000,-1.378713
0.579100,-1.281662
0.579200,-0.939877
0.579300,-0.874636
0.579400,-0.900928
0.579500,-1.080421
0.579600,-1.135276
0.579700,-1.044717
0.579800,-0.915209
0.579900,-0.766226
0.580000,-0.771419
0.580100,-0.838932
0.580200,-0.860030
0.580300,-0.829195
0.580400,-0.814264
0.580500,-0.766226
0.580600,-0.786350
0.580700,-0.823352
0.580800,-0.800956
0.580900,-0.826923
0.581000,-0.839582
0.581100,-0.925920
0.581200,-0.932412
0.581300,-0.997004
0.581400,-0.877558
0.581500,-0.910665
0.581600,-0.845424
0.581700,-1.034980
0.581800,-1.180068
0.581900,-1.165137
0.582000,-1.036278
0.582100,-0.804202
0.582200,-0.853214
0.582300,-1.014207
0.582400,-1.262188
0.582500,-1.313472
0.582600,-1.182665
0.582700,-1.016154
0.582800,-0.980126
0.582900,-1.105739
0.583000,-1.234273
0.583100,-1.228756
0.583200,-1.249204
0.583300,-1.197596
0.583400,-1.275171
0.583500,-1.350474
0.583600,-1.436164
0.583700,-1.448822
0.583800,-1.419285
0.583900,-1.444278
0.584000,-1.554312
0.584100,-1.599753
0.584200,-1.605920
0.584300,-1.576383
0.584400,-1.591639
0.584500,-1.690636
0.584600,-1.812355
0.584700,-1.849357
0.584800,-1.853577
0.584900,-1.733157
0.585000,-1.824364
0.585100,-1.864937
0.585200,-1.889281
0.585300,-1.915572
0.585400,-1.946083
0.585500,-2.023009
0.585600,-2.060661
0.585700,-2.124279
0.585800,-2.177511
0.585900,-2.221654
0.586000,-2.306370
0.586100,-2.344671
0.586200,-2.427115
0.586300,-2.448213
0.586400,-2.548834
0.586500,-2.635173
0.586600,-2.714372
0.586700,-2.790974
0.586800,-2.881857
0.586900,-3.173009
0.587000,-3.351855
0.587100,-3.306413
0.587200,-3.070440
0.587300,-3.005199
0.587400,-3.123348
0.587500,-3.412228
0.587600,-3.631972
0.587700,-3.636841
0.587800,-3.475522
0.587900,-3.355750
0.588000,-3.339196
0.588100,-3.464811
0.588200,-3.618339
0.588300,-3.622559
0.588400,-3.573871
0.588500,-3.517069
0.588600,-3.483312
0.588700,-3.531026
0.588800,-3.556019
0.588900,-3.552449
0.589000,-3.575170
0.589100,-3.540439
0.589200,-3.580038
0.589300,-3.671571
0.589400,-3.688125
0.589500,-3.679686
0.589600,-3.647552
0.589700,-3.651447
0.589800,-3.619313
0.589900,-3.616392
0.590000,-3.498892
0.590100,-3.310633
0.590200,-3.360294
0.590300,-3.448257
0.590400,-3.595294
0.590500,-3.630024
0.590600,-3.426834
0.590700,-3.218451
0.590800,-3.157429
0.590900,-3.262594
0.591000,-3.455398
0.591100,-3.570625
0.591200,-3.515446
0.591300,-3.380743
0.591400,-3.307387
0.591500,-3.357698
0.591600,-3.431703
0.591700,-3.463837
0.591800,-3.461565
0.591900,-3.450529
0.592000,-3.446634
0.592100,-3.395025
0.592200,-3.307063
0.592300,-3.174307
0.592400,-3.104197
0.592500,-3.097056
0.592600,-3.094460
0.592700,-3.106469
0.592800,-3.023376
0.592900,-2.863680
0.593000,-2.834143
0.593100,-2.651727
0.593200,-2.658543
0.593300,-2.592653
0.593400,-2.560519
0.593500,-2.481970
0.593600,-2.418351
0.593700,-2.290466
0.593800,-2.249568
0.593900,-2.201530
0.594000,-2.254437
0.594100,-2.187248
0.594200,-2.151544
0.594300,-2.144728
0.594400,-2.086952
0.594500,-2.087277
0.594600,-1.959391
0.594700,-2.080136
0.594800,-1.966856
0.594900,-2.000938
0.595000,-1.926608
0.595100,-1.869481
0.595200,-1.574760
0.595300,-1.393968
0.595400,-1.402407
0.595500,-1.620527
0.595600,-1.874999
0.595700,-1.707515
0.595800,-1.488746
0.595900,-1.289777
0.596000,-1.299190
0.596100,-1.459858
0.596200,-1.582875
0.596300,-1.625071
0.596400,-1.424154
0.596500,-1.287830
0.596600,-1.209605
0.596700,-1.231028
0.596800,-1.263161
0.596900,-1.316393
0.597000,-1.338464
0.597100,-1.303085
0.597200,-1.296918
0.597300,-1.305682
0.597400,-1.293347
0.597500,-1.255696
0.597600,-1.316393
0.597700,-1.451419
0.597800,-1.366054
0.597900,-1.427725
0.598000,-1.355992
0.598100,-1.278092
0.598200,-1.276469
0.598300,-1.268030
0.598400,-1.518932
0.598500,-1.555935
0.598600,-1.500431
0.598700,-1.351772
0.598800,-1.188183
0.598900,-1.292049
0.599000,-1.478684
0.599100,-1.649739
0.599200,-1.556584
0.599300,-1.437462
0.599400,-1.284908
0.599500,-1.312822
0.599600,-1.388450
0.599700,-1.444603
0.599800,-1.351772
0.599900,-1.360211
0.600000,-1.290426
0.600100,-1.316717
0.600200,-1.301462
0.600300,-1.282961
0.600400,-1.234923
0.600500,-1.178445
0.600600,-1.192402
0.600700,-1.200192
0.600800,-1.162541
0.600900,-1.110608
0.601000,-1.076526
0.601100,-1.081720
0.601200,-1.211553
0.601300,-1.238168
0.601400,-1.200841
0.601500,-1.136574
0.601600,-1.083018
0.601700,-1.139820
0.601800,-1.120670
0.601900,-1.105090
0.602000,-1.119047
0.602100,-1.119047
0.602200,-1.105414
0.602300,-1.112880
0.602400,-1.107686
0.602500,-1.094054
0.602600,-1.097300
0.602700,-1.117748
0.602800,-1.111906
0.602900,-1.069710
0.603000,-1.083667
0.603100,-1.054779
0.603200,-1.101195
0.603300,-1.086589
0.603400,-1.128784
0.603500,-1.247906
0.603600,-1.524450
0.603700,-1.542302
0.603800,-1.383906
0.603900,-1.082369
0.604000,-1.072307
0.604100,-1.266407
0.604200,-1.579629
0.604300,-1.695181
0.604400,-1.661749
0.604500,-1.509844
0.604600,-1.454665
0.604700,-1.607543
0.604800,-1.815601
0.604900,-1.939591
0.605000,-2.024307
0.605100,-1.986007
0.605200,-2.023983
0.605300,-2.068126
0.605400,-2.163554
0.605500,-2.247945
0.605600,-2.258656
0.605700,-2.290790
0.605800,-2.334934
0.605900,-2.422896
0.606000,-2.475478
0.606100,-2.511507
0.606200,-2.506314
0.606300,-2.557273
0.606400,-2.637770
0.606500,-2.739689
0.606600,-2.787079
0.606700,-2.652701
0.606800,-2.619269
0.606900,-2.739040
0.607000,-2.986698
0.607100,-3.173983
0.607200,-3.177553
0.607300,-2.981829
0.607400,-2.854267
0.607500,-2.943853
0.607600,-3.145095
0.607700,-3.358671
0.607800,-3.382366
0.607900,-3.273306
0.608000,-3.198002
0.608100,-3.175281
0.608200,-3.234356
0.608300,-3.278824
0.608400,-3.269086
0.608500,-3.213582
0.608600,-3.179176
0.608700,-3.165544
0.608800,-3.109391
0.608900,-2.991242
0.609000,-2.864654
0.609100,-2.760138
0.609200,-2.732224
0.609300,-2.705283
0.609400,-2.690677
0.609500,-2.578696
0.609600,-2.411860
0.609700,-2.337206
0.609800,-2.130771
0.609900,-2.134990
0.610000,-2.069749
0.610100,-1.950303
0.610200,-1.807486
0.610300,-1.677328
0.610400,-1.570541
0.610500,-1.522827
0.610600,-1.500106
0.610700,-1.446550
0.610800,-1.429672
0.610900,-1.345605
0.611000,-1.337815
0.611100,-1.257643
0.611200,-1.232326
0.611300,-1.204087
0.611400,-1.162216
0.611500,-1.207333
0.611600,-1.209281
0.611700,-1.190455
0.611800,-1.092106
0.611900,-0.803878
0.612000,-0.738312
0.612100,-0.747400
0.612200,-1.080746
0.612300,-1.155075
0.612400,-1.009338
0.612500,-0.779209
0.612600,-0.667229
0.612700,-0.774990
0.612800,-0.903524
0.612900,-1.032708
0.613000,-0.988565
0.613100,-0.848021
0.613200,-0.735391
0.613300,-0.752269
0.613400,-0.829520
0.613500,-0.888593
0.613600,-0.891190
0.613700,-0.871715
0.613800,-0.835362
0.613900,-0.839906
0.614000,-0.906770
0.614100,-0.919104
0.614200,-0.910016
0.614300,-1.004469
0.614400,-1.022970
0.614500,-1.085939
0.614600,-1.140794
0.614700,-1.218369
0.614800,-1.154751
0.614900,-1.205386
0.615000,-1.230054
0.615100,-1.523152
0.615200,-1.570865
0.615300,-1.534188
0.615400,-1.306331
0.615500,-1.307304
0.615600,-1.419610
0.615700,-1.762369
0.615800,-1.855849
0.615900,-1.757500
0.616000,-1.571839
0.616100,-1.526722
0.616200,-1.700374
0.616300,-1.819496
0.616400,-1.869806
0.616500,-1.830207
0.616600,-1.825987
0.616700,-1.811057
0.616800,-1.873701
0.616900,-1.910703
0.617000,-1.965558
0.617100,-1.941539
0.617200,-1.946083
0.617300,-1.968804
0.617400,-1.969778
0.617500,-1.924985
0.617600,-1.892202
0.617700,-1.878570
0.617800,-1.875973
0.617900,-1.924661
0.618000,-1.933100
0.618100,-1.936021
0.618200,-1.964584
0.618300,-1.898694
0.618400,-1.940241
0.618500,-1.921739
0.618600,-1.925310
0.618700,-1.949978
0.618800,-1.960040
0.618900,-1.935696
0.619000,-1.972374
0.619100,-1.987630
0.619200,-1.997692
0.619300,-2.001911
0.619400,-2.007429
0.619500,-2.031773
0.619600,-2.015219
0.619700,-2.039563
0.619800,-2.062608
0.619900,-2.101558
0.620000,-2.127525
0.620100,-2.154465
0.620200,-2.388490
0.620300,-2.598171
0.620400,-2.606610
0.620500,-2.408289
0.620600,-2.272938
0.620700,-2.263850
0.620800,-2.505015
0.620900,-2.724109
0.621000,-2.768577
0.621100,-2.640042
0.621200,-2.486514
0.621300,-2.447239
0.621400,-2.493330
0.621500,-2.658219
0.621600,-2.737417
0.621700,-2.691326
0.621800,-2.622839
0.621900,-2.556624
0.622000,-2.514753
0.622100,-2.527736
0.622200,-2.524166
0.622300,-2.490084
0.622400,-2.424843
0.622500,-2.355382
0.622600,-2.346294
0.622700,-2.403745
0.622800,-2.369989
0.622900,-2.278781
0.623000,-2.233014
0.623100,-2.206723
0.623200,-2.178484
0.623300,-2.073969
0.623400,-1.874026
0.623500,-1.798073
0.623600,-1.873052
0.623700,-2.048976
0.623800,-2.085654
0.623900,-1.946408
0.624000,-1.688040
0.624100,-1.553663
0.624200,-1.633834
0.624300,-1.809109
0.624400,-1.962312
0.624500,-1.933749
0.624600,-1.766264
0.624700,-1.653959
0.624800,-1.640975
0.624900,-1.718226
0.625000,-1.783142
0.625100,-1.813653
0.625200,-1.814302
0.625300,-1.790608
0.625400,-1.778274
0.625500,-1.763667
0.625600,-1.671486
0.625700,-1.583200
0.625800,-1.568593
0.625900,-1.574760
0.626000,-1.588393
0.626100,-1.634808
0.626200,-1.515037
0.626300,-1.469920
0.626400,-1.303409
0.626500,-1.340087
0.626600,-1.394942
0.626700,-1.403705
0.626800,-1.389099
0.626900,-1.351448
0.627000,-1.276145
0.627100,-1.287180
0.627200,-1.293997
0.627300,-1.364431
0.627400,-1.435190
0.627500,-1.440059
0.627600,-1.580927
0.627700,-1.531266
0.627800,-1.586770
0.627900,-1.551715
0.628000,-1.624422
0.628100,-1.672784
0.628200,-1.778923
0.628300,-1.899018
0.628400,-1.773730
0.628500,-1.718226
0.628600,-1.367352
0.628700,-1.379037
0.628800,-1.508870
0.628900,-1.851954
0.629000,-1.766589
0.629100,-1.619877
0.629200,-1.368975
0.629300,-1.226808
0.629400,-1.272899
0.629500,-1.445252
0.629600,-1.492966
0.629700,-1.407600
0.629800,-1.213825
0.629900,-1.093729
0.630000,-0.976231
0.630100,-0.956756
0.630200,-0.967791
0.630300,-0.952536
0.630400,-0.933710
0.630500,-0.872689
0.630600,-0.797061
0.630700,-0.755515
0.630800,-0.749348
0.630900,-0.730847
0.631000,-0.713319
0.631100,-0.787324
0.631200,-0.708450
0.631300,-0.787973
0.631400,-0.600365
0.631500,-0.599391
0.631600,-0.546809
0.631700,-0.659114
0.631800,-0.843801
0.631900,-0.752918
0.632000,-0.551353
0.632100,-0.326418
0.632200,-0.300127
0.632300,-0.447162
0.632400,-0.678589
