0.000100,-2.472232
0.000200,-2.645885
0.000300,-2.733198
0.000400,-2.546237
0.000500,-2.354084
0.000600,-2.314485
0.000700,-2.419650
0.000800,-2.626410
0.000900,-2.737742
0.001000,-2.692300
0.001100,-2.540395
0.001200,-2.462495
0.001300,-2.462495
0.001400,-2.504366
0.001500,-2.534228
0.001600,-2.530008
0.001700,-2.478075
0.001800,-2.443669
0.001900,-2.406017
0.002000,-2.347592
0.002100,-2.237559
0.002200,-2.077539
0.002300,-2.034045
0.002400,-2.075267
0.002500,-2.087926
0.002600,-2.057740
0.002700,-1.896097
0.002800,-1.851954
0.002900,-1.742570
0.003000,-1.688689
0.003100,-1.662073
0.003200,-1.597806
0.003300,-1.508546
0.003400,-1.405004
0.003500,-1.298216
0.003600,-1.230054
0.003700,-1.225185
0.003800,-1.241090
0.003900,-1.239791
0.004000,-1.228431
0.004100,-1.197596
0.004200,-1.148584
0.004300,-1.061920
0.004400,-1.150207
0.004500,-1.041796
0.004600,-1.170331
0.004700,-1.122617
0.004800,-1.181691
0.004900,-1.116775
0.005000,-0.874961
0.005100,-0.766875
0.005200,-0.663658
0.005300,-1.031734
0.005400,-1.226483
0.005500,-1.077176
0.005600,-1.009013
0.005700,-0.678264
0.005800,-0.764928
0.005900,-0.788298
0.006000,-1.029137
0.006100,-1.035629
0.006200,-0.884698
0.006300,-0.805825
0.006400,-0.650675
0.006500,-0.713319
0.006600,-0.722407
0.006700,-0.780508
0.006800,-0.748699
0.006900,-0.705854
0.007000,-0.658789
0.007100,-0.656193
0.007200,-0.715267
0.007300,-0.662360
0.007400,-0.779858
0.007500,-0.743505
0.007600,-0.880154
0.007700,-0.893462
0.007800,-0.927543
0.007900,-0.853539
0.008000,-0.816212
0.008100,-0.842827
0.008200,-1.046016
0.008300,-1.228106
0.008400,-1.143715
0.008500,-1.016803
0.008600,-0.760059
0.008700,-0.860679
0.008800,-1.049586
0.008900,-1.252125
0.009000,-1.191753
0.009100,-1.040822
0.009200,-0.876909
0.009300,-0.926894
0.009400,-1.020698
0.009500,-1.135600
0.009600,-1.110608
0.009700,-1.120020
0.009800,-1.052507
0.009900,-1.119371
0.010000,-1.159620
0.010100,-1.203438
0.010200,-1.169357
0.010300,-1.150207
0.010400,-1.204736
0.010500,-1.268030
0.010600,-1.299839
0.010700,-1.242063
0.010800,-1.216421
0.010900,-1.233300
0.011000,-1.375467
0.011100,-1.434865
0.011200,-1.420908
0.011300,-1.413443
0.011400,-1.321911
0.011500,-1.380985
0.011600,-1.402083
0.011700,-1.398837
0.011800,-1.407925
0.011900,-1.410846
0.012000,-1.426426
0.012100,-1.404355
0.012200,-1.454016
0.012300,-1.433242
0.012400,-1.460183
0.012500,-1.444603
0.012600,-1.452717
0.012700,-1.448498
0.012800,-1.443304
0.012900,-1.465051
0.013000,-1.479982
0.013100,-1.512116
0.013200,-1.595858
0.013300,-1.703295
0.013400,-2.035992
0.013500,-2.055792
0.013600,-1.932775
0.013700,-1.692259
0.013800,-1.722445
0.013900,-1.904536
0.014000,-2.215162
0.014100,-2.381349
0.014200,-2.355707
0.014300,-2.198933
0.014400,-2.087926
0.014500,-2.157062
0.014600,-2.365120
0.014700,-2.498848
0.014800,-2.581292
0.014900,-2.536824
0.015000,-2.488462
0.015100,-2.504042
0.015200,-2.566686
0.015300,-2.612777
0.015400,-2.643937
0.015500,-2.639068
0.015600,-2.685808
0.015700,-2.722811
0.015800,-2.821160
0.015900,-2.827002
0.016000,-2.804606
0.016100,-2.777990
0.016200,-2.810124
0.016300,-2.861733
0.016400,-2.827002
0.016500,-2.657570
0.016600,-2.587135
0.016700,-2.649130
0.016800,-2.823756
0.016900,-2.979881
0.017000,-2.975013
0.017100,-2.765656
0.017200,-2.639393
0.017300,-2.696844
0.017400,-2.900358
0.017500,-3.056159
0.017600,-3.128216
0.017700,-3.087968
0.017800,-2.968521
0.017900,-2.908798
0.018000,-2.909122
0.018100,-2.964951
0.018200,-3.005848
0.018300,-2.986698
0.018400,-2.982478
0.018500,-2.939633
0.018600,-2.912368
0.018700,-2.794544
0.018800,-2.650429
0.018900,-2.567335
0.019000,-2.512805
0.019100,-2.491707
0.019200,-2.466065
0.019300,-2.357330
0.019400,-2.207048
0.019500,-2.189845
0.019600,-1.965883
0.019700,-1.989902
0.019800,-1.978541
0.019900,-1.895448
0.020000,-1.796450
0.020100,-1.719524
0.020200,-1.648441
0.020300,-1.593586
0.020400,-1.547820
0.020500,-1.547820
0.020600,-1.510168
0.020700,-1.560154
0.020800,-1.504975
0.020900,-1.488421
0.021000,-1.466674
0.021100,-1.457586
0.021200,-1.468946
0.021300,-1.493290
0.021400,-1.541978
0.021500,-1.482254
0.021600,-1.402407
0.021700,-1.171954
0.021800,-0.997978
0.021900,-1.150207
0.022000,-1.413118
0.022100,-1.513090
0.022200,-1.217071
0.022300,-1.056078
0.022400,-0.808097
0.022500,-0.885348
0.022600,-0.995056
0.022700,-1.114178
0.022800,-1.085615
0.022900,-0.873338
0.023000,-0.738312
0.023100,-0.686703
0.023200,-0.653272
0.023300,-0.691897
0.023400,-0.660088
0.023500,-0.689949
0.023600,-0.601988
0.023700,-0.593548
0.023800,-0.563687
0.023900,-0.562389
0.024000,-0.452031
0.024100,-0.545510
0.024200,-0.581539
0.024300,-0.582513
0.024400,-0.570503
0.024500,-0.460470
0.024600,-0.465014
0.024700,-0.397176
0.024800,-0.528308
0.024900,-0.744479
0.025000,-0.744154
0.025100,-0.682159
0.025200,-0.417625
0.025300,-0.392632
0.025400,-0.483191
0.025500,-0.784078
0.025600,-0.839582
0.025700,-0.763629
0.025800,-0.638990
0.025900,-0.567582
0.026000,-0.642236
0.026100,-0.711372
0.026200,-0.764928
0.026300,-0.775639
0.026400,-0.812317
0.026500,-0.801605
0.026600,-0.874636
0.026700,-0.930140
0.026800,-0.981099
0.026900,-0.974932
0.027000,-0.997978
0.027100,-1.048288
0.027200,-1.068737
0.027300,-1.072631
0.027400,-1.040498
0.027500,-1.006741
0.027600,-1.062569
0.027700,-1.211553
0.027800,-1.236546
0.027900,-1.209605
0.028000,-1.058350
0.028100,-1.126837
0.028200,-1.197920
0.028300,-1.199219
0.028400,-1.198569
0.028500,-1.228431
0.028600,-1.230054
0.028700,-1.228756
0.028800,-1.258293
0.028900,-1.271925
0.029000,-1.306655
0.029100,-1.318340
0.029200,-1.336192
0.029300,-1.360211
0.029400,-1.355667
0.029500,-1.403056
0.029600,-1.399810
0.029700,-1.478684
0.029800,-1.486799
0.029900,-1.528020
0.030000,-1.767887
0.030100,-1.970102
0.030200,-1.984059
0.030300,-1.729911
0.030400,-1.574760
0.030500,-1.606245
0.030600,-1.857796
0.030700,-2.126227
0.030800,-2.169396
0.030900,-2.054494
0.031000,-1.880842
0.031100,-1.827610
0.031200,-1.946408
0.031300,-2.084355
0.031400,-2.180107
0.031500,-2.151544
0.031600,-2.115840
0.031700,-2.069425
0.031800,-2.081759
0.031900,-2.130771
0.032000,-2.113243
0.032100,-2.112919
0.032200,-2.115515
0.032300,-2.202179
0.032400,-2.283325
0.032500,-2.332661
0.032600,-2.298905
0.032700,-2.235286
0.032800,-2.268719
0.032900,-2.280404
0.033000,-2.309616
0.033100,-2.269368
0.033200,-2.084355
0.033300,-2.118112
0.033400,-2.229444
0.033500,-2.435230
0.033600,-2.566362
0.033700,-2.443994
0.033800,-2.227821
0.033900,-2.138236
0.034000,-2.232041
0.034100,-2.392709
0.034200,-2.537474
0.034300,-2.528710
0.034400,-2.415430
0.034500,-2.321626
0.034600,-2.297282
0.034700,-2.319029
0.034800,-2.342074
0.034900,-2.311239
0.035000,-2.288194
0.035100,-2.284623
0.035200,-2.259630
0.035300,-2.210943
0.035400,-2.077539
0.035500,-1.973023
0.035600,-1.915248
0.035700,-1.889930
0.035800,-1.884412
0.035900,-1.882140
0.036000,-1.718875
0.036100,-1.640326
0.036200,-1.470245
0.036300,-1.444927
0.036400,-1.443629
0.036500,-1.416040
0.036600,-1.343009
0.036700,-1.264460
0.036800,-1.174875
0.036900,-1.115476
0.037000,-1.125863
0.037100,-1.131705
0.037200,-1.103467
0.037300,-1.080097
0.037400,-1.172927
0.037500,-1.058350
0.037600,-1.138846
0.037700,-1.046016
0.037800,-1.170655
0.037900,-1.079448
0.038000,-1.214149
0.038100,-1.209605
0.038200,-1.102168
0.038300,-1.004794
0.038400,-0.700011
0.038500,-0.624059
0.038600,-0.878531
0.038700,-1.145662
0.038800,-1.191429
0.038900,-0.897682
0.039000,-0.777911
0.039100,-0.537720
0.039200,-0.731171
0.039300,-0.860679
0.039400,-0.980775
0.039500,-0.884049
0.039600,-0.736040
0.039700,-0.643859
0.039800,-0.629577
0.039900,-0.665606
0.040000,-0.749997
0.040100,-0.698713
0.040200,-0.690923
0.040300,-0.706503
0.040400,-0.734092
0.040500,-0.777911
0.040600,-0.815238
0.040700,-0.791219
0.040800,-0.864899
0.040900,-0.929491
0.041000,-0.978827
0.041100,-1.048937
0.041200,-0.914560
0.041300,-1.008040
0.041400,-0.877882
0.041500,-1.127161
0.041600,-1.261863
0.041700,-1.253099
0.041800,-1.115476
0.041900,-0.844775
0.042000,-0.933710
0.042100,-1.093729
0.042200,-1.345281
0.042300,-1.354369
0.042400,-1.195648
0.042500,-1.038226
0.042600,-1.016479
0.042700,-1.153128
0.042800,-1.277443
0.042900,-1.221615
0.043000,-1.231352
0.043100,-1.142417
0.043200,-1.167734
0.043300,-1.215123
0.043400,-1.261214
0.043500,-1.279715
0.043600,-1.221939
0.043700,-1.210254
0.043800,-1.258617
0.043900,-1.252450
0.044000,-1.218044
0.044100,-1.185262
0.044200,-1.162216
0.044300,-1.259915
0.044400,-1.342359
0.044500,-1.333920
0.044600,-1.241739
0.044700,-1.188183
0.044800,-1.273872
0.044900,-1.283285
0.045000,-1.271925
0.045100,-1.263161
0.045200,-1.240765
0.045300,-1.280689
0.045400,-1.268679
0.045500,-1.301787
0.045600,-1.308278
0.045700,-1.332297
0.045800,-1.371572
0.045900,-1.434541
0.046000,-1.468946
0.046100,-1.468297
0.046200,-1.501080
0.046300,-1.551390
0.046400,-1.639352
0.046500,-1.666942
0.046600,-1.825663
0.046700,-2.079487
0.046800,-2.233339
0.046900,-2.194389
0.047000,-1.960040
0.047100,-1.879219
0.047200,-2.000288
0.047300,-2.326494
0.047400,-2.517025
0.047500,-2.549483
0.047600,-2.382647
0.047700,-2.234962
0.047800,-2.299229
0.047900,-2.438800
0.048000,-2.630954
0.048100,-2.684835
0.048200,-2.639068
0.048300,-2.583889
0.048400,-2.582591
0.048500,-2.673150
0.048600,-2.715021
0.048700,-2.730926
0.048800,-2.726057
0.048900,-2.714696
0.049000,-2.741961
0.049100,-2.796816
0.049200,-2.817265
0.049300,-2.813045
0.049400,-2.822783
0.049500,-2.835442
0.049600,-2.898086
0.049700,-2.865952
0.049800,-2.710152
0.049900,-2.546562
0.050000,-2.571555
0.050100,-2.711126
0.050200,-2.863680
0.050300,-2.920807
0.050400,-2.690353
0.050500,-2.501769
0.050600,-2.465091
0.050700,-2.608233
0.050800,-2.798764
0.050900,-2.866926
0.051000,-2.816940
0.051100,-2.673799
0.051200,-2.600767
0.051300,-2.672825
0.051400,-2.741637
0.051500,-2.758191
0.051600,-2.711775
0.051700,-2.689054
0.051800,-2.669579
0.051900,-2.632901
0.052000,-2.566037
0.052100,-2.436853
0.052200,-2.361874
0.052300,-2.364146
0.052400,-2.349864
0.052500,-2.337206
0.052600,-2.238532
0.052700,-2.074618
0.052800,-2.029176
0.052900,-1.790608
0.053000,-1.825663
0.053100,-1.764317
0.053200,-1.681873
0.053300,-1.576383
0.053400,-1.466999
0.053500,-1.382283
0.053600,-1.277118
0.053700,-1.260889
0.053800,-1.294970
0.053900,-1.251152
0.054000,-1.283285
0.054100,-1.240441
0.054200,-1.207982
0.054300,-1.211228
0.054400,-1.193701
0.054500,-1.221615
0.054600,-1.231352
0.054700,-1.306331
0.054800,-1.293023
0.054900,-1.254073
0.055000,-1.002846
0.055100,-0.839582
0.055200,-0.856784
0.055300,-1.150207
0.055400,-1.334894
0.055500,-1.199868
0.055600,-0.962598
0.055700,-0.829844
0.055800,-0.786026
0.055900,-0.953185
0.056000,-1.091782
0.056100,-1.135925
0.056200,-0.967467
0.056300,-0.856460
0.056400,-0.799009
0.056500,-0.805176
0.056600,-0.928192
0.056700,-0.989538
0.056800,-0.981749
0.056900,-0.944422
0.057000,-0.972336
0.057100,-0.949615
0.057200,-0.947992
0.057300,-0.947343
0.057400,-0.921701
0.057500,-1.105739
0.057600,-1.062245
0.057700,-1.116450
0.057800,-1.123266
0.057900,-1.017777
0.058000,-0.996030
0.058100,-0.978503
0.058200,-1.256020
0.058300,-1.285882
0.058400,-1.275495
0.058500,-1.046990
0.058600,-0.929491
0.058700,-0.987266
0.058800,-1.278741
0.058900,-1.372870
0.059000,-1.323534
0.059100,-1.126837
0.059200,-1.012259
0.059300,-1.083667
0.059400,-1.194674
0.059500,-1.304059
0.059600,-1.271600
0.059700,-1.268030
0.059800,-1.222913
0.059900,-1.295619
0.060000,-1.349825
0.060100,-1.408899
0.060200,-1.409548
0.060300,-1.376116
0.060400,-1.404355
0.060500,-1.416364
0.060600,-1.380335
0.060700,-1.315744
0.060800,-1.293672
0.060900,-1.294321
0.061000,-1.426102
0.061100,-1.437787
0.061200,-1.389424
0.061300,-1.288479
0.061400,-1.290426
0.061500,-1.352097
0.061600,-1.323209
0.061700,-1.306655
0.061800,-1.315419
0.061900,-1.289777
0.062000,-1.316393
0.062100,-1.337815
0.062200,-1.357290
0.062300,-1.407925
0.062400,-1.419935
0.062500,-1.485500
0.062600,-1.516660
0.062700,-1.539381
0.062800,-1.573137
0.062900,-1.583849
0.063000,-1.649739
0.063100,-1.652660
0.063200,-1.737376
0.063300,-1.897071
0.063400,-2.220031
0.063500,-2.301826
0.063600,-2.082732
0.063700,-1.938618
0.063800,-1.977243
0.063900,-2.172967
0.064000,-2.477101
0.064100,-2.627059
0.064200,-2.546237
0.064300,-2.446266
0.064400,-2.395306
0.064500,-2.559545
0.064600,-2.770849
0.064700,-2.897762
0.064800,-2.950669
0.064900,-2.885103
0.065000,-2.877313
0.065100,-2.911394
0.065200,-2.926974
0.065300,-2.991891
0.065400,-2.981180
0.065500,-2.962354
0.065600,-2.957485
0.065700,-3.010717
0.065800,-3.018507
0.065900,-2.995137
0.066000,-2.998058
0.066100,-2.975986
0.066200,-3.016235
0.066300,-3.052588
0.066400,-2.980531
0.066500,-2.793246
0.066600,-2.745532
0.066700,-2.822134
0.066800,-3.033762
0.066900,-3.179176
0.067000,-3.102574
0.067100,-2.864979
0.067200,-2.721837
0.067300,-2.783833
0.067400,-2.991566
0.067500,-3.155482
0.067600,-3.163596
0.067700,-3.042851
0.067800,-2.931843
0.067900,-2.888998
0.068000,-2.925676
0.068100,-2.946774
0.068200,-2.939633
0.068300,-2.906850
0.068400,-2.871470
0.068500,-2.810773
0.068600,-2.698792
0.068700,-2.530982
0.068800,-2.428414
0.068900,-2.366094
0.069000,-2.368690
0.069100,-2.322924
0.069200,-2.320003
0.069300,-2.197959
0.069400,-2.082732
0.069500,-2.108699
0.069600,-1.923362
0.069700,-1.960040
0.069800,-1.968804
0.069900,-1.899018
0.070000,-1.835725
0.070100,-1.739973
0.070200,-1.703944
0.070300,-1.674083
0.070400,-1.680574
0.070500,-1.710436
0.070600,-1.679601
0.070700,-1.732183
0.070800,-1.653634
0.070900,-1.636756
0.071000,-1.628316
0.071100,-1.572164
0.071200,-1.633834
0.071300,-1.578980
0.071400,-1.658178
0.071500,-1.477710
0.071600,-1.395915
0.071700,-1.039200
0.071800,-0.994407
0.071900,-1.110283
0.072000,-1.400460
0.072100,-1.429023
0.072200,-1.164488
0.072300,-0.929815
0.072400,-0.820107
0.072500,-0.824326
0.072600,-0.972336
0.072700,-1.079772
0.072800,-0.989214
0.072900,-0.842503
0.073000,-0.702283
0.073100,-0.663658
0.073200,-0.697090
0.073300,-0.711047
0.073400,-0.744804
0.073500,-0.659114
0.073600,-0.615295
0.073700,-0.595496
0.073800,-0.613673
0.073900,-0.594522
0.074000,-0.629252
0.074100,-0.710723
0.074200,-0.760708
0.074300,-0.747725
0.074400,-0.794465
0.074500,-0.718512
0.074600,-0.667553
0.074700,-0.689300
0.074800,-0.766875
0.074900,-1.025243
0.075000,-1.028164
0.075100,-0.926245
0.075200,-0.669501
0.075300,-0.680212
0.075400,-0.831467
0.075500,-1.097300
0.075600,-1.144364
0.075700,-1.023944
0.075800,-0.872040
0.075900,-0.808746
0.076000,-0.961300
0.076100,-1.070035
0.076200,-1.143715
0.076300,-1.140794
0.076400,-1.148908
0.076500,-1.151830
0.076600,-1.212851
0.076700,-1.244011
0.076800,-1.279066
0.076900,-1.210254
0.077000,-1.231028
0.077100,-1.265433
0.077200,-1.265758
0.077300,-1.190130
0.077400,-1.133653
0.077500,-1.120670
0.077600,-1.172927
0.077700,-1.292698
0.077800,-1.292698
0.077900,-1.259915
0.078000,-1.123591
0.078100,-1.162865
0.078200,-1.210579
0.078300,-1.200192
0.078400,-1.204736
0.078500,-1.209930
0.078600,-1.224861
0.078700,-1.219667
0.078800,-1.273223
0.078900,-1.316393
0.079000,-1.343658
0.079100,-1.367028
0.079200,-1.397863
0.079300,-1.422856
0.079400,-1.442655
0.079500,-1.466674
0.079600,-1.506923
0.079700,-1.531915
0.079800,-1.587419
0.079900,-1.599429
0.080000,-1.944785
0.080100,-2.103506
0.080200,-2.075267
0.080300,-1.900317
0.080400,-1.808135
0.080500,-1.896746
0.080600,-2.139859
0.080700,-2.400824
0.080800,-2.407640
0.080900,-2.295334
0.081000,-2.161606
0.081100,-2.202504
0.081200,-2.357979
0.081300,-2.565063
0.081400,-2.656920
0.081500,-2.628357
0.081600,-2.601092
0.081700,-2.583240
0.081800,-2.625760
0.081900,-2.681913
0.082000,-2.698792
0.082100,-2.708205
0.082200,-2.713073
0.082300,-2.749427
0.082400,-2.802983
0.082500,-2.786429
0.082600,-2.742935
0.082700,-2.728004
0.082800,-2.723785
0.082900,-2.777341
0.083000,-2.794869
0.083100,-2.691326
0.083200,-2.522867
0.083300,-2.535851
0.083400,-2.645885
0.083500,-2.844530
0.083600,-2.924378
0.083700,-2.728978
0.083800,-2.514753
0.083900,-2.444643
0.084000,-2.565388
0.084100,-2.749102
0.084200,-2.842582
0.084300,-2.808826
0.084400,-2.664386
0.084500,-2.566686
0.084600,-2.537474
0.084700,-2.571879
0.084800,-2.598171
0.084900,-2.561168
0.085000,-2.565388
0.085100,-2.534552
0.085200,-2.507937
0.085300,-2.429063
0.085400,-2.322599
0.085500,-2.251516
0.085600,-2.231391
0.085700,-2.212890
0.085800,-2.246647
0.085900,-2.214189
0.086000,-2.081434
0.086100,-2.075267
0.086200,-1.994446
0.086300,-1.925959
0.086400,-1.929529
0.086500,-1.901615
0.086600,-1.820469
0.086700,-1.725367
0.086800,-1.626044
0.086900,-1.547495
0.087000,-1.530617
0.087100,-1.527371
0.087200,-1.530942
0.087300,-1.511791
0.087400,-1.519257
0.087500,-1.450445
0.087600,-1.417338
0.087700,-1.407600
0.087800,-1.388775
0.087900,-1.421557
0.088000,-1.439085
0.088100,-1.511467
0.088200,-1.380011
0.088300,-1.239791
0.088400,-0.949615
0.088500,-0.933386
0.088600,-1.249529
0.088700,-1.480631
0.088800,-1.433892
0.088900,-1.192402
0.089000,-1.003820
0.089100,-0.950589
0.089200,-1.006741
0.089300,-1.230703
0.089400,-1.200517
0.089500,-1.150207
0.089600,-0.917481
0.089700,-0.897357
0.089800,-0.856460
0.089900,-0.823677
0.090000,-0.916508
0.090100,-0.936632
0.090200,-0.912288
0.090300,-0.891515
0.090400,-0.910665
0.090500,-0.904823
0.090600,-0.888918
0.090700,-0.986942
0.090800,-0.959352
0.090900,-1.088861
0.091000,-1.080746
0.091100,-1.174550
0.091200,-1.070359
0.091300,-1.110283
0.091400,-1.093729
0.091500,-1.374818
0.091600,-1.531266
0.091700,-1.480307
0.091800,-1.300164
0.091900,-1.118722
0.092000,-1.228756
0.092100,-1.442655
0.092200,-1.647791
0.092300,-1.609815
0.092400,-1.489071
0.092500,-1.367028
0.092600,-1.357939
0.092700,-1.478035
0.092800,-1.504001
0.092900,-1.491018
0.093000,-1.506598
0.093100,-1.465376
0.093200,-1.519581
0.093300,-1.539056
0.093400,-1.571515
0.093500,-1.530293
0.093600,-1.494913
0.093700,-1.546197
0.093800,-1.618904
0.093900,-1.628316
0.094000,-1.599104
0.094100,-1.595534
0.094200,-1.594884
0.094300,-1.761395
0.094400,-1.853577
0.094500,-1.870455
0.094600,-1.844813
0.094700,-1.752632
0.094800,-1.802942
0.094900,-1.832154
0.095000,-1.830856
0.095100,-1.831181
0.095200,-1.825338
0.095300,-1.801644
0.095400,-1.804889
0.095500,-1.791582
0.095600,-1.797749
0.095700,-1.794503
0.095800,-1.803916
0.095900,-1.797099
0.096000,-1.790932
0.096100,-1.799047
0.096200,-1.821768
0.096300,-1.847085
0.096400,-1.896097
0.096500,-1.896746
0.096600,-2.050923
0.096700,-2.259630
0.096800,-2.376480
0.096900,-2.174265
0.097000,-1.993148
0.097100,-1.922713
0.097200,-2.145702
0.097300,-2.407640
0.097400,-2.540395
0.097500,-2.513130
0.097600,-2.341425
0.097700,-2.209969
0.097800,-2.252165
0.097900,-2.464442
0.098000,-2.601741
0.098100,-2.624787
0.098200,-2.583564
0.098300,-2.520271
0.098400,-2.520271
0.098500,-2.572204
0.098600,-2.559545
0.098700,-2.554352
0.098800,-2.529359
0.098900,-2.531956
0.099000,-2.601092
0.099100,-2.620567
0.099200,-2.610180
0.099300,-2.617321
0.099400,-2.542018
0.099500,-2.612128
0.099600,-2.659517
0.099700,-2.628357
0.099800,-2.488462
0.099900,-2.373234
0.100000,-2.486189
0.100100,-2.659192
0.100200,-2.831871
0.100300,-2.806878
0.100400,-2.587135
0.100500,-2.417378
0.100600,-2.414456
0.100700,-2.564414
0.100800,-2.767928
0.100900,-2.818563
0.101000,-2.745856
0.101100,-2.604987
0.101200,-2.574801
0.101300,-2.626734
0.101400,-2.698467
0.101500,-2.686782
0.101600,-2.633875
0.101700,-2.619593
0.101800,-2.600118
0.101900,-2.550457
0.102000,-2.441072
0.102100,-2.311239
0.102200,-2.228470
0.102300,-2.168747
0.102400,-2.146351
0.102500,-2.142131
0.102600,-2.022685
0.102700,-1.850656
0.102800,-1.811057
0.102900,-1.564698
0.103000,-1.590665
0.103100,-1.530617
0.103200,-1.464727
0.103300,-1.346579
0.103400,-1.251476
0.103500,-1.119047
0.103600,-1.116126
0.103700,-1.098923
0.103800,-1.100870
0.103900,-1.093405
0.104000,-1.108660
0.104100,-1.116126
0.104200,-1.013882
0.104300,-1.047314
0.104400,-1.017128
0.104500,-1.033032
0.104600,-1.081071
0.104700,-1.111257
0.104800,-1.103467
0.104900,-0.953510
0.105000,-0.776937
0.105100,-0.632498
0.105200,-0.728575
0.105300,-1.161892
0.105400,-1.196622
0.105500,-1.183639
0.105600,-0.880154
0.105700,-0.769472
0.105800,-0.783753
0.105900,-0.952536
0.106000,-1.085290
0.106100,-1.120020
0.106200,-0.932087
0.106300,-0.798684
0.106400,-0.774341
0.106500,-0.833739
0.106600,-0.856460
0.106700,-0.887620
0.106800,-0.891839
0.106900,-0.836011
0.107000,-0.840231
0.107100,-0.857434
0.107200,-0.887295
0.107300,-0.875935
0.107400,-0.877558
0.107500,-1.040822
0.107600,-1.023944
0.107700,-1.070684
0.107800,-1.021348
0.107900,-0.983047
0.108000,-0.974608
0.108100,-1.107037
0.108200,-1.342035
0.108300,-1.430646
0.108400,-1.325806
0.108500,-1.130732
0.108600,-1.016803
0.108700,-1.166436
0.108800,-1.392345
0.108900,-1.538083
0.109000,-1.477386
0.109100,-1.323209
0.109200,-1.195324
0.109300,-1.272574
0.109400,-1.382608
0.109500,-1.468297
0.109600,-1.405004
0.109700,-1.408899
0.109800,-1.329376
0.109900,-1.395915
0.110000,-1.437137
0.110100,-1.477710
0.110200,-1.418961
0.110300,-1.375142
0.110400,-1.427075
0.110500,-1.440383
0.110600,-1.428698
0.110700,-1.418636
0.110800,-1.388125
0.110900,-1.401758
0.111000,-1.514388
0.111100,-1.543600
0.111200,-1.513090
0.111300,-1.392345
0.111400,-1.389424
0.111500,-1.456288
0.111600,-1.457262
0.111700,-1.461806
0.111800,-1.468946
0.111900,-1.468622
0.112000,-1.488746
0.112100,-1.511142
0.112200,-1.519257
0.112300,-1.521204
0.112400,-1.506923
0.112500,-1.518283
0.112600,-1.523152
0.112700,-1.507247
0.112800,-1.522503
0.112900,-1.553338
0.113000,-1.556908
0.113100,-1.630913
0.113200,-1.633834
0.113300,-1.863964
0.113400,-2.091821
0.113500,-2.155764
0.113600,-1.913625
0.113700,-1.760746
0.113800,-1.713033
0.113900,-1.920766
0.114000,-2.228146
0.114100,-2.295984
0.114200,-2.205749
0.114300,-2.047353
0.114400,-1.996393
0.114500,-2.134341
0.114600,-2.257034
0.114700,-2.387516
0.114800,-2.360900
0.114900,-2.317731
0.115000,-2.305721
0.115100,-2.351163
0.115200,-2.391736
0.115300,-2.410886
0.115400,-2.420624
0.115500,-2.422571
0.115600,-2.439449
0.115700,-2.505989
0.115800,-2.512156
0.115900,-2.503392
0.116000,-2.496901
0.116100,-2.535202
0.116200,-2.581617
0.116300,-2.634849
0.116400,-2.557598
0.116500,-2.411860
0.116600,-2.381998
0.116700,-2.474829
0.116800,-2.662763
0.116900,-2.774420
0.117000,-2.681913
0.117100,-2.475154
0.117200,-2.361549
0.117300,-2.406342
0.117400,-2.591679
0.117500,-2.747155
0.117600,-2.719890
0.117700,-2.603364
0.117800,-2.501445
0.117900,-2.491058
0.118000,-2.545264
0.118100,-2.579345
0.118200,-2.563765
0.118300,-2.542992
0.118400,-2.504366
0.118500,-2.470934
0.118600,-2.393359
0.118700,-2.271315
0.118800,-2.159983
0.118900,-2.113243
0.119000,-2.121682
0.119100,-2.088900
0.119200,-2.047353
0.119300,-1.883439
0.119400,-1.808135
0.119500,-1.691286
0.119600,-1.607868
0.119700,-1.590340
0.119800,-1.546846
0.119900,-1.436813
0.120000,-1.371572
0.120100,-1.246283
0.120200,-1.187534
0.120300,-1.129109
0.120400,-1.152154
0.120500,-1.139495
0.120600,-1.145013
0.120700,-1.109309
0.120800,-1.085290
0.120900,-1.019400
0.121000,-1.034980
0.121100,-0.977529
0.121200,-1.058999
0.121300,-1.017128
0.121400,-1.144040
0.121500,-1.004794
0.121600,-0.897033
0.121700,-0.630551
0.121800,-0.543238
0.121900,-0.782131
0.122000,-1.090808
0.122100,-1.028488
0.122200,-0.826274
0.122300,-0.643209
0.122400,-0.581864
0.122500,-0.639964
0.122600,-0.779858
0.122700,-0.862302
0.122800,-0.774665
0.122900,-0.635420
0.123000,-0.602961
0.123100,-0.589004
0.123200,-0.654894
0.123300,-0.626007
0.123400,-0.657491
0.123500,-0.637692
0.123600,-0.632498
0.123700,-0.666255
0.123800,-0.688002
0.123900,-0.645157
0.124000,-0.692221
0.124100,-0.832765
0.124200,-0.883400
0.124300,-0.916508
0.124400,-0.889567
0.124500,-0.852240
0.124600,-0.818484
0.124700,-0.909367
0.124800,-0.968441
0.124900,-1.275495
0.125000,-1.181691
0.125100,-1.047314
0.125200,-0.808746
0.125300,-0.906770
0.125400,-1.070684
0.125500,-1.330999
0.125600,-1.298541
0.125700,-1.186560
0.125800,-1.030111
0.125900,-0.999601
0.126000,-1.147935
0.126100,-1.232326
0.126200,-1.238493
0.126300,-1.202464
0.126400,-1.142092
0.126500,-1.175524
0.126600,-1.212202
0.126700,-1.242713
0.126800,-1.249204
0.126900,-1.186560
0.127000,-1.221615
0.127100,-1.252125
0.127200,-1.257968
0.127300,-1.206359
0.127400,-1.183639
0.127500,-1.186235
0.127600,-1.285882
0.127700,-1.395266
0.127800,-1.366054
0.127900,-1.309577
0.128000,-1.235572
0.128100,-1.267056
0.128200,-1.297242
0.128300,-1.273223
0.128400,-1.262512
0.128500,-1.271925
0.128600,-1.228106
0.128700,-1.266083
0.128800,-1.254722
0.128900,-1.267381
0.129000,-1.269977
0.129100,-1.283610
0.129200,-1.295295
0.129300,-1.295619
0.129400,-1.284584
0.129500,-1.364756
0.129600,-1.353395
0.129700,-1.415715
0.129800,-1.422207
0.129900,-1.517309
0.130000,-1.753281
0.130100,-1.937968
0.130200,-1.814952
0.130300,-1.590989
0.130400,-1.497510
0.130500,-1.566970
0.130600,-1.862665
0.130700,-2.051248
0.130800,-2.028202
0.130900,-1.871754
0.131000,-1.728613
0.131100,-1.726016
0.131200,-1.907458
0.131300,-2.076890
0.131400,-2.060012
0.131500,-2.058713
0.131600,-1.966532
0.131700,-2.035668
0.131800,-2.081759
0.131900,-2.108050
0.132000,-2.131744
0.132100,-2.078188
0.132200,-2.073320
0.132300,-2.123305
0.132400,-2.196337
0.132500,-2.186274
0.132600,-2.132718
0.132700,-2.091821
0.132800,-2.125253
0.132900,-2.142131
0.133000,-2.199258
0.133100,-2.052546
0.133200,-1.913949
0.133300,-1.935696
0.133400,-2.075267
0.133500,-2.259955
0.133600,-2.265797
0.133700,-2.079811
0.133800,-1.882465
0.133900,-1.833128
0.134000,-1.989902
0.134100,-2.200232
0.134200,-2.287220
0.134300,-2.179458
0.134400,-2.017491
0.134500,-1.947381
0.134600,-1.955496
0.134700,-2.058389
0.134800,-2.074618
0.134900,-2.058713
0.135000,-2.055143
0.135100,-2.027553
0.135200,-2.004183
0.135300,-1.952899
0.135400,-1.826637
0.135500,-1.779247
0.135600,-1.745815
0.135700,-1.761395
0.135800,-1.761071
0.135900,-1.717901
0.136000,-1.592288
0.136100,-1.589367
0.136200,-1.397214
0.136300,-1.453042
0.136400,-1.431944
0.136500,-1.430970
0.136600,-1.352746
0.136700,-1.303734
0.136800,-1.211877
0.136900,-1.196946
0.137000,-1.241414
0.137100,-1.266407
0.137200,-1.281013
0.137300,-1.300813
0.137400,-1.278417
0.137500,-1.326779
0.137600,-1.273548
0.137700,-1.333920
0.137800,-1.311199
0.137900,-1.352097
0.138000,-1.446550
0.138100,-1.375467
0.138200,-1.357290
0.138300,-1.095677
0.138400,-0.915534
0.138500,-0.950913
0.138600,-1.241090
0.138700,-1.535161
0.138800,-1.321586
0.138900,-1.201815
0.139000,-0.948641
0.139100,-0.962274
0.139200,-1.117424
0.139300,-1.253424
0.139400,-1.337491
0.139500,-1.234598
0.139600,-1.083992
0.139700,-1.040173
0.139800,-1.003171
0.139900,-1.146312
0.140000,-1.139171
0.140100,-1.188183
0.140200,-1.154751
0.140300,-1.107686
0.140400,-1.112880
0.140500,-1.150856
0.140600,-1.159944
0.140700,-1.231352
0.140800,-1.329376
0.140900,-1.222913
0.141000,-1.342684
0.141100,-1.278092
0.141200,-1.255696
0.141300,-1.224211
0.141400,-1.298541
0.141500,-1.522827
0.141600,-1.615658
0.141700,-1.546522
0.141800,-1.331324
0.141900,-1.180717
0.142000,-1.260565
0.142100,-1.510818
0.142200,-1.698426
0.142300,-1.618579
0.142400,-1.454340
0.142500,-1.341061
0.142600,-1.430970
0.142700,-1.534188
0.142800,-1.605596
0.142900,-1.571515
0.143000,-1.632211
0.143100,-1.561128
0.143200,-1.622149
0.143300,-1.627992
0.143400,-1.662398
0.143500,-1.668889
0.143600,-1.671486
0.143700,-1.694531
0.143800,-1.728613
0.143900,-1.694856
0.144000,-1.647467
0.144100,-1.642598
0.144200,-1.616956
0.144300,-1.744517
0.144400,-1.803591
0.144500,-1.797749
0.144600,-1.698426
0.144700,-1.652336
0.144800,-1.682846
0.144900,-1.697453
0.145000,-1.706216
0.145100,-1.688689
0.145200,-1.685118
0.145300,-1.697128
0.145400,-1.658178
0.145500,-1.664670
0.145600,-1.645519
0.145700,-1.652660
0.145800,-1.641949
0.145900,-1.624422
0.146000,-1.678951
0.146100,-1.613061
0.146200,-1.692259
0.146300,-1.658503
0.146400,-1.744842
0.146500,-1.726340
0.146600,-1.888956
0.146700,-2.157062
0.146800,-2.145377
0.146900,-1.992498
0.147000,-1.789634
0.147100,-1.822417
0.147200,-2.005482
0.147300,-2.221654
0.147400,-2.375506
0.147500,-2.276509
0.147600,-2.107401
0.147700,-1.997367
0.147800,-2.074942
0.147900,-2.230418
0.148000,-2.365444
0.148100,-2.326170
0.148200,-2.266446
0.148300,-2.226847
0.148400,-2.227496
0.148500,-2.255735
0.148600,-2.282351
0.148700,-2.262551
0.148800,-2.273587
0.148900,-2.276833
0.149000,-2.316432
0.149100,-2.304423
0.149200,-2.390762
0.149300,-2.335583
0.149400,-2.350838
0.149500,-2.420299
0.149600,-2.414781
0.149700,-2.393034
0.149800,-2.188547
0.149900,-2.117463
0.150000,-2.148947
0.150100,-2.352136
0.150200,-2.463144
0.150300,-2.433282
0.150400,-2.194064
0.150500,-2.017816
0.150600,-2.060012
0.150700,-2.276509
0.150800,-2.420299
0.150900,-2.427764
0.151000,-2.296957
0.151100,-2.168422
0.151200,-2.149597
0.151300,-2.155114
0.151400,-2.154141
0.151500,-2.117138
0.151600,-2.122656
0.151700,-2.119086
0.151800,-2.076890
0.151900,-2.030799
0.152000,-1.913300
0.152100,-1.811057
0.152200,-1.779247
0.152300,-1.766589
0.152400,-1.790932
0.152500,-1.804240
0.152600,-1.708164
0.152700,-1.591314
0.152800,-1.570541
0.152900,-1.382283
0.153000,-1.430646
0.153100,-1.403056
0.153200,-1.364756
0.153300,-1.310550
0.153400,-1.182016
0.153500,-1.142417
0.153600,-1.157997
0.153700,-1.143390
0.153800,-1.214474
0.153900,-1.156049
0.154000,-1.250178
0.154100,-1.211877
0.154200,-1.229405
0.154300,-1.237844
0.154400,-1.244335
0.154500,-1.359238
0.154600,-1.346254
0.154700,-1.403381
0.154800,-1.355992
0.154900,-1.200841
0.155000,-1.058674
0.155100,-0.940202
0.155200,-1.257319
0.155300,-1.429997
0.155400,-1.586121
0.155500,-1.330999
0.155600,-1.195973
0.155700,-1.133004
0.155800,-1.228431
0.155900,-1.458235
0.156000,-1.558531
0.156100,-1.503677
0.156200,-1.422531
0.156300,-1.268355
0.156400,-1.305357
0.156500,-1.332297
0.156600,-1.460832
0.156700,-1.428698
0.156800,-1.434865
0.156900,-1.401109
0.157000,-1.400135
0.157100,-1.394942
0.157200,-1.386503
0.157300,-1.432918
0.157400,-1.471543
0.157500,-1.548794
0.157600,-1.504001
0.157700,-1.532565
0.157800,-1.489071
0.157900,-1.392345
0.158000,-1.489071
0.158100,-1.464727
0.158200,-1.867534
0.158300,-1.785415
0.158400,-1.698426
0.158500,-1.440059
0.158600,-1.408899
0.158700,-1.547820
0.158800,-1.783142
0.158900,-1.840918
0.159000,-1.737052
0.159100,-1.539056
0.159200,-1.488097
0.159300,-1.558207
0.159400,-1.644221
0.159500,-1.676030
0.159600,-1.595858
0.159700,-1.581577
0.159800,-1.528345
0.159900,-1.614035
0.160000,-1.627667
0.160100,-1.625071
0.160200,-1.538732
0.160300,-1.556584
0.160400,-1.619877
0.160500,-1.625720
0.160600,-1.576059
0.160700,-1.551390
0.160800,-1.528020
0.160900,-1.533863
0.161000,-1.655906
0.161100,-1.630913
0.161200,-1.614035
0.161300,-1.447524
0.161400,-1.460832
0.161500,-1.491343
0.161600,-1.446550
0.161700,-1.439085
0.161800,-1.426426
0.161900,-1.391371
0.162000,-1.387801
0.162100,-1.355343
0.162200,-1.324832
0.162300,-1.314770
0.162400,-1.279715
0.162500,-1.227133
0.162600,-1.211553
0.162700,-1.129109
0.162800,-1.155725
0.162900,-1.119696
0.163000,-1.148908
0.163100,-1.132679
0.163200,-1.112555
0.163300,-1.325806
0.163400,-1.396240
0.163500,-1.387152
0.163600,-1.110283
0.163700,-1.022646
0.163800,-1.040498
0.163900,-1.182989
0.164000,-1.421557
0.164100,-1.423180
0.164200,-1.324507
0.164300,-1.154102
0.164400,-1.152154
0.164500,-1.269653
0.164600,-1.406627
0.164700,-1.514063
0.164800,-1.491992
0.164900,-1.491343
0.165000,-1.452393
0.165100,-1.488097
0.165200,-1.508546
0.165300,-1.531915
0.165400,-1.519257
0.165500,-1.518283
0.165600,-1.500106
0.165700,-1.505949
0.165800,-1.595858
0.165900,-1.535486
0.166000,-1.559830
0.166100,-1.575085
0.166200,-1.608192
0.166300,-1.622149
0.166400,-1.530617
0.166500,-1.411820
0.166600,-1.419935
0.166700,-1.602999
0.166800,-1.845787
0.166900,-1.911028
0.167000,-1.850656
0.167100,-1.620527
0.167200,-1.578980
0.167300,-1.689338
0.167400,-1.916546
0.167500,-2.088900
0.167600,-2.072670
0.167700,-1.945109
0.167800,-1.879219
0.167900,-1.874999
0.168000,-1.946408
0.168100,-2.008727
0.168200,-2.030799
0.168300,-2.012298
0.168400,-1.984708
0.168500,-1.977568
0.168600,-1.906808
0.168700,-1.795477
0.168800,-1.707515
0.168900,-1.669538
0.169000,-1.683171
0.169100,-1.696803
0.169200,-1.681548
0.169300,-1.536460
0.169400,-1.480631
0.169500,-1.349500
0.169600,-1.319963
0.169700,-1.295295
0.169800,-1.261538
0.169900,-1.175199
0.170000,-1.110283
0.170100,-1.011935
0.170200,-0.966169
0.170300,-0.921376
0.170400,-0.955133
0.170500,-0.908068
0.170600,-0.958054
0.170700,-0.925596
0.170800,-0.927868
0.170900,-0.863925
0.171000,-0.878856
0.171100,-0.867171
0.171200,-0.902226
0.171300,-1.002197
0.171400,-0.973309
0.171500,-0.932737
0.171600,-0.787973
0.171700,-0.529281
0.171800,-0.560117
0.171900,-0.696441
0.172000,-1.079123
0.172100,-0.853539
0.172200,-0.806474
0.172300,-0.565310
0.172400,-0.524413
0.172500,-0.607181
0.172600,-0.704555
0.172700,-0.827247
0.172800,-0.690923
0.172900,-0.634121
0.173000,-0.584785
0.173100,-0.551028
0.173200,-0.578293
0.173300,-0.626007
0.173400,-0.676966
0.173500,-0.665281
0.173600,-0.727601
0.173700,-0.798360
0.173800,-0.815887
0.173900,-0.870417
0.174000,-0.878207
0.174100,-1.055104
0.174200,-1.056078
0.174300,-1.194674
0.174400,-1.194025
0.174500,-1.196297
0.174600,-1.188832
0.174700,-1.276794
0.174800,-1.445901
0.174900,-1.652011
0.175000,-1.632861
0.175100,-1.452717
0.175200,-1.374168
0.175300,-1.422207
0.175400,-1.613386
0.175500,-1.876947
0.175600,-1.881166
0.175700,-1.825987
0.175800,-1.676679
0.175900,-1.710760
0.176000,-1.791906
0.176100,-1.902913
0.176200,-1.911353
0.176300,-1.973997
0.176400,-1.911677
0.176500,-1.954198
0.176600,-1.975295
0.176700,-2.017816
0.176800,-2.033396
0.176900,-1.978217
0.177000,-2.001911
0.177100,-2.011649
0.177200,-1.986656
0.177300,-1.963610
0.177400,-1.941214
0.177500,-1.937644
0.177600,-2.035992
0.177700,-2.087601
0.177800,-2.062284
0.177900,-1.982761
0.178000,-1.907458
0.178100,-1.918493
0.178200,-1.925959
0.178300,-1.883439
0.178400,-1.870455
0.178500,-1.847085
0.178600,-1.828584
0.178700,-1.804889
0.178800,-1.796450
0.178900,-1.756851
0.179000,-1.749386
0.179100,-1.726990
0.179200,-1.717577
0.179300,-1.685118
0.179400,-1.696154
0.179500,-1.694207
0.179600,-1.720823
0.179700,-1.711410
0.179800,-1.737376
0.179900,-1.843515
0.180000,-2.087601
0.180100,-2.225224
0.180200,-2.037615
0.180300,-1.887009
0.180400,-1.778923
0.180500,-1.931152
0.180600,-2.169721
0.180700,-2.344996
0.180800,-2.371936
0.180900,-2.201205
0.181000,-2.103830
0.181100,-2.114217
0.181200,-2.309291
0.181300,-2.460547
0.181400,-2.494953
0.181500,-2.488786
0.181600,-2.442371
0.181700,-2.502743
0.181800,-2.571879
0.181900,-2.557922
0.182000,-2.611803
0.182100,-2.584538
0.182200,-2.603040
0.182300,-2.629331
0.182400,-2.702362
0.182500,-2.657570
0.182600,-2.635173
0.182700,-2.607584
0.182800,-2.675746
0.182900,-2.677045
0.183000,-2.677369
0.183100,-2.496252
0.183200,-2.380375
0.183300,-2.468662
0.183400,-2.636796
0.183500,-2.730601
0.183600,-2.677369
0.183700,-2.502419
0.183800,-2.305396
0.183900,-2.291115
0.184000,-2.433607
0.184100,-2.564089
0.184200,-2.611154
0.184300,-2.493655
0.184400,-2.371287
0.184500,-2.334609
0.184600,-2.321626
0.184700,-2.336881
0.184800,-2.306370
0.184900,-2.286571
0.185000,-2.278456
0.185100,-2.242427
0.185200,-2.213215
0.185300,-2.151219
0.185400,-2.031773
0.185500,-1.971725
0.185600,-1.947706
0.185700,-1.987305
0.185800,-2.013596
0.185900,-1.943162
0.186000,-1.824040
0.186100,-1.798722
0.186200,-1.601376
0.186300,-1.671161
0.186400,-1.636431
0.186500,-1.635133
0.186600,-1.547820
0.186700,-1.481281
0.186800,-1.442006
0.186900,-1.434216
0.187000,-1.474464
0.187100,-1.464727
0.187200,-1.519906
0.187300,-1.513090
0.187400,-1.514388
0.187500,-1.481281
0.187600,-1.457586
0.187700,-1.461481
0.187800,-1.456288
0.187900,-1.495887
0.188000,-1.503352
0.188100,-1.481281
0.188200,-1.344631
0.188300,-1.157023
0.188400,-0.931763
0.188500,-1.036927
0.188600,-1.280689
0.188700,-1.377739
0.188800,-1.108011
0.188900,-0.922025
0.189000,-0.746102
0.189100,-0.753243
0.189200,-0.837959
0.189300,-0.963247
0.189400,-0.902226
0.189500,-0.739286
0.189600,-0.673396
0.189700,-0.596145
0.189800,-0.664632
0.189900,-0.682808
0.190000,-0.678914
0.190100,-0.659114
0.190200,-0.636393
0.190300,-0.635420
0.190400,-0.660088
0.190500,-0.726627
0.190600,-0.749023
0.190700,-0.771419
0.190800,-0.866846
0.190900,-0.950264
0.191000,-0.958703
0.191100,-0.992784
0.191200,-0.913586
0.191300,-0.979476
0.191400,-1.022646
0.191500,-1.362483
0.191600,-1.407276
0.191700,-1.333596
0.191800,-1.063219
0.191900,-1.055429
0.192000,-1.131705
0.192100,-1.361185
0.192200,-1.487123
0.192300,-1.398512
0.192400,-1.232001
0.192500,-1.090159
0.192600,-1.180717
0.192700,-1.290102
0.192800,-1.366054
0.192900,-1.287830
0.193000,-1.260889
0.193100,-1.199219
0.193200,-1.271276
0.193300,-1.285557
0.193400,-1.300164
0.193500,-1.211553
0.193600,-1.190455
0.193700,-1.221290
0.193800,-1.232975
0.193900,-1.190130
0.194000,-1.164813
0.194100,-1.149882
0.194200,-1.182016
0.194300,-1.294646
0.194400,-1.334569
0.194500,-1.321261
0.194600,-1.319963
0.194700,-1.245958
0.194800,-1.302436
0.194900,-1.318016
0.195000,-1.337166
0.195100,-1.329376
0.195200,-1.332622
0.195300,-1.368975
0.195400,-1.397538
0.195500,-1.392020
0.195600,-1.379686
0.195700,-1.386503
0.195800,-1.430970
0.195900,-1.465051
0.196000,-1.479333
0.196100,-1.482254
0.196200,-1.514063
0.196300,-1.558207
0.196400,-1.557233
0.196500,-1.625720
0.196600,-1.785739
0.196700,-2.049300
0.196800,-2.005482
0.196900,-1.847734
0.197000,-1.709787
0.197100,-1.685118
0.197200,-1.841892
0.197300,-2.059687
0.197400,-2.148623
0.197500,-2.053520
0.197600,-1.922713
0.197700,-1.856498
0.197800,-1.949004
0.197900,-2.106102
0.198000,-2.210294
0.198100,-2.176212
0.198200,-2.104155
0.198300,-2.049950
0.198400,-2.089549
0.198500,-2.113892
0.198600,-2.111620
0.198700,-2.112919
0.198800,-2.072670
0.198900,-2.025930
0.199000,-2.074942
0.199100,-2.193415
0.199200,-2.197959
0.199300,-2.157387
0.199400,-2.140508
0.199500,-2.182055
0.199600,-2.212566
0.199700,-2.144079
0.199800,-2.008078
0.199900,-1.948030
0.200000,-2.082408
0.200100,-2.333311
0.200200,-2.415755
0.200300,-2.374208
0.200400,-2.135964
0.200500,-2.008727
0.200600,-2.048976
0.200700,-2.273263
0.200800,-2.456977
0.200900,-2.446915
0.201000,-2.301177
0.201100,-2.196012
0.201200,-2.165177
0.201300,-2.205749
0.201400,-2.267096
0.201500,-2.272938
0.201600,-2.245673
0.201700,-2.207048
0.201800,-2.159334
0.201900,-2.087601
0.202000,-1.966532
0.202100,-1.887009
0.202200,-1.852928
0.202300,-1.826637
0.202400,-1.809109
0.202500,-1.767562
0.202600,-1.616307
0.202700,-1.535486
0.202800,-1.501729
0.202900,-1.309901
0.203000,-1.314121
0.203100,-1.277443
0.203200,-1.222588
0.203300,-1.140794
0.203400,-1.011610
0.203500,-0.922675
0.203600,-0.888269
0.203700,-0.934684
0.203800,-0.944097
0.203900,-0.938255
0.204000,-0.949290
0.204100,-0.896708
0.204200,-0.869443
0.204300,-0.865224
0.204400,-0.917806
0.204500,-0.962923
0.204600,-1.027839
0.204700,-1.009987
0.204800,-1.007390
0.204900,-0.776288
0.205000,-0.567906
0.205100,-0.434179
0.205200,-0.689949
0.205300,-0.834064
0.205400,-0.860679
0.205500,-0.715591
0.205600,-0.510780
0.205700,-0.396852
0.205800,-0.461119
0.205900,-0.591276
0.206000,-0.664956
0.206100,-0.537396
0.206200,-0.441969
0.206300,-0.305320
0.206400,-0.296232
0.206500,-0.358876
0.206600,-0.496498
0.206700,-0.477997
0.206800,-0.470857
0.206900,-0.444565
0.207000,-0.459821
0.207100,-0.453005
0.207200,-0.523114
0.207300,-0.579591
0.207400,-0.632498
0.207500,-0.722732
0.207600,-0.708450
0.207700,-0.848345
0.207800,-0.726627
0.207900,-0.740584
0.208000,-0.738961
0.208100,-0.871715
0.208200,-1.128784
0.208300,-1.092756
0.208400,-0.972336
0.208500,-0.741233
0.208600,-0.817510
0.208700,-1.010636
0.208800,-1.264460
0.208900,-1.282636
0.209000,-1.158321
0.209100,-0.982398
0.209200,-0.984345
0.209300,-1.092431
0.209400,-1.202789
0.209500,-1.234273
0.209600,-1.256994
0.209700,-1.212851
0.209800,-1.199868
0.209900,-1.266732
0.210000,-1.332622
0.210100,-1.368651
0.210200,-1.340736
0.210300,-1.380660
0.210400,-1.429023
0.210500,-1.432593
0.210600,-1.394293
0.210700,-1.417338
0.210800,-1.419935
0.210900,-1.527371
0.211000,-1.618254
0.211100,-1.614684
0.211200,-1.625395
0.211300,-1.498808
0.211400,-1.545223
0.211500,-1.584822
0.211600,-1.551390
0.211700,-1.563075
0.211800,-1.536460
0.211900,-1.531915
0.212000,-1.518608
0.212100,-1.518608
0.212200,-1.510818
0.212300,-1.486799
0.212400,-1.517958
0.212500,-1.484851
0.212600,-1.504975
0.212700,-1.501080
0.212800,-1.514713
0.212900,-1.551390
0.213000,-1.554961
0.213100,-1.650388
0.213200,-1.712383
0.213300,-2.002885
0.213400,-2.146351
0.213500,-2.111296
0.213600,-1.914274
0.213700,-1.853901
0.213800,-1.984384
0.213900,-2.281377
0.214000,-2.459574
0.214100,-2.531307
0.214200,-2.387516
0.214300,-2.242103
0.214400,-2.259306
0.214500,-2.416079
0.214600,-2.578696
0.214700,-2.670228
0.214800,-2.616997
0.214900,-2.576748
0.215000,-2.562142
0.215100,-2.597197
0.215200,-2.652701
0.215300,-2.631603
0.215400,-2.654324
0.215500,-2.648481
0.215600,-2.634849
0.215700,-2.693923
0.215800,-2.714047
0.215900,-2.706582
0.216000,-2.666009
0.216100,-2.717618
0.216200,-2.783184
0.216300,-2.782859
0.216400,-2.652376
0.216500,-2.458600
0.216600,-2.519297
0.216700,-2.704634
0.216800,-2.873093
0.216900,-2.886077
0.217000,-2.710152
0.217100,-2.488462
0.217200,-2.446915
0.217300,-2.586810
0.217400,-2.782210
0.217500,-2.847451
0.217600,-2.772148
0.217700,-2.642963
0.217800,-2.533579
0.217900,-2.521569
0.218000,-2.532929
0.218100,-2.533254
0.218200,-2.534552
0.218300,-2.491058
0.218400,-2.430361
0.218500,-2.324547
0.218600,-2.210294
0.218700,-2.054818
0.218800,-1.941863
0.218900,-1.879544
0.219000,-1.849682
0.219100,-1.807811
0.219200,-1.745491
0.219300,-1.540030
0.219400,-1.496211
0.219500,-1.318989
0.219600,-1.313796
0.219700,-1.314121
0.219800,-1.298541
0.219900,-1.225510
0.220000,-1.151830
0.220100,-1.051858
0.220200,-1.055429
0.220300,-1.085939
0.220400,-1.155075
0.220500,-1.184937
0.220600,-1.208307
0.220700,-1.295295
0.220800,-1.267056
0.220900,-1.298216
0.221000,-1.309901
0.221100,-1.342359
0.221200,-1.448173
0.221300,-1.486149
0.221400,-1.524775
0.221500,-1.425128
0.221600,-1.186560
0.221700,-1.020374
0.221800,-0.978178
0.221900,-1.198245
0.222000,-1.454340
0.222100,-1.266083
0.222200,-1.103791
0.222300,-0.901252
0.222400,-0.858407
0.222500,-0.925596
0.222600,-1.053481
0.222700,-1.126512
0.222800,-1.013233
0.222900,-0.896708
0.223000,-0.840231
0.223100,-0.879181
0.223200,-0.953185
0.223300,-0.977204
0.223400,-1.069386
0.223500,-1.109634
0.223600,-1.136250
0.223700,-1.176173
0.223800,-1.259591
0.223900,-1.324507
0.224000,-1.353720
0.224100,-1.475763
0.224200,-1.607868
0.224300,-1.709138
0.224400,-1.761395
0.224500,-1.719524
0.224600,-1.689663
0.224700,-1.751333
0.224800,-2.012622
0.224900,-2.145377
0.225000,-2.075592
0.225100,-1.887333
0.225200,-1.759448
0.225300,-1.867534
0.225400,-2.062284
0.225500,-2.244699
0.225600,-2.180757
0.225700,-2.057090
0.225800,-1.910054
0.225900,-1.923687
0.226000,-2.040537
0.226100,-2.173940
0.226200,-2.174914
0.226300,-2.242427
0.226400,-2.208995
0.226500,-2.276184
0.226600,-2.330389
0.226700,-2.405368
0.226800,-2.392385
0.226900,-2.388814
0.227000,-2.443344
0.227100,-2.477101
0.227200,-2.443020
0.227300,-2.366743
0.227400,-2.336556
0.227500,-2.277158
0.227600,-2.336232
0.227700,-2.330714
0.227800,-2.277482
0.227900,-2.119410
0.228000,-1.992174
0.228100,-1.955171
0.228200,-1.934073
0.228300,-1.855849
0.228400,-1.818197
0.228500,-1.728613
0.228600,-1.690961
0.228700,-1.649739
0.228800,-1.613386
0.228900,-1.539056
0.229000,-1.482254
0.229100,-1.392994
0.229200,-1.386503
0.229300,-1.300488
0.229400,-1.310226
0.229500,-1.261863
0.229600,-1.327753
0.229700,-1.306655
0.229800,-1.355667
0.229900,-1.493290
0.230000,-1.755553
0.230100,-1.736403
0.230200,-1.570216
0.230300,-1.334245
0.230400,-1.322884
0.230500,-1.473815
0.230600,-1.711734
0.230700,-1.847085
0.230800,-1.824040
0.230900,-1.668889
0.231000,-1.606894
0.231100,-1.660775
0.231200,-1.845787
0.231300,-1.959066
0.231400,-2.019114
0.231500,-1.940241
0.231600,-1.933100
0.231700,-1.924985
0.231800,-1.956470
0.231900,-2.032422
0.232000,-2.048327
0.232100,-2.070723
0.232200,-2.078837
0.232300,-2.114217
0.232400,-2.189845
0.232500,-2.165501
0.232600,-2.159983
0.232700,-2.207048
0.232800,-2.263201
0.232900,-2.319678
0.233000,-2.307344
0.233100,-2.154465
0.233200,-2.120709
0.233300,-2.206723
0.233400,-2.398227
0.233500,-2.530657
0.233600,-2.447889
0.233700,-2.295334
0.233800,-2.122007
0.233900,-2.125577
0.234000,-2.277482
0.234100,-2.421922
0.234200,-2.491383
0.234300,-2.409588
0.234400,-2.252814
0.234500,-2.133367
0.234600,-2.066503
0.234700,-2.060661
0.234800,-1.991525
0.234900,-1.928231
0.235000,-1.826961
0.235100,-1.705892
0.235200,-1.614359
0.235300,-1.427400
0.235400,-1.235896
0.235500,-1.099247
0.235600,-1.003171
0.235700,-0.928517
0.235800,-0.868145
0.235900,-0.710723
0.236000,-0.521816
0.236100,-0.451706
0.236200,-0.189120
0.236300,-0.188470
0.236400,-0.123879
0.236500,-0.018065
0.236600,0.089372
0.236700,0.241600
0.236800,0.320474
0.236900,0.399996
0.237000,0.412655
0.237100,0.393180
0.237200,0.407786
0.237300,0.389934
0.237400,0.394478
0.237500,0.442192
0.237600,0.410058
0.237700,0.413629
0.237800,0.384092
0.237900,0.339948
0.238000,0.358774
0.238100,0.281524
0.238200,0.493476
0.238300,0.536970
0.238400,0.680759
0.238500,0.477571
0.238600,0.228292
0.238700,0.065677
0.238800,0.213686
0.238900,0.332159
0.239000,0.373380
0.239100,0.356827
0.239200,0.078660
0.239300,-0.043707
0.239400,-0.131993
0.239500,-0.094342
0.239600,-0.068700
0.239700,-0.057989
0.239800,-0.141406
0.239900,-0.264098
0.240000,-0.393606
0.240100,-0.486436
0.240200,-0.526035
0.240300,-0.606532
0.240400,-0.707152
0.240500,-0.771419
0.240600,-0.789596
0.240700,-0.890541
0.240800,-1.117424
0.240900,-1.215772
0.241000,-1.307954
0.241100,-1.249204
0.241200,-1.304059
0.241300,-1.274197
0.241400,-1.524775
0.241500,-1.706865
0.241600,-1.757500
0.241700,-1.677653
0.241800,-1.403056
0.241900,-1.471219
0.242000,-1.613386
0.242100,-1.772107
0.242200,-1.829882
0.242300,-1.766913
0.242400,-1.662722
0.242500,-1.594235
0.242600,-1.613710
0.242700,-1.652660
0.242800,-1.706541
0.242900,-1.719849
0.243000,-1.714006
0.243100,-1.676355
0.243200,-1.675056
0.243300,-1.704269
0.243400,-1.721796
0.243500,-1.660126
0.243600,-1.662073
0.243700,-1.665643
0.243800,-1.632861
0.243900,-1.569892
0.244000,-1.499457
0.244100,-1.456288
0.244200,-1.474464
0.244300,-1.530617
0.244400,-1.522827
0.244500,-1.471219
0.244600,-1.267705
0.244700,-1.250827
0.244800,-1.227782
0.244900,-1.200841
0.245000,-1.155400
0.245100,-1.095352
0.245200,-1.092756
0.245300,-1.072631
0.245400,-1.057376
0.245500,-1.048288
0.245600,-1.025243
0.245700,-1.009013
0.245800,-1.006417
0.245900,-1.014856
0.246000,-1.020049
0.246100,-1.010636
0.246200,-1.022646
0.246300,-1.085939
0.246400,-1.095677
0.246500,-1.152154
0.246600,-1.332622
0.246700,-1.617281
0.246800,-1.535161
0.246900,-1.451094
0.247000,-1.284908
0.247100,-1.392670
0.247200,-1.623123
0.247300,-1.849033
0.247400,-2.006131
0.247500,-1.920766
0.247600,-1.826312
0.247700,-1.812030
0.247800,-1.978866
0.247900,-2.160308
0.248000,-2.308318
0.248100,-2.328766
0.248200,-2.357005
0.248300,-2.352136
0.248400,-2.466390
0.248500,-2.576099
0.248600,-2.579345
0.248700,-2.613751
0.248800,-2.660815
0.248900,-2.771174
0.249000,-2.895165
0.249100,-2.912043
0.249200,-2.883155
0.249300,-2.950344
0.249400,-3.029543
0.249500,-3.113610
0.249600,-3.125944
0.249700,-3.014287
0.249800,-2.850372
0.249900,-2.910420
0.250000,-3.035710
0.250100,-3.243444
0.250200,-3.285315
0.250300,-3.130489
0.250400,-2.914965
0.250500,-2.860759
0.250600,-2.907824
0.250700,-3.017533
0.250800,-3.049992
0.250900,-3.008120
0.251000,-2.947098
0.251100,-2.811422
0.251200,-2.713723
0.251300,-2.674123
0.251400,-2.679317
0.251500,-2.657894
0.251600,-2.617321
0.251700,-2.592977
0.251800,-2.521569
0.251900,-2.435230
0.252000,-2.305721
0.252100,-2.200881
0.252200,-2.146675
0.252300,-2.121682
0.252400,-2.103181
0.252500,-2.072670
0.252600,-1.926608
0.252700,-1.844813
0.252800,-1.660450
0.252900,-1.587095
0.253000,-1.562751
0.253100,-1.554961
0.253200,-1.477710
0.253300,-1.404679
0.253400,-1.321261
0.253500,-1.306006
0.253600,-1.278092
0.253700,-1.298541
0.253800,-1.306980
0.253900,-1.307954
0.254000,-1.343982
0.254100,-1.329701
0.254200,-1.329376
0.254300,-1.351448
0.254400,-1.344307
0.254500,-1.412469
0.254600,-1.437787
0.254700,-1.535161
0.254800,-1.448822
0.254900,-1.330999
0.255000,-1.049586
0.255100,-1.150531
0.255200,-1.282312
0.255300,-1.717901
0.255400,-1.495562
0.255500,-1.518283
0.255600,-1.180068
0.255700,-1.141768
0.255800,-1.141768
0.255900,-1.304708
0.256000,-1.400460
0.256100,-1.345605
0.256200,-1.226808
0.256300,-1.072631
0.256400,-1.123591
0.256500,-1.111906
0.256600,-1.178770
0.256700,-1.148259
0.256800,-1.098598
0.256900,-1.040498
0.257000,-1.077176
0.257100,-1.074579
0.257200,-1.046665
0.257300,-1.054779
0.257400,-1.099896
0.257500,-1.155400
0.257600,-1.103142
0.257700,-1.095028
0.257800,-0.964221
0.257900,-1.027515
0.258000,-0.953834
0.258100,-1.198245
0.258200,-1.317042
0.258300,-1.270627
0.258400,-1.137223
0.258500,-0.929815
0.258600,-1.035629
0.258700,-1.174550
0.258800,-1.338464
0.258900,-1.290102
0.259000,-1.231352
0.259100,-1.124889
0.259200,-1.128135
0.259300,-1.132679
0.259400,-1.201166
0.259500,-1.228756
0.259600,-1.280364
0.259700,-1.227133
0.259800,-1.214799
0.259900,-1.242713
0.260000,-1.301137
0.260100,-1.341710
0.260200,-1.317042
0.260300,-1.339114
0.260400,-1.363457
0.260500,-1.367028
0.260600,-1.339763
0.260700,-1.347553
0.260800,-1.352097
0.260900,-1.418961
0.261000,-1.471543
0.261100,-1.464078
0.261200,-1.409223
0.261300,-1.317691
0.261400,-1.361510
0.261500,-1.357939
0.261600,-1.355343
0.261700,-1.370598
0.261800,-1.323858
0.261900,-1.311199
0.262000,-1.307629
0.262100,-1.305682
0.262200,-1.269004
0.262300,-1.279390
0.262400,-1.276145
0.262500,-1.300813
0.262600,-1.262188
0.262700,-1.273872
0.262800,-1.271600
0.262900,-1.306980
0.263000,-1.310875
0.263100,-1.314770
0.263200,-1.431295
0.263300,-1.701348
0.263400,-1.807486
0.263500,-1.751982
0.263600,-1.558856
0.263700,-1.484851
0.263800,-1.552364
0.263900,-1.862016
0.264000,-2.016842
0.264100,-2.104804
0.264200,-1.987954
0.264300,-1.901615
0.264400,-1.915897
0.264500,-2.074942
0.264600,-2.274886
0.264700,-2.385569
0.264800,-2.349864
0.264900,-2.330065
0.265000,-2.363497
0.265100,-2.411860
0.265200,-2.515077
0.265300,-2.571879
0.265400,-2.581942
0.265500,-2.621216
0.265600,-2.735470
0.265700,-2.807852
0.265800,-2.757866
0.265900,-2.767279
0.266000,-2.823756
0.266100,-2.926974
0.266200,-2.913342
0.266300,-2.909447
0.266400,-2.745207
0.266500,-2.663087
0.266600,-2.774744
0.266700,-2.938010
0.266800,-3.154832
0.266900,-3.132761
0.267000,-2.950344
0.267100,-2.842258
0.267200,-2.823756
0.267300,-2.946449
0.267400,-3.095433
0.267500,-3.148341
0.267600,-3.123023
0.267700,-3.004550
0.267800,-2.923728
0.267900,-2.879585
0.268000,-2.878936
0.268100,-2.873742
0.268200,-2.842907
0.268300,-2.776043
0.268400,-2.699116
0.268500,-2.631278
0.268600,-2.532929
0.268700,-2.371287
0.268800,-2.297931
0.268900,-2.265473
0.269000,-2.203802
0.269100,-2.181081
0.269200,-2.103506
0.269300,-1.932126
0.269400,-1.887009
0.269500,-1.653309
0.269600,-1.667266
0.269700,-1.622799
0.269800,-1.553663
0.269900,-1.453042
0.270000,-1.309577
0.270100,-1.180393
0.270200,-1.127810
0.270300,-1.113529
0.270400,-1.121319
0.270500,-1.062569
0.270600,-1.066464
0.270700,-1.016479
0.270800,-0.999601
0.270900,-0.958054
0.271000,-0.973634
0.271100,-0.930789
0.271200,-0.972011
0.271300,-0.970388
0.271400,-0.946044
0.271500,-0.886321
0.271600,-0.567582
0.271700,-0.509482
0.271800,-0.425415
0.271900,-0.802904
0.272000,-0.831142
0.272100,-0.826923
0.272200,-0.618541
0.272300,-0.522140
0.272400,-0.537720
0.272500,-0.609778
0.272600,-0.766226
0.272700,-0.753243
0.272800,-0.688002
0.272900,-0.604584
0.273000,-0.533825
0.273100,-0.589329
0.273200,-0.624708
0.273300,-0.637692
0.273400,-0.706503
0.273500,-0.691572
0.273600,-0.657816
0.273700,-0.666904
0.273800,-0.693520
0.273900,-0.679563
0.274000,-0.721434
0.274100,-0.795763
0.274200,-0.914560
0.274300,-0.867496
0.274400,-0.878207
0.274500,-0.822054
0.274600,-0.870092
0.274700,-0.932412
0.274800,-1.192727
0.274900,-1.256020
0.275000,-1.175849
0.275100,-0.951562
0.275200,-0.873987
0.275300,-1.049911
0.275400,-1.213176
0.275500,-1.361185
0.275600,-1.287830
0.275700,-1.149882
0.275800,-1.034980
0.275900,-1.090159
0.276000,-1.173901
0.276100,-1.263486
0.276200,-1.219992
0.276300,-1.256670
0.276400,-1.189481
0.276500,-1.285557
0.276600,-1.278417
0.276700,-1.312822
0.276800,-1.239467
0.276900,-1.231677
0.277000,-1.264460
0.277100,-1.297242
0.277200,-1.267705
0.277300,-1.232651
0.277400,-1.217720
0.277500,-1.244985
0.277600,-1.369624
0.277700,-1.417662
0.277800,-1.407600
0.277900,-1.274197
0.278000,-1.309901
0.278100,-1.369624
0.278200,-1.369300
0.278300,-1.369300
0.278400,-1.378063
0.278500,-1.396240
0.278600,-1.380985
0.278700,-1.395591
0.278800,-1.408250
0.278900,-1.406951
0.279000,-1.410197
0.279100,-1.423505
0.279200,-1.418312
0.279300,-1.423830
0.279400,-1.410522
0.279500,-1.450121
0.279600,-1.454989
0.279700,-1.512116
0.279800,-1.505949
0.279900,-1.731858
0.280000,-1.934073
0.280100,-1.969778
0.280200,-1.758150
0.280300,-1.669538
0.280400,-1.674083
0.280500,-1.828909
0.280600,-2.104479
0.280700,-2.174589
0.280800,-2.167449
0.280900,-2.001587
0.281000,-1.996069
0.281100,-2.122656
0.281200,-2.294036
0.281300,-2.433931
0.281400,-2.451134
0.281500,-2.391411
0.281600,-2.362523
0.281700,-2.455354
0.281800,-2.481645
0.281900,-2.533254
0.282000,-2.551431
0.282100,-2.564089
0.282200,-2.588758
0.282300,-2.590056
0.282400,-2.705283
0.282500,-2.617321
0.282600,-2.577722
0.282700,-2.569607
0.282800,-2.679966
0.282900,-2.707231
0.283000,-2.653999
0.283100,-2.506638
0.283200,-2.499497
0.283300,-2.657894
0.283400,-2.910745
0.283500,-2.985724
0.283600,-2.946125
0.283700,-2.749751
0.283800,-2.668281
0.283900,-2.793895
0.284000,-3.025648
0.284100,-3.211959
0.284200,-3.271683
0.284300,-3.173009
0.284400,-3.116856
0.284500,-3.114908
0.284600,-3.190861
0.284700,-3.235329
0.284800,-3.253506
0.284900,-3.272657
0.285000,-3.265191
0.285100,-3.203845
0.285200,-3.148665
0.285300,-3.048369
0.285400,-2.969170
0.285500,-2.936063
0.285600,-2.918860
0.285700,-2.890621
0.285800,-2.875365
0.285900,-2.729303
0.286000,-2.605636
0.286100,-2.506314
0.286200,-2.325521
0.286300,-2.321626
0.286400,-2.291439
0.286500,-2.201530
0.286600,-2.097339
0.286700,-1.970751
0.286800,-1.902913
0.286900,-1.889606
0.287000,-1.899992
0.287100,-1.894150
0.287200,-1.884412
0.287300,-1.893825
0.287400,-1.857472
0.287500,-1.807811
0.287600,-1.784765
0.287700,-1.740298
0.287800,-1.771782
0.287900,-1.832479
0.288000,-1.835400
0.288100,-1.777949
0.288200,-1.661099
0.288300,-1.314770
0.288400,-1.291075
0.288500,-1.384230
0.288600,-1.725042
0.288700,-1.668240
0.288800,-1.583200
0.288900,-1.315744
0.289000,-1.133004
0.289100,-1.223238
0.289200,-1.313472
0.289300,-1.468622
0.289400,-1.374168
0.289500,-1.283935
0.289600,-1.054779
0.289700,-1.027515
0.289800,-0.993433
0.289900,-1.070684
0.290000,-1.062245
0.290100,-0.970064
0.290200,-0.943448
0.290300,-0.907419
0.290400,-0.916832
0.290500,-0.882751
0.290600,-0.904173
0.290700,-0.934035
0.290800,-0.972660
0.290900,-1.026865
0.291000,-1.082694
0.291100,-1.032708
0.291200,-0.943123
0.291300,-0.952212
0.291400,-1.121968
0.291500,-1.394942
0.291600,-1.371896
0.291700,-1.245958
0.291800,-1.026216
0.291900,-1.116775
0.292000,-1.248555
0.292100,-1.556259
0.292200,-1.600078
0.292300,-1.523152
0.292400,-1.391047
0.292500,-1.343982
0.292600,-1.488097
0.292700,-1.610140
0.292800,-1.679925
0.292900,-1.737376
0.293000,-1.737701
0.293100,-1.755877
0.293200,-1.803591
0.293300,-1.870455
0.293400,-1.899018
0.293500,-1.855524
0.293600,-1.939591
0.293700,-1.993472
0.293800,-2.024957
0.293900,-2.034694
0.294000,-2.023658
0.294100,-2.011973
0.294200,-2.117138
0.294300,-2.231716
0.294400,-2.259306
0.294500,-2.277482
0.294600,-2.310265
0.294700,-2.238532
0.294800,-2.295334
0.294900,-2.310265
0.295000,-2.353110
0.295100,-2.326819
0.295200,-2.356356
0.295300,-2.363172
0.295400,-2.407965
0.295500,-2.423869
0.295600,-2.425817
0.295700,-2.449511
0.295800,-2.465091
0.295900,-2.507612
0.296000,-2.481645
0.296100,-2.536824
0.296200,-2.505989
0.296300,-2.565712
0.296400,-2.571879
0.296500,-2.629006
0.296600,-2.890621
0.296700,-3.059729
0.296800,-3.017858
0.296900,-2.863031
0.297000,-2.677369
0.297100,-2.802009
0.297200,-3.005524
0.297300,-3.245716
0.297400,-3.255454
0.297500,-3.179501
0.297600,-2.979881
0.297700,-2.981180
0.297800,-3.120426
0.297900,-3.299272
0.298000,-3.359970
0.298100,-3.288561
0.298200,-3.222995
0.298300,-3.152885
0.298400,-3.250585
0.298500,-3.249936
0.298600,-3.273306
0.298700,-3.297974
0.298800,-3.295053
0.298900,-3.309010
0.299000,-3.358022
0.299100,-3.406710
0.299200,-3.345688
0.299300,-3.309984
0.299400,-3.314853
0.299500,-3.419693
0.299600,-3.430080
0.299700,-3.340495
0.299800,-3.176255
0.299900,-3.195405
0.300000,-3.374576
0.300100,-3.588802
0.300200,-3.611848
0.300300,-3.482987
0.300400,-3.269735
0.300500,-3.198002
0.300600,-3.350557
0.300700,-3.549527
0.300800,-3.692345
0.300900,-3.655991
0.301000,-3.542062
0.301100,-3.441441
0.301200,-3.409631
0.301300,-3.411903
0.301400,-3.484286
0.301500,-3.476171
0.301600,-3.459942
0.301700,-3.418070
0.301800,-3.351206
0.301900,-3.263893
0.302000,-3.117505
0.302100,-3.045772
0.302200,-2.984750
0.302300,-2.959108
0.302400,-3.002927
0.302500,-2.963328
0.302600,-2.804931
0.302700,-2.735470
0.302800,-2.476127
0.302900,-2.525139
0.303000,-2.484242
0.303100,-2.458600
0.303200,-2.351487
0.303300,-2.230418
0.303400,-2.127200
0.303500,-2.055792
0.303600,-2.012622
0.303700,-1.993148
0.303800,-1.995420
0.303900,-1.992823
0.304000,-1.941214
0.304100,-1.911028
0.304200,-1.816574
0.304300,-1.857472
0.304400,-1.763667
0.304500,-1.866885
0.304600,-1.880517
0.304700,-1.906808
0.304800,-1.802293
0.304900,-1.678302
0.305000,-1.404030
0.305100,-1.418636
0.305200,-1.621825
0.305300,-1.936995
0.305400,-1.716278
0.305500,-1.597806
0.305600,-1.356641
0.305700,-1.332622
0.305800,-1.442980
0.305900,-1.604622
0.306000,-1.644870
0.306100,-1.486149
0.306200,-1.327753
0.306300,-1.188507
0.306400,-1.177796
0.306500,-1.201491
0.306600,-1.285882
0.306700,-1.274197
0.306800,-1.245309
0.306900,-1.211877
0.307000,-1.207658
0.307100,-1.189806
0.307200,-1.188832
0.307300,-1.178770
0.307400,-1.228756
0.307500,-1.210254
0.307600,-1.288803
0.307700,-1.270627
0.307800,-1.187858
0.307900,-1.146312
0.308000,-1.092431
0.308100,-1.282636
0.308200,-1.378388
0.308300,-1.255047
0.308400,-1.056402
0.308500,-0.858732
0.308600,-0.950913
0.308700,-1.108985
0.308800,-1.330999
0.308900,-1.289777
0.309000,-1.161567
0.309100,-1.003496
0.309200,-1.065491
0.309300,-1.169682
0.309400,-1.270951
0.309500,-1.267705
0.309600,-1.315744
0.309700,-1.253099
0.309800,-1.333271
0.309900,-1.430970
0.310000,-1.514388
0.310100,-1.529643
0.310200,-1.543925
0.310300,-1.633510
0.310400,-1.759448
0.310500,-1.776975
0.310600,-1.786713
0.310700,-1.789634
0.310800,-1.806188
0.310900,-1.960365
0.311000,-2.040212
0.311100,-2.051572
0.311200,-2.047028
0.311300,-1.961014
0.311400,-2.010675
0.311500,-2.022035
0.311600,-2.019114
0.311700,-2.048327
0.311800,-2.035668
0.311900,-2.036317
0.312000,-2.052222
0.312100,-2.091172
0.312200,-2.079162
0.312300,-2.078837
0.312400,-2.077539
0.312500,-2.093119
0.312600,-2.110971
0.312700,-2.097339
0.312800,-2.142780
0.312900,-2.197959
0.313000,-2.228146
0.313100,-2.329091
0.313200,-2.434581
0.313300,-2.769226
0.313400,-2.825379
0.313500,-2.754945
0.313600,-2.546562
0.313700,-2.530008
0.313800,-2.672825
0.313900,-2.945800
0.314000,-3.123023
0.314100,-3.073362
0.314200,-2.926974
0.314300,-2.843556
0.314400,-2.900358
0.314500,-3.046746
0.314600,-3.183071
0.314700,-3.226241
0.314800,-3.179825
0.314900,-3.142823
0.315000,-3.158403
0.315100,-3.195405
0.315200,-3.219100
0.315300,-3.206117
0.315400,-3.225267
0.315500,-3.203520
0.315600,-3.256752
0.315700,-3.282394
0.315800,-3.333029
0.315900,-3.255129
0.316000,-3.232083
0.316100,-3.270060
0.316200,-3.342118
0.316300,-3.317125
0.316400,-3.210985
0.316500,-3.079853
0.316600,-3.158727
0.316700,-3.382366
0.316800,-3.515771
0.316900,-3.508305
0.317000,-3.295377
0.317100,-3.132111
0.317200,-3.145419
0.317300,-3.293755
0.317400,-3.501164
0.317500,-3.528105
0.317600,-3.454099
0.317700,-3.319072
0.317800,-3.262594
0.317900,-3.313230
0.318000,-3.348285
0.318100,-3.363865
0.318200,-3.330108
0.318300,-3.297974
0.318400,-3.271358
0.318500,-3.268437
0.318600,-3.213582
0.318700,-3.068818
0.318800,-2.987347
0.318900,-2.968196
0.319000,-2.935089
0.319100,-2.979881
0.319200,-2.860759
0.319300,-2.701388
0.319400,-2.546237
0.319500,-2.442371
0.319600,-2.487488
0.319700,-2.465091
0.319800,-2.377454
0.319900,-2.309291
0.320000,-2.206723
0.320100,-2.115191
0.320200,-2.091496
0.320300,-2.107076
0.320400,-2.109673
0.320500,-2.107076
0.320600,-2.157711
0.320700,-2.114542
0.320800,-2.137587
0.320900,-2.080460
0.321000,-2.117787
0.321100,-2.141157
0.321200,-2.131095
0.321300,-2.288843
0.321400,-2.127849
0.321500,-2.196986
0.321600,-1.796775
0.321700,-1.785415
0.321800,-1.772107
0.321900,-2.164852
0.322000,-2.252814
0.322100,-2.078837
0.322200,-1.917195
0.322300,-1.696154
0.322400,-1.725042
0.322500,-1.873376
0.322600,-1.959715
0.322700,-1.971400
0.322800,-1.771457
0.322900,-1.710436
0.323000,-1.602350
0.323100,-1.607219
0.323200,-1.641949
0.323300,-1.603648
0.323400,-1.698751
0.323500,-1.587744
0.323600,-1.602350
0.323700,-1.604947
0.323800,-1.597806
0.323900,-1.630264
0.324000,-1.751009
0.324100,-1.777625
0.324200,-1.779247
0.324300,-1.832479
0.324400,-1.786713
0.324500,-1.778598
0.324600,-1.789309
0.324700,-1.910379
0.324800,-2.217110
0.324900,-2.237234
0.325000,-2.151544
0.325100,-1.893176
0.325200,-1.861042
0.325300,-1.991849
0.325400,-2.290466
0.325500,-2.385569
0.325600,-2.325521
0.325700,-2.165826
0.325800,-2.112919
0.325900,-2.204127
0.326000,-2.316108
0.326100,-2.352786
0.326200,-2.349540
0.326300,-2.325521
0.326400,-2.312862
0.326500,-2.402447
0.326600,-2.478724
0.326700,-2.491058
0.326800,-2.450485
0.326900,-2.434256
0.327000,-2.497874
0.327100,-2.517349
0.327200,-2.485865
0.327300,-2.455354
0.327400,-2.454380
0.327500,-2.498199
0.327600,-2.616997
0.327700,-2.609531
0.327800,-2.574152
0.327900,-2.430036
0.328000,-2.452757
0.328100,-2.492357
0.328200,-2.486839
0.328300,-2.475478
0.328400,-2.463793
0.328500,-2.445941
0.328600,-2.442046
0.328700,-2.447889
0.328800,-2.442371
0.328900,-2.454705
0.329000,-2.449836
0.329100,-2.458600
0.329200,-2.443020
0.329300,-2.458924
0.329400,-2.481970
0.329500,-2.510209
0.329600,-2.532929
0.329700,-2.559221
0.329800,-2.558896
0.329900,-2.785780
0.330000,-2.978259
0.330100,-2.951318
0.330200,-2.737417
0.330300,-2.550457
0.330400,-2.582591
0.330500,-2.769226
0.330600,-3.067195
0.330700,-3.093161
0.330800,-3.013314
0.330900,-2.880883
0.331000,-2.822783
0.331100,-2.946125
0.331200,-3.142823
0.331300,-3.201573
0.331400,-3.248962
0.331500,-3.213907
0.331600,-3.247988
0.331700,-3.242146
0.331800,-3.283368
0.331900,-3.269086
0.332000,-3.270384
0.332100,-3.315826
0.332200,-3.326538
0.332300,-3.326538
0.332400,-3.383015
0.332500,-3.423913
0.332600,-3.370357
0.332700,-3.367760
0.332800,-3.387235
0.332900,-3.426510
0.333000,-3.333029
0.333100,-3.234031
0.333200,-3.174632
0.333300,-3.296027
0.333400,-3.509603
0.333500,-3.537193
0.333600,-3.433001
0.333700,-3.184370
0.333800,-3.054860
0.333900,-3.139252
0.334000,-3.314203
0.334100,-3.418720
0.334200,-3.336924
0.334300,-3.186966
0.334400,-3.088293
0.334500,-3.095109
0.334600,-3.155806
0.334700,-3.146069
0.334800,-3.078880
0.334900,-3.039605
0.335000,-3.034736
0.335100,-3.016884
0.335200,-2.947098
0.335300,-2.821160
0.335400,-2.696844
0.335500,-2.631603
0.335600,-2.652052
0.335700,-2.640042
0.335800,-2.631603
0.335900,-2.473206
0.336000,-2.378752
0.336100,-2.199258
0.336200,-2.196986
0.336300,-2.193091
0.336400,-2.185950
0.336500,-2.122981
0.336600,-2.048002
0.336700,-1.970102
0.336800,-1.927257
0.336900,-1.894474
0.337000,-1.926283
0.337100,-1.927906
0.337200,-1.933424
0.337300,-1.976918
0.337400,-1.926933
0.337500,-1.916221
0.337600,-1.905510
0.337700,-1.893825
0.337800,-1.944460
0.337900,-1.957768
0.338000,-2.038589
0.338100,-1.908756
0.338200,-1.794178
0.338300,-1.443954
0.338400,-1.422856
0.338500,-1.662722
0.338600,-1.908107
0.338700,-1.912651
0.338800,-1.608517
0.338900,-1.463753
0.339000,-1.314121
0.339100,-1.380335
0.339200,-1.552689
0.339300,-1.539705
0.339400,-1.481605
0.339500,-1.306980
0.339600,-1.250503
0.339700,-1.229405
0.339800,-1.305682
0.339900,-1.353071
0.340000,-1.406627
0.340100,-1.339763
0.340200,-1.311849
0.340300,-1.326130
0.340400,-1.334245
0.340500,-1.340087
0.340600,-1.387801
0.340700,-1.450770
0.340800,-1.480956
0.340900,-1.521204
0.341000,-1.595858
0.341100,-1.591639
0.341200,-1.514713
0.341300,-1.567295
0.341400,-1.780221
0.341500,-1.975620
0.341600,-1.952899
0.341700,-1.782169
0.341800,-1.600727
0.341900,-1.710760
0.342000,-1.904861
0.342100,-2.208995
0.342200,-2.195687
0.342300,-2.029501
0.342400,-1.883763
0.342500,-1.954522
0.342600,-2.091496
0.342700,-2.221654
0.342800,-2.214189
0.342900,-2.212890
0.343000,-2.149597
0.343100,-2.225224
0.343200,-2.311239
0.343300,-2.403096
0.343400,-2.421273
0.343500,-2.375182
0.343600,-2.395631
0.343700,-2.397578
0.343800,-2.361549
0.343900,-2.361874
0.344000,-2.352461
0.344100,-2.359926
0.344200,-2.444643
0.344300,-2.525789
0.344400,-2.491707
0.344500,-2.469960
0.344600,-2.478724
0.344700,-2.385569
0.344800,-2.379401
0.344900,-2.367716
0.345000,-2.369664
0.345100,-2.370638
0.345200,-2.364471
0.345300,-2.378752
0.345400,-2.398876
0.345500,-2.408289
0.345600,-2.423869
0.345700,-2.453406
0.345800,-2.447239
0.345900,-2.460547
0.346000,-2.454056
0.346100,-2.517025
0.346200,-2.548509
0.346300,-2.615698
0.346400,-2.666009
0.346500,-2.764358
0.346600,-3.046097
0.346700,-3.222995
0.346800,-3.151587
0.346900,-2.943203
0.347000,-2.905227
0.347100,-3.056808
0.347200,-3.373278
0.347300,-3.549203
0.347400,-3.571924
0.347500,-3.487856
0.347600,-3.362566
0.347700,-3.420343
0.347800,-3.598540
0.347900,-3.755314
0.348000,-3.779009
0.348100,-3.800107
0.348200,-3.752718
0.348300,-3.760183
0.348400,-3.838084
0.348500,-3.917283
0.348600,-3.957531
0.348700,-3.956882
0.348800,-3.907220
0.348900,-3.903325
0.349000,-3.965321
0.349100,-4.035756
0.349200,-4.036406
0.349300,-4.016281
0.349400,-4.044845
0.349500,-4.094831
0.349600,-4.073084
0.349700,-3.964672
0.349800,-3.805625
0.349900,-3.863077
0.350000,-4.109113
0.350100,-4.275301
0.350200,-4.305488
0.350300,-4.123719
0.350400,-3.930591
0.350500,-3.902676
0.350600,-4.091585
0.350700,-4.319120
0.350800,-4.385985
0.350900,-4.276599
0.351000,-4.131834
0.351100,-4.024720
0.351200,-4.063346
0.351300,-4.137027
0.351400,-4.154230
0.351500,-4.100674
0.351600,-4.011412
0.351700,-3.919879
0.351800,-3.877683
0.351900,-3.791993
0.352000,-3.658263
0.352100,-3.545308
0.352200,-3.491427
0.352300,-3.445985
0.352400,-3.439169
0.352500,-3.360944
0.352600,-3.191835
0.352700,-3.128216
0.352800,-2.891919
0.352900,-2.902306
0.353000,-2.875690
0.353100,-2.801685
0.353200,-2.710152
0.353300,-2.570906
0.353400,-2.440748
0.353500,-2.395631
0.353600,-2.362848
0.353700,-2.348241
0.353800,-2.305721
0.353900,-2.260279
0.354000,-2.249244
0.354100,-2.125902
0.354200,-2.121033
0.354300,-2.048976
0.354400,-2.068451
0.354500,-2.058389
0.354600,-2.069425
0.354700,-2.125902
0.354800,-1.941214
0.354900,-1.732508
0.355000,-1.497510
0.355100,-1.522503
0.355200,-1.839944
0.355300,-1.910054
0.355400,-1.972050
0.355500,-1.612087
0.355600,-1.601052
0.355700,-1.477710
0.355800,-1.713357
0.355900,-1.788985
0.356000,-1.901615
0.356100,-1.752307
0.356200,-1.626694
0.356300,-1.543925
0.356400,-1.522178
0.356500,-1.576383
0.356600,-1.621825
0.356700,-1.664670
0.356800,-1.607219
0.356900,-1.592937
0.357000,-1.597806
0.357100,-1.621176
0.357200,-1.669214
0.357300,-1.823066
0.357400,-1.826312
0.357500,-1.885386
0.357600,-1.933424
0.357700,-2.004183
0.357800,-1.929529
0.357900,-1.999315
0.358000,-2.022360
0.358100,-2.386867
0.358200,-2.433931
0.358300,-2.381349
0.358400,-2.186274
0.358500,-2.160308
0.358600,-2.288518
0.358700,-2.558247
0.358800,-2.703336
0.358900,-2.659192
0.359000,-2.471583
0.359100,-2.367716
0.359200,-2.434905
0.359300,-2.575450
0.359400,-2.655622
0.359500,-2.608233
0.359600,-2.613751
0.359700,-2.549483
0.359800,-2.623164
0.359900,-2.675097
0.360000,-2.729303
0.360100,-2.727680
0.360200,-2.702038
0.360300,-2.789026
0.360400,-2.850372
0.360500,-2.856539
0.360600,-2.825704
0.360700,-2.842582
0.360800,-2.893217
0.360900,-3.048693
0.361000,-3.086345
0.361100,-3.086345
0.361200,-2.946449
0.361300,-2.937361
0.361400,-3.003576
0.361500,-2.987022
0.361600,-2.954888
0.361700,-2.958783
0.361800,-2.956511
0.361900,-2.935089
0.362000,-2.940282
0.362100,-2.937036
0.362200,-2.919184
0.362300,-2.889972
0.362400,-2.896788
0.362500,-2.910096
0.362600,-2.883805
0.362700,-2.887700
0.362800,-2.865628
0.362900,-2.898735
0.363000,-2.865952
0.363100,-2.896463
0.363200,-3.021428
0.363300,-3.228838
0.363400,-3.223969
0.363500,-2.951967
0.363600,-2.779938
0.363700,-2.689379
0.363800,-2.849723
0.363900,-3.077257
0.364000,-3.182422
0.364100,-3.088942
0.364200,-2.918210
0.364300,-2.878287
0.364400,-2.970468
0.364500,-3.202222
0.364600,-3.347960
0.364700,-3.404438
0.364800,-3.388209
0.364900,-3.362891
0.365000,-3.383989
0.365100,-3.419369
0.365200,-3.501489
0.365300,-3.507981
0.365400,-3.554072
0.365500,-3.544983
0.365600,-3.573871
0.365700,-3.641385
0.365800,-3.643332
0.365900,-3.597241
0.366000,-3.583284
0.366100,-3.634893
0.366200,-3.635542
0.366300,-3.616392
0.366400,-3.413526
0.366500,-3.338872
0.366600,-3.453450
0.366700,-3.678388
0.366800,-3.764078
0.366900,-3.698512
0.367000,-3.471952
0.367100,-3.345688
0.367200,-3.433651
0.367300,-3.653395
0.367400,-3.851067
0.367500,-3.859506
0.367600,-3.743629
0.367700,-3.662483
0.367800,-3.700459
0.367900,-3.747849
0.368000,-3.796861
0.368100,-3.797511
0.368200,-3.785825
0.368300,-3.819907
0.368400,-3.793940
0.368500,-3.790694
0.368600,-3.671247
0.368700,-3.563160
0.368800,-3.520964
0.368900,-3.518367
0.369000,-3.518692
0.369100,-3.510577
0.369200,-3.338547
0.369300,-3.214556
0.369400,-3.145095
0.369500,-2.975013
0.369600,-2.997734
0.369700,-2.970793
0.369800,-2.882506
0.369900,-2.807852
0.370000,-2.689379
0.370100,-2.615698
0.370200,-2.557598
0.370300,-2.548834
0.370400,-2.553703
0.370500,-2.511507
0.370600,-2.606610
0.370700,-2.535526
0.370800,-2.550132
0.370900,-2.479049
0.371000,-2.508910
0.371100,-2.534228
0.371200,-2.579669
0.371300,-2.691326
0.371400,-2.516376
0.371500,-2.487488
0.371600,-2.225549
0.371700,-2.161282
0.371800,-2.270991
0.371900,-2.670228
0.372000,-2.701713
0.372100,-2.581617
0.372200,-2.327144
0.372300,-2.234637
0.372400,-2.269043
0.372500,-2.376480
0.372600,-2.505340
0.372700,-2.450161
0.372800,-2.300203
0.372900,-2.170694
0.373000,-2.060661
0.373100,-2.123630
0.373200,-2.109348
0.373300,-2.167124
0.373400,-2.141157
0.373500,-2.146675
0.373600,-2.117787
0.373700,-2.101234
0.373800,-2.075916
0.373900,-2.074293
0.374000,-2.136938
0.374100,-2.109673
0.374200,-2.151869
0.374300,-2.221005
0.374400,-2.167124
0.374500,-2.111296
0.374600,-2.076890
0.374700,-2.175888
0.374800,-2.372261
0.374900,-2.386867
0.375000,-2.200232
0.375100,-1.992498
0.375200,-1.945758
0.375300,-2.172317
0.375400,-2.450161
0.375500,-2.526762
0.375600,-2.440748
0.375700,-2.278131
0.375800,-2.284623
0.375900,-2.384595
0.376000,-2.524490
0.376100,-2.551431
0.376200,-2.514428
0.376300,-2.480022
0.376400,-2.460872
0.376500,-2.498199
0.376600,-2.498199
0.376700,-2.425817
0.376800,-2.314809
0.376900,-2.277482
0.377000,-2.295010
0.377100,-2.295659
0.377200,-2.227172
0.377300,-2.189845
0.377400,-2.176537
0.377500,-2.253788
0.377600,-2.403745
0.377700,-2.421922
0.377800,-2.463469
0.377900,-2.327144
0.378000,-2.377454
0.378100,-2.408614
0.378200,-2.419325
0.378300,-2.433607
0.378400,-2.396280
0.378500,-2.370313
0.378600,-2.393683
0.378700,-2.354733
0.378800,-2.346943
0.378900,-2.300203
0.379000,-2.261253
0.379100,-2.236909
0.379200,-2.187573
0.379300,-2.174589
0.379400,-2.191143
0.379500,-2.203153
0.379600,-2.257034
0.379700,-2.242103
0.379800,-2.325196
0.379900,-2.580643
0.380000,-2.787403
0.380100,-2.757541
0.380200,-2.562142
0.380300,-2.471583
0.380400,-2.558896
0.380500,-2.913666
0.380600,-3.115233
0.380700,-3.232733
0.380800,-3.196379
0.380900,-3.063949
0.381000,-3.059729
0.381100,-3.274929
0.381200,-3.450529
0.381300,-3.568029
0.381400,-3.565432
0.381500,-3.534596
0.381600,-3.565107
0.381700,-3.546282
0.381800,-3.552773
0.381900,-3.555695
0.382000,-3.514472
0.382100,-3.542387
0.382200,-3.517393
0.382300,-3.535246
0.382400,-3.570625
0.382500,-3.505708
0.382600,-3.455722
0.382700,-3.416772
0.382800,-3.426185
0.382900,-3.421966
0.383000,-3.324590
0.383100,-3.165219
0.383200,-3.157104
0.383300,-3.313230
0.383400,-3.514148
0.383500,-3.606005
0.383600,-3.484610
0.383700,-3.288237
0.383800,-3.244418
0.383900,-3.390481
0.384000,-3.656640
0.384100,-3.811468
0.384200,-3.781281
0.384300,-3.704679
0.384400,-3.662158
0.384500,-3.730321
0.384600,-3.840680
0.384700,-3.870867
0.384800,-3.883201
0.384900,-3.872165
0.385000,-3.880929
0.385100,-3.877359
0.385200,-3.811143
0.385300,-3.671571
0.385400,-3.551475
0.385500,-3.492725
0.385600,-3.480391
0.385700,-3.479742
0.385800,-3.430405
0.385900,-3.235005
0.386000,-3.125295
0.386100,-2.913991
0.386200,-2.930869
0.386300,-2.885752
0.386400,-2.831222
0.386500,-2.752348
0.386600,-2.656271
0.386700,-2.518972
0.386800,-2.440423
0.386900,-2.389464
0.387000,-2.383296
0.387100,-2.399201
0.387200,-2.362199
0.387300,-2.362848
0.387400,-2.296633
0.387500,-2.275535
0.387600,-2.225224
0.387700,-2.232041
0.387800,-2.305072
0.387900,-2.263850
0.388000,-2.363172
0.388100,-2.245673
0.388200,-2.097988
0.388300,-1.815925
0.388400,-1.815276
0.388500,-1.948355
0.388600,-2.311888
0.388700,-2.216136
0.388800,-1.998990
0.388900,-1.796450
0.389000,-1.685768
0.389100,-1.833777
0.389200,-1.949329
0.389300,-2.116164
0.389400,-1.993472
0.389500,-1.879544
0.389600,-1.837023
0.389700,-1.854875
0.389800,-1.886360
0.389900,-1.917195
0.390000,-1.961988
0.390100,-1.976594
0.390200,-1.994770
0.390300,-2.048651
0.390400,-1.995095
0.390500,-2.048002
0.390600,-2.041186
0.390700,-2.233988
0.390800,-2.140833
0.390900,-2.289167
0.391000,-2.254437
0.391100,-2.248270
0.391200,-2.241454
0.391300,-2.213864
0.391400,-2.454056
0.391500,-2.586161
0.391600,-2.606285
0.391700,-2.350189
0.391800,-2.270341
0.391900,-2.302800
0.392000,-2.550457
0.392100,-2.748128
0.392200,-2.676720
0.392300,-2.480347
0.392400,-2.313511
0.392500,-2.312537
0.392600,-2.428414
0.392700,-2.470285
0.392800,-2.366094
0.392900,-2.348566
0.393000,-2.300528
0.393100,-2.380051
0.393200,-2.408289
0.393300,-2.432309
0.393400,-2.380375
0.393500,-2.332012
0.393600,-2.400499
0.393700,-2.429063
0.393800,-2.460223
0.393900,-2.416729
0.394000,-2.395631
0.394100,-2.426791
0.394200,-2.531307
0.394300,-2.619918
0.394400,-2.610830
0.394500,-2.490734
0.394600,-2.483593
0.394700,-2.547860
0.394800,-2.589082
0.394900,-2.578371
0.395000,-2.607908
0.395100,-2.631927
0.395200,-2.605312
0.395300,-2.624137
0.395400,-2.635173
0.395500,-2.653025
0.395600,-2.676720
0.395700,-2.703336
0.395800,-2.729303
0.395900,-2.768577
0.396000,-2.777990
0.396100,-2.815317
0.396200,-2.882506
0.396300,-2.909771
0.396400,-2.965600
0.396500,-3.055185
0.396600,-3.403140
0.396700,-3.480391
0.396800,-3.434624
0.396900,-3.215530
0.397000,-3.201573
0.397100,-3.354127
0.397200,-3.611199
0.397300,-3.804327
0.397400,-3.739734
0.397500,-3.599513
0.397600,-3.510253
0.397700,-3.600163
0.397800,-3.827372
0.397900,-3.985121
0.398000,-4.050363
0.398100,-4.033809
0.398200,-4.037704
0.398300,-4.103595
0.398400,-4.174679
0.398500,-4.232780
0.398600,-4.308733
0.398700,-4.332753
0.398800,-4.375598
0.398900,-4.448955
0.399000,-4.554770
0.399100,-4.619687
0.399200,-4.591448
0.399300,-4.600212
0.399400,-4.615468
0.399500,-4.653445
0.399600,-4.644356
0.399700,-4.521338
0.399800,-4.423312
0.399900,-4.469728
0.400000,-4.691421
0.400100,-4.846249
0.400200,-4.841705
0.400300,-4.620986
0.400400,-4.414549
0.400500,-4.426234
0.400600,-4.613520
0.400700,-4.772893
0.400800,-4.798210
0.400900,-4.638514
0.401000,-4.509652
0.401100,-4.492774
0.401200,-4.519066
0.401300,-4.537892
0.401400,-4.505757
0.401500,-4.442138
0.401600,-4.443761
0.401700,-4.364238
0.401800,-4.330481
0.401900,-4.216551
0.402000,-4.059451
0.402100,-3.925397
0.402200,-3.858208
0.402300,-3.776412
0.402400,-3.701433
0.402500,-3.520315
0.402600,-3.335626
0.402700,-3.208713
0.402800,-2.912693
0.402900,-2.863031
0.403000,-2.739040
0.403100,-2.632901
0.403200,-2.492357
0.403300,-2.342724
0.403400,-2.187248
0.403500,-2.120059
0.403600,-2.114542
0.403700,-2.082732
0.403800,-2.035019
0.403900,-2.023009
0.404000,-2.001262
0.404100,-1.972374
0.404200,-1.988603
0.404300,-2.003534
0.404400,-2.024307
0.404500,-2.065854
0.404600,-2.130122
0.404700,-2.118437
0.404800,-2.007754
0.404900,-1.869806
0.405000,-1.586445
0.405100,-1.893176
0.405200,-2.132718
0.405300,-2.339802
0.405400,-2.221979
0.405500,-2.057740
0.405600,-1.925310
0.405700,-1.956145
0.405800,-2.154141
0.405900,-2.260929
0.406000,-2.358953
0.406100,-2.263201
0.406200,-2.112594
0.406300,-2.101234
0.406400,-2.153816
0.406500,-2.141482
0.406600,-2.153816
0.406700,-2.135639
0.406800,-2.081434
0.406900,-2.058389
0.407000,-2.074942
0.407100,-2.072021
0.407200,-2.047028
0.407300,-2.105453
0.407400,-2.087601
0.407500,-2.066828
0.407600,-2.090847
0.407700,-2.100260
0.407800,-2.042160
0.407900,-1.988279
0.408000,-1.966207
0.408100,-2.245024
0.408200,-2.302475
0.408300,-2.189520
0.408400,-1.911677
0.408500,-1.816250
0.408600,-1.934398
0.408700,-2.199582
0.408800,-2.277807
0.408900,-2.183029
0.409000,-1.965883
0.409100,-1.906808
0.409200,-2.011973
0.409300,-2.160632
0.409400,-2.226198
0.409500,-2.152842
0.409600,-2.176862
0.409700,-2.160308
0.409800,-2.259630
0.409900,-2.301826
0.410000,-2.347917
0.410100,-2.338504
0.410200,-2.332012
0.410300,-2.382323
0.410400,-2.387191
0.410500,-2.365769
0.410600,-2.350189
0.410700,-2.320976
0.410800,-2.343048
0.410900,-2.453082
0.411000,-2.462819
0.411100,-2.469636
0.411200,-2.337855
0.411300,-2.390113
0.411400,-2.428089
0.411500,-2.419650
0.411600,-2.439774
0.411700,-2.431984
0.411800,-2.476776
0.411900,-2.493979
0.412000,-2.508261
0.412100,-2.529034
0.412200,-2.541369
0.412300,-2.541693
0.412400,-2.577722
0.412500,-2.591030
0.412600,-2.576748
0.412700,-2.620892
0.412800,-2.611154
0.412900,-2.681264
0.413000,-2.729627
0.413100,-2.723785
0.413200,-2.980206
0.413300,-3.182097
0.413400,-3.288237
0.413500,-3.003576
0.413600,-2.994163
0.413700,-2.975986
0.413800,-3.264542
0.413900,-3.519016
0.414000,-3.644306
0.414100,-3.590750
0.414200,-3.424562
0.414300,-3.418395
0.414400,-3.535570
0.414500,-3.759859
0.414600,-3.849120
0.414700,-3.887421
0.414800,-3.878981
0.414900,-3.876709
0.415000,-3.914037
0.415100,-3.964672
0.415200,-4.011412
0.415300,-4.043546
0.415400,-4.082172
0.415500,-4.096129
0.415600,-4.132483
0.415700,-4.209735
0.415800,-4.264590
0.415900,-4.261668
0.416000,-4.255501
0.416100,-4.295750
0.416200,-4.299320
0.416300,-4.274652
0.416400,-4.049389
0.416500,-4.029914
0.416600,-4.111060
0.416700,-4.318471
0.416800,-4.391828
0.416900,-4.296075
0.417000,-4.027966
0.417100,-3.896834
0.417200,-3.959154
0.417300,-4.141896
0.417400,-4.237000
0.417500,-4.153906
0.417600,-3.998754
0.417700,-3.872165
0.417800,-3.877034
0.417900,-3.914037
0.418000,-3.889044
0.418100,-3.842952
0.418200,-3.798809
0.418300,-3.777062
0.418400,-3.747200
0.418500,-3.681634
0.418600,-3.578740
0.418700,-3.455722
0.418800,-3.410280
0.418900,-3.384963
0.419000,-3.360619
0.419100,-3.349583
0.419200,-3.183396
0.419300,-3.109066
0.419400,-2.963977
0.419500,-2.898735
0.419600,-2.890296
0.419700,-2.848100
0.419800,-2.765007
0.419900,-2.679317
0.420000,-2.556299
0.420100,-2.493330
0.420200,-2.495278
0.420300,-2.466390
0.420400,-2.496252
0.420500,-2.414781
0.420600,-2.479049
0.420700,-2.356681
0.420800,-2.376805
0.420900,-2.300203
0.421000,-2.299554
0.421100,-2.287220
0.421200,-2.303449
0.421300,-2.360576
0.421400,-2.255735
0.421500,-2.167124
0.421600,-1.864613
0.421700,-1.750684
0.421800,-2.015544
0.421900,-2.237234
0.422000,-2.223277
0.422100,-2.032422
0.422200,-1.912651
0.422300,-1.779247
0.422400,-1.863314
0.422500,-2.020412
0.422600,-2.084355
0.422700,-2.057415
0.422800,-1.891553
0.422900,-1.855200
0.423000,-1.781844
0.423100,-1.845138
0.423200,-1.827610
0.423300,-1.828259
0.423400,-1.833128
0.423500,-1.740298
0.423600,-1.742894
0.423700,-1.696154
0.423800,-1.663696
0.423900,-1.652336
0.424000,-1.705892
0.424100,-1.711734
0.424200,-1.719524
0.424300,-1.697777
0.424400,-1.584822
0.424500,-1.563400
0.424600,-1.498483
0.424700,-1.732183
0.424800,-1.896746
0.424900,-1.945758
0.425000,-1.724718
0.425100,-1.604622
0.425200,-1.626694
0.425300,-1.869481
0.425400,-2.141157
0.425500,-2.144079
0.425600,-2.029501
0.425700,-1.893176
0.425800,-1.953873
0.425900,-2.121358
0.426000,-2.244050
0.426100,-2.225224
0.426200,-2.228795
0.426300,-2.210294
0.426400,-2.276509
0.426500,-2.318704
0.426600,-2.326170
0.426700,-2.293387
0.426800,-2.292413
0.426900,-2.353110
0.427000,-2.428089
0.427100,-2.411211
0.427200,-2.369989
0.427300,-2.365120
0.427400,-2.349864
0.427500,-2.460547
0.427600,-2.551431
0.427700,-2.557273
0.427800,-2.543965
0.427900,-2.567660
0.428000,-2.495278
0.428100,-2.525789
0.428200,-2.513454
0.428300,-2.551431
0.428400,-2.571555
0.428500,-2.569283
0.428600,-2.584214
0.428700,-2.587459
0.428800,-2.601741
0.428900,-2.621216
0.429000,-2.598495
0.429100,-2.619593
0.429200,-2.588433
0.429300,-2.644586
0.429400,-2.649455
0.429500,-2.691975
0.429600,-2.721188
0.429700,-2.707231
0.429800,-2.820186
0.429900,-3.025323
0.430000,-3.224293
0.430100,-3.092837
0.430200,-2.926974
0.430300,-2.812071
0.430400,-2.857189
0.430500,-3.156455
0.430600,-3.351531
0.430700,-3.341468
0.430800,-3.224618
0.430900,-3.112636
0.431000,-3.154508
0.431100,-3.335301
0.431200,-3.536869
0.431300,-3.559914
0.431400,-3.558291
0.431500,-3.532974
0.431600,-3.593022
0.431700,-3.631647
0.431800,-3.664755
0.431900,-3.703056
0.432000,-3.720584
0.432100,-3.727725
0.432200,-3.753042
0.432300,-3.821205
0.432400,-3.859831
0.432500,-3.827697
0.432600,-3.852041
0.432700,-3.827372
0.432800,-3.885473
0.432900,-3.852690
0.433000,-3.821854
0.433100,-3.660211
0.433200,-3.711171
0.433300,-3.938705
0.433400,-4.132483
0.433500,-4.173705
0.433600,-3.996482
0.433700,-3.813415
0.433800,-3.837110
0.433900,-4.015308
0.434000,-4.279196
0.434100,-4.374949
0.434200,-4.305812
0.434300,-4.200646
0.434400,-4.209085
0.434500,-4.276275
0.434600,-4.342490
0.434700,-4.362939
0.434800,-4.367808
0.434900,-4.369756
0.435000,-4.355474
0.435100,-4.364238
0.435200,-4.317497
0.435300,-4.185391
0.435400,-4.122421
0.435500,-4.118850
0.435600,-4.131509
0.435700,-4.139299
0.435800,-4.074382
0.435900,-3.890342
0.436000,-3.806274
0.436100,-3.584583
0.436200,-3.607304
0.436300,-3.566406
0.436400,-3.462539
0.436500,-3.358022
0.436600,-3.232083
0.436700,-3.075634
0.436800,-3.019156
0.436900,-2.972416
0.437000,-2.998383
0.437100,-2.909447
0.437200,-2.891270
0.437300,-2.839661
0.437400,-2.756243
0.437500,-2.707555
0.437600,-2.598495
0.437700,-2.651078
0.437800,-2.499173
0.437900,-2.621865
0.438000,-2.426141
0.438100,-2.434905
0.438200,-2.103506
0.438300,-1.934723
0.438400,-1.837348
0.438500,-2.117787
0.438600,-2.219382
0.438700,-2.032097
0.438800,-1.862016
0.438900,-1.568269
0.439000,-1.573787
0.439100,-1.679601
0.439200,-1.821768
0.439300,-1.838321
0.439400,-1.628641
0.439500,-1.459209
0.439600,-1.281013
0.439700,-1.346903
0.439800,-1.307304
0.439900,-1.430970
0.440000,-1.363457
0.440100,-1.368651
0.440200,-1.277443
0.440300,-1.285557
0.440400,-1.255696
0.440500,-1.211553
0.440600,-1.227457
0.440700,-1.281662
0.440800,-1.276145
0.440900,-1.306331
0.441000,-1.332622
0.441100,-1.239791
0.441200,-1.184937
0.441300,-1.173577
0.441400,-1.369949
0.441500,-1.478035
0.441600,-1.383581
0.441700,-1.127161
0.441800,-0.973309
0.441900,-1.062245
0.442000,-1.289452
0.442100,-1.462779
0.442200,-1.384880
0.442300,-1.188183
0.442400,-1.052507
0.442500,-1.098273
0.442600,-1.233949
0.442700,-1.306006
0.442800,-1.298865
0.442900,-1.322235
0.443000,-1.305032
0.443100,-1.383581
0.443200,-1.458884
0.443300,-1.550417
0.443400,-1.589042
0.443500,-1.593911
0.443600,-1.691935
0.443700,-1.782169
0.443800,-1.828584
0.443900,-1.843839
0.444000,-1.875649
0.444100,-1.960365
0.444200,-2.135639
0.444300,-2.214189
0.444400,-2.258981
0.444500,-2.181730
0.444600,-2.227821
0.444700,-2.336556
0.444800,-2.404070
0.444900,-2.431659
0.445000,-2.492357
0.445100,-2.536824
0.445200,-2.584538
0.445300,-2.642963
0.445400,-2.700739
0.445500,-2.748128
0.445600,-2.785131
0.445700,-2.821809
0.445800,-2.859461
0.445900,-2.861408
0.446000,-2.923728
0.446100,-2.944826
0.446200,-3.013638
0.446300,-3.013638
0.446400,-3.040254
0.446500,-3.216828
0.446600,-3.436572
0.446700,-3.516095
0.446800,-3.355101
0.446900,-3.184045
0.447000,-3.116856
0.447100,-3.264867
0.447200,-3.507656
0.447300,-3.699810
0.447400,-3.582635
0.447500,-3.445660
0.447600,-3.350232
0.447700,-3.442414
0.447800,-3.616392
0.447900,-3.793940
0.448000,-3.826074
0.448100,-3.805301
0.448200,-3.769921
0.448300,-3.795563
0.448400,-3.827697
0.448500,-3.862752
0.448600,-3.877683
0.448700,-3.873464
0.448800,-3.881578
0.448900,-3.832241
0.449000,-3.878981
0.449100,-3.846198
0.449200,-3.832890
0.449300,-3.805301
0.449400,-3.823153
0.449500,-3.832241
0.449600,-3.754990
0.449700,-3.599189
0.449800,-3.472601
0.449900,-3.546282
0.450000,-3.754990
0.450100,-3.835162
0.450200,-3.786799
0.450300,-3.580363
0.450400,-3.397622
0.450500,-3.436896
0.450600,-3.652745
0.450700,-3.856585
0.450800,-3.918906
0.450900,-3.806274
0.451000,-3.722531
0.451100,-3.721558
0.451200,-3.778685
0.451300,-3.823477
0.451400,-3.816661
0.451500,-3.833215
0.451600,-3.862752
0.451700,-3.848470
0.451800,-3.795238
0.451900,-3.669299
0.452000,-3.551799
0.452100,-3.482663
0.452200,-3.474224
0.452300,-3.476496
0.452400,-3.467407
0.452500,-3.309984
0.452600,-3.167167
0.452700,-3.097706
0.452800,-2.897112
0.452900,-2.893217
0.453000,-2.857189
0.453100,-2.745532
0.453200,-2.669255
0.453300,-2.534228
0.453400,-2.420948
0.453500,-2.381349
0.453600,-2.380700
0.453700,-2.361225
0.453800,-2.361549
0.453900,-2.349540
0.454000,-2.330389
0.454100,-2.281702
0.454200,-2.222628
0.454300,-2.235611
0.454400,-2.172967
0.454500,-2.284948
0.454600,-2.150246
0.454700,-2.157711
0.454800,-1.995420
0.454900,-1.781520
0.455000,-1.588068
0.455100,-1.790932
0.455200,-2.100260
0.455300,-2.166150
0.455400,-1.956145
0.455500,-1.834102
0.455600,-1.578006
0.455700,-1.645844
0.455800,-1.808784
0.455900,-1.987630
0.456000,-2.005806
0.456100,-1.927906
0.456200,-1.831505
0.456300,-1.775677
0.456400,-1.763343
0.456500,-1.788011
0.456600,-1.810407
0.456700,-1.831181
0.456800,-1.824040
0.456900,-1.838646
0.457000,-1.841567
0.457100,-1.814952
0.457200,-1.826312
0.457300,-1.958417
0.457400,-1.909405
0.457500,-1.936670
0.457600,-1.948030
0.457700,-1.936021
0.457800,-1.848384
0.457900,-1.839295
0.458000,-1.917195
0.458100,-2.198284
0.458200,-2.218733
0.458300,-2.090198
0.458400,-1.874999
0.458500,-1.847734
0.458600,-2.002560
0.458700,-2.282676
0.458800,-2.342074
0.458900,-2.261902
0.459000,-2.089873
0.459100,-2.061635
0.459200,-2.178160
0.459300,-2.283000
0.459400,-2.293711
0.459500,-2.276184
0.459600,-2.240804
0.459700,-2.267420
0.459800,-2.347268
0.459900,-2.389139
0.460000,-2.418027
0.460100,-2.354733
0.460200,-2.357654
0.460300,-2.408939
0.460400,-2.408614
0.460500,-2.382972
0.460600,-2.344346
0.460700,-2.300203
0.460800,-2.349540
0.460900,-2.456003
0.461000,-2.453406
0.461100,-2.413807
0.461200,-2.251840
0.461300,-2.306695
0.461400,-2.329416
0.461500,-2.342399
0.461600,-2.344346
0.461700,-2.341101
0.461800,-2.374533
0.461900,-2.401149
0.462000,-2.473531
0.462100,-2.496901
0.462200,-2.543965
0.462300,-2.605636
0.462400,-2.646209
0.462500,-2.694572
0.462600,-2.696195
0.462700,-2.795518
0.462800,-2.828301
0.462900,-2.958134
0.463000,-2.979557
0.463100,-3.077906
0.463200,-3.367435
0.463300,-3.604382
0.463400,-3.610225
0.463500,-3.387884
0.463600,-3.260971
0.463700,-3.248313
0.463800,-3.561537
0.463900,-3.760832
0.464000,-3.852041
0.464100,-3.753042
0.464200,-3.569652
0.464300,-3.544983
0.464400,-3.618015
0.464500,-3.782580
0.464600,-3.792642
0.464700,-3.790045
0.464800,-3.727075
0.464900,-3.689748
0.465000,-3.651772
0.465100,-3.639762
0.465200,-3.626129
0.465300,-3.589127
0.465400,-3.588802
0.465500,-3.577442
0.465600,-3.619638
0.465700,-3.618989
0.465800,-3.648526
0.465900,-3.581337
0.466000,-3.593996
0.466100,-3.623533
0.466200,-3.630998
0.466300,-3.549203
0.466400,-3.375874
0.466500,-3.338547
0.466600,-3.467083
0.466700,-3.676765
0.466800,-3.737138
0.466900,-3.570301
0.467000,-3.333029
0.467100,-3.199625
0.467200,-3.280122
0.467300,-3.497269
0.467400,-3.570950
0.467500,-3.506358
0.467600,-3.333029
0.467700,-3.237926
0.467800,-3.247988
0.467900,-3.235005
0.468000,-3.237277
0.468100,-3.169763
0.468200,-3.113610
0.468300,-3.083099
0.468400,-3.028569
0.468500,-2.978259
0.468600,-2.856539
0.468700,-2.741637
0.468800,-2.708854
0.468900,-2.680290
0.469000,-2.703011
0.469100,-2.679317
0.469200,-2.531631
0.469300,-2.509884
0.469400,-2.326494
0.469500,-2.352786
0.469600,-2.316432
0.469700,-2.295010
0.469800,-2.268069
0.469900,-2.201205
0.470000,-2.138236
0.470100,-2.104804
0.470200,-2.106102
0.470300,-2.171668
0.470400,-2.177835
0.470500,-2.224251
0.470600,-2.255411
0.470700,-2.214838
0.470800,-2.240480
0.470900,-2.221979
0.471000,-2.333635
0.471100,-2.294361
0.471200,-2.480672
0.471300,-2.411860
0.471400,-2.456003
0.471500,-2.169721
0.471600,-2.124928
0.471700,-1.955820
0.471800,-2.323573
0.471900,-2.614075
0.472000,-2.570581
0.472100,-2.417378
0.472200,-2.122007
0.472300,-2.178160
0.472400,-2.237883
0.472500,-2.464118
0.472600,-2.522867
0.472700,-2.445941
0.472800,-2.268394
0.472900,-2.149921
0.473000,-2.128823
0.473100,-2.117138
0.473200,-2.109024
0.473300,-2.110971
0.473400,-2.082732
0.473500,-2.051248
0.473600,-2.039563
0.473700,-2.027553
0.473800,-2.065530
0.473900,-2.040537
0.474000,-2.108050
0.474100,-2.070398
0.474200,-2.123305
0.474300,-2.122007
0.474400,-2.001262
0.474500,-2.060012
0.474600,-1.961663
0.474700,-2.219382
0.474800,-2.376156
0.474900,-2.380700
0.475000,-2.163229
0.475100,-2.060336
0.475200,-2.102532
0.475300,-2.359926
0.475400,-2.565388
0.475500,-2.555001
0.475600,-2.427764
0.475700,-2.304423
0.475800,-2.370313
0.475900,-2.533903
0.476000,-2.629331
0.476100,-2.584863
0.476200,-2.602715
0.476300,-2.586161
0.476400,-2.669255
0.476500,-2.726706
0.476600,-2.760463
0.476700,-2.766305
0.476800,-2.737093
0.476900,-2.763708
0.477000,-2.815317
0.477100,-2.785780
0.477200,-2.737093
0.477300,-2.746830
0.477400,-2.736768
0.477500,-2.867251
0.477600,-2.889322
0.477700,-2.882182
0.477800,-2.897112
0.477900,-2.793895
0.478000,-2.865628
0.478100,-2.885752
0.478200,-2.872120
0.478300,-2.919833
0.478400,-2.894840
0.478500,-2.883805
0.478600,-2.872120
0.478700,-2.868874
0.478800,-2.883155
0.478900,-2.860110
0.479000,-2.879910
0.479100,-2.886077
0.479200,-2.879260
0.479300,-2.889322
0.479400,-2.900358
0.479500,-2.926650
0.479600,-2.930869
0.479700,-2.986373
0.479800,-3.100627
0.479900,-3.342767
0.480000,-3.469679
0.480100,-3.325564
0.480200,-3.151262
0.480300,-3.049018
0.480400,-3.204169
0.480500,-3.452801
0.480600,-3.617041
0.480700,-3.558940
0.480800,-3.420992
0.480900,-3.249286
0.481000,-3.253181
0.481100,-3.389832
0.481200,-3.474548
0.481300,-3.493050
0.481400,-3.466434
0.481500,-3.424562
0.481600,-3.442414
0.481700,-3.404763
0.481800,-3.431054
0.481900,-3.404113
0.482000,-3.382042
0.482100,-3.339521
0.482200,-3.342118
0.482300,-3.358022
0.482400,-3.381717
0.482500,-3.281420
0.482600,-3.233706
0.482700,-3.244418
0.482800,-3.226890
0.482900,-3.214231
0.483000,-3.018507
0.483100,-2.915938
0.483200,-2.912368
0.483300,-3.123023
0.483400,-3.269411
0.483500,-3.308685
0.483600,-3.088942
0.483700,-2.891270
0.483800,-2.922755
0.483900,-3.082125
0.484000,-3.286289
0.484100,-3.318748
0.484200,-3.194756
0.484300,-3.091863
0.484400,-3.095433
0.484500,-3.160675
0.484600,-3.181124
0.484700,-3.133410
0.484800,-3.103873
0.484900,-3.090565
0.485000,-3.087643
0.485100,-3.074011
0.485200,-2.970468
0.485300,-2.837389
0.485400,-2.759164
0.485500,-2.763708
0.485600,-2.766630
0.485700,-2.779613
0.485800,-2.696195
0.485900,-2.556624
0.486000,-2.545264
0.486100,-2.335258
0.486200,-2.385893
0.486300,-2.382972
0.486400,-2.299229
0.486500,-2.210618
0.486600,-2.099611
0.486700,-1.980164
0.486800,-1.954198
0.486900,-1.924336
0.487000,-1.965558
0.487100,-1.887009
0.487200,-1.903238
0.487300,-1.864613
0.487400,-1.868183
0.487500,-1.864937
0.487600,-1.815601
0.487700,-1.860718
0.487800,-1.853577
0.487900,-1.876298
0.488000,-1.842541
0.488100,-1.769835
0.488200,-1.589042
0.488300,-1.394293
0.488400,-1.521529
0.488500,-1.883439
0.488600,-2.035343
0.488700,-1.925310
0.488800,-1.820145
0.488900,-1.677653
0.489000,-1.692584
0.489100,-1.892202
0.489200,-2.047353
0.489300,-2.220356
0.489400,-2.109024
0.489500,-2.053195
0.489600,-2.014895
0.489700,-2.095716
0.489800,-2.156737
0.489900,-2.249244
0.490000,-2.256384
0.490100,-2.270666
0.490200,-2.273912
0.490300,-2.351812
0.490400,-2.376480
0.490500,-2.423545
0.490600,-2.537149
0.490700,-2.608882
0.490800,-2.661789
0.490900,-2.731899
0.491000,-2.759813
0.491100,-2.694897
0.491200,-2.737093
0.491300,-2.775393
0.491400,-3.067195
0.491500,-3.165868
0.491600,-3.082125
0.491700,-2.821160
0.491800,-2.779613
0.491900,-2.901981
0.492000,-3.193782
0.492100,-3.276876
0.492200,-3.148341
0.492300,-2.928597
0.492400,-2.851671
0.492500,-2.968196
0.492600,-3.069467
0.492700,-3.078230
0.492800,-2.999356
0.492900,-2.938659
0.493000,-2.900034
0.493100,-2.964301
0.493200,-2.967872
0.493300,-2.959108
0.493400,-2.891919
0.493500,-2.856215
0.493600,-2.859461
0.493700,-2.851671
0.493800,-2.791947
0.493900,-2.728004
0.494000,-2.696195
0.494100,-2.687107
0.494200,-2.774095
0.494300,-2.748128
0.494400,-2.701713
0.494500,-2.542018
0.494600,-2.537149
0.494700,-2.532929
0.494800,-2.507612
0.494900,-2.461196
0.495000,-2.461196
0.495100,-2.417702
0.495200,-2.397903
0.495300,-2.406017
0.495400,-2.370962
0.495500,-2.382323
0.495600,-2.368690
0.495700,-2.354733
0.495800,-2.341750
0.495900,-2.343048
0.496000,-2.370962
0.496100,-2.356031
0.496200,-2.389139
0.496300,-2.423869
0.496400,-2.470934
0.496500,-2.643288
0.496600,-2.936063
0.496700,-2.998707
0.496800,-2.787079
0.496900,-2.637770
0.497000,-2.632901
0.497100,-2.888998
0.497200,-3.101601
0.497300,-3.285965
0.497400,-3.191186
0.497500,-3.045447
0.497600,-2.939633
0.497700,-3.086345
0.497800,-3.272981
0.497900,-3.366137
0.498000,-3.393727
0.498100,-3.304141
0.498200,-3.272981
0.498300,-3.316800
0.498400,-3.361917
0.498500,-3.422939
0.498600,-3.406061
0.498700,-3.419369
0.498800,-3.421966
0.498900,-3.452476
0.499000,-3.539465
0.499100,-3.547255
0.499200,-3.547255
0.499300,-3.564458
0.499400,-3.585232
0.499500,-3.687151
0.499600,-3.640736
0.499700,-3.492400
0.499800,-3.439169
0.499900,-3.551475
0.500000,-3.777062
0.500100,-3.910466
0.500200,-3.839057
0.500300,-3.606005
0.500400,-3.455722
0.500500,-3.563485
0.500600,-3.806274
0.500700,-3.958180
0.500800,-3.939030
0.500900,-3.804651
0.501000,-3.722207
0.501100,-3.711171
0.501200,-3.750770
0.501300,-3.814714
0.501400,-3.832241
0.501500,-3.816336
0.501600,-3.796212
0.501700,-3.745252
0.501800,-3.699810
0.501900,-3.584583
0.502000,-3.515446
0.502100,-3.479092
0.502200,-3.441116
0.502300,-3.463188
0.502400,-3.457021
0.502500,-3.317125
0.502600,-3.242146
0.502700,-3.220074
0.502800,-3.085371
0.502900,-3.113610
0.503000,-3.124321
0.503100,-3.062650
0.503200,-2.958783
0.503300,-2.862057
0.503400,-2.819212
0.503500,-2.764033
0.503600,-2.808826
0.503700,-2.788052
0.503800,-2.777666
0.503900,-2.749102
0.504000,-2.689703
0.504100,-2.586810
0.504200,-2.584214
0.504300,-2.518648
0.504400,-2.597522
0.504500,-2.482619
0.504600,-2.561817
0.504700,-2.389464
0.504800,-2.287869
0.504900,-1.996393
0.505000,-1.831830
0.505100,-2.104804
0.505200,-2.265797
0.505300,-2.364795
0.505400,-2.042160
0.505500,-1.986656
0.505600,-1.811057
0.505700,-1.930178
0.505800,-2.043458
0.505900,-2.135315
0.506000,-2.054169
0.506100,-1.853901
0.506200,-1.774703
0.506300,-1.686741
0.506400,-1.805539
0.506500,-1.900317
0.506600,-1.884412
0.506700,-1.844489
0.506800,-1.828584
0.506900,-1.804565
0.507000,-1.820145
0.507100,-1.834751
0.507200,-1.859744
0.507300,-1.985358
0.507400,-1.977243
0.507500,-2.037291
0.507600,-2.023658
0.507700,-1.995095
0.507800,-1.936021
0.507900,-1.925959
0.508000,-2.009377
0.508100,-2.273912
0.508200,-2.226523
0.508300,-2.095067
0.508400,-1.836049
0.508500,-1.854551
0.508600,-2.009052
0.508700,-2.256384
0.508800,-2.291764
0.508900,-2.130771
0.509000,-1.962637
0.509100,-1.919467
0.509200,-1.994121
0.509300,-2.079811
0.509400,-2.116489
0.509500,-2.143429
0.509600,-2.083382
0.509700,-2.046379
0.509800,-2.098962
0.509900,-2.147974
0.510000,-2.177186
0.510100,-2.128174
0.510200,-2.138561
0.510300,-2.177186
0.510400,-2.147649
0.510500,-2.120709
0.510600,-2.098637
0.510700,-2.067152
0.510800,-2.134017
0.510900,-2.254112
0.511000,-2.237234
0.511100,-2.208671
0.511200,-2.061310
0.511300,-2.116489
0.511400,-2.137262
0.511500,-2.144079
0.511600,-2.143429
0.511700,-2.126551
0.511800,-2.133043
0.511900,-2.123954
0.512000,-2.154790
0.512100,-2.159983
0.512200,-2.159659
0.512300,-2.189196
0.512400,-2.229769
0.512500,-2.243726
0.512600,-2.259955
0.512700,-2.309291
0.512800,-2.363821
0.512900,-2.409912
0.513000,-2.495927
0.513100,-2.569283
0.513200,-2.831222
0.513300,-3.009743
0.513400,-2.968196
0.513500,-2.735145
0.513600,-2.634524
0.513700,-2.718267
0.513800,-3.005199
0.513900,-3.303492
0.514000,-3.321993
0.514100,-3.228838
0.514200,-3.107118
0.514300,-3.158727
0.514400,-3.313554
0.514500,-3.529728
0.514600,-3.597566
0.514700,-3.612821
0.514800,-3.581337
0.514900,-3.587828
0.515000,-3.644306
0.515100,-3.680984
0.515200,-3.743629
0.515300,-3.770570
0.515400,-3.768622
0.515500,-3.835162
0.515600,-3.890667
0.515700,-3.951040
0.515800,-3.913063
0.515900,-3.960128
0.516000,-4.038029
0.516100,-4.100349
0.516200,-4.111385
0.516300,-4.013360
0.516400,-3.901378
0.516500,-3.991937
0.516600,-4.136053
0.516700,-4.321717
0.516800,-4.396047
0.516900,-4.246088
0.517000,-4.073733
0.517100,-4.037055
0.517200,-4.179548
0.517300,-4.356772
0.517400,-4.425260
0.517500,-4.351903
0.517600,-4.200971
0.517700,-4.098077
0.517800,-4.055881
0.517900,-4.034133
0.518000,-4.016930
0.518100,-3.954935
0.518200,-3.905922
0.518300,-3.827048
0.518400,-3.736488
0.518500,-3.609576
0.518600,-3.435923
0.518700,-3.305440
0.518800,-3.272332
0.518900,-3.244742
0.519000,-3.244093
0.519100,-3.158403
0.519200,-2.959433
0.519300,-2.916588
0.519400,-2.715995
0.519500,-2.742286
0.519600,-2.704634
0.519700,-2.642639
0.519800,-2.567335
0.519900,-2.466390
0.520000,-2.362848
0.520100,-2.303449
0.520200,-2.302151
0.520300,-2.287544
0.520400,-2.287220
0.520500,-2.231391
0.520600,-2.226198
0.520700,-2.081110
0.520800,-2.038265
0.520900,-1.975620
0.521000,-1.971076
0.521100,-1.959066
0.521200,-1.970427
0.521300,-1.926933
0.521400,-1.786713
0.521500,-1.558531
0.521600,-1.221290
0.521700,-1.238493
0.521800,-1.389424
0.521900,-1.637729
0.522000,-1.494913
0.522100,-1.200517
0.522200,-1.069061
0.522300,-0.925920
0.522400,-1.121968
0.522500,-1.273548
0.522600,-1.365080
0.522700,-1.144040
0.522800,-1.081395
0.522900,-0.920078
0.523000,-1.016154
0.523100,-1.063868
0.523200,-1.098598
0.523300,-1.178445
0.523400,-1.182989
0.523500,-1.221615
0.523600,-1.269004
0.523700,-1.309252
0.523800,-1.351448
0.523900,-1.412794
0.524000,-1.602025
0.524100,-1.615333
0.524200,-1.751658
0.524300,-1.744517
0.524400,-1.791257
0.524500,-1.843839
0.524600,-1.928556
0.524700,-2.196012
0.524800,-2.382647
0.524900,-2.355058
0.525000,-2.251191
0.525100,-2.149597
0.525200,-2.320976
0.525300,-2.631278
0.525400,-2.862382
0.525500,-2.902955
0.525600,-2.826353
0.525700,-2.774420
0.525800,-2.844854
0.525900,-3.017858
0.526000,-3.167167
0.526100,-3.186966
0.526200,-3.241496
0.526300,-3.219749
0.526400,-3.357698
0.526500,-3.405736
0.526600,-3.463188
0.526700,-3.479742
0.526800,-3.496620
0.526900,-3.587504
0.527000,-3.681958
0.527100,-3.694942
0.527200,-3.675142
0.527300,-3.630349
0.527400,-3.679686
0.527500,-3.870867
0.527600,-3.940977
0.527700,-3.972787
0.527800,-3.987393
0.527900,-3.972462
0.528000,-3.972138
0.528100,-3.991613
0.528200,-3.958180
0.528300,-3.963374
0.528400,-3.953636
0.528500,-3.951364
0.528600,-3.938705
0.528700,-3.931240
0.528800,-3.909817
0.528900,-3.935135
0.529000,-3.940004
0.529100,-3.963049
0.529200,-3.947144
0.529300,-3.954935
0.529400,-3.962400
0.529500,-3.986419
0.529600,-4.030238
0.529700,-4.027642
0.529800,-4.208112
0.529900,-4.439217
0.530000,-4.541787
0.530100,-4.347035
0.530200,-4.138001
0.530300,-4.009140
0.530400,-4.154879
0.530500,-4.417794
0.530600,-4.511600
0.530700,-4.422988
0.530800,-4.158450
0.530900,-4.047117
0.531000,-4.054258
0.531100,-4.219148
0.531200,-4.317173
0.531300,-4.304189
0.531400,-4.192531
0.531500,-4.103270
0.531600,-4.107814
0.531700,-4.102297
0.531800,-4.109437
0.531900,-4.092884
0.532000,-4.027966
0.532100,-3.996482
0.532200,-4.011088
0.532300,-3.943574
0.532400,-3.915011
0.532500,-3.790370
0.532600,-3.712469
0.532700,-3.726426
0.532800,-3.702082
0.532900,-3.623208
0.533000,-3.444037
0.533100,-3.347636
0.533200,-3.393077
0.533300,-3.519990
0.533400,-3.681958
0.533500,-3.619313
0.533600,-3.400218
0.533700,-3.197678
0.533800,-3.188589
0.533900,-3.350557
0.534000,-3.524210
0.534100,-3.565757
0.534200,-3.422290
0.534300,-3.278174
0.534400,-3.203520
0.534500,-3.215205
0.534600,-3.229487
0.534700,-3.214556
0.534800,-3.174957
0.534900,-3.142823
0.535000,-3.082125
0.535100,-3.031166
0.535200,-2.946449
0.535300,-2.796816
0.535400,-2.721188
0.535500,-2.695221
0.535600,-2.674123
0.535700,-2.687431
0.535800,-2.561493
0.535900,-2.432958
0.536000,-2.371936
0.536100,-2.246647
0.536200,-2.303449
0.536300,-2.305721
0.536400,-2.269043
0.536500,-2.228470
0.536600,-2.134017
0.536700,-2.097663
0.536800,-2.051897
0.536900,-2.075592
0.537000,-2.090522
0.537100,-2.126227
0.537200,-2.106752
0.537300,-2.100260
0.537400,-2.042160
0.537500,-2.097014
0.537600,-2.054494
0.537700,-2.100584
0.537800,-2.141482
0.537900,-2.147649
0.538000,-2.138561
0.538100,-2.016842
0.538200,-1.760097
0.538300,-1.621500
0.538400,-1.791582
0.538500,-2.121358
0.538600,-2.270666
0.538700,-2.166150
0.538800,-1.909730
0.538900,-1.746465
0.539000,-1.853577
0.539100,-1.987305
0.539200,-2.201205
0.539300,-2.183029
0.539400,-2.047677
0.539500,-1.952899
0.539600,-1.915572
0.539700,-1.935047
0.539800,-1.997367
0.539900,-1.986656
0.540000,-1.976918
0.540100,-1.940565
0.540200,-1.958742
0.540300,-1.971400
0.540400,-1.973997
0.540500,-1.998665
0.540600,-2.082408
0.540700,-2.238208
0.540800,-2.195687
0.540900,-2.247945
0.541000,-2.234962
0.541100,-2.182379
0.541200,-2.197959
0.541300,-2.285272
0.541400,-2.574152
0.541500,-2.621865
0.541600,-2.568634
0.541700,-2.303774
0.541800,-2.276509
0.541900,-2.375182
0.542000,-2.661789
0.542100,-2.717942
0.542200,-2.653675
0.542300,-2.447239
0.542400,-2.388165
0.542500,-2.456652
0.542600,-2.567984
0.542700,-2.637445
0.542800,-2.586486
0.542900,-2.607259
0.543000,-2.592977
0.543100,-2.698792
0.543200,-2.735470
0.543300,-2.692300
0.543400,-2.627383
0.543500,-2.676720
0.543600,-2.735145
0.543700,-2.740988
0.543800,-2.700090
0.543900,-2.682563
0.544000,-2.655947
0.544100,-2.689703
0.544200,-2.804931
0.544300,-2.806554
0.544400,-2.778315
0.544500,-2.783833
0.544600,-2.693598
0.544700,-2.725732
0.544800,-2.711450
0.544900,-2.708529
0.545000,-2.724109
0.545100,-2.713398
0.545200,-2.732873
0.545300,-2.748128
0.545400,-2.745207
0.545500,-2.752673
0.545600,-2.790974
0.545700,-2.801685
0.545800,-2.803632
0.545900,-2.804606
0.546000,-2.857838
0.546100,-2.878936
0.546200,-2.924702
0.546300,-2.997409
0.546400,-3.015910
0.546500,-3.302194
0.546600,-3.512849
0.546700,-3.561212
0.546800,-3.337249
0.546900,-3.197353
0.547000,-3.274604
0.547100,-3.467407
0.547200,-3.725128
0.547300,-3.769596
0.547400,-3.665404
0.547500,-3.473250
0.547600,-3.441116
0.547700,-3.617041
0.547800,-3.792966
0.547900,-3.852041
0.548000,-3.830618
0.548100,-3.782255
0.548200,-3.816661
0.548300,-3.824127
0.548400,-3.873464
0.548500,-3.905598
0.548600,-3.889368
0.548700,-3.861778
0.548800,-3.874113
0.548900,-3.924748
0.549000,-3.976357
0.549100,-3.921827
0.549200,-3.846848
0.549300,-3.825749
0.549400,-3.831592
0.549500,-3.853015
0.549600,-3.757587
0.549700,-3.598864
0.549800,-3.539141
0.549900,-3.623857
0.550000,-3.799458
0.550100,-3.890991
0.550200,-3.756288
0.550300,-3.529079
0.550400,-3.419044
0.550500,-3.510902
0.550600,-3.692994
0.550700,-3.827372
0.550800,-3.808871
0.550900,-3.672545
0.551000,-3.610874
0.551100,-3.622559
0.551200,-3.691047
0.551300,-3.681309
0.551400,-3.658913
0.551500,-3.645280
0.551600,-3.583284
0.551700,-3.561862
0.551800,-3.512200
0.551900,-3.373927
0.552000,-3.256103
0.552100,-3.161649
0.552200,-3.115558
0.552300,-3.078555
0.552400,-3.014287
0.552500,-2.851022
0.552600,-2.724434
0.552700,-2.501120
0.552800,-2.497225
0.552900,-2.457301
0.553000,-2.416729
0.553100,-2.327468
0.553200,-2.233664
0.553300,-2.113568
0.553400,-2.045405
0.553500,-2.084355
0.553600,-2.049950
0.553700,-2.073644
0.553800,-2.026580
0.553900,-2.096365
0.554000,-2.008078
0.554100,-2.014895
0.554200,-1.951276
0.554300,-2.029176
0.554400,-1.920441
0.554500,-2.041510
0.554600,-1.910379
0.554700,-1.928556
0.554800,-1.652985
0.554900,-1.398188
0.555000,-1.374818
0.555100,-1.494264
0.555200,-1.828909
0.555300,-1.674407
0.555400,-1.506923
0.555500,-1.193701
0.555600,-1.125538
0.555700,-1.198894
0.555800,-1.342684
0.555900,-1.350474
0.556000,-1.264460
0.556100,-1.130407
0.556200,-0.986617
0.556300,-1.041147
0.556400,-1.075228
0.556500,-1.115476
0.556600,-1.175524
0.556700,-1.167734
0.556800,-1.187209
0.556900,-1.218693
0.557000,-1.314770
0.557100,-1.320288
0.557200,-1.423180
0.557300,-1.453367
0.557400,-1.657204
0.557500,-1.706216
0.557600,-1.832804
0.557700,-1.747763
0.557800,-1.810083
0.557900,-1.735429
0.558000,-2.061310
0.558100,-2.130771
0.558200,-2.162255
0.558300,-2.003859
0.558400,-1.729911
0.558500,-1.831505
0.558600,-1.961014
0.558700,-2.173616
0.558800,-2.140833
0.558900,-1.992823
0.559000,-1.802942
0.559100,-1.759448
0.559200,-1.841892
0.559300,-1.886360
0.559400,-1.867209
0.559500,-1.859419
0.559600,-1.754255
0.559700,-1.783467
0.559800,-1.800345
0.559900,-1.844164
0.560000,-1.862665
0.560100,-1.769510
0.560200,-1.801968
0.560300,-1.809109
0.560400,-1.802617
0.560500,-1.769835
0.560600,-1.764317
0.560700,-1.769185
0.560800,-1.876947
0.560900,-1.938942
0.561000,-1.975295
0.561100,-1.913300
0.561200,-1.864288
0.561300,-1.929529
0.561400,-1.972050
0.561500,-2.005806
0.561600,-2.028527
0.561700,-2.065854
0.561800,-2.106752
0.561900,-2.160957
0.562000,-2.233339
0.562100,-2.254437
0.562200,-2.301501
0.562300,-2.327468
0.562400,-2.383621
0.562500,-2.440748
0.562600,-2.453082
0.562700,-2.501769
0.562800,-2.572529
0.562900,-2.587459
0.563000,-2.646858
0.563100,-2.781236
0.563200,-3.087319
0.563300,-3.240523
0.563400,-3.121725
0.563500,-2.963328
0.563600,-2.891919
0.563700,-3.025323
0.563800,-3.358347
0.563900,-3.555045
0.564000,-3.584907
0.564100,-3.399569
0.564200,-3.296676
0.564300,-3.334652
0.564400,-3.486233
0.564500,-3.694292
0.564600,-3.706627
0.564700,-3.721558
0.564800,-3.640087
0.564900,-3.677414
0.565000,-3.753042
0.565100,-3.801406
0.565200,-3.847497
0.565300,-3.857234
0.565400,-3.891640
0.565500,-3.929617
0.565600,-4.004272
0.565700,-4.039651
0.565800,-4.089962
0.565900,-4.091261
0.566000,-4.180846
0.566100,-4.228885
0.566200,-4.236675
0.566300,-4.162345
0.566400,-4.079251
0.566500,-4.208761
0.566600,-4.359693
0.566700,-4.601186
0.566800,-4.648576
0.566900,-4.499266
0.567000,-4.349956
0.567100,-4.365211
0.567200,-4.547629
0.567300,-4.788797
0.567400,-4.868321
0.567500,-4.812168
0.567600,-4.667402
0.567700,-4.632996
0.567800,-4.682982
0.567900,-4.736214
0.568000,-4.786201
0.568100,-4.778411
0.568200,-4.793991
0.568300,-4.742381
0.568400,-4.677139
0.568500,-4.606055
0.568600,-4.474273
0.568700,-4.394424
0.568800,-4.351579
0.568900,-4.311655
0.569000,-4.299320
0.569100,-4.161047
0.569200,-3.974085
0.569300,-3.922801
0.569400,-3.666703
0.569500,-3.694617
0.569600,-3.606979
0.569700,-3.528754
0.569800,-3.437870
0.569900,-3.290184
0.570000,-3.157754
0.570100,-3.102250
0.570200,-3.064273
0.570300,-3.098679
0.570400,-3.023051
0.570500,-3.023700
0.570600,-2.962678
0.570700,-2.871470
0.570800,-2.853618
0.570900,-2.688405
0.571000,-2.803632
0.571100,-2.656920
0.571200,-2.771823
0.571300,-2.605636
0.571400,-2.467364
0.571500,-2.236909
0.571600,-1.914598
0.571700,-1.984708
0.571800,-2.198933
0.571900,-2.333635
0.572000,-2.161282
0.572100,-1.915897
0.572200,-1.795801
0.572300,-1.683820
0.572400,-1.868183
0.572500,-1.897396
0.572600,-1.888307
0.572700,-1.718226
0.572800,-1.602999
0.572900,-1.531591
0.573000,-1.591639
0.573100,-1.616307
0.573200,-1.654283
0.573300,-1.560803
0.573400,-1.522178
0.573500,-1.531915
0.573600,-1.536135
0.573700,-1.527696
0.573800,-1.508546
0.573900,-1.520555
0.574000,-1.706541
0.574100,-1.663371
0.574200,-1.793854
0.574300,-1.796126
0.574400,-1.696154
0.574500,-1.806188
0.574600,-1.840269
0.574700,-2.183678
0.574800,-2.301177
0.574900,-2.299879
0.575000,-2.115191
0.575100,-2.112919
0.575200,-2.242752
0.575300,-2.534552
0.575400,-2.660166
0.575500,-2.636147
0.575600,-2.485216
0.575700,-2.390437
0.575800,-2.478075
0.575900,-2.612128
0.576000,-2.706582
0.576100,-2.677045
0.576200,-2.649455
0.576300,-2.594925
0.576400,-2.653675
0.576500,-2.693923
0.576600,-2.711450
0.576700,-2.689054
0.576800,-2.652052
0.576900,-2.656596
0.577000,-2.653350
0.577100,-2.572853
0.577200,-2.517349
0.577300,-2.474504
0.577400,-2.453082
0.577500,-2.568309
0.577600,-2.548834
0.577700,-2.521569
0.577800,-2.355382
0.577900,-2.353110
0.578000,-2.375182
0.578100,-2.360576
0.578200,-2.315459
0.578300,-2.294036
0.578400,-2.258007
0.578500,-2.253788
0.578600,-2.218408
0.578700,-2.235936
0.578800,-2.175563
0.578900,-2.195363
0.579000,-2.162904
0.579100,-2.156413
0.579200,-2.133367
0.579300,-2.157387
0.579400,-2.172967
0.579500,-2.215811
0.579600,-2.243401
0.579700,-2.256709
0.579800,-2.440748
0.579900,-2.678668
0.580000,-2.757866
0.580100,-2.568958
0.580200,-2.422896
0.580300,-2.434256
0.580400,-2.612777
0.580500,-2.901007
0.580600,-3.002927
0.580700,-2.912368
0.580800,-2.747804
0.580900,-2.673799
0.581000,-2.818888
0.581100,-3.038307
0.581200,-3.119128
0.581300,-3.110364
0.581400,-3.055834
0.581500,-3.055185
0.581600,-3.095758
0.581700,-3.146718
0.581800,-3.202222
0.581900,-3.221372
0.582000,-3.219749
0.582100,-3.284991
0.582200,-3.367760
0.582300,-3.465460
0.582400,-3.408333
0.582500,-3.384638
0.582600,-3.375225
0.582700,-3.451503
0.582800,-3.519666
0.582900,-3.485584
0.583000,-3.328485
0.583100,-3.254804
0.583200,-3.379445
0.583300,-3.560563
0.583400,-3.688450
0.583500,-3.610874
0.583600,-3.403464
0.583700,-3.262919
0.583800,-3.328810
0.583900,-3.530377
0.584000,-3.702732
0.584100,-3.675466
0.584200,-3.551150
0.584300,-3.386586
0.584400,-3.338223
0.584500,-3.366137
0.584600,-3.387884
0.584700,-3.368734
0.584800,-3.307387
0.584900,-3.237926
0.585000,-3.215854
0.585100,-3.142823
0.585200,-3.036684
0.585300,-2.884129
0.585400,-2.815317
0.585500,-2.799737
0.585600,-2.774744
0.585700,-2.741312
0.585800,-2.579020
0.585900,-2.431659
0.586000,-2.345320
0.586100,-2.225549
0.586200,-2.249568
0.586300,-2.203153
0.586400,-2.130122
0.586500,-2.056441
0.586600,-1.906159
0.586700,-1.855849
0.586800,-1.838971
0.586900,-1.838646
0.587000,-1.867859
0.587100,-1.825987
0.587200,-1.875649
0.587300,-1.794503
0.587400,-1.809109
0.587500,-1.726340
0.587600,-1.805214
0.587700,-1.763667
0.587800,-1.849682
0.587900,-1.847734
0.588000,-1.759772
0.588100,-1.637080
0.588200,-1.339114
0.588300,-1.312173
0.588400,-1.414741
0.588500,-1.853252
0.588600,-1.768861
0.588700,-1.727314
0.588800,-1.405004
0.588900,-1.299839
0.589000,-1.351448
0.589100,-1.505624
0.589200,-1.660126
0.589300,-1.544899
0.589400,-1.430646
0.589500,-1.252775
0.589600,-1.306331
0.589700,-1.338140
0.589800,-1.494264
0.589900,-1.426102
0.590000,-1.411495
0.590100,-1.374493
0.590200,-1.358264
0.590300,-1.390073
0.590400,-1.363457
0.590500,-1.368326
0.590600,-1.451094
0.590700,-1.525099
0.590800,-1.517634
0.590900,-1.597481
0.591000,-1.485500
0.591100,-1.498159
0.591200,-1.463429
0.591300,-1.553338
0.591400,-1.827286
0.591500,-1.801644
0.591600,-1.710436
0.591700,-1.478684
0.591800,-1.480956
0.591900,-1.657854
0.592000,-1.925959
0.592100,-1.988603
0.592200,-1.859095
0.592300,-1.681873
0.592400,-1.647142
0.592500,-1.762045
0.592600,-1.887658
0.592700,-1.913625
0.592800,-1.941539
0.592900,-1.891553
0.593000,-1.868508
0.593100,-1.919792
0.593200,-2.003859
0.593300,-1.996393
0.593400,-1.942188
0.593500,-1.971400
0.593600,-2.016193
0.593700,-2.034045
0.593800,-1.998341
0.593900,-1.983410
0.594000,-1.985358
0.594100,-2.024307
0.594200,-2.159009
0.594300,-2.194714
0.594400,-2.233988
0.594500,-2.264499
0.594600,-2.227496
0.594700,-2.313836
0.594800,-2.363172
0.594900,-2.386218
0.595000,-2.422571
0.595100,-2.465416
0.595200,-2.556624
0.595300,-2.593627
0.595400,-2.645885
0.595500,-2.668281
0.595600,-2.746506
0.595700,-2.808176
0.595800,-2.854917
0.595900,-2.876664
0.596000,-2.910745
0.596100,-2.969819
0.596200,-3.006822
0.596300,-3.052588
0.596400,-3.146393
0.596500,-3.354776
0.596600,-3.534272
0.596700,-3.430405
0.596800,-3.239549
0.596900,-3.091214
0.597000,-3.146718
0.597100,-3.396323
0.597200,-3.625480
0.597300,-3.686827
0.597400,-3.529728
0.597500,-3.450529
0.597600,-3.452801
0.597700,-3.618339
0.597800,-3.763429
0.597900,-3.865673
0.598000,-3.827048
0.598100,-3.776737
0.598200,-3.833864
0.598300,-3.828346
0.598400,-3.825425
0.598500,-3.848470
0.598600,-3.831267
0.598700,-3.883850
0.598800,-3.893263
0.598900,-3.937082
0.599000,-3.974734
0.599100,-3.968243
0.599200,-3.905273
0.599300,-3.927669
0.599400,-3.938705
0.599500,-3.964672
0.599600,-3.863401
0.599700,-3.699161
0.599800,-3.709223
0.599900,-3.820556
0.600000,-3.974085
0.600100,-4.049389
0.600200,-3.867296
0.600300,-3.594320
0.600400,-3.461565
0.600500,-3.556993
0.600600,-3.743305
0.600700,-3.804327
0.600800,-3.692994
0.600900,-3.516095
0.601000,-3.410930
0.601100,-3.366137
0.601200,-3.380094
0.601300,-3.350881
0.601400,-3.314528
0.601500,-3.282719
0.601600,-3.179825
0.601700,-3.092512
0.601800,-2.992540
0.601900,-2.816291
0.602000,-2.663737
0.602100,-2.600118
0.602200,-2.557598
0.602300,-2.498524
0.602400,-2.371936
0.602500,-2.156737
0.602600,-2.044107
0.602700,-1.773405
0.602800,-1.763992
0.602900,-1.668889
0.603000,-1.557233
0.603100,-1.446226
0.603200,-1.310226
0.603300,-1.153777
0.603400,-1.036603
0.603500,-0.975257
0.603600,-0.963572
0.603700,-0.963572
0.603800,-0.958379
0.603900,-0.966493
0.604000,-0.936307
0.604100,-0.908068
0.604200,-0.920402
0.604300,-0.954484
0.604400,-1.000899
0.604500,-1.064842
0.604600,-1.134951
0.604700,-1.065166
0.604800,-0.971037
0.604900,-0.725653
0.605000,-0.829844
0.605100,-1.184288
0.605200,-1.462130
0.605300,-1.555285
0.605400,-1.300164
0.605500,-1.201815
0.605600,-1.169032
0.605700,-1.357615
0.605800,-1.532240
0.605900,-1.635457
0.606000,-1.578980
0.606100,-1.481281
0.606200,-1.441682
0.606300,-1.440059
0.606400,-1.528345
0.606500,-1.626369
0.606600,-1.653634
0.606700,-1.715954
0.606800,-1.741271
0.606900,-1.785090
0.607000,-1.790932
0.607100,-1.818522
0.607200,-1.894150
0.607300,-2.004833
0.607400,-1.982112
0.607500,-2.084680
0.607600,-2.068775
0.607700,-2.031448
0.607800,-2.033396
0.607900,-2.060985
0.608000,-2.202504
0.608100,-2.378752
0.608200,-2.326494
0.608300,-2.092794
0.608400,-1.955171
0.608500,-1.980164
0.608600,-2.220031
0.608700,-2.386542
0.608800,-2.365120
0.608900,-2.186599
0.609000,-2.049300
0.609100,-2.095716
0.609200,-2.167773
0.609300,-2.229119
0.609400,-2.163554
0.609500,-2.183029
0.609600,-2.125577
0.609700,-2.177835
0.609800,-2.171668
0.609900,-2.146026
0.610000,-2.097663
0.610100,-2.081434
0.610200,-2.126227
0.610300,-2.155764
0.610400,-2.126876
0.610500,-2.051897
0.610600,-2.045081
0.610700,-2.049950
0.610800,-2.161606
0.610900,-2.203477
0.611000,-2.191792
0.611100,-2.173616
0.611200,-2.088900
0.611300,-2.106752
0.611400,-2.116814
0.611500,-2.108699
0.611600,-2.107725
0.611700,-2.107401
0.611800,-2.097014
0.611900,-2.126227
0.612000,-2.113243
0.612100,-2.117787
0.612200,-2.129472
0.612300,-2.142131
0.612400,-2.116164
0.612500,-2.147649
0.612600,-2.114542
0.612700,-2.182055
0.612800,-2.186599
0.612900,-2.247621
0.613000,-2.256060
0.613100,-2.428738
0.613200,-2.679966
0.613300,-2.770849
0.613400,-2.632577
0.613500,-2.474504
0.613600,-2.416404
0.613700,-2.616997
0.613800,-2.875690
0.613900,-3.019481
0.614000,-2.977609
0.614100,-2.843556
0.614200,-2.758515
0.614300,-2.838363
0.614400,-3.049992
0.614500,-3.149964
0.614600,-3.188589
0.614700,-3.166193
0.614800,-3.168789
0.614900,-3.182097
0.615000,-3.233057
0.615100,-3.288561
0.615200,-3.316151
0.615300,-3.331731
0.615400,-3.397946
0.615500,-3.405736
0.615600,-3.484610
0.615700,-3.561212
0.615800,-3.544983
0.615900,-3.534272
0.616000,-3.543360
0.616100,-3.625156
0.616200,-3.602110
0.616300,-3.462539
0.616400,-3.411254
0.616500,-3.436247
0.616600,-3.657614
0.616700,-3.803353
0.616800,-3.825100
0.616900,-3.620612
0.617000,-3.438519
0.617100,-3.458968
0.617200,-3.656965
0.617300,-3.845549
0.617400,-3.864700
0.617500,-3.764078
0.617600,-3.691047
0.617700,-3.666703
0.617800,-3.697214
0.617900,-3.716689
0.618000,-3.702732
0.618100,-3.676116
0.618200,-3.661834
0.618300,-3.632946
0.618400,-3.592048
0.618500,-3.498892
0.618600,-3.366462
0.618700,-3.292781
0.618800,-3.260322
0.618900,-3.240198
0.619000,-3.236628
0.619100,-3.105820
0.619200,-2.940607
0.619300,-2.781561
0.619400,-2.667307
0.619500,-2.674448
0.619600,-2.665035
0.619700,-2.626085
0.619800,-2.561493
0.619900,-2.424194
0.620000,-2.369989
0.620100,-2.321301
0.620200,-2.329416
0.620300,-2.349540
0.620400,-2.324871
0.620500,-2.366743
0.620600,-2.282351
0.620700,-2.302800
0.620800,-2.225549
0.620900,-2.215162
0.621000,-2.215811
0.621100,-2.184652
0.621200,-2.218084
0.621300,-2.118112
0.621400,-2.098312
0.621500,-1.842866
0.621600,-1.639352
0.621700,-1.773730
0.621800,-2.010675
0.621900,-2.196986
0.622000,-1.949329
0.622100,-1.834102
0.622200,-1.684469
0.622300,-1.695505
0.622400,-1.825338
0.622500,-1.942188
0.622600,-1.975945
0.622700,-1.878894
0.622800,-1.766264
0.622900,-1.720498
0.623000,-1.742245
0.623100,-1.753281
0.623200,-1.729911
0.623300,-1.785739
0.623400,-1.780870
0.623500,-1.763992
0.623600,-1.803591
0.623700,-1.811381
0.623800,-1.824040
0.623900,-1.916546
0.624000,-1.983735
0.624100,-1.995744
0.624200,-1.949004
0.624300,-2.031773
0.624400,-1.894150
0.624500,-1.916546
0.624600,-1.973023
0.624700,-2.217434
0.624800,-2.272938
0.624900,-2.136613
0.625000,-1.903238
0.625100,-1.849033
0.625200,-1.994121
0.625300,-2.238208
0.625400,-2.315134
0.625500,-2.204451
0.625600,-2.022685
0.625700,-1.972699
0.625800,-2.087926
0.625900,-2.166475
0.626000,-2.184652
0.626100,-2.127525
0.626200,-2.149597
0.626300,-2.120059
0.626400,-2.200232
0.626500,-2.235286
0.626600,-2.203477
0.626700,-2.183353
0.626800,-2.209969
0.626900,-2.300852
0.627000,-2.326494
0.627100,-2.303449
0.627200,-2.312537
0.627300,-2.313186
0.627400,-2.366418
0.627500,-2.468986
0.627600,-2.507937
0.627700,-2.530008
0.627800,-2.543641
0.627900,-2.465741
0.628000,-2.526762
0.628100,-2.507612
0.628200,-2.517349
0.628300,-2.514428
0.628400,-2.542342
0.628500,-2.567011
0.628600,-2.590381
0.628700,-2.600118
0.628800,-2.621541
0.628900,-2.606935
0.629000,-2.649780
0.629100,-2.619918
0.629200,-2.643612
0.629300,-2.641016
0.629400,-2.642963
0.629500,-2.668281
0.629600,-2.661465
0.629700,-2.715670
0.629800,-2.885752
0.629900,-3.148665
0.630000,-3.133734
0.630100,-2.897437
0.630200,-2.794219
0.630300,-2.748453
0.630400,-3.023051
0.630500,-3.230785
0.630600,-3.322318
0.630700,-3.213907
0.630800,-3.074335
0.630900,-3.046746
0.631000,-3.126594
0.631100,-3.290833
0.631200,-3.342767
0.631300,-3.331731
0.631400,-3.277201
0.631500,-3.275902
0.631600,-3.307387
0.631700,-3.309010
