0.000100,-0.800307
0.000200,-1.010312
0.000300,-1.279066
0.000400,-1.406302
0.000500,-1.369949
0.000600,-1.245309
0.000700,-1.223887
0.000800,-1.308927
0.000900,-1.490369
0.001000,-1.604297
0.001100,-1.630264
0.001200,-1.539056
0.001300,-1.503677
0.001400,-1.564698
0.001500,-1.586770
0.001600,-1.617281
0.001700,-1.624097
0.001800,-1.583849
0.001900,-1.580278
0.002000,-1.635782
0.002100,-1.685768
0.002200,-1.660450
0.002300,-1.611763
0.002400,-1.600402
0.002500,-1.714331
0.002600,-1.730560
0.002700,-1.693233
0.002800,-1.519257
0.002900,-1.491018
0.003000,-1.609166
0.003100,-1.842866
0.003200,-1.931801
0.003300,-1.889930
0.003400,-1.714331
0.003500,-1.576708
0.003600,-1.661424
0.003700,-1.834426
0.003800,-2.002885
0.003900,-2.023334
0.004000,-1.891553
0.004100,-1.798398
0.004200,-1.760097
0.004300,-1.769185
0.004400,-1.800670
0.004500,-1.804240
0.004600,-1.796775
0.004700,-1.759772
0.004800,-1.753605
0.004900,-1.714006
0.005000,-1.624746
0.005100,-1.519581
0.005200,-1.453042
0.005300,-1.456937
0.005400,-1.442980
0.005500,-1.454989
0.005600,-1.354693
0.005700,-1.248880
0.005800,-1.170980
0.005900,-0.991811
0.006000,-1.023295
0.006100,-1.000899
0.006200,-0.918780
0.006300,-0.794789
0.006400,-0.685081
0.006500,-0.618217
0.006600,-0.584460
0.006700,-0.558494
0.006800,-0.528308
0.006900,-0.466312
0.007000,-0.508508
0.007100,-0.445215
0.007200,-0.441969
0.007300,-0.347840
0.007400,-0.413406
0.007500,-0.326093
0.007600,-0.377702
0.007700,-0.399773
0.007800,-0.346217
0.007900,-0.260852
0.008000,0.001734
0.008100,0.120207
0.008200,-0.045979
0.008300,-0.318952
0.008400,-0.334532
0.008500,-0.141731
0.008600,-0.092070
0.008700,0.072169
0.008800,-0.067401
0.008900,-0.171917
0.009000,-0.342971
0.009100,-0.308890
0.009200,-0.126800
0.009300,-0.067401
0.009400,-0.037215
0.009500,-0.106351
0.009600,-0.192365
0.009700,-0.186847
0.009800,-0.198857
0.009900,-0.203077
0.010000,-0.167373
0.010100,-0.148547
0.010200,-0.168671
0.010300,-0.178733
0.010400,-0.309215
0.010500,-0.277406
0.010600,-0.436451
0.010700,-0.363095
0.010800,-0.384193
0.010900,-0.291363
0.011000,-0.243649
0.011100,-0.444890
0.011200,-0.616269
0.011300,-0.598093
0.011400,-0.461444
0.011500,-0.229692
0.011600,-0.339076
0.011700,-0.343620
0.011800,-0.611076
0.011900,-0.646455
0.012000,-0.590952
0.012100,-0.444565
0.012200,-0.332260
0.012300,-0.435153
0.012400,-0.557520
0.012500,-0.606207
0.012600,-0.644832
0.012700,-0.650026
0.012800,-0.659439
0.012900,-0.702608
0.013000,-0.783104
0.013100,-0.870741
0.013200,-0.871391
0.013300,-0.848345
0.013400,-0.894761
0.013500,-0.900928
0.013600,-0.882751
0.013700,-0.843477
0.013800,-0.841529
0.013900,-0.875286
0.014000,-0.961624
0.014100,-0.963572
0.014200,-0.957080
0.014300,-0.763629
0.014400,-0.823677
0.014500,-0.854188
0.014600,-0.846073
0.014700,-0.830169
0.014800,-0.844775
0.014900,-0.842827
0.015000,-0.863925
0.015100,-0.878531
0.015200,-0.898006
0.015300,-0.904173
0.015400,-0.920402
0.015500,-0.917157
0.015600,-0.964546
0.015700,-0.970064
0.015800,-0.988565
0.015900,-1.022646
0.016000,-1.073930
0.016100,-1.126837
0.016200,-1.182340
0.016300,-1.458884
0.016400,-1.664994
0.016500,-1.605596
0.016600,-1.399161
0.016700,-1.355018
0.016800,-1.378713
0.016900,-1.550741
0.017000,-1.755877
0.017100,-1.766264
0.017200,-1.605920
0.017300,-1.458235
0.017400,-1.435514
0.017500,-1.484202
0.017600,-1.630589
0.017700,-1.694207
0.017800,-1.681873
0.017900,-1.559830
0.018000,-1.551390
0.018100,-1.602674
0.018200,-1.623772
0.018300,-1.645844
0.018400,-1.666293
0.018500,-1.669538
0.018600,-1.697777
0.018700,-1.765940
0.018800,-1.780221
0.018900,-1.714006
0.019000,-1.690961
0.019100,-1.737701
0.019200,-1.802293
0.019300,-1.816250
0.019400,-1.731858
0.019500,-1.609166
0.019600,-1.630264
0.019700,-1.770484
0.019800,-2.003859
0.019900,-2.017816
0.020000,-1.965233
0.020100,-1.832154
0.020200,-1.768861
0.020300,-1.877921
0.020400,-2.046379
0.020500,-2.174914
0.020600,-2.153816
0.020700,-2.048976
0.020800,-1.954198
0.020900,-1.906808
0.021000,-1.886684
0.021100,-1.887983
0.021200,-1.849682
0.021300,-1.815601
0.021400,-1.744192
0.021500,-1.656880
0.021600,-1.561777
0.021700,-1.382608
0.021800,-1.278092
0.021900,-1.209281
0.022000,-1.185262
0.022100,-1.154102
0.022200,-1.096651
0.022300,-0.957405
0.022400,-0.897357
0.022500,-0.673071
0.022600,-0.679563
0.022700,-0.662360
0.022800,-0.661711
0.022900,-0.577319
0.023000,-0.515973
0.023100,-0.430933
0.023200,-0.398475
0.023300,-0.402045
0.023400,-0.414379
0.023500,-0.449759
0.023600,-0.447162
0.023700,-0.506561
0.023800,-0.434503
0.023900,-0.431907
0.024000,-0.433205
0.024100,-0.468584
0.024200,-0.520518
0.024300,-0.485463
0.024400,-0.660412
0.024500,-0.416002
0.024600,-0.378351
0.024700,-0.048251
0.024800,-0.153740
0.024900,-0.282599
0.025000,-0.571477
0.025100,-0.502990
0.025200,-0.207621
0.025300,-0.092070
0.025400,-0.017416
0.025500,-0.042409
0.025600,-0.224499
0.025700,-0.258255
0.025800,-0.230017
0.025900,0.007252
0.026000,0.039386
0.026100,0.022183
0.026200,-0.014495
0.026300,-0.040137
0.026400,-0.030075
0.026500,-0.069674
0.026600,-0.063182
0.026700,-0.049225
0.026800,-0.070972
0.026900,-0.063182
0.027000,-0.103755
0.027100,-0.194637
0.027200,-0.297854
0.027300,-0.343620
0.027400,-0.381272
0.027500,-0.240728
0.027600,-0.289740
0.027700,-0.283897
0.027800,-0.521816
0.027900,-0.700660
0.028000,-0.591276
0.028100,-0.459821
0.028200,-0.315057
0.028300,-0.418923
0.028400,-0.563687
0.028500,-0.779209
0.028600,-0.750646
0.028700,-0.626331
0.028800,-0.491630
0.028900,-0.506236
0.029000,-0.599716
0.029100,-0.685405
0.029200,-0.655544
0.029300,-0.712995
0.029400,-0.671124
0.029500,-0.739610
0.029600,-0.761357
0.029700,-0.813290
0.029800,-0.853214
0.029900,-0.789271
0.030000,-0.811992
0.030100,-0.899305
0.030200,-0.926245
0.030300,-0.946044
0.030400,-0.945395
0.030500,-0.966818
0.030600,-1.108011
0.030700,-1.184288
0.030800,-1.197271
0.030900,-1.221290
0.031000,-1.245309
0.031100,-1.176822
0.031200,-1.188832
0.031300,-1.170980
0.031400,-1.186884
0.031500,-1.181042
0.031600,-1.192727
0.031700,-1.171304
0.031800,-1.187858
0.031900,-1.195324
0.032000,-1.192402
0.032100,-1.244335
0.032200,-1.243037
0.032300,-1.283285
0.032400,-1.317042
0.032500,-1.368001
0.032600,-1.417013
0.032700,-1.531266
0.032800,-1.591639
0.032900,-1.735429
0.033000,-1.993148
0.033100,-2.177186
0.033200,-2.040861
0.033300,-1.912976
0.033400,-1.853577
0.033500,-2.031448
0.033600,-2.345969
0.033700,-2.485216
0.033800,-2.423869
0.033900,-2.208671
0.034000,-2.096365
0.034100,-2.137587
0.034200,-2.286571
0.034300,-2.380700
0.034400,-2.363172
0.034500,-2.261253
0.034600,-2.180757
0.034700,-2.150570
0.034800,-2.179134
0.034900,-2.118437
0.035000,-2.070398
0.035100,-1.995095
0.035200,-1.961014
0.035300,-1.962637
0.035400,-2.026255
0.035500,-1.952899
0.035600,-1.885386
0.035700,-1.857147
0.035800,-1.877596
0.035900,-1.909405
0.036000,-1.836374
0.036100,-1.717901
0.036200,-1.544574
0.036300,-1.642274
0.036400,-1.830856
0.036500,-1.963610
0.036600,-1.937644
0.036700,-1.761720
0.036800,-1.600727
0.036900,-1.582550
0.037000,-1.758474
0.037100,-1.936670
0.037200,-2.028527
0.037300,-1.969128
0.037400,-1.854226
0.037500,-1.809758
0.037600,-1.811706
0.037700,-1.829882
0.037800,-1.832804
0.037900,-1.785415
0.038000,-1.733806
0.038100,-1.723419
0.038200,-1.688364
0.038300,-1.619877
0.038400,-1.484202
0.038500,-1.394293
0.038600,-1.377414
0.038700,-1.340087
0.038800,-1.360536
0.038900,-1.251476
0.039000,-1.080097
0.039100,-1.035954
0.039200,-0.807123
0.039300,-0.872364
0.039400,-0.834064
0.039500,-0.773042
0.039600,-0.666579
0.039700,-0.567257
0.039800,-0.462742
0.039900,-0.411783
0.040000,-0.376403
0.040100,-0.381272
0.040200,-0.314084
0.040300,-0.383869
0.040400,-0.274485
0.040500,-0.284222
0.040600,-0.193339
0.040700,-0.240403
0.040800,-0.184900
0.040900,-0.202103
0.041000,-0.201778
0.041100,-0.143354
0.041200,-0.109597
0.041300,0.220178
0.041400,0.307815
0.041500,0.248092
0.041600,-0.024232
0.041700,-0.217683
0.041800,-0.043382
0.041900,0.098135
0.042000,0.391232
0.042100,0.241925
0.042200,0.195834
0.042300,-0.049874
0.042400,-0.036242
0.042500,0.096837
0.042600,0.219529
0.042700,0.348712
0.042800,0.218230
0.042900,0.189343
0.043000,0.143252
0.043100,0.192913
0.043200,0.189343
0.043300,0.207195
0.043400,0.237381
0.043500,0.179930
0.043600,0.188369
0.043700,0.074765
0.043800,0.045228
0.043900,-0.110571
0.044000,-0.118361
0.044100,-0.166723
0.044200,-0.053769
0.044300,-0.035917
0.044400,-0.187497
0.044500,-0.418274
0.044600,-0.549730
0.044700,-0.487086
0.044800,-0.266695
0.044900,-0.284871
0.045000,-0.312461
0.045100,-0.590303
0.045200,-0.705205
0.045300,-0.688976
0.045400,-0.514675
0.045500,-0.364069
0.045600,-0.455601
0.045700,-0.567582
0.045800,-0.607830
0.045900,-0.555572
0.046000,-0.557844
0.046100,-0.486761
0.046200,-0.505911
0.046300,-0.527658
0.046400,-0.553300
0.046500,-0.528957
0.046600,-0.508508
0.046700,-0.530580
0.046800,-0.455277
0.046900,-0.403668
0.047000,-0.410809
0.047100,-0.422169
0.047200,-0.433530
0.047300,-0.577319
0.047400,-0.607830
0.047500,-0.617243
0.047600,-0.623410
0.047700,-0.539343
0.047800,-0.539343
0.047900,-0.497797
0.048000,-0.483840
0.048100,-0.509157
0.048200,-0.523763
0.048300,-0.542265
0.048400,-0.556871
0.048500,-0.547782
0.048600,-0.564661
0.048700,-0.553300
0.048800,-0.557195
0.048900,-0.558494
0.049000,-0.541940
0.049100,-0.589653
0.049200,-0.569205
0.049300,-0.659114
0.049400,-0.683458
0.049500,-0.694169
0.049600,-0.915209
0.049700,-1.127486
0.049800,-1.164813
0.049900,-0.981099
0.050000,-0.831142
0.050100,-0.814913
0.050200,-1.062569
0.050300,-1.336517
0.050400,-1.419935
0.050500,-1.355018
0.050600,-1.228106
0.050700,-1.216421
0.050800,-1.288803
0.050900,-1.490694
0.051000,-1.607219
0.051100,-1.660126
0.051200,-1.583524
0.051300,-1.596183
0.051400,-1.636756
0.051500,-1.671811
0.051600,-1.674407
0.051700,-1.721147
0.051800,-1.721472
0.051900,-1.728288
0.052000,-1.778923
0.052100,-1.811057
0.052200,-1.802942
0.052300,-1.812355
0.052400,-1.847734
0.052500,-1.905510
0.052600,-1.935047
0.052700,-1.878570
0.052800,-1.683820
0.052900,-1.711410
0.053000,-1.800670
0.053100,-2.024632
0.053200,-2.088900
0.053300,-2.036317
0.053400,-1.852603
0.053500,-1.723744
0.053600,-1.817873
0.053700,-1.957768
0.053800,-2.094093
0.053900,-2.100584
0.054000,-1.992174
0.054100,-1.938618
0.054200,-1.920116
0.054300,-1.942513
0.054400,-1.962637
0.054500,-1.965883
0.054600,-1.949978
0.054700,-1.928880
0.054800,-1.893176
0.054900,-1.841243
0.055000,-1.719524
0.055100,-1.602025
0.055200,-1.577682
0.055300,-1.570865
0.055400,-1.540030
0.055500,-1.513090
0.055600,-1.392345
0.055700,-1.317042
0.055800,-1.154426
0.055900,-1.062569
0.056000,-1.053806
0.056100,-1.054455
0.056200,-0.937281
0.056300,-0.839582
0.056400,-0.712021
0.056500,-0.597119
0.056600,-0.543887
0.056700,-0.527009
0.056800,-0.475725
0.056900,-0.467935
0.057000,-0.452680
0.057100,-0.465014
0.057200,-0.386790
0.057300,-0.423792
0.057400,-0.366990
0.057500,-0.411783
0.057600,-0.418923
0.057700,-0.513052
0.057800,-0.450408
0.057900,-0.398799
0.058000,-0.091745
0.058100,-0.111220
0.058200,-0.254360
0.058300,-0.527658
0.058400,-0.501367
0.058500,-0.322198
0.058600,-0.107000
0.058700,-0.020986
0.058800,-0.074542
0.058900,-0.224499
0.059000,-0.235859
0.059100,-0.213788
0.059200,-0.031048
0.059300,0.034842
0.059400,0.059835
0.059500,0.019586
0.059600,-0.041759
0.059700,0.025104
0.059800,-0.037215
0.059900,-0.006380
0.060000,-0.022934
0.060100,-0.007678
0.060200,-0.046953
0.060300,0.011147
0.060400,-0.107000
0.060500,-0.152766
0.060600,-0.169320
0.060700,-0.255659
0.060800,-0.124203
0.060900,-0.165101
0.061000,-0.132967
0.061100,-0.432231
0.061200,-0.582837
0.061300,-0.583162
0.061400,-0.436451
0.061500,-0.237482
0.061600,-0.337453
0.061700,-0.411458
0.061800,-0.707152
0.061900,-0.708450
0.062000,-0.617243
0.062100,-0.468260
0.062200,-0.412432
0.062300,-0.548432
0.062400,-0.633472
0.062500,-0.648403
0.062600,-0.655868
0.062700,-0.638990
0.062800,-0.674045
0.062900,-0.710723
0.063000,-0.714618
0.063100,-0.725004
0.063200,-0.684756
0.063300,-0.726952
0.063400,-0.774341
0.063500,-0.791543
0.063600,-0.778885
0.063700,-0.779858
0.063800,-0.771095
0.063900,-0.866197
0.064000,-0.966169
0.064100,-0.953834
0.064200,-0.947667
0.064300,-0.937281
0.064400,-0.835687
0.064500,-0.847047
0.064600,-0.825300
0.064700,-0.826923
0.064800,-0.816536
0.064900,-0.784078
0.065000,-0.763629
0.065100,-0.759410
0.065200,-0.752594
0.065300,-0.772393
0.065400,-0.739610
0.065500,-0.730847
0.065600,-0.733119
0.065700,-0.766551
0.065800,-0.781157
0.065900,-0.822379
0.066000,-0.856784
0.066100,-0.897682
0.066200,-0.947018
0.066300,-1.207333
0.066400,-1.363782
0.066500,-1.302760
0.066600,-1.154426
0.066700,-1.021348
0.066800,-1.154426
0.066900,-1.423505
0.067000,-1.619877
0.067100,-1.647791
0.067200,-1.542302
0.067300,-1.421882
0.067400,-1.460832
0.067500,-1.602025
0.067600,-1.786064
0.067700,-1.817873
0.067800,-1.821443
0.067900,-1.754255
0.068000,-1.758799
0.068100,-1.844164
0.068200,-1.871104
0.068300,-1.896422
0.068400,-1.896097
0.068500,-1.874026
0.068600,-1.947706
0.068700,-2.026904
0.068800,-2.035343
0.068900,-1.972374
0.069000,-1.943486
0.069100,-1.993472
0.069200,-2.031773
0.069300,-2.090847
0.069400,-1.905835
0.069500,-1.776651
0.069600,-1.781520
0.069700,-1.893176
0.069800,-2.093119
0.069900,-2.063582
0.070000,-1.949978
0.070100,-1.742245
0.070200,-1.692584
0.070300,-1.793854
0.070400,-1.936995
0.070500,-2.023009
0.070600,-1.966532
0.070700,-1.809109
0.070800,-1.735104
0.070900,-1.710436
0.071000,-1.712059
0.071100,-1.755877
0.071200,-1.727963
0.071300,-1.708164
0.071400,-1.667591
0.071500,-1.628641
0.071600,-1.547495
0.071700,-1.443629
0.071800,-1.375467
0.071900,-1.368326
0.072000,-1.366378
0.072100,-1.376116
0.072200,-1.380985
0.072300,-1.272899
0.072400,-1.257643
0.072500,-1.041147
0.072600,-1.126188
0.072700,-1.155075
0.072800,-1.179419
0.072900,-1.123591
0.073000,-1.086264
0.073100,-1.046665
0.073200,-1.020374
0.073300,-1.046340
0.073400,-1.093080
0.073500,-1.131381
0.073600,-1.157023
0.073700,-1.165787
0.073800,-1.099572
0.073900,-1.045367
0.074000,-1.096975
0.074100,-0.977529
0.074200,-1.057376
0.074300,-0.970064
0.074400,-0.994732
0.074500,-0.789271
0.074600,-0.591926
0.074700,-0.385492
0.074800,-0.264098
0.074900,-0.580565
0.075000,-0.583811
0.075100,-0.449434
0.075200,-0.190418
0.075300,0.030622
0.075400,0.105925
0.075500,0.045553
0.075600,-0.113817
0.075700,-0.055716
0.075800,0.014069
0.075900,0.232837
0.076000,0.318526
0.076100,0.320474
0.076200,0.265295
0.076300,0.248416
0.076400,0.248092
0.076500,0.258479
0.076600,0.273409
0.076700,0.295805
0.076800,0.257180
0.076900,0.253610
0.077000,0.255233
0.077100,0.145200
0.077200,0.087424
0.077300,0.058861
0.077400,0.011147
0.077500,0.119233
0.077600,0.114689
0.077700,0.124102
0.077800,-0.143354
0.077900,-0.251115
0.078000,-0.192365
0.078100,-0.027153
0.078200,0.019586
0.078300,-0.064156
0.078400,-0.208594
0.078500,-0.381272
0.078600,-0.344919
0.078700,-0.242676
0.078800,-0.083631
0.078900,-0.126800
0.079000,-0.210542
0.079100,-0.272212
0.079200,-0.248518
0.079300,-0.312461
0.079400,-0.258580
0.079500,-0.312785
0.079600,-0.326093
0.079700,-0.362771
0.079800,-0.401396
0.079900,-0.387439
0.080000,-0.428012
0.080100,-0.420222
0.080200,-0.370561
0.080300,-0.281625
0.080400,-0.293310
0.080500,-0.295907
0.080600,-0.401071
0.080700,-0.456575
0.080800,-0.454952
0.080900,-0.423143
0.081000,-0.449759
0.081100,-0.366666
0.081200,-0.369912
0.081300,-0.356279
0.081400,-0.366666
0.081500,-0.355955
0.081600,-0.374131
0.081700,-0.374780
0.081800,-0.403668
0.081900,-0.386465
0.082000,-0.399773
0.082100,-0.385167
0.082200,-0.409835
0.082300,-0.415353
0.082400,-0.442618
0.082500,-0.477024
0.082600,-0.486436
0.082700,-0.494551
0.082800,-0.531229
0.082900,-0.706178
0.083000,-0.934035
0.083100,-1.066140
0.083200,-0.982073
0.083300,-0.789921
0.083400,-0.761357
0.083500,-0.882751
0.083600,-1.241090
0.083700,-1.360211
0.083800,-1.356641
0.083900,-1.237519
0.084000,-1.189157
0.084100,-1.273548
0.084200,-1.409223
0.084300,-1.558856
0.084400,-1.589367
0.084500,-1.593586
0.084600,-1.548794
0.084700,-1.622149
0.084800,-1.638379
0.084900,-1.660775
0.085000,-1.714006
0.085100,-1.721472
0.085200,-1.748737
0.085300,-1.810732
0.085400,-1.906159
0.085500,-1.890255
0.085600,-1.824040
0.085700,-1.853252
0.085800,-1.960689
0.085900,-1.997367
0.086000,-1.958742
0.086100,-1.831181
0.086200,-1.757825
0.086300,-1.837023
0.086400,-2.041186
0.086500,-2.126876
0.086600,-2.021711
0.086700,-1.868832
0.086800,-1.711410
0.086900,-1.748412
0.087000,-1.888632
0.087100,-2.035343
0.087200,-2.075267
0.087300,-1.967181
0.087400,-1.858446
0.087500,-1.813978
0.087600,-1.796450
0.087700,-1.825987
0.087800,-1.828259
0.087900,-1.804889
0.088000,-1.769835
0.088100,-1.721147
0.088200,-1.675381
0.088300,-1.571190
0.088400,-1.439734
0.088500,-1.400784
0.088600,-1.365729
0.088700,-1.332297
0.088800,-1.332297
0.088900,-1.263161
0.089000,-1.133653
0.089100,-1.083343
0.089200,-0.909367
0.089300,-0.978827
0.089400,-0.960651
0.089500,-0.886646
0.089600,-0.802579
0.089700,-0.698388
0.089800,-0.612050
0.089900,-0.593873
0.090000,-0.555248
0.090100,-0.584785
0.090200,-0.499744
0.090300,-0.558818
0.090400,-0.510456
0.090500,-0.477348
0.090600,-0.481892
0.090700,-0.459496
0.090800,-0.508508
0.090900,-0.468584
0.091000,-0.539019
0.091100,-0.455277
0.091200,-0.334857
0.091300,-0.090771
0.091400,0.014069
0.091500,-0.118685
0.091600,-0.451057
0.091700,-0.457224
0.091800,-0.314408
0.091900,-0.015144
0.092000,0.026727
0.092100,0.047176
0.092200,-0.168022
0.092300,-0.266695
0.092400,-0.259229
0.092500,-0.073568
0.092600,0.092617
0.092700,0.102679
0.092800,0.075414
0.092900,0.016016
0.093000,0.021859
0.093100,0.073467
0.093200,0.115987
0.093300,0.155911
0.093400,0.177333
0.093500,0.206221
0.093600,0.254908
0.093700,0.267242
0.093800,0.111118
0.093900,0.166947
0.094000,0.090670
0.094100,0.214985
0.094200,0.321123
0.094300,0.310412
0.094400,0.170192
0.094500,-0.060261
0.094600,-0.085253
0.094700,0.028026
0.094800,0.283796
0.094900,0.244522
0.095000,0.180904
0.095100,-0.072270
0.095200,-0.170294
0.095300,-0.089148
0.095400,0.067625
0.095500,0.161429
0.095600,0.063080
0.095700,-0.055392
0.095800,-0.140432
0.095900,-0.120308
0.096000,-0.162828
0.096100,-0.124203
0.096200,-0.212489
0.096300,-0.277730
0.096400,-0.331286
0.096500,-0.321549
0.096600,-0.302723
0.096700,-0.353033
0.096800,-0.382570
0.096900,-0.379324
0.097000,-0.359850
0.097100,-0.357577
0.097200,-0.397176
0.097300,-0.553949
0.097400,-0.562389
0.097500,-0.580565
0.097600,-0.434828
0.097700,-0.502341
0.097800,-0.583811
0.097900,-0.616918
0.098000,-0.645482
0.098100,-0.688326
0.098200,-0.709424
0.098300,-0.753567
0.098400,-0.769796
0.098500,-0.854188
0.098600,-0.866197
0.098700,-0.890216
0.098800,-0.917806
0.098900,-0.951887
0.099000,-0.988565
0.099100,-0.976880
0.099200,-1.025243
0.099300,-1.029137
0.099400,-1.042121
0.099500,-1.117748
0.099600,-1.312822
0.099700,-1.513090
0.099800,-1.416689
0.099900,-1.244011
0.100000,-1.008040
0.100100,-1.069386
0.100200,-1.293023
0.100300,-1.620202
0.100400,-1.627992
0.100500,-1.497185
0.100600,-1.342359
0.100700,-1.284259
0.100800,-1.430646
0.100900,-1.627992
0.101000,-1.738350
0.101100,-1.697453
0.101200,-1.581577
0.101300,-1.570865
0.101400,-1.602350
0.101500,-1.673758
0.101600,-1.650713
0.101700,-1.631562
0.101800,-1.602999
0.101900,-1.587419
0.102000,-1.639352
0.102100,-1.693233
0.102200,-1.702321
0.102300,-1.607868
0.102400,-1.619228
0.102500,-1.655257
0.102600,-1.646169
0.102700,-1.569892
0.102800,-1.429347
0.102900,-1.454016
0.103000,-1.554961
0.103100,-1.781195
0.103200,-1.829882
0.103300,-1.777949
0.103400,-1.554312
0.103500,-1.457586
0.103600,-1.559505
0.103700,-1.777949
0.103800,-1.980164
0.103900,-1.989577
0.104000,-1.915248
0.104100,-1.799696
0.104200,-1.776326
0.104300,-1.849682
0.104400,-1.906484
0.104500,-1.917195
0.104600,-1.905186
0.104700,-1.875649
0.104800,-1.853901
0.104900,-1.774703
0.105000,-1.677004
0.105100,-1.598130
0.105200,-1.523801
0.105300,-1.531915
0.105400,-1.510818
0.105500,-1.481930
0.105600,-1.319639
0.105700,-1.228106
0.105800,-1.122293
0.105900,-0.975581
0.106000,-0.968116
0.106100,-0.946369
0.106200,-0.829195
0.106300,-0.728899
0.106400,-0.591926
0.106500,-0.545186
0.106600,-0.515649
0.106700,-0.507859
0.106800,-0.529606
0.106900,-0.465663
0.107000,-0.490331
0.107100,-0.446837
0.107200,-0.393931
0.107300,-0.440021
0.107400,-0.411783
0.107500,-0.398475
0.107600,-0.433205
0.107700,-0.393606
0.107800,-0.413730
0.107900,-0.146275
0.108000,-0.051822
0.108100,0.143577
0.108200,-0.097912
0.108300,-0.375105
0.108400,-0.300451
0.108500,-0.185225
0.108600,0.050097
0.108700,0.105601
0.108800,0.020885
0.108900,-0.067077
0.109000,-0.188795
0.109100,-0.074218
0.109200,0.036465
0.109300,0.158183
0.109400,0.105601
0.109500,0.075739
0.109600,0.085801
0.109700,0.092942
0.109800,0.134164
0.109900,0.150068
0.110000,0.151691
0.110100,0.080608
0.110200,0.073142
0.110300,0.055290
0.110400,0.078336
0.110500,0.017639
0.110600,-0.042733
0.110700,-0.036891
0.110800,-0.012223
0.110900,-0.014495
0.111000,-0.035592
0.111100,-0.218657
0.111200,-0.452031
0.111300,-0.425740
0.111400,-0.309539
0.111500,-0.139134
0.111600,-0.252088
0.111700,-0.384842
0.111800,-0.699038
0.111900,-0.711047
0.112000,-0.643534
0.112100,-0.502990
0.112200,-0.474752
0.112300,-0.625033
0.112400,-0.702608
0.112500,-0.721434
0.112600,-0.746427
0.112700,-0.697739
0.112800,-0.705205
0.112900,-0.701959
0.113000,-0.743181
0.113100,-0.765252
0.113200,-0.711047
0.113300,-0.725329
0.113400,-0.706178
0.113500,-0.692871
0.113600,-0.625357
0.113700,-0.631525
0.113800,-0.621463
0.113900,-0.723057
0.114000,-0.837959
0.114100,-0.793816
0.114200,-0.750971
0.114300,-0.626007
0.114400,-0.657816
0.114500,-0.673720
0.114600,-0.633472
0.114700,-0.638990
0.114800,-0.642560
0.114900,-0.618866
0.115000,-0.633797
0.115100,-0.638341
0.115200,-0.643209
0.115300,-0.663658
0.115400,-0.666579
0.115500,-0.655219
0.115600,-0.683458
0.115700,-0.708775
0.115800,-0.727601
0.115900,-0.751944
0.116000,-0.794140
0.116100,-0.809720
0.116200,-0.878531
0.116300,-1.155075
0.116400,-1.301137
0.116500,-1.191104
0.116600,-0.981424
0.116700,-0.823028
0.116800,-0.944746
0.116900,-1.220966
0.117000,-1.389099
0.117100,-1.401758
0.117200,-1.220641
0.117300,-1.120020
0.117400,-1.140469
0.117500,-1.249529
0.117600,-1.389748
0.117700,-1.437462
0.117800,-1.454989
0.117900,-1.393319
0.118000,-1.457911
0.118100,-1.510818
0.118200,-1.533863
0.118300,-1.585796
0.118400,-1.571190
0.118500,-1.587095
0.118600,-1.618254
0.118700,-1.725042
0.118800,-1.723419
0.118900,-1.703944
0.119000,-1.768536
0.119100,-1.824040
0.119200,-1.924336
0.119300,-1.944785
0.119400,-1.828259
0.119500,-1.720173
0.119600,-1.799047
0.119700,-2.046704
0.119800,-2.263525
0.119900,-2.287544
0.120000,-2.195038
0.120100,-2.042809
0.120200,-2.020737
0.120300,-2.177511
0.120400,-2.375506
0.120500,-2.496901
0.120600,-2.409263
0.120700,-2.325521
0.120800,-2.285597
0.120900,-2.265473
0.121000,-2.283974
0.121100,-2.268069
0.121200,-2.244050
0.121300,-2.192117
0.121400,-2.113243
0.121500,-2.040212
0.121600,-1.904212
0.121700,-1.726016
0.121800,-1.645519
0.121900,-1.594560
0.122000,-1.548794
0.122100,-1.528994
0.122200,-1.460183
0.122300,-1.306331
0.122400,-1.265109
0.122500,-1.033357
0.122600,-1.052183
0.122700,-0.999601
0.122800,-0.988889
0.122900,-0.905147
0.123000,-0.859381
0.123100,-0.780508
0.123200,-0.740584
0.123300,-0.781806
0.123400,-0.787324
0.123500,-0.843152
0.123600,-0.845099
0.123700,-0.891515
0.123800,-0.811992
0.123900,-0.809395
0.124000,-0.811992
0.124100,-0.741558
0.124200,-0.811668
0.124300,-0.802579
0.124400,-0.828870
0.124500,-0.703582
0.124600,-0.512078
0.124700,-0.181654
0.124800,-0.240403
0.124900,-0.514026
0.125000,-0.633472
0.125100,-0.500069
0.125200,-0.235535
0.125300,-0.042733
0.125400,-0.009626
0.125500,-0.046628
0.125600,-0.174513
0.125700,-0.079736
0.125800,0.018613
0.125900,0.191615
0.126000,0.242574
0.126100,0.262698
0.126200,0.202975
0.126300,0.255233
0.126400,0.313657
0.126500,0.338326
0.126600,0.359099
0.126700,0.367538
0.126800,0.298077
0.126900,0.329237
0.127000,0.231214
0.127100,0.196808
0.127200,0.172140
0.127300,0.113715
0.127400,0.076713
0.127500,0.176359
0.127600,0.155911
0.127700,0.159806
0.127800,-0.187821
0.127900,-0.257282
0.128000,-0.246246
0.128100,0.005954
0.128200,-0.036566
0.128300,-0.016767
0.128400,-0.354981
0.128500,-0.468260
0.128600,-0.444565
0.128700,-0.328690
0.128800,-0.223525
0.128900,-0.305969
0.129000,-0.464365
0.129100,-0.571152
0.129200,-0.532202
0.129300,-0.607830
0.129400,-0.557520
0.129500,-0.665930
0.129600,-0.716240
0.129700,-0.794465
0.129800,-0.830818
0.129900,-0.802255
0.130000,-0.839906
0.130100,-0.874636
0.130200,-0.863925
0.130300,-0.843152
0.130400,-0.825949
0.130500,-0.854837
0.130600,-0.945071
0.130700,-0.980775
0.130800,-0.975906
0.130900,-0.808097
0.131000,-0.836985
0.131100,-0.886321
0.131200,-0.872040
0.131300,-0.859706
0.131400,-0.872040
0.131500,-0.857758
0.131600,-0.826274
0.131700,-0.821730
0.131800,-0.840231
0.131900,-0.831142
0.132000,-0.835362
0.132100,-0.824651
0.132200,-0.804202
0.132300,-0.800956
0.132400,-0.779858
0.132500,-0.778885
0.132600,-0.797061
0.132700,-0.823352
0.132800,-0.852240
0.132900,-1.032059
0.133000,-1.281338
0.133100,-1.351448
0.133200,-1.151180
0.133300,-0.977204
0.133400,-0.935982
0.133500,-1.126512
0.133600,-1.440059
0.133700,-1.549118
0.133800,-1.479658
0.133900,-1.342359
0.134000,-1.318989
0.134100,-1.385204
0.134200,-1.543600
0.134300,-1.682846
0.134400,-1.679276
0.134500,-1.616307
0.134600,-1.550092
0.134700,-1.574436
0.134800,-1.636106
0.134900,-1.640326
0.135000,-1.654932
0.135100,-1.619228
0.135200,-1.607868
0.135300,-1.612412
0.135400,-1.636756
0.135500,-1.639028
0.135600,-1.599429
0.135700,-1.567295
0.135800,-1.675381
0.135900,-1.690961
0.136000,-1.682846
0.136100,-1.473815
0.136200,-1.380660
0.136300,-1.458560
0.136400,-1.694856
0.136500,-1.793529
0.136600,-1.752307
0.136700,-1.504651
0.136800,-1.364431
0.136900,-1.411171
0.137000,-1.615658
0.137100,-1.779247
0.137200,-1.800345
0.137300,-1.694531
0.137400,-1.582550
0.137500,-1.575085
0.137600,-1.636756
0.137700,-1.699725
0.137800,-1.725367
0.137900,-1.693558
0.138000,-1.676030
0.138100,-1.646818
0.138200,-1.637080
0.138300,-1.584498
0.138400,-1.458235
0.138500,-1.430970
0.138600,-1.442980
0.138700,-1.418312
0.138800,-1.442655
0.138900,-1.342359
0.139000,-1.241090
0.139100,-1.175199
0.139200,-0.988240
0.139300,-1.025892
0.139400,-0.978827
0.139500,-0.903849
0.139600,-0.780832
0.139700,-0.686379
0.139800,-0.624059
0.139900,-0.597119
0.140000,-0.597443
0.140100,-0.583811
0.140200,-0.548107
0.140300,-0.565634
0.140400,-0.506561
0.140500,-0.516298
0.140600,-0.466312
0.140700,-0.455601
0.140800,-0.457873
0.140900,-0.472479
0.141000,-0.515649
0.141100,-0.448785
0.141200,-0.372508
0.141300,-0.025855
0.141400,0.004656
0.141500,-0.081683
0.141600,-0.379324
0.141700,-0.413081
0.141800,-0.223525
0.141900,-0.024557
0.142000,0.187395
0.142100,0.098460
0.142200,0.017639
0.142300,-0.050848
0.142400,0.044255
0.142500,0.175710
0.142600,0.309438
0.142700,0.343519
0.142800,0.328588
0.142900,0.320149
0.143000,0.347414
0.143100,0.349686
0.143200,0.438621
0.143300,0.461667
0.143400,0.484063
0.143500,0.463614
0.143600,0.472053
0.143700,0.393504
0.143800,0.375652
0.143900,0.442516
0.144000,0.335729
0.144100,0.485036
0.144200,0.495098
0.144300,0.599938
0.144400,0.476597
0.144500,0.206870
0.144600,0.291261
0.144700,0.412006
0.144800,0.650573
0.144900,0.630124
0.145000,0.502564
0.145100,0.221152
0.145200,0.207519
0.145300,0.305867
0.145400,0.493800
0.145500,0.510354
0.145600,0.367213
0.145700,0.271137
0.145800,0.236082
0.145900,0.248092
0.146000,0.252961
0.146100,0.202326
0.146200,0.109496
0.146300,0.032894
0.146400,-0.045330
0.146500,-0.014170
0.146600,-0.033970
0.146700,-0.096938
0.146800,-0.160232
0.146900,-0.170618
0.147000,-0.177759
0.147100,-0.182628
0.147200,-0.267344
0.147300,-0.421845
0.147400,-0.465014
0.147500,-0.482217
0.147600,-0.381272
0.147700,-0.467611
0.147800,-0.561739
0.147900,-0.589329
0.148000,-0.659763
0.148100,-0.678914
0.148200,-0.726952
0.148300,-0.772393
0.148400,-0.821080
0.148500,-0.873987
0.148600,-0.932087
0.148700,-0.985968
0.148800,-1.015505
0.148900,-1.078799
0.149000,-1.141118
0.149100,-1.176822
0.149200,-1.235896
0.149300,-1.323534
0.149400,-1.374818
0.149500,-1.467324
0.149600,-1.692259
0.149700,-1.927906
0.149800,-1.855200
0.149900,-1.698102
0.150000,-1.557233
0.150100,-1.630589
0.150200,-1.909081
0.150300,-2.080136
0.150400,-2.111296
0.150500,-1.980164
0.150600,-1.888632
0.150700,-1.859744
0.150800,-1.991525
0.150900,-2.170370
0.151000,-2.204776
0.151100,-2.215487
0.151200,-2.158360
0.151300,-2.166799
0.151400,-2.197635
0.151500,-2.271964
0.151600,-2.275859
0.151700,-2.247945
0.151800,-2.256060
0.151900,-2.265797
0.152000,-2.327468
0.152100,-2.374533
0.152200,-2.325196
0.152300,-2.302800
0.152400,-2.314485
0.152500,-2.382323
0.152600,-2.377454
0.152700,-2.317731
0.152800,-2.134017
0.152900,-2.169721
0.153000,-2.288194
0.153100,-2.461196
0.153200,-2.459574
0.153300,-2.339802
0.153400,-2.110971
0.153500,-2.062284
0.153600,-2.203153
0.153700,-2.378752
0.153800,-2.497874
0.153900,-2.439125
0.154000,-2.283000
0.154100,-2.175563
0.154200,-2.151544
0.154300,-2.177511
0.154400,-2.181081
0.154500,-2.161282
0.154600,-2.094417
0.154700,-2.016193
0.154800,-1.961014
0.154900,-1.873701
0.155000,-1.722121
0.155100,-1.611438
0.155200,-1.569892
0.155300,-1.536135
0.155400,-1.532889
0.155500,-1.488097
0.155600,-1.304059
0.155700,-1.214799
0.155800,-0.991161
0.155900,-1.003496
0.156000,-0.980450
0.156100,-0.976231
0.156200,-0.891839
0.156300,-0.805500
0.156400,-0.675343
0.156500,-0.680536
0.156600,-0.664632
0.156700,-0.709749
0.156800,-0.665606
0.156900,-0.690923
0.157000,-0.680536
0.157100,-0.664956
0.157200,-0.577644
0.157300,-0.638665
0.157400,-0.572775
0.157500,-0.619515
0.157600,-0.624384
0.157700,-0.646455
0.157800,-0.523763
0.157900,-0.333234
0.158000,-0.089148
0.158100,-0.054418
0.158200,-0.284547
0.158300,-0.554599
0.158400,-0.385492
0.158500,-0.265721
0.158600,0.031921
0.158700,0.010174
0.158800,0.038088
0.158900,-0.211840
0.159000,-0.241377
0.159100,-0.128098
0.159200,0.002059
0.159300,0.146498
0.159400,0.076713
0.159500,0.104951
0.159600,-0.016118
0.159700,0.059185
0.159800,-0.005406
0.159900,0.038088
0.160000,0.051395
0.160100,0.013419
0.160200,0.027376
0.160300,0.014718
0.160400,-0.030399
0.160500,-0.130695
0.160600,-0.154065
0.160700,-0.181330
0.160800,-0.093693
0.160900,-0.065454
0.161000,-0.121931
0.161100,-0.310513
0.161200,-0.469234
0.161300,-0.408537
0.161400,-0.218981
0.161500,-0.022285
0.161600,-0.131344
0.161700,-0.207621
0.161800,-0.457224
0.161900,-0.411458
0.162000,-0.310513
0.162100,-0.120957
0.162200,-0.090122
0.162300,-0.201778
0.162400,-0.280327
0.162500,-0.243325
0.162600,-0.271888
0.162700,-0.172890
0.162800,-0.218332
0.162900,-0.211516
0.163000,-0.281625
0.163100,-0.266045
0.163200,-0.219306
0.163300,-0.221253
0.163400,-0.219306
0.163500,-0.191067
0.163600,-0.135888
0.163700,-0.107650
0.163800,-0.072919
0.163900,-0.159907
0.164000,-0.217358
0.164100,-0.199506
0.164200,-0.154065
0.164300,-0.031048
0.164400,-0.062857
0.164500,-0.061884
0.164600,-0.032996
0.164700,-0.063506
0.164800,-0.053120
0.164900,-0.031048
0.165000,-0.015144
0.165100,-0.009950
0.165200,0.034193
0.165300,0.066975
0.165400,0.092942
0.165500,0.089047
0.165600,0.112092
0.165700,0.140655
0.165800,0.113391
0.165900,0.131567
0.166000,0.070546
0.166100,0.039386
0.166200,-0.075516
0.166300,-0.356279
0.166400,-0.417301
0.166500,-0.325119
0.166600,-0.086876
0.166700,-0.130695
0.166800,-0.294609
0.166900,-0.620813
0.167000,-0.814264
0.167100,-0.783104
0.167200,-0.701634
0.167300,-0.625033
0.167400,-0.758436
0.167500,-0.909042
0.167600,-1.121643
0.167700,-1.210904
0.167800,-1.216746
0.167900,-1.221939
0.168000,-1.244660
0.168100,-1.320288
0.168200,-1.370923
0.168300,-1.445901
0.168400,-1.503352
0.168500,-1.551715
0.168600,-1.607543
0.168700,-1.751658
0.168800,-1.809434
0.168900,-1.779572
0.169000,-1.874350
0.169100,-1.943162
0.169200,-2.008727
0.169300,-2.046704
0.169400,-1.952250
0.169500,-1.905835
0.169600,-2.015544
0.169700,-2.255735
0.169800,-2.410561
0.169900,-2.383621
0.170000,-2.285597
0.170100,-2.149921
0.170200,-2.166475
0.170300,-2.324547
0.170400,-2.549159
0.170500,-2.691002
0.170600,-2.651402
0.170700,-2.567335
0.170800,-2.541693
0.170900,-2.586486
0.171000,-2.668930
0.171100,-2.748778
0.171200,-2.789026
0.171300,-2.819212
0.171400,-2.783833
0.171500,-2.765007
0.171600,-2.674448
0.171700,-2.592653
0.171800,-2.573827
0.171900,-2.583889
0.172000,-2.567011
0.172100,-2.572204
0.172200,-2.510209
0.172300,-2.394008
0.172400,-2.345320
0.172500,-2.101558
0.172600,-2.170045
0.172700,-2.130446
0.172800,-2.062284
0.172900,-1.980164
0.173000,-1.902913
0.173100,-1.806512
0.173200,-1.779897
0.173300,-1.773730
0.173400,-1.767562
0.173500,-1.790283
0.173600,-1.784441
0.173700,-1.763343
0.173800,-1.689987
0.173900,-1.673109
0.174000,-1.669538
0.174100,-1.679925
0.174200,-1.661424
0.174300,-1.695505
0.174400,-1.543600
0.174500,-1.520231
0.174600,-1.110283
0.174700,-1.067438
0.174800,-1.028813
0.174900,-1.476412
0.175000,-1.393643
0.175100,-1.313472
0.175200,-1.052183
0.175300,-0.854188
0.175400,-0.843152
0.175500,-0.975581
0.175600,-1.067763
0.175700,-1.058674
0.175800,-0.849968
0.175900,-0.733768
0.176000,-0.660088
0.176100,-0.640288
0.176200,-0.599391
0.176300,-0.628928
0.176400,-0.527983
0.176500,-0.502990
0.176600,-0.513701
0.176700,-0.490331
0.176800,-0.470207
0.176900,-0.522465
0.177000,-0.554599
0.177100,-0.594847
0.177200,-0.616269
0.177300,-0.568556
0.177400,-0.564661
0.177500,-0.441644
0.177600,-0.476050
0.177700,-0.557195
0.177800,-0.836011
0.177900,-0.863925
0.178000,-0.751620
0.178100,-0.542265
0.178200,-0.584785
0.178300,-0.658140
0.178400,-0.903849
0.178500,-0.991486
0.178600,-0.908068
0.178700,-0.762006
0.178800,-0.687677
0.178900,-0.757138
0.179000,-0.862302
0.179100,-0.885672
0.179200,-0.842827
0.179300,-0.835687
0.179400,-0.782131
0.179500,-0.838283
0.179600,-0.835362
0.179700,-0.898655
0.179800,-0.846722
0.179900,-0.819782
0.180000,-0.852889
0.180100,-0.883076
0.180200,-0.858407
0.180300,-0.817185
0.180400,-0.792517
0.180500,-0.854188
0.180600,-0.992135
0.180700,-1.017128
0.180800,-1.021023
0.180900,-0.864574
0.181000,-0.877558
0.181100,-0.949290
0.181200,-0.928192
0.181300,-0.895410
0.181400,-0.866522
0.181500,-0.873987
0.181600,-0.874312
0.181700,-0.842503
0.181800,-0.849968
0.181900,-0.820756
0.182000,-0.812966
0.182100,-0.777262
0.182200,-0.743181
0.182300,-0.770121
0.182400,-0.743181
0.182500,-0.789271
0.182600,-0.833415
0.182700,-0.891515
0.182800,-0.918455
0.182900,-1.113204
0.183000,-1.398188
0.183100,-1.404355
0.183200,-1.244335
0.183300,-1.099247
0.183400,-1.131705
0.183500,-1.451094
0.183600,-1.652660
0.183700,-1.783467
0.183800,-1.636106
0.183900,-1.526073
0.184000,-1.490694
0.184100,-1.639028
0.184200,-1.771457
0.184300,-1.837997
0.184400,-1.813653
0.184500,-1.769185
0.184600,-1.746140
0.184700,-1.762045
0.184800,-1.783142
0.184900,-1.780221
0.185000,-1.772756
0.185100,-1.746465
0.185200,-1.750035
0.185300,-1.782169
0.185400,-1.822417
0.185500,-1.881491
0.185600,-1.809109
0.185700,-1.810732
0.185800,-1.789309
0.185900,-1.831830
0.186000,-1.796450
0.186100,-1.609815
0.186200,-1.580278
0.186300,-1.692908
0.186400,-1.913300
0.186500,-1.987305
0.186600,-1.898045
0.186700,-1.650064
0.186800,-1.529643
0.186900,-1.621825
0.187000,-1.819496
0.187100,-1.917520
0.187200,-1.887658
0.187300,-1.725042
0.187400,-1.615982
0.187500,-1.627018
0.187600,-1.668240
0.187700,-1.685768
0.187800,-1.631238
0.187900,-1.584498
0.188000,-1.607543
0.188100,-1.592612
0.188200,-1.527696
0.188300,-1.370923
0.188400,-1.242713
0.188500,-1.217071
0.188600,-1.204087
0.188700,-1.203763
0.188800,-1.188507
0.188900,-1.011285
0.189000,-0.917157
0.189100,-0.854837
0.189200,-0.651324
0.189300,-0.645157
0.189400,-0.617892
0.189500,-0.540642
0.189600,-0.415353
0.189700,-0.318303
0.189800,-0.264423
0.189900,-0.229043
0.190000,-0.236184
0.190100,-0.201778
0.190200,-0.238456
0.190300,-0.219955
0.190400,-0.177759
0.190500,-0.187172
0.190600,-0.126475
0.190700,-0.170943
0.190800,-0.130046
0.190900,-0.178408
0.191000,-0.226122
0.191100,-0.048251
0.191200,-0.095640
0.191300,0.348712
0.191400,0.262049
0.191500,0.245820
0.191600,-0.168671
0.191700,0.003033
0.191800,0.117610
0.191900,0.341571
0.192000,0.454850
0.192100,0.348388
0.192200,0.163376
0.192300,0.031596
0.192400,0.149419
0.192500,0.290612
0.192600,0.402917
0.192700,0.409409
0.192800,0.267891
0.192900,0.277629
0.193000,0.200378
0.193100,0.225371
0.193200,0.216283
0.193300,0.234135
0.193400,0.202001
0.193500,0.150393
0.193600,0.126698
0.193700,-0.026180
0.193800,0.045553
0.193900,-0.099535
0.194000,-0.079086
0.194100,-0.148222
0.194200,-0.076814
0.194300,-0.101483
0.194400,-0.231315
0.194500,-0.523439
0.194600,-0.495525
0.194700,-0.394904
0.194800,-0.153091
0.194900,-0.221253
0.195000,-0.398475
0.195100,-0.656193
0.195200,-0.710073
0.195300,-0.590952
0.195400,-0.420546
0.195500,-0.444241
0.195600,-0.616594
0.195700,-0.743181
0.195800,-0.765577
0.195900,-0.767200
0.196000,-0.759734
0.196100,-0.810369
0.196200,-0.889892
0.196300,-0.924622
0.196400,-0.933061
0.196500,-0.922675
0.196600,-0.937930
0.196700,-1.002846
0.196800,-1.023620
0.196900,-1.004469
0.197000,-1.002197
0.197100,-0.981099
0.197200,-1.112231
0.197300,-1.204736
0.197400,-1.200192
0.197500,-1.203763
0.197600,-1.077176
0.197700,-1.147610
0.197800,-1.158321
0.197900,-1.163839
0.198000,-1.222913
0.198100,-1.229080
0.198200,-1.247257
0.198300,-1.257319
0.198400,-1.245958
0.198500,-1.260889
0.198600,-1.237519
0.198700,-1.262512
0.198800,-1.279066
0.198900,-1.265758
0.199000,-1.252125
0.199100,-1.283610
0.199200,-1.239467
0.199300,-1.342359
0.199400,-1.358913
0.199500,-1.459534
0.199600,-1.657529
0.199700,-1.843839
0.199800,-1.801968
0.199900,-1.540679
0.200000,-1.469596
0.200100,-1.615658
0.200200,-1.842216
0.200300,-2.049950
0.200400,-2.013921
0.200500,-1.893176
0.200600,-1.709787
0.200700,-1.760746
0.200800,-1.884088
0.200900,-2.028527
0.201000,-2.047353
0.201100,-1.944135
0.201200,-1.869806
0.201300,-1.826312
0.201400,-1.859095
0.201500,-1.891553
0.201600,-1.871429
0.201700,-1.836049
0.201800,-1.820469
0.201900,-1.790283
0.202000,-1.780546
0.202100,-1.803591
0.202200,-1.762045
0.202300,-1.729911
0.202400,-1.717252
0.202500,-1.721147
0.202600,-1.711734
0.202700,-1.611763
0.202800,-1.441682
0.202900,-1.385204
0.203000,-1.562751
0.203100,-1.723095
0.203200,-1.765940
0.203300,-1.591639
0.203400,-1.383257
0.203500,-1.380011
0.203600,-1.500756
0.203700,-1.700049
0.203800,-1.759448
0.203900,-1.679925
0.204000,-1.577032
0.204100,-1.536135
0.204200,-1.568918
0.204300,-1.615333
0.204400,-1.629939
0.204500,-1.657529
0.204600,-1.671811
0.204700,-1.668240
0.204800,-1.648441
0.204900,-1.550417
0.205000,-1.439734
0.205100,-1.387152
0.205200,-1.388775
0.205300,-1.387152
0.205400,-1.399486
0.205500,-1.363782
0.205600,-1.219343
0.205700,-1.205386
0.205800,-1.071009
0.205900,-1.040822
0.206000,-1.030111
0.206100,-0.983371
0.206200,-0.912613
0.206300,-0.803878
0.206400,-0.706178
0.206500,-0.701959
0.206600,-0.654245
0.206700,-0.687028
0.206800,-0.648727
0.206900,-0.645157
0.207000,-0.633797
0.207100,-0.570503
0.207200,-0.625682
0.207300,-0.515973
0.207400,-0.648727
0.207500,-0.576346
0.207600,-0.683458
0.207700,-0.661711
0.207800,-0.628279
0.207900,-0.423792
0.208000,-0.205349
0.208100,-0.144652
0.208200,-0.504938
0.208300,-0.664632
0.208400,-0.571152
0.208500,-0.429310
0.208600,-0.234561
0.208700,-0.199831
0.208800,-0.280976
0.208900,-0.471506
0.209000,-0.534475
0.209100,-0.375429
0.209200,-0.260528
0.209300,-0.176136
0.209400,-0.185874
0.209500,-0.156986
0.209600,-0.207945
0.209700,-0.204375
0.209800,-0.178733
0.209900,-0.170294
0.210000,-0.189120
0.210100,-0.173864
0.210200,-0.128098
0.210300,-0.196260
0.210400,-0.248518
0.210500,-0.359850
0.210600,-0.409186
0.210700,-0.384518
0.210800,-0.300127
0.210900,-0.314408
0.211000,-0.339725
0.211100,-0.504938
0.211200,-0.671448
0.211300,-0.579591
0.211400,-0.428336
0.211500,-0.299802
0.211600,-0.391009
0.211700,-0.583486
0.211800,-0.762656
0.211900,-0.686054
0.212000,-0.543563
0.212100,-0.413406
0.212200,-0.505587
0.212300,-0.590303
0.212400,-0.651324
0.212500,-0.613997
0.212600,-0.632174
0.212700,-0.580565
0.212800,-0.635095
0.212900,-0.701634
0.213000,-0.803878
0.213100,-0.788298
0.213200,-0.768174
0.213300,-0.804851
0.213400,-0.829195
0.213500,-0.844775
0.213600,-0.811018
0.213700,-0.786999
0.213800,-0.768823
0.213900,-0.865548
0.214000,-0.914235
0.214100,-0.915858
0.214200,-0.888918
0.214300,-0.774990
0.214400,-0.824002
0.214500,-0.834388
0.214600,-0.796412
0.214700,-0.821080
0.214800,-0.809720
0.214900,-0.799333
0.215000,-0.799009
0.215100,-0.813615
0.215200,-0.839257
0.215300,-0.841204
0.215400,-0.868469
0.215500,-0.871715
0.215600,-0.898006
0.215700,-0.890216
0.215800,-0.903200
0.215900,-0.960651
0.216000,-0.984994
0.216100,-1.026865
0.216200,-1.133653
0.216300,-1.395266
0.216400,-1.447524
0.216500,-1.320612
0.216600,-1.135600
0.216700,-1.115152
0.216800,-1.274846
0.216900,-1.532565
0.217000,-1.695505
0.217100,-1.615333
0.217200,-1.467648
0.217300,-1.427400
0.217400,-1.503028
0.217500,-1.659476
0.217600,-1.741596
0.217700,-1.758799
0.217800,-1.673433
0.217900,-1.582226
0.218000,-1.662398
0.218100,-1.697453
0.218200,-1.733157
0.218300,-1.694207
0.218400,-1.673758
0.218500,-1.661749
0.218600,-1.706216
0.218700,-1.711085
0.218800,-1.689338
0.218900,-1.662722
0.219000,-1.626694
0.219100,-1.660775
0.219200,-1.681548
0.219300,-1.661099
0.219400,-1.491667
0.219500,-1.444278
0.219600,-1.498483
0.219700,-1.672784
0.219800,-1.820794
0.219900,-1.792231
0.220000,-1.622474
0.220100,-1.515362
0.220200,-1.599753
0.220300,-1.764641
0.220400,-1.892851
0.220500,-1.923038
0.220600,-1.830856
0.220700,-1.731209
0.220800,-1.715954
0.220900,-1.759448
0.221000,-1.790283
0.221100,-1.776002
0.221200,-1.773080
0.221300,-1.757176
0.221400,-1.736403
0.221500,-1.728937
0.221600,-1.684794
0.221700,-1.560803
0.221800,-1.509844
0.221900,-1.498159
0.222000,-1.477061
0.222100,-1.481281
0.222200,-1.385529
0.222300,-1.290751
0.222400,-1.114827
0.222500,-1.083018
0.222600,-1.128784
0.222700,-1.124889
0.222800,-1.058350
0.222900,-0.953185
0.223000,-0.868469
0.223100,-0.790245
0.223200,-0.765577
0.223300,-0.763629
0.223400,-0.737663
0.223500,-0.734417
0.223600,-0.681510
0.223700,-0.717539
0.223800,-0.616594
0.223900,-0.634446
0.224000,-0.602312
0.224100,-0.602961
0.224200,-0.633797
0.224300,-0.652298
0.224400,-0.631200
0.224500,-0.489033
0.224600,-0.274809
0.224700,-0.196585
0.224800,-0.167373
0.224900,-0.608804
0.225000,-0.545835
0.225100,-0.565959
0.225200,-0.170294
0.225300,-0.220929
0.225400,-0.167373
0.225500,-0.406914
0.225600,-0.424117
0.225700,-0.434179
0.225800,-0.253062
0.225900,-0.067077
0.226000,-0.102456
0.226100,-0.180031
0.226200,-0.214762
0.226300,-0.156986
0.226400,-0.146924
0.226500,-0.100509
0.226600,-0.078762
0.226700,-0.110246
0.226800,-0.122256
0.226900,-0.079411
0.227000,-0.142055
0.227100,-0.244298
0.227200,-0.237807
0.227300,-0.240079
0.227400,-0.303372
0.227500,-0.189769
0.227600,-0.292337
0.227700,-0.305644
0.227800,-0.666579
0.227900,-0.635095
0.228000,-0.590952
0.228100,-0.397501
0.228200,-0.416002
0.228300,-0.559792
0.228400,-0.792193
0.228500,-0.886321
0.228600,-0.828221
0.228700,-0.670474
0.228800,-0.611725
0.228900,-0.678914
0.229000,-0.763954
0.229100,-0.800307
0.229200,-0.785376
0.229300,-0.769472
0.229400,-0.714293
0.229500,-0.780832
0.229600,-0.794140
0.229700,-0.802904
0.229800,-0.757462
0.229900,-0.745777
0.230000,-0.762656
0.230100,-0.767849
0.230200,-0.748699
0.230300,-0.732145
0.230400,-0.720785
0.230500,-0.784403
0.230600,-0.941825
0.230700,-0.972011
0.230800,-0.963247
0.230900,-0.818159
0.231000,-0.919753
0.231100,-0.982722
0.231200,-1.011285
0.231300,-1.034331
0.231400,-1.078799
0.231500,-1.099896
0.231600,-1.132679
0.231700,-1.187534
0.231800,-1.235247
0.231900,-1.262188
0.232000,-1.303085
0.232100,-1.317042
0.232200,-1.355343
0.232300,-1.400460
0.232400,-1.390073
0.232500,-1.392994
0.232600,-1.445577
0.232700,-1.488746
0.232800,-1.509519
0.232900,-1.685443
0.233000,-1.949004
0.233100,-1.870455
0.233200,-1.654608
0.233300,-1.428049
0.233400,-1.445901
0.233500,-1.669863
0.233600,-1.899992
0.233700,-1.928231
0.233800,-1.732832
0.233900,-1.541978
0.234000,-1.503352
0.234100,-1.632861
0.234200,-1.774379
0.234300,-1.780546
0.234400,-1.720823
0.234500,-1.660775
0.234600,-1.642274
0.234700,-1.676030
0.234800,-1.693233
0.234900,-1.679601
0.235000,-1.650713
0.235100,-1.661424
0.235200,-1.692584
0.235300,-1.726665
0.235400,-1.678951
0.235500,-1.686741
0.235600,-1.637080
0.235700,-1.629615
0.235800,-1.614359
0.235900,-1.593911
0.236000,-1.488746
0.236100,-1.274522
0.236200,-1.262188
0.236300,-1.367028
0.236400,-1.501405
0.236500,-1.566321
0.236600,-1.412794
0.236700,-1.173252
0.236800,-1.037252
0.236900,-1.088211
0.237000,-1.254073
0.237100,-1.356966
0.237200,-1.301462
0.237300,-1.148584
0.237400,-1.028813
0.237500,-0.995381
0.237600,-1.015830
0.237700,-1.043419
0.237800,-1.021348
0.237900,-0.962274
0.238000,-0.932737
0.238100,-0.898655
0.238200,-0.850942
0.238300,-0.722407
0.238400,-0.632498
0.238500,-0.598093
0.238600,-0.575696
0.238700,-0.574074
0.238800,-0.566284
0.238900,-0.419573
0.239000,-0.377377
0.239100,-0.215086
0.239200,-0.206322
0.239300,-0.197883
0.239400,-0.187497
0.239500,-0.100833
0.239600,-0.021311
0.239700,0.059185
0.239800,0.102030
0.239900,0.105601
0.240000,0.040035
0.240100,0.043930
0.240200,-0.015793
0.240300,-0.030724
0.240400,-0.023907
0.240500,-0.008652
0.240600,-0.021311
0.240700,-0.086876
0.240800,-0.069024
0.240900,-0.191716
0.241000,-0.184575
0.241100,-0.281301
0.241200,-0.045330
0.241300,0.029648
0.241400,0.168569
0.241500,-0.220929
0.241600,-0.439048
0.241700,-0.423792
0.241800,-0.249816
0.241900,-0.030075
0.242000,-0.074218
0.242100,-0.190742
0.242200,-0.409835
0.242300,-0.481892
0.242400,-0.403344
0.242500,-0.277081
0.242600,-0.233587
0.242700,-0.277081
0.242800,-0.437100
0.242900,-0.468909
0.243000,-0.478646
0.243100,-0.523114
0.243200,-0.488059
0.243300,-0.534150
0.243400,-0.564336
0.243500,-0.576346
0.243600,-0.501367
0.243700,-0.685730
0.243800,-0.651324
0.243900,-0.720460
0.244000,-0.696766
0.244100,-0.604909
0.244200,-0.570828
0.244300,-0.556222
0.244400,-0.741233
0.244500,-0.891839
0.244600,-0.784403
0.244700,-0.611400
0.244800,-0.365043
0.244900,-0.430933
0.245000,-0.575696
0.245100,-0.798035
0.245200,-0.794465
0.245300,-0.649701
0.245400,-0.440670
0.245500,-0.449759
0.245600,-0.560441
0.245700,-0.667553
0.245800,-0.639964
0.245900,-0.626331
0.246000,-0.567582
0.246100,-0.596145
0.246200,-0.607181
0.246300,-0.637692
0.246400,-0.575047
0.246500,-0.527334
0.246600,-0.518245
0.246700,-0.537396
0.246800,-0.513052
0.246900,-0.456900
0.247000,-0.410160
0.247100,-0.379649
0.247200,-0.465014
0.247300,-0.538370
0.247400,-0.523114
0.247500,-0.499744
0.247600,-0.479296
0.247700,-0.450732
0.247800,-0.450408
0.247900,-0.423468
0.248000,-0.426713
0.248100,-0.425740
0.248200,-0.442618
0.248300,-0.425740
0.248400,-0.468909
0.248500,-0.458522
0.248600,-0.485138
0.248700,-0.512078
0.248800,-0.571477
0.248900,-0.598742
0.249000,-0.638665
0.249100,-0.655219
0.249200,-0.737987
0.249300,-0.788298
0.249400,-0.839582
0.249500,-1.026216
0.249600,-1.285233
0.249700,-1.514713
0.249800,-1.377739
0.249900,-1.259266
0.250000,-1.188832
0.250100,-1.335543
0.250200,-1.704918
0.250300,-1.900966
0.250400,-1.877271
0.250500,-1.730235
0.250600,-1.640651
0.250700,-1.716928
0.250800,-1.900966
0.250900,-2.085329
0.251000,-2.131095
0.251100,-2.060012
0.251200,-2.035343
0.251300,-2.111620
0.251400,-2.177186
0.251500,-2.221979
0.251600,-2.219706
0.251700,-2.195038
0.251800,-2.204451
0.251900,-2.239181
0.252000,-2.303449
0.252100,-2.316108
0.252200,-2.285597
0.252300,-2.246647
0.252400,-2.249893
0.252500,-2.304098
0.252600,-2.248919
0.252700,-2.097988
0.252800,-1.969778
0.252900,-2.035343
0.253000,-2.190819
0.253100,-2.392060
0.253200,-2.391736
0.253300,-2.208995
0.253400,-2.008403
0.253500,-1.973023
0.253600,-2.114542
0.253700,-2.333960
0.253800,-2.433931
0.253900,-2.343048
0.254000,-2.176862
0.254100,-2.097014
0.254200,-2.105453
0.254300,-2.151544
0.254400,-2.155764
0.254500,-2.114866
0.254600,-2.082083
0.254700,-2.028202
0.254800,-1.978217
0.254900,-1.889606
0.255000,-1.738350
0.255100,-1.614684
0.255200,-1.563400
0.255300,-1.527047
0.255400,-1.468622
0.255500,-1.369300
0.255600,-1.171304
0.255700,-1.090484
0.255800,-0.872364
0.255900,-0.903524
0.256000,-0.892164
0.256100,-0.820107
0.256200,-0.752269
0.256300,-0.678589
0.256400,-0.578293
0.256500,-0.513701
0.256600,-0.491305
0.256700,-0.561415
0.256800,-0.530904
0.256900,-0.553949
0.257000,-0.573749
0.257100,-0.562389
0.257200,-0.560441
0.257300,-0.586408
0.257400,-0.578293
0.257500,-0.704880
0.257600,-0.642560
0.257700,-0.797061
0.257800,-0.612050
0.257900,-0.552976
0.258000,-0.279353
0.258100,-0.403344
0.258200,-0.786999
0.258300,-0.943123
0.258400,-0.832765
0.258500,-0.663334
0.258600,-0.485787
0.258700,-0.513701
0.258800,-0.703906
0.258900,-0.855486
0.259000,-0.824975
0.259100,-0.773691
0.259200,-0.540642
0.259300,-0.514350
0.259400,-0.578293
0.259500,-0.590952
0.259600,-0.638016
0.259700,-0.661711
0.259800,-0.580890
0.259900,-0.554274
0.260000,-0.541615
0.260100,-0.542589
0.260200,-0.522465
0.260300,-0.626980
0.260400,-0.719486
0.260500,-0.652298
0.260600,-0.663658
0.260700,-0.667229
0.260800,-0.569854
0.260900,-0.485138
0.261000,-0.519544
0.261100,-0.656517
0.261200,-0.699687
0.261300,-0.574398
0.261400,-0.314733
0.261500,-0.167373
0.261600,-0.197234
0.261700,-0.380298
0.261800,-0.459821
0.261900,-0.377702
0.262000,-0.168671
0.262100,-0.013196
0.262200,-0.014819
0.262300,-0.122256
0.262400,-0.177759
0.262500,-0.071296
0.262600,-0.074218
0.262700,0.023157
0.262800,-0.042084
0.262900,-0.038189
0.263000,-0.033320
0.263100,0.016341
0.263200,0.013095
0.263300,0.008226
0.263400,-0.017416
0.263500,0.033868
0.263600,0.064054
0.263700,0.069572
0.263800,0.051720
0.263900,-0.071621
0.264000,-0.074867
0.264100,-0.054743
0.264200,-0.062208
0.264300,0.049773
0.264400,0.009524
0.264500,0.052369
0.264600,0.067949
0.264700,0.063080
0.264800,0.099758
0.264900,0.107223
0.265000,0.104951
0.265100,0.127023
0.265200,0.120856
0.265300,0.143252
0.265400,0.136436
0.265500,0.143252
0.265600,0.132865
0.265700,0.103653
0.265800,0.067949
0.265900,0.008551
0.266000,-0.008977
0.266100,-0.085578
0.266200,-0.265396
0.266300,-0.593224
0.266400,-0.695467
0.266500,-0.544212
0.266600,-0.358876
0.266700,-0.406914
0.266800,-0.664307
0.266900,-0.969414
0.267000,-1.135925
0.267100,-1.074904
0.267200,-1.021023
0.267300,-1.029462
0.267400,-1.222913
0.267500,-1.456612
0.267600,-1.673109
0.267700,-1.738350
0.267800,-1.789634
0.267900,-1.870131
0.268000,-1.988928
0.268100,-2.126227
0.268200,-2.246322
0.268300,-2.340127
0.268400,-2.423545
0.268500,-2.548834
0.268600,-2.641990
0.268700,-2.710477
0.268800,-2.734821
0.268900,-2.784157
0.269000,-2.857513
0.269100,-2.941580
0.269200,-3.000655
0.269300,-2.980206
0.269400,-2.851346
0.269500,-2.839986
0.269600,-2.963977
0.269700,-3.182422
0.269800,-3.329783
0.269900,-3.265516
0.270000,-3.049018
0.270100,-2.933466
0.270200,-2.998383
0.270300,-3.161973
0.270400,-3.305440
0.270500,-3.293430
0.270600,-3.149964
0.270700,-3.019805
0.270800,-2.954239
0.270900,-2.967223
0.271000,-2.941580
0.271100,-2.886077
0.271200,-2.869523
0.271300,-2.811098
0.271400,-2.740663
0.271500,-2.639068
0.271600,-2.499822
0.271700,-2.368366
0.271800,-2.276184
0.271900,-2.231716
0.272000,-2.175563
0.272100,-2.110971
0.272200,-1.944785
0.272300,-1.775677
0.272400,-1.537109
0.272500,-1.464402
0.272600,-1.461481
0.272700,-1.413118
0.272800,-1.331973
0.272900,-1.219992
0.273000,-1.097300
0.273100,-1.003496
0.273200,-0.955133
0.273300,-0.937605
0.273400,-0.930465
0.273500,-0.888593
0.273600,-0.927868
0.273700,-0.841529
0.273800,-0.819782
0.273900,-0.767200
0.274000,-0.775964
0.274100,-0.815563
0.274200,-0.842503
0.274300,-0.909691
0.274400,-0.748374
0.274500,-0.683782
0.274600,-0.300127
0.274700,-0.319926
0.274800,-0.409835
0.274900,-0.807773
0.275000,-0.775639
0.275100,-0.621787
0.275200,-0.446837
0.275300,-0.309539
0.275400,-0.375754
0.275500,-0.610102
0.275600,-0.691248
0.275700,-0.645157
0.275800,-0.467935
0.275900,-0.377052
0.276000,-0.409186
0.276100,-0.453654
0.276200,-0.560441
0.276300,-0.540642
0.276400,-0.565959
0.276500,-0.502990
0.276600,-0.527334
0.276700,-0.533176
0.276800,-0.590303
0.276900,-0.543238
0.277000,-0.607505
0.277100,-0.623410
0.277200,-0.626007
0.277300,-0.633797
0.277400,-0.529281
0.277500,-0.464689
0.277600,-0.420222
0.277700,-0.523114
0.277800,-0.764928
0.277900,-0.666255
0.278000,-0.553949
0.278100,-0.283248
0.278200,-0.290714
0.278300,-0.383219
0.278400,-0.620813
0.278500,-0.604909
0.278600,-0.501692
0.278700,-0.283573
0.278800,-0.247869
0.278900,-0.336804
0.279000,-0.427038
0.279100,-0.434179
0.279200,-0.449434
0.279300,-0.397501
0.279400,-0.420222
0.279500,-0.445215
0.279600,-0.491305
0.279700,-0.515324
0.279800,-0.494876
0.279900,-0.548107
0.280000,-0.601338
0.280100,-0.626331
0.280200,-0.637692
0.280300,-0.622761
0.280400,-0.611076
0.280500,-0.706178
0.280600,-0.853539
0.280700,-0.910990
0.280800,-0.885672
0.280900,-0.917806
0.281000,-0.885348
0.281100,-0.940527
0.281200,-0.959352
0.281300,-0.991486
0.281400,-1.003171
0.281500,-1.011285
0.281600,-1.037901
0.281700,-1.075877
0.281800,-1.087887
0.281900,-1.092106
0.282000,-1.116126
0.282100,-1.139495
0.282200,-1.169357
0.282300,-1.199219
0.282400,-1.202464
0.282500,-1.258942
0.282600,-1.262188
0.282700,-1.374493
0.282800,-1.447199
0.282900,-1.679601
0.283000,-1.912976
0.283100,-1.844813
0.283200,-1.672784
0.283300,-1.470569
0.283400,-1.616956
0.283500,-1.850656
0.283600,-2.116489
0.283700,-2.141807
0.283800,-2.005806
0.283900,-1.935696
0.284000,-1.943486
0.284100,-2.129797
0.284200,-2.310590
0.284300,-2.407640
0.284400,-2.359926
0.284500,-2.376480
0.284600,-2.415755
0.284700,-2.520271
0.284800,-2.584538
0.284900,-2.607584
0.285000,-2.620892
0.285100,-2.615698
0.285200,-2.682563
0.285300,-2.739040
0.285400,-2.766630
0.285500,-2.744233
0.285600,-2.752348
0.285700,-2.835442
0.285800,-2.884454
0.285900,-2.929895
0.286000,-2.783184
0.286100,-2.635822
0.286200,-2.610505
0.286300,-2.752673
0.286400,-2.935738
0.286500,-2.969495
0.286600,-2.751050
0.286700,-2.538447
0.286800,-2.437502
0.286900,-2.523517
0.287000,-2.665684
0.287100,-2.738716
0.287200,-2.664386
0.287300,-2.469311
0.287400,-2.379401
0.287500,-2.356031
0.287600,-2.372261
0.287700,-2.396929
0.287800,-2.369989
0.287900,-2.324871
0.288000,-2.257034
0.288100,-2.208022
0.288200,-2.150246
0.288300,-2.004183
0.288400,-1.891228
0.288500,-1.818522
0.288600,-1.778923
0.288700,-1.737376
0.288800,-1.672460
0.288900,-1.503677
0.289000,-1.401758
0.289100,-1.159944
0.289200,-1.182665
0.289300,-1.161242
0.289400,-1.102493
0.289500,-1.007715
0.289600,-0.904498
0.289700,-0.775639
0.289800,-0.718837
0.289900,-0.703257
0.290000,-0.702608
0.290100,-0.683133
0.290200,-0.650999
0.290300,-0.690923
0.290400,-0.555897
0.290500,-0.536422
0.290600,-0.511429
0.290700,-0.450732
0.290800,-0.478646
0.290900,-0.401396
0.291000,-0.435477
0.291100,-0.296881
0.291200,-0.074867
0.291300,0.151042
0.291400,0.198431
0.291500,-0.077788
0.291600,-0.229368
0.291700,-0.182303
0.291800,0.098135
0.291900,0.325667
0.292000,0.349686
0.292100,0.249715
0.292200,0.076388
0.292300,0.024780
0.292400,0.175386
0.292500,0.328264
0.292600,0.417199
0.292700,0.324044
0.292800,0.385390
0.292900,0.319175
0.293000,0.361371
0.293100,0.361046
0.293200,0.362345
0.293300,0.328913
0.293400,0.293209
0.293500,0.227643
0.293600,0.252636
0.293700,0.086126
0.293800,0.063080
0.293900,-0.076814
0.294000,-0.039487
0.294100,0.021209
0.294200,0.010174
0.294300,0.013095
0.294400,-0.245921
0.294500,-0.385167
0.294600,-0.385816
0.294700,-0.179707
0.294800,-0.088824
0.294900,-0.159583
0.295000,-0.373807
0.295100,-0.536747
0.295200,-0.516298
0.295300,-0.372184
0.295400,-0.256633
0.295500,-0.276757
0.295600,-0.408212
0.295700,-0.501692
0.295800,-0.468584
0.295900,-0.532852
0.296000,-0.471506
0.296100,-0.543563
0.296200,-0.572126
0.296300,-0.626007
0.296400,-0.598093
0.296500,-0.554923
0.296600,-0.571152
0.296700,-0.615945
0.296800,-0.612374
0.296900,-0.569205
0.297000,-0.537071
0.297100,-0.532852
0.297200,-0.649377
0.297300,-0.694818
0.297400,-0.699687
0.297500,-0.667878
0.297600,-0.540642
0.297700,-0.604909
0.297800,-0.622761
0.297900,-0.605883
0.298000,-0.595821
0.298100,-0.603935
0.298200,-0.615295
0.298300,-0.640613
0.298400,-0.655219
0.298500,-0.685730
0.298600,-0.720785
0.298700,-0.764928
0.298800,-0.797061
0.298900,-0.840555
0.299000,-0.877882
0.299100,-0.914235
0.299200,-1.033032
0.299300,-1.066140
0.299400,-1.185262
0.299500,-1.302111
0.299600,-1.630264
0.299700,-1.776002
0.299800,-1.661099
0.299900,-1.575085
0.300000,-1.530942
0.300100,-1.759772
0.300200,-2.074618
0.300300,-2.262227
0.300400,-2.207372
0.300500,-2.070398
0.300600,-1.987954
0.300700,-2.133367
0.300800,-2.322599
0.300900,-2.488786
0.301000,-2.491707
0.301100,-2.477101
0.301200,-2.473531
0.301300,-2.523841
0.301400,-2.574152
0.301500,-2.591354
0.301600,-2.576099
0.301700,-2.591354
0.301800,-2.612777
0.301900,-2.684835
0.302000,-2.735145
0.302100,-2.678018
0.302200,-2.658868
0.302300,-2.633226
0.302400,-2.671851
0.302500,-2.681264
0.302600,-2.616672
0.302700,-2.474829
0.302800,-2.354409
0.302900,-2.439449
0.303000,-2.612452
0.303100,-2.753646
0.303200,-2.726706
0.303300,-2.475803
0.303400,-2.300203
0.303500,-2.277807
0.303600,-2.395955
0.303700,-2.536824
0.303800,-2.537474
0.303900,-2.405693
0.304000,-2.226523
0.304100,-2.092470
0.304200,-2.075267
0.304300,-2.070074
0.304400,-1.999639
0.304500,-1.920766
0.304600,-1.842216
0.304700,-1.766913
0.304800,-1.658178
0.304900,-1.559830
0.305000,-1.361185
0.305100,-1.223238
0.305200,-1.183314
0.305300,-1.131705
0.305400,-1.102493
0.305500,-0.962923
0.305600,-0.793816
0.305700,-0.646455
0.305800,-0.568556
0.305900,-0.590627
0.306000,-0.575047
0.306100,-0.503639
0.306200,-0.419573
0.306300,-0.354332
0.306400,-0.280327
0.306500,-0.313434
0.306600,-0.322523
0.306700,-0.399773
0.306800,-0.430933
0.306900,-0.525062
0.307000,-0.503964
0.307100,-0.514026
0.307200,-0.501043
0.307300,-0.512403
0.307400,-0.514350
0.307500,-0.553300
0.307600,-0.537396
0.307700,-0.556222
0.307800,-0.401071
0.307900,-0.197234
0.308000,0.044904
0.308100,-0.038838
0.308200,-0.364718
0.308300,-0.348165
0.308400,-0.161530
0.308500,0.094240
0.308600,0.278603
0.308700,0.305218
0.308800,0.118584
0.308900,-0.035917
0.309000,0.071844
0.309100,0.152665
0.309200,0.288015
0.309300,0.268541
0.309400,0.173763
0.309500,0.118908
0.309600,0.063405
0.309700,0.056589
0.309800,0.054641
0.309900,0.014718
0.310000,-0.032671
0.310100,-0.068051
0.310200,-0.086876
0.310300,-0.195287
0.310400,-0.301425
0.310500,-0.299477
0.310600,-0.281625
0.310700,-0.291038
0.310800,-0.184575
0.310900,-0.177435
0.311000,-0.182628
0.311100,-0.492928
0.311200,-0.499420
0.311300,-0.444565
0.311400,-0.213139
0.311500,-0.143354
0.311600,-0.228069
0.311700,-0.431582
0.311800,-0.532852
0.311900,-0.461119
0.312000,-0.274160
0.312100,-0.160556
0.312200,-0.220279
0.312300,-0.318628
0.312400,-0.377377
0.312500,-0.348814
0.312600,-0.315382
0.312700,-0.255334
0.312800,-0.307916
0.312900,-0.346217
0.313000,-0.390036
0.313100,-0.346866
0.313200,-0.335181
0.313300,-0.370561
0.313400,-0.410809
0.313500,-0.421196
0.313600,-0.438398
0.313700,-0.464040
0.313800,-0.517272
0.313900,-0.678914
0.314000,-0.737663
0.314100,-0.732794
0.314200,-0.719811
0.314300,-0.693195
0.314400,-0.756813
0.314500,-0.749672
0.314600,-0.737014
0.314700,-0.747400
0.314800,-0.751295
0.314900,-0.775639
0.315000,-0.765577
0.315100,-0.747400
0.315200,-0.705205
0.315300,-0.698713
0.315400,-0.709749
0.315500,-0.703582
0.315600,-0.685730
0.315700,-0.687677
0.315800,-0.711372
0.315900,-0.744804
0.316000,-0.808422
0.316100,-0.840880
0.316200,-1.026865
0.316300,-1.327429
0.316400,-1.293997
0.316500,-1.056727
0.316600,-0.890216
0.316700,-0.940527
0.316800,-1.171629
0.316900,-1.439085
0.317000,-1.489071
0.317100,-1.342684
0.317200,-1.204412
0.317300,-1.141118
0.317400,-1.318989
0.317500,-1.499133
0.317600,-1.626044
0.317700,-1.617605
0.317800,-1.642923
0.317900,-1.680250
0.318000,-1.698102
0.318100,-1.750360
0.318200,-1.792555
0.318300,-1.779247
0.318400,-1.750684
0.318500,-1.751982
0.318600,-1.793204
0.318700,-1.799696
0.318800,-1.792231
0.318900,-1.748087
0.319000,-1.821443
0.319100,-1.826961
0.319200,-1.896422
0.319300,-1.872078
0.319400,-1.763343
0.319500,-1.767238
0.319600,-1.911028
0.319700,-2.132069
0.319800,-2.271315
0.319900,-2.202504
0.320000,-2.041835
0.320100,-1.952250
0.320200,-2.066179
0.320300,-2.273912
0.320400,-2.434581
0.320500,-2.470609
0.320600,-2.349864
0.320700,-2.256060
0.320800,-2.251516
0.320900,-2.297931
0.321000,-2.338179
0.321100,-2.338504
0.321200,-2.303449
0.321300,-2.285272
0.321400,-2.236909
0.321500,-2.142780
0.321600,-1.997367
0.321700,-1.902589
0.321800,-1.875973
0.321900,-1.856498
0.322000,-1.820794
0.322100,-1.787362
0.322200,-1.627343
0.322300,-1.532240
0.322400,-1.470894
0.322500,-1.302436
0.322600,-1.287505
0.322700,-1.256020
0.322800,-1.179094
0.322900,-1.109634
0.323000,-0.966169
0.323100,-0.903524
0.323200,-0.859706
0.323300,-0.839257
0.323400,-0.835362
0.323500,-0.772069
0.323600,-0.779534
0.323700,-0.701310
0.323800,-0.662360
0.323900,-0.628603
0.324000,-0.655219
0.324100,-0.554923
0.324200,-0.652622
0.324300,-0.546809
0.324400,-0.556222
0.324500,-0.321873
0.324600,-0.074218
0.324700,0.009200
0.324800,-0.136862
0.324900,-0.409511
0.325000,-0.332260
0.325100,-0.090771
0.325200,0.111768
0.325300,0.184798
0.325400,0.063080
0.325500,-0.043382
0.325600,-0.096938
0.325700,0.046527
0.325800,0.151691
0.325900,0.247767
0.326000,0.146822
0.326100,0.132541
0.326200,0.119233
0.326300,0.127997
0.326400,0.123453
0.326500,0.133515
0.326600,0.142603
0.326700,0.088073
0.326800,0.082231
0.326900,0.102355
0.327000,-0.052471
0.327100,-0.067726
0.327200,-0.146599
0.327300,-0.183926
0.327400,-0.214112
0.327500,-0.240079
0.327600,-0.322523
0.327700,-0.600365
0.327800,-0.760708
0.327900,-0.844775
0.328000,-0.806150
0.328100,-0.639639
0.328200,-0.797710
0.328300,-1.033357
0.328400,-1.318665
0.328500,-1.344631
0.328600,-1.280689
0.328700,-1.167085
0.328800,-1.202789
0.328900,-1.389748
0.329000,-1.484202
0.329100,-1.453042
0.329200,-1.496211
0.329300,-1.487123
0.329400,-1.557882
0.329500,-1.596832
0.329600,-1.656880
0.329700,-1.698426
0.329800,-1.667266
0.329900,-1.696803
0.330000,-1.746465
0.330100,-1.774379
0.330200,-1.730560
0.330300,-1.750684
0.330400,-1.734130
0.330500,-1.862016
0.330600,-1.953873
0.330700,-1.970427
0.330800,-1.955171
0.330900,-1.844164
0.331000,-1.883114
0.331100,-1.894474
0.331200,-1.848059
0.331300,-1.836374
0.331400,-1.808784
0.331500,-1.757825
0.331600,-1.716278
0.331700,-1.690961
0.331800,-1.676030
0.331900,-1.631238
0.332000,-1.614359
0.332100,-1.582226
0.332200,-1.594235
0.332300,-1.553013
0.332400,-1.565347
0.332500,-1.535486
0.332600,-1.616632
0.332700,-1.579629
0.332800,-1.664345
0.332900,-1.885711
0.333000,-2.017816
0.333100,-1.865586
0.333200,-1.589367
0.333300,-1.478684
0.333400,-1.545548
0.333500,-1.821768
0.333600,-2.016842
0.333700,-1.931477
0.333800,-1.798722
0.333900,-1.652011
0.334000,-1.729262
0.334100,-1.828584
0.334200,-2.036317
0.334300,-2.012298
0.334400,-1.990551
0.334500,-1.943486
0.334600,-1.979840
0.334700,-2.035343
0.334800,-2.091172
0.334900,-2.076890
0.335000,-2.055467
0.335100,-2.073644
0.335200,-2.122981
0.335300,-2.203802
0.335400,-2.221979
0.335500,-2.208022
0.335600,-2.164203
0.335700,-2.216461
0.335800,-2.253463
0.335900,-2.240155
0.336000,-2.130771
0.336100,-1.967830
0.336200,-2.046055
0.336300,-2.169072
0.336400,-2.332012
0.336500,-2.369664
0.336600,-2.156088
0.336700,-1.985033
0.336800,-1.952250
0.336900,-2.081759
0.337000,-2.235611
0.337100,-2.321626
0.337200,-2.222303
0.337300,-2.054169
0.337400,-1.961014
0.337500,-1.987630
0.337600,-2.002236
0.337700,-1.972699
0.337800,-1.949004
0.337900,-1.927582
0.338000,-1.862016
0.338100,-1.837023
0.338200,-1.741271
0.338300,-1.615658
0.338400,-1.545873
0.338500,-1.531266
0.338600,-1.532240
0.338700,-1.535161
0.338800,-1.480307
0.338900,-1.358913
0.339000,-1.312822
0.339100,-1.138197
0.339200,-1.169682
0.339300,-1.159295
0.339400,-1.130732
0.339500,-1.017453
0.339600,-0.973309
0.339700,-0.874312
0.339800,-0.877558
0.339900,-0.874636
0.340000,-0.923324
0.340100,-0.898331
0.340200,-0.935333
0.340300,-0.916508
0.340400,-0.929491
0.340500,-0.917806
0.340600,-0.949615
0.340700,-0.997328
0.340800,-0.992784
0.340900,-1.148908
0.341000,-1.101844
0.341100,-1.035629
0.341200,-0.896708
0.341300,-0.601988
0.341400,-0.730197
0.341500,-1.014207
0.341600,-1.311524
0.341700,-1.134627
0.341800,-1.056727
0.341900,-0.737338
0.342000,-0.809720
0.342100,-0.987591
0.342200,-1.126512
0.342300,-1.140794
0.342400,-0.986293
0.342500,-0.794789
0.342600,-0.759085
0.342700,-0.754217
0.342800,-0.801930
0.342900,-0.856460
0.343000,-0.863276
0.343100,-0.766226
0.343200,-0.763629
0.343300,-0.756489
0.343400,-0.749348
0.343500,-0.713968
0.343600,-0.731820
0.343700,-0.898655
0.343800,-0.890866
0.343900,-0.913262
0.344000,-0.890866
0.344100,-0.807123
0.344200,-0.746427
0.344300,-0.753892
0.344400,-1.059973
0.344500,-1.037577
0.344600,-1.060947
0.344700,-0.869768
0.344800,-0.767524
0.344900,-0.874312
0.345000,-1.119047
0.345100,-1.287830
0.345200,-1.234923
0.345300,-1.112231
0.345400,-1.012259
0.345500,-1.060622
0.345600,-1.192078
0.345700,-1.280364
0.345800,-1.234598
0.345900,-1.282312
0.346000,-1.212851
0.346100,-1.282961
0.346200,-1.314770
0.346300,-1.358264
0.346400,-1.345605
0.346500,-1.291075
0.346600,-1.322235
0.346700,-1.343658
0.346800,-1.327104
0.346900,-1.287180
0.347000,-1.240441
0.347100,-1.248555
0.347200,-1.356641
0.347300,-1.374493
0.347400,-1.324183
0.347500,-1.257643
0.347600,-1.175849
0.347700,-1.190455
0.347800,-1.177147
0.347900,-1.164488
0.348000,-1.139171
0.348100,-1.115801
0.348200,-1.112880
0.348300,-1.114827
0.348400,-1.119371
0.348500,-1.117748
0.348600,-1.122293
0.348700,-1.113529
0.348800,-1.127486
0.348900,-1.169357
0.349000,-1.149557
0.349100,-1.184288
0.349200,-1.206359
0.349300,-1.261214
0.349400,-1.274197
0.349500,-1.428698
0.349600,-1.712708
0.349700,-1.836049
0.349800,-1.697128
0.349900,-1.496536
0.350000,-1.522827
0.350100,-1.747438
0.350200,-1.984708
0.350300,-2.088575
0.350400,-2.036966
0.350500,-1.859419
0.350600,-1.863314
0.350700,-1.960040
0.350800,-2.132069
0.350900,-2.282351
0.351000,-2.260279
0.351100,-2.210294
0.351200,-2.181081
0.351300,-2.210294
0.351400,-2.281377
0.351500,-2.303449
0.351600,-2.338179
0.351700,-2.303124
0.351800,-2.330389
0.351900,-2.386218
0.352000,-2.373234
0.352100,-2.419325
0.352200,-2.357654
0.352300,-2.350189
0.352400,-2.413807
0.352500,-2.429387
0.352600,-2.437826
0.352700,-2.209644
0.352800,-2.185301
0.352900,-2.265797
0.353000,-2.428738
0.353100,-2.563440
0.353200,-2.479698
0.353300,-2.264174
0.353400,-2.170694
0.353500,-2.228146
0.353600,-2.404719
0.353700,-2.561817
0.353800,-2.609531
0.353900,-2.559545
0.354000,-2.490084
0.354100,-2.475154
0.354200,-2.523517
0.354300,-2.594600
0.354400,-2.629006
0.354500,-2.581617
0.354600,-2.582591
0.354700,-2.538772
0.354800,-2.491058
0.354900,-2.454705
0.355000,-2.356356
0.355100,-2.295659
0.355200,-2.266771
0.355300,-2.234313
0.355400,-2.270666
0.355500,-2.129148
0.355600,-2.011649
0.355700,-1.808135
0.355800,-1.772431
0.355900,-1.803916
0.356000,-1.779247
0.356100,-1.704269
0.356200,-1.618904
0.356300,-1.514063
0.356400,-1.492966
0.356500,-1.432593
0.356600,-1.467973
0.356700,-1.453691
0.356800,-1.446875
0.356900,-1.474464
0.357000,-1.437787
0.357100,-1.439734
0.357200,-1.434865
0.357300,-1.477061
0.357400,-1.468946
0.357500,-1.519581
0.357600,-1.581252
0.357700,-1.425777
0.357800,-1.401433
0.357900,-0.985319
0.358000,-0.992135
0.358100,-0.942149
0.358200,-1.400784
0.358300,-1.367677
0.358400,-1.286531
0.358500,-0.922025
0.358600,-0.824326
0.358700,-0.834064
0.358800,-0.927868
0.358900,-1.094054
0.359000,-0.996030
0.359100,-0.835362
0.359200,-0.790894
0.359300,-0.791543
0.359400,-0.829520
0.359500,-0.872689
0.359600,-0.912288
0.359700,-0.860030
0.359800,-0.853539
0.359900,-0.876909
0.360000,-0.897033
0.360100,-0.937281
0.360200,-0.977529
0.360300,-1.021348
0.360400,-1.193701
0.360500,-1.168059
0.360600,-1.347228
0.360700,-1.202789
0.360800,-1.282312
0.360900,-1.233300
0.361000,-1.410522
0.361100,-1.649090
0.361200,-1.645844
0.361300,-1.605271
0.361400,-1.377090
0.361500,-1.438760
0.361600,-1.580927
0.361700,-1.815925
0.361800,-1.858446
0.361900,-1.824364
0.362000,-1.644870
0.362100,-1.645844
0.362200,-1.747114
0.362300,-1.867859
0.362400,-1.907458
0.362500,-1.893176
0.362600,-1.894150
0.362700,-1.883763
0.362800,-1.901615
0.362900,-1.954198
0.363000,-1.949004
0.363100,-1.895123
0.363200,-1.910379
0.363300,-1.946083
0.363400,-1.948030
0.363500,-1.903238
0.363600,-1.894474
0.363700,-1.872078
0.363800,-1.943162
0.363900,-2.034370
0.364000,-2.037291
0.364100,-2.035992
0.364200,-1.949004
0.364300,-1.896422
0.364400,-1.911028
0.364500,-1.864288
0.364600,-1.841243
0.364700,-1.793204
0.364800,-1.739973
0.364900,-1.711085
0.365000,-1.675706
0.365100,-1.650713
0.365200,-1.608192
0.365300,-1.571515
0.365400,-1.565672
0.365500,-1.539381
0.365600,-1.523152
0.365700,-1.511467
0.365800,-1.486474
0.365900,-1.509195
0.366000,-1.483877
0.366100,-1.577357
0.366200,-1.707839
0.366300,-1.948680
0.366400,-1.900966
0.366500,-1.721472
0.366600,-1.553338
0.366700,-1.579305
0.366800,-1.886360
0.366900,-2.075592
0.367000,-2.116164
0.367100,-2.007754
0.367200,-1.889930
0.367300,-1.881166
0.367400,-2.068775
0.367500,-2.211267
0.367600,-2.340451
0.367700,-2.300203
0.367800,-2.314809
0.367900,-2.331039
0.368000,-2.404719
0.368100,-2.468337
0.368200,-2.476127
0.368300,-2.508910
0.368400,-2.494304
0.368500,-2.523841
0.368600,-2.589407
0.368700,-2.592653
0.368800,-2.563116
0.368900,-2.520920
0.369000,-2.561168
0.369100,-2.591679
0.369200,-2.594276
0.369300,-2.470609
0.369400,-2.343697
0.369500,-2.323249
0.369600,-2.437502
0.369700,-2.578696
0.369800,-2.647507
0.369900,-2.524815
0.370000,-2.355382
0.370100,-2.307019
0.370200,-2.411860
0.370300,-2.570906
0.370400,-2.721837
0.370500,-2.699765
0.370600,-2.577397
0.370700,-2.507287
0.370800,-2.509235
0.370900,-2.567660
0.371000,-2.584863
0.371100,-2.589407
0.371200,-2.577073
0.371300,-2.524166
0.371400,-2.504042
0.371500,-2.442371
0.371600,-2.366743
0.371700,-2.250217
0.371800,-2.201530
0.371900,-2.207697
0.372000,-2.182704
0.372100,-2.150570
0.372200,-1.974646
0.372300,-1.884737
0.372400,-1.697777
0.372500,-1.746140
0.372600,-1.739648
0.372700,-1.707515
0.372800,-1.650713
0.372900,-1.615009
0.373000,-1.501405
0.373100,-1.499133
0.373200,-1.461157
0.373300,-1.547495
0.373400,-1.557557
0.373500,-1.573787
0.373600,-1.618254
0.373700,-1.581577
0.373800,-1.599753
0.373900,-1.551715
0.374000,-1.605920
0.374100,-1.562102
0.374200,-1.646818
0.374300,-1.600402
0.374400,-1.511142
0.374500,-1.288803
0.374600,-1.064192
0.374700,-0.998627
0.374800,-1.228431
0.374900,-1.576708
0.375000,-1.438760
0.375100,-1.225834
0.375200,-0.979152
0.375300,-0.858732
0.375400,-1.091133
0.375500,-1.131056
0.375600,-1.238818
0.375700,-1.119696
0.375800,-0.932737
0.375900,-0.863601
0.376000,-0.844126
0.376100,-0.939877
0.376200,-0.849644
0.376300,-0.870092
0.376400,-0.841529
0.376500,-0.830493
0.376600,-0.815563
0.376700,-0.831142
0.376800,-0.833415
0.376900,-0.852565
0.377000,-0.917806
0.377100,-0.930789
0.377200,-1.013558
0.377300,-1.056402
0.377400,-0.975581
0.377500,-1.025243
0.377600,-1.025243
0.377700,-1.281987
0.377800,-1.411820
0.377900,-1.426102
0.378000,-1.322235
0.378100,-1.114178
0.378200,-1.214474
0.378300,-1.414417
0.378400,-1.631887
0.378500,-1.600402
0.378600,-1.495238
0.378700,-1.307954
0.378800,-1.304059
0.378900,-1.382283
0.379000,-1.455963
0.379100,-1.411820
0.379200,-1.396889
0.379300,-1.288154
0.379400,-1.316717
0.379500,-1.312173
0.379600,-1.354369
0.379700,-1.290102
0.379800,-1.261863
0.379900,-1.279066
0.380000,-1.296918
0.380100,-1.304383
0.380200,-1.269977
0.380300,-1.256020
0.380400,-1.266732
0.380500,-1.389099
0.380600,-1.483228
0.380700,-1.467324
0.380800,-1.467973
0.380900,-1.363457
0.381000,-1.435190
0.381100,-1.474789
0.381200,-1.456937
0.381300,-1.472192
0.381400,-1.511467
0.381500,-1.492966
0.381600,-1.504326
0.381700,-1.486799
0.381800,-1.497834
0.381900,-1.516011
0.382000,-1.494913
0.382100,-1.523152
0.382200,-1.495562
0.382300,-1.499782
0.382400,-1.508546
0.382500,-1.551390
0.382600,-1.594884
0.382700,-1.629615
0.382800,-1.704593
0.382900,-1.980813
0.383000,-2.080785
0.383100,-1.970427
0.383200,-1.691935
0.383300,-1.652336
0.383400,-1.853252
0.383500,-2.118437
0.383600,-2.309616
0.383700,-2.286246
0.383800,-2.160632
0.383900,-2.072995
0.384000,-2.183678
0.384100,-2.379726
0.384200,-2.511182
0.384300,-2.546237
0.384400,-2.547536
0.384500,-2.546562
0.384600,-2.592004
0.384700,-2.659842
0.384800,-2.691326
0.384900,-2.716319
0.385000,-2.740988
0.385100,-2.771498
0.385200,-2.818563
0.385300,-2.859136
0.385400,-2.893867
0.385500,-2.851671
0.385600,-2.888998
0.385700,-2.935413
0.385800,-2.995786
0.385900,-2.998058
0.386000,-2.852969
0.386100,-2.776692
0.386200,-2.893867
0.386300,-3.068818
0.386400,-3.243119
0.386500,-3.249286
0.386600,-3.074011
0.386700,-2.953266
0.386800,-2.951643
0.386900,-3.124321
0.387000,-3.321993
0.387100,-3.392104
0.387200,-3.290833
0.387300,-3.155157
0.387400,-3.122049
0.387500,-3.138279
0.387600,-3.164570
0.387700,-3.135682
0.387800,-3.062975
0.387900,-3.034412
0.388000,-2.976960
0.388100,-2.939633
0.388200,-2.857189
0.388300,-2.719240
0.388400,-2.629331
0.388500,-2.576748
0.388600,-2.545913
0.388700,-2.520595
0.388800,-2.408614
0.388900,-2.224251
0.389000,-2.106752
0.389100,-1.947381
0.389200,-1.981463
0.389300,-1.941863
0.389400,-1.882789
0.389500,-1.790283
0.389600,-1.713682
0.389700,-1.567944
0.389800,-1.545223
0.389900,-1.497834
0.390000,-1.530942
0.390100,-1.474140
0.390200,-1.518932
0.390300,-1.472517
0.390400,-1.399810
0.390500,-1.430646
0.390600,-1.354044
0.390700,-1.440059
0.390800,-1.355992
0.390900,-1.531915
0.391000,-1.360211
0.391100,-1.426751
0.391200,-1.068087
0.391300,-0.938579
0.391400,-0.974608
0.391500,-1.343009
0.391600,-1.499133
0.391700,-1.327753
0.391800,-1.053806
0.391900,-0.905796
0.392000,-0.862627
0.392100,-1.046665
0.392200,-1.086913
0.392300,-1.094054
0.392400,-0.848670
0.392500,-0.777911
0.392600,-0.714618
0.392700,-0.780832
0.392800,-0.761357
0.392900,-0.785052
0.393000,-0.800307
0.393100,-0.782131
0.393200,-0.808097
0.393300,-0.851916
0.393400,-0.885023
0.393500,-0.925920
0.393600,-0.939877
0.393700,-1.159620
0.393800,-1.066789
0.393900,-1.238168
0.394000,-1.214149
0.394100,-1.137223
0.394200,-1.149233
0.394300,-1.158646
0.394400,-1.500431
0.394500,-1.494588
0.394600,-1.454016
0.394700,-1.230054
0.394800,-1.152479
0.394900,-1.261863
0.395000,-1.529643
0.395100,-1.660450
0.395200,-1.596832
0.395300,-1.399486
0.395400,-1.339114
0.395500,-1.448173
0.395600,-1.604297
0.395700,-1.727639
0.395800,-1.675381
0.395900,-1.737052
0.396000,-1.738350
0.396100,-1.874350
0.396200,-1.947057
0.396300,-1.994446
0.396400,-1.963610
0.396500,-1.995744
0.396600,-2.053195
0.396700,-2.115840
0.396800,-2.109997
0.396900,-2.078837
0.397000,-2.068775
0.397100,-2.114217
0.397200,-2.233014
0.397300,-2.259955
0.397400,-2.235286
0.397500,-2.157062
0.397600,-2.079162
0.397700,-2.138885
0.397800,-2.089873
0.397900,-2.103181
0.398000,-2.099611
0.398100,-2.116814
0.398200,-2.108699
0.398300,-2.131420
0.398400,-2.178484
0.398500,-2.166799
0.398600,-2.205749
0.398700,-2.223601
0.398800,-2.229119
0.398900,-2.233014
0.399000,-2.227496
0.399100,-2.255735
0.399200,-2.274561
0.399300,-2.270991
0.399400,-2.301177
0.399500,-2.417702
0.399600,-2.641665
0.399700,-2.634200
0.399800,-2.398227
0.399900,-2.195687
0.400000,-2.231391
0.400100,-2.405044
0.400200,-2.667307
0.400300,-2.697493
0.400400,-2.579669
0.400500,-2.378428
0.400600,-2.341425
0.400700,-2.435230
0.400800,-2.622515
0.400900,-2.678343
0.401000,-2.611154
0.401100,-2.515727
0.401200,-2.477101
0.401300,-2.487163
0.401400,-2.517999
0.401500,-2.508261
0.401600,-2.506963
0.401700,-2.460872
0.401800,-2.451134
0.401900,-2.487812
0.402000,-2.478399
0.402100,-2.479049
0.402200,-2.426791
0.402300,-2.451134
0.402400,-2.451459
0.402500,-2.481321
0.402600,-2.420948
0.402700,-2.304098
0.402800,-2.247945
0.402900,-2.367716
0.403000,-2.547211
0.403100,-2.684510
0.403200,-2.565063
0.403300,-2.318055
0.403400,-2.169721
0.403500,-2.175563
0.403600,-2.336881
0.403700,-2.492032
0.403800,-2.489760
0.403900,-2.346619
0.404000,-2.205749
0.404100,-2.190494
0.404200,-2.236585
0.404300,-2.297606
0.404400,-2.323249
0.404500,-2.294685
0.404600,-2.279430
0.404700,-2.230418
0.404800,-2.187573
0.404900,-2.056117
0.405000,-2.002560
0.405100,-1.965233
0.405200,-1.953873
0.405300,-1.918818
0.405400,-1.923038
0.405500,-1.762694
0.405600,-1.664670
0.405700,-1.628966
0.405800,-1.410846
0.405900,-1.438111
0.406000,-1.417013
0.406100,-1.364756
0.406200,-1.272899
0.406300,-1.188832
0.406400,-1.089185
0.406500,-1.094054
0.406600,-1.105090
0.406700,-1.118073
0.406800,-1.099247
0.406900,-1.154102
0.407000,-1.163839
0.407100,-1.098273
0.407200,-1.220641
0.407300,-1.090484
0.407400,-1.201166
0.407500,-1.126188
0.407600,-1.238168
0.407700,-1.084316
0.407800,-1.005768
0.407900,-0.744804
0.408000,-0.664307
0.408100,-0.862302
0.408200,-1.131056
0.408300,-1.189157
0.408400,-0.968116
0.408500,-0.688326
0.408600,-0.673396
0.408700,-0.689300
0.408800,-0.928192
0.408900,-0.947343
0.409000,-0.939877
0.409100,-0.808746
0.409200,-0.708450
0.409300,-0.683133
0.409400,-0.732470
0.409500,-0.763629
0.409600,-0.785376
0.409700,-0.821405
0.409800,-0.777586
0.409900,-0.762331
0.410000,-0.770121
0.410100,-0.800956
0.410200,-0.796412
0.410300,-0.949615
0.410400,-0.927868
0.410500,-1.074254
0.410600,-1.046016
0.410700,-1.021997
0.410800,-0.984670
0.410900,-1.002197
0.411000,-1.146636
0.411100,-1.343009
0.411200,-1.337166
0.411300,-1.274846
0.411400,-1.022646
0.411500,-1.127486
0.411600,-1.226808
0.411700,-1.533863
0.411800,-1.570216
0.411900,-1.531266
0.412000,-1.346579
0.412100,-1.305032
0.412200,-1.429672
0.412300,-1.546197
0.412400,-1.580927
0.412500,-1.567620
0.412600,-1.542951
0.412700,-1.528020
0.412800,-1.548794
0.412900,-1.563400
0.413000,-1.596832
0.413100,-1.533538
0.413200,-1.510168
0.413300,-1.528670
0.413400,-1.528020
0.413500,-1.453691
0.413600,-1.435514
0.413700,-1.387801
0.413800,-1.448173
0.413900,-1.515362
0.414000,-1.499133
0.414100,-1.468946
0.414200,-1.319639
0.414300,-1.337491
0.414400,-1.377090
0.414500,-1.351123
0.414600,-1.380011
0.414700,-1.373519
0.414800,-1.399486
0.414900,-1.439734
0.415000,-1.459209
0.415100,-1.505624
0.415200,-1.534188
0.415300,-1.555935
0.415400,-1.584822
0.415500,-1.659152
0.415600,-1.677978
0.415700,-1.729911
0.415800,-1.746140
0.415900,-1.876947
0.416000,-1.864288
0.416100,-2.014570
0.416200,-2.278131
0.416300,-2.527412
0.416400,-2.414456
0.416500,-2.247621
0.416600,-2.123305
0.416700,-2.251516
0.416800,-2.520920
0.416900,-2.769876
0.417000,-2.772797
0.417100,-2.662763
0.417200,-2.542667
0.417300,-2.600443
0.417400,-2.741637
0.417500,-2.968196
0.417600,-3.043175
0.417700,-3.016559
0.417800,-3.014287
0.417900,-3.033113
0.418000,-3.057132
0.418100,-3.089591
0.418200,-3.118154
0.418300,-3.124321
0.418400,-3.134384
0.418500,-3.179501
0.418600,-3.245067
0.418700,-3.220074
0.418800,-3.215530
0.418900,-3.186642
0.419000,-3.200923
0.419100,-3.239224
0.419200,-3.254804
0.419300,-3.099328
0.419400,-2.932817
0.419500,-2.958134
0.419600,-3.074985
0.419700,-3.228838
0.419800,-3.295702
0.419900,-3.092188
0.420000,-2.893867
0.420100,-2.794869
0.420200,-2.892893
0.420300,-3.036359
0.420400,-3.156131
0.420500,-3.120102
0.420600,-2.984750
0.420700,-2.923079
0.420800,-2.946125
0.420900,-3.017858
0.421000,-3.066545
0.421100,-3.076932
0.421200,-3.079529
0.421300,-3.080503
0.421400,-3.048369
0.421500,-2.969819
0.421600,-2.843556
0.421700,-2.821160
0.421800,-2.801685
0.421900,-2.833169
0.422000,-2.863356
0.422100,-2.849074
0.422200,-2.713398
0.422300,-2.701064
0.422400,-2.660815
0.422500,-2.586161
0.422600,-2.582591
0.422700,-2.566362
0.422800,-2.489111
0.422900,-2.443669
0.423000,-2.346619
0.423100,-2.315134
0.423200,-2.310265
0.423300,-2.343697
0.423400,-2.354084
0.423500,-2.348891
0.423600,-2.365120
0.423700,-2.369664
0.423800,-2.337206
0.423900,-2.381349
0.424000,-2.357330
0.424100,-2.492681
0.424200,-2.457951
0.424300,-2.581942
0.424400,-2.455029
0.424500,-2.352136
0.424600,-2.075592
0.424700,-2.159009
0.424800,-2.442695
0.424900,-2.752348
0.425000,-2.618620
0.425100,-2.456003
0.425200,-2.251516
0.425300,-2.198284
0.425400,-2.313836
0.425500,-2.492357
0.425600,-2.441072
0.425700,-2.277158
0.425800,-2.043782
0.425900,-1.935047
0.426000,-1.877271
0.426100,-1.887658
0.426200,-1.817548
0.426300,-1.751009
0.426400,-1.603324
0.426500,-1.542627
0.426600,-1.481930
0.426700,-1.411820
0.426800,-1.365729
0.426900,-1.270627
0.427000,-1.445252
0.427100,-1.337491
0.427200,-1.514713
0.427300,-1.376765
0.427400,-1.382932
0.427500,-1.270951
0.427600,-1.303085
0.427700,-1.514388
0.427800,-1.649414
0.427900,-1.648441
0.428000,-1.474464
0.428100,-1.317042
0.428200,-1.345605
0.428300,-1.557557
0.428400,-1.704593
0.428500,-1.641624
0.428600,-1.494264
0.428700,-1.311849
0.428800,-1.335219
0.428900,-1.437137
0.429000,-1.508870
0.429100,-1.463753
0.429200,-1.467648
0.429300,-1.407600
0.429400,-1.456288
0.429500,-1.474140
0.429600,-1.476087
0.429700,-1.420259
0.429800,-1.367677
0.429900,-1.391371
0.430000,-1.432269
0.430100,-1.439734
0.430200,-1.403705
0.430300,-1.410197
0.430400,-1.410197
0.430500,-1.562751
0.430600,-1.671486
0.430700,-1.680250
0.430800,-1.733806
0.430900,-1.647791
0.431000,-1.736403
0.431100,-1.791257
0.431200,-1.799047
0.431300,-1.872403
0.431400,-1.865911
0.431500,-1.882465
0.431600,-1.901615
0.431700,-1.903887
0.431800,-1.911677
0.431900,-1.892851
0.432000,-1.916221
0.432100,-1.924336
0.432200,-1.914598
0.432300,-1.910054
0.432400,-1.881816
0.432500,-1.905186
0.432600,-1.912002
0.432700,-1.924661
0.432800,-2.068126
0.432900,-2.256060
0.433000,-2.320976
0.433100,-2.107076
0.433200,-1.940890
0.433300,-1.834751
0.433400,-2.031773
0.433500,-2.240804
0.433600,-2.415106
0.433700,-2.321950
0.433800,-2.191792
0.433900,-2.101558
0.434000,-2.195038
0.434100,-2.382972
0.434200,-2.541693
0.434300,-2.546237
0.434400,-2.501769
0.434500,-2.482619
0.434600,-2.586486
0.434700,-2.615698
0.434800,-2.690677
0.434900,-2.710477
0.435000,-2.720214
0.435100,-2.749102
0.435200,-2.808501
0.435300,-2.873418
0.435400,-2.875041
0.435500,-2.875690
0.435600,-2.889647
0.435700,-2.964301
0.435800,-3.046746
0.435900,-3.046746
0.436000,-2.906201
0.436100,-2.829599
0.436200,-2.901657
0.436300,-3.099004
0.436400,-3.268112
0.436500,-3.251559
0.436600,-3.052588
0.436700,-2.920483
0.436800,-2.927623
0.436900,-3.081801
0.437000,-3.271358
0.437100,-3.300895
0.437200,-3.166517
0.437300,-3.058106
0.437400,-2.989619
0.437500,-2.996111
0.437600,-3.026622
0.437700,-2.992540
0.437800,-2.924378
0.437900,-2.875690
0.438000,-2.794219
0.438100,-2.749427
0.438200,-2.597522
0.438300,-2.479698
0.438400,-2.389464
0.438500,-2.356681
0.438600,-2.329416
0.438700,-2.328117
0.438800,-2.233664
0.438900,-2.075916
0.439000,-2.053520
0.439100,-1.831830
0.439200,-1.887333
0.439300,-1.819820
0.439400,-1.725042
0.439500,-1.597157
0.439600,-1.508870
0.439700,-1.368975
0.439800,-1.331648
0.439900,-1.311524
0.440000,-1.287180
0.440100,-1.284908
0.440200,-1.268355
0.440300,-1.230054
0.440400,-1.140794
0.440500,-1.123915
0.440600,-1.117748
0.440700,-1.073281
0.440800,-1.128460
0.440900,-1.180068
0.441000,-1.094054
0.441100,-1.022646
0.441200,-0.800632
0.441300,-0.570179
0.441400,-0.741558
0.441500,-0.993433
0.441600,-1.218044
0.441700,-0.960651
0.441800,-0.882751
0.441900,-0.700336
0.442000,-0.780183
0.442100,-0.943772
0.442200,-1.066789
0.442300,-1.124565
0.442400,-0.950264
0.442500,-0.912937
0.442600,-0.907095
0.442700,-0.968441
0.442800,-1.025243
0.442900,-1.080421
0.443000,-1.140469
0.443100,-1.124889
0.443200,-1.170331
0.443300,-1.205386
0.443400,-1.275820
0.443500,-1.214799
0.443600,-1.425777
0.443700,-1.448822
0.443800,-1.537758
0.443900,-1.542302
0.444000,-1.495562
0.444100,-1.519257
0.444200,-1.510168
0.444300,-1.625720
0.444400,-1.891228
0.444500,-1.949653
0.444600,-1.857472
0.444700,-1.696803
0.444800,-1.615333
0.444900,-1.750360
0.445000,-1.948355
0.445100,-2.008403
0.445200,-1.852928
0.445300,-1.655257
0.445400,-1.523152
0.445500,-1.541328
0.445600,-1.619228
0.445700,-1.597806
0.445800,-1.581577
0.445900,-1.539381
0.446000,-1.504651
0.446100,-1.569567
0.446200,-1.595858
0.446300,-1.626694
0.446400,-1.562751
0.446500,-1.582875
0.446600,-1.666942
0.446700,-1.693558
0.446800,-1.686741
0.446900,-1.650064
0.447000,-1.665319
0.447100,-1.727639
0.447200,-1.869806
0.447300,-1.924985
0.447400,-1.927582
0.447500,-1.801968
0.447600,-1.865911
0.447700,-1.916221
0.447800,-1.951601
0.447900,-1.971400
0.448000,-1.986331
0.448100,-2.037615
0.448200,-2.062284
0.448300,-2.128823
0.448400,-2.184652
0.448500,-2.206723
0.448600,-2.252165
0.448700,-2.282351
0.448800,-2.353759
0.448900,-2.399526
0.449000,-2.460872
0.449100,-2.547860
0.449200,-2.608557
0.449300,-2.697169
0.449400,-2.761436
0.449500,-3.038631
0.449600,-3.301869
0.449700,-3.325239
0.449800,-3.122374
0.449900,-2.951643
0.450000,-3.017533
0.450100,-3.232083
0.450200,-3.501489
0.450300,-3.508954
0.450400,-3.413202
0.450500,-3.218126
0.450600,-3.242146
0.450700,-3.329459
0.450800,-3.513174
0.450900,-3.550501
0.451000,-3.510577
0.451100,-3.461565
0.451200,-3.424562
0.451300,-3.497269
0.451400,-3.507656
0.451500,-3.461889
0.451600,-3.454424
0.451700,-3.415798
0.451800,-3.427159
0.451900,-3.437870
0.452000,-3.479417
0.452100,-3.424562
0.452200,-3.368084
0.452300,-3.382366
0.452400,-3.446309
0.452500,-3.452801
0.452600,-3.403789
0.452700,-3.249611
0.452800,-3.232733
0.452900,-3.364514
0.453000,-3.566406
0.453100,-3.707276
0.453200,-3.575819
0.453300,-3.389182
0.453400,-3.281745
0.453500,-3.384314
0.453600,-3.587179
0.453700,-3.726102
0.453800,-3.737138
0.453900,-3.584258
0.454000,-3.482338
0.454100,-3.489479
0.454200,-3.510577
0.454300,-3.499866
0.454400,-3.442414
0.454500,-3.371330
0.454600,-3.320695
0.454700,-3.244742
0.454800,-3.164894
0.454900,-2.998383
0.455000,-2.844854
0.455100,-2.794544
0.455200,-2.745856
0.455300,-2.728004
0.455400,-2.681913
0.455500,-2.503717
0.455600,-2.397254
0.455700,-2.303449
0.455800,-2.137912
0.455900,-2.122656
0.456000,-2.072346
0.456100,-1.998016
0.456200,-1.914274
0.456300,-1.824364
0.456400,-1.720498
0.456500,-1.725691
0.456600,-1.761720
0.456700,-1.766264
0.456800,-1.759772
0.456900,-1.782493
0.457000,-1.792231
0.457100,-1.750035
0.457200,-1.797424
0.457300,-1.756527
0.457400,-1.850331
0.457500,-1.818522
0.457600,-1.965558
0.457700,-1.788660
0.457800,-1.726016
0.457900,-1.394617
0.458000,-1.334245
0.458100,-1.579305
0.458200,-1.844164
0.458300,-1.800021
0.458400,-1.622799
0.458500,-1.379362
0.458600,-1.333920
0.458700,-1.422856
0.458800,-1.543600
0.458900,-1.560154
0.459000,-1.429672
0.459100,-1.267381
0.459200,-1.191104
0.459300,-1.140469
0.459400,-1.229080
0.459500,-1.173901
0.459600,-1.212526
0.459700,-1.123266
0.459800,-1.118722
0.459900,-1.065166
0.460000,-1.078149
0.460100,-1.058999
0.460200,-1.105090
0.460300,-1.113204
0.460400,-1.133653
0.460500,-1.109634
0.460600,-1.177147
0.460700,-1.162216
0.460800,-1.148908
0.460900,-1.218693
0.461000,-1.341061
0.461100,-1.573137
0.461200,-1.538407
0.461300,-1.476412
0.461400,-1.228431
0.461500,-1.323209
0.461600,-1.551066
0.461700,-1.799372
0.461800,-1.824689
0.461900,-1.729262
0.462000,-1.575410
0.462100,-1.581252
0.462200,-1.692584
0.462300,-1.798722
0.462400,-1.769835
0.462500,-1.773080
0.462600,-1.683171
0.462700,-1.708813
0.462800,-1.768536
0.462900,-1.803267
0.463000,-1.818522
0.463100,-1.776651
0.463200,-1.799696
0.463300,-1.850331
0.463400,-1.843839
0.463500,-1.820469
0.463600,-1.842866
0.463700,-1.818522
0.463800,-1.922064
0.463900,-1.990551
0.464000,-1.951925
0.464100,-1.921739
0.464200,-1.739648
0.464300,-1.753930
0.464400,-1.683171
0.464500,-1.615009
0.464600,-1.566970
0.464700,-1.485500
0.464800,-1.455314
0.464900,-1.388450
0.465000,-1.370923
0.465100,-1.360211
0.465200,-1.374818
0.465300,-1.404355
0.465400,-1.437137
0.465500,-1.480956
0.465600,-1.528345
0.465700,-1.599104
0.465800,-1.666617
0.465900,-1.775352
0.466000,-1.813329
0.466100,-1.987954
0.466200,-2.292089
0.466300,-2.459249
0.466400,-2.387191
0.466500,-2.165826
0.466600,-2.128174
0.466700,-2.249893
0.466800,-2.579020
0.466900,-2.780262
0.467000,-2.735794
0.467100,-2.641665
0.467200,-2.493655
0.467300,-2.562142
0.467400,-2.669904
0.467500,-2.827976
0.467600,-2.846802
0.467700,-2.853294
0.467800,-2.823107
0.467900,-2.819861
0.468000,-2.868224
0.468100,-2.927299
0.468200,-2.912693
0.468300,-2.924702
0.468400,-2.904902
0.468500,-2.975337
0.468600,-3.011042
0.468700,-3.027920
0.468800,-2.978583
0.468900,-2.953915
0.469000,-2.929246
0.469100,-2.953266
0.469200,-2.910745
0.469300,-2.779613
0.469400,-2.621216
0.469500,-2.640042
0.469600,-2.777341
0.469700,-2.878287
0.469800,-2.927623
0.469900,-2.721188
0.470000,-2.508261
0.470100,-2.480347
0.470200,-2.610505
0.470300,-2.802009
0.470400,-2.876339
0.470500,-2.828625
0.470600,-2.706906
0.470700,-2.641016
0.470800,-2.679641
0.470900,-2.727030
0.471000,-2.751699
0.471100,-2.760463
0.471200,-2.755918
0.471300,-2.719565
0.471400,-2.686458
0.471500,-2.578371
0.471600,-2.492032
0.471700,-2.463469
0.471800,-2.490409
0.471900,-2.499173
0.472000,-2.511832
0.472100,-2.456003
0.472200,-2.315459
0.472300,-2.336881
0.472400,-2.142456
0.472500,-2.184652
0.472600,-2.173940
0.472700,-2.139534
0.472800,-2.089873
0.472900,-2.036317
0.473000,-1.906808
0.473100,-1.865262
0.473200,-1.856174
0.473300,-1.876947
0.473400,-1.841243
0.473500,-1.877921
0.473600,-1.840594
0.473700,-1.819171
0.473800,-1.783467
0.473900,-1.772756
0.474000,-1.734455
0.474100,-1.789959
0.474200,-1.741596
0.474300,-1.811706
0.474400,-1.582550
0.474500,-1.521853
0.474600,-1.189157
0.474700,-1.370923
0.474800,-1.600727
0.474900,-1.844164
0.475000,-1.743543
0.475100,-1.467648
0.475200,-1.322235
0.475300,-1.292698
0.475400,-1.508546
0.475500,-1.567620
0.475600,-1.610140
0.475700,-1.450770
0.475800,-1.295295
0.475900,-1.218369
0.476000,-1.190779
0.476100,-1.190455
0.476200,-1.189481
0.476300,-1.198569
0.476400,-1.145987
0.476500,-1.112231
0.476600,-1.117099
0.476700,-1.095677
0.476800,-1.037901
0.476900,-1.008689
0.477000,-1.184612
0.477100,-1.081395
0.477200,-1.128135
0.477300,-1.068087
0.477400,-1.019400
0.477500,-0.977854
0.477600,-1.084316
0.477700,-1.293347
0.477800,-1.397214
0.477900,-1.308278
0.478000,-1.144689
0.478100,-0.952212
0.478200,-1.100870
0.478300,-1.305357
0.478400,-1.458560
0.478500,-1.408574
0.478600,-1.284908
0.478700,-1.200192
0.478800,-1.283285
0.478900,-1.417987
0.479000,-1.435190
0.479100,-1.419935
0.479200,-1.469271
0.479300,-1.435839
0.479400,-1.514713
0.479500,-1.524450
0.479600,-1.562751
0.479700,-1.533214
0.479800,-1.552040
0.479900,-1.571515
0.480000,-1.550417
0.480100,-1.531915
0.480200,-1.507896
0.480300,-1.521529
0.480400,-1.571190
0.480500,-1.721796
0.480600,-1.794827
0.480700,-1.822092
0.480800,-1.770808
0.480900,-1.802617
0.481000,-1.888307
0.481100,-1.921415
0.481200,-1.941539
0.481300,-1.978866
0.481400,-1.982436
0.481500,-1.975945
0.481600,-2.011973
0.481700,-2.000938
0.481800,-2.027229
0.481900,-2.000938
0.482000,-2.037291
0.482100,-2.058389
0.482200,-2.096040
0.482300,-2.149597
0.482400,-2.204127
0.482500,-2.251840
0.482600,-2.289492
0.482700,-2.394657
0.482800,-2.557922
0.482900,-2.910745
0.483000,-2.946125
0.483100,-2.790000
0.483200,-2.588758
0.483300,-2.589407
0.483400,-2.821160
0.483500,-3.063949
0.483600,-3.184370
0.483700,-3.044798
0.483800,-2.892244
0.483900,-2.811098
0.484000,-2.915614
0.484100,-3.077581
0.484200,-3.196379
0.484300,-3.113935
0.484400,-3.075958
0.484500,-3.039930
0.484600,-3.134708
0.484700,-3.178852
0.484800,-3.206441
0.484900,-3.198976
0.485000,-3.194432
0.485100,-3.217802
0.485200,-3.268112
0.485300,-3.332056
0.485400,-3.292781
0.485500,-3.227864
0.485600,-3.232733
0.485700,-3.256752
0.485800,-3.254155
0.485900,-3.165544
0.486000,-2.965275
0.486100,-2.912043
0.486200,-2.991566
0.486300,-3.159701
0.486400,-3.296351
0.486500,-3.192160
0.486600,-2.978908
0.486700,-2.853294
0.486800,-2.913666
0.486900,-3.066870
0.487000,-3.187940
0.487100,-3.207740
0.487200,-3.067519
0.487300,-2.973065
0.487400,-2.949695
0.487500,-2.997084
0.487600,-3.002927
0.487700,-2.975662
0.487800,-2.928597
0.487900,-2.895814
0.488000,-2.839986
0.488100,-2.770849
0.488200,-2.611803
0.488300,-2.481645
0.488400,-2.403745
0.488500,-2.376480
0.488600,-2.351812
0.488700,-2.374857
0.488800,-2.248919
0.488900,-2.125253
0.489000,-2.078188
0.489100,-1.891228
0.489200,-1.929529
0.489300,-1.886684
0.489400,-1.807811
0.489500,-1.710760
0.489600,-1.621500
0.489700,-1.512765
0.489800,-1.523801
0.489900,-1.513739
0.490000,-1.544574
0.490100,-1.491343
0.490200,-1.521529
0.490300,-1.461806
0.490400,-1.456937
0.490500,-1.370923
0.490600,-1.380985
0.490700,-1.382283
0.490800,-1.374493
0.490900,-1.409223
0.491000,-1.319639
0.491100,-1.199543
0.491200,-0.840231
0.491300,-0.722407
0.491400,-0.801930
0.491500,-1.085615
0.491600,-1.159295
0.491700,-0.971686
0.491800,-0.783753
0.491900,-0.587381
0.492000,-0.688326
0.492100,-0.774341
0.492200,-0.842827
0.492300,-0.789921
0.492400,-0.615945
0.492500,-0.528957
0.492600,-0.453654
0.492700,-0.524737
0.492800,-0.587381
0.492900,-0.551028
0.493000,-0.524737
0.493100,-0.503315
0.493200,-0.512728
0.493300,-0.551028
0.493400,-0.603935
0.493500,-0.576670
0.493600,-0.697090
0.493700,-0.714942
0.493800,-0.813290
0.493900,-0.791543
0.494000,-0.844450
0.494100,-0.718837
0.494200,-0.752269
0.494300,-0.887620
0.494400,-1.116775
0.494500,-1.116450
0.494600,-1.029787
0.494700,-0.754541
0.494800,-0.815238
0.494900,-0.957405
0.495000,-1.198569
0.495100,-1.246608
0.495200,-1.172603
0.495300,-1.009338
0.495400,-0.969739
0.495500,-1.056727
0.495600,-1.187858
0.495700,-1.249529
0.495800,-1.255047
0.495900,-1.248230
0.496000,-1.237844
0.496100,-1.305357
0.496200,-1.370273
0.496300,-1.421233
0.496400,-1.378388
0.496500,-1.373195
0.496600,-1.453042
0.496700,-1.471543
0.496800,-1.469596
0.496900,-1.451419
0.497000,-1.449472
0.497100,-1.529968
0.497200,-1.659476
0.497300,-1.691286
0.497400,-1.703295
0.497500,-1.573137
0.497600,-1.629615
0.497700,-1.666293
0.497800,-1.671161
0.497900,-1.675381
0.498000,-1.670512
0.498100,-1.682522
0.498200,-1.707190
0.498300,-1.722121
0.498400,-1.721147
0.498500,-1.701997
0.498600,-1.723419
0.498700,-1.699400
0.498800,-1.699400
0.498900,-1.667916
0.499000,-1.631562
0.499100,-1.588393
0.499200,-1.612087
0.499300,-1.629615
0.499400,-1.615009
0.499500,-1.846761
0.499600,-1.986007
0.499700,-1.986007
0.499800,-1.674732
0.499900,-1.612737
0.500000,-1.660775
0.500100,-1.922064
0.500200,-2.141482
0.500300,-2.195038
0.500400,-2.021711
0.500500,-1.930828
0.500600,-1.926283
0.500700,-2.078837
0.500800,-2.301177
0.500900,-2.412509
0.501000,-2.388165
0.501100,-2.401149
0.501200,-2.417702
0.501300,-2.505015
0.501400,-2.609856
0.501500,-2.682238
0.501600,-2.715995
0.501700,-2.765007
0.501800,-2.838363
0.501900,-2.931194
0.502000,-2.936387
0.502100,-2.944177
0.502200,-3.004874
0.502300,-3.089591
0.502400,-3.168789
0.502500,-3.251559
0.502600,-3.184045
0.502700,-3.072713
0.502800,-3.144770
0.502900,-3.319397
0.503000,-3.522587
0.503100,-3.658588
0.503200,-3.544983
0.503300,-3.412553
0.503400,-3.376199
0.503500,-3.515771
0.503600,-3.708574
0.503700,-3.860156
0.503800,-3.864700
0.503900,-3.762455
0.504000,-3.669948
0.504100,-3.695266
0.504200,-3.748174
0.504300,-3.800107
0.504400,-3.821530
0.504500,-3.824127
0.504600,-3.817959
0.504700,-3.785176
0.504800,-3.723180
0.504900,-3.631323
0.505000,-3.557967
0.505100,-3.522587
0.505200,-3.524534
0.505300,-3.533298
0.505400,-3.540764
0.505500,-3.373602
0.505600,-3.342442
0.505700,-3.162298
0.505800,-3.163272
0.505900,-3.134708
0.506000,-3.124646
0.506100,-3.039930
0.506200,-2.975337
0.506300,-2.854267
0.506400,-2.821484
0.506500,-2.760138
0.506600,-2.790649
0.506700,-2.761761
0.506800,-2.754945
0.506900,-2.707555
0.507000,-2.619593
0.507100,-2.526438
0.507200,-2.438800
0.507300,-2.389464
0.507400,-2.398876
0.507500,-2.400499
0.507600,-2.378103
0.507700,-2.245024
0.507800,-2.031773
0.507900,-1.718226
0.508000,-1.636431
0.508100,-1.920116
0.508200,-2.049300
0.508300,-2.033071
0.508400,-1.808784
0.508500,-1.639028
0.508600,-1.515037
0.508700,-1.707190
0.508800,-1.796450
0.508900,-1.821119
0.509000,-1.697128
0.509100,-1.551715
0.509200,-1.496536
0.509300,-1.557557
0.509400,-1.464402
0.509500,-1.464727
0.509600,-1.405977
0.509700,-1.330999
0.509800,-1.263161
0.509900,-1.210579
0.510000,-1.172603
0.510100,-1.099572
0.510200,-1.073605
0.510300,-1.109634
0.510400,-1.118398
0.510500,-1.051209
0.510600,-0.992135
0.510700,-0.922675
0.510800,-0.843477
0.510900,-0.902226
0.511000,-1.005443
0.511100,-1.190779
0.511200,-1.086913
0.511300,-0.958379
0.511400,-0.768174
0.511500,-0.863925
0.511600,-1.043744
0.511700,-1.213176
0.511800,-1.182340
0.511900,-1.081720
0.512000,-0.948966
0.512100,-0.965195
0.512200,-1.096651
0.512300,-1.179419
0.512400,-1.148259
0.512500,-1.174226
0.512600,-1.129758
0.512700,-1.209930
0.512800,-1.247581
0.512900,-1.299514
0.513000,-1.294646
0.513100,-1.263486
0.513200,-1.297567
0.513300,-1.328402
0.513400,-1.304708
0.513500,-1.258293
0.513600,-1.218044
0.513700,-1.197596
0.513800,-1.295619
0.513900,-1.369624
0.514000,-1.354369
0.514100,-1.266732
0.514200,-1.215448
0.514300,-1.270627
0.514400,-1.254073
0.514500,-1.249529
0.514600,-1.272899
0.514700,-1.243037
0.514800,-1.223887
0.514900,-1.224211
0.515000,-1.229729
0.515100,-1.218044
0.515200,-1.223887
0.515300,-1.249853
0.515400,-1.256670
0.515500,-1.243362
0.515600,-1.245958
0.515700,-1.234273
0.515800,-1.309901
0.515900,-1.337166
0.516000,-1.399810
0.516100,-1.554312
0.516200,-1.834102
0.516300,-1.970751
0.516400,-1.811381
0.516500,-1.661099
0.516600,-1.548145
0.516700,-1.770808
0.516800,-2.023983
0.516900,-2.207048
0.517000,-2.164527
0.517100,-2.004508
0.517200,-1.927257
0.517300,-2.084355
0.517400,-2.287869
0.517500,-2.440423
0.517600,-2.460223
0.517700,-2.431984
0.517800,-2.472557
0.517900,-2.512481
0.518000,-2.594600
0.518100,-2.653675
0.518200,-2.689703
0.518300,-2.727030
0.518400,-2.750076
0.518500,-2.806878
0.518600,-2.865303
0.518700,-2.824730
0.518800,-2.867575
0.518900,-2.880234
0.519000,-2.963328
0.519100,-3.004225
0.519200,-3.022402
0.519300,-2.907824
0.519400,-2.791623
0.519500,-2.915614
0.519600,-3.095433
0.519700,-3.281096
0.519800,-3.292132
0.519900,-3.112961
0.520000,-3.020454
0.520100,-3.022077
0.520200,-3.212933
0.520300,-3.445336
0.520400,-3.517069
0.520500,-3.461240
0.520600,-3.366786
0.520700,-3.386910
0.520800,-3.457345
0.520900,-3.523885
0.521000,-3.577442
0.521100,-3.572898
0.521200,-3.575170
0.521300,-3.586205
0.521400,-3.591074
0.521500,-3.557967
0.521600,-3.452801
0.521700,-3.426510
0.521800,-3.458319
0.521900,-3.452801
0.522000,-3.506682
0.522100,-3.416123
0.522200,-3.275253
0.522300,-3.255454
0.522400,-3.029218
0.522500,-3.107768
0.522600,-3.029543
0.522700,-2.934764
0.522800,-2.839986
0.522900,-2.733847
0.523000,-2.604987
0.523100,-2.552729
0.523200,-2.484242
0.523300,-2.516376
0.523400,-2.393683
0.523500,-2.434905
0.523600,-2.273263
0.523700,-2.236260
0.523800,-2.166475
0.523900,-2.095391
0.524000,-2.102857
0.524100,-2.072995
0.524200,-2.041186
0.524300,-1.973023
0.524400,-1.840269
0.524500,-1.591639
0.524600,-1.318016
0.524700,-1.462779
0.524800,-1.701023
0.524900,-1.800021
0.525000,-1.519581
0.525100,-1.271276
0.525200,-1.031410
0.525300,-0.961624
0.525400,-1.174226
0.525500,-1.242713
0.525600,-1.209281
0.525700,-0.950589
0.525800,-0.828221
0.525900,-0.746427
0.526000,-0.733443
0.526100,-0.748374
0.526200,-0.786675
0.526300,-0.697090
0.526400,-0.648403
0.526500,-0.641587
0.526600,-0.588355
0.526700,-0.576995
0.526800,-0.576021
0.526900,-0.549730
0.527000,-0.629252
0.527100,-0.627305
0.527200,-0.677291
0.527300,-0.597443
0.527400,-0.591276
0.527500,-0.528308
0.527600,-0.641911
0.527700,-0.814264
0.527800,-0.907419
0.527900,-0.798684
0.528000,-0.632498
0.528100,-0.460145
0.528200,-0.634446
0.528300,-0.839582
0.528400,-0.965195
0.528500,-0.898331
0.528600,-0.773042
0.528700,-0.695467
0.528800,-0.809395
0.528900,-0.948641
0.529000,-1.017128
0.529100,-0.987266
0.529200,-1.036278
0.529300,-1.047963
0.529400,-1.148908
0.529500,-1.217395
0.529600,-1.299514
0.529700,-1.291400
0.529800,-1.336192
0.529900,-1.395591
0.530000,-1.462455
0.530100,-1.461481
0.530200,-1.447849
0.530300,-1.464727
0.530400,-1.513414
0.530500,-1.677004
0.530600,-1.707515
0.530700,-1.703620
0.530800,-1.601701
0.530900,-1.638703
0.531000,-1.704269
0.531100,-1.710760
0.531200,-1.722770
0.531300,-1.727963
0.531400,-1.747763
0.531500,-1.776975
0.531600,-1.787037
0.531700,-1.797749
0.531800,-1.804565
0.531900,-1.810083
0.532000,-1.824040
0.532100,-1.823066
0.532200,-1.806188
0.532300,-1.817548
0.532400,-1.848708
0.532500,-1.860718
0.532600,-1.937968
0.532700,-1.955496
0.532800,-2.177835
0.532900,-2.419001
0.533000,-2.404070
0.533100,-2.155764
0.533200,-1.927582
0.533300,-2.045081
0.533400,-2.247945
0.533500,-2.532605
0.533600,-2.618295
0.533700,-2.476452
0.533800,-2.328442
0.533900,-2.286571
0.534000,-2.449511
0.534100,-2.632901
0.534200,-2.728978
0.534300,-2.716319
0.534400,-2.708529
0.534500,-2.683861
0.534600,-2.759813
0.534700,-2.839986
0.534800,-2.881532
0.534900,-2.893217
0.535000,-2.901981
0.535100,-2.933790
0.535200,-2.975662
0.535300,-3.023051
0.535400,-3.054211
0.535500,-3.006822
0.535600,-3.071414
0.535700,-3.104522
0.535800,-3.184045
0.535900,-3.132111
0.536000,-3.028244
0.536100,-3.012989
0.536200,-3.139577
0.536300,-3.371330
0.536400,-3.506358
0.536500,-3.433326
0.536600,-3.240198
0.536700,-3.156780
0.536800,-3.245716
0.536900,-3.423264
0.537000,-3.584907
0.537100,-3.570950
0.537200,-3.470004
0.537300,-3.391779
0.537400,-3.393077
0.537500,-3.440467
0.537600,-3.433326
0.537700,-3.387560
0.537800,-3.372629
0.537900,-3.364189
0.538000,-3.306738
0.538100,-3.218451
0.538200,-3.082450
0.538300,-2.965275
0.538400,-2.893542
0.538500,-2.885427
0.538600,-2.864329
0.538700,-2.828301
0.538800,-2.690028
0.538900,-2.601741
0.539000,-2.520595
0.539100,-2.442371
0.539200,-2.441072
0.539300,-2.416729
0.539400,-2.345645
0.539500,-2.265473
0.539600,-2.157387
0.539700,-2.076890
0.539800,-2.042160
0.539900,-2.011973
0.540000,-2.016193
0.540100,-1.954522
0.540200,-1.955171
0.540300,-1.904861
0.540400,-1.860718
0.540500,-1.815276
0.540600,-1.753930
0.540700,-1.787687
0.540800,-1.808784
0.540900,-1.779572
0.541000,-1.644546
0.541100,-1.518283
0.541200,-1.188832
0.541300,-1.092756
0.541400,-1.273223
0.541500,-1.648765
0.541600,-1.497185
0.541700,-1.367352
0.541800,-1.020698
0.541900,-0.981424
0.542000,-1.070035
0.542100,-1.261538
0.542200,-1.312822
0.542300,-1.213825
0.542400,-1.070684
0.542500,-0.887944
0.542600,-0.885997
0.542700,-0.895734
0.542800,-0.990188
0.542900,-0.935658
0.543000,-0.933386
0.543100,-0.861978
0.543200,-0.829844
0.543300,-0.838283
0.543400,-0.797061
0.543500,-0.773042
0.543600,-0.866522
0.543700,-0.926245
0.543800,-0.948966
0.543900,-0.998951
0.544000,-0.925271
0.544100,-0.899954
0.544200,-0.863925
0.544300,-1.109634
0.544400,-1.288803
0.544500,-1.250178
0.544600,-1.140469
0.544700,-0.856460
0.544800,-0.940527
0.544900,-1.065815
0.545000,-1.328402
0.545100,-1.315744
0.545200,-1.155075
0.545300,-0.986293
0.545400,-0.967467
0.545500,-1.091782
0.545600,-1.190455
0.545700,-1.187209
0.545800,-1.176822
0.545900,-1.130732
0.546000,-1.174226
0.546100,-1.252775
0.546200,-1.295944
0.546300,-1.372546
0.546400,-1.354369
0.546500,-1.417662
0.546600,-1.481605
0.546700,-1.531266
0.546800,-1.531915
0.546900,-1.537109
0.547000,-1.550092
0.547100,-1.660450
0.547200,-1.769835
0.547300,-1.805214
0.547400,-1.795152
0.547500,-1.712059
0.547600,-1.783792
0.547700,-1.814952
0.547800,-1.831830
0.547900,-1.879868
0.548000,-1.911353
0.548100,-1.944460
0.548200,-1.980164
0.548300,-2.054169
0.548400,-2.090847
0.548500,-2.149272
0.548600,-2.191792
0.548700,-2.237559
0.548800,-2.275859
0.548900,-2.328766
0.549000,-2.345320
0.549100,-2.392385
0.549200,-2.457626
0.549300,-2.533254
0.549400,-2.648806
0.549500,-2.912368
0.549600,-3.149639
0.549700,-3.016884
0.549800,-2.801685
0.549900,-2.654973
0.550000,-2.857189
0.550100,-3.096083
0.550200,-3.387560
0.550300,-3.430080
0.550400,-3.320695
0.550500,-3.207415
0.550600,-3.238575
0.550700,-3.405736
0.550800,-3.603409
0.550900,-3.665404
0.551000,-3.627428
0.551100,-3.571275
0.551200,-3.572573
0.551300,-3.626779
0.551400,-3.671896
0.551500,-3.672870
0.551600,-3.622559
0.551700,-3.562511
0.551800,-3.626779
0.551900,-3.627752
0.552000,-3.615743
0.552100,-3.546931
0.552200,-3.483637
0.552300,-3.467732
0.552400,-3.456696
0.552500,-3.425536
0.552600,-3.243444
0.552700,-3.014287
0.552800,-3.044798
0.552900,-3.147367
0.553000,-3.286938
0.553100,-3.318748
0.553200,-3.106469
0.553300,-2.883155
0.553400,-2.810449
0.553500,-2.901332
0.553600,-3.075309
0.553700,-3.146718
0.553800,-3.032789
0.553900,-2.817914
0.554000,-2.692625
0.554100,-2.650753
0.554200,-2.669904
0.554300,-2.674123
0.554400,-2.600767
0.554500,-2.542342
0.554600,-2.454056
0.554700,-2.361549
0.554800,-2.255735
0.554900,-2.115515
0.555000,-1.988603
0.555100,-1.918169
0.555200,-1.854226
0.555300,-1.824040
0.555400,-1.763018
0.555500,-1.582226
0.555600,-1.494913
0.555700,-1.245634
0.555800,-1.291725
0.555900,-1.267381
0.556000,-1.221615
0.556100,-1.115152
0.556200,-0.998951
0.556300,-0.882102
0.556400,-0.839582
0.556500,-0.795114
0.556600,-0.856784
0.556700,-0.775314
0.556800,-0.802904
0.556900,-0.747725
0.557000,-0.685730
0.557100,-0.692221
0.557200,-0.650999
0.557300,-0.760059
0.557400,-0.705205
0.557500,-0.803553
0.557600,-0.768823
0.557700,-0.682484
0.557800,-0.598742
0.557900,-0.335506
0.558000,-0.511429
0.558100,-0.725004
0.558200,-1.164813
0.558300,-0.939553
0.558400,-0.888269
0.558500,-0.687028
0.558600,-0.697415
0.558700,-0.942474
0.558800,-1.203763
0.558900,-1.346903
0.559000,-1.258293
0.559100,-1.119047
0.559200,-1.089510
0.559300,-1.134951
0.559400,-1.305682
0.559500,-1.320937
0.559600,-1.465051
0.559700,-1.406627
0.559800,-1.449472
0.559900,-1.463104
0.560000,-1.541328
0.560100,-1.532565
0.560200,-1.552689
0.560300,-1.684794
0.560400,-1.665319
0.560500,-1.729911
0.560600,-1.655257
0.560700,-1.620202
0.560800,-1.592612
0.560900,-1.562751
0.561000,-1.811381
0.561100,-1.843190
0.561200,-1.822417
0.561300,-1.631562
0.561400,-1.496536
0.561500,-1.569567
0.561600,-1.806512
0.561700,-1.955820
0.561800,-1.946408
0.561900,-1.798722
0.562000,-1.651686
0.562100,-1.684794
0.562200,-1.812030
0.562300,-1.935372
0.562400,-1.925959
0.562500,-1.970102
0.562600,-1.899992
0.562700,-1.965233
0.562800,-2.000938
0.562900,-2.080785
0.563000,-2.107401
0.563100,-2.111296
0.563200,-2.127849
0.563300,-2.196337
0.563400,-2.185950
0.563500,-2.171993
0.563600,-2.171019
0.563700,-2.183029
0.563800,-2.316108
0.563900,-2.381024
0.564000,-2.404719
0.564100,-2.271964
0.564200,-2.293711
0.564300,-2.355058
0.564400,-2.372261
0.564500,-2.398227
0.564600,-2.416079
0.564700,-2.408614
0.564800,-2.436853
0.564900,-2.443994
0.565000,-2.452757
0.565100,-2.462170
0.565200,-2.424194
0.565300,-2.453406
0.565400,-2.409912
0.565500,-2.422571
0.565600,-2.359602
0.565700,-2.370962
0.565800,-2.370638
0.565900,-2.344671
0.566000,-2.409588
0.566100,-2.556624
0.566200,-2.828301
0.566300,-2.901981
0.566400,-2.693923
0.566500,-2.495278
0.566600,-2.394008
0.566700,-2.576748
0.566800,-2.829599
0.566900,-2.914315
0.567000,-2.858487
0.567100,-2.642639
0.567200,-2.543965
0.567300,-2.592328
0.567400,-2.754620
0.567500,-2.827327
0.567600,-2.847776
0.567700,-2.777016
0.567800,-2.759489
0.567900,-2.785456
0.568000,-2.810124
0.568100,-2.814993
0.568200,-2.810124
0.568300,-2.821809
0.568400,-2.822783
0.568500,-2.888349
0.568600,-2.913342
0.568700,-2.873742
0.568800,-2.812071
0.568900,-2.784482
0.569000,-2.856215
0.569100,-2.862057
0.569200,-2.798764
0.569300,-2.615374
0.569400,-2.535851
0.569500,-2.611803
0.569600,-2.752348
0.569700,-2.885427
0.569800,-2.836415
0.569900,-2.617321
0.570000,-2.462170
0.570100,-2.454056
0.570200,-2.552404
0.570300,-2.701388
0.570400,-2.719565
0.570500,-2.625436
0.570600,-2.493979
0.570700,-2.458924
0.570800,-2.452757
0.570900,-2.469311
0.571000,-2.478724
0.571100,-2.481645
0.571200,-2.454056
0.571300,-2.387191
0.571400,-2.358953
0.571500,-2.285597
0.571600,-2.178809
0.571700,-2.105129
0.571800,-2.128823
0.571900,-2.134017
0.572000,-2.171019
0.572100,-2.088575
0.572200,-1.985682
0.572300,-1.983085
0.572400,-1.813329
0.572500,-1.877596
0.572600,-1.865262
0.572700,-1.828909
0.572800,-1.759448
0.572900,-1.663047
0.573000,-1.590340
0.573100,-1.557557
0.573200,-1.576383
0.573300,-1.565997
0.573400,-1.553013
0.573500,-1.583524
0.573600,-1.551390
0.573700,-1.518932
0.573800,-1.454340
0.573900,-1.449796
0.574000,-1.435514
0.574100,-1.418312
0.574200,-1.459534
0.574300,-1.334894
0.574400,-1.308927
0.574500,-0.949939
0.574600,-0.890866
0.574700,-0.892164
0.574800,-1.284908
0.574900,-1.283935
0.575000,-1.072631
0.575100,-0.828870
0.575200,-0.646780
0.575300,-0.682484
0.575400,-0.867496
0.575500,-1.008040
0.575600,-0.989863
0.575700,-0.807773
0.575800,-0.716565
0.575900,-0.627954
0.576000,-0.729873
0.576100,-0.691248
0.576200,-0.769472
0.576300,-0.711372
0.576400,-0.746102
0.576500,-0.757462
0.576600,-0.798360
0.576700,-0.801930
0.576800,-0.799983
0.576900,-0.874312
0.577000,-0.982722
0.577100,-1.010312
0.577200,-1.085615
0.577300,-1.036603
0.577400,-0.986617
0.577500,-1.001548
0.577600,-1.075553
0.577700,-1.436488
0.577800,-1.409223
0.577900,-1.439409
0.578000,-1.196297
0.578100,-1.211228
0.578200,-1.381309
0.578300,-1.629290
0.578400,-1.723419
0.578500,-1.644546
0.578600,-1.511467
0.578700,-1.457586
0.578800,-1.546846
0.578900,-1.696154
0.579000,-1.726340
0.579100,-1.708813
0.579200,-1.680574
0.579300,-1.682846
0.579400,-1.742894
0.579500,-1.796126
0.579600,-1.837023
0.579700,-1.812030
0.579800,-1.805539
0.579900,-1.863964
0.580000,-1.899668
0.580100,-1.884088
0.580200,-1.808784
0.580300,-1.808784
0.580400,-1.862665
0.580500,-1.993472
0.580600,-2.008727
0.580700,-1.976594
0.580800,-1.827935
0.580900,-1.859095
0.581000,-1.897720
0.581100,-1.888956
0.581200,-1.882140
0.581300,-1.858121
0.581400,-1.842216
0.581500,-1.843190
0.581600,-1.844489
0.581700,-1.830532
0.581800,-1.816899
0.581900,-1.808135
0.582000,-1.788660
0.582100,-1.788011
0.582200,-1.759772
0.582300,-1.788011
0.582400,-1.758799
0.582500,-1.819496
0.582600,-1.812679
0.582700,-1.813978
0.582800,-2.022035
0.582900,-2.206399
0.583000,-2.184652
0.583100,-1.981138
0.583200,-1.808784
0.583300,-1.868508
0.583400,-2.058713
0.583500,-2.304747
0.583600,-2.349540
0.583700,-2.221979
0.583800,-2.117138
0.583900,-2.140184
0.584000,-2.327144
0.584100,-2.500796
0.584200,-2.564414
0.584300,-2.521894
0.584400,-2.526113
0.584500,-2.546887
0.584600,-2.614075
0.584700,-2.671527
0.584800,-2.690028
0.584900,-2.703011
0.585000,-2.704634
0.585100,-2.746506
0.585200,-2.839012
0.585300,-2.869523
0.585400,-2.854917
0.585500,-2.827002
0.585600,-2.847776
0.585700,-2.906525
0.585800,-2.951967
0.585900,-2.852644
0.586000,-2.744233
0.586100,-2.706582
0.586200,-2.851671
0.586300,-3.030517
0.586400,-3.153534
0.586500,-3.015261
0.586600,-2.789675
0.586700,-2.677045
0.586800,-2.761761
0.586900,-2.958459
0.587000,-3.122698
0.587100,-3.089591
0.587200,-2.951643
0.587300,-2.865952
0.587400,-2.887700
0.587500,-2.948072
0.587600,-2.992216
0.587700,-2.969170
0.587800,-2.943203
0.587900,-2.940607
0.588000,-2.913342
0.588100,-2.844205
0.588200,-2.719565
0.588300,-2.604987
0.588400,-2.536500
0.588500,-2.503717
0.588600,-2.479698
0.588700,-2.446266
0.588800,-2.230418
0.588900,-2.125902
0.589000,-1.911353
0.589100,-1.866885
0.589200,-1.843515
0.589300,-1.787362
0.589400,-1.652011
0.589500,-1.522503
0.589600,-1.350149
0.589700,-1.208631
0.589800,-1.148259
0.589900,-1.111581
0.590000,-1.015505
0.590100,-0.969414
0.590200,-0.882102
0.590300,-0.819133
0.590400,-0.724680
0.590500,-0.683133
0.590600,-0.613673
0.590700,-0.621138
0.590800,-0.532202
0.590900,-0.616269
0.591000,-0.456575
0.591100,-0.441644
0.591200,-0.030724
0.591300,-0.168671
0.591400,-0.262150
0.591500,-0.659763
0.591600,-0.550379
0.591700,-0.346866
0.591800,-0.193664
0.591900,-0.131344
0.592000,-0.255010
0.592100,-0.454952
0.592200,-0.518570
0.592300,-0.418599
0.592400,-0.327716
0.592500,-0.263124
0.592600,-0.306943
0.592700,-0.440021
0.592800,-0.459496
0.592900,-0.497797
0.593000,-0.523439
0.593100,-0.503315
0.593200,-0.548756
0.593300,-0.575372
0.593400,-0.589978
0.593500,-0.575372
0.593600,-0.685730
0.593700,-0.678589
0.593800,-0.752269
0.593900,-0.783753
0.594000,-0.768823
0.594100,-0.709424
0.594200,-0.785701
0.594300,-0.901252
0.594400,-1.158970
0.594500,-1.109634
0.594600,-0.988889
0.594700,-0.832441
0.594800,-0.909691
0.594900,-1.164813
0.595000,-1.394942
0.595100,-1.448498
0.595200,-1.382283
0.595300,-1.256020
0.595400,-1.287505
0.595500,-1.458560
0.595600,-1.579629
0.595700,-1.632211
0.595800,-1.702646
0.595900,-1.680250
0.596000,-1.766264
0.596100,-1.855524
0.596200,-1.952250
0.596300,-2.016517
0.596400,-2.013272
0.596500,-2.009377
0.596600,-2.003534
0.596700,-2.022685
0.596800,-2.044107
0.596900,-2.047677
0.597000,-2.076565
0.597100,-2.166150
0.597200,-2.278781
0.597300,-2.279754
0.597400,-2.308642
0.597500,-2.351812
0.597600,-2.296308
0.597700,-2.324547
0.597800,-2.303124
0.597900,-2.297606
0.598000,-2.296308
0.598100,-2.276509
0.598200,-2.248919
0.598300,-2.246647
0.598400,-2.190169
0.598500,-2.171344
0.598600,-2.161282
0.598700,-2.143754
0.598800,-2.145377
0.598900,-2.122656
0.599000,-2.158036
0.599100,-2.158360
0.599200,-2.174914
0.599300,-2.194389
0.599400,-2.325196
0.599500,-2.644911
0.599600,-2.745856
0.599700,-2.653999
0.599800,-2.409588
0.599900,-2.357979
0.600000,-2.440099
0.600100,-2.769226
0.600200,-2.938659
0.600300,-2.917237
0.600400,-2.765656
0.600500,-2.606610
0.600600,-2.672825
0.600700,-2.806229
0.600800,-2.972416
0.600900,-2.947748
0.601000,-2.924053
0.601100,-2.839012
0.601200,-2.849723
0.601300,-2.837064
0.601400,-2.843556
0.601500,-2.797465
0.601600,-2.753646
0.601700,-2.738391
0.601800,-2.754620
0.601900,-2.801685
0.602000,-2.753322
0.602100,-2.703011
0.602200,-2.669904
0.602300,-2.692949
0.602400,-2.734821
0.602500,-2.725083
0.602600,-2.610830
0.602700,-2.497550
0.602800,-2.531631
0.602900,-2.671527
0.603000,-2.848749
0.603100,-2.851346
0.603200,-2.678668
0.603300,-2.522867
0.603400,-2.509884
0.603500,-2.661465
0.603600,-2.864329
0.603700,-2.955538
0.603800,-2.873418
0.603900,-2.758840
0.604000,-2.738391
0.604100,-2.773121
0.604200,-2.824406
0.604300,-2.839012
0.604400,-2.808501
0.604500,-2.813370
0.604600,-2.781561
0.604700,-2.767928
0.604800,-2.710801
0.604900,-2.595899
0.605000,-2.542992
0.605100,-2.510533
0.605200,-2.503392
0.605300,-2.498524
0.605400,-2.440099
0.605500,-2.309941
0.605600,-2.252814
0.605700,-2.054818
0.605800,-2.105778
0.605900,-2.085005
0.606000,-2.048651
0.606100,-1.964584
0.606200,-1.924011
0.606300,-1.815276
0.606400,-1.781195
0.606500,-1.793854
0.606600,-1.804565
0.606700,-1.789634
0.606800,-1.792880
0.606900,-1.802617
0.607000,-1.760422
0.607100,-1.713357
0.607200,-1.670512
0.607300,-1.689987
0.607400,-1.598130
0.607500,-1.693233
0.607600,-1.516985
0.607700,-1.457586
0.607800,-1.173901
0.607900,-0.944746
0.608000,-0.939228
0.608100,-1.271925
0.608200,-1.459858
0.608300,-1.180717
0.608400,-1.086589
0.608500,-0.797386
0.608600,-0.865548
0.608700,-0.989863
0.608800,-1.179094
0.608900,-1.217720
0.609000,-1.097300
0.609100,-1.004469
0.609200,-0.904823
0.609300,-1.027190
0.609400,-0.987916
0.609500,-1.066464
0.609600,-1.040822
0.609700,-1.009987
0.609800,-1.044393
0.609900,-1.009338
0.610000,-1.021997
0.610100,-0.948641
0.610200,-1.042445
0.610300,-1.020374
0.610400,-1.107362
0.610500,-1.069710
0.610600,-1.122293
0.610700,-0.974932
0.610800,-0.969090
0.610900,-0.973309
0.611000,-1.300488
0.611100,-1.423505
0.611200,-1.363457
0.611300,-1.172278
0.611400,-1.064192
0.611500,-1.236870
0.611600,-1.485500
0.611700,-1.652011
0.611800,-1.583849
0.611900,-1.424803
0.612000,-1.322235
0.612100,-1.386503
0.612200,-1.529319
0.612300,-1.610789
0.612400,-1.586121
0.612500,-1.598779
0.612600,-1.527696
0.612700,-1.600402
0.612800,-1.654283
0.612900,-1.686741
0.613000,-1.692259
0.613100,-1.641949
0.613200,-1.699400
0.613300,-1.743219
0.613400,-1.728288
0.613500,-1.692584
0.613600,-1.679601
0.613700,-1.674407
0.613800,-1.764641
0.613900,-1.843839
0.614000,-1.872403
0.614100,-1.833453
0.614200,-1.801968
0.614300,-1.836374
0.614400,-1.813004
0.614500,-1.814627
0.614600,-1.757825
0.614700,-1.773080
0.614800,-1.756202
0.614900,-1.781195
0.615000,-1.782818
0.615100,-1.784441
0.615200,-1.801319
0.615300,-1.816250
0.615400,-1.837672
0.615500,-1.885711
0.615600,-1.898694
0.615700,-1.922713
0.615800,-1.976594
0.615900,-2.042809
0.616000,-2.083706
0.616100,-2.262551
0.616200,-2.598820
0.616300,-2.627708
0.616400,-2.476776
0.616500,-2.300528
0.616600,-2.365444
0.616700,-2.532280
0.616800,-2.879260
0.616900,-2.938335
0.617000,-2.915614
0.617100,-2.752997
0.617200,-2.758840
0.617300,-2.859461
0.617400,-3.056159
0.617500,-3.177553
0.617600,-3.118803
0.617700,-3.054211
0.617800,-2.957161
0.617900,-2.998383
0.618000,-3.045447
0.618100,-3.042851
0.618200,-3.049992
0.618300,-2.985724
0.618400,-2.964301
0.618500,-2.964951
0.618600,-2.956511
0.618700,-2.976636
0.618800,-2.898086
0.618900,-2.893867
0.619000,-2.883155
0.619100,-2.849074
0.619200,-2.766630
0.619300,-2.568958
0.619400,-2.470609
0.619500,-2.548834
0.619600,-2.700415
0.619700,-2.845504
0.619800,-2.770525
0.619900,-2.562791
0.620000,-2.454056
0.620100,-2.496901
0.620200,-2.678668
0.620300,-2.856864
0.620400,-2.883805
0.620500,-2.791298
0.620600,-2.660166
0.620700,-2.648806
0.620800,-2.679966
0.620900,-2.713073
0.621000,-2.733198
0.621100,-2.713073
0.621200,-2.714696
0.621300,-2.622515
0.621400,-2.579020
0.621500,-2.507612
0.621600,-2.387516
0.621700,-2.343373
0.621800,-2.328117
0.621900,-2.310265
0.622000,-2.322599
0.622100,-2.171668
0.622200,-2.093768
0.622300,-1.954847
0.622400,-1.888632
0.622500,-1.930503
0.622600,-1.909730
0.622700,-1.877271
0.622800,-1.767887
0.622900,-1.697777
0.623000,-1.640651
0.623100,-1.612737
0.623200,-1.615009
0.623300,-1.653309
0.623400,-1.596183
0.623500,-1.661749
0.623600,-1.584173
0.623700,-1.562426
0.623800,-1.517634
0.623900,-1.517309
0.624000,-1.507572
0.624100,-1.607543
0.624200,-1.514713
0.624300,-1.536460
0.624400,-1.308927
0.624500,-1.185911
0.624600,-0.900603
0.624700,-1.168708
0.624800,-1.425128
0.624900,-1.417338
0.625000,-1.248880
0.625100,-1.018102
0.625200,-0.943772
0.625300,-0.864250
0.625400,-1.099896
0.625500,-1.132030
0.625600,-1.002846
0.625700,-0.858732
0.625800,-0.747725
0.625900,-0.688326
0.626000,-0.747725
0.626100,-0.746427
0.626200,-0.791543
0.626300,-0.740259
0.626400,-0.710073
0.626500,-0.720135
0.626600,-0.716240
0.626700,-0.699038
0.626800,-0.695467
0.626900,-0.823028
0.627000,-0.904173
0.627100,-0.874636
0.627200,-0.900928
0.627300,-0.795438
0.627400,-0.739610
0.627500,-0.690598
0.627600,-0.834713
0.627700,-0.998627
0.627800,-0.967467
0.627900,-0.836011
0.628000,-0.590952
0.628100,-0.612374
0.628200,-0.701634
0.628300,-0.901577
0.628400,-0.890866
0.628500,-0.788298
0.628600,-0.620813
0.628700,-0.606856
0.628800,-0.689625
0.628900,-0.761357
0.629000,-0.794140
0.629100,-0.803878
0.629200,-0.799658
0.629300,-0.822054
0.629400,-0.862627
0.629500,-0.916508
0.629600,-0.920078
0.629700,-0.925920
0.629800,-0.995381
0.629900,-1.080097
0.630000,-1.118398
0.630100,-1.131705
0.630200,-1.139171
0.630300,-1.157023
0.630400,-1.247581
0.630500,-1.379037
0.630600,-1.382608
0.630700,-1.372546
0.630800,-1.350149
0.630900,-1.259591
0.631000,-1.270302
0.631100,-1.248230
0.631200,-1.246283
0.631300,-1.214149
0.631400,-1.207009
0.631500,-1.215772
0.631600,-1.216097
0.631700,-1.204087
0.631800,-1.174875
0.631900,-1.162216
0.632000,-1.168059
0.632100,-1.136574
0.632200,-1.162865
0.632300,-1.170006
0.632400,-1.179419
0.632500,-1.220316
0.632600,-1.251801
0.632700,-1.334569
0.632800,-1.502378
0.632900,-1.753281
0.633000,-1.700374
0.633100,-1.490694
