0.000100,-2.530333
0.000200,-2.668605
0.000300,-2.815642
0.000400,-2.899385
0.000500,-2.739365
0.000600,-2.534552
0.000700,-2.497225
0.000800,-2.605961
0.000900,-2.766630
0.001000,-2.854917
0.001100,-2.841609
0.001200,-2.733522
0.001300,-2.644911
0.001400,-2.623164
0.001500,-2.642639
0.001600,-2.648157
0.001700,-2.650753
0.001800,-2.593627
0.001900,-2.583889
0.002000,-2.541693
0.002100,-2.468013
0.002200,-2.355058
0.002300,-2.269692
0.002400,-2.239181
0.002500,-2.236260
0.002600,-2.207048
0.002700,-2.177186
0.002800,-1.986980
0.002900,-1.911028
0.003000,-1.657204
0.003100,-1.697453
0.003200,-1.677978
0.003300,-1.646169
0.003400,-1.553663
0.003500,-1.470894
0.003600,-1.373844
0.003700,-1.335543
0.003800,-1.323209
0.003900,-1.317367
0.004000,-1.320937
0.004100,-1.339438
0.004200,-1.366703
0.004300,-1.331324
0.004400,-1.305682
0.004500,-1.303409
0.004600,-1.288803
0.004700,-1.294970
0.004800,-1.411495
0.004900,-1.318016
0.005000,-1.394942
0.005100,-1.116450
0.005200,-0.977854
0.005300,-0.889243
0.005400,-1.177147
0.005500,-1.534837
0.005600,-1.297242
0.005700,-1.229729
0.005800,-0.923973
0.005900,-0.993758
0.006000,-1.106388
0.006100,-1.238168
0.006200,-1.323209
0.006300,-1.146312
0.006400,-1.067438
0.006500,-0.913586
0.006600,-0.997004
0.006700,-1.064517
0.006800,-1.055429
0.006900,-1.144689
0.007000,-1.079772
0.007100,-1.070035
0.007200,-1.055753
0.007300,-1.069386
0.007400,-1.016154
0.007500,-1.032059
0.007600,-1.123266
0.007700,-1.132355
0.007800,-1.174226
0.007900,-1.158970
0.008000,-1.111257
0.008100,-1.112231
0.008200,-1.099572
0.008300,-1.299190
0.008400,-1.443954
0.008500,-1.435190
0.008600,-1.316068
0.008700,-1.111906
0.008800,-1.203763
0.008900,-1.408899
0.009000,-1.635782
0.009100,-1.594884
0.009200,-1.454016
0.009300,-1.284259
0.009400,-1.346903
0.009500,-1.432918
0.009600,-1.496861
0.009700,-1.474140
0.009800,-1.504651
0.009900,-1.447524
0.010000,-1.495238
0.010100,-1.533538
0.010200,-1.599753
0.010300,-1.578655
0.010400,-1.525748
0.010500,-1.557557
0.010600,-1.623123
0.010700,-1.666942
0.010800,-1.631238
0.010900,-1.606245
0.011000,-1.563075
0.011100,-1.646493
0.011200,-1.736078
0.011300,-1.730235
0.011400,-1.688689
0.011500,-1.561777
0.011600,-1.558207
0.011700,-1.576059
0.011800,-1.520880
0.011900,-1.526073
0.012000,-1.514063
0.012100,-1.479658
0.012200,-1.494913
0.012300,-1.527047
0.012400,-1.543925
0.012500,-1.566970
0.012600,-1.545873
0.012700,-1.619553
0.012800,-1.627018
0.012900,-1.705567
0.013000,-1.708488
0.013100,-1.773080
0.013200,-1.864288
0.013300,-1.873052
0.013400,-2.030475
0.013500,-2.251516
0.013600,-2.423869
0.013700,-2.245673
0.013800,-2.053845
0.013900,-1.943486
0.014000,-2.094417
0.014100,-2.381998
0.014200,-2.549483
0.014300,-2.500471
0.014400,-2.328766
0.014500,-2.210618
0.014600,-2.262551
0.014700,-2.400175
0.014800,-2.532929
0.014900,-2.591679
0.015000,-2.506638
0.015100,-2.453082
0.015200,-2.490409
0.015300,-2.554352
0.015400,-2.566686
0.015500,-2.565063
0.015600,-2.522867
0.015700,-2.531307
0.015800,-2.572204
0.015900,-2.623813
0.016000,-2.619918
0.016100,-2.542992
0.016200,-2.546887
0.016300,-2.510209
0.016400,-2.550132
0.016500,-2.504366
0.016600,-2.390762
0.016700,-2.268394
0.016800,-2.301826
0.016900,-2.485216
0.017000,-2.601741
0.017100,-2.632901
0.017200,-2.423220
0.017300,-2.239181
0.017400,-2.255411
0.017500,-2.428738
0.017600,-2.577073
0.017700,-2.660166
0.017800,-2.592977
0.017900,-2.487163
0.018000,-2.444967
0.018100,-2.460223
0.018200,-2.536500
0.018300,-2.540395
0.018400,-2.530008
0.018500,-2.519297
0.018600,-2.478724
0.018700,-2.495278
0.018800,-2.466065
0.018900,-2.381024
0.019000,-2.287220
0.019100,-2.277482
0.019200,-2.284948
0.019300,-2.285597
0.019400,-2.254437
0.019500,-2.103830
0.019600,-1.958742
0.019700,-1.815276
0.019800,-1.857147
0.019900,-1.850980
0.020000,-1.828259
0.020100,-1.690961
0.020200,-1.636431
0.020300,-1.524775
0.020400,-1.436813
0.020500,-1.434216
0.020600,-1.405653
0.020700,-1.444927
0.020800,-1.383257
0.020900,-1.366703
0.021000,-1.324507
0.021100,-1.251152
0.021200,-1.298865
0.021300,-1.235572
0.021400,-1.243037
0.021500,-1.253099
0.021600,-1.146961
0.021700,-1.236870
0.021800,-0.799983
0.021900,-0.816536
0.022000,-0.623410
0.022100,-1.131056
0.022200,-1.159620
0.022300,-1.073930
0.022400,-0.879830
0.022500,-0.650999
0.022600,-0.665281
0.022700,-0.736040
0.022800,-0.931438
0.022900,-0.972011
0.023000,-0.781481
0.023100,-0.697415
0.023200,-0.630551
0.023300,-0.680212
0.023400,-0.683133
0.023500,-0.794465
0.023600,-0.739935
0.023700,-0.699038
0.023800,-0.682808
0.023900,-0.693844
0.024000,-0.722407
0.024100,-0.738637
0.024200,-0.817835
0.024300,-0.928842
0.024400,-0.863925
0.024500,-0.947992
0.024600,-0.897682
0.024700,-0.872040
0.024800,-0.863925
0.024900,-0.873987
0.025000,-1.137548
0.025100,-1.142417
0.025200,-1.159620
0.025300,-0.970064
0.025400,-0.896708
0.025500,-0.934360
0.025600,-1.168059
0.025700,-1.284259
0.025800,-1.236870
0.025900,-1.151505
0.026000,-1.048288
0.026100,-1.093080
0.026200,-1.216421
0.026300,-1.267705
0.026400,-1.220316
0.026500,-1.266732
0.026600,-1.193051
0.026700,-1.280689
0.026800,-1.286531
0.026900,-1.333920
0.027000,-1.301137
0.027100,-1.291400
0.027200,-1.355018
0.027300,-1.394617
0.027400,-1.386503
0.027500,-1.332297
0.027600,-1.316068
0.027700,-1.347228
0.027800,-1.471868
0.027900,-1.501080
0.028000,-1.479658
0.028100,-1.464727
0.028200,-1.359238
0.028300,-1.408899
0.028400,-1.430646
0.028500,-1.403705
0.028600,-1.442980
0.028700,-1.457586
0.028800,-1.452393
0.028900,-1.468297
0.029000,-1.467973
0.029100,-1.475763
0.029200,-1.473815
0.029300,-1.476736
0.029400,-1.502054
0.029500,-1.496536
0.029600,-1.525099
0.029700,-1.560154
0.029800,-1.605271
0.029900,-1.685118
0.030000,-1.708164
0.030100,-1.865262
0.030200,-2.153167
0.030300,-2.258981
0.030400,-2.068775
0.030500,-1.830856
0.030600,-1.774703
0.030700,-1.996393
0.030800,-2.243401
0.030900,-2.376805
0.031000,-2.288518
0.031100,-2.105129
0.031200,-2.060012
0.031300,-2.142131
0.031400,-2.284948
0.031500,-2.397903
0.031600,-2.391736
0.031700,-2.353759
0.031800,-2.312537
0.031900,-2.358304
0.032000,-2.396929
0.032100,-2.451134
0.032200,-2.441721
0.032300,-2.437826
0.032400,-2.488786
0.032500,-2.516051
0.032600,-2.542667
0.032700,-2.572529
0.032800,-2.515727
0.032900,-2.573178
0.033000,-2.570906
0.033100,-2.630305
0.033200,-2.610505
0.033300,-2.464767
0.033400,-2.381349
0.033500,-2.471908
0.033600,-2.664710
0.033700,-2.812071
0.033800,-2.755269
0.033900,-2.568634
0.034000,-2.446266
0.034100,-2.506638
0.034200,-2.670878
0.034300,-2.799737
0.034400,-2.813045
0.034500,-2.700090
0.034600,-2.599145
0.034700,-2.589082
0.034800,-2.636147
0.034900,-2.660166
0.035000,-2.634849
0.035100,-2.597197
0.035200,-2.614725
0.035300,-2.589082
0.035400,-2.551755
0.035500,-2.485216
0.035600,-2.371936
0.035700,-2.317081
0.035800,-2.280728
0.035900,-2.273587
0.036000,-2.257034
0.036100,-2.115840
0.036200,-1.975620
0.036300,-1.785090
0.036400,-1.736727
0.036500,-1.746465
0.036600,-1.679276
0.036700,-1.615009
0.036800,-1.506923
0.036900,-1.465051
0.037000,-1.327104
0.037100,-1.325806
0.037200,-1.304059
0.037300,-1.285233
0.037400,-1.315419
0.037500,-1.294321
0.037600,-1.311849
0.037700,-1.222264
0.037800,-1.275171
0.037900,-1.182340
0.038000,-1.221290
0.038100,-1.255371
0.038200,-1.245309
0.038300,-1.270302
0.038400,-1.071658
0.038500,-0.919104
0.038600,-0.658789
0.038700,-0.867820
0.038800,-1.156049
0.038900,-1.178121
0.039000,-1.064192
0.039100,-0.709749
0.039200,-0.764279
0.039300,-0.656193
0.039400,-0.933710
0.039500,-1.004469
0.039600,-0.971362
0.039700,-0.784078
0.039800,-0.673396
0.039900,-0.716240
0.040000,-0.704880
0.040100,-0.724030
0.040200,-0.752594
0.040300,-0.734417
0.040400,-0.749348
0.040500,-0.765901
0.040600,-0.779534
0.040700,-0.809071
0.040800,-0.738637
0.040900,-0.885672
0.041000,-0.879505
0.041100,-0.956431
0.041200,-1.017777
0.041300,-0.947018
0.041400,-0.969090
0.041500,-0.954808
0.041600,-1.083992
0.041700,-1.310875
0.041800,-1.371572
0.041900,-1.282961
0.042000,-1.079123
0.042100,-1.056727
0.042200,-1.163839
0.042300,-1.425777
0.042400,-1.467648
0.042500,-1.340736
0.042600,-1.140145
0.042700,-1.076202
0.042800,-1.157672
0.042900,-1.239791
0.043000,-1.230054
0.043100,-1.170006
0.043200,-1.155075
0.043300,-1.112231
0.043400,-1.185911
0.043500,-1.216097
0.043600,-1.220641
0.043700,-1.182016
0.043800,-1.200841
0.043900,-1.270951
0.044000,-1.307629
0.044100,-1.289777
0.044200,-1.271925
0.044300,-1.268679
0.044400,-1.357290
0.044500,-1.496861
0.044600,-1.518608
0.044700,-1.540030
0.044800,-1.532565
0.044900,-1.500756
0.045000,-1.558207
0.045100,-1.565347
0.045200,-1.566970
0.045300,-1.590665
0.045400,-1.587095
0.045500,-1.569567
0.045600,-1.583200
0.045700,-1.578655
0.045800,-1.590989
0.045900,-1.595534
0.046000,-1.590989
0.046100,-1.587744
0.046200,-1.590016
0.046300,-1.607219
0.046400,-1.666617
0.046500,-1.720823
0.046600,-1.736727
0.046700,-1.782169
0.046800,-1.977892
0.046900,-2.221329
0.047000,-2.208671
0.047100,-2.016517
0.047200,-1.847410
0.047300,-1.881816
0.047400,-2.128499
0.047500,-2.381349
0.047600,-2.458275
0.047700,-2.308642
0.047800,-2.183678
0.047900,-2.185625
0.048000,-2.381349
0.048100,-2.570906
0.048200,-2.672825
0.048300,-2.638744
0.048400,-2.572853
0.048500,-2.592328
0.048600,-2.646534
0.048700,-2.723460
0.048800,-2.787079
0.048900,-2.783508
0.049000,-2.750401
0.049100,-2.765007
0.049200,-2.822458
0.049300,-2.841284
0.049400,-2.856539
0.049500,-2.819537
0.049600,-2.799413
0.049700,-2.862057
0.049800,-2.862707
0.049900,-2.847776
0.050000,-2.661465
0.050100,-2.636147
0.050200,-2.758840
0.050300,-2.903929
0.050400,-3.038631
0.050500,-2.892244
0.050600,-2.670553
0.050700,-2.570906
0.050800,-2.653999
0.050900,-2.834792
0.051000,-2.988321
0.051100,-2.975013
0.051200,-2.808501
0.051300,-2.693274
0.051400,-2.679317
0.051500,-2.706582
0.051600,-2.726057
0.051700,-2.721513
0.051800,-2.717293
0.051900,-2.700090
0.052000,-2.655622
0.052100,-2.600767
0.052200,-2.533903
0.052300,-2.423220
0.052400,-2.395955
0.052500,-2.397903
0.052600,-2.395631
0.052700,-2.381349
0.052800,-2.228795
0.052900,-2.158685
0.053000,-1.942188
0.053100,-1.961663
0.053200,-1.979840
0.053300,-1.977568
0.053400,-1.901615
0.053500,-1.812679
0.053600,-1.719849
0.053700,-1.605271
0.053800,-1.601701
0.053900,-1.589367
0.054000,-1.610789
0.054100,-1.529643
0.054200,-1.553663
0.054300,-1.473491
0.054400,-1.418636
0.054500,-1.399161
0.054600,-1.352421
0.054700,-1.393968
0.054800,-1.368326
0.054900,-1.388450
0.055000,-1.322560
0.055100,-1.104116
0.055200,-0.859706
0.055300,-0.735066
0.055400,-1.029137
0.055500,-1.235572
0.055600,-1.215123
0.055700,-1.010312
0.055800,-0.785376
0.055900,-0.687028
0.056000,-0.772393
0.056100,-0.984021
0.056200,-0.983047
0.056300,-0.931114
0.056400,-0.751944
0.056500,-0.655219
0.056600,-0.633147
0.056700,-0.679563
0.056800,-0.715267
0.056900,-0.691248
0.057000,-0.693520
0.057100,-0.639639
0.057200,-0.652622
0.057300,-0.652622
0.057400,-0.671124
0.057500,-0.688976
0.057600,-0.786350
0.057700,-0.836011
0.057800,-0.847372
0.057900,-0.887944
0.058000,-0.808097
0.058100,-0.833739
0.058200,-0.775639
0.058300,-1.028813
0.058400,-1.161567
0.058500,-1.199543
0.058600,-1.079772
0.058700,-0.846722
0.058800,-0.920727
0.058900,-1.065166
0.059000,-1.333271
0.059100,-1.331324
0.059200,-1.239791
0.059300,-1.056078
0.059400,-1.007390
0.059500,-1.135600
0.059600,-1.207982
0.059700,-1.218693
0.059800,-1.242063
0.059900,-1.207333
0.060000,-1.214799
0.060100,-1.230054
0.060200,-1.269653
0.060300,-1.286856
0.060400,-1.250178
0.060500,-1.276145
0.060600,-1.305682
0.060700,-1.329701
0.060800,-1.281338
0.060900,-1.283935
0.061000,-1.274522
0.061100,-1.334894
0.061200,-1.425452
0.061300,-1.428698
0.061400,-1.429023
0.061500,-1.302436
0.061600,-1.310226
0.061700,-1.332622
0.061800,-1.334245
0.061900,-1.354369
0.062000,-1.338789
0.062100,-1.337491
0.062200,-1.332622
0.062300,-1.340736
0.062400,-1.354044
0.062500,-1.351772
0.062600,-1.396240
0.062700,-1.384555
0.062800,-1.402083
0.062900,-1.417987
0.063000,-1.422531
0.063100,-1.454989
0.063200,-1.479333
0.063300,-1.542627
0.063400,-1.579954
0.063500,-1.896746
0.063600,-2.084680
0.063700,-2.038265
0.063800,-1.819171
0.063900,-1.697453
0.064000,-1.881166
0.064100,-2.101883
0.064200,-2.374857
0.064300,-2.396929
0.064400,-2.303124
0.064500,-2.161606
0.064600,-2.187248
0.064700,-2.375506
0.064800,-2.517674
0.064900,-2.602715
0.065000,-2.537149
0.065100,-2.542667
0.065200,-2.535202
0.065300,-2.573178
0.065400,-2.598171
0.065500,-2.611154
0.065600,-2.589407
0.065700,-2.595250
0.065800,-2.652701
0.065900,-2.659842
0.066000,-2.702362
0.066100,-2.698792
0.066200,-2.690677
0.066300,-2.725732
0.066400,-2.757541
0.066500,-2.776367
0.066600,-2.659842
0.066700,-2.497550
0.066800,-2.595574
0.066900,-2.718267
0.067000,-2.867900
0.067100,-2.923079
0.067200,-2.758191
0.067300,-2.557598
0.067400,-2.511832
0.067500,-2.627059
0.067600,-2.800386
0.067700,-2.909771
0.067800,-2.842582
0.067900,-2.698467
0.068000,-2.634849
0.068100,-2.615698
0.068200,-2.647832
0.068300,-2.636147
0.068400,-2.622839
0.068500,-2.594925
0.068600,-2.574152
0.068700,-2.515077
0.068800,-2.461196
0.068900,-2.389464
0.069000,-2.304098
0.069100,-2.237234
0.069200,-2.184327
0.069300,-2.197959
0.069400,-2.146675
0.069500,-1.977892
0.069600,-1.904861
0.069700,-1.678302
0.069800,-1.691610
0.069900,-1.660126
0.070000,-1.627667
0.070100,-1.520880
0.070200,-1.456612
0.070300,-1.321911
0.070400,-1.311524
0.070500,-1.269653
0.070600,-1.298216
0.070700,-1.308278
0.070800,-1.313147
0.070900,-1.323209
0.071000,-1.303409
0.071100,-1.286531
0.071200,-1.288479
0.071300,-1.274846
0.071400,-1.302111
0.071500,-1.333920
0.071600,-1.351123
0.071700,-1.261214
0.071800,-1.062569
0.071900,-0.855162
0.072000,-0.740909
0.072100,-1.172278
0.072200,-1.319314
0.072300,-1.261214
0.072400,-1.046665
0.072500,-0.774016
0.072600,-0.779858
0.072700,-0.787324
0.072800,-1.066464
0.072900,-1.020698
0.073000,-0.983696
0.073100,-0.786999
0.073200,-0.763629
0.073300,-0.778236
0.073400,-0.887944
0.073500,-0.873663
0.073600,-0.839582
0.073700,-0.825949
0.073800,-0.780508
0.073900,-0.810045
0.074000,-0.853539
0.074100,-0.851916
0.074200,-0.871391
0.074300,-0.948641
0.074400,-1.013882
0.074500,-1.030436
0.074600,-1.073930
0.074700,-1.015180
0.074800,-0.996355
0.074900,-1.071333
0.075000,-1.227782
0.075100,-1.440059
0.075200,-1.362808
0.075300,-1.213500
0.075400,-1.034980
0.075500,-1.087238
0.075600,-1.273872
0.075700,-1.447849
0.075800,-1.391047
0.075900,-1.240441
0.076000,-1.076202
0.076100,-1.071333
0.076200,-1.162865
0.076300,-1.220641
0.076400,-1.180068
0.076500,-1.180717
0.076600,-1.084641
0.076700,-1.106388
0.076800,-1.120345
0.076900,-1.145013
0.077000,-1.101519
0.077100,-1.081071
0.077200,-1.105414
0.077300,-1.138522
0.077400,-1.147285
0.077500,-1.102493
0.077600,-1.078474
0.077700,-1.083343
0.077800,-1.207658
0.077900,-1.296918
0.078000,-1.312498
0.078100,-1.314445
0.078200,-1.237519
0.078300,-1.284584
0.078400,-1.305682
0.078500,-1.301787
0.078600,-1.322560
0.078700,-1.328078
0.078800,-1.321261
0.078900,-1.345605
0.079000,-1.369624
0.079100,-1.375142
0.079200,-1.387476
0.079300,-1.439085
0.079400,-1.468297
0.079500,-1.461157
0.079600,-1.496211
0.079700,-1.528345
0.079800,-1.532565
0.079900,-1.639028
0.080000,-1.646169
0.080100,-1.813978
0.080200,-2.045405
0.080300,-2.281377
0.080400,-2.121033
0.080500,-1.931152
0.080600,-1.859744
0.080700,-1.990226
0.080800,-2.339153
0.080900,-2.528710
0.081000,-2.497550
0.081100,-2.382972
0.081200,-2.284299
0.081300,-2.351163
0.081400,-2.538447
0.081500,-2.700415
0.081600,-2.660815
0.081700,-2.606285
0.081800,-2.556624
0.081900,-2.608557
0.082000,-2.634200
0.082100,-2.670228
0.082200,-2.683212
0.082300,-2.666982
0.082400,-2.656920
0.082500,-2.709503
0.082600,-2.738391
0.082700,-2.724434
0.082800,-2.714696
0.082900,-2.688405
0.083000,-2.724758
0.083100,-2.741637
0.083200,-2.698467
0.083300,-2.518972
0.083400,-2.456977
0.083500,-2.504042
0.083600,-2.625436
0.083700,-2.785780
0.083800,-2.771174
0.083900,-2.601417
0.084000,-2.442695
0.084100,-2.438151
0.084200,-2.559221
0.084300,-2.762735
0.084400,-2.823432
0.084500,-2.747155
0.084600,-2.641340
0.084700,-2.586486
0.084800,-2.602066
0.084900,-2.641340
0.085000,-2.644586
0.085100,-2.636472
0.085200,-2.615374
0.085300,-2.564739
0.085400,-2.544939
0.085500,-2.488786
0.085600,-2.381024
0.085700,-2.288518
0.085800,-2.271315
0.085900,-2.268394
0.086000,-2.272938
0.086100,-2.160308
0.086200,-1.978541
0.086300,-1.820145
0.086400,-1.681548
0.086500,-1.711085
0.086600,-1.655257
0.086700,-1.565023
0.086800,-1.477061
0.086900,-1.399810
0.087000,-1.278092
0.087100,-1.234273
0.087200,-1.212851
0.087300,-1.193051
0.087400,-1.258293
0.087500,-1.180068
0.087600,-1.255371
0.087700,-1.129758
0.087800,-1.166111
0.087900,-1.072631
0.088000,-1.170655
0.088100,-1.211228
0.088200,-1.169357
0.088300,-1.238493
0.088400,-1.056402
0.088500,-0.943123
0.088600,-0.622761
0.088700,-0.818159
0.088800,-1.037901
0.088900,-1.257643
0.089000,-1.192078
0.089100,-0.873338
0.089200,-0.764279
0.089300,-0.704880
0.089400,-0.949615
0.089500,-0.989214
0.089600,-1.019725
0.089700,-0.917481
0.089800,-0.693195
0.089900,-0.730847
0.090000,-0.691897
0.090100,-0.778236
0.090200,-0.698713
0.090300,-0.780183
0.090400,-0.695143
0.090500,-0.685730
0.090600,-0.668851
0.090700,-0.648078
0.090800,-0.618541
0.090900,-0.600689
0.091000,-0.765252
0.091100,-0.751295
0.091200,-0.781481
0.091300,-0.815563
0.091400,-0.721109
0.091500,-0.749348
0.091600,-0.763629
0.091700,-1.024918
0.091800,-0.991486
0.091900,-1.003496
0.092000,-0.789921
0.092100,-0.729224
0.092200,-0.837634
0.092300,-1.026541
0.092400,-1.154426
0.092500,-1.091782
0.092600,-0.970713
0.092700,-0.869768
0.092800,-0.961300
0.092900,-1.065815
0.093000,-1.110932
0.093100,-1.091457
0.093200,-1.151180
0.093300,-1.130407
0.093400,-1.235896
0.093500,-1.243686
0.093600,-1.263810
0.093700,-1.212526
0.093800,-1.256670
0.093900,-1.319963
0.094000,-1.369949
0.094100,-1.325481
0.094200,-1.298541
0.094300,-1.276469
0.094400,-1.336517
0.094500,-1.478684
0.094600,-1.534188
0.094700,-1.521204
0.094800,-1.530617
0.094900,-1.470245
0.095000,-1.501405
0.095100,-1.515037
0.095200,-1.513414
0.095300,-1.492966
0.095400,-1.533863
0.095500,-1.536784
0.095600,-1.551066
0.095700,-1.552364
0.095800,-1.537433
0.095900,-1.576708
0.096000,-1.579954
0.096100,-1.609166
0.096200,-1.604622
0.096300,-1.625071
0.096400,-1.636756
0.096500,-1.675706
0.096600,-1.694207
0.096700,-1.725367
0.096800,-1.914274
0.096900,-2.172967
0.097000,-2.215162
0.097100,-1.996393
0.097200,-1.805214
0.097300,-1.737376
0.097400,-1.970751
0.097500,-2.229444
0.097600,-2.307669
0.097700,-2.189520
0.097800,-1.976918
0.097900,-1.930178
0.098000,-1.996718
0.098100,-2.179458
0.098200,-2.274236
0.098300,-2.231067
0.098400,-2.228795
0.098500,-2.199907
0.098600,-2.269368
0.098700,-2.285597
0.098800,-2.327793
0.098900,-2.368366
0.099000,-2.380051
0.099100,-2.405044
0.099200,-2.548185
0.099300,-2.566037
0.099400,-2.582266
0.099500,-2.594600
0.099600,-2.636472
0.099700,-2.699116
0.099800,-2.762735
0.099900,-2.785456
0.100000,-2.630629
0.100100,-2.616347
0.100200,-2.744883
0.100300,-2.924378
0.100400,-3.092188
0.100500,-3.000006
0.100600,-2.799737
0.100700,-2.647183
0.100800,-2.661140
0.100900,-2.854917
0.101000,-2.999356
0.101100,-3.006822
0.101200,-2.843556
0.101300,-2.765331
0.101400,-2.757541
0.101500,-2.796491
0.101600,-2.804606
0.101700,-2.777016
0.101800,-2.718591
0.101900,-2.697818
0.102000,-2.633226
0.102100,-2.578371
0.102200,-2.473206
0.102300,-2.317081
0.102400,-2.251840
0.102500,-2.238857
0.102600,-2.229119
0.102700,-2.222952
0.102800,-2.072346
0.102900,-1.940241
0.103000,-1.763343
0.103100,-1.701672
0.103200,-1.716928
0.103300,-1.691610
0.103400,-1.618904
0.103500,-1.501729
0.103600,-1.395591
0.103700,-1.296269
0.103800,-1.254073
0.103900,-1.227457
0.104000,-1.199543
0.104100,-1.125214
0.104200,-1.155400
0.104300,-1.066789
0.104400,-1.072631
0.104500,-0.992135
0.104600,-1.005118
0.104700,-0.970064
0.104800,-0.945395
0.104900,-0.984670
0.105000,-0.937930
0.105100,-0.820756
0.105200,-0.499420
0.105300,-0.436126
0.105400,-0.599391
0.105500,-0.913586
0.105600,-1.022970
0.105700,-0.743181
0.105800,-0.631525
0.105900,-0.428336
0.106000,-0.496498
0.106100,-0.693195
0.106200,-0.780183
0.106300,-0.666255
0.106400,-0.602312
0.106500,-0.445864
0.106600,-0.450408
0.106700,-0.526360
0.106800,-0.534799
0.106900,-0.521816
0.107000,-0.471830
0.107100,-0.457224
0.107200,-0.469234
0.107300,-0.509806
0.107400,-0.548107
0.107500,-0.510131
0.107600,-0.622436
0.107700,-0.601988
0.107800,-0.673071
0.107900,-0.727601
0.108000,-0.652622
0.108100,-0.665281
0.108200,-0.580565
0.108300,-0.786675
0.108400,-1.027839
0.108500,-1.043095
0.108600,-0.975257
0.108700,-0.746427
0.108800,-0.761682
0.108900,-0.892813
0.109000,-1.162541
0.109100,-1.218693
0.109200,-1.138522
0.109300,-0.952536
0.109400,-0.920402
0.109500,-1.014856
0.109600,-1.145013
0.109700,-1.143066
0.109800,-1.122617
0.109900,-1.072956
0.110000,-1.066464
0.110100,-1.153452
0.110200,-1.192402
0.110300,-1.178121
0.110400,-1.132030
0.110500,-1.119371
0.110600,-1.162865
0.110700,-1.178121
0.110800,-1.169682
0.110900,-1.174875
0.111000,-1.161567
0.111100,-1.215772
0.111200,-1.334894
0.111300,-1.359562
0.111400,-1.374168
0.111500,-1.352097
0.111600,-1.263810
0.111700,-1.333271
0.111800,-1.311849
0.111900,-1.337815
0.112000,-1.293347
0.112100,-1.310875
0.112200,-1.319639
0.112300,-1.314121
0.112400,-1.328078
0.112500,-1.336517
0.112600,-1.345930
0.112700,-1.359562
0.112800,-1.356966
0.112900,-1.379037
0.113000,-1.386827
0.113100,-1.466674
0.113200,-1.509844
0.113300,-1.594235
0.113400,-1.624422
0.113500,-1.893501
0.113600,-2.070074
0.113700,-2.097339
0.113800,-1.872403
0.113900,-1.718875
0.114000,-1.846761
0.114100,-2.127200
0.114200,-2.357005
0.114300,-2.395955
0.114400,-2.274886
0.114500,-2.092145
0.114600,-2.060012
0.114700,-2.234313
0.114800,-2.389464
0.114900,-2.527412
0.115000,-2.462170
0.115100,-2.456977
0.115200,-2.373559
0.115300,-2.429387
0.115400,-2.501445
0.115500,-2.520271
0.115600,-2.516051
0.115700,-2.474180
0.115800,-2.490734
0.115900,-2.521569
0.116000,-2.557598
0.116100,-2.551431
0.116200,-2.523841
0.116300,-2.580643
0.116400,-2.584214
0.116500,-2.587459
0.116600,-2.452433
0.116700,-2.322924
0.116800,-2.303124
0.116900,-2.433282
0.117000,-2.560519
0.117100,-2.693274
0.117200,-2.543641
0.117300,-2.321626
0.117400,-2.212890
0.117500,-2.303449
0.117600,-2.474829
0.117700,-2.596548
0.117800,-2.551431
0.117900,-2.408289
0.118000,-2.316432
0.118100,-2.302151
0.118200,-2.362199
0.118300,-2.396929
0.118400,-2.422246
0.118500,-2.400175
0.118600,-2.373559
0.118700,-2.304747
0.118800,-2.267745
0.118900,-2.187897
0.119000,-2.123630
0.119100,-2.059362
0.119200,-2.092794
0.119300,-2.083382
0.119400,-2.084031
0.119500,-1.889281
0.119600,-1.848059
0.119700,-1.619228
0.119800,-1.653634
0.119900,-1.633834
0.120000,-1.643896
0.120100,-1.595858
0.120200,-1.519257
0.120300,-1.364431
0.120400,-1.373844
0.120500,-1.293347
0.120600,-1.359887
0.120700,-1.306331
0.120800,-1.291725
0.120900,-1.297567
0.121000,-1.223238
0.121100,-1.182989
0.121200,-1.100221
0.121300,-1.109309
0.121400,-1.099572
0.121500,-1.147285
0.121600,-1.103142
0.121700,-1.051209
0.121800,-0.901252
0.121900,-0.471506
0.122000,-0.595496
0.122100,-0.706828
0.122200,-1.142741
0.122300,-0.981099
0.122400,-0.811992
0.122500,-0.537071
0.122600,-0.473129
0.122700,-0.594198
0.122800,-0.790245
0.122900,-0.922999
0.123000,-0.801605
0.123100,-0.634446
0.123200,-0.576670
0.123300,-0.555572
0.123400,-0.608479
0.123500,-0.754541
0.123600,-0.740909
0.123700,-0.730522
0.123800,-0.701310
0.123900,-0.749997
0.124000,-0.744804
0.124100,-0.764603
0.124200,-0.777586
0.124300,-0.925920
0.124400,-0.911639
0.124500,-0.994083
0.124600,-0.950264
0.124700,-0.878856
0.124800,-0.854837
0.124900,-0.855486
0.125000,-1.008364
0.125100,-1.296918
0.125200,-1.196946
0.125300,-1.068412
0.125400,-0.844450
0.125500,-0.929815
0.125600,-1.035954
0.125700,-1.272250
0.125800,-1.221290
0.125900,-1.132679
0.126000,-0.950264
0.126100,-0.951562
0.126200,-1.046016
0.126300,-1.152154
0.126400,-1.144689
0.126500,-1.174226
0.126600,-1.125214
0.126700,-1.178121
0.126800,-1.211228
0.126900,-1.305032
0.127000,-1.349176
0.127100,-1.357615
0.127200,-1.396889
0.127300,-1.455639
0.127400,-1.448822
0.127500,-1.428374
0.127600,-1.414741
0.127700,-1.421233
0.127800,-1.516011
0.127900,-1.634484
0.128000,-1.622474
0.128100,-1.612737
0.128200,-1.476412
0.128300,-1.518283
0.128400,-1.537109
0.128500,-1.508546
0.128600,-1.507247
0.128700,-1.483877
0.128800,-1.464727
0.128900,-1.421557
0.129000,-1.441357
0.129100,-1.389099
0.129200,-1.391047
0.129300,-1.377414
0.129400,-1.403381
0.129500,-1.374493
0.129600,-1.378063
0.129700,-1.379037
0.129800,-1.382608
0.129900,-1.429997
0.130000,-1.466999
0.130100,-1.568269
0.130200,-1.832154
0.130300,-1.948680
0.130400,-1.887658
0.130500,-1.576383
0.130600,-1.539705
0.130700,-1.663371
0.130800,-1.962312
0.130900,-2.145052
0.131000,-2.112919
0.131100,-1.930828
0.131200,-1.773730
0.131300,-1.873052
0.131400,-2.058064
0.131500,-2.202828
0.131600,-2.209320
0.131700,-2.179458
0.131800,-2.138236
0.131900,-2.147974
0.132000,-2.200556
0.132100,-2.260279
0.132200,-2.275535
0.132300,-2.286895
0.132400,-2.285597
0.132500,-2.348241
0.132600,-2.339153
0.132700,-2.391736
0.132800,-2.334609
0.132900,-2.354084
0.133000,-2.436204
0.133100,-2.469960
0.133200,-2.477101
0.133300,-2.303449
0.133400,-2.224900
0.133500,-2.284623
0.133600,-2.446266
0.133700,-2.646858
0.133800,-2.699441
0.133900,-2.540719
0.134000,-2.395306
0.134100,-2.377454
0.134200,-2.565712
0.134300,-2.763708
0.134400,-2.865628
0.134500,-2.796491
0.134600,-2.686458
0.134700,-2.656271
0.134800,-2.678343
0.134900,-2.738716
0.135000,-2.772148
0.135100,-2.750725
0.135200,-2.722162
0.135300,-2.669904
0.135400,-2.633550
0.135500,-2.552729
0.135600,-2.428089
0.135700,-2.296308
0.135800,-2.238208
0.135900,-2.189196
0.136000,-2.156737
0.136100,-2.059687
0.136200,-1.849357
0.136300,-1.745815
0.136400,-1.554636
0.136500,-1.596832
0.136600,-1.564374
0.136700,-1.511467
0.136800,-1.421233
0.136900,-1.368326
0.137000,-1.216421
0.137100,-1.233300
0.137200,-1.212851
0.137300,-1.266732
0.137400,-1.251152
0.137500,-1.273872
0.137600,-1.296593
0.137700,-1.278741
0.137800,-1.215448
0.137900,-1.261863
0.138000,-1.213176
0.138100,-1.322235
0.138200,-1.310226
0.138300,-1.368651
0.138400,-1.255696
0.138500,-1.072631
0.138600,-0.818484
0.138700,-0.858083
0.138800,-0.993109
0.138900,-1.308278
0.139000,-1.181042
0.139100,-0.958379
0.139200,-0.713319
0.139300,-0.692871
0.139400,-0.747400
0.139500,-0.873987
0.139600,-0.934035
0.139700,-0.765901
0.139800,-0.654894
0.139900,-0.610102
0.140000,-0.591601
0.140100,-0.674694
0.140200,-0.666579
0.140300,-0.663983
0.140400,-0.617243
0.140500,-0.632823
0.140600,-0.636393
0.140700,-0.691248
0.140800,-0.694493
0.140900,-0.768823
0.141000,-0.849644
0.141100,-0.811668
0.141200,-0.944097
0.141300,-0.909042
0.141400,-0.913911
0.141500,-0.870741
0.141600,-0.965844
0.141700,-1.161892
0.141800,-1.271276
0.141900,-1.250827
0.142000,-1.028164
0.142100,-0.882426
0.142200,-0.938904
0.142300,-1.171304
0.142400,-1.345605
0.142500,-1.276794
0.142600,-1.127486
0.142700,-0.965844
0.142800,-1.014856
0.142900,-1.113204
0.143000,-1.201491
0.143100,-1.158646
0.143200,-1.157997
0.143300,-1.065491
0.143400,-1.100546
0.143500,-1.113529
0.143600,-1.146636
0.143700,-1.093080
0.143800,-1.054779
0.143900,-1.039200
0.144000,-1.092756
0.144100,-1.065491
0.144200,-1.034331
0.144300,-1.014531
0.144400,-1.008040
0.144500,-1.125214
0.144600,-1.210579
0.144700,-1.232001
0.144800,-1.210579
0.144900,-1.096001
0.145000,-1.186560
0.145100,-1.201815
0.145200,-1.225185
0.145300,-1.244985
0.145400,-1.287180
0.145500,-1.309901
0.145600,-1.346579
0.145700,-1.391047
0.145800,-1.412145
0.145900,-1.406951
0.146000,-1.436813
0.146100,-1.454989
0.146200,-1.442006
0.146300,-1.448173
0.146400,-1.413118
0.146500,-1.450121
0.146600,-1.405004
0.146700,-1.486149
0.146800,-1.610140
0.146900,-1.834751
0.147000,-1.876947
0.147100,-1.685768
0.147200,-1.476087
0.147300,-1.317367
0.147400,-1.528020
0.147500,-1.801644
0.147600,-1.955171
0.147700,-1.918818
0.147800,-1.736727
0.147900,-1.656231
0.148000,-1.690636
0.148100,-1.937644
0.148200,-2.048002
0.148300,-2.141157
0.148400,-2.073644
0.148500,-2.071697
0.148600,-2.090198
0.148700,-2.137912
0.148800,-2.189845
0.148900,-2.236260
0.149000,-2.252489
0.149100,-2.295659
0.149200,-2.367392
0.149300,-2.414456
0.149400,-2.493330
0.149500,-2.509235
0.149600,-2.514428
0.149700,-2.573827
0.149800,-2.601741
0.149900,-2.589732
0.150000,-2.491058
0.150100,-2.444318
0.150200,-2.531307
0.150300,-2.769876
0.150400,-2.906525
0.150500,-2.952616
0.150600,-2.751699
0.150700,-2.593302
0.150800,-2.648157
0.150900,-2.866926
0.151000,-3.067519
0.151100,-3.129190
0.151200,-3.044474
0.151300,-2.959108
0.151400,-2.938659
0.151500,-2.962678
0.151600,-2.976636
0.151700,-2.965600
0.151800,-2.941580
0.151900,-2.935738
0.152000,-2.853943
0.152100,-2.801360
0.152200,-2.627059
0.152300,-2.474829
0.152400,-2.360576
0.152500,-2.348891
0.152600,-2.294036
0.152700,-2.269368
0.152800,-2.121682
0.152900,-1.971725
0.153000,-1.939916
0.153100,-1.729586
0.153200,-1.771457
0.153300,-1.736727
0.153400,-1.680574
0.153500,-1.591963
0.153600,-1.514388
0.153700,-1.397214
0.153800,-1.374818
0.153900,-1.345605
0.154000,-1.353395
0.154100,-1.342035
0.154200,-1.298216
0.154300,-1.322235
0.154400,-1.195648
0.154500,-1.176173
0.154600,-1.114178
0.154700,-1.140469
0.154800,-1.111906
0.154900,-1.117424
0.155000,-1.076851
0.155100,-0.958054
0.155200,-0.685730
0.155300,-0.472155
0.155400,-0.559467
0.155500,-0.874961
0.155600,-0.901577
0.155700,-0.799658
0.155800,-0.527334
0.155900,-0.369912
0.156000,-0.377377
0.156100,-0.575047
0.156200,-0.604260
0.156300,-0.663334
0.156400,-0.444241
0.156500,-0.404642
0.156600,-0.323496
0.156700,-0.385167
0.156800,-0.431258
0.156900,-0.489358
0.157000,-0.479296
0.157100,-0.482541
0.157200,-0.504938
0.157300,-0.524088
0.157400,-0.492279
0.157500,-0.541291
0.157600,-0.583486
0.157700,-0.729548
0.157800,-0.754541
0.157900,-0.849644
0.158000,-0.835037
0.158100,-0.798684
0.158200,-0.779209
0.158300,-0.898331
0.158400,-1.152479
0.158500,-1.246283
0.158600,-1.136899
0.158700,-0.956431
0.158800,-0.851267
0.158900,-1.024918
0.159000,-1.267056
0.159100,-1.381309
0.159200,-1.309577
0.159300,-1.134302
0.159400,-1.081395
0.159500,-1.131705
0.159600,-1.261214
0.159700,-1.285233
0.159800,-1.240116
0.159900,-1.246932
0.160000,-1.236221
0.160100,-1.333920
0.160200,-1.357290
0.160300,-1.362483
0.160400,-1.306655
0.160500,-1.326455
0.160600,-1.377739
0.160700,-1.409548
0.160800,-1.370923
0.160900,-1.332622
0.161000,-1.318016
0.161100,-1.332946
0.161200,-1.476412
0.161300,-1.504326
0.161400,-1.475763
0.161500,-1.350474
0.161600,-1.341710
0.161700,-1.404030
0.161800,-1.411820
0.161900,-1.405004
0.162000,-1.378063
0.162100,-1.412145
0.162200,-1.417662
0.162300,-1.449472
0.162400,-1.430646
0.162500,-1.466350
0.162600,-1.511791
0.162700,-1.528345
0.162800,-1.530617
0.162900,-1.557557
0.163000,-1.604297
0.163100,-1.629615
0.163200,-1.672135
0.163300,-1.700374
0.163400,-1.757500
0.163500,-1.936021
0.163600,-2.207372
0.163700,-2.239506
0.163800,-2.011649
0.163900,-1.824040
0.164000,-1.884737
0.164100,-2.134990
0.164200,-2.393683
0.164300,-2.446915
0.164400,-2.354409
0.164500,-2.142456
0.164600,-2.093768
0.164700,-2.172317
0.164800,-2.349215
0.164900,-2.432958
0.165000,-2.462170
0.165100,-2.432309
0.165200,-2.412509
0.165300,-2.366094
0.165400,-2.457626
0.165500,-2.453406
0.165600,-2.471259
0.165700,-2.500471
0.165800,-2.500796
0.165900,-2.523517
0.166000,-2.598820
0.166100,-2.619918
0.166200,-2.634849
0.166300,-2.643612
0.166400,-2.684185
0.166500,-2.687431
0.166600,-2.689379
0.166700,-2.493655
0.166800,-2.480347
0.166900,-2.607584
0.167000,-2.817265
0.167100,-2.900683
0.167200,-2.836415
0.167300,-2.632901
0.167400,-2.480347
0.167500,-2.582266
0.167600,-2.795518
0.167700,-2.964301
0.167800,-2.956836
0.167900,-2.814019
0.168000,-2.699765
0.168100,-2.722486
0.168200,-2.793246
0.168300,-2.832196
0.168400,-2.794544
0.168500,-2.752673
0.168600,-2.734821
0.168700,-2.698792
0.168800,-2.678018
0.168900,-2.514104
0.169000,-2.411535
0.169100,-2.377129
0.169200,-2.360900
0.169300,-2.368041
0.169400,-2.365769
0.169500,-2.203802
0.169600,-2.128174
0.169700,-2.090198
0.169800,-1.890255
0.169900,-1.895773
0.170000,-1.870455
0.170100,-1.781520
0.170200,-1.698426
0.170300,-1.585472
0.170400,-1.504326
0.170500,-1.485176
0.170600,-1.500756
0.170700,-1.480956
0.170800,-1.492316
0.170900,-1.460183
0.171000,-1.443629
0.171100,-1.415715
0.171200,-1.357290
0.171300,-1.368975
0.171400,-1.266407
0.171500,-1.411495
0.171600,-1.302111
0.171700,-1.422531
0.171800,-1.184288
0.171900,-1.043095
0.172000,-0.776937
0.172100,-1.104765
0.172200,-1.354693
0.172300,-1.417987
0.172400,-1.206684
0.172500,-1.046016
0.172600,-0.970064
0.172700,-0.952861
0.172800,-1.074579
0.172900,-1.276145
0.173000,-1.198894
0.173100,-1.127810
0.173200,-0.972985
0.173300,-0.989538
0.173400,-0.921701
0.173500,-1.021672
0.173600,-1.026541
0.173700,-1.024593
0.173800,-0.984021
0.173900,-0.974932
0.174000,-0.978178
0.174100,-1.001873
0.174200,-1.072956
0.174300,-1.048288
0.174400,-1.161892
0.174500,-1.021023
0.174600,-1.184612
0.174700,-1.021348
0.174800,-0.991811
0.174900,-0.870741
0.175000,-0.945395
0.175100,-1.249529
0.175200,-1.183639
0.175300,-1.034980
0.175400,-0.815563
0.175500,-0.822703
0.175600,-0.973634
0.175700,-1.215123
0.175800,-1.267381
0.175900,-1.196946
0.176000,-1.028488
0.176100,-1.009338
0.176200,-1.154751
0.176300,-1.267381
0.176400,-1.301787
0.176500,-1.266083
0.176600,-1.295619
0.176700,-1.280689
0.176800,-1.401433
0.176900,-1.442655
0.177000,-1.477061
0.177100,-1.457586
0.177200,-1.458560
0.177300,-1.519581
0.177400,-1.497510
0.177500,-1.472841
0.177600,-1.463104
0.177700,-1.432593
0.177800,-1.506273
0.177900,-1.601701
0.178000,-1.588717
0.178100,-1.606245
0.178200,-1.445252
0.178300,-1.489720
0.178400,-1.542627
0.178500,-1.528994
0.178600,-1.542627
0.178700,-1.535810
0.178800,-1.554312
0.178900,-1.531266
0.179000,-1.556584
0.179100,-1.571839
0.179200,-1.578980
0.179300,-1.562751
0.179400,-1.537109
0.179500,-1.555610
0.179600,-1.578006
0.179700,-1.585796
0.179800,-1.614035
0.179900,-1.594235
0.180000,-1.601701
0.180100,-1.600727
0.180200,-1.877596
0.180300,-2.036642
0.180400,-1.986980
0.180500,-1.721796
0.180600,-1.587419
0.180700,-1.655581
0.180800,-1.844164
0.180900,-2.073320
0.181000,-2.100909
0.181100,-2.010675
0.181200,-1.876947
0.181300,-1.889281
0.181400,-2.037615
0.181500,-2.189845
0.181600,-2.280404
0.181700,-2.211267
0.181800,-2.220356
0.181900,-2.179134
0.182000,-2.198933
0.182100,-2.328442
0.182200,-2.342724
0.182300,-2.384595
0.182400,-2.371287
0.182500,-2.381998
0.182600,-2.400175
0.182700,-2.448213
0.182800,-2.466714
0.182900,-2.514104
0.183000,-2.549159
0.183100,-2.618295
0.183200,-2.643288
0.183300,-2.543641
0.183400,-2.422571
0.183500,-2.415430
0.183600,-2.565388
0.183700,-2.748453
0.183800,-2.804281
0.183900,-2.693598
0.184000,-2.475803
0.184100,-2.436204
0.184200,-2.550782
0.184300,-2.777016
0.184400,-2.848425
0.184500,-2.799737
0.184600,-2.699765
0.184700,-2.669904
0.184800,-2.724758
0.184900,-2.762410
0.185000,-2.776043
0.185100,-2.756892
0.185200,-2.725408
0.185300,-2.688405
0.185400,-2.648157
0.185500,-2.543316
0.185600,-2.362523
0.185700,-2.219382
0.185800,-2.161931
0.185900,-2.144728
0.186000,-2.092470
0.186100,-2.044432
0.186200,-1.845462
0.186300,-1.787687
0.186400,-1.629615
0.186500,-1.563075
0.186600,-1.523476
0.186700,-1.484202
0.186800,-1.396565
0.186900,-1.301137
0.187000,-1.209930
0.187100,-1.150856
0.187200,-1.122617
0.187300,-1.167409
0.187400,-1.122942
0.187500,-1.140145
0.187600,-1.179744
0.187700,-1.102818
0.187800,-1.116775
0.187900,-0.995706
0.188000,-1.147610
0.188100,-1.081071
0.188200,-1.268355
0.188300,-1.199868
0.188400,-1.247257
0.188500,-0.969414
0.188600,-0.824002
0.188700,-0.731820
0.188800,-1.085615
0.188900,-1.283285
0.189000,-1.213825
0.189100,-0.993109
0.189200,-0.846073
0.189300,-0.713319
0.189400,-0.901252
0.189500,-1.025567
0.189600,-1.158646
0.189700,-1.027515
0.189800,-0.881453
0.189900,-0.791219
0.190000,-0.775964
0.190100,-0.868145
0.190200,-0.940202
0.190300,-0.925271
0.190400,-0.945395
0.190500,-0.883725
0.190600,-0.923324
0.190700,-0.888269
0.190800,-0.929166
0.190900,-0.910665
0.191000,-1.093080
0.191100,-0.986293
0.191200,-1.095352
0.191300,-1.096975
0.191400,-1.063219
0.191500,-0.984345
0.191600,-1.003496
0.191700,-1.167734
0.191800,-1.368001
0.191900,-1.330674
0.192000,-1.140794
0.192100,-0.969739
0.192200,-1.040498
0.192300,-1.260240
0.192400,-1.424154
0.192500,-1.379362
0.192600,-1.228756
0.192700,-1.052183
0.192800,-1.061596
0.192900,-1.212526
0.193000,-1.293997
0.193100,-1.274197
0.193200,-1.208956
0.193300,-1.191429
0.193400,-1.239791
0.193500,-1.273223
0.193600,-1.316717
0.193700,-1.321586
0.193800,-1.266083
0.193900,-1.283610
0.194000,-1.319963
0.194100,-1.359887
0.194200,-1.307954
0.194300,-1.296269
0.194400,-1.269328
0.194500,-1.409548
0.194600,-1.515037
0.194700,-1.513090
0.194800,-1.496536
0.194900,-1.373844
0.195000,-1.426426
0.195100,-1.459534
0.195200,-1.442655
0.195300,-1.431944
0.195400,-1.422856
0.195500,-1.415066
0.195600,-1.427075
0.195700,-1.399161
0.195800,-1.432269
0.195900,-1.405004
0.196000,-1.404679
0.196100,-1.408250
0.196200,-1.406302
0.196300,-1.364431
0.196400,-1.401433
0.196500,-1.390073
0.196600,-1.440708
0.196700,-1.455314
0.196800,-1.529319
0.196900,-1.814302
0.197000,-1.939267
0.197100,-1.828584
0.197200,-1.696803
0.197300,-1.603973
0.197400,-1.763667
0.197500,-1.998341
0.197600,-2.222303
0.197700,-2.176537
0.197800,-1.997692
0.197900,-1.875973
0.198000,-1.945758
0.198100,-2.089224
0.198200,-2.273587
0.198300,-2.285272
0.198400,-2.265797
0.198500,-2.189845
0.198600,-2.227821
0.198700,-2.245349
0.198800,-2.307669
0.198900,-2.310590
0.199000,-2.312862
0.199100,-2.312537
0.199200,-2.331688
0.199300,-2.421273
0.199400,-2.491707
0.199500,-2.435230
0.199600,-2.420948
0.199700,-2.445616
0.199800,-2.495927
0.199900,-2.495927
0.200000,-2.410237
0.200100,-2.307993
0.200200,-2.386542
0.200300,-2.596548
0.200400,-2.781561
0.200500,-2.839337
0.200600,-2.674773
0.200700,-2.466065
0.200800,-2.489760
0.200900,-2.693598
0.201000,-2.942554
0.201100,-3.013963
0.201200,-2.913342
0.201300,-2.783833
0.201400,-2.750725
0.201500,-2.791298
0.201600,-2.865952
0.201700,-2.867900
0.201800,-2.834792
0.201900,-2.795842
0.202000,-2.716319
0.202100,-2.678668
0.202200,-2.567011
0.202300,-2.420299
0.202400,-2.287544
0.202500,-2.233339
0.202600,-2.210294
0.202700,-2.210618
0.202800,-2.114542
0.202900,-1.951276
0.203000,-1.905186
0.203100,-1.728288
0.203200,-1.728937
0.203300,-1.731534
0.203400,-1.673109
0.203500,-1.547495
0.203600,-1.446226
0.203700,-1.334569
0.203800,-1.247257
0.203900,-1.251152
0.204000,-1.232651
0.204100,-1.215772
0.204200,-1.175199
0.204300,-1.215448
0.204400,-1.085939
0.204500,-1.080746
0.204600,-1.025892
0.204700,-1.049586
0.204800,-1.120994
0.204900,-1.059648
0.205000,-1.199219
0.205100,-0.944097
0.205200,-0.882426
0.205300,-0.515649
0.205400,-0.699362
0.205500,-0.934684
0.205600,-1.160269
0.205700,-1.080746
0.205800,-0.776288
0.205900,-0.675668
0.206000,-0.632498
0.206100,-0.739935
0.206200,-0.931438
0.206300,-0.939877
0.206400,-0.911963
0.206500,-0.683458
0.206600,-0.617243
0.206700,-0.594847
0.206800,-0.621463
0.206900,-0.686379
0.207000,-0.704880
0.207100,-0.681186
0.207200,-0.656842
0.207300,-0.684431
0.207400,-0.642885
0.207500,-0.680861
0.207600,-0.772069
0.207700,-0.823028
0.207800,-0.852889
0.207900,-0.905796
0.208000,-0.940527
0.208100,-0.863601
0.208200,-0.890866
0.208300,-0.884698
0.208400,-1.046016
0.208500,-1.225185
0.208600,-1.109634
0.208700,-0.931438
0.208800,-0.800632
0.208900,-0.904823
0.209000,-1.109634
0.209100,-1.313796
0.209200,-1.262512
0.209300,-1.123915
0.209400,-0.999601
0.209500,-1.071658
0.209600,-1.205386
0.209700,-1.309577
0.209800,-1.271925
0.209900,-1.310875
0.210000,-1.268030
0.210100,-1.389748
0.210200,-1.421882
0.210300,-1.458235
0.210400,-1.440059
0.210500,-1.402407
0.210600,-1.466999
0.210700,-1.462779
0.210800,-1.424803
0.210900,-1.368651
0.211000,-1.324183
0.211100,-1.312173
0.211200,-1.434541
0.211300,-1.470894
0.211400,-1.459534
0.211500,-1.373519
0.211600,-1.296593
0.211700,-1.337491
0.211800,-1.328402
0.211900,-1.278092
0.212000,-1.234598
0.212100,-1.190779
0.212200,-1.165462
0.212300,-1.140794
0.212400,-1.137873
0.212500,-1.116450
0.212600,-1.131705
0.212700,-1.133328
0.212800,-1.159295
0.212900,-1.150207
0.213000,-1.165137
0.213100,-1.173901
0.213200,-1.222588
0.213300,-1.259915
0.213400,-1.336192
0.213500,-1.501080
0.213600,-1.781195
0.213700,-1.820469
0.213800,-1.683820
0.213900,-1.471219
0.214000,-1.428374
0.214100,-1.625395
0.214200,-1.991525
0.214300,-2.115840
0.214400,-2.103830
0.214500,-1.902913
0.214600,-1.852603
0.214700,-1.928231
0.214800,-2.121682
0.214900,-2.261902
0.215000,-2.317731
0.215100,-2.308967
0.215200,-2.303124
0.215300,-2.305072
0.215400,-2.316432
0.215500,-2.399201
0.215600,-2.419974
0.215700,-2.434581
0.215800,-2.481321
0.215900,-2.517025
0.216000,-2.558896
0.216100,-2.641665
0.216200,-2.598495
0.216300,-2.649130
0.216400,-2.662763
0.216500,-2.700415
0.216600,-2.707231
0.216700,-2.560844
0.216800,-2.481970
0.216900,-2.564739
0.217000,-2.779938
0.217100,-2.922430
0.217200,-2.926974
0.217300,-2.720863
0.217400,-2.542342
0.217500,-2.560194
0.217600,-2.738066
0.217700,-2.929571
0.217800,-2.927623
0.217900,-2.809799
0.218000,-2.675422
0.218100,-2.652376
0.218200,-2.689054
0.218300,-2.707880
0.218400,-2.686458
0.218500,-2.630629
0.218600,-2.611479
0.218700,-2.581292
0.218800,-2.559221
0.218900,-2.466714
0.219000,-2.317731
0.219100,-2.212890
0.219200,-2.233664
0.219300,-2.226198
0.219400,-2.221005
0.219500,-2.095391
0.219600,-1.949329
0.219700,-1.745166
0.219800,-1.712059
0.219900,-1.742245
0.220000,-1.710436
0.220100,-1.655257
0.220200,-1.559505
0.220300,-1.450445
0.220400,-1.378713
0.220500,-1.340736
0.220600,-1.352746
0.220700,-1.363782
0.220800,-1.318016
0.220900,-1.336192
0.221000,-1.282312
0.221100,-1.225834
0.221200,-1.259915
0.221300,-1.159295
0.221400,-1.249204
0.221500,-1.229729
0.221600,-1.302436
0.221700,-1.176498
0.221800,-1.142417
0.221900,-0.853539
0.222000,-0.706828
0.222100,-0.725978
0.222200,-1.177147
0.222300,-1.162865
0.222400,-1.038875
0.222500,-0.814589
0.222600,-0.689625
0.222700,-0.647104
0.222800,-0.831467
0.222900,-0.891839
0.223000,-0.898980
0.223100,-0.730522
0.223200,-0.600040
0.223300,-0.544212
0.223400,-0.613023
0.223500,-0.672097
0.223600,-0.602961
0.223700,-0.618217
0.223800,-0.583811
0.223900,-0.551353
0.224000,-0.534150
0.224100,-0.543563
0.224200,-0.574398
0.224300,-0.555897
0.224400,-0.638341
0.224500,-0.563687
0.224600,-0.736689
0.224700,-0.645806
0.224800,-0.662360
0.224900,-0.637042
0.225000,-0.723381
0.225100,-0.923324
0.225200,-1.009663
0.225300,-0.920727
0.225400,-0.718188
0.225500,-0.693844
0.225600,-0.806474
0.225700,-1.072956
0.225800,-1.172603
0.225900,-1.095352
0.226000,-0.914560
0.226100,-0.829844
0.226200,-0.924622
0.226300,-1.059324
0.226400,-1.111257
0.226500,-1.073930
0.226600,-1.063868
0.226700,-1.071982
0.226800,-1.154426
0.226900,-1.190455
0.227000,-1.222264
0.227100,-1.190130
0.227200,-1.207982
0.227300,-1.301787
0.227400,-1.334569
0.227500,-1.320612
0.227600,-1.287180
0.227700,-1.273223
0.227800,-1.305032
0.227900,-1.457586
0.228000,-1.475763
0.228100,-1.485500
0.228200,-1.456612
0.228300,-1.373844
0.228400,-1.417662
0.228500,-1.420584
0.228600,-1.404679
0.228700,-1.399810
0.228800,-1.403056
0.228900,-1.431619
0.229000,-1.430970
0.229100,-1.446550
0.229200,-1.459209
0.229300,-1.484851
0.229400,-1.481281
0.229500,-1.508221
0.229600,-1.497834
0.229700,-1.543600
0.229800,-1.557882
0.229900,-1.598130
0.230000,-1.608517
0.230100,-1.635133
0.230200,-1.825663
0.230300,-2.068775
0.230400,-2.057740
0.230500,-1.897071
0.230600,-1.731858
0.230700,-1.747114
0.230800,-1.929854
0.230900,-2.196337
0.231000,-2.288518
0.231100,-2.168098
0.231200,-1.985033
0.231300,-1.957119
0.231400,-2.099286
0.231500,-2.258656
0.231600,-2.289816
0.231700,-2.274561
0.231800,-2.264824
0.231900,-2.231716
0.232000,-2.235936
0.232100,-2.319354
0.232200,-2.372910
0.232300,-2.404070
0.232400,-2.429387
0.232500,-2.431984
0.232600,-2.431659
0.232700,-2.492032
0.232800,-2.551755
0.232900,-2.532929
0.233000,-2.554027
0.233100,-2.620567
0.233200,-2.661140
0.233300,-2.593627
0.233400,-2.454056
0.233500,-2.385244
0.233600,-2.496576
0.233700,-2.725732
0.233800,-2.832520
0.233900,-2.758515
0.234000,-2.553703
0.234100,-2.439774
0.234200,-2.585187
0.234300,-2.814993
0.234400,-2.941905
0.234500,-2.934440
0.234600,-2.803632
0.234700,-2.702687
0.234800,-2.702362
0.234900,-2.754620
0.235000,-2.779613
0.235100,-2.746506
0.235200,-2.726057
0.235300,-2.703660
0.235400,-2.655297
0.235500,-2.574801
0.235600,-2.467039
0.235700,-2.343697
0.235800,-2.250217
0.235900,-2.257683
0.236000,-2.233664
0.236100,-2.211592
0.236200,-2.025606
0.236300,-1.896097
0.236400,-1.784116
0.236500,-1.697128
0.236600,-1.678951
0.236700,-1.667916
0.236800,-1.603648
0.236900,-1.479982
0.237000,-1.396889
0.237100,-1.324507
0.237200,-1.317367
0.237300,-1.331324
0.237400,-1.347553
0.237500,-1.289452
0.237600,-1.333596
0.237700,-1.211228
0.237800,-1.222913
0.237900,-1.149557
0.238000,-1.200192
0.238100,-1.153452
0.238200,-1.172278
0.238300,-1.203763
0.238400,-1.110932
0.238500,-0.929491
0.238600,-0.664632
0.238700,-0.567906
0.238800,-0.769472
0.238900,-1.088536
0.239000,-1.082044
0.239100,-0.832765
0.239200,-0.636393
0.239300,-0.528632
0.239400,-0.544861
0.239500,-0.672422
0.239600,-0.835687
0.239700,-0.717539
0.239800,-0.578942
0.239900,-0.489033
0.240000,-0.423143
0.240100,-0.465014
0.240200,-0.506561
0.240300,-0.503639
0.240400,-0.509806
0.240500,-0.476050
0.240600,-0.436451
0.240700,-0.403668
0.240800,-0.382895
0.240900,-0.468260
0.241000,-0.470207
0.241100,-0.582837
0.241200,-0.587706
0.241300,-0.646131
0.241400,-0.594522
0.241500,-0.587381
0.241600,-0.540966
0.241700,-0.654245
0.241800,-0.953834
0.241900,-0.917481
0.242000,-0.811668
0.242100,-0.620489
0.242200,-0.654245
0.242300,-0.824651
0.242400,-1.068737
0.242500,-1.103142
0.242600,-0.990188
0.242700,-0.817510
0.242800,-0.799658
0.242900,-0.926245
0.243000,-1.022970
0.243100,-1.030436
0.243200,-0.994407
0.243300,-1.020049
0.243400,-1.056402
0.243500,-1.122942
0.243600,-1.143390
0.243700,-1.112880
0.243800,-1.078799
0.243900,-1.127161
0.244000,-1.187858
0.244100,-1.190779
0.244200,-1.156374
0.244300,-1.143715
0.244400,-1.127486
0.244500,-1.210579
0.244600,-1.360211
0.244700,-1.365405
0.244800,-1.375142
0.244900,-1.266083
0.245000,-1.306006
0.245100,-1.340087
0.245200,-1.347877
0.245300,-1.352746
0.245400,-1.355667
0.245500,-1.342684
0.245600,-1.338789
0.245700,-1.326455
0.245800,-1.329701
0.245900,-1.307304
0.246000,-1.328727
0.246100,-1.295619
0.246200,-1.260565
0.246300,-1.294321
0.246400,-1.272250
0.246500,-1.277767
0.246600,-1.266407
0.246700,-1.295619
0.246800,-1.367677
0.246900,-1.573787
0.247000,-1.806512
0.247100,-1.670512
0.247200,-1.519581
0.247300,-1.338464
0.247400,-1.425452
0.247500,-1.614684
0.247600,-1.860069
0.247700,-1.883114
0.247800,-1.766589
0.247900,-1.642598
0.248000,-1.677978
0.248100,-1.822092
0.248200,-1.956794
0.248300,-2.039238
0.248400,-2.010350
0.248500,-1.987305
0.248600,-1.956470
0.248700,-2.011973
0.248800,-2.035992
0.248900,-2.030150
0.249000,-1.986007
0.249100,-1.971400
0.249200,-1.966207
0.249300,-1.993472
0.249400,-2.019763
0.249500,-1.948030
0.249600,-1.936995
0.249700,-1.888956
0.249800,-1.938618
0.249900,-1.950303
0.250000,-1.866236
0.250100,-1.675706
0.250200,-1.688364
0.250300,-1.865262
0.250400,-2.022035
0.250500,-2.072021
0.250600,-1.926283
0.250700,-1.702970
0.250800,-1.683496
0.250900,-1.804889
0.251000,-2.028852
0.251100,-2.103181
0.251200,-2.001262
0.251300,-1.877271
0.251400,-1.849033
0.251500,-1.879544
0.251600,-1.909730
0.251700,-1.921739
0.251800,-1.881816
0.251900,-1.845787
0.252000,-1.830532
0.252100,-1.821119
0.252200,-1.744842
0.252300,-1.643247
0.252400,-1.531915
0.252500,-1.436813
0.252600,-1.442331
0.252700,-1.483228
0.252800,-1.456612
0.252900,-1.303734
0.253000,-1.259266
0.253100,-1.219018
0.253200,-1.093080
0.253300,-1.092756
0.253400,-1.079123
0.253500,-0.994732
0.253600,-0.874636
0.253700,-0.797061
0.253800,-0.720135
0.253900,-0.728250
0.254000,-0.736040
0.254100,-0.704231
0.254200,-0.715591
0.254300,-0.762980
0.254400,-0.718188
0.254500,-0.710398
0.254600,-0.680861
0.254700,-0.737663
0.254800,-0.722083
0.254900,-0.775964
0.255000,-0.813615
0.255100,-0.754541
0.255200,-0.525062
0.255300,-0.365692
0.255400,-0.418274
0.255500,-0.621138
0.255600,-0.928842
0.255700,-0.789921
0.255800,-0.643534
0.255900,-0.343296
0.256000,-0.395229
0.256100,-0.500069
0.256200,-0.668527
0.256300,-0.770770
0.256400,-0.677615
0.256500,-0.527658
0.256600,-0.425415
0.256700,-0.509157
0.256800,-0.527009
0.256900,-0.569529
0.257000,-0.678589
0.257100,-0.670474
0.257200,-0.643209
0.257300,-0.700336
0.257400,-0.695792
0.257500,-0.677615
0.257600,-0.730847
0.257700,-0.823028
0.257800,-0.958703
0.257900,-0.982398
0.258000,-1.075877
0.258100,-1.012584
0.258200,-1.009338
0.258300,-0.997653
0.258400,-1.219667
0.258500,-1.457911
0.258600,-1.327753
0.258700,-1.128784
0.258800,-1.005443
0.258900,-1.062569
0.259000,-1.278092
0.259100,-1.469271
0.259200,-1.424154
0.259300,-1.285882
0.259400,-1.098598
0.259500,-1.187858
0.259600,-1.333271
0.259700,-1.442331
0.259800,-1.401109
0.259900,-1.397863
0.260000,-1.358264
0.260100,-1.427725
0.260200,-1.503352
0.260300,-1.570541
0.260400,-1.518932
0.260500,-1.490369
0.260600,-1.501080
0.260700,-1.544574
0.260800,-1.574111
0.260900,-1.505949
0.261000,-1.500106
0.261100,-1.467324
0.261200,-1.587419
0.261300,-1.681873
0.261400,-1.664994
0.261500,-1.640975
0.261600,-1.502703
0.261700,-1.559830
0.261800,-1.575410
0.261900,-1.542627
0.262000,-1.540355
0.262100,-1.526398
0.262200,-1.521204
0.262300,-1.511142
0.262400,-1.503677
0.262500,-1.499782
0.262600,-1.479009
0.262700,-1.458235
0.262800,-1.454989
0.262900,-1.428698
0.263000,-1.445577
0.263100,-1.452393
0.263200,-1.447849
0.263300,-1.470894
0.263400,-1.500106
0.263500,-1.584822
0.263600,-1.776975
0.263700,-1.904212
0.263800,-1.740947
0.263900,-1.569892
0.264000,-1.399810
0.264100,-1.589691
0.264200,-1.779897
0.264300,-1.983085
0.264400,-1.924985
0.264500,-1.756527
0.264600,-1.619553
0.264700,-1.635782
0.264800,-1.825014
0.264900,-1.968479
0.265000,-1.971725
0.265100,-1.948355
0.265200,-1.882789
0.265300,-1.907782
0.265400,-1.925310
0.265500,-2.004833
0.265600,-1.996393
0.265700,-2.000288
0.265800,-2.013596
0.265900,-2.019114
0.266000,-2.132718
0.266100,-2.165826
0.266200,-2.141157
0.266300,-2.134666
0.266400,-2.156088
0.266500,-2.150895
0.266600,-2.156088
0.266700,-2.047353
0.266800,-1.922388
0.266900,-1.981138
0.267000,-2.180107
0.267100,-2.328442
0.267200,-2.339802
0.267300,-2.150246
0.267400,-1.927582
0.267500,-1.936346
0.267600,-2.095391
0.267700,-2.293062
0.267800,-2.362848
0.267900,-2.239181
0.268000,-2.110322
0.268100,-2.048976
0.268200,-2.085654
0.268300,-2.152842
0.268400,-2.156088
0.268500,-2.131420
0.268600,-2.085005
0.268700,-2.047677
0.268800,-2.054169
0.268900,-1.957443
0.269000,-1.852279
0.269100,-1.788011
0.269200,-1.764317
0.269300,-1.772756
0.269400,-1.752307
0.269500,-1.673758
0.269600,-1.525748
0.269700,-1.498808
0.269800,-1.347553
0.269900,-1.364106
0.270000,-1.360536
0.270100,-1.332946
0.270200,-1.241739
0.270300,-1.175849
0.270400,-1.054130
0.270500,-1.079123
0.270600,-1.056727
0.270700,-1.125214
0.270800,-1.085939
0.270900,-1.164164
0.271000,-1.108011
0.271100,-1.105090
0.271200,-1.031410
0.271300,-1.088211
0.271400,-1.088211
0.271500,-1.129109
0.271600,-1.130407
0.271700,-1.181042
0.271800,-1.083018
0.271900,-0.841854
0.272000,-0.621463
0.272100,-0.759410
0.272200,-0.955133
0.272300,-1.190455
0.272400,-1.019075
0.272500,-0.858732
0.272600,-0.655544
0.272700,-0.650026
0.272800,-0.757138
0.272900,-0.917157
0.273000,-0.880479
0.273100,-0.794465
0.273200,-0.579916
0.273300,-0.582837
0.273400,-0.592250
0.273500,-0.695143
0.273600,-0.723057
0.273700,-0.683782
0.273800,-0.685081
0.273900,-0.649052
0.274000,-0.653596
0.274100,-0.661061
0.274200,-0.714942
0.274300,-0.782131
0.274400,-0.886646
0.274500,-0.845749
0.274600,-0.885997
0.274700,-0.938255
0.274800,-0.848021
0.274900,-0.929166
0.275000,-0.872040
0.275100,-1.233624
0.275200,-1.283935
0.275300,-1.278417
0.275400,-1.064842
0.275500,-1.071658
0.275600,-1.158321
0.275700,-1.442331
0.275800,-1.590989
0.275900,-1.564374
0.276000,-1.429672
0.276100,-1.351772
0.276200,-1.436488
0.276300,-1.590665
0.276400,-1.678951
0.276500,-1.632536
0.276600,-1.636106
0.276700,-1.586121
0.276800,-1.673433
0.276900,-1.690636
0.277000,-1.722770
0.277100,-1.664994
0.277200,-1.639352
0.277300,-1.683171
0.277400,-1.672784
0.277500,-1.625720
0.277600,-1.541978
0.277700,-1.508546
0.277800,-1.513090
0.277900,-1.606245
0.278000,-1.620851
0.278100,-1.570865
0.278200,-1.486474
0.278300,-1.383257
0.278400,-1.417662
0.278500,-1.408899
0.278600,-1.373519
0.278700,-1.339114
0.278800,-1.345281
0.278900,-1.318340
0.279000,-1.319314
0.279100,-1.279715
0.279200,-1.256670
0.279300,-1.247581
0.279400,-1.223887
0.279500,-1.219667
0.279600,-1.173577
0.279700,-1.145013
0.279800,-1.130732
0.279900,-1.117099
0.280000,-1.093729
0.280100,-1.079772
0.280200,-1.191104
0.280300,-1.444278
0.280400,-1.426102
0.280500,-1.249853
0.280600,-1.028164
0.280700,-0.930140
0.280800,-1.110932
0.280900,-1.356966
0.281000,-1.484851
0.281100,-1.370273
0.281200,-1.241090
0.281300,-1.194999
0.281400,-1.291400
0.281500,-1.454989
0.281600,-1.534512
0.281700,-1.538732
0.281800,-1.541328
0.281900,-1.534837
0.282000,-1.568918
0.282100,-1.588717
0.282200,-1.649090
0.282300,-1.660126
0.282400,-1.690636
0.282500,-1.689338
0.282600,-1.697453
0.282700,-1.725691
0.282800,-1.805214
0.282900,-1.749710
0.283000,-1.802617
0.283100,-1.802617
0.283200,-1.866560
0.283300,-1.834426
0.283400,-1.699725
0.283500,-1.643896
0.283600,-1.721472
0.283700,-1.944785
0.283800,-2.054169
0.283900,-2.026904
0.284000,-1.775028
0.284100,-1.642274
0.284200,-1.689338
0.284300,-1.891878
0.284400,-2.040212
0.284500,-2.046379
0.284600,-1.888956
0.284700,-1.776651
0.284800,-1.764966
0.284900,-1.830207
0.285000,-1.873701
0.285100,-1.857796
0.285200,-1.802293
0.285300,-1.831181
0.285400,-1.795152
0.285500,-1.787687
0.285600,-1.719849
0.285700,-1.602025
0.285800,-1.543600
0.285900,-1.569242
0.286000,-1.584822
0.286100,-1.593262
0.286200,-1.441357
0.286300,-1.362159
0.286400,-1.197271
0.286500,-1.213825
0.286600,-1.260565
0.286700,-1.260240
0.286800,-1.228431
0.286900,-1.111581
0.287000,-1.070035
0.287100,-0.949939
0.287200,-0.979801
0.287300,-0.984345
0.287400,-0.997653
0.287500,-1.040822
0.287600,-1.034980
0.287700,-1.055753
0.287800,-1.084966
0.287900,-1.020698
0.288000,-1.109634
0.288100,-1.092431
0.288200,-1.219667
0.288300,-1.192078
0.288400,-1.269004
0.288500,-1.176173
0.288600,-0.888269
0.288700,-0.747400
0.288800,-0.875286
0.288900,-1.240441
0.289000,-1.341061
0.289100,-1.163839
0.289200,-1.086264
0.289300,-0.878531
0.289400,-0.927868
0.289500,-1.066464
0.289600,-1.227133
0.289700,-1.181691
0.289800,-1.111257
0.289900,-0.973309
0.290000,-1.035305
0.290100,-1.003820
0.290200,-1.139820
0.290300,-1.124565
0.290400,-1.144040
0.290500,-1.169682
0.290600,-1.199543
0.290700,-1.214799
0.290800,-1.268679
0.290900,-1.321586
0.291000,-1.439734
0.291100,-1.501729
0.291200,-1.455314
0.291300,-1.578331
0.291400,-1.485825
0.291500,-1.471543
0.291600,-1.415715
0.291700,-1.589042
0.291800,-1.815276
0.291900,-1.835725
0.292000,-1.686092
0.292100,-1.441682
0.292200,-1.373195
0.292300,-1.528345
0.292400,-1.822092
0.292500,-1.927906
0.292600,-1.794503
0.292700,-1.573787
0.292800,-1.508870
0.292900,-1.588393
0.293000,-1.735104
0.293100,-1.756527
0.293200,-1.700698
0.293300,-1.664021
0.293400,-1.657529
0.293500,-1.720173
0.293600,-1.724068
0.293700,-1.693882
0.293800,-1.645195
0.293900,-1.666617
0.294000,-1.725367
0.294100,-1.718875
0.294200,-1.693558
0.294300,-1.642923
0.294400,-1.603973
0.294500,-1.672135
0.294600,-1.801968
0.294700,-1.802617
0.294800,-1.763018
0.294900,-1.685768
0.295000,-1.620851
0.295100,-1.662073
0.295200,-1.628641
0.295300,-1.619553
0.295400,-1.583200
0.295500,-1.595858
0.295600,-1.591963
0.295700,-1.579305
0.295800,-1.573787
0.295900,-1.553013
0.296000,-1.559180
0.296100,-1.535810
0.296200,-1.509844
0.296300,-1.503677
0.296400,-1.514388
0.296500,-1.507896
0.296600,-1.496861
0.296700,-1.523801
0.296800,-1.516011
0.296900,-1.723744
0.297000,-1.889930
0.297100,-1.844489
0.297200,-1.583524
0.297300,-1.348526
0.297400,-1.400460
0.297500,-1.541328
0.297600,-1.805863
0.297700,-1.813004
0.297800,-1.649414
0.297900,-1.443629
0.298000,-1.388125
0.298100,-1.490694
0.298200,-1.609491
0.298300,-1.718875
0.298400,-1.657854
0.298500,-1.645519
0.298600,-1.558207
0.298700,-1.562426
0.298800,-1.602999
0.298900,-1.651037
0.299000,-1.639352
0.299100,-1.648441
0.299200,-1.670188
0.299300,-1.685443
0.299400,-1.746140
0.299500,-1.742570
0.299600,-1.695830
0.299700,-1.711085
0.299800,-1.686741
0.299900,-1.719524
0.300000,-1.654283
0.300100,-1.557233
0.300200,-1.490044
0.300300,-1.639352
0.300400,-1.846111
0.300500,-1.929854
0.300600,-1.851629
0.300700,-1.612737
0.300800,-1.518932
0.300900,-1.661749
0.301000,-1.902913
0.301100,-2.043782
0.301200,-2.041510
0.301300,-1.940890
0.301400,-1.870455
0.301500,-1.871754
0.301600,-1.919143
0.301700,-1.969453
0.301800,-1.957119
0.301900,-1.939267
0.302000,-1.944460
0.302100,-1.935047
0.302200,-1.892851
0.302300,-1.812355
0.302400,-1.701997
0.302500,-1.639677
0.302600,-1.646818
0.302700,-1.667591
0.302800,-1.667591
0.302900,-1.511791
0.303000,-1.454989
0.303100,-1.235896
0.303200,-1.251476
0.303300,-1.272250
0.303400,-1.295944
0.303500,-1.229080
0.303600,-1.155725
0.303700,-1.046665
0.303800,-1.036927
0.303900,-1.011285
0.304000,-1.053806
0.304100,-1.052832
0.304200,-1.041472
0.304300,-1.114827
0.304400,-1.013558
0.304500,-1.022321
0.304600,-0.983696
0.304700,-0.979801
0.304800,-1.058025
0.304900,-1.044068
0.305000,-1.162865
0.305100,-0.994407
0.305200,-0.920402
0.305300,-0.542265
0.305400,-0.601338
0.305500,-0.757462
0.305600,-1.196946
0.305700,-1.098598
0.305800,-0.907419
0.305900,-0.737987
0.306000,-0.650999
0.306100,-0.707477
0.306200,-0.936956
0.306300,-1.043095
0.306400,-1.031734
0.306500,-0.849968
0.306600,-0.805176
0.306700,-0.706503
0.306800,-0.806799
0.306900,-0.824326
0.307000,-0.902550
0.307100,-0.937605
0.307200,-0.955782
0.307300,-0.963247
0.307400,-0.968116
0.307500,-1.027515
0.307600,-1.035629
0.307700,-1.223238
0.307800,-1.164488
0.307900,-1.204087
0.308000,-1.294321
0.308100,-1.216746
0.308200,-1.193376
0.308300,-1.170331
0.308400,-1.362159
0.308500,-1.575734
0.308600,-1.542627
0.308700,-1.368001
0.308800,-1.227782
0.308900,-1.249529
0.309000,-1.416040
0.309100,-1.701023
0.309200,-1.705567
0.309300,-1.616632
0.309400,-1.436164
0.309500,-1.453691
0.309600,-1.603648
0.309700,-1.702646
0.309800,-1.659476
0.309900,-1.662722
0.310000,-1.637080
0.310100,-1.730235
0.310200,-1.804240
0.310300,-1.821443
0.310400,-1.781844
0.310500,-1.749710
0.310600,-1.764641
0.310700,-1.833453
0.310800,-1.833453
0.310900,-1.812030
0.311000,-1.763992
0.311100,-1.715954
0.311200,-1.778923
0.311300,-1.871104
0.311400,-1.860718
0.311500,-1.842541
0.311600,-1.767562
0.311700,-1.685443
0.311800,-1.696479
0.311900,-1.641300
0.312000,-1.640001
0.312100,-1.604947
0.312200,-1.581901
0.312300,-1.556584
0.312400,-1.547495
0.312500,-1.523801
0.312600,-1.500756
0.312700,-1.458884
0.312800,-1.454340
0.312900,-1.433892
0.313000,-1.440708
0.313100,-1.410522
0.313200,-1.383581
0.313300,-1.405653
0.313400,-1.455639
0.313500,-1.503352
0.313600,-1.776002
0.313700,-1.959715
0.313800,-1.835400
0.313900,-1.632211
0.314000,-1.482579
0.314100,-1.595209
0.314200,-1.861691
0.314300,-2.142131
0.314400,-2.163229
0.314500,-1.998665
0.314600,-1.862341
0.314700,-1.860718
0.314800,-2.013921
0.314900,-2.149921
0.315000,-2.274886
0.315100,-2.221979
0.315200,-2.261253
0.315300,-2.249893
0.315400,-2.302151
0.315500,-2.367067
0.315600,-2.361549
0.315700,-2.353110
0.315800,-2.363821
0.315900,-2.404070
0.316000,-2.449836
0.316100,-2.479049
0.316200,-2.448538
0.316300,-2.441072
0.316400,-2.494304
0.316500,-2.495927
0.316600,-2.524490
0.316700,-2.459574
0.316800,-2.330714
0.316900,-2.305396
0.317000,-2.480022
0.317100,-2.667632
0.317200,-2.720863
0.317300,-2.525464
0.317400,-2.295010
0.317500,-2.246647
0.317600,-2.353435
0.317700,-2.542342
0.317800,-2.599794
0.317900,-2.495927
0.318000,-2.327468
0.318100,-2.254112
0.318200,-2.263201
0.318300,-2.285597
0.318400,-2.262227
0.318500,-2.193091
0.318600,-2.150246
0.318700,-2.110322
0.318800,-2.082083
0.318900,-2.038589
0.319000,-1.894150
0.319100,-1.745166
0.319200,-1.686417
0.319300,-1.653634
0.319400,-1.622799
0.319500,-1.550741
0.319600,-1.353720
0.319700,-1.280040
0.319800,-1.003171
0.319900,-1.009987
0.320000,-0.979476
0.320100,-0.916832
0.320200,-0.774665
0.320300,-0.677615
0.320400,-0.492928
0.320500,-0.420871
0.320600,-0.361797
0.320700,-0.292337
0.320800,-0.310838
0.320900,-0.185874
0.321000,-0.255659
0.321100,-0.071296
0.321200,-0.085253
0.321300,0.008226
0.321400,-0.041110
0.321500,-0.066752
0.321600,-0.035917
0.321700,-0.138809
0.321800,0.034842
0.321900,0.191290
0.322000,0.514249
0.322100,0.546058
0.322200,0.202975
0.322300,0.146498
0.322400,0.066326
0.322500,0.401294
0.322600,0.477571
0.322700,0.643108
0.322800,0.530802
0.322900,0.320798
0.323000,0.337027
0.323100,0.362994
0.323200,0.599289
0.323300,0.599289
0.323400,0.642783
0.323500,0.566831
0.323600,0.484387
0.323700,0.464588
0.323800,0.473027
0.323900,0.489256
0.324000,0.441543
0.324100,0.454526
0.324200,0.388636
0.324300,0.299051
0.324400,0.233810
0.324500,0.178307
0.324600,0.122154
0.324700,0.013419
0.324800,0.018288
0.324900,0.054641
0.325000,-0.022609
0.325100,-0.220279
0.325200,-0.409835
0.325300,-0.367640
0.325400,-0.243000
0.325500,-0.167697
0.325600,-0.264423
0.325700,-0.544537
0.325800,-0.773367
0.325900,-0.791219
0.326000,-0.686054
0.326100,-0.578942
0.326200,-0.641262
0.326300,-0.814589
0.326400,-0.952536
0.326500,-0.929815
0.326600,-0.945071
0.326700,-0.936956
0.326800,-1.063543
0.326900,-1.148584
0.327000,-1.213176
0.327100,-1.228431
0.327200,-1.264784
0.327300,-1.328402
0.327400,-1.405977
0.327500,-1.445577
0.327600,-1.444603
0.327700,-1.468622
0.327800,-1.486799
0.327900,-1.658827
0.328000,-1.758474
0.328100,-1.767238
0.328200,-1.797749
0.328300,-1.756527
0.328400,-1.797099
0.328500,-1.849033
0.328600,-1.864937
0.328700,-1.905510
0.328800,-1.945109
0.328900,-2.006455
0.329000,-2.055467
0.329100,-2.075916
0.329200,-2.126227
0.329300,-2.158360
0.329400,-2.202828
0.329500,-2.235611
0.329600,-2.293387
0.329700,-2.367392
0.329800,-2.345320
0.329900,-2.420624
0.330000,-2.411211
0.330100,-2.520595
0.330200,-2.622190
0.330300,-2.938010
0.330400,-3.054536
0.330500,-2.926000
0.330600,-2.738066
0.330700,-2.644262
0.330800,-2.825704
0.330900,-3.094460
0.331000,-3.253506
0.331100,-3.245391
0.331200,-3.045772
0.331300,-2.960406
0.331400,-2.965600
0.331500,-3.162622
0.331600,-3.215205
0.331700,-3.258050
0.331800,-3.178852
0.331900,-3.118154
0.332000,-3.072388
0.332100,-3.068493
0.332200,-3.092837
0.332300,-3.061027
0.332400,-3.030192
0.332500,-2.990593
0.332600,-2.934115
0.332700,-2.943853
0.332800,-2.901332
0.332900,-2.850372
0.333000,-2.802659
0.333100,-2.801036
0.333200,-2.796816
0.333300,-2.732873
0.333400,-2.556299
0.333500,-2.411860
0.333600,-2.482619
0.333700,-2.674123
0.333800,-2.749102
0.333900,-2.709178
0.334000,-2.502419
0.334100,-2.291115
0.334200,-2.309941
0.334300,-2.455679
0.334400,-2.617646
0.334500,-2.614725
0.334600,-2.493979
0.334700,-2.380051
0.334800,-2.325196
0.334900,-2.364146
0.335000,-2.438800
0.335100,-2.438151
0.335200,-2.400824
0.335300,-2.403745
0.335400,-2.372261
0.335500,-2.353435
0.335600,-2.264499
0.335700,-2.119735
0.335800,-2.017491
0.335900,-1.990226
0.336000,-1.986980
0.336100,-1.983410
0.336200,-1.885386
0.336300,-1.734130
0.336400,-1.623448
0.336500,-1.522827
0.336600,-1.566646
0.336700,-1.556259
0.336800,-1.513739
0.336900,-1.416364
0.337000,-1.387801
0.337100,-1.282961
0.337200,-1.283285
0.337300,-1.285557
0.337400,-1.304059
0.337500,-1.334569
0.337600,-1.354693
0.337700,-1.370598
0.337800,-1.315094
0.337900,-1.346579
0.338000,-1.321261
0.338100,-1.345930
0.338200,-1.370923
0.338300,-1.448822
0.338400,-1.350798
0.338500,-1.404355
0.338600,-1.085939
0.338700,-0.936956
0.338800,-0.975581
0.338900,-1.204412
0.339000,-1.442980
0.339100,-1.124240
0.339200,-0.998951
0.339300,-0.786675
0.339400,-0.718188
0.339500,-0.825300
0.339600,-0.854512
0.339700,-0.872689
0.339800,-0.624708
0.339900,-0.503964
0.340000,-0.473453
0.340100,-0.412756
0.340200,-0.444241
0.340300,-0.398475
0.340400,-0.457873
0.340500,-0.406914
0.340600,-0.404642
0.340700,-0.400098
0.340800,-0.452680
0.340900,-0.481568
0.341000,-0.567582
0.341100,-0.665281
0.341200,-0.673071
0.341300,-0.765901
0.341400,-0.764603
0.341500,-0.746427
0.341600,-0.728250
0.341700,-0.787648
0.341800,-1.142741
0.341900,-1.204087
0.342000,-1.121968
0.342100,-0.965844
0.342200,-0.901901
0.342300,-1.032059
0.342400,-1.269004
0.342500,-1.448498
0.342600,-1.340412
0.342700,-1.157997
0.342800,-1.047963
0.342900,-1.163515
0.343000,-1.327753
0.343100,-1.415390
0.343200,-1.362808
0.343300,-1.375142
0.343400,-1.323209
0.343500,-1.434865
0.343600,-1.464402
0.343700,-1.517634
0.343800,-1.458235
0.343900,-1.419935
0.344000,-1.459534
0.344100,-1.469271
0.344200,-1.436488
0.344300,-1.399161
0.344400,-1.345605
0.344500,-1.348851
0.344600,-1.464727
0.344700,-1.507896
0.344800,-1.466025
0.344900,-1.318665
0.345000,-1.304383
0.345100,-1.316068
0.345200,-1.302436
0.345300,-1.259266
0.345400,-1.260565
0.345500,-1.252125
0.345600,-1.233624
0.345700,-1.207658
0.345800,-1.195648
0.345900,-1.186235
0.346000,-1.197596
0.346100,-1.176498
0.346200,-1.181367
0.346300,-1.159944
0.346400,-1.164164
0.346500,-1.217720
0.346600,-1.224536
0.346700,-1.304383
0.346800,-1.353395
0.346900,-1.543925
0.347000,-1.821119
0.347100,-1.897071
0.347200,-1.792555
0.347300,-1.612737
0.347400,-1.637080
0.347500,-1.838646
0.347600,-2.127849
0.347700,-2.273587
0.347800,-2.161606
0.347900,-2.015544
0.348000,-1.971076
0.348100,-2.067802
0.348200,-2.250542
0.348300,-2.370638
0.348400,-2.325521
0.348500,-2.281377
0.348600,-2.214838
0.348700,-2.196986
0.348800,-2.217434
0.348900,-2.231716
0.349000,-2.209320
0.349100,-2.170370
0.349200,-2.173616
0.349300,-2.150246
0.349400,-2.196986
0.349500,-2.179783
0.349600,-2.057740
0.349700,-2.017491
0.349800,-1.987630
0.349900,-1.976918
0.350000,-1.938618
0.350100,-1.757500
0.350200,-1.622149
0.350300,-1.639352
0.350400,-1.822092
0.350500,-1.887009
0.350600,-1.768212
0.350700,-1.489720
0.350800,-1.281987
0.350900,-1.308278
0.351000,-1.471543
0.351100,-1.646493
0.351200,-1.611438
0.351300,-1.462455
0.351400,-1.329701
0.351500,-1.324832
0.351600,-1.386178
0.351700,-1.466025
0.351800,-1.467973
0.351900,-1.417987
0.352000,-1.411820
0.352100,-1.389424
0.352200,-1.392345
0.352300,-1.261538
0.352400,-1.159295
0.352500,-1.165462
0.352600,-1.221290
0.352700,-1.245958
0.352800,-1.275171
0.352900,-1.187209
0.353000,-1.143390
0.353100,-1.148908
0.353200,-1.017453
0.353300,-1.118722
0.353400,-1.165137
0.353500,-1.166436
0.353600,-1.129758
0.353700,-1.097300
0.353800,-1.057052
0.353900,-1.132030
0.354000,-1.210579
0.354100,-1.308927
0.354200,-1.316068
0.354300,-1.484526
0.354400,-1.442655
0.354500,-1.486474
0.354600,-1.516336
0.354700,-1.580927
0.354800,-1.649090
0.354900,-1.647791
0.355000,-1.794178
0.355100,-1.778274
0.355200,-1.617930
0.355300,-1.427075
0.355400,-1.228756
0.355500,-1.536135
0.355600,-1.694531
0.355700,-1.941863
0.355800,-1.637405
0.355900,-1.432269
0.356000,-1.380985
0.356100,-1.346254
0.356200,-1.518283
0.356300,-1.627018
0.356400,-1.576708
0.356500,-1.358913
0.356600,-1.216097
0.356700,-1.233949
0.356800,-1.111581
0.356900,-1.183963
0.357000,-1.181367
0.357100,-1.164164
0.357200,-1.070359
0.357300,-0.974608
0.357400,-0.921052
0.357500,-0.912288
0.357600,-0.966493
0.357700,-0.938579
0.357800,-0.971686
0.357900,-0.829195
0.358000,-0.966493
0.358100,-0.815887
0.358200,-0.719811
0.358300,-0.678264
0.358400,-0.639315
0.358500,-0.932737
0.358600,-0.848994
0.358700,-0.693195
0.358800,-0.387114
0.358900,-0.324470
0.359000,-0.401071
0.359100,-0.589653
0.359200,-0.615620
0.359300,-0.474102
0.359400,-0.206322
0.359500,-0.085253
0.359600,-0.126800
0.359700,-0.189769
0.359800,-0.191067
0.359900,-0.101807
0.360000,-0.092070
0.360100,-0.024557
0.360200,-0.124203
0.360300,-0.121282
0.360400,-0.148871
0.360500,-0.076165
0.360600,-0.091745
0.360700,-0.144327
0.360800,-0.162179
0.360900,-0.131344
0.361000,0.001734
0.361100,0.216283
0.361200,-0.216384
0.361300,-0.266370
0.361400,-0.267993
0.361500,-0.258580
0.361600,-0.030724
0.361700,-0.150170
0.361800,-0.262800
0.361900,-0.266695
0.362000,-0.295258
0.362100,-0.339401
0.362200,-0.427687
0.362300,-0.449110
0.362400,-0.531553
0.362500,-0.614322
0.362600,-0.692871
0.362700,-0.753243
0.362800,-0.801930
0.362900,-0.847372
0.363000,-0.937605
0.363100,-0.978503
0.363200,-1.058025
0.363300,-1.151505
0.363400,-1.259266
0.363500,-1.369624
0.363600,-1.659152
0.363700,-1.913300
0.363800,-1.897396
0.363900,-1.701672
0.364000,-1.619877
0.364100,-1.753281
0.364200,-2.064556
0.364300,-2.315134
0.364400,-2.377129
0.364500,-2.267096
0.364600,-2.118761
0.364700,-2.180757
0.364800,-2.277482
0.364900,-2.507287
0.365000,-2.597522
0.365100,-2.616672
0.365200,-2.565712
0.365300,-2.551106
0.365400,-2.535851
0.365500,-2.594925
0.365600,-2.592328
0.365700,-2.604013
0.365800,-2.620892
0.365900,-2.629655
0.366000,-2.667307
0.366100,-2.779938
0.366200,-2.790000
0.366300,-2.746506
0.366400,-2.754620
0.366500,-2.795842
0.366600,-2.792596
0.366700,-2.730601
0.366800,-2.566362
0.366900,-2.546887
0.367000,-2.654324
0.367100,-2.838038
0.367200,-2.873418
0.367300,-2.756892
0.367400,-2.466390
0.367500,-2.378103
0.367600,-2.464442
0.367700,-2.658219
0.367800,-2.770200
0.367900,-2.750076
0.368000,-2.644262
0.368100,-2.540070
0.368200,-2.545913
0.368300,-2.560519
0.368400,-2.557922
0.368500,-2.490084
0.368600,-2.462495
0.368700,-2.405693
0.368800,-2.333311
0.368900,-2.228146
0.369000,-2.058389
0.369100,-1.917844
0.369200,-1.874999
0.369300,-1.845138
0.369400,-1.834751
0.369500,-1.801968
0.369600,-1.637729
0.369700,-1.576059
0.369800,-1.413767
0.369900,-1.336841
0.370000,-1.332622
0.370100,-1.328078
0.370200,-1.249204
0.370300,-1.172278
0.370400,-1.096326
0.370500,-1.049262
0.370600,-1.024269
0.370700,-1.075228
0.370800,-1.074904
0.370900,-1.075228
0.371000,-1.109634
0.371100,-1.087562
0.371200,-1.110283
0.371300,-1.097300
0.371400,-1.122293
0.371500,-1.147610
0.371600,-1.178445
0.371700,-1.235572
0.371800,-1.161242
0.371900,-1.008689
0.372000,-0.687028
0.372100,-0.718512
0.372200,-0.881777
0.372300,-1.254398
0.372400,-1.119696
0.372500,-1.040173
0.372600,-0.797386
0.372700,-0.728575
0.372800,-0.723057
0.372900,-0.922025
0.373000,-0.902550
0.373100,-0.886971
0.373200,-0.657816
0.373300,-0.636069
0.373400,-0.583811
0.373500,-0.589653
0.373600,-0.632174
0.373700,-0.635095
0.373800,-0.614971
0.373900,-0.553625
0.374000,-0.585109
0.374100,-0.549405
0.374200,-0.617568
0.374300,-0.663983
0.374400,-0.722407
0.374500,-0.719162
0.374600,-0.730197
0.374700,-0.824326
0.374800,-0.686054
0.374900,-0.700660
0.375000,-0.639964
0.375100,-0.867171
0.375200,-0.984994
0.375300,-0.945720
0.375400,-0.739935
0.375500,-0.522465
0.375600,-0.532202
0.375700,-0.675019
0.375800,-0.924947
0.375900,-0.901252
0.376000,-0.786026
0.376100,-0.608155
0.376200,-0.626331
0.376300,-0.760708
0.376400,-0.861004
0.376500,-0.857758
0.376600,-0.839906
0.376700,-0.813615
0.376800,-0.850942
0.376900,-0.882751
0.377000,-0.906121
0.377100,-0.917806
0.377200,-0.863601
0.377300,-0.869768
0.377400,-0.881777
0.377500,-0.898006
0.377600,-0.832441
0.377700,-0.789596
0.377800,-0.749023
0.377900,-0.846722
0.378000,-0.932737
0.378100,-0.907419
0.378200,-0.861653
0.378300,-0.742856
0.378400,-0.788298
0.378500,-0.832116
0.378600,-0.814913
0.378700,-0.857434
0.378800,-0.875610
0.378900,-0.902550
0.379000,-0.921701
0.379100,-0.962274
0.379200,-0.964546
0.379300,-1.013882
0.379400,-1.004794
0.379500,-1.056402
0.379600,-1.098923
0.379700,-1.134627
0.379800,-1.162541
0.379900,-1.156374
0.380000,-1.262837
0.380100,-1.250178
0.380200,-1.409872
0.380300,-1.642598
0.380400,-1.812679
0.380500,-1.720498
0.380600,-1.522178
0.380700,-1.355667
0.380800,-1.470569
0.380900,-1.776975
0.381000,-1.967181
0.381100,-1.989577
0.381200,-1.918169
0.381300,-1.795477
0.381400,-1.845138
0.381500,-2.003859
0.381600,-2.185301
0.381700,-2.214838
0.381800,-2.197959
0.381900,-2.156413
0.382000,-2.177186
0.382100,-2.220356
0.382200,-2.293387
0.382300,-2.334934
0.382400,-2.292089
0.382500,-2.293387
0.382600,-2.269692
0.382700,-2.359602
0.382800,-2.391086
0.382900,-2.310590
0.383000,-2.293387
0.383100,-2.291439
0.383200,-2.291764
0.383300,-2.267096
0.383400,-2.161931
0.383500,-1.993472
0.383600,-2.015868
0.383700,-2.217759
0.383800,-2.404070
0.383900,-2.425492
0.384000,-2.274886
0.384100,-2.096689
0.384200,-2.116814
0.384300,-2.287220
0.384400,-2.540395
0.384500,-2.612452
0.384600,-2.593302
0.384700,-2.495602
0.384800,-2.467364
0.384900,-2.494629
0.385000,-2.583889
0.385100,-2.607584
0.385200,-2.593627
0.385300,-2.598495
0.385400,-2.570906
0.385500,-2.599145
0.385600,-2.530982
0.385700,-2.396604
0.385800,-2.306046
0.385900,-2.286246
0.386000,-2.293387
0.386100,-2.300528
0.386200,-2.243076
0.386300,-2.083382
0.386400,-2.050923
0.386500,-1.813004
0.386600,-1.865911
0.386700,-1.871104
0.386800,-1.850980
0.386900,-1.755553
0.387000,-1.671486
0.387100,-1.587744
0.387200,-1.545223
0.387300,-1.513414
0.387400,-1.504651
0.387500,-1.483877
0.387600,-1.515686
0.387700,-1.440708
0.387800,-1.410846
0.387900,-1.330350
0.388000,-1.343333
0.388100,-1.274522
0.388200,-1.328402
0.388300,-1.286856
0.388400,-1.302111
0.388500,-1.279066
0.388600,-0.972985
0.388700,-0.731496
0.388800,-0.754866
0.388900,-0.974932
0.389000,-1.190455
0.389100,-1.084641
0.389200,-1.008040
0.389300,-0.687677
0.389400,-0.666255
0.389500,-0.728575
0.389600,-0.877558
0.389700,-0.948966
0.389800,-0.839906
0.389900,-0.668527
0.390000,-0.663009
0.390100,-0.690923
0.390200,-0.708450
0.390300,-0.725329
0.390400,-0.715267
0.390500,-0.680861
0.390600,-0.650350
0.390700,-0.696441
0.390800,-0.701634
0.390900,-0.726952
0.391000,-0.865548
0.391100,-0.918780
0.391200,-1.007390
0.391300,-1.002846
0.391400,-1.004145
0.391500,-0.947667
0.391600,-0.971362
0.391700,-0.944097
0.391800,-1.261863
0.391900,-1.362159
0.392000,-1.279715
0.392100,-1.043744
0.392200,-0.970713
0.392300,-0.957405
0.392400,-1.126837
0.392500,-1.262512
0.392600,-1.171629
0.392700,-1.000899
0.392800,-0.816536
0.392900,-0.851267
0.393000,-0.959028
0.393100,-1.000899
0.393200,-0.906445
0.393300,-0.913586
0.393400,-0.871391
0.393500,-0.969739
0.393600,-1.001548
0.393700,-1.054130
0.393800,-1.057701
0.393900,-1.052832
0.394000,-1.127486
0.394100,-1.169357
0.394200,-1.213825
0.394300,-1.171629
0.394400,-1.153452
0.394500,-1.152154
0.394600,-1.285557
0.394700,-1.357615
0.394800,-1.349500
0.394900,-1.193701
0.395000,-1.208307
0.395100,-1.252450
0.395200,-1.284259
0.395300,-1.244660
0.395400,-1.296269
0.395500,-1.318340
0.395600,-1.330025
0.395700,-1.340412
0.395800,-1.359562
0.395900,-1.384230
0.396000,-1.369300
0.396100,-1.402083
0.396200,-1.411820
0.396300,-1.432918
0.396400,-1.460183
0.396500,-1.460507
0.396600,-1.545548
0.396700,-1.582550
0.396800,-1.665319
0.396900,-1.800345
0.397000,-2.065854
0.397100,-2.138236
0.397200,-2.021062
0.397300,-1.847734
0.397400,-1.771133
0.397500,-1.960689
0.397600,-2.263201
0.397700,-2.339478
0.397800,-2.329416
0.397900,-2.147000
0.398000,-2.124604
0.398100,-2.181730
0.398200,-2.381024
0.398300,-2.517674
0.398400,-2.520595
0.398500,-2.513130
0.398600,-2.464442
0.398700,-2.528061
0.398800,-2.575450
0.398900,-2.582591
0.399000,-2.607584
0.399100,-2.625111
0.399200,-2.645885
0.399300,-2.663087
0.399400,-2.739689
0.399500,-2.734171
0.399600,-2.740014
0.399700,-2.726381
0.399800,-2.754945
0.399900,-2.789026
0.400000,-2.771498
0.400100,-2.711775
0.400200,-2.592977
0.400300,-2.673799
0.400400,-2.909771
0.400500,-3.031815
0.400600,-3.031815
0.400700,-2.856215
0.400800,-2.708854
0.400900,-2.761761
0.401000,-2.954564
0.401100,-3.131787
0.401200,-3.181773
0.401300,-3.076608
0.401400,-2.965600
0.401500,-2.987022
0.401600,-3.035710
0.401700,-3.087643
0.401800,-3.093486
0.401900,-3.079204
0.402000,-3.076608
0.402100,-3.055834
0.402200,-3.054860
0.402300,-2.928922
0.402400,-2.777016
0.402500,-2.734496
0.402600,-2.737093
0.402700,-2.728978
0.402800,-2.704310
0.402900,-2.596872
0.403000,-2.451134
0.403100,-2.394332
0.403200,-2.177186
0.403300,-2.229769
0.403400,-2.222952
0.403500,-2.107401
0.403600,-2.005806
0.403700,-1.936995
0.403800,-1.848384
0.403900,-1.819171
0.404000,-1.794503
0.404100,-1.788336
0.404200,-1.732183
0.404300,-1.715954
0.404400,-1.675056
0.404500,-1.641624
0.404600,-1.589691
0.404700,-1.597481
0.404800,-1.555935
0.404900,-1.605596
0.405000,-1.530617
0.405100,-1.598130
0.405200,-1.395591
0.405300,-1.188183
0.405400,-0.990512
0.405500,-1.079123
0.405600,-1.365080
0.405700,-1.459534
0.405800,-1.241739
0.405900,-1.056727
0.406000,-0.814264
0.406100,-0.874961
0.406200,-1.041796
0.406300,-1.139820
0.406400,-1.119047
0.406500,-0.948966
0.406600,-0.772718
0.406700,-0.690598
0.406800,-0.834713
0.406900,-0.786999
0.407000,-0.847047
0.407100,-0.807773
0.407200,-0.785701
0.407300,-0.720785
0.407400,-0.720135
0.407500,-0.723057
0.407600,-0.664632
0.407700,-0.763305
0.407800,-0.738637
0.407900,-0.728250
0.408000,-0.758761
0.408100,-0.753243
0.408200,-0.731820
0.408300,-0.707152
0.408400,-0.739286
0.408500,-0.958379
0.408600,-1.050560
0.408700,-0.928842
0.408800,-0.698713
0.408900,-0.642236
0.409000,-0.768174
0.409100,-1.021672
0.409200,-1.126512
0.409300,-1.022970
0.409400,-0.822703
0.409500,-0.721109
0.409600,-0.826923
0.409700,-0.966818
0.409800,-1.012908
0.409900,-0.935982
0.410000,-0.941825
0.410100,-0.940851
0.410200,-1.067114
0.410300,-1.130083
0.410400,-1.159620
0.410500,-1.156049
0.410600,-1.153777
0.410700,-1.250503
0.410800,-1.320937
0.410900,-1.354044
0.411000,-1.331648
0.411100,-1.332297
0.411200,-1.392994
0.411300,-1.551715
0.411400,-1.604297
0.411500,-1.624097
0.411600,-1.619553
0.411700,-1.552364
0.411800,-1.602999
0.411900,-1.626694
0.412000,-1.613386
0.412100,-1.619877
0.412200,-1.648441
0.412300,-1.668565
0.412400,-1.678627
0.412500,-1.679276
0.412600,-1.702321
0.412700,-1.693558
0.412800,-1.682197
0.412900,-1.697777
0.413000,-1.689663
0.413100,-1.705567
0.413200,-1.705892
0.413300,-1.742245
0.413400,-1.784441
0.413500,-1.843839
0.413600,-2.020088
0.413700,-2.249893
0.413800,-2.370962
0.413900,-2.130446
0.414000,-2.025930
0.414100,-1.991525
0.414200,-2.290790
0.414300,-2.533903
0.414400,-2.652701
0.414500,-2.563765
0.414600,-2.386218
0.414700,-2.357005
0.414800,-2.454056
0.414900,-2.621216
0.415000,-2.721188
0.415100,-2.706582
0.415200,-2.654324
0.415300,-2.569607
0.415400,-2.624462
0.415500,-2.651402
0.415600,-2.697169
0.415700,-2.678343
0.415800,-2.670228
0.415900,-2.666009
0.416000,-2.645885
0.416100,-2.707555
0.416200,-2.701064
0.416300,-2.738391
0.416400,-2.712424
0.416500,-2.761436
0.416600,-2.777016
0.416700,-2.755269
0.416800,-2.616672
0.416900,-2.550132
0.417000,-2.659517
0.417100,-2.913666
0.417200,-2.997084
0.417300,-2.925676
0.417400,-2.671851
0.417500,-2.542992
0.417600,-2.603364
0.417700,-2.832196
0.417800,-2.984101
0.417900,-2.977285
0.418000,-2.832845
0.418100,-2.715345
0.418200,-2.714372
0.418300,-2.777666
0.418400,-2.843232
0.418500,-2.809799
0.418600,-2.792921
0.418700,-2.806554
0.418800,-2.776692
0.418900,-2.766954
0.419000,-2.682563
0.419100,-2.550457
0.419200,-2.537798
0.419300,-2.535202
0.419400,-2.543965
0.419500,-2.538772
0.419600,-2.380051
0.419700,-2.259955
0.419800,-2.063257
0.419900,-1.980489
0.420000,-1.986007
0.420100,-1.951276
0.420200,-1.858121
0.420300,-1.698426
0.420400,-1.590665
0.420500,-1.513090
0.420600,-1.457911
0.420700,-1.462130
0.420800,-1.432918
0.420900,-1.442331
0.421000,-1.388450
0.421100,-1.367352
0.421200,-1.323534
0.421300,-1.346254
0.421400,-1.289777
0.421500,-1.350149
0.421600,-1.312822
0.421700,-1.356641
0.421800,-1.294970
0.421900,-1.118073
0.422000,-0.994732
0.422100,-0.717863
0.422200,-1.090159
0.422300,-1.258617
0.422400,-1.372870
0.422500,-1.094054
0.422600,-0.936632
0.422700,-0.869119
0.422800,-0.900928
0.422900,-1.141443
0.423000,-1.271925
0.423100,-1.221615
0.423200,-1.093729
0.423300,-1.006092
0.423400,-0.995706
0.423500,-0.937281
0.423600,-1.092106
0.423700,-1.040822
0.423800,-1.095352
0.423900,-0.986293
0.424000,-0.972660
0.424100,-0.939877
0.424200,-0.927868
0.424300,-0.960975
0.424400,-0.962923
0.424500,-1.068087
0.424600,-0.957405
0.424700,-1.109958
0.424800,-1.032383
0.424900,-0.981099
0.425000,-0.941500
0.425100,-1.001548
0.425200,-1.310875
0.425300,-1.276469
0.425400,-1.178770
0.425500,-0.962923
0.425600,-0.997328
0.425700,-1.147935
0.425800,-1.456612
0.425900,-1.521204
0.426000,-1.426426
0.426100,-1.253748
0.426200,-1.245634
0.426300,-1.417662
0.426400,-1.534512
0.426500,-1.560803
0.426600,-1.552364
0.426700,-1.563075
0.426800,-1.573137
0.426900,-1.652011
0.427000,-1.696803
0.427100,-1.696479
0.427200,-1.718550
0.427300,-1.794178
0.427400,-1.871104
0.427500,-1.936670
0.427600,-1.926933
0.427700,-1.957443
0.427800,-1.967830
0.427900,-2.101558
0.428000,-2.248919
0.428100,-2.263525
0.428200,-2.259306
0.428300,-2.282351
0.428400,-2.237883
0.428500,-2.273263
0.428600,-2.256709
0.428700,-2.281702
0.428800,-2.291439
0.428900,-2.293062
0.429000,-2.314809
0.429100,-2.339153
0.429200,-2.376156
0.429300,-2.380700
0.429400,-2.423869
0.429500,-2.422571
0.429600,-2.391086
0.429700,-2.448213
0.429800,-2.447564
0.429900,-2.493006
0.430000,-2.512156
0.430100,-2.541369
0.430200,-2.602390
0.430300,-2.824406
0.430400,-3.066870
0.430500,-3.027595
0.430600,-2.802659
0.430700,-2.642963
0.430800,-2.657245
0.430900,-2.973065
0.431000,-3.123023
0.431100,-3.144770
0.431200,-2.998058
0.431300,-2.786754
0.431400,-2.725408
0.431500,-2.809150
0.431600,-2.936387
0.431700,-2.948072
0.431800,-2.906850
0.431900,-2.823432
0.432000,-2.792272
0.432100,-2.753971
0.432200,-2.819537
0.432300,-2.797465
0.432400,-2.798439
0.432500,-2.795842
0.432600,-2.800386
0.432700,-2.832845
0.432800,-2.919833
0.432900,-2.864329
0.433000,-2.837714
0.433100,-2.824081
0.433200,-2.868224
0.433300,-2.923404
0.433400,-2.800711
0.433500,-2.667632
0.433600,-2.575774
0.433700,-2.746506
0.433800,-2.925027
0.433900,-2.971442
0.434000,-2.809150
0.434100,-2.579669
0.434200,-2.527412
0.434300,-2.673799
0.434400,-2.896139
0.434500,-2.988645
0.434600,-2.933790
0.434700,-2.810124
0.434800,-2.740014
0.434900,-2.777016
0.435000,-2.840310
0.435100,-2.839337
0.435200,-2.833494
0.435300,-2.802659
0.435400,-2.816616
0.435500,-2.804606
0.435600,-2.759164
0.435700,-2.666333
0.435800,-2.556624
0.435900,-2.535202
0.436000,-2.522218
0.436100,-2.512156
0.436200,-2.513454
0.436300,-2.350514
0.436400,-2.280728
0.436500,-2.043133
0.436600,-2.064556
0.436700,-2.107076
0.436800,-2.072670
0.436900,-1.997692
0.437000,-1.915897
0.437100,-1.779897
0.437200,-1.750360
0.437300,-1.757176
0.437400,-1.769185
0.437500,-1.778598
0.437600,-1.779572
0.437700,-1.798073
0.437800,-1.772431
0.437900,-1.722770
0.438000,-1.773405
0.438100,-1.703620
0.438200,-1.849033
0.438300,-1.824040
0.438400,-1.969778
0.438500,-1.927257
0.438600,-1.704918
0.438700,-1.493615
0.438800,-1.495887
0.438900,-1.698102
0.439000,-1.998665
0.439100,-1.994770
0.439200,-1.859419
0.439300,-1.707839
0.439400,-1.597806
0.439500,-1.746465
0.439600,-1.849682
0.439700,-2.029176
0.439800,-1.883114
0.439900,-1.752632
0.440000,-1.664670
0.440100,-1.699076
0.440200,-1.757825
0.440300,-1.794178
0.440400,-1.845787
0.440500,-1.767562
0.440600,-1.669214
0.440700,-1.645844
0.440800,-1.600078
0.440900,-1.640651
0.441000,-1.630264
0.441100,-1.710111
0.441200,-1.625071
0.441300,-1.744517
0.441400,-1.693233
0.441500,-1.676355
0.441600,-1.619877
0.441700,-1.622149
0.441800,-1.773080
0.441900,-1.996069
0.442000,-1.940565
0.442100,-1.729262
0.442200,-1.603324
0.442300,-1.597481
0.442400,-1.840594
0.442500,-2.057415
0.442600,-2.064880
0.442700,-1.924661
0.442800,-1.740622
0.442900,-1.789309
0.443000,-1.956794
0.443100,-2.068451
0.443200,-2.064880
0.443300,-2.103506
0.443400,-2.096365
0.443500,-2.198284
0.443600,-2.244375
0.443700,-2.325196
0.443800,-2.329740
0.443900,-2.315134
0.444000,-2.379401
0.444100,-2.455354
0.444200,-2.481321
0.444300,-2.416079
0.444400,-2.417053
0.444500,-2.397578
0.444600,-2.506314
0.444700,-2.603689
0.444800,-2.561493
0.444900,-2.541044
0.445000,-2.374533
0.445100,-2.416079
0.445200,-2.416079
0.445300,-2.368041
0.445400,-2.368690
0.445500,-2.347917
0.445600,-2.333635
0.445700,-2.334609
0.445800,-2.311239
0.445900,-2.309291
0.446000,-2.275210
0.446100,-2.246971
0.446200,-2.276509
0.446300,-2.260929
0.446400,-2.273912
0.446500,-2.248919
0.446600,-2.285597
0.446700,-2.289816
0.446800,-2.311564
0.446900,-2.374533
0.447000,-2.598820
0.447100,-2.726706
0.447200,-2.586486
0.447300,-2.321626
0.447400,-2.202179
0.447500,-2.273263
0.447600,-2.542342
0.447700,-2.703985
0.447800,-2.672176
0.447900,-2.517349
0.448000,-2.391086
0.448100,-2.369339
0.448200,-2.525464
0.448300,-2.662763
0.448400,-2.726381
0.448500,-2.653350
0.448600,-2.603040
0.448700,-2.568634
0.448800,-2.566686
0.448900,-2.588109
0.449000,-2.554677
0.449100,-2.524166
0.449200,-2.504691
0.449300,-2.486189
0.449400,-2.525464
0.449500,-2.550782
0.449600,-2.507287
0.449700,-2.490084
0.449800,-2.475478
0.449900,-2.512481
0.450000,-2.555975
0.450100,-2.449511
0.450200,-2.343373
0.450300,-2.379077
0.450400,-2.596223
0.450500,-2.768577
0.450600,-2.830897
0.450700,-2.632577
0.450800,-2.454705
0.450900,-2.457626
0.451000,-2.606285
0.451100,-2.829274
0.451200,-2.913666
0.451300,-2.848100
0.451400,-2.726706
0.451500,-2.669904
0.451600,-2.698143
0.451700,-2.771498
0.451800,-2.770525
0.451900,-2.755918
0.452000,-2.768253
0.452100,-2.767603
0.452200,-2.787728
0.452300,-2.721188
0.452400,-2.634524
0.452500,-2.529684
0.452600,-2.512156
0.452700,-2.527736
0.452800,-2.524490
0.452900,-2.470609
0.453000,-2.305721
0.453100,-2.184652
0.453200,-2.046379
0.453300,-2.103830
0.453400,-2.112919
0.453500,-2.105453
0.453600,-1.998990
0.453700,-1.985033
0.453800,-1.857147
0.453900,-1.847410
0.454000,-1.807811
0.454100,-1.828909
0.454200,-1.861367
0.454300,-1.837348
0.454400,-1.921090
0.454500,-1.800670
0.454600,-1.869157
0.454700,-1.791906
0.454800,-1.856498
0.454900,-1.868508
0.455000,-1.901940
0.455100,-1.983735
0.455200,-1.800345
0.455300,-1.714655
0.455400,-1.330350
0.455500,-1.568918
0.455600,-1.774054
0.455700,-2.034045
0.455800,-1.869157
0.455900,-1.668565
0.456000,-1.518283
0.456100,-1.388775
0.456200,-1.661749
0.456300,-1.749710
0.456400,-1.761720
0.456500,-1.677004
0.456600,-1.424479
0.456700,-1.460832
0.456800,-1.348526
0.456900,-1.497185
0.457000,-1.463104
0.457100,-1.471543
0.457200,-1.415390
0.457300,-1.360861
0.457400,-1.368975
0.457500,-1.325156
0.457600,-1.354369
0.457700,-1.385529
0.457800,-1.487772
0.457900,-1.484851
0.458000,-1.488097
0.458100,-1.539381
0.458200,-1.395591
0.458300,-1.471868
0.458400,-1.440059
0.458500,-1.798398
0.458600,-1.839620
0.458700,-1.824689
0.458800,-1.608842
0.458900,-1.537758
0.459000,-1.544574
0.459100,-1.789634
0.459200,-1.975295
0.459300,-1.872403
0.459400,-1.692584
0.459500,-1.521529
0.459600,-1.522178
0.459700,-1.635133
0.459800,-1.667916
0.459900,-1.620202
0.460000,-1.616956
0.460100,-1.548469
0.460200,-1.640001
0.460300,-1.697128
0.460400,-1.766264
0.460500,-1.739973
0.460600,-1.754579
0.460700,-1.829558
0.460800,-1.909730
0.460900,-1.951925
0.461000,-1.949004
0.461100,-1.944460
0.461200,-1.966207
0.461300,-2.114217
0.461400,-2.182379
0.461500,-2.165826
0.461600,-2.164852
0.461700,-2.042484
0.461800,-2.078188
0.461900,-2.091172
0.462000,-2.081759
0.462100,-2.082732
0.462200,-2.077539
0.462300,-2.100584
0.462400,-2.112919
0.462500,-2.114542
0.462600,-2.125902
0.462700,-2.132718
0.462800,-2.144728
0.462900,-2.156088
0.463000,-2.184002
0.463100,-2.205749
0.463200,-2.230418
0.463300,-2.273587
0.463400,-2.270017
0.463500,-2.310265
0.463600,-2.357005
0.463700,-2.684510
0.463800,-2.750725
0.463900,-2.630305
0.464000,-2.362848
0.464100,-2.295659
0.464200,-2.493006
0.464300,-2.732548
0.464400,-2.926000
0.464500,-2.827327
0.464600,-2.684510
0.464700,-2.543641
0.464800,-2.642963
0.464900,-2.815966
0.465000,-2.954564
0.465100,-2.945151
0.465200,-2.909447
0.465300,-2.876664
0.465400,-2.936712
0.465500,-2.948072
0.465600,-2.957810
0.465700,-2.903604
0.465800,-2.853294
0.465900,-2.833494
0.466000,-2.809150
0.466100,-2.822134
0.466200,-2.836415
0.466300,-2.745532
0.466400,-2.686458
0.466500,-2.667307
0.466600,-2.680615
0.466700,-2.628682
0.466800,-2.437502
0.466900,-2.317731
0.467000,-2.370962
0.467100,-2.568634
0.467200,-2.694897
0.467300,-2.710801
0.467400,-2.499497
0.467500,-2.346943
0.467600,-2.367716
0.467700,-2.582591
0.467800,-2.766630
0.467900,-2.814993
0.468000,-2.722162
0.468100,-2.662438
0.468200,-2.678018
0.468300,-2.736119
0.468400,-2.812396
0.468500,-2.813045
0.468600,-2.799413
0.468700,-2.839337
0.468800,-2.827327
0.468900,-2.809799
0.469000,-2.771174
0.469100,-2.680615
0.469200,-2.623164
0.469300,-2.595250
0.469400,-2.575125
0.469500,-2.535851
0.469600,-2.403096
0.469700,-2.355707
0.469800,-2.356356
0.469900,-2.182704
0.470000,-2.188547
0.470100,-2.170694
0.470200,-2.120059
0.470300,-2.008403
0.470400,-1.908756
0.470500,-1.836049
0.470600,-1.765290
0.470700,-1.714331
0.470800,-1.703944
0.470900,-1.651037
0.471000,-1.656880
0.471100,-1.548145
0.471200,-1.544250
0.471300,-1.487772
0.471400,-1.533863
0.471500,-1.470245
0.471600,-1.526073
0.471700,-1.541328
0.471800,-1.527371
0.471900,-1.467973
0.472000,-1.217071
0.472100,-1.097300
0.472200,-1.229405
0.472300,-1.607868
0.472400,-1.757500
0.472500,-1.652336
0.472600,-1.437787
0.472700,-1.244335
0.472800,-1.323209
0.472900,-1.443954
0.473000,-1.619553
0.473100,-1.627018
0.473200,-1.515037
0.473300,-1.469920
0.473400,-1.402732
0.473500,-1.480307
0.473600,-1.540030
0.473700,-1.616307
0.473800,-1.615658
0.473900,-1.661749
0.474000,-1.683496
0.474100,-1.745491
0.474200,-1.790608
0.474300,-1.881816
0.474400,-1.893501
0.474500,-2.080460
0.474600,-2.001911
0.474700,-2.181730
0.474800,-2.116814
0.474900,-2.130771
0.475000,-2.085005
0.475100,-2.196661
0.475200,-2.444318
0.475300,-2.465741
0.475400,-2.412834
0.475500,-2.226847
0.475600,-2.122656
0.475700,-2.197310
0.475800,-2.400499
0.475900,-2.478075
0.476000,-2.321626
0.476100,-2.076241
0.476200,-1.974322
0.476300,-2.017491
0.476400,-2.064880
0.476500,-2.068775
0.476600,-2.010026
0.476700,-1.987305
0.476800,-1.945434
0.476900,-1.980164
0.477000,-2.023658
0.477100,-2.067152
0.477200,-2.008078
0.477300,-1.979515
0.477400,-1.997043
0.477500,-1.983085
0.477600,-1.947381
0.477700,-1.892851
0.477800,-1.842866
0.477900,-1.858770
0.478000,-1.976918
0.478100,-1.962961
0.478200,-1.955171
0.478300,-1.905510
0.478400,-1.847734
0.478500,-1.906484
0.478600,-1.885386
0.478700,-1.898045
0.478800,-1.920766
0.478900,-1.922388
0.479000,-1.910703
0.479100,-1.922713
0.479200,-1.941539
0.479300,-1.936670
0.479400,-1.951925
0.479500,-1.969453
0.479600,-1.993472
0.479700,-2.006780
0.479800,-1.988603
0.479900,-2.004833
0.480000,-1.964909
0.480100,-2.036642
0.480200,-2.012947
0.480300,-2.238532
0.480400,-2.476452
0.480500,-2.521569
0.480600,-2.320003
0.480700,-2.132394
0.480800,-2.198609
0.480900,-2.383946
0.481000,-2.742611
0.481100,-2.780911
0.481200,-2.759164
0.481300,-2.604662
0.481400,-2.623488
0.481500,-2.745207
0.481600,-2.897762
0.481700,-3.000330
0.481800,-2.925676
0.481900,-2.879585
0.482000,-2.801036
0.482100,-2.827976
0.482200,-2.808826
0.482300,-2.808501
0.482400,-2.754945
0.482500,-2.698143
0.482600,-2.731899
0.482700,-2.745856
0.482800,-2.768902
0.482900,-2.755594
0.483000,-2.765981
0.483100,-2.796491
0.483200,-2.843556
0.483300,-2.924378
0.483400,-2.892893
0.483500,-2.822458
0.483600,-2.807852
0.483700,-2.964951
0.483800,-3.193133
0.483900,-3.369383
0.484000,-3.302518
0.484100,-3.138603
0.484200,-3.069142
0.484300,-3.193458
0.484400,-3.394051
0.484500,-3.517718
0.484600,-3.484286
0.484700,-3.366786
0.484800,-3.277201
0.484900,-3.281745
0.485000,-3.321344
0.485100,-3.386910
0.485200,-3.384638
0.485300,-3.347636
0.485400,-3.314203
0.485500,-3.261945
0.485600,-3.188914
0.485700,-3.073362
0.485800,-2.928597
0.485900,-2.849074
0.486000,-2.823107
0.486100,-2.785780
0.486200,-2.751050
0.486300,-2.575774
0.486400,-2.468662
0.486500,-2.208346
0.486600,-2.226198
0.486700,-2.227821
0.486800,-2.212890
0.486900,-2.137587
0.487000,-2.045405
0.487100,-1.949004
0.487200,-1.865586
0.487300,-1.849682
0.487400,-1.869481
0.487500,-1.854551
0.487600,-1.844489
0.487700,-1.905186
0.487800,-1.829558
0.487900,-1.818197
0.488000,-1.777625
0.488100,-1.747438
0.488200,-1.808460
0.488300,-1.789309
0.488400,-1.953548
0.488500,-1.823391
0.488600,-1.785739
0.488700,-1.403381
0.488800,-1.443629
0.488900,-1.512765
0.489000,-1.859744
0.489100,-1.856498
0.489200,-1.617930
0.489300,-1.492316
0.489400,-1.360536
0.489500,-1.469920
0.489600,-1.664345
0.489700,-1.674407
0.489800,-1.580278
0.489900,-1.407600
0.490000,-1.374168
0.490100,-1.318016
0.490200,-1.434541
0.490300,-1.439734
0.490400,-1.509195
0.490500,-1.507896
0.490600,-1.476736
0.490700,-1.509844
0.490800,-1.536784
0.490900,-1.559180
0.491000,-1.546197
0.491100,-1.734130
0.491200,-1.664670
0.491300,-1.738350
0.491400,-1.731534
0.491500,-1.652336
0.491600,-1.639028
0.491700,-1.617930
0.491800,-1.797099
0.491900,-2.002236
0.492000,-1.983085
0.492100,-1.914274
0.492200,-1.681223
0.492300,-1.735104
0.492400,-1.899343
0.492500,-2.190494
0.492600,-2.187573
0.492700,-2.056441
0.492800,-1.882465
0.492900,-1.874999
0.493000,-1.971076
0.493100,-2.072346
0.493200,-2.022685
0.493300,-1.977568
0.493400,-1.931801
0.493500,-1.943162
0.493600,-1.974971
0.493700,-1.970427
0.493800,-1.962312
0.493900,-1.909730
0.494000,-1.909405
0.494100,-1.968155
0.494200,-1.952575
0.494300,-1.904536
0.494400,-1.852603
0.494500,-1.827610
0.494600,-1.877271
0.494700,-1.977243
0.494800,-1.969778
0.494900,-1.947706
0.495000,-1.782493
0.495100,-1.799047
0.495200,-1.811706
0.495300,-1.778274
0.495400,-1.779897
0.495500,-1.764641
0.495600,-1.759772
0.495700,-1.722121
0.495800,-1.728613
0.495900,-1.734455
0.496000,-1.730560
0.496100,-1.768536
0.496200,-1.752307
0.496300,-1.777949
0.496400,-1.821443
0.496500,-1.812355
0.496600,-1.831181
0.496700,-1.922064
0.496800,-1.908756
0.496900,-1.985682
0.497000,-2.207048
0.497100,-2.453731
0.497200,-2.365769
0.497300,-2.162580
0.497400,-1.996069
0.497500,-2.068451
0.497600,-2.375182
0.497700,-2.603689
0.497800,-2.698143
0.497900,-2.527736
0.498000,-2.423220
0.498100,-2.491058
0.498200,-2.702362
0.498300,-2.927299
0.498400,-3.027271
0.498500,-2.980206
0.498600,-2.903280
0.498700,-2.968521
0.498800,-3.031490
0.498900,-3.104846
0.499000,-3.127892
0.499100,-3.155482
0.499200,-3.175606
0.499300,-3.248637
0.499400,-3.321993
0.499500,-3.315826
0.499600,-3.378147
0.499700,-3.329459
0.499800,-3.406385
0.499900,-3.478768
0.500000,-3.530701
0.500100,-3.464811
0.500200,-3.392753
0.500300,-3.435273
0.500400,-3.597891
0.500500,-3.812441
0.500600,-3.943574
0.500700,-3.792642
0.500800,-3.606654
0.500900,-3.589451
0.501000,-3.783878
0.501100,-4.016930
0.501200,-4.150011
0.501300,-4.124368
0.501400,-3.997780
0.501500,-3.888070
0.501600,-3.914037
0.501700,-3.965970
0.501800,-3.960128
0.501900,-3.916958
0.502000,-3.866647
0.502100,-3.820556
0.502200,-3.743954
0.502300,-3.624831
0.502400,-3.481040
0.502500,-3.371330
0.502600,-3.317125
0.502700,-3.292781
0.502800,-3.251883
0.502900,-3.186966
0.503000,-2.981504
0.503100,-2.870821
0.503200,-2.716968
0.503300,-2.584863
0.503400,-2.553054
0.503500,-2.465416
0.503600,-2.319029
0.503700,-2.143105
0.503800,-1.959715
0.503900,-1.831181
0.504000,-1.763018
0.504100,-1.729586
0.504200,-1.687066
0.504300,-1.664021
0.504400,-1.674732
0.504500,-1.660450
0.504600,-1.603648
0.504700,-1.671486
0.504800,-1.625071
0.504900,-1.724718
0.505000,-1.667916
0.505100,-1.752632
0.505200,-1.653634
0.505300,-1.592612
0.505400,-1.397863
0.505500,-1.441357
0.505600,-1.708164
0.505700,-2.053195
0.505800,-1.937644
0.505900,-1.785739
0.506000,-1.532889
0.506100,-1.612087
0.506200,-1.762694
0.506300,-2.020412
0.506400,-2.095716
0.506500,-1.984384
0.506600,-1.835076
0.506700,-1.796126
0.506800,-1.886684
0.506900,-1.983085
0.507000,-2.082732
0.507100,-2.049625
0.507200,-2.066828
0.507300,-2.053845
0.507400,-2.113892
0.507500,-2.162255
0.507600,-2.204127
0.507700,-2.296957
0.507800,-2.362848
0.507900,-2.452108
0.508000,-2.555650
0.508100,-2.632252
0.508200,-2.554677
0.508300,-2.594276
0.508400,-2.603364
0.508500,-2.747155
0.508600,-2.945476
0.508700,-2.859461
0.508800,-2.727355
0.508900,-2.441397
0.509000,-2.521244
0.509100,-2.639717
0.509200,-2.817914
0.509300,-2.733198
0.509400,-2.568634
0.509500,-2.311888
0.509600,-2.246647
0.509700,-2.284623
0.509800,-2.347592
0.509900,-2.305396
0.510000,-2.272614
0.510100,-2.201205
0.510200,-2.197959
0.510300,-2.175563
0.510400,-2.208346
0.510500,-2.152518
0.510600,-2.104479
0.510700,-2.091172
0.510800,-2.099611
0.510900,-2.073320
0.511000,-2.000938
0.511100,-1.944460
0.511200,-1.887658
0.511300,-1.941863
0.511400,-1.981463
0.511500,-1.907133
0.511600,-1.851954
0.511700,-1.668240
0.511800,-1.678951
0.511900,-1.665319
0.512000,-1.621500
0.512100,-1.609491
0.512200,-1.553013
0.512300,-1.520231
0.512400,-1.532889
0.512500,-1.496536
0.512600,-1.470894
0.512700,-1.468622
0.512800,-1.458235
0.512900,-1.475763
0.513000,-1.434541
0.513100,-1.461806
0.513200,-1.455639
0.513300,-1.527371
0.513400,-1.566970
0.513500,-1.609491
0.513600,-1.778923
0.513700,-2.087926
0.513800,-2.307669
0.513900,-2.206074
0.514000,-2.051572
0.514100,-1.982436
0.514200,-2.142780
0.514300,-2.517674
0.514400,-2.718591
0.514500,-2.751699
0.514600,-2.608557
0.514700,-2.523517
0.514800,-2.561168
0.514900,-2.834143
0.515000,-2.974688
0.515100,-2.998383
0.515200,-2.947098
0.515300,-2.879260
0.515400,-2.896139
0.515500,-2.924378
0.515600,-2.948397
0.515700,-2.955862
0.515800,-2.977934
0.515900,-2.973714
0.516000,-3.001953
0.516100,-3.075958
0.516200,-3.062326
0.516300,-3.066870
0.516400,-3.094460
0.516500,-3.097056
0.516600,-3.143147
0.516700,-3.105496
0.516800,-2.969495
0.516900,-2.859136
0.517000,-2.943203
0.517100,-3.108417
0.517200,-3.246690
0.517300,-3.251234
0.517400,-3.058431
0.517500,-2.896788
0.517600,-2.887050
0.517700,-3.003251
0.517800,-3.179176
0.517900,-3.275253
0.518000,-3.215205
0.518100,-3.126918
0.518200,-3.074335
0.518300,-3.088293
0.518400,-3.141849
0.518500,-3.179501
0.518600,-3.197678
0.518700,-3.196055
0.518800,-3.175606
0.518900,-3.154508
0.519000,-3.079853
0.519100,-2.988970
0.519200,-2.891270
0.519300,-2.888024
0.519400,-2.901332
0.519500,-2.921132
0.519600,-2.845504
0.519700,-2.689054
0.519800,-2.558247
0.519900,-2.434581
0.520000,-2.486189
0.520100,-2.463793
0.520200,-2.439125
0.520300,-2.332986
0.520400,-2.280079
0.520500,-2.192442
0.520600,-2.146351
0.520700,-2.114217
0.520800,-2.137262
0.520900,-2.100584
0.521000,-2.111296
0.521100,-2.071372
0.521200,-2.024957
0.521300,-1.950952
0.521400,-1.938293
0.521500,-1.989253
0.521600,-1.931152
0.521700,-1.950303
0.521800,-1.907458
0.521900,-1.780870
0.522000,-1.533214
0.522100,-1.279715
0.522200,-1.280040
0.522300,-1.487123
0.522400,-1.718875
0.522500,-1.453367
0.522600,-1.241739
0.522700,-1.009987
0.522800,-0.995056
0.522900,-1.145987
0.523000,-1.275495
0.523100,-1.251801
0.523200,-1.087238
0.523300,-0.913586
0.523400,-0.946044
0.523500,-0.983371
0.523600,-1.056727
0.523700,-1.088536
0.523800,-1.089185
0.523900,-1.139171
0.524000,-1.156374
0.524100,-1.220966
0.524200,-1.258942
0.524300,-1.327753
0.524400,-1.386503
0.524500,-1.525099
0.524600,-1.556908
0.524700,-1.608192
0.524800,-1.614359
0.524900,-1.504001
0.525000,-1.500106
0.525100,-1.492316
0.525200,-1.740298
0.525300,-1.841243
0.525400,-1.763992
0.525500,-1.563075
0.525600,-1.427725
0.525700,-1.557557
0.525800,-1.746789
0.525900,-1.935047
0.526000,-1.856498
0.526100,-1.715954
0.526200,-1.567620
0.526300,-1.619228
0.526400,-1.736078
0.526500,-1.793854
0.526600,-1.701023
0.526700,-1.713033
0.526800,-1.657529
0.526900,-1.744192
0.527000,-1.748737
0.527100,-1.793854
0.527200,-1.721472
0.527300,-1.730560
0.527400,-1.799047
0.527500,-1.835076
0.527600,-1.817548
0.527700,-1.774379
0.527800,-1.759772
0.527900,-1.768861
0.528000,-1.877596
0.528100,-1.929529
0.528200,-1.915248
0.528300,-1.914274
0.528400,-1.818847
0.528500,-1.892851
0.528600,-1.918169
0.528700,-1.906808
0.528800,-1.914598
0.528900,-1.925959
0.529000,-1.932775
0.529100,-1.936995
0.529200,-1.927257
0.529300,-1.941539
0.529400,-1.956470
0.529500,-1.978866
0.529600,-2.012298
0.529700,-2.014895
0.529800,-1.976269
0.529900,-2.058064
0.530000,-2.071047
0.530100,-2.148947
0.530200,-2.145702
0.530300,-2.323573
0.530400,-2.618620
0.530500,-2.674773
0.530600,-2.533579
0.530700,-2.276184
0.530800,-2.235936
0.530900,-2.384595
0.531000,-2.736119
0.531100,-2.867575
0.531200,-2.770200
0.531300,-2.593627
0.531400,-2.537474
0.531500,-2.629331
0.531600,-2.822134
0.531700,-2.961056
0.531800,-2.944826
0.531900,-2.912368
0.532000,-2.887700
0.532100,-2.925676
0.532200,-2.962029
0.532300,-2.990593
0.532400,-3.044474
0.532500,-3.040579
0.532600,-3.058755
0.532700,-3.131138
0.532800,-3.183396
0.532900,-3.214556
0.533000,-3.158078
0.533100,-3.226241
0.533200,-3.256752
0.533300,-3.340170
0.533400,-3.327836
0.533500,-3.209363
0.533600,-3.147691
0.533700,-3.225592
0.533800,-3.416123
0.533900,-3.588153
0.534000,-3.536869
0.534100,-3.380743
0.534200,-3.286614
0.534300,-3.359970
0.534400,-3.543036
0.534500,-3.760508
0.534600,-3.845874
0.534700,-3.757587
0.534800,-3.680984
0.534900,-3.701758
0.535000,-3.763754
0.535100,-3.831917
0.535200,-3.881903
0.535300,-3.864375
0.535400,-3.893263
0.535500,-3.872165
0.535600,-3.847172
0.535700,-3.810494
0.535800,-3.683906
0.535900,-3.597566
0.536000,-3.563809
0.536100,-3.514148
0.536200,-3.457021
0.536300,-3.235005
0.536400,-3.060378
0.536500,-2.807527
0.536600,-2.733198
0.536700,-2.681589
0.536800,-2.589082
0.536900,-2.461521
0.537000,-2.286895
0.537100,-2.211592
0.537200,-2.075592
0.537300,-2.005806
0.537400,-1.991849
0.537500,-2.023334
0.537600,-1.963610
0.537700,-2.025281
0.537800,-1.938942
0.537900,-1.972374
0.538000,-1.949329
0.538100,-1.996718
0.538200,-2.082083
0.538300,-2.070074
0.538400,-2.213864
0.538500,-2.054494
0.538600,-2.146026
0.538700,-1.760746
0.538800,-1.804240
0.538900,-1.920116
0.539000,-2.251516
0.539100,-2.347917
0.539200,-2.109673
0.539300,-1.992823
0.539400,-1.759448
0.539500,-1.913625
0.539600,-2.044756
0.539700,-2.124928
0.539800,-1.986656
0.539900,-1.773730
0.540000,-1.709787
0.540100,-1.605920
0.540200,-1.686092
0.540300,-1.740622
0.540400,-1.700698
0.540500,-1.627667
0.540600,-1.590340
0.540700,-1.560479
0.540800,-1.524450
0.540900,-1.514388
0.541000,-1.426751
0.541100,-1.505624
0.541200,-1.487448
0.541300,-1.446875
0.541400,-1.391047
0.541500,-1.323858
0.541600,-1.142417
0.541700,-1.115152
0.541800,-1.113853
0.541900,-1.331648
0.542000,-1.321911
0.542100,-1.235896
0.542200,-0.997653
0.542300,-0.932087
0.542400,-1.079772
0.542500,-1.318340
0.542600,-1.368326
0.542700,-1.285557
0.542800,-1.177472
0.542900,-1.182016
0.543000,-1.337815
0.543100,-1.471868
0.543200,-1.550741
0.543300,-1.542627
0.543400,-1.652985
0.543500,-1.674732
0.543600,-1.792231
0.543700,-1.830532
0.543800,-1.853901
0.543900,-1.851305
0.544000,-1.907782
0.544100,-2.002560
0.544200,-2.041186
0.544300,-2.005482
0.544400,-2.007105
0.544500,-2.015544
0.544600,-2.099286
0.544700,-2.226847
0.544800,-2.238532
0.544900,-2.248594
0.545000,-2.248270
0.545100,-2.157062
0.545200,-2.186599
0.545300,-2.157711
0.545400,-2.151219
0.545500,-2.107401
0.545600,-2.117787
0.545700,-2.115515
0.545800,-2.097339
0.545900,-2.097339
0.546000,-2.061635
0.546100,-2.103830
0.546200,-2.100909
0.546300,-2.100584
0.546400,-2.119410
0.546500,-2.112269
0.546600,-2.153167
0.546700,-2.142456
0.546800,-2.182379
0.546900,-2.190494
0.547000,-2.317731
0.547100,-2.577397
0.547200,-2.479698
0.547300,-2.245024
0.547400,-2.061959
0.547500,-2.105778
0.547600,-2.391736
0.547700,-2.585187
0.547800,-2.642639
0.547900,-2.515077
0.548000,-2.360900
0.548100,-2.372910
0.548200,-2.585187
0.548300,-2.767279
0.548400,-2.890945
0.548500,-2.886726
0.548600,-2.836740
0.548700,-2.883480
0.548800,-2.923728
0.548900,-2.975013
0.549000,-2.992216
0.549100,-2.991242
0.549200,-2.989619
0.549300,-3.048369
0.549400,-3.118479
0.549500,-3.138928
0.549600,-3.155482
0.549700,-3.099004
0.549800,-3.115558
0.549900,-3.197678
0.550000,-3.250260
0.550100,-3.201897
0.550200,-3.041228
0.550300,-3.046097
0.550400,-3.117505
0.550500,-3.250909
0.550600,-3.353478
0.550700,-3.191186
0.550800,-2.956836
0.550900,-2.865628
0.551000,-2.924702
0.551100,-3.084398
0.551200,-3.180150
0.551300,-3.094784
0.551400,-2.955538
0.551500,-2.859136
0.551600,-2.843232
0.551700,-2.864005
0.551800,-2.855241
0.551900,-2.801685
0.552000,-2.787079
0.552100,-2.766954
0.552200,-2.736119
0.552300,-2.665035
0.552400,-2.593302
0.552500,-2.474829
0.552600,-2.411535
0.552700,-2.378103
0.552800,-2.366418
0.552900,-2.343697
0.553000,-2.165826
0.553100,-2.080785
0.553200,-1.853901
0.553300,-1.859095
0.553400,-1.832154
0.553500,-1.790932
0.553600,-1.693882
0.553700,-1.557233
0.553800,-1.409872
0.553900,-1.311199
0.554000,-1.286531
0.554100,-1.241090
0.554200,-1.256020
0.554300,-1.170006
0.554400,-1.239791
0.554500,-1.163839
0.554600,-1.122293
0.554700,-1.081720
0.554800,-1.058350
0.554900,-1.118398
0.555000,-1.080097
0.555100,-1.192078
0.555200,-1.117748
0.555300,-0.929491
0.555400,-0.764279
0.555500,-0.646455
0.555600,-0.963247
0.555700,-1.208631
0.555800,-1.380660
0.555900,-1.016479
0.556000,-0.925271
0.556100,-0.866522
0.556200,-1.006092
0.556300,-1.204087
0.556400,-1.359238
0.556500,-1.261538
0.556600,-1.119371
0.556700,-1.059973
0.556800,-1.146636
0.556900,-1.211228
0.557000,-1.309577
0.557100,-1.347228
0.557200,-1.330025
0.557300,-1.322884
0.557400,-1.375467
0.557500,-1.441682
0.557600,-1.479333
0.557700,-1.495238
0.557800,-1.549443
0.557900,-1.617605
0.558000,-1.609491
0.558100,-1.718226
0.558200,-1.647791
0.558300,-1.576059
0.558400,-1.564698
0.558500,-1.645519
0.558600,-1.880842
0.558700,-1.812030
0.558800,-1.679276
0.558900,-1.397538
0.559000,-1.458884
0.559100,-1.584822
0.559200,-1.844813
0.559300,-1.855200
0.559400,-1.735753
0.559500,-1.549768
0.559600,-1.557233
0.559700,-1.706541
0.559800,-1.841892
0.559900,-1.881166
0.560000,-1.875973
0.560100,-1.843190
0.560200,-1.862665
0.560300,-1.969453
0.560400,-2.069100
0.560500,-2.108699
0.560600,-2.069100
0.560700,-2.090522
0.560800,-2.120059
0.560900,-2.121358
0.561000,-2.122007
0.561100,-2.138561
0.561200,-2.141157
0.561300,-2.204451
0.561400,-2.305721
0.561500,-2.313511
0.561600,-2.300203
0.561700,-2.178160
0.561800,-2.228146
0.561900,-2.267420
0.562000,-2.244699
0.562100,-2.249568
0.562200,-2.211267
0.562300,-2.185950
0.562400,-2.179783
0.562500,-2.192766
0.562600,-2.165826
0.562700,-2.161606
0.562800,-2.184002
0.562900,-2.161931
0.563000,-2.172967
0.563100,-2.159009
0.563200,-2.211267
0.563300,-2.193415
0.563400,-2.282026
0.563500,-2.311888
0.563600,-2.414456
0.563700,-2.674123
0.563800,-2.876339
0.563900,-2.821160
0.564000,-2.551755
0.564100,-2.490084
0.564200,-2.584214
0.564300,-2.844530
0.564400,-3.099653
0.564500,-3.080827
0.564600,-2.933466
0.564700,-2.774420
0.564800,-2.800062
0.564900,-2.982154
0.565000,-3.165868
0.565100,-3.224618
0.565200,-3.147367
0.565300,-3.112636
0.565400,-3.100302
0.565500,-3.169763
0.565600,-3.232408
0.565700,-3.227539
0.565800,-3.274604
0.565900,-3.239224
0.566000,-3.287912
0.566100,-3.373602
0.566200,-3.390156
0.566300,-3.382691
0.566400,-3.379120
0.566500,-3.402490
0.566600,-3.464486
0.566700,-3.470978
0.566800,-3.408982
0.566900,-3.270384
0.567000,-3.310633
0.567100,-3.446634
0.567200,-3.656316
0.567300,-3.709872
0.567400,-3.569327
0.567500,-3.402815
0.567600,-3.365812
0.567700,-3.465460
0.567800,-3.656965
0.567900,-3.783553
0.568000,-3.725128
0.568100,-3.583933
0.568200,-3.503112
0.568300,-3.524534
0.568400,-3.560239
0.568500,-3.568029
0.568600,-3.558616
0.568700,-3.545308
0.568800,-3.478443
0.568900,-3.429756
0.569000,-3.360294
0.569100,-3.253506
0.569200,-3.173983
0.569300,-3.169114
0.569400,-3.166517
0.569500,-3.172035
0.569600,-3.140551
0.569700,-2.973390
0.569800,-2.915289
0.569900,-2.778964
0.570000,-2.768577
0.570100,-2.760138
0.570200,-2.770200
0.570300,-2.665684
0.570400,-2.602066
0.570500,-2.480996
0.570600,-2.428738
0.570700,-2.408614
0.570800,-2.477101
0.570900,-2.435554
0.571000,-2.478075
0.571100,-2.451134
0.571200,-2.423869
0.571300,-2.408289
0.571400,-2.372910
0.571500,-2.451459
0.571600,-2.461846
0.571700,-2.546887
0.571800,-2.520920
0.571900,-2.487488
0.572000,-2.330714
0.572100,-1.988603
0.572200,-1.981787
0.572300,-2.181406
0.572400,-2.454056
0.572500,-2.384919
0.572600,-2.069749
0.572700,-1.887009
0.572800,-1.707190
0.572900,-1.909081
0.573000,-1.941539
0.573100,-2.008403
0.573200,-1.802617
0.573300,-1.634159
0.573400,-1.536784
0.573500,-1.474789
0.573600,-1.525748
0.573700,-1.499457
0.573800,-1.495562
0.573900,-1.445252
0.574000,-1.415715
0.574100,-1.392345
0.574200,-1.367352
0.574300,-1.349825
0.574400,-1.427725
0.574500,-1.454016
0.574600,-1.384230
0.574700,-1.375142
0.574800,-1.266732
0.574900,-1.203114
0.575000,-1.118073
0.575100,-1.123266
0.575200,-1.257319
0.575300,-1.378388
0.575400,-1.294321
0.575500,-1.151180
0.575600,-0.919429
0.575700,-1.042121
0.575800,-1.198245
0.575900,-1.361834
0.576000,-1.280040
0.576100,-1.215448
0.576200,-1.044717
0.576300,-1.059324
0.576400,-1.169682
0.576500,-1.267705
0.576600,-1.234923
0.576700,-1.268030
0.576800,-1.208631
0.576900,-1.245958
0.577000,-1.264784
0.577100,-1.320288
0.577200,-1.337491
0.577300,-1.324507
0.577400,-1.351123
0.577500,-1.367677
0.577600,-1.353395
0.577700,-1.294321
0.577800,-1.303734
0.577900,-1.287505
0.578000,-1.404355
0.578100,-1.466674
0.578200,-1.462779
0.578300,-1.424479
0.578400,-1.318340
0.578500,-1.400784
0.578600,-1.429347
0.578700,-1.424803
0.578800,-1.432918
0.578900,-1.420584
0.579000,-1.416689
0.579100,-1.424479
0.579200,-1.423830
0.579300,-1.439734
0.579400,-1.452393
0.579500,-1.461157
0.579600,-1.474140
0.579700,-1.504975
0.579800,-1.508870
0.579900,-1.569892
0.580000,-1.575734
0.580100,-1.697128
0.580200,-1.731858
0.580300,-1.867859
0.580400,-2.215811
0.580500,-2.362848
0.580600,-2.258332
0.580700,-2.028527
0.580800,-1.989902
0.580900,-2.157387
0.581000,-2.538772
0.581100,-2.720539
0.581200,-2.739040
0.581300,-2.559545
0.581400,-2.473855
0.581500,-2.558247
0.581600,-2.782859
0.581700,-2.953590
0.581800,-2.991242
0.581900,-2.980855
0.582000,-2.946449
0.582100,-3.017533
0.582200,-3.076283
0.582300,-3.151911
0.582400,-3.197028
0.582500,-3.221048
0.582600,-3.316800
0.582700,-3.391455
0.582800,-3.488181
0.582900,-3.479417
0.583000,-3.436572
0.583100,-3.478443
0.583200,-3.570301
0.583300,-3.660211
0.583400,-3.661834
0.583500,-3.549203
0.583600,-3.438195
0.583700,-3.519341
0.583800,-3.680660
0.583900,-3.844575
0.584000,-3.819582
0.584100,-3.626779
0.584200,-3.463512
0.584300,-3.463188
0.584400,-3.591074
0.584500,-3.745901
0.584600,-3.762455
0.584700,-3.617690
0.584800,-3.444037
0.584900,-3.361917
0.585000,-3.355101
0.585100,-3.377822
0.585200,-3.328485
0.585300,-3.275902
0.585400,-3.238251
0.585500,-3.153209
0.585600,-3.084073
0.585700,-2.955862
0.585800,-2.825704
0.585900,-2.704634
0.586000,-2.667632
0.586100,-2.639393
0.586200,-2.606610
0.586300,-2.471583
0.586400,-2.277482
0.586500,-2.226523
0.586600,-1.981463
0.586700,-2.026255
0.586800,-1.967505
0.586900,-1.890579
0.587000,-1.760422
0.587100,-1.670188
0.587200,-1.535161
0.587300,-1.465376
0.587400,-1.468946
0.587500,-1.459209
0.587600,-1.458560
0.587700,-1.452717
0.587800,-1.415715
0.587900,-1.343982
0.588000,-1.259266
0.588100,-1.268355
0.588200,-1.171629
0.588300,-1.256670
0.588400,-1.184937
0.588500,-1.146636
0.588600,-1.069061
0.588700,-0.855811
0.588800,-0.508833
0.588900,-0.659439
0.589000,-0.925920
0.589100,-1.096975
0.589200,-0.848670
0.589300,-0.640288
0.589400,-0.462093
0.589500,-0.398475
0.589600,-0.621463
0.589700,-0.740909
0.589800,-0.780508
0.589900,-0.511754
0.590000,-0.443592
0.590100,-0.316356
0.590200,-0.390360
0.590300,-0.409511
0.590400,-0.451706
0.590500,-0.447811
0.590600,-0.423143
0.590700,-0.426713
0.590800,-0.451706
0.590900,-0.483840
0.591000,-0.485463
0.591100,-0.650350
0.591200,-0.737014
0.591300,-0.748374
0.591400,-0.826598
0.591500,-0.786675
0.591600,-0.822054
0.591700,-0.815238
0.591800,-0.929491
0.591900,-1.205386
0.592000,-1.345930
0.592100,-1.328727
0.592200,-1.184937
0.592300,-1.105090
0.592400,-1.284259
0.592500,-1.572813
0.592600,-1.813329
0.592700,-1.767238
0.592800,-1.679601
0.592900,-1.585796
0.593000,-1.724393
0.593100,-1.910054
0.593200,-2.049625
0.593300,-2.083706
0.593400,-2.147649
0.593500,-2.142131
0.593600,-2.304098
0.593700,-2.357005
0.593800,-2.441397
0.593900,-2.454056
0.594000,-2.453082
0.594100,-2.534228
0.594200,-2.582591
0.594300,-2.598820
0.594400,-2.590056
0.594500,-2.602715
0.594600,-2.666333
0.594700,-2.816616
0.594800,-2.895490
0.594900,-2.911394
0.595000,-2.796167
0.595100,-2.851671
0.595200,-2.905552
0.595300,-2.960082
0.595400,-2.975662
0.595500,-2.998058
0.595600,-3.007796
0.595700,-3.037008
0.595800,-3.072388
0.595900,-3.069791
0.596000,-3.061352
0.596100,-3.128541
0.596200,-3.110689
0.596300,-3.148990
0.596400,-3.099978
0.596500,-3.111987
0.596600,-3.123672
0.596700,-3.106469
0.596800,-3.162947
0.596900,-3.133085
0.597000,-3.317449
0.597100,-3.545308
0.597200,-3.573222
0.597300,-3.340819
0.597400,-3.125944
0.597500,-3.136331
0.597600,-3.307712
0.597700,-3.605681
0.597800,-3.728698
0.597900,-3.612497
0.598000,-3.391455
0.598100,-3.334328
0.598200,-3.405087
0.598300,-3.556344
0.598400,-3.674817
0.598500,-3.608926
0.598600,-3.571924
0.598700,-3.465460
0.598800,-3.484610
0.598900,-3.509603
0.599000,-3.485909
0.599100,-3.509928
0.599200,-3.484935
0.599300,-3.490778
0.599400,-3.471302
0.599500,-3.546931
0.599600,-3.512200
0.599700,-3.491427
0.599800,-3.501813
0.599900,-3.509603
0.600000,-3.505384
0.600100,-3.440791
0.600200,-3.299272
0.600300,-3.222021
0.600400,-3.303817
0.600500,-3.468706
0.600600,-3.593996
0.600700,-3.497594
0.600800,-3.293430
0.600900,-3.122698
0.601000,-3.122374
0.601100,-3.308036
0.601200,-3.442739
0.601300,-3.438844
0.601400,-3.301869
0.601500,-3.175930
0.601600,-3.130164
0.601700,-3.123997
0.601800,-3.146393
0.601900,-3.107118
0.602000,-3.056159
0.602100,-3.057782
0.602200,-2.987996
0.602300,-2.914965
0.602400,-2.778964
0.602500,-2.647183
0.602600,-2.604662
0.602700,-2.567335
0.602800,-2.577397
0.602900,-2.571879
0.603000,-2.432309
0.603100,-2.324222
0.603200,-2.293387
0.603300,-2.120059
0.603400,-2.116814
0.603500,-2.107401
0.603600,-2.052546
0.603700,-1.971725
0.603800,-1.854875
0.603900,-1.781195
0.604000,-1.740622
0.604100,-1.760746
0.604200,-1.785090
0.604300,-1.750684
0.604400,-1.822417
0.604500,-1.776975
0.604600,-1.806188
0.604700,-1.756527
0.604800,-1.799696
0.604900,-1.811381
0.605000,-1.794503
0.605100,-1.889606
0.605200,-1.811381
0.605300,-1.733157
0.605400,-1.417662
0.605500,-1.338140
0.605600,-1.407925
0.605700,-1.756202
0.605800,-1.819496
0.605900,-1.590340
0.606000,-1.393643
0.606100,-1.228431
0.606200,-1.335868
0.606300,-1.399810
0.606400,-1.576059
0.606500,-1.481930
0.606600,-1.323209
0.606700,-1.182016
0.606800,-1.200517
0.606900,-1.225185
0.607000,-1.250503
0.607100,-1.285557
0.607200,-1.213825
0.607300,-1.194999
0.607400,-1.202789
0.607500,-1.191104
0.607600,-1.227457
0.607700,-1.184612
0.607800,-1.393319
0.607900,-1.423505
0.608000,-1.469596
0.608100,-1.407600
0.608200,-1.402407
0.608300,-1.308927
0.608400,-1.348526
0.608500,-1.406302
0.608600,-1.716928
0.608700,-1.660450
0.608800,-1.563725
0.608900,-1.329701
0.609000,-1.286207
0.609100,-1.445577
0.609200,-1.658178
0.609300,-1.722445
0.609400,-1.611438
0.609500,-1.443954
0.609600,-1.396240
0.609700,-1.502378
0.609800,-1.599104
0.609900,-1.627343
0.610000,-1.587744
0.610100,-1.609491
0.610200,-1.615009
0.610300,-1.714006
0.610400,-1.723419
0.610500,-1.742570
0.610600,-1.686741
0.610700,-1.686741
0.610800,-1.711734
0.610900,-1.690636
0.611000,-1.603973
0.611100,-1.551390
0.611200,-1.469271
0.611300,-1.478684
0.611400,-1.537758
0.611500,-1.521853
0.611600,-1.447524
0.611700,-1.234923
0.611800,-1.261863
0.611900,-1.293023
0.612000,-1.243362
0.612100,-1.209930
0.612200,-1.161567
0.612300,-1.147285
0.612400,-1.108660
0.612500,-1.101519
0.612600,-1.076202
0.612700,-1.042445
0.612800,-1.062569
0.612900,-1.037252
0.613000,-1.068412
0.613100,-1.050560
0.613200,-1.098923
0.613300,-1.066789
0.613400,-1.135600
0.613500,-1.118073
0.613600,-1.226159
0.613700,-1.453042
0.613800,-1.734130
0.613900,-1.674407
0.614000,-1.432593
0.614100,-1.279066
0.614200,-1.329051
0.614300,-1.623448
0.614400,-1.915897
0.614500,-1.967830
0.614600,-1.831505
0.614700,-1.628641
0.614800,-1.635457
0.614900,-1.818197
0.615000,-2.005157
0.615100,-2.100584
0.615200,-2.070723
0.615300,-2.056766
0.615400,-2.071697
0.615500,-2.145702
0.615600,-2.221005
0.615700,-2.276509
0.615800,-2.305721
0.615900,-2.333311
0.616000,-2.437502
0.616100,-2.574476
0.616200,-2.665684
0.616300,-2.764358
0.616400,-2.801036
0.616500,-2.878611
0.616600,-3.017209
0.616700,-3.112312
0.616800,-3.135357
0.616900,-3.035061
0.617000,-3.102574
0.617100,-3.319721
0.617200,-3.605356
0.617300,-3.762780
0.617400,-3.696240
0.617500,-3.563809
0.617600,-3.559590
0.617700,-3.743305
0.617800,-3.991937
0.617900,-4.178250
0.618000,-4.189610
0.618100,-4.121123
0.618200,-4.099700
0.618300,-4.192207
0.618400,-4.298996
0.618500,-4.354500
0.618600,-4.369431
0.618700,-4.347035
0.618800,-4.344438
0.618900,-4.330481
0.619000,-4.262318
0.619100,-4.150011
0.619200,-4.055881
0.619300,-4.010439
0.619400,-3.962725
0.619500,-3.934161
0.619600,-3.887745
0.619700,-3.685529
0.619800,-3.593671
0.619900,-3.484935
0.620000,-3.294079
0.620100,-3.272981
0.620200,-3.225267
0.620300,-3.090889
0.620400,-2.961380
0.620500,-2.794869
0.620600,-2.658543
0.620700,-2.630305
0.620800,-2.539097
0.620900,-2.485865
0.621000,-2.334284
0.621100,-2.310590
0.621200,-2.211267
0.621300,-2.089873
0.621400,-2.033071
0.621500,-1.928231
0.621600,-1.906159
0.621700,-1.804240
0.621800,-1.737376
0.621900,-1.660450
0.622000,-1.375467
0.622100,-1.095677
0.622200,-0.946044
0.622300,-1.219992
0.622400,-1.372870
0.622500,-1.258942
0.622600,-0.986293
0.622700,-0.784078
0.622800,-0.678914
0.622900,-0.766226
0.623000,-0.955133
0.623100,-0.910990
0.623200,-0.784078
0.623300,-0.647104
0.623400,-0.501692
0.623500,-0.456250
0.623600,-0.614322
0.623700,-0.678914
0.623800,-0.661061
0.623900,-0.605233
0.624000,-0.585434
0.624100,-0.614971
0.624200,-0.669825
0.624300,-0.709424
0.624400,-0.805176
0.624500,-0.882102
0.624600,-1.009663
0.624700,-0.967467
0.624800,-1.116126
0.624900,-1.083992
0.625000,-1.100546
0.625100,-1.112880
0.625200,-1.312822
0.625300,-1.635782
0.625400,-1.625720
0.625500,-1.559505
0.625600,-1.407925
0.625700,-1.487448
0.625800,-1.687391
0.625900,-1.981787
0.626000,-2.035343
0.626100,-1.946408
0.626200,-1.847734
0.626300,-1.894474
0.626400,-2.062933
0.626500,-2.191792
0.626600,-2.261578
0.626700,-2.293062
0.626800,-2.287544
0.626900,-2.357654
0.627000,-2.404070
0.627100,-2.508586
0.627200,-2.583564
0.627300,-2.592328
0.627400,-2.650429
0.627500,-2.697493
0.627600,-2.718916
0.627700,-2.730276
0.627800,-2.766954
0.627900,-2.771498
0.628000,-2.893217
0.628100,-2.976311
0.628200,-2.979881
0.628300,-2.989944
0.628400,-2.868874
0.628500,-2.928273
0.628600,-2.973390
0.628700,-2.964951
0.628800,-2.965600
0.628900,-2.950020
0.629000,-2.957485
0.629100,-2.928922
0.629200,-2.940607
0.629300,-2.918860
0.629400,-2.921132
0.629500,-2.880559
0.629600,-2.855566
0.629700,-2.849399
0.629800,-2.824730
0.629900,-2.822134
0.630000,-2.794219
0.630100,-2.864329
0.630200,-2.847776
0.630300,-2.909771
0.630400,-3.167816
0.630500,-3.282394
0.630600,-3.137954
0.630700,-2.881857
0.630800,-2.831871
0.630900,-2.879910
0.631000,-3.114259
0.631100,-3.308036
0.631200,-3.273955
0.631300,-3.130164
0.631400,-2.976960
0.631500,-3.017533
0.631600,-3.116856
0.631700,-3.301545
