0.000100,-0.704880
0.000200,-0.525386
0.000300,-0.317979
0.000400,-0.161530
0.000500,-0.143354
0.000600,-0.248843
0.000700,-0.419573
0.000800,-0.363095
0.000900,-0.226771
0.001000,-0.083306
0.001100,0.047825
0.001200,-0.087525
0.001300,-0.122580
0.001400,-0.191716
0.001500,-0.085578
0.001600,-0.110895
0.001700,-0.080385
0.001800,-0.081034
0.001900,-0.098886
0.002000,-0.094017
0.002100,-0.144652
0.002200,-0.229368
0.002300,-0.267668
0.002400,-0.400422
0.002500,-0.340050
0.002600,-0.277730
0.002700,-0.189444
0.002800,-0.259229
0.002900,-0.465339
0.003000,-0.616594
0.003100,-0.552976
0.003200,-0.411133
0.003300,-0.286819
0.003400,-0.421196
0.003500,-0.643209
0.003600,-0.824651
0.003700,-0.758111
0.003800,-0.565634
0.003900,-0.459496
0.004000,-0.593873
0.004100,-0.721434
0.004200,-0.785376
0.004300,-0.779209
0.004400,-0.786026
0.004500,-0.747725
0.004600,-0.830169
0.004700,-0.876259
0.004800,-0.948641
0.004900,-0.961300
0.005000,-0.938579
0.005100,-0.965844
0.005200,-0.991811
0.005300,-0.979801
0.005400,-0.951562
0.005500,-0.933386
0.005600,-0.913262
0.005700,-1.057052
0.005800,-1.091133
0.005900,-1.083992
0.006000,-0.945720
0.006100,-0.947667
0.006200,-0.987916
0.006300,-0.988889
0.006400,-1.002522
0.006500,-1.034655
0.006600,-1.028164
0.006700,-1.054130
0.006800,-1.032383
0.006900,-1.069386
0.007000,-1.066789
0.007100,-1.033682
0.007200,-1.059648
0.007300,-1.045691
0.007400,-1.086264
0.007500,-1.051209
0.007600,-1.066789
0.007700,-1.077176
0.007800,-1.108336
0.007900,-1.169032
0.008000,-1.349500
0.008100,-1.590665
0.008200,-1.697128
0.008300,-1.471543
0.008400,-1.297567
0.008500,-1.289128
0.008600,-1.475763
0.008700,-1.803267
0.008800,-1.877271
0.008900,-1.833128
0.009000,-1.649739
0.009100,-1.609815
0.009200,-1.683496
0.009300,-1.866236
0.009400,-2.003859
0.009500,-2.000288
0.009600,-1.938293
0.009700,-1.904536
0.009800,-1.956145
0.009900,-1.996393
0.010000,-2.033396
0.010100,-2.031773
0.010200,-2.029825
0.010300,-2.051572
0.010400,-2.065854
0.010500,-2.142131
0.010600,-2.148947
0.010700,-2.078837
0.010800,-2.124928
0.010900,-2.118437
0.011000,-2.185950
0.011100,-2.148298
0.011200,-2.043458
0.011300,-1.983410
0.011400,-2.048651
0.011500,-2.254112
0.011600,-2.372261
0.011700,-2.341101
0.011800,-2.149272
0.011900,-2.002885
0.012000,-2.075267
0.012100,-2.269043
0.012200,-2.401798
0.012300,-2.394008
0.012400,-2.291439
0.012500,-2.197959
0.012600,-2.160308
0.012700,-2.170370
0.012800,-2.206399
0.012900,-2.219057
0.013000,-2.200881
0.013100,-2.150570
0.013200,-2.103181
0.013300,-2.041186
0.013400,-1.928231
0.013500,-1.802617
0.013600,-1.768536
0.013700,-1.748412
0.013800,-1.713682
0.013900,-1.708488
0.014000,-1.565023
0.014100,-1.445901
0.014200,-1.388775
0.014300,-1.168383
0.014400,-1.184288
0.014500,-1.149233
0.014600,-1.085939
0.014700,-0.991486
0.014800,-0.874636
0.014900,-0.821730
0.015000,-0.752918
0.015100,-0.741558
0.015200,-0.755839
0.015300,-0.710398
0.015400,-0.764279
0.015500,-0.705205
0.015600,-0.652947
0.015700,-0.637367
0.015800,-0.616269
0.015900,-0.661386
0.016000,-0.620164
0.016100,-0.717539
0.016200,-0.633147
0.016300,-0.583811
0.016400,-0.236184
0.016500,-0.193664
0.016600,-0.249492
0.016700,-0.626980
0.016800,-0.657167
0.016900,-0.498771
0.017000,-0.319926
0.017100,-0.171592
0.017200,-0.218981
0.017300,-0.392632
0.017400,-0.416651
0.017500,-0.410809
0.017600,-0.193664
0.017700,-0.154065
0.017800,-0.089798
0.017900,-0.218007
0.018000,-0.185549
0.018100,-0.161206
0.018200,-0.141081
0.018300,-0.107650
0.018400,-0.127449
0.018500,-0.129397
0.018600,-0.151468
0.018700,-0.146599
0.018800,-0.244948
0.018900,-0.274809
0.019000,-0.296556
0.019100,-0.332260
0.019200,-0.267344
0.019300,-0.240728
0.019400,-0.189769
0.019500,-0.352060
0.019600,-0.529930
0.019700,-0.525386
0.019800,-0.404642
0.019900,-0.242351
0.020000,-0.190093
0.020100,-0.338427
0.020200,-0.564661
0.020300,-0.594522
0.020400,-0.432880
0.020500,-0.305644
0.020600,-0.278055
0.020700,-0.365043
0.020800,-0.444890
0.020900,-0.456575
0.021000,-0.408212
0.021100,-0.416002
0.021200,-0.383219
0.021300,-0.431907
0.021400,-0.471830
0.021500,-0.516947
0.021600,-0.471506
0.021700,-0.465014
0.021800,-0.503639
0.021900,-0.563038
0.022000,-0.541615
0.022100,-0.498121
0.022200,-0.482541
0.022300,-0.559467
0.022400,-0.699038
0.022500,-0.696766
0.022600,-0.682159
0.022700,-0.517921
0.022800,-0.579267
0.022900,-0.644508
0.023000,-0.646455
0.023100,-0.654570
0.023200,-0.671773
0.023300,-0.694493
0.023400,-0.736689
0.023500,-0.744154
0.023600,-0.753892
0.023700,-0.793491
0.023800,-0.809071
0.023900,-0.863925
0.024000,-0.885023
0.024100,-0.945720
0.024200,-0.957729
0.024300,-0.938904
0.024400,-1.048612
0.024500,-1.061271
0.024600,-1.157023
0.024700,-1.368975
0.024800,-1.640326
0.024900,-1.605920
0.025000,-1.395266
0.025100,-1.223238
0.025200,-1.279715
0.025300,-1.571515
0.025400,-1.865911
0.025500,-1.866236
0.025600,-1.767238
0.025700,-1.608842
0.025800,-1.633834
0.025900,-1.778598
0.026000,-1.975295
0.026100,-2.018790
0.026200,-2.043133
0.026300,-1.949004
0.026400,-1.990551
0.026500,-2.039238
0.026600,-2.082083
0.026700,-2.072995
0.026800,-2.052546
0.026900,-2.069749
0.027000,-2.116164
0.027100,-2.193091
0.027200,-2.189845
0.027300,-2.148947
0.027400,-2.168747
0.027500,-2.167449
0.027600,-2.225549
0.027700,-2.207697
0.027800,-2.167124
0.027900,-2.032747
0.028000,-2.022360
0.028100,-2.167773
0.028200,-2.316108
0.028300,-2.375831
0.028400,-2.256709
0.028500,-1.994446
0.028600,-1.933424
0.028700,-2.077539
0.028800,-2.284948
0.028900,-2.389464
0.029000,-2.295659
0.029100,-2.184652
0.029200,-2.105778
0.029300,-2.122332
0.029400,-2.168098
0.029500,-2.184976
0.029600,-2.159659
0.029700,-2.095067
0.029800,-2.066503
0.029900,-2.056117
0.030000,-1.998016
0.030100,-1.884412
0.030200,-1.754904
0.030300,-1.698102
0.030400,-1.695830
0.030500,-1.689987
0.030600,-1.679276
0.030700,-1.507896
0.030800,-1.426102
0.030900,-1.203763
0.031000,-1.233300
0.031100,-1.216746
0.031200,-1.179094
0.031300,-1.075553
0.031400,-0.977204
0.031500,-0.824002
0.031600,-0.779209
0.031700,-0.736689
0.031800,-0.751944
0.031900,-0.729548
0.032000,-0.722083
0.032100,-0.686379
0.032200,-0.678589
0.032300,-0.552976
0.032400,-0.628928
0.032500,-0.548107
0.032600,-0.593873
0.032700,-0.686054
0.032800,-0.641262
0.032900,-0.658789
0.033000,-0.406265
0.033100,-0.255334
0.033200,-0.089798
0.033300,-0.476699
0.033400,-0.805825
0.033500,-0.665930
0.033600,-0.601014
0.033700,-0.215411
0.033800,-0.305969
0.033900,-0.340050
0.034000,-0.605883
0.034100,-0.597119
0.034200,-0.593548
0.034300,-0.382895
0.034400,-0.329663
0.034500,-0.378026
0.034600,-0.366017
0.034700,-0.438074
0.034800,-0.392308
0.034900,-0.354007
0.035000,-0.292337
0.035100,-0.312785
0.035200,-0.325444
0.035300,-0.295582
0.035400,-0.400747
0.035500,-0.371210
0.035600,-0.447811
0.035700,-0.372184
0.035800,-0.521816
0.035900,-0.372833
0.036000,-0.418599
0.036100,-0.346542
0.036200,-0.606532
0.036300,-0.795763
0.036400,-0.725978
0.036500,-0.530580
0.036600,-0.364718
0.036700,-0.404317
0.036800,-0.584785
0.036900,-0.869119
0.037000,-0.836336
0.037100,-0.679563
0.037200,-0.500069
0.037300,-0.529930
0.037400,-0.701959
0.037500,-0.794789
0.037600,-0.776937
0.037700,-0.770121
0.037800,-0.692871
0.037900,-0.744154
0.038000,-0.783104
0.038100,-0.860679
0.038200,-0.815563
0.038300,-0.765252
0.038400,-0.789596
0.038500,-0.828221
0.038600,-0.850293
0.038700,-0.796412
0.038800,-0.762006
0.038900,-0.743505
0.039000,-0.839582
0.039100,-0.943772
0.039200,-0.930140
0.039300,-0.907095
0.039400,-0.855486
0.039500,-0.867820
0.039600,-0.894761
0.039700,-0.873987
0.039800,-0.879505
0.039900,-0.925920
0.040000,-0.928192
0.040100,-0.941176
0.040200,-0.959677
0.040300,-0.965844
0.040400,-0.976555
0.040500,-0.969414
0.040600,-0.993433
0.040700,-1.001548
0.040800,-1.010312
0.040900,-1.035629
0.041000,-1.047963
0.041100,-1.069386
0.041200,-1.063543
0.041300,-1.115476
0.041400,-1.442655
0.041500,-1.549118
0.041600,-1.463104
0.041700,-1.129758
0.041800,-1.065166
0.041900,-1.135276
0.042000,-1.455639
0.042100,-1.619228
0.042200,-1.611114
0.042300,-1.449147
0.042400,-1.358913
0.042500,-1.380011
0.042600,-1.551066
0.042700,-1.738025
0.042800,-1.749710
0.042900,-1.736727
0.043000,-1.684145
0.043100,-1.724393
0.043200,-1.790283
0.043300,-1.854551
0.043400,-1.894474
0.043500,-1.908431
0.043600,-1.949978
0.043700,-1.946408
0.043800,-1.986007
0.043900,-2.063582
0.044000,-2.072346
0.044100,-2.092145
0.044200,-2.083706
0.044300,-2.122656
0.044400,-2.127849
0.044500,-2.025281
0.044600,-1.895123
0.044700,-1.931801
0.044800,-2.108374
0.044900,-2.271640
0.045000,-2.310590
0.045100,-2.114866
0.045200,-1.894799
0.045300,-1.877921
0.045400,-2.077215
0.045500,-2.284623
0.045600,-2.393034
0.045700,-2.266771
0.045800,-2.147000
0.045900,-2.117463
0.046000,-2.160957
0.046100,-2.201205
0.046200,-2.209644
0.046300,-2.191792
0.046400,-2.181081
0.046500,-2.121358
0.046600,-2.084031
0.046700,-1.958093
0.046800,-1.829882
0.046900,-1.770808
0.047000,-1.777625
0.047100,-1.779897
0.047200,-1.765940
0.047300,-1.676030
0.047400,-1.538083
0.047500,-1.506598
0.047600,-1.344307
0.047700,-1.349825
0.047800,-1.298216
0.047900,-1.268355
0.048000,-1.174875
0.048100,-1.111257
0.048200,-0.966169
0.048300,-0.971686
0.048400,-0.944422
0.048500,-1.001223
0.048600,-0.997004
0.048700,-0.988240
0.048800,-0.995706
0.048900,-0.926894
0.049000,-0.919753
0.049100,-0.905472
0.049200,-0.910990
0.049300,-0.956431
0.049400,-0.951887
0.049500,-1.038550
0.049600,-0.910016
0.049700,-0.691572
0.049800,-0.446513
0.049900,-0.557195
0.050000,-0.849319
0.050100,-1.038226
0.050200,-0.960326
0.050300,-0.658465
0.050400,-0.633797
0.050500,-0.555248
0.050600,-0.741558
0.050700,-0.838608
0.050800,-0.888593
0.050900,-0.769796
0.051000,-0.658789
0.051100,-0.621138
0.051200,-0.603935
0.051300,-0.609778
0.051400,-0.702608
0.051500,-0.730522
0.051600,-0.684756
0.051700,-0.686379
0.051800,-0.686703
0.051900,-0.680861
0.052000,-0.706178
0.052100,-0.724680
0.052200,-0.760708
0.052300,-0.775639
0.052400,-0.882426
0.052500,-0.818484
0.052600,-0.691572
0.052700,-0.682808
0.052800,-0.645482
0.052900,-0.969090
0.053000,-1.012584
0.053100,-0.974283
0.053200,-0.680212
0.053300,-0.644183
0.053400,-0.696441
0.053500,-0.937930
0.053600,-1.100546
0.053700,-1.021672
0.053800,-0.828221
0.053900,-0.670799
0.054000,-0.715916
0.054100,-0.814913
0.054200,-0.883076
0.054300,-0.819782
0.054400,-0.823028
0.054500,-0.734417
0.054600,-0.763954
0.054700,-0.772393
0.054800,-0.831792
0.054900,-0.828221
0.055000,-0.799009
0.055100,-0.844775
0.055200,-0.863276
0.055300,-0.851916
0.055400,-0.810694
0.055500,-0.792517
0.055600,-0.811992
0.055700,-0.961624
0.055800,-1.028813
0.055900,-1.016479
0.056000,-1.001548
0.056100,-0.927219
0.056200,-0.997328
0.056300,-1.024269
0.056400,-1.023944
0.056500,-1.036278
0.056600,-1.059648
0.056700,-1.061596
0.056800,-1.065815
0.056900,-1.092431
0.057000,-1.095028
0.057100,-1.112555
0.057200,-1.133004
0.057300,-1.129109
0.057400,-1.177472
0.057500,-1.171954
0.057600,-1.227457
0.057700,-1.235247
0.057800,-1.299839
0.057900,-1.308278
0.058000,-1.467648
0.058100,-1.748087
0.058200,-1.804889
0.058300,-1.604947
0.058400,-1.361185
0.058500,-1.354369
0.058600,-1.502054
0.058700,-1.836049
0.058800,-1.893176
0.058900,-1.862990
0.059000,-1.682197
0.059100,-1.608517
0.059200,-1.661749
0.059300,-1.851954
0.059400,-1.940565
0.059500,-1.934723
0.059600,-1.885386
0.059700,-1.811381
0.059800,-1.828259
0.059900,-1.888632
0.060000,-1.853577
0.060100,-1.836374
0.060200,-1.826961
0.060300,-1.839944
0.060400,-1.871754
0.060500,-1.972050
0.060600,-1.929854
0.060700,-1.854875
0.060800,-1.880193
0.060900,-1.916546
0.061000,-1.960365
0.061100,-1.947381
0.061200,-1.744192
0.061300,-1.664021
0.061400,-1.773080
0.061500,-1.992174
0.061600,-2.095067
0.061700,-2.064880
0.061800,-1.853577
0.061900,-1.701997
0.062000,-1.771782
0.062100,-1.975945
0.062200,-2.172967
0.062300,-2.168422
0.062400,-2.073320
0.062500,-1.936670
0.062600,-1.883114
0.062700,-1.922388
0.062800,-1.964909
0.062900,-1.971076
0.063000,-1.928556
0.063100,-1.877921
0.063200,-1.839620
0.063300,-1.797424
0.063400,-1.735104
0.063500,-1.619228
0.063600,-1.527696
0.063700,-1.500756
0.063800,-1.453367
0.063900,-1.468946
0.064000,-1.299514
0.064100,-1.158646
0.064200,-0.914560
0.064300,-0.867171
0.064400,-0.902550
0.064500,-0.867171
0.064600,-0.775639
0.064700,-0.652298
0.064800,-0.530580
0.064900,-0.471181
0.065000,-0.432556
0.065100,-0.404642
0.065200,-0.433854
0.065300,-0.377377
0.065400,-0.417950
0.065500,-0.406265
0.065600,-0.330313
0.065700,-0.345568
0.065800,-0.277406
0.065900,-0.314408
0.066000,-0.313110
0.066100,-0.329988
0.066200,-0.356604
0.066300,-0.162504
0.066400,-0.006705
0.066500,0.215634
0.066600,-0.042084
0.066700,-0.200805
0.066800,-0.396852
0.066900,-0.216384
0.067000,0.072169
0.067100,0.092293
0.067200,0.112417
0.067300,-0.111869
0.067400,-0.216709
0.067500,-0.147573
0.067600,-0.091420
0.067700,0.052045
0.067800,0.079634
0.067900,-0.015793
0.068000,-0.033970
0.068100,-0.044356
0.068200,-0.033320
0.068300,-0.042409
0.068400,-0.039487
0.068500,-0.101158
0.068600,-0.096938
0.068700,-0.172890
0.068800,-0.206647
0.068900,-0.400422
0.069000,-0.310189
0.069100,-0.365043
0.069200,-0.395229
0.069300,-0.280002
0.069400,-0.325119
0.069500,-0.393931
0.069600,-0.702608
0.069700,-0.706828
0.069800,-0.594847
0.069900,-0.360823
0.070000,-0.346217
0.070100,-0.456900
0.070200,-0.753892
0.070300,-0.784403
0.070400,-0.667553
0.070500,-0.490656
0.070600,-0.434179
0.070700,-0.542589
0.070800,-0.605558
0.070900,-0.611400
0.071000,-0.613023
0.071100,-0.604909
0.071200,-0.592899
0.071300,-0.628928
0.071400,-0.682808
0.071500,-0.743181
0.071600,-0.713644
0.071700,-0.726302
0.071800,-0.777262
0.071900,-0.814264
0.072000,-0.810369
0.072100,-0.782455
0.072200,-0.781481
0.072300,-0.827897
0.072400,-0.989214
0.072500,-0.990512
0.072600,-0.993433
0.072700,-0.894111
0.072800,-0.912937
0.072900,-0.966818
0.073000,-0.977204
0.073100,-0.968116
0.073200,-0.974283
0.073300,-0.964870
0.073400,-0.980775
0.073500,-1.000574
0.073600,-1.013558
0.073700,-1.035305
0.073800,-1.051209
0.073900,-1.048937
0.074000,-1.068412
0.074100,-1.064192
0.074200,-1.092431
0.074300,-1.068737
0.074400,-1.082044
0.074500,-1.143066
0.074600,-1.133978
0.074700,-1.406627
0.074800,-1.632861
0.074900,-1.602674
0.075000,-1.377090
0.075100,-1.207658
0.075200,-1.272574
0.075300,-1.470894
0.075400,-1.787037
0.075500,-1.834102
0.075600,-1.744842
0.075700,-1.605271
0.075800,-1.567620
0.075900,-1.748412
0.076000,-1.917520
0.076100,-2.048327
0.076200,-2.015544
0.076300,-2.030799
0.076400,-1.997367
0.076500,-2.073644
0.076600,-2.140833
0.076700,-2.146026
0.076800,-2.168422
0.076900,-2.150570
0.077000,-2.244375
0.077100,-2.304423
0.077200,-2.382972
0.077300,-2.386542
0.077400,-2.373234
0.077500,-2.395955
0.077600,-2.435554
0.077700,-2.469311
0.077800,-2.375831
0.077900,-2.211592
0.078000,-2.251516
0.078100,-2.356681
0.078200,-2.529684
0.078300,-2.622839
0.078400,-2.483268
0.078500,-2.248270
0.078600,-2.177511
0.078700,-2.267096
0.078800,-2.436204
0.078900,-2.555975
0.079000,-2.547536
0.079100,-2.428089
0.079200,-2.336556
0.079300,-2.333311
0.079400,-2.368366
0.079500,-2.393683
0.079600,-2.362848
0.079700,-2.331363
0.079800,-2.313511
0.079900,-2.278456
0.080000,-2.207697
0.080100,-2.078513
0.080200,-1.988928
0.080300,-1.982761
0.080400,-1.974322
0.080500,-1.987305
0.080600,-1.967505
0.080700,-1.791906
0.080800,-1.729262
0.080900,-1.573137
0.081000,-1.539381
0.081100,-1.510168
0.081200,-1.468622
0.081300,-1.368001
0.081400,-1.284259
0.081500,-1.132030
0.081600,-1.075228
0.081700,-1.028813
0.081800,-1.039200
0.081900,-0.999601
0.082000,-0.985319
0.082100,-1.010636
0.082200,-0.918130
0.082300,-0.907419
0.082400,-0.834713
0.082500,-0.910665
0.082600,-0.895085
0.082700,-0.980450
0.082800,-1.009987
0.082900,-0.919104
0.083000,-0.806150
0.083100,-0.515973
0.083200,-0.557520
0.083300,-0.827897
0.083400,-1.179094
0.083500,-1.215123
0.083600,-0.910016
0.083700,-0.808422
0.083800,-0.628603
0.083900,-0.858083
0.084000,-0.989538
0.084100,-1.103467
0.084200,-0.978827
0.084300,-0.798035
0.084400,-0.696116
0.084500,-0.707477
0.084600,-0.713644
0.084700,-0.700336
0.084800,-0.661711
0.084900,-0.617892
0.085000,-0.552327
0.085100,-0.548107
0.085200,-0.524088
0.085300,-0.506885
0.085400,-0.460470
0.085500,-0.488059
0.085600,-0.580565
0.085700,-0.519219
0.085800,-0.459172
0.085900,-0.387764
0.086000,-0.295907
0.086100,-0.329663
0.086200,-0.505911
0.086300,-0.765252
0.086400,-0.639315
0.086500,-0.511105
0.086600,-0.312136
0.086700,-0.412107
0.086800,-0.585109
0.086900,-0.819782
0.087000,-0.827247
0.087100,-0.738961
0.087200,-0.613997
0.087300,-0.644183
0.087400,-0.810369
0.087500,-0.886646
0.087600,-0.875935
0.087700,-0.899305
0.087800,-0.861004
0.087900,-0.923973
0.088000,-0.969739
0.088100,-1.016154
0.088200,-1.029137
0.088300,-0.970064
0.088400,-0.968441
0.088500,-1.005768
0.088600,-1.007715
0.088700,-0.970388
0.088800,-0.955133
0.088900,-0.957405
0.089000,-1.066140
0.089100,-1.188507
0.089200,-1.180068
0.089300,-1.130407
0.089400,-1.022321
0.089500,-1.087562
0.089600,-1.110932
0.089700,-1.100870
0.089800,-1.098598
0.089900,-1.116126
0.090000,-1.075553
0.090100,-1.116126
0.090200,-1.074254
0.090300,-1.094703
0.090400,-1.066140
0.090500,-1.072956
0.090600,-1.067763
0.090700,-1.035954
0.090800,-1.052507
0.090900,-1.034331
0.091000,-1.109309
0.091100,-1.162216
0.091200,-1.183639
0.091300,-1.318016
0.091400,-1.549443
0.091500,-1.776975
0.091600,-1.612737
0.091700,-1.469596
0.091800,-1.341061
0.091900,-1.501405
0.092000,-1.855524
0.092100,-2.041186
0.092200,-2.035343
0.092300,-1.840918
0.092400,-1.775028
0.092500,-1.802942
0.092600,-2.025606
0.092700,-2.200881
0.092800,-2.232690
0.092900,-2.119086
0.093000,-2.046704
0.093100,-2.102532
0.093200,-2.144079
0.093300,-2.191468
0.093400,-2.178160
0.093500,-2.151219
0.093600,-2.155114
0.093700,-2.183678
0.093800,-2.297282
0.093900,-2.249244
0.094000,-2.237559
0.094100,-2.214189
0.094200,-2.258981
0.094300,-2.237883
0.094400,-2.250217
0.094500,-2.091172
0.094600,-1.960689
0.094700,-2.008727
0.094800,-2.142780
0.094900,-2.303124
0.095000,-2.276833
0.095100,-2.062284
0.095200,-1.884737
0.095300,-1.859419
0.095400,-1.999964
0.095500,-2.188547
0.095600,-2.256709
0.095700,-2.132718
0.095800,-1.966532
0.095900,-1.901291
0.096000,-1.929529
0.096100,-1.999639
0.096200,-2.011000
0.096300,-1.945434
0.096400,-1.867859
0.096500,-1.794503
0.096600,-1.765940
0.096700,-1.648441
0.096800,-1.510168
0.096900,-1.385853
0.097000,-1.316393
0.097100,-1.281338
0.097200,-1.258942
0.097300,-1.173901
0.097400,-1.017128
0.097500,-0.959028
0.097600,-0.757787
0.097700,-0.781481
0.097800,-0.735066
0.097900,-0.672746
0.098000,-0.595496
0.098100,-0.526035
0.098200,-0.376079
0.098300,-0.371535
0.098400,-0.384193
0.098500,-0.429310
0.098600,-0.392957
0.098700,-0.401396
0.098800,-0.375429
0.098900,-0.356604
0.099000,-0.284871
0.099100,-0.339725
0.099200,-0.267668
0.099300,-0.292986
0.099400,-0.319277
0.099500,-0.314733
0.099600,-0.273511
0.099700,-0.032996
0.099800,0.195185
0.099900,0.191290
0.100000,-0.051172
0.100100,-0.380623
0.100200,-0.215411
0.100300,-0.117062
0.100400,0.175710
0.100500,0.116636
0.100600,-0.022285
0.100700,-0.184900
0.100800,-0.240079
0.100900,-0.077463
0.101000,-0.024881
0.101100,0.061457
0.101200,0.040035
0.101300,-0.083631
0.101400,-0.050848
0.101500,-0.022285
0.101600,-0.035268
0.101700,-0.009626
0.101800,-0.002485
0.101900,-0.023258
0.102000,-0.045005
0.102100,0.031271
0.102200,-0.157311
0.102300,-0.110571
0.102400,-0.244623
0.102500,-0.163153
0.102600,-0.145950
0.102700,-0.030399
0.102800,-0.060910
0.102900,-0.272212
0.103000,-0.362771
0.103100,-0.352060
0.103200,-0.189444
0.103300,-0.012223
0.103400,-0.161206
0.103500,-0.299802
0.103600,-0.514350
0.103700,-0.478322
0.103800,-0.333558
0.103900,-0.211191
0.104000,-0.279353
0.104100,-0.443592
0.104200,-0.558494
0.104300,-0.562713
0.104400,-0.589004
0.104500,-0.527009
0.104600,-0.613673
0.104700,-0.661386
0.104800,-0.771419
0.104900,-0.769147
0.105000,-0.749348
0.105100,-0.743505
0.105200,-0.752594
0.105300,-0.744154
0.105400,-0.712670
0.105500,-0.686054
0.105600,-0.706178
0.105700,-0.870741
0.105800,-0.901252
0.105900,-0.910340
0.106000,-0.860679
0.106100,-0.859381
0.106200,-0.933386
0.106300,-0.975906
0.106400,-0.997653
0.106500,-1.028164
0.106600,-1.098923
0.106700,-1.096001
0.106800,-1.162865
0.106900,-1.190779
0.107000,-1.242063
0.107100,-1.289452
0.107200,-1.318340
0.107300,-1.351123
0.107400,-1.350798
0.107500,-1.363782
0.107600,-1.391047
0.107700,-1.440059
0.107800,-1.498483
0.107900,-1.474140
0.108000,-1.688364
0.108100,-1.938618
0.108200,-1.991849
0.108300,-1.806837
0.108400,-1.562102
0.108500,-1.518283
0.108600,-1.736727
0.108700,-2.005157
0.108800,-2.117463
0.108900,-2.039887
0.109000,-1.853901
0.109100,-1.809758
0.109200,-1.898694
0.109300,-2.097339
0.109400,-2.195363
0.109500,-2.229444
0.109600,-2.180432
0.109700,-2.149597
0.109800,-2.184976
0.109900,-2.211267
0.110000,-2.239831
0.110100,-2.285272
0.110200,-2.264824
0.110300,-2.288843
0.110400,-2.285272
0.110500,-2.311888
0.110600,-2.335907
0.110700,-2.304747
0.110800,-2.285272
0.110900,-2.336556
0.111000,-2.388814
0.111100,-2.348566
0.111200,-2.208346
0.111300,-2.140508
0.111400,-2.235286
0.111500,-2.386867
0.111600,-2.541369
0.111700,-2.454056
0.111800,-2.248270
0.111900,-2.085005
0.112000,-2.121682
0.112100,-2.293387
0.112200,-2.464118
0.112300,-2.474504
0.112400,-2.329416
0.112500,-2.178160
0.112600,-2.118437
0.112700,-2.123630
0.112800,-2.159334
0.112900,-2.119086
0.113000,-2.093119
0.113100,-2.075592
0.113200,-2.010026
0.113300,-1.952899
0.113400,-1.830207
0.113500,-1.699725
0.113600,-1.664345
0.113700,-1.653959
0.113800,-1.642923
0.113900,-1.659476
0.114000,-1.524125
0.114100,-1.414417
0.114200,-1.393319
0.114300,-1.185262
0.114400,-1.228431
0.114500,-1.206684
0.114600,-1.143390
0.114700,-1.047314
0.114800,-0.984021
0.114900,-0.842827
0.115000,-0.845099
0.115100,-0.817835
0.115200,-0.823352
0.115300,-0.779858
0.115400,-0.776937
0.115500,-0.786675
0.115600,-0.712021
0.115700,-0.737987
0.115800,-0.641262
0.115900,-0.688976
0.116000,-0.679238
0.116100,-0.682484
0.116200,-0.709749
0.116300,-0.501043
0.116400,-0.365692
0.116500,-0.021960
0.116600,-0.412432
0.116700,-0.553625
0.116800,-0.759410
0.116900,-0.446513
0.117000,-0.200805
0.117100,-0.185225
0.117200,-0.160881
0.117300,-0.499095
0.117400,-0.538045
0.117500,-0.574723
0.117600,-0.368938
0.117700,-0.315382
0.117800,-0.271239
0.117900,-0.342647
0.118000,-0.412756
0.118100,-0.377377
0.118200,-0.438398
0.118300,-0.388088
0.118400,-0.416002
0.118500,-0.397501
0.118600,-0.452031
0.118700,-0.398475
0.118800,-0.529606
0.118900,-0.619190
0.119000,-0.602312
0.119100,-0.648727
0.119200,-0.532527
0.119300,-0.522465
0.119400,-0.458198
0.119500,-0.632498
0.119600,-0.897682
0.119700,-0.834064
0.119800,-0.737663
0.119900,-0.502341
0.120000,-0.496498
0.120100,-0.613673
0.120200,-0.899954
0.120300,-0.915534
0.120400,-0.806474
0.120500,-0.636393
0.120600,-0.615945
0.120700,-0.747400
0.120800,-0.859056
0.120900,-0.903200
0.121000,-0.871391
0.121100,-0.871715
0.121200,-0.856135
0.121300,-0.955133
0.121400,-0.998627
0.121500,-1.035629
0.121600,-0.975257
0.121700,-0.990837
0.121800,-1.035954
0.121900,-1.034006
0.122000,-0.997328
0.122100,-0.980450
0.122200,-0.950264
0.122300,-0.993758
0.122400,-1.112555
0.122500,-1.114178
0.122600,-1.085615
0.122700,-0.885672
0.122800,-0.910340
0.122900,-0.921701
0.123000,-0.896383
0.123100,-0.907095
0.123200,-0.861653
0.123300,-0.869443
0.123400,-0.835037
0.123500,-0.825625
0.123600,-0.829844
0.123700,-0.800307
0.123800,-0.824002
0.123900,-0.805176
0.124000,-0.802904
0.124100,-0.800307
0.124200,-0.818808
0.124300,-0.824651
0.124400,-0.832441
0.124500,-0.866522
0.124600,-0.928517
0.124700,-1.154751
0.124800,-1.359887
0.124900,-1.310550
0.125000,-1.046665
0.125100,-0.823028
0.125200,-0.916508
0.125300,-1.081395
0.125400,-1.358588
0.125500,-1.373519
0.125600,-1.260889
0.125700,-1.034980
0.125800,-1.031410
0.125900,-1.186884
0.126000,-1.339763
0.126100,-1.455314
0.126200,-1.414417
0.126300,-1.342035
0.126400,-1.321586
0.126500,-1.393319
0.126600,-1.491992
0.126700,-1.525424
0.126800,-1.545223
0.126900,-1.501729
0.127000,-1.567620
0.127100,-1.575410
0.127200,-1.686741
0.127300,-1.645195
0.127400,-1.660450
0.127500,-1.723744
0.127600,-1.807486
0.127700,-1.832154
0.127800,-1.769185
0.127900,-1.630913
0.128000,-1.611763
0.128100,-1.773730
0.128200,-1.990551
0.128300,-2.100260
0.128400,-1.974646
0.128500,-1.743868
0.128600,-1.676679
0.128700,-1.795477
0.128800,-2.059687
0.128900,-2.184327
0.129000,-2.144728
0.129100,-2.044756
0.129200,-1.953548
0.129300,-1.982761
0.129400,-2.050599
0.129500,-2.098312
0.129600,-2.129148
0.129700,-2.111296
0.129800,-2.077215
0.129900,-2.053845
0.130000,-2.000938
0.130100,-1.886684
0.130200,-1.807162
0.130300,-1.798398
0.130400,-1.798722
0.130500,-1.830856
0.130600,-1.837348
0.130700,-1.682846
0.130800,-1.617605
0.130900,-1.590340
0.131000,-1.403381
0.131100,-1.408250
0.131200,-1.372221
0.131300,-1.274522
0.131400,-1.174875
0.131500,-1.066140
0.131600,-0.985643
0.131700,-0.998302
0.131800,-0.994732
0.131900,-0.972985
0.132000,-0.918130
0.132100,-0.989538
0.132200,-0.875286
0.132300,-0.919429
0.132400,-0.830493
0.132500,-0.852565
0.132600,-0.833739
0.132700,-0.838608
0.132800,-0.977854
0.132900,-0.822379
0.133000,-0.826598
0.133100,-0.382895
0.133200,-0.516947
0.133300,-0.549405
0.133400,-0.982722
0.133500,-0.870092
0.133600,-0.692871
0.133700,-0.519544
0.133800,-0.441644
0.133900,-0.600365
0.134000,-0.788947
0.134100,-0.860355
0.134200,-0.836336
0.134300,-0.692546
0.134400,-0.590303
0.134500,-0.550704
0.134600,-0.722407
0.134700,-0.706178
0.134800,-0.752594
0.134900,-0.706828
0.135000,-0.707477
0.135100,-0.710723
0.135200,-0.757787
0.135300,-0.717214
0.135400,-0.725004
0.135500,-0.822054
0.135600,-0.784727
0.135700,-0.859056
0.135800,-0.790570
0.135900,-0.741558
0.136000,-0.721109
0.136100,-0.662360
0.136200,-0.888593
0.136300,-1.064842
0.136400,-1.014856
0.136500,-0.859706
0.136600,-0.664956
0.136700,-0.708775
0.136800,-0.892813
0.136900,-1.151830
0.137000,-1.153452
0.137100,-1.048288
0.137200,-0.919753
0.137300,-0.955457
0.137400,-1.083343
0.137500,-1.195324
0.137600,-1.227133
0.137700,-1.258942
0.137800,-1.230054
0.137900,-1.265109
0.138000,-1.343333
0.138100,-1.426102
0.138200,-1.468946
0.138300,-1.393968
0.138400,-1.410197
0.138500,-1.428374
0.138600,-1.445901
0.138700,-1.380335
0.138800,-1.340736
0.138900,-1.264460
0.139000,-1.362808
0.139100,-1.431295
0.139200,-1.413118
0.139300,-1.368001
0.139400,-1.205061
0.139500,-1.238493
0.139600,-1.266732
0.139700,-1.228756
0.139800,-1.221939
0.139900,-1.198245
0.140000,-1.181367
0.140100,-1.172927
0.140200,-1.143390
0.140300,-1.167409
0.140400,-1.156374
0.140500,-1.182340
0.140600,-1.173252
0.140700,-1.178445
0.140800,-1.160918
0.140900,-1.215123
0.141000,-1.226159
0.141100,-1.261214
0.141200,-1.326130
0.141300,-1.354693
0.141400,-1.681548
0.141500,-1.783467
0.141600,-1.758799
0.141700,-1.424803
0.141800,-1.380011
0.141900,-1.441032
0.142000,-1.778274
0.142100,-2.004508
0.142200,-1.954847
0.142300,-1.801644
0.142400,-1.620527
0.142500,-1.684469
0.142600,-1.829233
0.142700,-2.008403
0.142800,-2.043782
0.142900,-1.961988
0.143000,-1.918493
0.143100,-1.888632
0.143200,-1.917520
0.143300,-1.958417
0.143400,-1.965558
0.143500,-1.981787
0.143600,-2.000613
0.143700,-2.029825
0.143800,-2.081434
0.143900,-2.151219
0.144000,-2.060336
0.144100,-2.088575
0.144200,-2.125902
0.144300,-2.220356
0.144400,-2.244375
0.144500,-2.127849
0.144600,-2.054818
0.144700,-2.102532
0.144800,-2.244375
0.144900,-2.382647
0.145000,-2.436528
0.145100,-2.223601
0.145200,-2.038265
0.145300,-2.022685
0.145400,-2.127200
0.145500,-2.306046
0.145600,-2.383296
0.145700,-2.316432
0.145800,-2.167124
0.145900,-2.121682
0.146000,-2.141157
0.146100,-2.175563
0.146200,-2.167449
0.146300,-2.166475
0.146400,-2.150895
0.146500,-2.111620
0.146600,-2.075916
0.146700,-1.959715
0.146800,-1.834102
0.146900,-1.762369
0.147000,-1.711085
0.147100,-1.686092
0.147200,-1.656555
0.147300,-1.598779
0.147400,-1.410522
0.147500,-1.338140
0.147600,-1.146312
0.147700,-1.089510
0.147800,-1.029462
0.147900,-0.939228
0.148000,-0.814913
0.148100,-0.702608
0.148200,-0.541940
0.148300,-0.464365
0.148400,-0.399773
0.148500,-0.400747
0.148600,-0.304021
0.148700,-0.276107
0.148800,-0.199831
0.148900,-0.128423
0.149000,0.005305
0.149100,0.016341
0.149200,0.094565
0.149300,0.131892
0.149400,0.084503
0.149500,0.261400
0.149600,0.274383
0.149700,0.621361
0.149800,0.783652
0.149900,0.932959
0.150000,0.628177
0.150100,0.483738
0.150200,0.691795
0.150300,0.942372
0.150400,1.157245
0.150500,1.288051
0.150600,1.116348
0.150700,1.055651
0.150800,1.022544
0.150900,1.250724
0.151000,1.392891
0.151100,1.821988
0.151200,2.015439
0.151300,1.613282
0.151400,1.863859
0.151500,1.912222
0.151600,2.374102
0.151700,2.657463
0.151800,2.796384
0.151900,2.729520
0.152000,3.304680
0.152100,3.115124
0.152200,2.907391
0.152300,2.652918
0.152400,2.356575
0.152500,2.563983
0.152600,3.256318
0.152700,3.393292
0.152800,3.192375
0.152900,1.763888
0.153000,0.983269
0.153100,1.361407
0.153200,2.224470
0.153300,3.331296
0.153400,2.313405
0.153500,0.931985
0.153600,0.404540
0.153700,0.421743
0.153800,0.473352
0.153900,0.687575
0.154000,0.355528
0.154100,0.156884
0.154200,-0.000862
0.154300,-0.053120
0.154400,-0.142704
0.154500,-0.177435
0.154600,-0.342647
0.154700,-0.465988
0.154800,-0.619515
0.154900,-0.708775
0.155000,-0.760708
0.155100,-0.889567
0.155200,-1.036927
0.155300,-1.152803
0.155400,-1.207009
0.155500,-1.269653
0.155600,-1.365729
0.155700,-1.603973
0.155800,-1.718550
0.155900,-1.789959
0.156000,-1.800670
0.156100,-1.756527
0.156200,-1.852928
0.156300,-1.916546
0.156400,-1.946083
0.156500,-1.995095
0.156600,-2.019114
0.156700,-2.088575
0.156800,-2.120709
0.156900,-2.160308
0.157000,-2.202828
0.157100,-2.226847
0.157200,-2.257034
0.157300,-2.269368
0.157400,-2.276833
0.157500,-2.268069
0.157600,-2.283325
0.157700,-2.300852
0.157800,-2.337855
0.157900,-2.339802
0.158000,-2.465416
0.158100,-2.751374
0.158200,-2.819212
0.158300,-2.643937
0.158400,-2.437826
0.158500,-2.338179
0.158600,-2.583240
0.158700,-2.797141
0.158800,-2.967223
0.158900,-2.835766
0.159000,-2.629655
0.159100,-2.474504
0.159200,-2.541369
0.159300,-2.712749
0.159400,-2.768902
0.159500,-2.715670
0.159600,-2.618295
0.159700,-2.505340
0.159800,-2.522218
0.159900,-2.500147
0.160000,-2.517025
0.160100,-2.490409
0.160200,-2.447239
0.160300,-2.456328
0.160400,-2.468337
0.160500,-2.543641
0.160600,-2.507287
0.160700,-2.456003
0.160800,-2.420948
0.160900,-2.479373
0.161000,-2.486514
0.161100,-2.438800
0.161200,-2.250217
0.161300,-2.182055
0.161400,-2.284299
0.161500,-2.422896
0.161600,-2.558572
0.161700,-2.515077
0.161800,-2.326819
0.161900,-2.160308
0.162000,-2.201205
0.162100,-2.397578
0.162200,-2.610505
0.162300,-2.664710
0.162400,-2.550132
0.162500,-2.436528
0.162600,-2.407316
0.162700,-2.429387
0.162800,-2.461846
0.162900,-2.467688
0.163000,-2.437502
0.163100,-2.400499
0.163200,-2.327793
0.163300,-2.271315
0.163400,-2.202504
0.163500,-2.072346
0.163600,-2.002885
0.163700,-1.961663
0.163800,-1.931801
0.163900,-1.919792
0.164000,-1.787037
0.164100,-1.627018
0.164200,-1.427075
0.164300,-1.351123
0.164400,-1.386178
0.164500,-1.322235
0.164600,-1.265758
0.164700,-1.157672
0.164800,-1.072631
0.164900,-0.993433
0.165000,-0.919104
0.165100,-0.934360
0.165200,-0.884049
0.165300,-0.879830
0.165400,-0.837309
0.165500,-0.798035
0.165600,-0.734742
0.165700,-0.696116
0.165800,-0.690923
0.165900,-0.654570
0.166000,-0.784727
0.166100,-0.640937
0.166200,-0.764603
0.166300,-0.548432
0.166400,-0.333883
0.166500,-0.177435
0.166600,-0.259878
0.166700,-0.674045
0.166800,-0.778560
0.166900,-0.728899
0.167000,-0.363095
0.167100,-0.270265
0.167200,-0.266370
0.167300,-0.429959
0.167400,-0.516947
0.167500,-0.481243
0.167600,-0.375105
0.167700,-0.189769
0.167800,-0.193339
0.167900,-0.170943
0.168000,-0.246895
0.168100,-0.171917
0.168200,-0.140757
0.168300,-0.089798
0.168400,-0.056366
0.168500,-0.048576
0.168600,-0.052146
0.168700,-0.027478
0.168800,-0.090771
0.168900,-0.193664
0.169000,-0.119659
0.169100,-0.152117
0.169200,-0.127449
0.169300,-0.020986
0.169400,-0.103755
0.169500,-0.043382
0.169600,-0.366666
0.169700,-0.307916
0.169800,-0.262150
0.169900,0.029648
0.170000,0.034842
0.170100,-0.065129
0.170200,-0.308241
0.170300,-0.385492
0.170400,-0.292012
0.170500,-0.099210
0.170600,-0.024557
0.170700,-0.115440
0.170800,-0.195936
0.170900,-0.216384
0.171000,-0.205673
0.171100,-0.205024
0.171200,-0.156012
0.171300,-0.243649
0.171400,-0.262800
0.171500,-0.307592
0.171600,-0.256633
0.171700,-0.269940
0.171800,-0.322198
0.171900,-0.349138
0.172000,-0.319277
0.172100,-0.280652
0.172200,-0.275458
0.172300,-0.337778
0.172400,-0.509806
0.172500,-0.527983
0.172600,-0.541291
0.172700,-0.509157
0.172800,-0.497797
0.172900,-0.573100
0.173000,-0.603286
0.173100,-0.611076
0.173200,-0.649701
0.173300,-0.653921
0.173400,-0.696766
0.173500,-0.747076
0.173600,-0.777586
0.173700,-0.780508
0.173800,-0.822379
0.173900,-0.835687
0.174000,-0.868469
0.174100,-0.862951
0.174200,-0.910990
0.174300,-0.954808
0.174400,-1.045042
0.174500,-1.052183
0.174600,-1.106388
0.174700,-1.286207
0.174800,-1.606894
0.174900,-1.549443
0.175000,-1.367028
0.175100,-1.219343
0.175200,-1.351448
0.175300,-1.644221
0.175400,-1.970102
0.175500,-2.043133
0.175600,-1.879219
0.175700,-1.752307
0.175800,-1.768536
0.175900,-1.975295
0.176000,-2.166475
0.176100,-2.283974
0.176200,-2.251516
0.176300,-2.265797
0.176400,-2.286571
0.176500,-2.344996
0.176600,-2.384919
0.176700,-2.429387
0.176800,-2.428414
0.176900,-2.443669
0.177000,-2.471583
0.177100,-2.551106
0.177200,-2.616997
0.177300,-2.587135
0.177400,-2.588758
0.177500,-2.634524
0.177600,-2.693923
0.177700,-2.738716
0.177800,-2.682887
0.177900,-2.541044
0.178000,-2.517349
0.178100,-2.654648
0.178200,-2.865628
0.178300,-2.965275
0.178400,-2.816940
0.178500,-2.608233
0.178600,-2.520271
0.178700,-2.594276
0.178800,-2.811098
0.178900,-2.934115
0.179000,-2.914315
0.179100,-2.752023
0.179200,-2.673799
0.179300,-2.691975
0.179400,-2.751050
0.179500,-2.774744
0.179600,-2.762735
0.179700,-2.730601
0.179800,-2.693923
0.179900,-2.658543
0.180000,-2.604987
0.180100,-2.527087
0.180200,-2.407316
0.180300,-2.345969
0.180400,-2.345320
0.180500,-2.322924
0.180600,-2.296957
0.180700,-2.098312
0.180800,-2.005806
0.180900,-1.789634
0.181000,-1.820469
0.181100,-1.834426
0.181200,-1.787037
0.181300,-1.731858
0.181400,-1.630913
0.181500,-1.564374
0.181600,-1.456937
0.181700,-1.494588
0.181800,-1.491343
0.181900,-1.504975
0.182000,-1.432918
0.182100,-1.513090
0.182200,-1.394617
0.182300,-1.505624
0.182400,-1.396240
0.182500,-1.514063
0.182600,-1.494264
0.182700,-1.520231
0.182800,-1.634159
0.182900,-1.434865
0.183000,-1.428374
0.183100,-0.991486
0.183200,-1.126188
0.183300,-1.120994
0.183400,-1.621825
0.183500,-1.557557
0.183600,-1.252450
0.183700,-1.089185
0.183800,-0.981749
0.183900,-1.069386
0.184000,-1.223562
0.184100,-1.259266
0.184200,-1.155400
0.184300,-0.979476
0.184400,-0.930789
0.184500,-0.872040
0.184600,-0.967142
0.184700,-0.941500
0.184800,-0.936956
0.184900,-0.886646
0.185000,-0.853863
0.185100,-0.853214
0.185200,-0.852240
0.185300,-0.862627
0.185400,-0.839257
0.185500,-0.985968
0.185600,-0.948641
0.185700,-1.008040
0.185800,-1.044068
0.185900,-0.939553
0.186000,-0.935982
0.186100,-0.883725
0.186200,-1.154102
0.186300,-1.287180
0.186400,-1.253099
0.186500,-1.119371
0.186600,-0.850942
0.186700,-0.911639
0.186800,-1.097300
0.186900,-1.368651
0.187000,-1.334894
0.187100,-1.175199
0.187200,-0.974283
0.187300,-0.941825
0.187400,-1.103142
0.187500,-1.195973
0.187600,-1.164488
0.187700,-1.123915
0.187800,-1.023620
0.187900,-1.035629
0.188000,-1.068737
0.188100,-1.130083
0.188200,-1.123266
0.188300,-1.072307
0.188400,-1.054779
0.188500,-1.075877
0.188600,-1.051209
0.188700,-0.989214
0.188800,-0.953834
0.188900,-0.897682
0.189000,-0.988565
0.189100,-1.056727
0.189200,-1.039849
0.189300,-1.020049
0.189400,-0.876584
0.189500,-0.896059
0.189600,-0.916183
0.189700,-0.874636
0.189800,-0.862951
0.189900,-0.838932
0.190000,-0.845099
0.190100,-0.844126
0.190200,-0.839582
0.190300,-0.832441
0.190400,-0.833090
0.190500,-0.847696
0.190600,-0.855811
0.190700,-0.856460
0.190800,-0.883725
0.190900,-0.883725
0.191000,-0.915858
0.191100,-0.927543
0.191200,-0.960326
0.191300,-1.083667
0.191400,-1.333920
0.191500,-1.531266
0.191600,-1.414741
0.191700,-1.167734
0.191800,-1.038875
0.191900,-1.170331
0.192000,-1.519581
0.192100,-1.708488
0.192200,-1.659801
0.192300,-1.508870
0.192400,-1.334569
0.192500,-1.355343
0.192600,-1.519581
0.192700,-1.733157
0.192800,-1.797424
0.192900,-1.737701
0.193000,-1.693882
0.193100,-1.682522
0.193200,-1.711734
0.193300,-1.793204
0.193400,-1.818197
0.193500,-1.817224
0.193600,-1.800021
0.193700,-1.863639
0.193800,-1.923038
0.193900,-1.934073
0.194000,-1.889606
0.194100,-1.915572
0.194200,-1.944135
0.194300,-2.046704
0.194400,-2.048651
0.194500,-1.946408
0.194600,-1.799047
0.194700,-1.888956
0.194800,-2.059687
0.194900,-2.258332
0.195000,-2.331363
0.195100,-2.136613
0.195200,-1.973997
0.195300,-1.952575
0.195400,-2.123305
0.195500,-2.386542
0.195600,-2.520920
0.195700,-2.484242
0.195800,-2.386218
0.195900,-2.314160
0.196000,-2.348891
0.196100,-2.411211
0.196200,-2.450485
0.196300,-2.455354
0.196400,-2.429712
0.196500,-2.402771
0.196600,-2.351487
0.196700,-2.310590
0.196800,-2.250542
0.196900,-2.117463
0.197000,-2.082732
0.197100,-2.022685
0.197200,-2.012622
0.197300,-2.003534
0.197400,-1.841567
0.197500,-1.819496
0.197600,-1.727963
0.197700,-1.646169
0.197800,-1.626369
0.197900,-1.587744
0.198000,-1.500431
0.198100,-1.383906
0.198200,-1.241090
0.198300,-1.157672
0.198400,-1.141443
0.198500,-1.144040
0.198600,-1.129109
0.198700,-1.062894
0.198800,-1.067763
0.198900,-0.935009
0.199000,-0.913586
0.199100,-0.804527
0.199200,-0.847047
0.199300,-0.844775
0.199400,-0.847372
0.199500,-0.808422
0.199600,-0.749672
0.199700,-0.484489
0.199800,-0.277730
0.199900,-0.201454
0.200000,-0.627630
0.200100,-0.699687
0.200200,-0.681186
0.200300,-0.366666
0.200400,-0.158284
0.200500,-0.157960
0.200600,-0.216709
0.200700,-0.393281
0.200800,-0.419248
0.200900,-0.312461
0.201000,-0.060585
0.201100,-0.023258
0.201200,0.029973
0.201300,-0.045654
0.201400,-0.007354
0.201500,0.016990
0.201600,0.077687
0.201700,0.124751
0.201800,0.115338
0.201900,0.146822
0.202000,0.144550
0.202100,0.103653
0.202200,0.051720
0.202300,0.062756
0.202400,0.047825
0.202500,0.015042
0.202600,0.124751
0.202700,0.095863
0.202800,0.097161
0.202900,-0.222227
0.203000,-0.283573
0.203100,-0.178733
0.203200,-0.026504
0.203300,0.129620
0.203400,0.003357
0.203500,-0.203401
0.203600,-0.415353
0.203700,-0.371859
0.203800,-0.256308
0.203900,-0.123229
0.204000,-0.177110
0.204100,-0.312461
0.204200,-0.436775
0.204300,-0.451057
0.204400,-0.486761
0.204500,-0.420871
0.204600,-0.477348
0.204700,-0.526035
0.204800,-0.592575
0.204900,-0.565959
0.205000,-0.562389
0.205100,-0.568880
0.205200,-0.607181
0.205300,-0.584136
0.205400,-0.543563
0.205500,-0.544212
0.205600,-0.524413
0.205700,-0.645806
0.205800,-0.707152
0.205900,-0.678264
0.206000,-0.658465
0.206100,-0.505262
0.206200,-0.547458
0.206300,-0.533825
0.206400,-0.492279
0.206500,-0.499095
0.206600,-0.443916
0.206700,-0.429635
0.206800,-0.441320
0.206900,-0.428336
0.207000,-0.408861
0.207100,-0.366666
0.207200,-0.374780
0.207300,-0.365692
0.207400,-0.369262
0.207500,-0.383869
0.207600,-0.398799
0.207700,-0.445215
0.207800,-0.496498
0.207900,-0.553949
0.208000,-0.677615
0.208100,-0.923973
0.208200,-0.964221
0.208300,-0.795114
0.208400,-0.522790
0.208500,-0.571801
0.208600,-0.752918
0.208700,-1.080746
0.208800,-1.233949
0.208900,-1.111906
0.209000,-0.967142
0.209100,-0.888918
0.209200,-1.001223
0.209300,-1.169682
0.209400,-1.359887
0.209500,-1.360536
0.209600,-1.343982
0.209700,-1.318016
0.209800,-1.410846
0.209900,-1.437787
0.210000,-1.519257
0.210100,-1.561128
0.210200,-1.604297
0.210300,-1.671486
0.210400,-1.753930
0.210500,-1.891878
0.210600,-1.883763
0.210700,-1.920441
0.210800,-1.950627
0.210900,-2.063582
0.211000,-2.145377
0.211100,-2.132394
0.211200,-1.995744
0.211300,-2.029176
0.211400,-2.189845
0.211500,-2.428414
0.211600,-2.625436
0.211700,-2.597522
0.211800,-2.428414
0.211900,-2.301501
0.212000,-2.357979
0.212100,-2.574476
0.212200,-2.785456
0.212300,-2.855890
0.212400,-2.726381
0.212500,-2.644911
0.212600,-2.616672
0.212700,-2.669579
0.212800,-2.728978
0.212900,-2.749751
0.213000,-2.741637
0.213100,-2.743909
0.213200,-2.712100
0.213300,-2.693923
0.213400,-2.624787
0.213500,-2.521244
0.213600,-2.446915
0.213700,-2.432633
0.213800,-2.478075
0.213900,-2.493979
0.214000,-2.388165
0.214100,-2.231716
0.214200,-2.026580
0.214300,-1.953548
0.214400,-1.991200
0.214500,-1.918169
0.214600,-1.827610
0.214700,-1.712383
0.214800,-1.612087
0.214900,-1.477386
0.215000,-1.429023
0.215100,-1.387801
0.215200,-1.361834
0.215300,-1.318340
0.215400,-1.294646
0.215500,-1.239791
0.215600,-1.162865
0.215700,-1.077500
0.215800,-1.092106
0.215900,-0.989214
0.216000,-1.041796
0.216100,-0.953510
0.216200,-0.955782
0.216300,-0.688002
0.216400,-0.460794
0.216500,-0.244298
0.216600,-0.241053
0.216700,-0.628928
0.216800,-0.641911
0.216900,-0.512078
0.217000,-0.103430
0.217100,-0.041759
0.217200,0.024780
0.217300,-0.163478
0.217400,-0.294284
0.217500,-0.199831
0.217600,0.009524
0.217700,0.131243
0.217800,0.152665
0.217900,0.140006
0.218000,-0.000538
0.218100,0.008551
0.218200,0.072818
0.218300,0.058536
0.218400,0.046202
0.218500,-0.012547
0.218600,-0.046953
0.218700,-0.119335
0.218800,-0.156012
0.218900,-0.402045
0.219000,-0.403668
0.219100,-0.534475
0.219200,-0.522790
0.219300,-0.504613
0.219400,-0.575372
0.219500,-0.672422
0.219600,-1.081720
0.219700,-1.125214
0.219800,-1.138522
0.219900,-0.978827
0.220000,-1.022646
0.220100,-1.210579
0.220200,-1.528670
0.220300,-1.707839
0.220400,-1.692584
0.220500,-1.579305
0.220600,-1.555285
0.220700,-1.708164
0.220800,-1.882465
0.220900,-1.974971
0.221000,-2.031773
0.221100,-2.065205
0.221200,-2.080785
0.221300,-2.188547
0.221400,-2.282026
0.221500,-2.375831
0.221600,-2.353110
0.221700,-2.372910
0.221800,-2.432633
0.221900,-2.448538
0.222000,-2.442371
0.222100,-2.429387
0.222200,-2.391736
0.222300,-2.437177
0.222400,-2.569283
0.222500,-2.612452
0.222600,-2.584863
0.222700,-2.519622
0.222800,-2.468662
0.222900,-2.513779
0.223000,-2.516376
0.223100,-2.495927
0.223200,-2.479373
0.223300,-2.464442
0.223400,-2.411211
0.223500,-2.409588
0.223600,-2.354733
0.223700,-2.316757
0.223800,-2.295659
0.223900,-2.270666
0.224000,-2.249568
0.224100,-2.229119
0.224200,-2.192442
0.224300,-2.221979
0.224400,-2.244375
0.224500,-2.286895
0.224600,-2.271640
0.224700,-2.511507
0.224800,-2.707555
0.224900,-2.688080
0.225000,-2.445292
0.225100,-2.228470
0.225200,-2.245673
0.225300,-2.447564
0.225400,-2.767928
0.225500,-2.773771
0.225600,-2.621541
0.225700,-2.401798
0.225800,-2.333960
0.225900,-2.401798
0.226000,-2.603689
0.226100,-2.686458
0.226200,-2.635173
0.226300,-2.546887
0.226400,-2.542992
0.226500,-2.554352
0.226600,-2.587459
0.226700,-2.600443
0.226800,-2.593627
0.226900,-2.574152
0.227000,-2.584214
0.227100,-2.614400
0.227200,-2.610505
0.227300,-2.581942
0.227400,-2.505989
0.227500,-2.517349
0.227600,-2.493979
0.227700,-2.544290
0.227800,-2.394332
0.227900,-2.234637
0.228000,-2.187248
0.228100,-2.281377
0.228200,-2.397254
0.228300,-2.496576
0.228400,-2.322924
0.228500,-2.095716
0.228600,-1.960365
0.228700,-2.007105
0.228800,-2.135964
0.228900,-2.230418
0.229000,-2.178484
0.229100,-2.014570
0.229200,-1.872078
0.229300,-1.830207
0.229400,-1.786064
0.229500,-1.751333
0.229600,-1.690636
0.229700,-1.619553
0.229800,-1.527696
0.229900,-1.416364
0.230000,-1.282636
0.230100,-1.101519
0.230200,-0.941825
0.230300,-0.855811
0.230400,-0.806150
0.230500,-0.759410
0.230600,-0.715916
0.230700,-0.515973
0.230800,-0.421520
0.230900,-0.384518
0.231000,-0.241702
0.231100,-0.208270
0.231200,-0.181330
0.231300,-0.100509
0.231400,0.003682
0.231500,0.085152
0.231600,0.162402
0.231700,0.195834
0.231800,0.193238
0.231900,0.209791
0.232000,0.208818
0.232100,0.160779
0.232200,0.185123
0.232300,0.164999
0.232400,0.183176
0.232500,0.151367
0.232600,0.134488
0.232700,-0.012547
0.232800,-0.009950
0.232900,-0.049874
0.233000,0.182851
0.233100,0.276980
0.233200,0.484063
0.233300,0.127348
0.233400,-0.237807
0.233500,-0.193988
0.233600,-0.064156
0.233700,0.162078
0.233800,0.196808
0.233900,0.118259
0.234000,-0.166074
0.234100,-0.252413
0.234200,-0.207296
0.234300,-0.077463
0.234400,0.011796
0.234500,-0.023258
0.234600,-0.117062
0.234700,-0.125826
0.234800,-0.226446
0.234900,-0.213139
0.235000,-0.248518
0.235100,-0.260852
0.235200,-0.301749
0.235300,-0.280652
0.235400,-0.327716
0.235500,-0.391983
0.235600,-0.566284
0.235700,-0.590952
0.235800,-0.666579
0.235900,-0.536097
0.236000,-0.533825
0.236100,-0.576670
0.236200,-0.756813
0.236300,-1.000899
0.236400,-0.973959
0.236500,-0.881128
0.236600,-0.647104
0.236700,-0.743181
0.236800,-0.935009
0.236900,-1.182016
0.237000,-1.210904
0.237100,-1.127161
0.237200,-0.966818
0.237300,-0.986293
0.237400,-1.127810
0.237500,-1.258293
0.237600,-1.208631
0.237700,-1.240441
0.237800,-1.191753
0.237900,-1.275171
0.238000,-1.333596
0.238100,-1.387801
0.238200,-1.378063
0.238300,-1.308278
0.238400,-1.322560
0.238500,-1.365080
0.238600,-1.363457
0.238700,-1.307629
0.238800,-1.254398
0.238900,-1.223238
0.239000,-1.317367
0.239100,-1.390398
0.239200,-1.363133
0.239300,-1.331324
0.239400,-1.185911
0.239500,-1.236870
0.239600,-1.283610
0.239700,-1.265758
0.239800,-1.296918
0.239900,-1.297892
0.240000,-1.338140
0.240100,-1.374168
0.240200,-1.402732
0.240300,-1.431295
0.240400,-1.447199
0.240500,-1.504651
0.240600,-1.525424
0.240700,-1.570216
0.240800,-1.596183
0.240900,-1.680574
0.241000,-1.734455
0.241100,-1.772107
0.241200,-1.846761
0.241300,-1.912976
0.241400,-2.247296
0.241500,-2.394008
0.241600,-2.363497
0.241700,-2.104155
0.241800,-2.004183
0.241900,-2.104479
0.242000,-2.382647
0.242100,-2.625111
0.242200,-2.564414
0.242300,-2.381024
0.242400,-2.214189
0.242500,-2.234313
0.242600,-2.371287
0.242700,-2.478075
0.242800,-2.497874
0.242900,-2.391086
0.243000,-2.342074
0.243100,-2.276184
0.243200,-2.266771
0.243300,-2.258332
0.243400,-2.215487
0.243500,-2.135315
0.243600,-2.056117
0.243700,-2.086952
0.243800,-2.123305
0.243900,-2.082408
0.244000,-2.009377
0.244100,-1.943486
0.244200,-1.952575
0.244300,-1.949004
0.244400,-1.938942
0.244500,-1.745491
0.244600,-1.605596
0.244700,-1.616956
0.244800,-1.700049
0.244900,-1.829233
0.245000,-1.862665
0.245100,-1.667916
0.245200,-1.469920
0.245300,-1.424479
0.245400,-1.565997
0.245500,-1.767562
0.245600,-1.848384
0.245700,-1.797424
0.245800,-1.658178
0.245900,-1.600078
0.246000,-1.671811
0.246100,-1.737701
0.246200,-1.759772
0.246300,-1.750684
0.246400,-1.715629
0.246500,-1.713033
0.246600,-1.712059
0.246700,-1.705243
0.246800,-1.659801
0.246900,-1.604622
0.247000,-1.591639
0.247100,-1.619877
0.247200,-1.669538
0.247300,-1.683171
0.247400,-1.553338
0.247500,-1.525424
0.247600,-1.439734
0.247700,-1.567944
0.247800,-1.589691
0.247900,-1.624097
0.248000,-1.591963
0.248100,-1.570216
0.248200,-1.481930
0.248300,-1.480631
0.248400,-1.539056
0.248500,-1.591314
0.248600,-1.615982
0.248700,-1.593586
0.248800,-1.600727
0.248900,-1.530293
0.249000,-1.480307
0.249100,-1.455314
0.249200,-1.409223
0.249300,-1.385529
0.249400,-1.409223
0.249500,-1.279715
0.249600,-1.218044
0.249700,-0.922675
0.249800,-0.690923
0.249900,-0.535124
0.250000,-0.870092
0.250100,-0.953510
0.250200,-0.723057
0.250300,-0.381272
0.250400,-0.162179
0.250500,-0.098886
0.250600,-0.193339
0.250700,-0.325119
0.250800,-0.294284
0.250900,0.006928
0.251000,0.163376
0.251100,0.403891
0.251200,0.383767
0.251300,0.343519
0.251400,0.427261
0.251500,0.524635
0.251600,0.640511
0.251700,0.750869
0.251800,0.808644
0.251900,0.835260
0.252000,0.896930
0.252100,0.866095
0.252200,0.911537
0.252300,0.896606
0.252400,0.908940
0.252500,1.265006
0.252600,1.993043
0.252700,2.502637
0.252800,2.794436
0.252900,1.316615
0.253000,1.100768
0.253100,1.694752
0.253200,3.104737
0.253300,4.437153
0.253400,3.856472
0.253500,2.920699
0.253600,1.600623
0.253700,1.996613
0.253800,2.819105
0.253900,3.912625
0.254000,3.587717
0.254100,2.748021
0.254200,2.040107
0.254300,1.953769
0.254400,1.617177
0.254500,1.939487
0.254600,1.377311
0.254700,1.025465
0.254800,0.401619
0.254900,0.329886
0.255000,0.140655
0.255100,0.051395
0.255200,-0.049549
0.255300,-0.119010
0.255400,-0.189120
0.255500,-0.286170
0.255600,-0.421845
0.255700,-0.638990
0.255800,-0.800307
0.255900,-0.879181
0.256000,-0.959352
0.256100,-0.926570
0.256200,-1.089510
0.256300,-1.167409
0.256400,-1.235572
0.256500,-1.318665
0.256600,-1.400784
0.256700,-1.462779
0.256800,-1.546846
0.256900,-1.607219
0.257000,-1.676355
0.257100,-1.731858
0.257200,-1.805539
0.257300,-1.885711
0.257400,-1.931477
0.257500,-2.026904
0.257600,-2.066503
0.257700,-2.136613
0.257800,-2.137262
0.257900,-2.270017
0.258000,-2.420624
0.258100,-2.778639
0.258200,-2.913017
0.258300,-2.787403
0.258400,-2.627708
0.258500,-2.631603
0.258600,-2.855566
0.258700,-3.244093
0.258800,-3.432352
0.258900,-3.413202
0.259000,-3.267788
0.259100,-3.216179
0.259200,-3.320046
0.259300,-3.529403
0.259400,-3.667027
0.259500,-3.697214
0.259600,-3.641710
0.259700,-3.608602
0.259800,-3.583609
0.259900,-3.563160
0.260000,-3.618015
0.260100,-3.575494
0.260200,-3.575819
0.260300,-3.510577
0.260400,-3.526806
0.260500,-3.558940
0.260600,-3.504085
0.260700,-3.481689
0.260800,-3.489155
0.260900,-3.558291
0.261000,-3.552124
0.261100,-3.530052
0.261200,-3.351531
0.261300,-3.316151
0.261400,-3.410280
0.261500,-3.576793
0.261600,-3.738111
0.261700,-3.695915
0.261800,-3.502463
0.261900,-3.359970
0.262000,-3.381392
0.262100,-3.574520
0.262200,-3.767324
0.262300,-3.819907
0.262400,-3.700135
0.262500,-3.605681
0.262600,-3.566081
0.262700,-3.567380
0.262800,-3.580363
0.262900,-3.594969
0.263000,-3.555695
0.263100,-3.531026
0.263200,-3.471302
0.263300,-3.392428
0.263400,-3.276227
0.263500,-3.145744
0.263600,-3.073037
0.263700,-3.068818
0.263800,-3.035385
0.263900,-3.003251
0.264000,-2.843556
0.264100,-2.650429
0.264200,-2.595574
0.264300,-2.344022
0.264400,-2.359926
0.264500,-2.254437
0.264600,-2.170370
0.264700,-2.009701
0.264800,-1.876622
0.264900,-1.703620
0.265000,-1.640326
0.265100,-1.545223
0.265200,-1.527371
0.265300,-1.368001
0.265400,-1.370923
0.265500,-1.258293
0.265600,-1.132679
0.265700,-1.003171
0.265800,-0.898006
0.265900,-0.804202
0.266000,-0.770446
0.266100,-0.598417
0.266200,-0.519219
0.266300,-0.235535
0.266400,0.103653
0.266500,0.383442
0.266600,0.319824
0.266700,0.061133
0.266800,0.066651
0.266900,0.310412
0.267000,0.667451
0.267100,0.844997
0.267200,0.934257
0.267300,0.798582
0.267400,0.733991
0.267500,0.840129
0.267600,1.068310
0.267700,1.200414
0.267800,1.323431
0.267900,1.304605
0.268000,1.291946
0.268100,1.497082
0.268200,2.267315
0.268300,2.705825
0.268400,3.084938
0.268500,3.250800
0.268600,3.608815
0.268700,3.729235
0.268800,3.763641
0.268900,3.205683
0.269000,3.349473
0.269100,3.365702
0.269200,3.400757
0.269300,3.823689
0.269400,4.056091
0.269500,3.085912
0.269600,1.481502
0.269700,1.036501
0.269800,1.481827
0.269900,2.717186
0.270000,2.454274
0.270100,1.560375
0.270200,0.410707
0.270300,0.253934
0.270400,0.221152
0.270500,0.297428
0.270600,0.257505
0.270700,0.041658
0.270800,-0.176461
0.270900,-0.296881
0.271000,-0.406589
0.271100,-0.502666
0.271200,-0.609128
0.271300,-0.767200
0.271400,-0.898655
0.271500,-1.049586
0.271600,-1.120670
0.271700,-1.230703
0.271800,-1.332946
0.271900,-1.434216
0.272000,-1.469271
0.272100,-1.511791
0.272200,-1.554961
0.272300,-1.660126
0.272400,-1.824364
0.272500,-1.918493
0.272600,-1.921415
0.272700,-1.833777
0.272800,-1.841892
0.272900,-1.914598
0.273000,-1.930828
0.273100,-1.956794
0.273200,-1.954522
0.273300,-1.969128
0.273400,-1.969453
0.273500,-2.032097
0.273600,-2.037940
0.273700,-2.049625
0.273800,-2.053520
0.273900,-2.060012
0.274000,-2.065854
0.274100,-2.060661
0.274200,-2.070723
0.274300,-2.058064
0.274400,-2.056117
0.274500,-2.035019
0.274600,-2.031773
0.274700,-2.226198
0.274800,-2.418027
0.274900,-2.375182
0.275000,-2.097014
0.275100,-1.817224
0.275200,-1.804565
0.275300,-1.957443
0.275400,-2.189196
0.275500,-2.204127
0.275600,-2.026255
0.275700,-1.786713
0.275800,-1.730885
0.275900,-1.791582
0.276000,-1.972050
0.276100,-1.978541
0.276200,-1.897396
0.276300,-1.840594
0.276400,-1.811057
0.276500,-1.862341
0.276600,-1.905835
0.276700,-1.916546
0.276800,-1.908431
0.276900,-1.920441
0.277000,-1.961988
0.277100,-2.026904
0.277200,-2.110647
0.277300,-2.056441
0.277400,-2.083706
0.277500,-2.155439
0.277600,-2.218084
0.277700,-2.294036
0.277800,-2.218084
0.277900,-2.112594
0.278000,-2.089549
0.278100,-2.262227
0.278200,-2.473531
0.278300,-2.617970
0.278400,-2.534877
0.278500,-2.377454
0.278600,-2.297282
0.278700,-2.421273
0.278800,-2.639068
0.278900,-2.820835
0.279000,-2.861408
0.279100,-2.762735
0.279200,-2.719890
0.279300,-2.755269
0.279400,-2.815642
0.279500,-2.866602
0.279600,-2.872120
0.279700,-2.873093
0.279800,-2.860759
0.279900,-2.827002
0.280000,-2.788052
0.280100,-2.665035
0.280200,-2.560844
0.280300,-2.472232
0.280400,-2.482944
0.280500,-2.488137
0.280600,-2.467364
0.280700,-2.305396
0.280800,-2.217759
0.280900,-2.085978
0.281000,-2.066179
0.281100,-2.022360
0.281200,-2.048002
0.281300,-1.945758
0.281400,-1.822742
0.281500,-1.706541
0.281600,-1.622149
0.281700,-1.600078
0.281800,-1.590016
0.281900,-1.569242
0.282000,-1.546846
0.282100,-1.526722
0.282200,-1.457262
0.282300,-1.414092
0.282400,-1.367352
0.282500,-1.389424
0.282600,-1.358264
0.282700,-1.439085
0.282800,-1.340736
0.282900,-1.312822
0.283000,-1.117099
0.283100,-0.765577
0.283200,-0.713319
0.283300,-0.803878
0.283400,-1.256994
0.283500,-1.131381
0.283600,-0.964546
0.283700,-0.639964
0.283800,-0.553949
0.283900,-0.622436
0.284000,-0.782780
0.284100,-0.866197
0.284200,-0.678914
0.284300,-0.481243
0.284400,-0.326418
0.284500,-0.278380
0.284600,-0.331286
0.284700,-0.279678
0.284800,-0.276757
0.284900,-0.183277
0.285000,-0.142055
0.285100,-0.122905
0.285200,-0.146599
0.285300,-0.129721
0.285400,-0.188795
0.285500,-0.294933
0.285600,-0.425740
0.285700,-0.453978
0.285800,-0.563362
0.285900,-0.509482
0.286000,-0.553949
0.286100,-0.527658
0.286200,-0.781481
0.286300,-1.058025
0.286400,-1.051534
0.286500,-0.981099
0.286600,-0.746427
0.286700,-0.841854
0.286800,-1.003171
0.286900,-1.298541
0.287000,-1.332946
0.287100,-1.249204
0.287200,-1.096001
0.287300,-1.049262
0.287400,-1.196622
0.287500,-1.317367
0.287600,-1.289452
0.287700,-1.287505
0.287800,-1.211228
0.287900,-1.207333
0.288000,-1.234923
0.288100,-1.245309
0.288200,-1.245309
0.288300,-1.172927
0.288400,-1.122617
0.288500,-1.130083
0.288600,-1.092106
0.288700,-1.027839
0.288800,-0.962274
0.288900,-0.887620
0.289000,-0.926570
0.289100,-0.979801
0.289200,-0.920402
0.289300,-0.790570
0.289400,-0.635095
0.289500,-0.630226
0.289600,-0.622436
0.289700,-0.572775
0.289800,-0.536747
0.289900,-0.472155
0.290000,-0.476374
0.290100,-0.402045
0.290200,-0.403668
0.290300,-0.352709
0.290400,-0.331936
0.290500,-0.309215
0.290600,-0.292012
0.290700,-0.229043
0.290800,-0.248518
0.290900,-0.195287
0.291000,-0.261826
0.291100,-0.247544
0.291200,-0.291687
0.291300,-0.329014
0.291400,-0.534475
0.291500,-0.743830
0.291600,-0.595496
0.291700,-0.347515
0.291800,-0.111220
0.291900,-0.245272
0.292000,-0.453005
0.292100,-0.659114
0.292200,-0.637367
0.292300,-0.467286
0.292400,-0.278704
0.292500,-0.309539
0.292600,-0.448136
0.292700,-0.599716
0.292800,-0.639964
0.292900,-0.612699
0.293000,-0.599066
0.293100,-0.630875
0.293200,-0.692221
0.293300,-0.797061
0.293400,-0.853863
0.293500,-0.919104
0.293600,-0.937930
0.293700,-1.034655
0.293800,-1.089834
0.293900,-1.194674
0.294000,-1.194350
0.294100,-1.302760
0.294200,-1.375467
0.294300,-1.475763
0.294400,-1.555935
0.294500,-1.481930
0.294600,-1.439409
0.294700,-1.509519
0.294800,-1.677653
0.294900,-1.878894
0.295000,-2.025606
0.295100,-1.875973
0.295200,-1.758150
0.295300,-1.748412
0.295400,-1.931152
0.295500,-2.170045
0.295600,-2.293387
0.295700,-2.290141
0.295800,-2.223601
0.295900,-2.196012
0.296000,-2.265148
0.296100,-2.336232
0.296200,-2.408939
0.296300,-2.415106
0.296400,-2.429712
0.296500,-2.452433
0.296600,-2.432309
0.296700,-2.393683
0.296800,-2.273587
0.296900,-2.216461
0.297000,-2.203802
0.297100,-2.227496
0.297200,-2.257358
0.297300,-2.217434
0.297400,-2.069100
0.297500,-2.080785
0.297600,-1.875973
0.297700,-1.972050
0.297800,-1.975945
0.297900,-1.996393
0.298000,-1.964260
0.298100,-1.914923
0.298200,-1.869806
0.298300,-1.847410
0.298400,-1.884412
0.298500,-1.932775
0.298600,-1.971076
0.298700,-1.990551
0.298800,-2.062608
0.298900,-1.985682
0.299000,-2.021062
0.299100,-2.018465
0.299200,-2.017491
0.299300,-2.070398
0.299400,-2.043133
0.299500,-2.101883
0.299600,-1.965558
0.299700,-1.804889
0.299800,-1.457262
0.299900,-1.539056
0.300000,-1.833453
0.300100,-2.082408
0.300200,-2.021711
0.300300,-1.673433
0.300400,-1.518608
0.300500,-1.491018
0.300600,-1.577357
0.300700,-1.753605
0.300800,-1.810407
0.300900,-1.654283
0.301000,-1.464402
0.301100,-1.364756
0.301200,-1.351123
0.301300,-1.318989
0.301400,-1.259591
0.301500,-1.195648
0.301600,-1.114178
0.301700,-1.028488
0.301800,-0.950264
0.301900,-0.894436
0.302000,-0.820756
0.302100,-0.756164
0.302200,-0.777262
0.302300,-0.726302
0.302400,-0.770770
0.302500,-0.774016
0.302600,-0.591926
0.302700,-0.533176
0.302800,-0.431582
0.302900,-0.634121
0.303000,-0.696116
0.303100,-0.652622
0.303200,-0.422169
0.303300,-0.244298
0.303400,-0.247544
0.303500,-0.479620
0.303600,-0.586408
0.303700,-0.521816
0.303800,-0.356604
0.303900,-0.179707
0.304000,-0.191716
0.304100,-0.295907
0.304200,-0.324470
0.304300,-0.253387
0.304400,-0.220929
0.304500,-0.133941
0.304600,-0.206322
0.304700,-0.205349
0.304800,-0.247869
0.304900,-0.221253
0.305000,-0.208594
0.305100,-0.209568
0.305200,-0.245272
0.305300,-0.217683
0.305400,-0.178408
0.305500,-0.157311
0.305600,-0.187497
0.305700,-0.358551
0.305800,-0.457873
0.305900,-0.476050
0.306000,-0.488709
0.306100,-0.458847
0.306200,-0.571477
0.306300,-0.638341
0.306400,-0.697739
0.306500,-0.782455
0.306600,-0.843801
0.306700,-0.943123
0.306800,-1.004469
0.306900,-1.084641
0.307000,-1.148908
0.307100,-1.252775
0.307200,-1.348526
0.307300,-1.429997
0.307400,-1.509195
0.307500,-1.614035
0.307600,-1.685768
0.307700,-1.843515
0.307800,-1.894474
0.307900,-2.024957
0.308000,-2.184652
0.308100,-2.578047
0.308200,-2.701713
0.308300,-2.590056
0.308400,-2.406991
0.308500,-2.354409
0.308600,-2.610505
0.308700,-2.902630
0.308800,-3.131787
0.308900,-3.069791
0.309000,-2.947748
0.309100,-2.852644
0.309200,-3.021104
0.309300,-3.179501
0.309400,-3.334003
0.309500,-3.362566
0.309600,-3.295377
0.309700,-3.281096
0.309800,-3.310308
0.309900,-3.299597
0.310000,-3.329459
0.310100,-3.320370
0.310200,-3.291158
0.310300,-3.280771
0.310400,-3.304790
0.310500,-3.357698
0.310600,-3.344714
0.310700,-3.280122
0.310800,-3.224943
0.310900,-3.259673
0.311000,-3.242146
0.311100,-3.231759
0.311200,-3.020454
0.311300,-2.941580
0.311400,-2.973714
0.311500,-3.096407
0.311600,-3.249936
0.311700,-3.226890
0.311800,-3.007796
0.311900,-2.819537
0.312000,-2.807852
0.312100,-2.972416
0.312200,-3.163921
0.312300,-3.210336
0.312400,-3.095109
0.312500,-2.967547
0.312600,-2.921456
0.312700,-2.941256
0.312800,-2.973390
0.312900,-2.960082
0.313000,-2.911394
0.313100,-2.877962
0.313200,-2.802659
0.313300,-2.765007
0.313400,-2.668605
0.313500,-2.522867
0.313600,-2.432309
0.313700,-2.392060
0.313800,-2.358304
0.313900,-2.347592
0.314000,-2.212890
0.314100,-2.051897
0.314200,-1.983410
0.314300,-1.759772
0.314400,-1.753930
0.314500,-1.698102
0.314600,-1.642923
0.314700,-1.513739
0.314800,-1.414741
0.314900,-1.306655
0.315000,-1.282636
0.315100,-1.270627
0.315200,-1.285233
0.315300,-1.291075
0.315400,-1.275171
0.315500,-1.255047
0.315600,-1.225834
0.315700,-1.175199
0.315800,-1.232001
0.315900,-1.199543
0.316000,-1.296593
0.316100,-1.232326
0.316200,-1.308603
0.316300,-1.130083
0.316400,-0.954808
0.316500,-0.800956
0.316600,-0.836985
0.316700,-1.339763
0.316800,-1.297242
0.316900,-1.298216
0.317000,-0.939877
0.317100,-0.914560
0.317200,-0.987591
0.317300,-1.180068
0.317400,-1.343658
0.317500,-1.292049
0.317600,-1.198245
0.317700,-1.037901
0.317800,-1.060947
0.317900,-1.078474
0.318000,-1.170980
0.318100,-1.143066
0.318200,-1.140794
0.318300,-1.063868
0.318400,-1.053481
0.318500,-1.025243
0.318600,-1.002522
0.318700,-0.953510
0.318800,-1.064517
0.318900,-0.971362
0.319000,-1.076202
0.319100,-0.983696
0.319200,-1.001223
0.319300,-0.821730
0.319400,-0.861978
0.319500,-0.850617
0.319600,-1.162216
0.319700,-1.185911
0.319800,-1.081720
0.319900,-0.845099
0.320000,-0.774341
0.320100,-0.909691
0.320200,-1.117424
0.320300,-1.246283
0.320400,-1.147610
0.320500,-0.995056
0.320600,-0.922025
0.320700,-1.003496
0.320800,-1.113204
0.320900,-1.151830
0.321000,-1.135276
0.321100,-1.141768
0.321200,-1.114503
0.321300,-1.189806
0.321400,-1.210904
0.321500,-1.237519
0.321600,-1.226483
0.321700,-1.256994
0.321800,-1.238818
0.321900,-1.178445
0.322000,-1.145662
0.322100,-1.159620
0.322200,-1.173252
0.322300,-1.229729
0.322400,-1.373195
0.322500,-1.399486
0.322600,-1.397863
0.322700,-1.423505
0.322800,-1.384230
0.322900,-1.378388
0.323000,-1.388450
0.323100,-1.384555
0.323200,-1.381634
0.323300,-1.385853
0.323400,-1.364106
0.323500,-1.373844
0.323600,-1.351772
0.323700,-1.327429
0.323800,-1.356966
0.323900,-1.329701
0.324000,-1.334245
0.324100,-1.290102
0.324200,-1.311199
0.324300,-1.273872
0.324400,-1.282961
0.324500,-1.311524
0.324600,-1.332622
0.324700,-1.497185
0.324800,-1.729262
0.324900,-1.741920
0.325000,-1.463753
0.325100,-1.280364
0.325200,-1.297892
0.325300,-1.567295
0.325400,-1.785090
0.325500,-1.906808
0.325600,-1.716603
0.325700,-1.538732
0.325800,-1.525424
0.325900,-1.676355
0.326000,-1.863639
0.326100,-1.971400
0.326200,-1.944785
0.326300,-1.916546
0.326400,-1.924011
0.326500,-2.004183
0.326600,-2.031448
0.326700,-2.083382
0.326800,-2.102532
0.326900,-2.088575
0.327000,-2.139859
0.327100,-2.234637
0.327200,-2.322275
0.327300,-2.290466
0.327400,-2.316757
0.327500,-2.322275
0.327600,-2.420948
0.327700,-2.482619
0.327800,-2.447889
0.327900,-2.355058
0.328000,-2.391086
0.328100,-2.575450
0.328200,-2.804606
0.328300,-2.996111
0.328400,-2.934440
0.328500,-2.783508
0.328600,-2.724434
0.328700,-2.852969
0.328800,-3.089591
0.328900,-3.272007
0.329000,-3.255778
0.329100,-3.109391
0.329200,-3.018507
0.329300,-2.996111
0.329400,-3.003251
0.329500,-3.008769
0.329600,-2.984426
0.329700,-2.954888
0.329800,-2.880559
0.329900,-2.812071
0.330000,-2.715995
0.330100,-2.571879
0.330200,-2.404719
0.330300,-2.299229
0.330400,-2.245998
0.330500,-2.165501
0.330600,-2.122332
0.330700,-1.922388
0.330800,-1.790932
0.330900,-1.618579
0.331000,-1.581252
0.331100,-1.578980
0.331200,-1.537758
0.331300,-1.488421
0.331400,-1.387476
0.331500,-1.309901
0.331600,-1.262188
0.331700,-1.307629
0.331800,-1.325481
0.331900,-1.389424
0.332000,-1.344956
0.332100,-1.485176
0.332200,-1.404030
0.332300,-1.496211
0.332400,-1.429023
0.332500,-1.467324
0.332600,-1.487772
0.332700,-1.544574
0.332800,-1.567295
0.332900,-1.488421
0.333000,-1.435190
0.333100,-1.099896
0.333200,-1.060622
0.333300,-1.252775
0.333400,-1.569242
0.333500,-1.719200
0.333600,-1.294970
0.333700,-1.235247
0.333800,-1.036603
0.333900,-1.240116
0.334000,-1.359887
0.334100,-1.488421
0.334200,-1.421233
0.334300,-1.195648
0.334400,-1.082044
0.334500,-0.994732
0.334600,-1.151505
0.334700,-1.141118
0.334800,-1.161242
0.334900,-1.104116
0.335000,-1.080746
0.335100,-1.066789
0.335200,-1.060947
0.335300,-1.022970
0.335400,-1.025567
0.335500,-1.005443
0.335600,-1.129433
0.335700,-1.031085
0.335800,-1.076526
0.335900,-0.953185
0.336000,-0.940202
0.336100,-0.887620
0.336200,-0.996679
0.336300,-1.277118
0.336400,-1.177147
0.336500,-1.032708
0.336600,-0.792842
0.336700,-0.794465
0.336800,-0.958054
0.336900,-1.184288
0.337000,-1.199543
0.337100,-1.061596
0.337200,-0.863276
0.337300,-0.821080
0.337400,-0.993758
0.337500,-1.137873
0.337600,-1.192078
0.337700,-1.194999
0.337800,-1.161892
0.337900,-1.205710
0.338000,-1.282312
0.338100,-1.386178
0.338200,-1.462779
0.338300,-1.416689
0.338400,-1.429672
0.338500,-1.504001
0.338600,-1.559505
0.338700,-1.565347
0.338800,-1.574111
0.338900,-1.587419
0.339000,-1.663371
0.339100,-1.799047
0.339200,-1.840594
0.339300,-1.829233
0.339400,-1.688689
0.339500,-1.772756
0.339600,-1.827935
0.339700,-1.835725
0.339800,-1.844489
0.339900,-1.848384
0.340000,-1.863964
0.340100,-1.855524
0.340200,-1.858121
0.340300,-1.832154
0.340400,-1.808784
0.340500,-1.782169
0.340600,-1.769510
0.340700,-1.698426
0.340800,-1.725042
0.340900,-1.709138
0.341000,-1.691935
0.341100,-1.700374
0.341200,-1.744842
0.341300,-1.778923
0.341400,-1.967505
0.341500,-2.207372
0.341600,-2.081110
0.341700,-1.860718
0.341800,-1.735753
0.341900,-1.841243
0.342000,-2.122656
0.342100,-2.330389
0.342200,-2.377454
0.342300,-2.189845
0.342400,-2.060336
0.342500,-2.091172
0.342600,-2.295984
0.342700,-2.514753
0.342800,-2.613751
0.342900,-2.506963
0.343000,-2.509235
0.343100,-2.491058
0.343200,-2.564414
0.343300,-2.627059
0.343400,-2.672500
0.343500,-2.661140
0.343600,-2.626410
0.343700,-2.669579
0.343800,-2.753646
0.343900,-2.764682
0.344000,-2.725732
0.344100,-2.678668
0.344200,-2.777990
0.344300,-2.810449
0.344400,-2.843556
0.344500,-2.722162
0.344600,-2.597846
0.344700,-2.612777
0.344800,-2.765007
0.344900,-2.954564
0.345000,-3.031490
0.345100,-2.864329
0.345200,-2.648157
0.345300,-2.559221
0.345400,-2.676720
0.345500,-2.877962
0.345600,-3.001629
0.345700,-2.945151
0.345800,-2.757217
0.345900,-2.666009
0.346000,-2.637770
0.346100,-2.669579
0.346200,-2.687107
0.346300,-2.655947
0.346400,-2.602715
0.346500,-2.524166
0.346600,-2.453406
0.346700,-2.381349
0.346800,-2.251516
0.346900,-2.134341
0.347000,-2.068775
0.347100,-2.079487
0.347200,-2.091172
0.347300,-2.045405
0.347400,-1.891878
0.347500,-1.879868
0.347600,-1.663047
0.347700,-1.743219
0.347800,-1.742245
0.347900,-1.757825
0.348000,-1.679925
0.348100,-1.635457
0.348200,-1.517958
0.348300,-1.488421
0.348400,-1.515362
0.348500,-1.543600
0.348600,-1.569892
0.348700,-1.555610
0.348800,-1.588717
0.348900,-1.547820
0.349000,-1.508546
0.349100,-1.530293
0.349200,-1.579305
0.349300,-1.588717
0.349400,-1.671811
0.349500,-1.613386
0.349600,-1.594884
0.349700,-1.299190
0.349800,-1.137873
0.349900,-1.048937
0.350000,-1.455639
0.350100,-1.707190
0.350200,-1.597806
0.350300,-1.321586
0.350400,-1.116450
0.350500,-1.031734
0.350600,-1.109634
0.350700,-1.354693
0.350800,-1.380335
0.350900,-1.222588
0.351000,-1.086264
0.351100,-0.970064
0.351200,-0.900928
0.351300,-0.872040
0.351400,-0.907419
0.351500,-0.920727
0.351600,-0.849644
0.351700,-0.826923
0.351800,-0.807448
0.351900,-0.783429
0.352000,-0.722083
0.352100,-0.740909
0.352200,-0.828870
0.352300,-0.934684
0.352400,-0.887295
0.352500,-0.954484
0.352600,-0.798035
0.352700,-0.867820
0.352800,-0.823028
0.352900,-1.132355
0.353000,-1.250503
0.353100,-1.199868
0.353200,-0.968765
0.353300,-0.857109
0.353400,-0.903524
0.353500,-1.140469
0.353600,-1.366054
0.353700,-1.361185
0.353800,-1.244335
0.353900,-1.083667
0.354000,-1.098598
0.354100,-1.234273
0.354200,-1.371572
0.354300,-1.401109
0.354400,-1.451419
0.354500,-1.379686
0.354600,-1.445252
0.354700,-1.494588
0.354800,-1.535810
0.354900,-1.489720
0.355000,-1.484851
0.355100,-1.513414
0.355200,-1.558856
0.355300,-1.550417
0.355400,-1.544899
0.355500,-1.514713
0.355600,-1.516011
0.355700,-1.650388
0.355800,-1.738999
0.355900,-1.735104
0.356000,-1.716928
0.356100,-1.704269
0.356200,-1.728288
0.356300,-1.746140
0.356400,-1.755553
0.356500,-1.753605
0.356600,-1.776002
0.356700,-1.805863
0.356800,-1.825014
0.356900,-1.841567
0.357000,-1.855524
0.357100,-1.876298
0.357200,-1.933424
0.357300,-1.955171
0.357400,-1.997367
0.357500,-2.022360
0.357600,-2.035992
0.357700,-2.103506
0.357800,-2.159334
0.357900,-2.234313
0.358000,-2.337206
0.358100,-2.675746
0.358200,-2.822458
0.358300,-2.634200
0.358400,-2.406991
0.358500,-2.306046
0.358600,-2.482619
0.358700,-2.721837
0.358800,-2.902306
0.358900,-2.842907
0.359000,-2.571555
0.359100,-2.410561
0.359200,-2.479373
0.359300,-2.613751
0.359400,-2.685808
0.359500,-2.696520
0.359600,-2.609207
0.359700,-2.603040
0.359800,-2.576748
0.359900,-2.598171
0.360000,-2.605961
0.360100,-2.625760
0.360200,-2.609856
0.360300,-2.573502
0.360400,-2.646858
0.360500,-2.693274
0.360600,-2.658868
0.360700,-2.660166
0.360800,-2.617321
0.360900,-2.675746
0.361000,-2.678343
0.361100,-2.670553
0.361200,-2.469636
0.361300,-2.422246
0.361400,-2.482944
0.361500,-2.648157
0.361600,-2.815966
0.361700,-2.796491
0.361800,-2.586161
0.361900,-2.406017
0.362000,-2.381674
0.362100,-2.571555
0.362200,-2.775393
0.362300,-2.840635
0.362400,-2.757217
0.362500,-2.658868
0.362600,-2.620892
0.362700,-2.640367
0.362800,-2.690353
0.362900,-2.720863
0.363000,-2.703660
0.363100,-2.678343
0.363200,-2.632577
0.363300,-2.599145
0.363400,-2.527736
0.363500,-2.381674
0.363600,-2.283000
0.363700,-2.275535
0.363800,-2.234313
0.363900,-2.237559
0.364000,-2.094742
0.364100,-1.908431
0.364200,-1.821768
0.364300,-1.649414
0.364400,-1.657854
0.364500,-1.573137
0.364600,-1.505300
0.364700,-1.387801
0.364800,-1.251476
0.364900,-1.098923
0.365000,-1.001873
0.365100,-0.942799
0.365200,-0.920402
0.365300,-0.856460
0.365400,-0.827572
0.365500,-0.798684
0.365600,-0.647104
0.365700,-0.691897
0.365800,-0.581214
0.365900,-0.731820
0.366000,-0.665606
0.366100,-0.779858
0.366200,-0.721434
0.366300,-0.642885
0.366400,-0.442618
0.366500,-0.237807
0.366600,-0.341024
0.366700,-0.691248
0.366800,-0.950589
0.366900,-0.750971
0.367000,-0.487410
0.367100,-0.372508
0.367200,-0.349788
0.367300,-0.558169
0.367400,-0.635744
0.367500,-0.694493
0.367600,-0.477997
0.367700,-0.402370
0.367800,-0.270265
0.367900,-0.395554
0.368000,-0.472479
0.368100,-0.472804
0.368200,-0.503315
0.368300,-0.492928
0.368400,-0.493902
0.368500,-0.510456
0.368600,-0.567257
0.368700,-0.592250
0.368800,-0.741233
0.368900,-0.804527
0.369000,-0.896059
0.369100,-0.879830
0.369200,-0.993758
0.369300,-0.919104
0.369400,-1.013233
0.369500,-1.006092
0.369600,-1.340412
0.369700,-1.328402
0.369800,-1.274522
0.369900,-1.047639
0.370000,-0.997978
0.370100,-1.099572
0.370200,-1.351448
0.370300,-1.445577
0.370400,-1.404030
0.370500,-1.224211
0.370600,-1.125863
0.370700,-1.213176
0.370800,-1.305682
0.370900,-1.380335
0.371000,-1.354693
0.371100,-1.362159
0.371200,-1.343009
0.371300,-1.440059
0.371400,-1.495562
0.371500,-1.537109
0.371600,-1.562751
0.371700,-1.597806
0.371800,-1.668565
0.371900,-1.716928
0.372000,-1.709138
0.372100,-1.700374
0.372200,-1.728613
0.372300,-1.763992
0.372400,-1.911028
0.372500,-1.924336
0.372600,-1.894474
0.372700,-1.732832
0.372800,-1.771457
0.372900,-1.844813
0.373000,-1.846761
0.373100,-1.830856
0.373200,-1.838321
0.373300,-1.833777
0.373400,-1.869481
0.373500,-1.862665
0.373600,-1.847410
0.373700,-1.832154
0.373800,-1.848059
0.373900,-1.851954
0.374000,-1.850006
0.374100,-1.825663
0.374200,-1.850656
0.374300,-1.835076
0.374400,-1.814952
0.374500,-1.791906
0.374600,-1.759448
0.374700,-1.997043
0.374800,-2.201530
0.374900,-2.199258
0.375000,-1.984384
0.375100,-1.777300
0.375200,-1.741920
0.375300,-1.998665
0.375400,-2.221005
0.375500,-2.257683
0.375600,-2.139859
0.375700,-1.933424
0.375800,-1.900317
0.375900,-1.997043
0.376000,-2.177511
0.376100,-2.313511
0.376200,-2.304747
0.376300,-2.226847
0.376400,-2.207697
0.376500,-2.238208
0.376600,-2.290790
0.376700,-2.340127
0.376800,-2.366743
0.376900,-2.355058
0.377000,-2.355382
0.377100,-2.393683
0.377200,-2.450161
0.377300,-2.409263
0.377400,-2.434256
0.377500,-2.419001
0.377600,-2.517349
0.377700,-2.543965
0.377800,-2.535202
0.377900,-2.359277
0.378000,-2.379726
0.378100,-2.505340
0.378200,-2.715345
0.378300,-2.840310
0.378400,-2.751050
0.378500,-2.536824
0.378600,-2.404394
0.378700,-2.499822
0.378800,-2.702687
0.378900,-2.881857
0.379000,-2.880559
0.379100,-2.720214
0.379200,-2.666333
0.379300,-2.668605
0.379400,-2.723460
0.379500,-2.760787
0.379600,-2.777341
0.379700,-2.774420
0.379800,-2.728653
0.379900,-2.683536
0.380000,-2.645560
0.380100,-2.507612
0.380200,-2.394981
0.380300,-2.333635
0.380400,-2.320003
0.380500,-2.272938
0.380600,-2.247945
0.380700,-2.035992
0.380800,-1.880842
0.380900,-1.716928
0.381000,-1.583849
0.381100,-1.532565
0.381200,-1.467973
0.381300,-1.376765
0.381400,-1.249529
0.381500,-1.128135
0.381600,-1.042121
0.381700,-1.038226
0.381800,-1.017777
0.381900,-1.049586
0.382000,-1.007715
0.382100,-1.062894
0.382200,-1.025243
0.382300,-0.984345
0.382400,-1.012584
0.382500,-1.001873
0.382600,-1.092431
0.382700,-1.057376
0.382800,-1.173901
0.382900,-1.093080
0.383000,-0.937605
0.383100,-0.709100
0.383200,-0.609778
0.383300,-0.829195
0.383400,-1.201491
0.383500,-1.207009
0.383600,-1.088536
0.383700,-0.691572
0.383800,-0.730847
0.383900,-0.756164
0.384000,-0.969090
0.384100,-1.058350
0.384200,-1.009987
0.384300,-0.820756
0.384400,-0.734742
0.384500,-0.782455
0.384600,-0.784727
0.384700,-0.835362
0.384800,-0.861653
0.384900,-0.817510
0.385000,-0.814913
0.385100,-0.808422
0.385200,-0.836336
0.385300,-0.802904
0.385400,-0.824975
0.385500,-0.788298
0.385600,-0.980775
0.385700,-0.961949
0.385800,-1.070359
0.385900,-1.005118
0.386000,-0.903849
0.386100,-0.952536
0.386200,-1.058674
0.386300,-1.428374
0.386400,-1.356966
0.386500,-1.271600
0.386600,-1.015505
0.386700,-1.102493
0.386800,-1.269653
0.386900,-1.552689
0.387000,-1.588393
0.387100,-1.496211
0.387200,-1.314445
0.387300,-1.306980
0.387400,-1.473815
0.387500,-1.604622
0.387600,-1.594235
0.387700,-1.618579
0.387800,-1.602674
0.387900,-1.677328
0.388000,-1.782169
0.388100,-1.864937
0.388200,-1.937968
0.388300,-1.910379
0.388400,-1.955820
0.388500,-2.009701
0.388600,-2.016193
0.388700,-1.999315
0.388800,-1.975620
0.388900,-1.977892
0.389000,-2.072346
0.389100,-2.201205
0.389200,-2.226523
0.389300,-2.169721
0.389400,-2.069425
0.389500,-2.123630
0.389600,-2.188547
0.389700,-2.201205
0.389800,-2.209320
0.389900,-2.232365
0.390000,-2.265473
0.390100,-2.288843
0.390200,-2.312213
0.390300,-2.347917
0.390400,-2.348241
0.390500,-2.391736
0.390600,-2.423220
0.390700,-2.445941
0.390800,-2.478724
0.390900,-2.481321
0.391000,-2.531956
0.391100,-2.525139
0.391200,-2.590056
0.391300,-2.599469
0.391400,-2.850048
0.391500,-3.001629
0.391600,-2.887700
0.391700,-2.639393
0.391800,-2.404394
0.391900,-2.592004
0.392000,-2.856539
0.392100,-3.100627
0.392200,-3.115558
0.392300,-2.982478
0.392400,-2.839661
0.392500,-2.875041
0.392600,-3.127567
0.392700,-3.324265
0.392800,-3.420992
0.392900,-3.392104
0.393000,-3.352829
0.393100,-3.340170
0.393200,-3.420018
0.393300,-3.495971
0.393400,-3.513174
0.393500,-3.500840
0.393600,-3.468706
0.393700,-3.535570
0.393800,-3.550177
0.393900,-3.602759
0.394000,-3.539790
0.394100,-3.482663
0.394200,-3.465784
0.394300,-3.457670
0.394400,-3.408333
0.394500,-3.229811
0.394600,-3.037333
0.394700,-3.012989
0.394800,-3.075309
0.394900,-3.201573
0.395000,-3.216503
0.395100,-2.983776
0.395200,-2.742611
0.395300,-2.665035
0.395400,-2.777341
0.395500,-2.912368
0.395600,-2.958134
0.395700,-2.886401
0.395800,-2.698467
0.395900,-2.627059
0.396000,-2.593627
0.396100,-2.589407
0.396200,-2.555975
0.396300,-2.476452
0.396400,-2.429387
0.396500,-2.367067
0.396600,-2.275859
0.396700,-2.226847
0.396800,-2.102532
0.396900,-2.040861
0.397000,-2.035343
0.397100,-2.074293
0.397200,-2.133043
0.397300,-2.145702
0.397400,-2.032422
0.397500,-2.055792
0.397600,-1.862016
0.397700,-1.946732
0.397800,-1.969128
0.397900,-1.970751
0.398000,-1.894799
0.398100,-1.851305
0.398200,-1.768861
0.398300,-1.736403
0.398400,-1.762694
0.398500,-1.783142
0.398600,-1.764641
0.398700,-1.745815
0.398800,-1.776326
0.398900,-1.710436
0.399000,-1.720173
0.399100,-1.613061
0.399200,-1.663047
0.399300,-1.615333
0.399400,-1.673758
0.399500,-1.646169
0.399600,-1.579629
0.399700,-1.366054
0.399800,-1.085615
0.399900,-1.105739
0.400000,-1.338789
0.400100,-1.606569
0.400200,-1.498483
0.400300,-1.168383
0.400400,-1.076526
0.400500,-0.955782
0.400600,-1.084966
0.400700,-1.218044
0.400800,-1.248230
0.400900,-1.143390
0.401000,-0.933710
0.401100,-0.855162
0.401200,-0.768498
0.401300,-0.898980
0.401400,-0.875286
0.401500,-0.921052
0.401600,-0.843152
0.401700,-0.857434
0.401800,-0.834388
0.401900,-0.879505
0.402000,-0.845424
0.402100,-0.873338
0.402200,-1.050560
0.402300,-0.964546
0.402400,-1.024269
0.402500,-1.024593
0.402600,-0.995706
0.402700,-0.982073
0.402800,-0.988889
0.402900,-1.243362
0.403000,-1.379686
0.403100,-1.281987
0.403200,-1.099247
0.403300,-0.973634
0.403400,-1.030111
0.403500,-1.273223
0.403600,-1.428698
0.403700,-1.378388
0.403800,-1.189157
0.403900,-1.071009
0.404000,-1.098598
0.404100,-1.198245
0.404200,-1.291075
0.404300,-1.264135
0.404400,-1.304059
0.404500,-1.251152
0.404600,-1.330350
0.404700,-1.404030
0.404800,-1.502703
0.404900,-1.551066
0.405000,-1.565023
0.405100,-1.590989
0.405200,-1.645844
0.405300,-1.657529
0.405400,-1.641624
0.405500,-1.652011
0.405600,-1.667266
0.405700,-1.820469
0.405800,-1.909730
0.405900,-1.919792
0.406000,-1.833128
0.406100,-1.841892
0.406200,-1.931801
0.406300,-1.978541
0.406400,-2.014245
0.406500,-2.021062
0.406600,-2.043782
0.406700,-2.073969
0.406800,-2.115840
0.406900,-2.148623
0.407000,-2.177835
0.407100,-2.221979
0.407200,-2.313186
0.407300,-2.303124
0.407400,-2.385244
0.407500,-2.414781
0.407600,-2.495602
0.407700,-2.546887
0.407800,-2.641665
0.407900,-2.719890
0.408000,-2.851346
0.408100,-3.169763
0.408200,-3.224618
0.408300,-3.138928
0.408400,-2.897437
0.408500,-2.879910
0.408600,-3.014287
0.408700,-3.348934
0.408800,-3.522587
0.408900,-3.502463
0.409000,-3.313554
0.409100,-3.206766
0.409200,-3.282394
0.409300,-3.432028
0.409400,-3.558940
0.409500,-3.576468
0.409600,-3.535246
0.409700,-3.477145
0.409800,-3.433975
0.409900,-3.436896
0.410000,-3.445985
0.410100,-3.432352
0.410200,-3.388533
0.410300,-3.355426
0.410400,-3.366137
0.410500,-3.394376
0.410600,-3.416123
0.410700,-3.391779
0.410800,-3.402815
0.410900,-3.443388
0.411000,-3.482014
0.411100,-3.417097
0.411200,-3.272332
0.411300,-3.160026
0.411400,-3.227864
0.411500,-3.433651
0.411600,-3.513823
0.411700,-3.495971
0.411800,-3.242470
0.411900,-3.002602
0.412000,-3.006497
0.412100,-3.172684
0.412200,-3.354776
0.412300,-3.327836
0.412400,-3.198327
0.412500,-3.050641
0.412600,-2.984750
0.412700,-2.996760
0.412800,-2.998058
0.412900,-2.972741
0.413000,-2.938010
0.413100,-2.894516
0.413200,-2.815317
0.413300,-2.762735
0.413400,-2.676395
0.413500,-2.550132
0.413600,-2.450810
0.413700,-2.460547
0.413800,-2.480022
0.413900,-2.519622
0.414000,-2.433282
0.414100,-2.315783
0.414200,-2.184976
0.414300,-2.171668
0.414400,-2.245349
0.414500,-2.215487
0.414600,-2.227496
0.414700,-2.160957
0.414800,-2.118112
0.414900,-2.048002
0.415000,-2.036642
0.415100,-2.085329
0.415200,-2.089549
0.415300,-2.132069
0.415400,-2.153816
0.415500,-2.154790
0.415600,-2.092470
0.415700,-2.062608
0.415800,-2.100260
0.415900,-2.118437
0.416000,-2.194064
0.416100,-2.225874
0.416200,-2.197959
0.416300,-2.085005
0.416400,-1.710436
0.416500,-1.715954
0.416600,-1.661099
0.416700,-2.199582
0.416800,-2.193415
0.416900,-2.182379
0.417000,-1.850656
0.417100,-1.814627
0.417200,-1.826961
0.417300,-1.996069
0.417400,-2.161931
0.417500,-2.088250
0.417600,-2.018790
0.417700,-1.838646
0.417800,-1.850656
0.417900,-1.855524
0.418000,-1.936346
0.418100,-1.841892
0.418200,-1.789634
0.418300,-1.751009
0.418400,-1.696154
0.418500,-1.695181
0.418600,-1.647791
0.418700,-1.617605
0.418800,-1.643247
0.418900,-1.751009
0.419000,-1.706216
0.419100,-1.717901
0.419200,-1.658827
0.419300,-1.483877
0.419400,-1.548794
0.419500,-1.488421
0.419600,-1.890904
0.419700,-1.843839
0.419800,-1.711085
0.419900,-1.443304
0.420000,-1.386178
0.420100,-1.477710
0.420200,-1.704918
0.420300,-1.771133
0.420400,-1.648441
0.420500,-1.407276
0.420600,-1.282636
0.420700,-1.349500
0.420800,-1.414741
0.420900,-1.390722
0.421000,-1.310550
0.421100,-1.260889
0.421200,-1.213500
0.421300,-1.277767
0.421400,-1.326455
0.421500,-1.326779
0.421600,-1.261538
0.421700,-1.291725
0.421800,-1.346579
0.421900,-1.405004
0.422000,-1.390073
0.422100,-1.366703
0.422200,-1.382608
0.422300,-1.431944
0.422400,-1.610789
0.422500,-1.678627
0.422600,-1.685118
0.422700,-1.671811
0.422800,-1.579305
0.422900,-1.649739
0.423000,-1.652011
0.423100,-1.636106
0.423200,-1.642274
0.423300,-1.609491
0.423400,-1.613386
0.423500,-1.620851
0.423600,-1.618579
0.423700,-1.619877
0.423800,-1.628966
0.423900,-1.665968
0.424000,-1.697453
0.424100,-1.722121
0.424200,-1.752632
0.424300,-1.826961
0.424400,-1.849357
0.424500,-1.956794
0.424600,-1.980164
0.424700,-2.233664
0.424800,-2.532280
0.424900,-2.573827
0.425000,-2.447889
0.425100,-2.228795
0.425200,-2.299879
0.425300,-2.545913
0.425400,-2.872120
0.425500,-2.982154
0.425600,-2.908148
0.425700,-2.747804
0.425800,-2.725408
0.425900,-2.888349
0.426000,-3.057132
0.426100,-3.198002
0.426200,-3.161324
0.426300,-3.132436
0.426400,-3.044474
0.426500,-3.090240
0.426600,-3.125944
0.426700,-3.153209
0.426800,-3.125620
0.426900,-3.104197
0.427000,-3.048044
0.427100,-3.086994
0.427200,-3.092837
0.427300,-3.111013
0.427400,-3.080503
0.427500,-3.050641
0.427600,-3.060054
0.427700,-3.024999
0.427800,-2.960406
0.427900,-2.761761
0.428000,-2.694897
0.428100,-2.808176
0.428200,-2.993189
0.428300,-3.011366
0.428400,-2.927948
0.428500,-2.649130
0.428600,-2.495602
0.428700,-2.541369
0.428800,-2.735145
0.428900,-2.890945
0.429000,-2.865628
0.429100,-2.716319
0.429200,-2.640042
0.429300,-2.665035
0.429400,-2.761436
0.429500,-2.829924
0.429600,-2.874716
0.429700,-2.906525
0.429800,-2.946125
0.429900,-2.977609
0.430000,-2.982478
0.430100,-2.903604
0.430200,-2.798439
0.430300,-2.744883
0.430400,-2.782534
0.430500,-2.789351
0.430600,-2.772472
0.430700,-2.608233
0.430800,-2.487163
0.430900,-2.408289
0.431000,-2.232690
0.431100,-2.256709
0.431200,-2.228146
0.431300,-2.161606
0.431400,-2.054169
0.431500,-1.935372
0.431600,-1.900317
0.431700,-1.863639
0.431800,-1.917520
0.431900,-1.894474
0.432000,-1.889606
0.432100,-1.905510
0.432200,-1.887983
0.432300,-1.879219
0.432400,-1.875649
0.432500,-1.954198
0.432600,-1.936021
0.432700,-2.009052
0.432800,-2.026904
0.432900,-1.962312
0.433000,-1.891553
0.433100,-1.462130
0.433200,-1.563400
0.433300,-1.546522
0.433400,-2.039238
0.433500,-1.758799
0.433600,-1.679276
0.433700,-1.216097
0.433800,-1.103791
0.433900,-1.171304
0.434000,-1.257968
0.434100,-1.413443
0.434200,-1.301462
0.434300,-1.120994
0.434400,-1.044393
0.434500,-0.966169
0.434600,-1.093080
0.434700,-1.121968
0.434800,-1.204087
0.434900,-1.131056
0.435000,-1.098598
0.435100,-1.045691
0.435200,-1.007715
0.435300,-0.960651
0.435400,-0.965519
0.435500,-0.937930
0.435600,-0.886321
0.435700,-0.869443
0.435800,-0.848345
0.435900,-0.771419
0.436000,-0.657491
0.436100,-0.642885
0.436200,-0.716240
0.436300,-0.985643
0.436400,-0.981749
0.436500,-0.813940
0.436600,-0.599391
0.436700,-0.618217
0.436800,-0.763629
0.436900,-1.009987
0.437000,-1.021348
0.437100,-0.909042
0.437200,-0.723381
0.437300,-0.671124
0.437400,-0.806799
0.437500,-0.895085
0.437600,-0.903849
0.437700,-0.849644
0.437800,-0.792842
0.437900,-0.829844
0.438000,-0.894436
0.438100,-0.929815
0.438200,-0.973959
0.438300,-0.926245
0.438400,-0.949290
0.438500,-1.011610
0.438600,-1.060622
0.438700,-1.056727
0.438800,-1.068087
0.438900,-1.085290
0.439000,-1.177472
0.439100,-1.279066
0.439200,-1.318989
0.439300,-1.387476
0.439400,-1.463104
0.439500,-1.401433
0.439600,-1.495887
0.439700,-1.510168
0.439800,-1.524450
0.439900,-1.546846
0.440000,-1.597157
0.440100,-1.637080
0.440200,-1.673109
0.440300,-1.675056
0.440400,-1.722445
0.440500,-1.750035
0.440600,-1.772756
0.440700,-1.814952
0.440800,-1.830532
0.440900,-1.879868
0.441000,-1.899343
0.441100,-1.931477
0.441200,-2.008078
0.441300,-2.045730
0.441400,-2.315459
0.441500,-2.524166
0.441600,-2.406991
0.441700,-2.181730
0.441800,-2.002885
0.441900,-2.126551
0.442000,-2.341101
0.442100,-2.575450
0.442200,-2.598495
0.442300,-2.419001
0.442400,-2.262227
0.442500,-2.225874
0.442600,-2.388165
0.442700,-2.544290
0.442800,-2.602066
0.442900,-2.567011
0.443000,-2.513130
0.443100,-2.507612
0.443200,-2.478075
0.443300,-2.534228
0.443400,-2.550132
0.443500,-2.541693
0.443600,-2.559545
0.443700,-2.528710
0.443800,-2.542018
0.443900,-2.586810
0.444000,-2.522867
0.444100,-2.427764
0.444200,-2.426466
0.444300,-2.424194
0.444400,-2.443344
0.444500,-2.311888
0.444600,-2.134990
0.444700,-2.115515
0.444800,-2.269692
0.444900,-2.432633
0.445000,-2.476452
0.445100,-2.334609
0.445200,-2.098637
0.445300,-2.035992
0.445400,-2.183678
0.445500,-2.406666
0.445600,-2.491707
0.445700,-2.437502
0.445800,-2.312862
0.445900,-2.268394
0.446000,-2.304098
0.446100,-2.389464
0.446200,-2.416079
0.446300,-2.401149
0.446400,-2.433282
0.446500,-2.434905
0.446600,-2.430361
0.446700,-2.406342
0.446800,-2.272614
0.446900,-2.207697
0.447000,-2.203477
0.447100,-2.270991
0.447200,-2.296957
0.447300,-2.259955
0.447400,-2.132069
0.447500,-2.110322
0.447600,-1.903238
0.447700,-1.960689
0.447800,-1.955820
0.447900,-1.974971
0.448000,-1.924336
0.448100,-1.850656
0.448200,-1.764966
0.448300,-1.768212
0.448400,-1.809758
0.448500,-1.833453
0.448600,-1.872078
0.448700,-1.863314
0.448800,-1.920116
0.448900,-1.883114
0.449000,-1.869157
0.449100,-1.900641
0.449200,-1.871104
0.449300,-1.927906
0.449400,-1.917844
0.449500,-1.967830
0.449600,-1.857796
0.449700,-1.735104
0.449800,-1.395266
0.449900,-1.442655
0.450000,-1.781195
0.450100,-2.042160
0.450200,-1.882789
0.450300,-1.699725
0.450400,-1.529968
0.450500,-1.428049
0.450600,-1.578980
0.450700,-1.787037
0.450800,-1.800994
0.450900,-1.696479
0.451000,-1.486799
0.451100,-1.463429
0.451200,-1.448498
0.451300,-1.552364
0.451400,-1.635457
0.451500,-1.649739
0.451600,-1.677653
0.451700,-1.630264
0.451800,-1.648441
0.451900,-1.669863
0.452000,-1.668240
0.452100,-1.677978
0.452200,-1.870455
0.452300,-1.817873
0.452400,-1.890579
0.452500,-1.846761
0.452600,-1.801319
0.452700,-1.758150
0.452800,-1.716603
0.452900,-2.017816
0.453000,-2.127525
0.453100,-2.088575
0.453200,-1.862016
0.453300,-1.677004
0.453400,-1.739324
0.453500,-1.860393
0.453600,-2.042809
0.453700,-1.943811
0.453800,-1.726665
0.453900,-1.545223
0.454000,-1.540679
0.454100,-1.661749
0.454200,-1.713357
0.454300,-1.648765
0.454400,-1.626369
0.454500,-1.572813
0.454600,-1.667591
0.454700,-1.700049
0.454800,-1.729262
0.454900,-1.719524
0.455000,-1.669863
0.455100,-1.680899
0.455200,-1.631887
0.455300,-1.589691
0.455400,-1.505624
0.455500,-1.444603
0.455600,-1.380011
0.455700,-1.447849
0.455800,-1.470245
0.455900,-1.441682
0.456000,-1.367352
0.456100,-1.262837
0.456200,-1.295944
0.456300,-1.347553
0.456400,-1.351123
0.456500,-1.419935
0.456600,-1.458560
0.456700,-1.517958
0.456800,-1.558207
0.456900,-1.609166
0.457000,-1.619553
0.457100,-1.690636
0.457200,-1.725691
0.457300,-1.775677
0.457400,-1.790283
0.457500,-1.881816
0.457600,-1.919143
0.457700,-2.023983
0.457800,-2.084031
0.457900,-2.189196
0.458000,-2.334934
0.458100,-2.656271
0.458200,-2.772797
0.458300,-2.618944
0.458400,-2.466714
0.458500,-2.447564
0.458600,-2.570257
0.458700,-2.901657
0.458800,-2.979232
0.458900,-2.960731
0.459000,-2.802659
0.459100,-2.740338
0.459200,-2.755269
0.459300,-2.946125
0.459400,-3.068493
0.459500,-3.081152
0.459600,-3.023376
0.459700,-2.984101
0.459800,-2.955213
0.459900,-2.995461
0.460000,-3.052588
0.460100,-3.054860
0.460200,-3.028244
0.460300,-2.978583
0.460400,-2.967547
0.460500,-3.031815
0.460600,-3.025323
0.460700,-2.968521
0.460800,-2.914965
0.460900,-2.910420
0.461000,-2.865628
0.461100,-2.826353
0.461200,-2.631927
0.461300,-2.464767
0.461400,-2.493655
0.461500,-2.664710
0.461600,-2.772797
0.461700,-2.746830
0.461800,-2.513130
0.461900,-2.346294
0.462000,-2.365769
0.462100,-2.564414
0.462200,-2.768577
0.462300,-2.797141
0.462400,-2.706582
0.462500,-2.600443
0.462600,-2.599469
0.462700,-2.641990
0.462800,-2.684835
0.462900,-2.670878
0.463000,-2.632901
0.463100,-2.614400
0.463200,-2.553378
0.463300,-2.485540
0.463400,-2.360900
0.463500,-2.171993
0.463600,-2.051248
0.463700,-2.010675
0.463800,-1.980164
0.463900,-1.994770
0.464000,-1.874350
0.464100,-1.737376
0.464200,-1.722121
0.464300,-1.498159
0.464400,-1.578980
0.464500,-1.541653
0.464600,-1.569567
0.464700,-1.485825
0.464800,-1.417662
0.464900,-1.365080
0.465000,-1.353395
0.465100,-1.370598
0.465200,-1.434216
0.465300,-1.388775
0.465400,-1.487448
0.465500,-1.459209
0.465600,-1.458560
0.465700,-1.437137
0.465800,-1.426426
0.465900,-1.492316
0.466000,-1.445901
0.466100,-1.500756
0.466200,-1.478684
0.466300,-1.328727
0.466400,-1.108011
0.466500,-0.861329
0.466600,-0.994083
0.466700,-1.217071
0.466800,-1.492966
0.466900,-1.173577
0.467000,-1.042121
0.467100,-0.854837
0.467200,-0.855811
0.467300,-0.972660
0.467400,-1.091457
0.467500,-1.206684
0.467600,-1.096001
0.467700,-0.957729
0.467800,-0.895410
0.467900,-0.887620
0.468000,-0.965844
0.468100,-0.939877
0.468200,-1.000574
0.468300,-0.982398
0.468400,-1.027839
0.468500,-1.004145
0.468600,-1.010636
0.468700,-1.038550
0.468800,-1.157672
0.468900,-1.157997
0.469000,-1.257319
0.469100,-1.259915
0.469200,-1.311199
0.469300,-1.171629
0.469400,-1.228756
0.469500,-1.281338
0.469600,-1.526073
0.469700,-1.648765
0.469800,-1.504326
0.469900,-1.351448
0.470000,-1.336192
0.470100,-1.477061
0.470200,-1.740298
0.470300,-1.849033
0.470400,-1.748412
0.470500,-1.598130
0.470600,-1.555285
0.470700,-1.652985
0.470800,-1.785739
0.470900,-1.818197
0.471000,-1.731534
0.471100,-1.726665
0.471200,-1.685443
0.471300,-1.776651
0.471400,-1.746140
0.471500,-1.719849
0.471600,-1.647467
0.471700,-1.593911
0.471800,-1.608842
0.471900,-1.603324
0.472000,-1.571515
0.472100,-1.513414
0.472200,-1.501080
0.472300,-1.524125
0.472400,-1.673433
0.472500,-1.713357
0.472600,-1.729586
0.472700,-1.591314
0.472800,-1.600727
0.472900,-1.689987
0.473000,-1.690636
0.473100,-1.697453
0.473200,-1.693882
0.473300,-1.697128
0.473400,-1.721472
0.473500,-1.724718
0.473600,-1.754579
0.473700,-1.749386
0.473800,-1.747438
0.473900,-1.778274
0.474000,-1.783792
0.474100,-1.812679
0.474200,-1.825014
0.474300,-1.852603
0.474400,-1.840918
0.474500,-1.902913
0.474600,-1.953224
0.474700,-2.141482
0.474800,-2.413158
0.474900,-2.425168
0.475000,-2.271315
0.475100,-2.061959
0.475200,-2.054169
0.475300,-2.209969
0.475400,-2.594600
0.475500,-2.688730
0.475600,-2.619918
0.475700,-2.442046
0.475800,-2.404070
0.475900,-2.498524
0.476000,-2.659192
0.476100,-2.787079
0.476200,-2.768253
0.476300,-2.762735
0.476400,-2.731899
0.476500,-2.779613
0.476600,-2.822458
0.476700,-2.857513
0.476800,-2.851022
0.476900,-2.918210
0.477000,-2.930869
0.477100,-2.975986
0.477200,-3.073362
0.477300,-3.053887
0.477400,-3.041552
0.477500,-3.116207
0.477600,-3.167816
0.477700,-3.204494
0.477800,-3.161649
0.477900,-3.018832
0.478000,-2.944826
0.478100,-3.113935
0.478200,-3.330433
0.478300,-3.405412
0.478400,-3.339521
0.478500,-3.081801
0.478600,-2.963977
0.478700,-3.060378
0.478800,-3.256427
0.478900,-3.393402
0.479000,-3.351531
0.479100,-3.209038
0.479200,-3.095433
0.479300,-3.082775
0.479400,-3.110689
0.479500,-3.103548
0.479600,-3.030841
0.479700,-2.962354
0.479800,-2.916263
0.479900,-2.845828
0.480000,-2.782534
0.480100,-2.618620
0.480200,-2.419001
0.480300,-2.299879
0.480400,-2.268719
0.480500,-2.238208
0.480600,-2.193091
0.480700,-1.992498
0.480800,-1.864937
0.480900,-1.776651
0.481000,-1.587744
0.481100,-1.597481
0.481200,-1.571190
0.481300,-1.471219
0.481400,-1.341386
0.481500,-1.243686
0.481600,-1.160269
0.481700,-1.109309
0.481800,-1.076202
0.481900,-1.031410
0.482000,-1.001223
0.482100,-0.969414
0.482200,-0.917157
0.482300,-0.783753
0.482400,-0.755515
0.482500,-0.660412
0.482600,-0.665930
0.482700,-0.660088
0.482800,-0.601338
0.482900,-0.558494
0.483000,-0.336155
0.483100,-0.035592
0.483200,0.062756
0.483300,-0.092394
0.483400,-0.420222
0.483500,-0.379974
0.483600,-0.218981
0.483700,0.032894
0.483800,0.143577
0.483900,0.062107
0.484000,-0.087525
0.484100,-0.224174
0.484200,-0.186198
0.484300,-0.006056
0.484400,-0.010924
0.484500,0.030622
0.484600,-0.095640
0.484700,-0.196585
0.484800,-0.299802
0.484900,-0.279353
0.485000,-0.360823
0.485100,-0.440021
0.485200,-0.529281
0.485300,-0.621138
0.485400,-0.681510
0.485500,-0.856784
0.485600,-0.909042
0.485700,-1.034006
0.485800,-1.123591
0.485900,-1.260565
0.486000,-1.200841
0.486100,-1.330999
0.486200,-1.524775
0.486300,-1.922388
0.486400,-1.951276
0.486500,-1.869806
0.486600,-1.692259
0.486700,-1.795477
0.486800,-1.984708
0.486900,-2.387191
0.487000,-2.471908
0.487100,-2.367392
0.487200,-2.174589
0.487300,-2.170694
0.487400,-2.344022
0.487500,-2.503717
0.487600,-2.541369
0.487700,-2.507937
0.487800,-2.422571
0.487900,-2.448538
0.488000,-2.527087
0.488100,-2.567335
0.488200,-2.548185
0.488300,-2.435554
0.488400,-2.423220
0.488500,-2.433607
0.488600,-2.411535
0.488700,-2.353110
0.488800,-2.261253
0.488900,-2.211916
0.489000,-2.234313
0.489100,-2.299229
0.489200,-2.255735
0.489300,-2.164852
0.489400,-1.934073
0.489500,-1.944785
0.489600,-1.924661
0.489700,-1.840594
0.489800,-1.750035
0.489900,-1.690961
0.490000,-1.636106
0.490100,-1.596183
0.490200,-1.563400
0.490300,-1.537758
0.490400,-1.523152
0.490500,-1.520231
0.490600,-1.504001
0.490700,-1.481930
0.490800,-1.487123
0.490900,-1.461806
0.491000,-1.505624
0.491100,-1.515037
0.491200,-1.573462
0.491300,-1.636431
0.491400,-1.895773
0.491500,-2.071697
0.491600,-2.029501
0.491700,-1.781520
0.491800,-1.602025
0.491900,-1.700049
0.492000,-1.884737
0.492100,-2.172642
0.492200,-2.151869
0.492300,-2.047677
0.492400,-1.898694
0.492500,-1.908431
0.492600,-2.128174
0.492700,-2.343048
0.492800,-2.418351
0.492900,-2.402771
0.493000,-2.409588
0.493100,-2.402771
0.493200,-2.457626
0.493300,-2.553703
0.493400,-2.609856
0.493500,-2.607259
0.493600,-2.643937
0.493700,-2.690028
0.493800,-2.772472
0.493900,-2.827002
0.494000,-2.799737
0.494100,-2.825379
0.494200,-2.865952
0.494300,-2.933141
0.494400,-2.976636
0.494500,-2.916912
0.494600,-2.784806
0.494700,-2.802009
0.494800,-2.950344
0.494900,-3.145419
0.495000,-3.211959
0.495100,-3.072063
0.495200,-2.820186
0.495300,-2.730276
0.495400,-2.880234
0.495500,-3.103873
0.495600,-3.190537
0.495700,-3.116207
0.495800,-2.954564
0.495900,-2.859785
0.496000,-2.867575
0.496100,-2.906201
0.496200,-2.926325
0.496300,-2.883805
0.496400,-2.819861
0.496500,-2.783508
0.496600,-2.769876
0.496700,-2.680290
0.496800,-2.516051
0.496900,-2.394981
0.497000,-2.353759
0.497100,-2.345645
0.497200,-2.323249
0.497300,-2.265473
0.497400,-2.059687
0.497500,-1.985033
0.497600,-1.797749
0.497700,-1.800345
0.497800,-1.767887
0.497900,-1.731209
0.498000,-1.637405
0.498100,-1.540679
0.498200,-1.408899
0.498300,-1.297242
0.498400,-1.261863
0.498500,-1.279715
0.498600,-1.252450
0.498700,-1.241414
0.498800,-1.201166
0.498900,-1.131056
0.499000,-1.048612
0.499100,-1.025567
0.499200,-1.006741
0.499300,-1.050235
0.499400,-1.040822
0.499500,-1.053481
0.499600,-1.014856
0.499700,-0.775314
0.499800,-0.508833
0.499900,-0.505262
0.500000,-0.859706
0.500100,-1.109634
0.500200,-1.041796
0.500300,-0.805500
0.500400,-0.586732
0.500500,-0.545510
0.500600,-0.652622
0.500700,-0.921052
0.500800,-0.959352
0.500900,-0.884698
0.501000,-0.746102
0.501100,-0.678589
0.501200,-0.654245
0.501300,-0.743181
0.501400,-0.817510
0.501500,-0.883725
0.501600,-0.934035
0.501700,-0.894761
0.501800,-0.902550
0.501900,-0.901901
0.502000,-0.962923
0.502100,-1.040822
0.502200,-1.218044
0.502300,-1.203763
0.502400,-1.233624
0.502500,-1.241414
0.502600,-1.149557
0.502700,-1.166760
0.502800,-1.097300
0.502900,-1.407600
0.503000,-1.551390
0.503100,-1.463753
0.503200,-1.282312
0.503300,-1.117748
0.503400,-1.192727
0.503500,-1.390722
0.503600,-1.661749
0.503700,-1.615009
0.503800,-1.463753
0.503900,-1.303085
0.504000,-1.291400
0.504100,-1.466025
0.504200,-1.529643
0.504300,-1.457262
0.504400,-1.436813
0.504500,-1.349500
0.504600,-1.411820
0.504700,-1.427725
0.504800,-1.475763
0.504900,-1.450770
0.505000,-1.392020
0.505100,-1.425777
0.505200,-1.474140
0.505300,-1.451744
0.505400,-1.393319
0.505500,-1.385529
0.505600,-1.303734
0.505700,-1.393968
0.505800,-1.512441
0.505900,-1.534837
0.506000,-1.516660
0.506100,-1.520231
0.506200,-1.473166
0.506300,-1.518608
0.506400,-1.514063
0.506500,-1.544899
0.506600,-1.570541
0.506700,-1.602350
0.506800,-1.655581
0.506900,-1.674732
0.507000,-1.698102
0.507100,-1.710760
0.507200,-1.750360
0.507300,-1.762369
0.507400,-1.791257
0.507500,-1.838646
0.507600,-1.881491
0.507700,-1.913949
0.507800,-1.986007
0.507900,-2.034694
0.508000,-2.204776
0.508100,-2.466390
0.508200,-2.628032
0.508300,-2.505015
0.508400,-2.289816
0.508500,-2.267096
0.508600,-2.379077
0.508700,-2.716644
0.508800,-2.842258
0.508900,-2.811747
0.509000,-2.655947
0.509100,-2.535851
0.509200,-2.613751
0.509300,-2.774420
0.509400,-2.912043
0.509500,-2.906525
0.509600,-2.898411
0.509700,-2.882182
0.509800,-2.873093
0.509900,-2.895490
0.510000,-2.952292
0.510100,-2.989944
0.510200,-2.984750
0.510300,-3.012015
0.510400,-3.015586
0.510500,-3.087968
0.510600,-3.151587
0.510700,-3.047395
0.510800,-3.019805
0.510900,-3.069791
0.511000,-3.092512
0.511100,-3.071414
0.511200,-2.948721
0.511300,-2.848749
0.511400,-2.877637
0.511500,-3.102899
0.511600,-3.289860
0.511700,-3.312256
0.511800,-3.123672
0.511900,-2.946125
0.512000,-2.982478
0.512100,-3.188265
0.512200,-3.434300
0.512300,-3.497269
0.512400,-3.413526
0.512500,-3.303167
0.512600,-3.281096
0.512700,-3.332705
0.512800,-3.375874
0.512900,-3.352504
0.513000,-3.300895
0.513100,-3.287587
0.513200,-3.245391
0.513300,-3.238900
0.513400,-3.136980
0.513500,-2.961380
0.513600,-2.860434
0.513700,-2.828950
0.513800,-2.839012
0.513900,-2.806554
0.514000,-2.699441
0.514100,-2.526762
0.514200,-2.455679
0.514300,-2.211267
0.514400,-2.242752
0.514500,-2.201530
0.514600,-2.111945
0.514700,-1.984059
0.514800,-1.859095
0.514900,-1.719849
0.515000,-1.627018
0.515100,-1.599429
0.515200,-1.603324
0.515300,-1.508870
0.515400,-1.482904
0.515500,-1.410522
0.515600,-1.351448
0.515700,-1.231028
0.515800,-1.218369
0.515900,-1.223562
0.516000,-1.216421
0.516100,-1.219992
0.516200,-1.229729
0.516300,-1.103467
0.516400,-0.869768
0.516500,-0.524088
0.516600,-0.771419
0.516700,-0.926570
0.516800,-1.174226
0.516900,-0.885997
0.517000,-0.781806
0.517100,-0.550704
0.517200,-0.469558
0.517300,-0.685081
0.517400,-0.764928
0.517500,-0.865224
0.517600,-0.696441
0.517700,-0.646455
0.517800,-0.584785
0.517900,-0.601988
0.518000,-0.666904
0.518100,-0.675668
0.518200,-0.725004
0.518300,-0.661711
0.518400,-0.657491
0.518500,-0.678264
0.518600,-0.678914
0.518700,-0.692221
0.518800,-0.830818
0.518900,-0.824326
0.519000,-0.937930
0.519100,-0.913262
0.519200,-1.043419
0.519300,-0.892164
0.519400,-0.965519
0.519500,-0.956431
0.519600,-1.324832
0.519700,-1.438111
0.519800,-1.359562
0.519900,-1.146636
0.520000,-1.136250
0.520100,-1.271600
0.520200,-1.600078
0.520300,-1.793854
0.520400,-1.762369
0.520500,-1.620202
0.520600,-1.550092
0.520700,-1.673109
0.520800,-1.853252
0.520900,-1.945434
0.521000,-1.914598
0.521100,-1.947381
0.521200,-1.951601
0.521300,-2.089549
0.521400,-2.122656
0.521500,-2.142780
0.521600,-2.119735
0.521700,-2.139210
0.521800,-2.208022
0.521900,-2.241778
0.522000,-2.226198
0.522100,-2.196986
0.522200,-2.139210
0.522300,-2.146675
0.522400,-2.264174
0.522500,-2.297606
0.522600,-2.265473
0.522700,-2.223277
0.522800,-2.107401
0.522900,-2.146026
0.523000,-2.120059
0.523100,-2.112919
0.523200,-2.096689
0.523300,-2.072021
0.523400,-2.072346
0.523500,-2.039563
0.523600,-2.039887
0.523700,-2.045405
0.523800,-2.040537
0.523900,-2.024307
0.524000,-2.026580
0.524100,-2.004508
0.524200,-1.999315
0.524300,-2.006131
0.524400,-1.996393
0.524500,-2.021062
0.524600,-2.081434
0.524700,-2.206074
0.524800,-2.516700
0.524900,-2.438800
0.525000,-2.322599
0.525100,-2.065205
0.525200,-2.100909
0.525300,-2.279430
0.525400,-2.566037
0.525500,-2.594925
0.525600,-2.514753
0.525700,-2.303124
0.525800,-2.265797
0.525900,-2.347917
0.526000,-2.521894
0.526100,-2.648806
0.526200,-2.629980
0.526300,-2.579669
0.526400,-2.560844
0.526500,-2.577073
0.526600,-2.643937
0.526700,-2.672825
0.526800,-2.676071
0.526900,-2.675097
0.527000,-2.644911
0.527100,-2.706257
0.527200,-2.711126
0.527300,-2.734496
0.527400,-2.683212
0.527500,-2.659517
0.527600,-2.711126
0.527700,-2.699441
0.527800,-2.695546
0.527900,-2.461196
0.528000,-2.418676
0.528100,-2.502743
0.528200,-2.717293
0.528300,-2.813045
0.528400,-2.771174
0.528500,-2.527736
0.528600,-2.393359
0.528700,-2.466390
0.528800,-2.695870
0.528900,-2.825704
0.529000,-2.800711
0.529100,-2.699765
0.529200,-2.599469
0.529300,-2.565063
0.529400,-2.593951
0.529500,-2.578047
0.529600,-2.539097
0.529700,-2.485216
0.529800,-2.461846
0.529900,-2.423545
0.530000,-2.364146
0.530100,-2.259955
0.530200,-2.077864
0.530300,-1.995744
0.530400,-1.957119
0.530500,-1.935047
0.530600,-1.919143
0.530700,-1.733806
0.530800,-1.590665
0.530900,-1.384230
0.531000,-1.305357
0.531100,-1.317367
0.531200,-1.310550
0.531300,-1.243362
0.531400,-1.111906
0.531500,-1.037577
0.531600,-0.989863
0.531700,-1.000250
0.531800,-1.013882
0.531900,-1.017777
0.532000,-1.045367
0.532100,-1.066789
0.532200,-1.096651
0.532300,-1.032059
0.532400,-1.135925
0.532500,-1.033032
0.532600,-1.194674
0.532700,-1.142417
0.532800,-1.317367
0.532900,-1.199219
0.533000,-1.195973
0.533100,-0.906121
0.533200,-0.836011
0.533300,-1.092106
0.533400,-1.412794
0.533500,-1.449147
0.533600,-1.318989
0.533700,-1.137223
0.533800,-1.096651
0.533900,-1.173901
0.534000,-1.346579
0.534100,-1.446550
0.534200,-1.406627
0.534300,-1.243037
0.534400,-1.150207
0.534500,-1.061271
0.534600,-1.188183
0.534700,-1.195648
0.534800,-1.308603
0.534900,-1.248230
0.535000,-1.208307
0.535100,-1.194350
0.535200,-1.175524
0.535300,-1.167734
0.535400,-1.188832
0.535500,-1.235247
0.535600,-1.262188
0.535700,-1.364106
0.535800,-1.384880
0.535900,-1.372870
0.536000,-1.286856
0.536100,-1.324507
0.536200,-1.365405
0.536300,-1.711410
0.536400,-1.621825
0.536500,-1.430321
0.536600,-1.241090
0.536700,-1.246932
0.536800,-1.347228
0.536900,-1.568918
0.537000,-1.572164
0.537100,-1.458235
0.537200,-1.198245
0.537300,-1.169682
0.537400,-1.221290
0.537500,-1.286531
0.537600,-1.254398
0.537700,-1.164813
0.537800,-1.099247
0.537900,-1.056402
0.538000,-1.106063
0.538100,-1.137548
0.538200,-1.128135
0.538300,-1.044393
0.538400,-1.017453
0.538500,-1.044068
0.538600,-1.031085
0.538700,-0.981424
0.538800,-0.866197
0.538900,-0.819133
0.539000,-0.877558
0.539100,-1.020698
0.539200,-1.032383
0.539300,-1.003496
0.539400,-0.970713
0.539500,-0.895085
0.539600,-0.935658
0.539700,-0.888918
0.539800,-0.903849
0.539900,-0.892488
0.540000,-0.883725
0.540100,-0.910990
0.540200,-0.931114
0.540300,-0.950264
0.540400,-0.950589
0.540500,-0.987916
0.540600,-1.022970
0.540700,-1.012584
0.540800,-1.073930
0.540900,-1.074904
0.541000,-1.135925
0.541100,-1.167085
0.541200,-1.250178
0.541300,-1.340736
0.541400,-1.590340
0.541500,-1.829233
0.541600,-1.823391
0.541700,-1.667916
0.541800,-1.519906
0.541900,-1.660126
0.542000,-1.865586
0.542100,-2.197959
0.542200,-2.205425
0.542300,-2.134017
0.542400,-1.962637
0.542500,-1.967830
0.542600,-2.093768
0.542700,-2.219706
0.542800,-2.316757
0.542900,-2.244699
0.543000,-2.179134
0.543100,-2.167449
0.543200,-2.181730
0.543300,-2.237883
0.543400,-2.200232
0.543500,-2.185950
0.543600,-2.164203
0.543700,-2.197310
0.543800,-2.250866
0.543900,-2.346294
0.544000,-2.267420
0.544100,-2.298905
0.544200,-2.326494
0.544300,-2.398227
0.544400,-2.405693
0.544500,-2.297931
0.544600,-2.164852
0.544700,-2.131095
0.544800,-2.295010
0.544900,-2.505664
0.545000,-2.494953
0.545100,-2.394008
0.545200,-2.168747
0.545300,-2.130771
0.545400,-2.261253
0.545500,-2.509235
0.545600,-2.674448
0.545700,-2.604338
0.545800,-2.525139
0.545900,-2.459898
0.546000,-2.492357
0.546100,-2.580643
0.546200,-2.639393
0.546300,-2.653999
0.546400,-2.633226
0.546500,-2.599145
0.546600,-2.606610
0.546700,-2.574801
0.546800,-2.465741
0.546900,-2.368366
0.547000,-2.327793
0.547100,-2.343697
0.547200,-2.317731
0.547300,-2.309291
0.547400,-2.139534
0.547500,-2.086303
0.547600,-1.862016
0.547700,-1.888307
0.547800,-1.883763
0.547900,-1.876947
0.548000,-1.807811
0.548100,-1.689987
0.548200,-1.584498
0.548300,-1.531266
0.548400,-1.574436
0.548500,-1.551066
0.548600,-1.582550
0.548700,-1.568269
0.548800,-1.647142
0.548900,-1.550092
0.549000,-1.611114
0.549100,-1.600727
0.549200,-1.637405
0.549300,-1.645519
0.549400,-1.659152
0.549500,-1.671161
0.549600,-1.630589
0.549700,-1.413118
0.549800,-1.125863
0.549900,-1.094379
0.550000,-1.339114
0.550100,-1.554636
0.550200,-1.527696
0.550300,-1.240116
0.550400,-1.119696
0.550500,-0.964870
0.550600,-1.052832
0.550700,-1.239142
0.550800,-1.240116
0.550900,-1.218044
0.551000,-1.000574
0.551100,-0.985643
0.551200,-0.939553
0.551300,-1.112231
0.551400,-1.162865
0.551500,-1.135276
0.551600,-1.186884
0.551700,-1.210579
0.551800,-1.230378
0.551900,-1.299514
0.552000,-1.392345
0.552100,-1.394942
0.552200,-1.485500
0.552300,-1.496536
0.552400,-1.612412
0.552500,-1.575734
0.552600,-1.571515
0.552700,-1.508221
0.552800,-1.584173
0.552900,-1.786388
0.553000,-1.926283
0.553100,-1.861367
0.553200,-1.681223
0.553300,-1.508870
0.553400,-1.614684
0.553500,-1.733481
0.553600,-1.981463
0.553700,-1.948680
0.553800,-1.821443
0.553900,-1.605920
0.554000,-1.559505
0.554100,-1.681873
0.554200,-1.745815
0.554300,-1.723419
0.554400,-1.758799
0.554500,-1.678302
0.554600,-1.711734
0.554700,-1.709462
0.554800,-1.780221
0.554900,-1.791906
0.555000,-1.750684
0.555100,-1.731534
0.555200,-1.728288
0.555300,-1.712383
0.555400,-1.643247
0.555500,-1.617605
0.555600,-1.597157
0.555700,-1.662722
0.555800,-1.703295
0.555900,-1.653634
0.556000,-1.575734
0.556100,-1.424803
0.556200,-1.455314
0.556300,-1.476087
0.556400,-1.407925
0.556500,-1.356641
0.556600,-1.343658
0.556700,-1.287505
0.556800,-1.244985
0.556900,-1.175849
0.557000,-1.146312
0.557100,-1.131705
0.557200,-1.096975
0.557300,-1.100221
0.557400,-1.059648
0.557500,-1.051858
0.557600,-1.027839
0.557700,-1.065166
0.557800,-1.092431
0.557900,-1.109309
0.558000,-1.216746
0.558100,-1.445577
0.558200,-1.623772
0.558300,-1.433567
0.558400,-1.338789
0.558500,-1.246608
0.558600,-1.421233
0.558700,-1.726990
0.558800,-1.893501
0.558900,-1.931152
0.559000,-1.798073
0.559100,-1.799047
0.559200,-1.855849
0.559300,-2.119086
0.559400,-2.326819
0.559500,-2.443344
0.559600,-2.495927
0.559700,-2.452433
0.559800,-2.543965
0.559900,-2.628032
0.560000,-2.684835
0.560100,-2.760787
0.560200,-2.797465
0.560300,-2.835117
0.560400,-2.862382
0.560500,-2.985075
0.560600,-2.966249
0.560700,-2.950669
0.560800,-2.945151
0.560900,-3.031490
0.561000,-3.037982
0.561100,-2.998707
0.561200,-2.800386
0.561300,-2.709503
0.561400,-2.803957
0.561500,-2.996760
0.561600,-3.121725
0.561700,-3.054860
0.561800,-2.903280
0.561900,-2.701064
0.562000,-2.693274
0.562100,-2.871795
0.562200,-2.999681
0.562300,-3.090240
0.562400,-3.014287
0.562500,-2.896463
0.562600,-2.842258
0.562700,-2.837064
0.562800,-2.896139
0.562900,-2.901332
0.563000,-2.888998
0.563100,-2.864979
0.563200,-2.802659
0.563300,-2.755594
0.563400,-2.644586
0.563500,-2.493655
0.563600,-2.438476
0.563700,-2.429063
0.563800,-2.427115
0.563900,-2.426466
0.564000,-2.309291
0.564100,-2.189845
0.564200,-2.179783
0.564300,-1.920441
0.564400,-1.968155
0.564500,-1.903238
0.564600,-1.871429
0.564700,-1.726990
0.564800,-1.661099
0.564900,-1.533538
0.565000,-1.458235
0.565100,-1.459534
0.565200,-1.457586
0.565300,-1.446875
0.565400,-1.432269
0.565500,-1.418636
0.565600,-1.298541
0.565700,-1.287505
0.565800,-1.212526
0.565900,-1.296918
0.566000,-1.255696
0.566100,-1.287180
0.566200,-1.232326
0.566300,-1.216746
0.566400,-0.922999
0.566500,-0.746751
0.566600,-0.674045
0.566700,-1.119696
0.566800,-1.172278
0.566900,-1.038226
0.567000,-0.833415
0.567100,-0.743830
0.567200,-0.688651
0.567300,-0.848345
0.567400,-1.012584
0.567500,-0.948317
0.567600,-0.817510
0.567700,-0.708450
0.567800,-0.617568
0.567900,-0.753243
0.568000,-0.774990
0.568100,-0.803878
0.568200,-0.711047
0.568300,-0.737663
0.568400,-0.744804
0.568500,-0.703906
0.568600,-0.702608
0.568700,-0.725978
0.568800,-0.719811
0.568900,-0.917806
0.569000,-0.862627
0.569100,-0.966818
0.569200,-0.927219
0.569300,-0.873338
0.569400,-0.868145
0.569500,-0.942149
0.569600,-1.305357
0.569700,-1.275495
0.569800,-1.254073
0.569900,-1.000574
0.570000,-1.021672
0.570100,-1.101519
0.570200,-1.364431
0.570300,-1.491018
0.570400,-1.412794
0.570500,-1.244011
0.570600,-1.146961
0.570700,-1.254073
0.570800,-1.408899
0.570900,-1.469596
0.571000,-1.425452
0.571100,-1.446550
0.571200,-1.424479
0.571300,-1.528994
0.571400,-1.561128
0.571500,-1.562102
0.571600,-1.578006
0.571700,-1.562102
0.571800,-1.593262
0.571900,-1.615009
0.572000,-1.595534
0.572100,-1.584173
0.572200,-1.549118
0.572300,-1.579954
0.572400,-1.719524
0.572500,-1.750684
0.572600,-1.740298
0.572700,-1.584173
0.572800,-1.645519
0.572900,-1.715305
0.573000,-1.719849
0.573100,-1.716603
0.573200,-1.744192
0.573300,-1.758799
0.573400,-1.801644
0.573500,-1.820145
0.573600,-1.814952
0.573700,-1.831181
0.573800,-1.856823
0.573900,-1.854551
0.574000,-1.856498
0.574100,-1.867534
0.574200,-1.902264
0.574300,-1.930178
0.574400,-1.964909
0.574500,-1.990551
0.574600,-2.037615
0.574700,-2.204451
0.574800,-2.459898
0.574900,-2.542992
0.575000,-2.339478
0.575100,-2.222303
0.575200,-2.217759
0.575300,-2.520271
0.575400,-2.802009
0.575500,-2.986049
0.575600,-2.909122
0.575700,-2.738716
0.575800,-2.708854
0.575900,-2.790324
0.576000,-3.012664
0.576100,-3.109715
0.576200,-3.134059
0.576300,-3.073037
0.576400,-3.062975
0.576500,-3.053237
0.576600,-3.077257
0.576700,-3.080827
0.576800,-3.077257
0.576900,-3.030517
0.577000,-3.015910
0.577100,-3.039930
0.577200,-3.084073
0.577300,-3.025972
0.577400,-2.993514
0.577500,-3.008445
0.577600,-3.047720
0.577700,-3.052913
0.577800,-2.997409
0.577900,-2.773121
0.578000,-2.739365
0.578100,-2.840959
0.578200,-3.046097
0.578300,-3.116207
0.578400,-3.017209
0.578500,-2.854267
0.578600,-2.708854
0.578700,-2.768902
0.578800,-2.952941
0.578900,-3.093810
0.579000,-3.126594
0.579100,-2.998383
0.579200,-2.870497
0.579300,-2.827976
0.579400,-2.845504
0.579500,-2.839012
0.579600,-2.826678
0.579700,-2.783184
0.579800,-2.758191
0.579900,-2.707555
0.580000,-2.657570
0.580100,-2.533254
0.580200,-2.411211
0.580300,-2.360900
0.580400,-2.372261
0.580500,-2.352461
0.580600,-2.367392
0.580700,-2.235611
0.580800,-2.118437
0.580900,-2.055143
0.581000,-1.860393
0.581100,-1.900317
0.581200,-1.869481
0.581300,-1.811057
0.581400,-1.678627
0.581500,-1.548794
0.581600,-1.507247
0.581700,-1.481281
0.581800,-1.475114
0.581900,-1.434541
0.582000,-1.398512
0.582100,-1.399486
0.582200,-1.335543
0.582300,-1.281987
0.582400,-1.242713
0.582500,-1.256020
0.582600,-1.229729
0.582700,-1.284584
0.582800,-1.306980
0.582900,-1.329051
0.583000,-1.119371
0.583100,-0.960326
0.583200,-0.811343
0.583300,-1.033032
0.583400,-1.391371
0.583500,-1.386178
0.583600,-1.340736
0.583700,-1.058350
0.583800,-1.137873
0.583900,-1.095677
0.584000,-1.325156
0.584100,-1.399810
0.584200,-1.440708
0.584300,-1.186560
0.584400,-1.167734
0.584500,-1.154426
0.584600,-1.131705
0.584700,-1.228431
0.584800,-1.222588
0.584900,-1.244985
0.585000,-1.207658
0.585100,-1.162216
0.585200,-1.175849
0.585300,-1.248880
0.585400,-1.205061
0.585500,-1.149882
0.585600,-1.256020
0.585700,-1.206359
0.585800,-1.223887
0.585900,-1.069061
0.586000,-1.036603
0.586100,-0.999601
0.586200,-1.189806
0.586300,-1.402083
0.586400,-1.389424
0.586500,-1.267056
0.586600,-1.016479
0.586700,-1.096326
0.586800,-1.215772
0.586900,-1.374818
0.587000,-1.459534
0.587100,-1.428049
0.587200,-1.313472
0.587300,-1.236546
0.587400,-1.261863
0.587500,-1.318340
0.587600,-1.392020
0.587700,-1.432593
0.587800,-1.428698
0.587900,-1.382608
0.588000,-1.402083
0.588100,-1.417662
0.588200,-1.479982
0.588300,-1.457586
0.588400,-1.419285
0.588500,-1.432269
0.588600,-1.379686
0.588700,-1.307304
0.588800,-1.271925
0.588900,-1.235247
0.589000,-1.274846
0.589100,-1.363782
0.589200,-1.338789
0.589300,-1.302436
0.589400,-1.135600
0.589500,-1.155075
0.589600,-1.200192
0.589700,-1.174875
0.589800,-1.157347
0.589900,-1.140469
0.590000,-1.119047
0.590100,-1.094703
0.590200,-1.108336
0.590300,-1.126512
0.590400,-1.136250
0.590500,-1.146961
0.590600,-1.160593
0.590700,-1.191753
0.590800,-1.217395
0.590900,-1.253099
0.591000,-1.260565
0.591100,-1.284584
0.591200,-1.397214
0.591300,-1.441357
0.591400,-1.716603
0.591500,-1.961338
0.591600,-1.924661
0.591700,-1.793204
0.591800,-1.678627
0.591900,-1.779897
0.592000,-2.040537
0.592100,-2.369664
0.592200,-2.432309
0.592300,-2.384595
0.592400,-2.235611
0.592500,-2.274886
0.592600,-2.420948
0.592700,-2.636796
0.592800,-2.770849
0.592900,-2.781561
0.593000,-2.727680
0.593100,-2.689703
0.593200,-2.744883
0.593300,-2.815966
0.593400,-2.813045
0.593500,-2.783184
0.593600,-2.762410
0.593700,-2.823756
0.593800,-2.844205
0.593900,-2.825055
0.594000,-2.753322
0.594100,-2.811098
0.594200,-2.869847
0.594300,-2.962354
0.594400,-2.926650
0.594500,-2.833494
0.594600,-2.740988
0.594700,-2.781561
0.594800,-2.928922
0.594900,-3.151262
0.595000,-3.184045
0.595100,-3.025323
0.595200,-2.867251
0.595300,-2.885103
0.595400,-2.983776
0.595500,-3.102899
0.595600,-3.165544
0.595700,-3.150288
0.595800,-3.140551
0.595900,-3.057132
0.596000,-2.988970
0.596100,-2.950993
0.596200,-2.969495
0.596300,-2.995461
0.596400,-2.969495
0.596500,-2.918210
0.596600,-2.839661
0.596700,-2.742286
0.596800,-2.589082
0.596900,-2.458924
0.597000,-2.409912
0.597100,-2.382647
0.597200,-2.325521
0.597300,-2.297282
0.597400,-2.128499
0.597500,-2.067152
0.597600,-1.806837
0.597700,-1.770808
0.597800,-1.692259
0.597900,-1.648116
0.598000,-1.534188
0.598100,-1.404355
0.598200,-1.272250
0.598300,-1.211877
0.598400,-1.180393
0.598500,-1.135925
0.598600,-1.104116
0.598700,-1.035629
0.598800,-1.062245
0.598900,-0.948317
0.599000,-0.945720
0.599100,-0.859706
0.599200,-0.878531
0.599300,-0.889243
0.599400,-0.871391
0.599500,-0.901577
0.599600,-0.825625
0.599700,-0.623410
0.599800,-0.359850
0.599900,-0.386790
0.600000,-0.547133
0.600100,-0.880803
0.600200,-0.792842
0.600300,-0.598093
0.600400,-0.403019
0.600500,-0.259229
0.600600,-0.354332
0.600700,-0.457224
0.600800,-0.611400
0.600900,-0.474427
0.601000,-0.418923
0.601100,-0.296232
0.601200,-0.289091
0.601300,-0.341348
0.601400,-0.436451
0.601500,-0.391009
0.601600,-0.384842
0.601700,-0.374456
0.601800,-0.413081
0.601900,-0.469234
0.602000,-0.501367
0.602100,-0.446513
0.602200,-0.531878
0.602300,-0.699038
0.602400,-0.784403
0.602500,-0.764279
0.602600,-0.703582
0.602700,-0.709424
0.602800,-0.822054
0.602900,-1.132679
0.603000,-1.319639
0.603100,-1.297242
0.603200,-1.154102
0.603300,-1.071658
0.603400,-1.208956
0.603500,-1.421233
0.603600,-1.607868
0.603700,-1.596832
0.603800,-1.601376
0.603900,-1.574111
0.604000,-1.622799
0.604100,-1.692908
0.604200,-1.769185
0.604300,-1.839295
0.604400,-1.930828
0.604500,-1.951925
0.604600,-2.012622
0.604700,-2.045405
0.604800,-2.085329
0.604900,-2.133367
0.605000,-2.166475
0.605100,-2.202828
0.605200,-2.235286
0.605300,-2.261253
0.605400,-2.253463
0.605500,-2.228146
0.605600,-2.187573
0.605700,-2.284623
0.605800,-2.335583
0.605900,-2.300852
0.606000,-2.274561
0.606100,-2.248919
0.606200,-2.111945
0.606300,-2.137912
0.606400,-2.083706
0.606500,-2.079487
0.606600,-2.068451
0.606700,-2.068775
0.606800,-2.062284
0.606900,-2.052222
0.607000,-2.067802
0.607100,-2.062608
0.607200,-2.097663
0.607300,-2.126876
0.607400,-2.138236
0.607500,-2.153816
0.607600,-2.164852
0.607700,-2.181730
0.607800,-2.285597
0.607900,-2.295659
0.608000,-2.450161
0.608100,-2.650429
0.608200,-2.832520
0.608300,-2.665035
0.608400,-2.455354
0.608500,-2.361225
0.608600,-2.460223
0.608700,-2.748453
0.608800,-2.951967
0.608900,-2.914640
0.609000,-2.735794
0.609100,-2.598171
0.609200,-2.613751
0.609300,-2.746830
0.609400,-2.890945
0.609500,-2.951967
0.609600,-2.880883
0.609700,-2.804606
0.609800,-2.809150
0.609900,-2.834143
0.610000,-2.903604
0.610100,-2.875041
0.610200,-2.819537
0.610300,-2.802334
0.610400,-2.888673
0.610500,-2.862057
0.610600,-2.809150
0.610700,-2.748128
0.610800,-2.782859
0.610900,-2.786105
0.611000,-2.822458
0.611100,-2.698467
0.611200,-2.533254
0.611300,-2.416729
0.611400,-2.485865
0.611500,-2.630954
0.611600,-2.830897
0.611700,-2.747155
0.611800,-2.576424
0.611900,-2.471259
0.612000,-2.519622
0.612100,-2.638095
0.612200,-2.762086
0.612300,-2.795518
0.612400,-2.819212
0.612500,-2.766305
0.612600,-2.674448
0.612700,-2.616347
0.612800,-2.665684
0.612900,-2.707231
0.613000,-2.703985
0.613100,-2.665035
0.613200,-2.590056
0.613300,-2.565388
0.613400,-2.492681
0.613500,-2.387516
0.613600,-2.289492
0.613700,-2.260929
0.613800,-2.269692
0.613900,-2.267420
0.614000,-2.199907
0.614100,-2.048651
0.614200,-2.006780
0.614300,-1.797749
0.614400,-1.815601
0.614500,-1.803916
0.614600,-1.778923
0.614700,-1.681873
0.614800,-1.603324
0.614900,-1.527696
0.615000,-1.517958
0.615100,-1.522503
0.615200,-1.592937
0.615300,-1.612087
0.615400,-1.663047
0.615500,-1.629939
0.615600,-1.592612
0.615700,-1.577032
0.615800,-1.601052
0.615900,-1.625720
0.616000,-1.659801
0.616100,-1.777949
0.616200,-1.683171
0.616300,-1.679925
0.616400,-1.376765
0.616500,-1.297892
0.616600,-1.194674
0.616700,-1.652985
0.616800,-1.796450
0.616900,-1.700374
0.617000,-1.465051
0.617100,-1.311849
0.617200,-1.272574
0.617300,-1.433892
0.617400,-1.518608
0.617500,-1.609491
0.617600,-1.492316
0.617700,-1.345930
0.617800,-1.330350
0.617900,-1.344307
0.618000,-1.357290
0.618100,-1.412794
0.618200,-1.422531
0.618300,-1.387801
0.618400,-1.329051
0.618500,-1.356316
0.618600,-1.362808
0.618700,-1.380660
0.618800,-1.436813
0.618900,-1.527696
0.619000,-1.551390
0.619100,-1.538083
0.619200,-1.500431
0.619300,-1.473815
0.619400,-1.446875
0.619500,-1.631562
0.619600,-1.834751
0.619700,-1.918493
0.619800,-1.837997
0.619900,-1.636756
0.620000,-1.611114
0.620100,-1.767562
0.620200,-1.869157
0.620300,-2.024307
0.620400,-1.974971
0.620500,-1.885061
0.620600,-1.795152
0.620700,-1.801644
0.620800,-1.867209
0.620900,-1.935696
0.621000,-1.918493
0.621100,-1.926608
0.621200,-1.839944
0.621300,-1.886360
0.621400,-1.906808
0.621500,-1.909405
0.621600,-1.853577
0.621700,-1.835400
0.621800,-1.879544
0.621900,-1.889930
0.622000,-1.887658
0.622100,-1.836699
0.622200,-1.816899
0.622300,-1.805863
0.622400,-1.923687
0.622500,-1.951925
0.622600,-1.920116
0.622700,-1.882789
0.622800,-1.807162
0.622900,-1.818847
0.623000,-1.827935
0.623100,-1.790283
0.623200,-1.796775
0.623300,-1.802293
0.623400,-1.801968
0.623500,-1.794827
0.623600,-1.782818
0.623700,-1.796450
0.623800,-1.816899
0.623900,-1.816899
0.624000,-1.855849
0.624100,-1.866885
0.624200,-1.863314
0.624300,-1.903887
0.624400,-1.871754
0.624500,-1.983085
0.624600,-1.981463
0.624700,-2.208671
0.624800,-2.489760
0.624900,-2.578696
0.625000,-2.416079
0.625100,-2.195038
0.625200,-2.227821
0.625300,-2.473206
0.625400,-2.766305
0.625500,-2.873418
0.625600,-2.789026
0.625700,-2.627708
0.625800,-2.632901
0.625900,-2.697818
0.626000,-2.877637
0.626100,-3.034412
0.626200,-3.013638
0.626300,-2.980531
0.626400,-2.977609
0.626500,-3.008445
0.626600,-3.030192
0.626700,-3.061352
0.626800,-3.126918
0.626900,-3.097706
0.627000,-3.110040
0.627100,-3.164570
0.627200,-3.262594
0.627300,-3.181448
0.627400,-3.191835
0.627500,-3.231759
0.627600,-3.266814
0.627700,-3.256103
0.627800,-3.211635
0.627900,-3.027271
0.628000,-3.014287
0.628100,-3.107118
0.628200,-3.337249
0.628300,-3.433975
0.628400,-3.345688
0.628500,-3.221372
0.628600,-3.098030
0.628700,-3.159052
0.628800,-3.360944
0.628900,-3.512849
0.629000,-3.569976
0.629100,-3.446634
0.629200,-3.365488
0.629300,-3.374252
0.629400,-3.371655
0.629500,-3.421966
0.629600,-3.394376
0.629700,-3.364839
0.629800,-3.327511
0.629900,-3.278499
0.630000,-3.229162
0.630100,-3.121076
0.630200,-2.963652
0.630300,-2.888998
0.630400,-2.855890
0.630500,-2.799088
0.630600,-2.767603
0.630700,-2.581292
0.630800,-2.431335
0.630900,-2.217759
0.631000,-2.118761
0.631100,-2.098312
0.631200,-2.022685
0.631300,-1.927906
0.631400,-1.769835
0.631500,-1.666293
0.631600,-1.547495
0.631700,-1.495562
0.631800,-1.490044
0.631900,-1.441357
0.632000,-1.395915
0.632100,-1.429023
0.632200,-1.340087
0.632300,-1.351772
0.632400,-1.247257
0.632500,-1.284908
0.632600,-1.205061
