0.000100,-0.929166
0.000200,-0.663658
0.000300,-0.799983
0.000400,-1.155725
0.000500,-1.271925
0.000600,-1.156374
0.000700,-0.867171
0.000800,-0.661061
0.000900,-0.745128
0.001000,-0.904498
0.001100,-1.119047
0.001200,-1.037577
0.001300,-0.929166
0.001400,-0.724680
0.001500,-0.651973
0.001600,-0.727276
0.001700,-0.792842
0.001800,-0.844126
0.001900,-0.842503
0.002000,-0.784403
0.002100,-0.754866
0.002200,-0.777262
0.002300,-0.818484
0.002400,-0.768174
0.002500,-0.921376
0.002600,-0.936307
0.002700,-0.930789
0.002800,-0.972011
0.002900,-0.984021
0.003000,-0.909042
0.003100,-0.897357
0.003200,-0.905796
0.003300,-1.199543
0.003400,-1.216421
0.003500,-1.116126
0.003600,-0.943448
0.003700,-0.852889
0.003800,-0.968765
0.003900,-1.190779
0.004000,-1.286207
0.004100,-1.201491
0.004200,-1.057701
0.004300,-0.991161
0.004400,-1.047639
0.004500,-1.185262
0.004600,-1.262512
0.004700,-1.220316
0.004800,-1.249204
0.004900,-1.175849
0.005000,-1.268355
0.005100,-1.313796
0.005200,-1.360861
0.005300,-1.320937
0.005400,-1.317042
0.005500,-1.360861
0.005600,-1.398512
0.005700,-1.390398
0.005800,-1.385853
0.005900,-1.351448
0.006000,-1.352097
0.006100,-1.508870
0.006200,-1.535810
0.006300,-1.528670
0.006400,-1.488421
0.006500,-1.378713
0.006600,-1.462455
0.006700,-1.453691
0.006800,-1.441682
0.006900,-1.425452
0.007000,-1.407925
0.007100,-1.402732
0.007200,-1.394942
0.007300,-1.399161
0.007400,-1.380335
0.007500,-1.383906
0.007600,-1.410197
0.007700,-1.421233
0.007800,-1.460183
0.007900,-1.448173
0.008000,-1.467324
0.008100,-1.494913
0.008200,-1.525099
0.008300,-1.546522
0.008400,-1.784441
0.008500,-2.018465
0.008600,-2.073320
0.008700,-1.884412
0.008800,-1.697128
0.008900,-1.706216
0.009000,-1.900966
0.009100,-2.257683
0.009200,-2.303774
0.009300,-2.224575
0.009400,-2.025930
0.009500,-2.012298
0.009600,-2.131420
0.009700,-2.308318
0.009800,-2.472232
0.009900,-2.473855
0.010000,-2.400499
0.010100,-2.353759
0.010200,-2.396280
0.010300,-2.471583
0.010400,-2.470934
0.010500,-2.483268
0.010600,-2.460872
0.010700,-2.486189
0.010800,-2.503392
0.010900,-2.521894
0.011000,-2.521894
0.011100,-2.571879
0.011200,-2.608882
0.011300,-2.631927
0.011400,-2.639068
0.011500,-2.566362
0.011600,-2.433282
0.011700,-2.359926
0.011800,-2.505340
0.011900,-2.682563
0.012000,-2.801036
0.012100,-2.716319
0.012200,-2.479373
0.012300,-2.373884
0.012400,-2.458924
0.012500,-2.642639
0.012600,-2.804281
0.012700,-2.810124
0.012800,-2.685159
0.012900,-2.598171
0.013000,-2.559221
0.013100,-2.595250
0.013200,-2.643288
0.013300,-2.653675
0.013400,-2.619269
0.013500,-2.552080
0.013600,-2.515402
0.013700,-2.486189
0.013800,-2.436528
0.013900,-2.289167
0.014000,-2.234637
0.014100,-2.239831
0.014200,-2.202828
0.014300,-2.212890
0.014400,-2.050274
0.014500,-1.906159
0.014600,-1.733806
0.014700,-1.692259
0.014800,-1.691935
0.014900,-1.655581
0.015000,-1.566321
0.015100,-1.451419
0.015200,-1.324832
0.015300,-1.223238
0.015400,-1.241739
0.015500,-1.182016
0.015600,-1.202464
0.015700,-1.135276
0.015800,-1.202789
0.015900,-1.094379
0.016000,-1.063543
0.016100,-1.078799
0.016200,-1.014207
0.016300,-1.094703
0.016400,-1.012908
0.016500,-1.124889
0.016600,-1.007066
0.016700,-0.896383
0.016800,-0.592250
0.016900,-0.528632
0.017000,-0.633797
0.017100,-1.045691
0.017200,-1.041472
0.017300,-0.947018
0.017400,-0.577319
0.017500,-0.463391
0.017600,-0.483191
0.017700,-0.698064
0.017800,-0.815238
0.017900,-0.739610
0.018000,-0.554599
0.018100,-0.426713
0.018200,-0.460470
0.018300,-0.508183
0.018400,-0.605233
0.018500,-0.576995
0.018600,-0.553625
0.018700,-0.532852
0.018800,-0.532527
0.018900,-0.513052
0.019000,-0.520193
0.019100,-0.499095
0.019200,-0.635420
0.019300,-0.660088
0.019400,-0.724355
0.019500,-0.694493
0.019600,-0.668202
0.019700,-0.618541
0.019800,-0.594847
0.019900,-0.764928
0.020000,-0.999276
0.020100,-0.985643
0.020200,-0.887620
0.020300,-0.689949
0.020400,-0.672097
0.020500,-0.804851
0.020600,-1.060622
0.020700,-1.096001
0.020800,-0.999925
0.020900,-0.836985
0.021000,-0.755190
0.021100,-0.884374
0.021200,-1.010961
0.021300,-1.022646
0.021400,-0.973634
0.021500,-0.975257
0.021600,-0.990188
0.021700,-1.062894
0.021800,-1.104116
0.021900,-1.136250
0.022000,-1.081720
0.022100,-1.087562
0.022200,-1.146636
0.022300,-1.172927
0.022400,-1.137223
0.022500,-1.091133
0.022600,-1.071333
0.022700,-1.163190
0.022800,-1.307629
0.022900,-1.307304
0.023000,-1.288154
0.023100,-1.180717
0.023200,-1.236870
0.023300,-1.288803
0.023400,-1.265758
0.023500,-1.263486
0.023600,-1.271600
0.023700,-1.290751
0.023800,-1.295944
0.023900,-1.290426
0.024000,-1.301787
0.024100,-1.324507
0.024200,-1.306655
0.024300,-1.316393
0.024400,-1.318340
0.024500,-1.332946
0.024600,-1.315094
0.024700,-1.355992
0.024800,-1.376440
0.024900,-1.415390
0.025000,-1.485176
0.025100,-1.716603
0.025200,-1.977568
0.025300,-1.887658
0.025400,-1.672784
0.025500,-1.431944
0.025600,-1.569567
0.025700,-1.817548
0.025800,-2.145052
0.025900,-2.181406
0.026000,-2.001911
0.026100,-1.826961
0.026200,-1.826312
0.026300,-1.990551
0.026400,-2.154790
0.026500,-2.310590
0.026600,-2.233988
0.026700,-2.216785
0.026800,-2.187573
0.026900,-2.265148
0.027000,-2.334284
0.027100,-2.375182
0.027200,-2.378103
0.027300,-2.398227
0.027400,-2.458275
0.027500,-2.499497
0.027600,-2.557598
0.027700,-2.537798
0.027800,-2.535202
0.027900,-2.545264
0.028000,-2.597197
0.028100,-2.618295
0.028200,-2.573502
0.028300,-2.414132
0.028400,-2.408614
0.028500,-2.538447
0.028600,-2.723135
0.028700,-2.854267
0.028800,-2.703336
0.028900,-2.483917
0.029000,-2.406017
0.029100,-2.509559
0.029200,-2.713723
0.029300,-2.866277
0.029400,-2.854267
0.029500,-2.725408
0.029600,-2.619593
0.029700,-2.592653
0.029800,-2.653999
0.029900,-2.699765
0.030000,-2.690353
0.030100,-2.671202
0.030200,-2.624137
0.030300,-2.582266
0.030400,-2.480672
0.030500,-2.352786
0.030600,-2.246647
0.030700,-2.197959
0.030800,-2.197310
0.030900,-2.195687
0.031000,-2.154465
0.031100,-2.000938
0.031200,-1.922713
0.031300,-1.862341
0.031400,-1.722445
0.031500,-1.682197
0.031600,-1.670837
0.031700,-1.562751
0.031800,-1.487448
0.031900,-1.385853
0.032000,-1.333596
0.032100,-1.316717
0.032200,-1.349176
0.032300,-1.368975
0.032400,-1.337166
0.032500,-1.354369
0.032600,-1.247581
0.032700,-1.281987
0.032800,-1.221290
0.032900,-1.343333
0.033000,-1.282636
0.033100,-1.377414
0.033200,-1.318665
0.033300,-1.315419
0.033400,-1.155725
0.033500,-0.838932
0.033600,-0.815563
0.033700,-1.069061
0.033800,-1.429023
0.033900,-1.247581
0.034000,-1.139171
0.034100,-0.865873
0.034200,-0.736689
0.034300,-0.867496
0.034400,-1.021023
0.034500,-1.150856
0.034600,-0.991486
0.034700,-0.845424
0.034800,-0.802255
0.034900,-0.740909
0.035000,-0.828221
0.035100,-0.786675
0.035200,-0.852889
0.035300,-0.805825
0.035400,-0.800956
0.035500,-0.792193
0.035600,-0.806150
0.035700,-0.764603
0.035800,-0.824651
0.035900,-0.867171
0.036000,-0.960002
0.036100,-0.917481
0.036200,-0.948641
0.036300,-0.853539
0.036400,-0.896708
0.036500,-0.874636
0.036600,-1.123266
0.036700,-1.299839
0.036800,-1.224861
0.036900,-1.099896
0.037000,-0.876259
0.037100,-0.935658
0.037200,-1.084966
0.037300,-1.320937
0.037400,-1.325806
0.037500,-1.235572
0.037600,-1.065815
0.037700,-1.044068
0.037800,-1.151180
0.037900,-1.246932
0.038000,-1.255047
0.038100,-1.302760
0.038200,-1.276469
0.038300,-1.314445
0.038400,-1.340736
0.038500,-1.383581
0.038600,-1.397214
0.038700,-1.379686
0.038800,-1.403705
0.038900,-1.431944
0.039000,-1.434865
0.039100,-1.401109
0.039200,-1.362808
0.039300,-1.342035
0.039400,-1.433892
0.039500,-1.538083
0.039600,-1.514713
0.039700,-1.495887
0.039800,-1.363457
0.039900,-1.430646
0.040000,-1.436813
0.040100,-1.422856
0.040200,-1.400784
0.040300,-1.411171
0.040400,-1.389748
0.040500,-1.396240
0.040600,-1.388125
0.040700,-1.385853
0.040800,-1.391047
0.040900,-1.382283
0.041000,-1.374493
0.041100,-1.392994
0.041200,-1.434216
0.041300,-1.430321
0.041400,-1.471543
0.041500,-1.486799
0.041600,-1.525099
0.041700,-1.614684
0.041800,-1.873376
0.041900,-2.066503
0.042000,-1.959391
0.042100,-1.707515
0.042200,-1.604622
0.042300,-1.747438
0.042400,-2.061635
0.042500,-2.199582
0.042600,-2.186599
0.042700,-1.974971
0.042800,-1.906159
0.042900,-1.915248
0.043000,-2.127200
0.043100,-2.271640
0.043200,-2.319354
0.043300,-2.270666
0.043400,-2.226847
0.043500,-2.266122
0.043600,-2.312537
0.043700,-2.348241
0.043800,-2.365444
0.043900,-2.339153
0.044000,-2.355707
0.044100,-2.385244
0.044200,-2.438800
0.044300,-2.381349
0.044400,-2.396280
0.044500,-2.358628
0.044600,-2.416404
0.044700,-2.419001
0.044800,-2.470609
0.044900,-2.337530
0.045000,-2.222952
0.045100,-2.271315
0.045200,-2.431659
0.045300,-2.600443
0.045400,-2.607908
0.045500,-2.430036
0.045600,-2.257358
0.045700,-2.217434
0.045800,-2.365444
0.045900,-2.564739
0.046000,-2.626410
0.046100,-2.538447
0.046200,-2.434905
0.046300,-2.396280
0.046400,-2.400175
0.046500,-2.444967
0.046600,-2.456652
0.046700,-2.432309
0.046800,-2.422571
0.046900,-2.389139
0.047000,-2.377454
0.047100,-2.293711
0.047200,-2.173940
0.047300,-2.088900
0.047400,-2.065205
0.047500,-2.046055
0.047600,-2.032747
0.047700,-1.966856
0.047800,-1.824040
0.047900,-1.670188
0.048000,-1.554312
0.048100,-1.598455
0.048200,-1.532565
0.048300,-1.511791
0.048400,-1.399161
0.048500,-1.345605
0.048600,-1.228431
0.048700,-1.212526
0.048800,-1.192078
0.048900,-1.214799
0.049000,-1.182665
0.049100,-1.249204
0.049200,-1.200517
0.049300,-1.186235
0.049400,-1.114503
0.049500,-1.136250
0.049600,-1.092106
0.049700,-1.123266
0.049800,-1.185586
0.049900,-1.207658
0.050000,-1.085290
0.050100,-0.853863
0.050200,-0.622436
0.050300,-0.663009
0.050400,-0.971037
0.050500,-1.209281
0.050600,-1.092106
0.050700,-0.865224
0.050800,-0.607830
0.050900,-0.687028
0.051000,-0.726627
0.051100,-0.919753
0.051200,-0.937281
0.051300,-0.807448
0.051400,-0.650675
0.051500,-0.623735
0.051600,-0.650026
0.051700,-0.719811
0.051800,-0.697415
0.051900,-0.667553
0.052000,-0.639964
0.052100,-0.585109
0.052200,-0.586732
0.052300,-0.598742
0.052400,-0.547133
0.052500,-0.527983
0.052600,-0.660088
0.052700,-0.671773
0.052800,-0.731171
0.052900,-0.702608
0.053000,-0.597768
0.053100,-0.560766
0.053200,-0.629902
0.053300,-0.840880
0.053400,-1.005768
0.053500,-0.908718
0.053600,-0.801281
0.053700,-0.586408
0.053800,-0.777262
0.053900,-0.937281
0.054000,-1.134302
0.054100,-1.074904
0.054200,-0.909042
0.054300,-0.758111
0.054400,-0.857434
0.054500,-1.008364
0.054600,-1.087238
0.054700,-1.027839
0.054800,-1.058025
0.054900,-1.015830
0.055000,-1.101519
0.055100,-1.138846
0.055200,-1.182989
0.055300,-1.142741
0.055400,-1.122293
0.055500,-1.187209
0.055600,-1.258293
0.055700,-1.266407
0.055800,-1.249204
0.055900,-1.213176
0.056000,-1.222588
0.056100,-1.344956
0.056200,-1.405328
0.056300,-1.415066
0.056400,-1.391047
0.056500,-1.285557
0.056600,-1.354044
0.056700,-1.339763
0.056800,-1.343982
0.056900,-1.354044
0.057000,-1.340087
0.057100,-1.345605
0.057200,-1.345605
0.057300,-1.352097
0.057400,-1.366054
0.057500,-1.374818
0.057600,-1.394942
0.057700,-1.370923
0.057800,-1.413443
0.057900,-1.375142
0.058000,-1.421557
0.058100,-1.433567
0.058200,-1.469271
0.058300,-1.516985
0.058400,-1.651037
0.058500,-1.963610
0.058600,-2.021062
0.058700,-1.869806
0.058800,-1.621825
0.058900,-1.579305
0.059000,-1.783792
0.059100,-2.054818
0.059200,-2.206723
0.059300,-2.116164
0.059400,-1.929529
0.059500,-1.864613
0.059600,-1.967830
0.059700,-2.146675
0.059800,-2.279430
0.059900,-2.255735
0.060000,-2.176862
0.060100,-2.176537
0.060200,-2.179783
0.060300,-2.268069
0.060400,-2.298905
0.060500,-2.306046
0.060600,-2.283974
0.060700,-2.288518
0.060800,-2.375506
0.060900,-2.450161
0.061000,-2.457951
0.061100,-2.454056
0.061200,-2.478399
0.061300,-2.550132
0.061400,-2.589082
0.061500,-2.565712
0.061600,-2.437177
0.061700,-2.338179
0.061800,-2.450161
0.061900,-2.658543
0.062000,-2.841609
0.062100,-2.811098
0.062200,-2.613426
0.062300,-2.499822
0.062400,-2.519622
0.062500,-2.692949
0.062600,-2.888998
0.062700,-2.921132
0.062800,-2.796491
0.062900,-2.642314
0.063000,-2.611803
0.063100,-2.616347
0.063200,-2.639717
0.063300,-2.624462
0.063400,-2.566362
0.063500,-2.518648
0.063600,-2.447889
0.063700,-2.407640
0.063800,-2.356031
0.063900,-2.226198
0.064000,-2.084031
0.064100,-2.047353
0.064200,-2.008078
0.064300,-2.026904
0.064400,-1.913625
0.064500,-1.799696
0.064600,-1.626694
0.064700,-1.521529
0.064800,-1.565672
0.064900,-1.524450
0.065000,-1.466025
0.065100,-1.339114
0.065200,-1.245309
0.065300,-1.150531
0.065400,-1.108985
0.065500,-1.097300
0.065600,-1.075228
0.065700,-1.071982
0.065800,-1.063868
0.065900,-1.067438
0.066000,-0.978178
0.066100,-1.036603
0.066200,-0.970713
0.066300,-1.081720
0.066400,-1.050560
0.066500,-1.106713
0.066600,-1.151505
0.066700,-0.880154
0.066800,-0.776288
0.066900,-0.510780
0.067000,-0.794789
0.067100,-1.015505
0.067200,-1.217720
0.067300,-0.991486
0.067400,-0.818159
0.067500,-0.675019
0.067600,-0.672746
0.067700,-0.913262
0.067800,-1.017777
0.067900,-1.011935
0.068000,-0.852240
0.068100,-0.730197
0.068200,-0.665606
0.068300,-0.707801
0.068400,-0.834388
0.068500,-0.789921
0.068600,-0.836660
0.068700,-0.786026
0.068800,-0.801930
0.068900,-0.805500
0.069000,-0.813940
0.069100,-0.773367
0.069200,-0.793491
0.069300,-0.929815
0.069400,-0.935658
0.069500,-0.983371
0.069600,-0.947992
0.069700,-0.894761
0.069800,-0.898331
0.069900,-0.936307
0.070000,-1.244985
0.070100,-1.214474
0.070200,-1.163190
0.070300,-0.942799
0.070400,-0.896708
0.070500,-0.994083
0.070600,-1.237519
0.070700,-1.298541
0.070800,-1.238818
0.070900,-1.047963
0.071000,-0.972660
0.071100,-1.067438
0.071200,-1.182665
0.071300,-1.255047
0.071400,-1.193376
0.071500,-1.206359
0.071600,-1.162865
0.071700,-1.245634
0.071800,-1.271925
0.071900,-1.329701
0.072000,-1.306006
0.072100,-1.296269
0.072200,-1.315744
0.072300,-1.380011
0.072400,-1.373844
0.072500,-1.359887
0.072600,-1.335543
0.072700,-1.390073
0.072800,-1.537433
0.072900,-1.550092
0.073000,-1.526398
0.073100,-1.470245
0.073200,-1.431944
0.073300,-1.505624
0.073400,-1.500106
0.073500,-1.510493
0.073600,-1.499782
0.073700,-1.515686
0.073800,-1.525099
0.073900,-1.551390
0.074000,-1.557233
0.074100,-1.571515
0.074200,-1.564698
0.074300,-1.588717
0.074400,-1.590016
0.074500,-1.574760
0.074600,-1.585147
0.074700,-1.566321
0.074800,-1.640326
0.074900,-1.677653
0.075000,-1.706216
0.075100,-1.907782
0.075200,-2.140508
0.075300,-2.159983
0.075400,-1.908756
0.075500,-1.751982
0.075600,-1.763992
0.075700,-2.011973
0.075800,-2.287869
0.075900,-2.337855
0.076000,-2.202828
0.076100,-2.024307
0.076200,-1.972699
0.076300,-2.152193
0.076400,-2.332661
0.076500,-2.418351
0.076600,-2.392060
0.076700,-2.358304
0.076800,-2.342724
0.076900,-2.388490
0.077000,-2.447564
0.077100,-2.480022
0.077200,-2.457301
0.077300,-2.451134
0.077400,-2.472881
0.077500,-2.542342
0.077600,-2.569607
0.077700,-2.530008
0.077800,-2.517025
0.077900,-2.534877
0.078000,-2.578371
0.078100,-2.579669
0.078200,-2.493655
0.078300,-2.353435
0.078400,-2.333311
0.078500,-2.464767
0.078600,-2.655297
0.078700,-2.763059
0.078800,-2.655622
0.078900,-2.424843
0.079000,-2.336881
0.079100,-2.408614
0.079200,-2.588109
0.079300,-2.727680
0.079400,-2.716644
0.079500,-2.593627
0.079600,-2.482294
0.079700,-2.464118
0.079800,-2.528385
0.079900,-2.573502
0.080000,-2.561493
0.080100,-2.514753
0.080200,-2.485865
0.080300,-2.466390
0.080400,-2.390762
0.080500,-2.262876
0.080600,-2.169721
0.080700,-2.120384
0.080800,-2.121682
0.080900,-2.107401
0.081000,-2.106102
0.081100,-1.954198
0.081200,-1.871104
0.081300,-1.862990
0.081400,-1.675706
0.081500,-1.687715
0.081600,-1.666617
0.081700,-1.596183
0.081800,-1.457586
0.081900,-1.372870
0.082000,-1.306331
0.082100,-1.278417
0.082200,-1.271600
0.082300,-1.313796
0.082400,-1.289452
0.082500,-1.303085
0.082600,-1.248880
0.082700,-1.210579
0.082800,-1.182665
0.082900,-1.203114
0.083000,-1.164164
0.083100,-1.279715
0.083200,-1.242063
0.083300,-1.218693
0.083400,-1.028488
0.083500,-0.824651
0.083600,-0.675019
0.083700,-0.937281
0.083800,-1.199868
0.083900,-1.150856
0.084000,-0.960002
0.084100,-0.730522
0.084200,-0.644183
0.084300,-0.763954
0.084400,-0.900928
0.084500,-0.987591
0.084600,-0.874636
0.084700,-0.701634
0.084800,-0.551028
0.084900,-0.532527
0.085000,-0.579916
0.085100,-0.598417
0.085200,-0.559467
0.085300,-0.546809
0.085400,-0.492279
0.085500,-0.485463
0.085600,-0.461768
0.085700,-0.453654
0.085800,-0.428985
0.085900,-0.539343
0.086000,-0.638990
0.086100,-0.600689
0.086200,-0.620489
0.086300,-0.528632
0.086400,-0.541615
0.086500,-0.496823
0.086600,-0.682808
0.086700,-0.907744
0.086800,-0.859381
0.086900,-0.795114
0.087000,-0.561739
0.087100,-0.614646
0.087200,-0.755839
0.087300,-1.030760
0.087400,-1.093405
0.087500,-1.002197
0.087600,-0.818159
0.087700,-0.783104
0.087800,-0.944746
0.087900,-1.083992
0.088000,-1.158970
0.088100,-1.173252
0.088200,-1.162541
0.088300,-1.182989
0.088400,-1.247581
0.088500,-1.298865
0.088600,-1.352746
0.088700,-1.319314
0.088800,-1.328727
0.088900,-1.375467
0.089000,-1.397863
0.089100,-1.374493
0.089200,-1.343009
0.089300,-1.317042
0.089400,-1.406302
0.089500,-1.496536
0.089600,-1.483228
0.089700,-1.430970
0.089800,-1.304059
0.089900,-1.352746
0.090000,-1.381634
0.090100,-1.357290
0.090200,-1.362808
0.090300,-1.349176
0.090400,-1.357939
0.090500,-1.347228
0.090600,-1.346254
0.090700,-1.321261
0.090800,-1.329701
0.090900,-1.324832
0.091000,-1.351448
0.091100,-1.354693
0.091200,-1.355992
0.091300,-1.355018
0.091400,-1.397214
0.091500,-1.407276
0.091600,-1.477710
0.091700,-1.509195
0.091800,-1.801644
0.091900,-1.957119
0.092000,-1.927906
0.092100,-1.723095
0.092200,-1.530617
0.092300,-1.668565
0.092400,-1.949004
0.092500,-2.170370
0.092600,-2.161606
0.092700,-2.007429
0.092800,-1.828259
0.092900,-1.862990
0.093000,-2.048976
0.093100,-2.227496
0.093200,-2.290790
0.093300,-2.235611
0.093400,-2.166799
0.093500,-2.161931
0.093600,-2.209644
0.093700,-2.252489
0.093800,-2.293711
0.093900,-2.289492
0.094000,-2.270017
0.094100,-2.343373
0.094200,-2.379726
0.094300,-2.422246
0.094400,-2.411211
0.094500,-2.402447
0.094600,-2.420624
0.094700,-2.438151
0.094800,-2.473855
0.094900,-2.367067
0.095000,-2.236260
0.095100,-2.264824
0.095200,-2.368366
0.095300,-2.567335
0.095400,-2.598495
0.095500,-2.457951
0.095600,-2.256384
0.095700,-2.161606
0.095800,-2.287220
0.095900,-2.476127
0.096000,-2.579994
0.096100,-2.540070
0.096200,-2.404070
0.096300,-2.321301
0.096400,-2.313836
0.096500,-2.370638
0.096600,-2.392385
0.096700,-2.364471
0.096800,-2.344671
0.096900,-2.306046
0.097000,-2.279754
0.097100,-2.223277
0.097200,-2.100909
0.097300,-1.997692
0.097400,-1.978541
0.097500,-1.921739
0.097600,-1.893501
0.097700,-1.848708
0.097800,-1.715954
0.097900,-1.690961
0.098000,-1.626694
0.098100,-1.563075
0.098200,-1.504001
0.098300,-1.473815
0.098400,-1.392020
0.098500,-1.317691
0.098600,-1.203763
0.098700,-1.163839
0.098800,-1.126837
0.098900,-1.137548
0.099000,-1.137548
0.099100,-1.168383
0.099200,-1.141118
0.099300,-1.134627
0.099400,-1.063543
0.099500,-1.143066
0.099600,-1.064517
0.099700,-1.142092
0.099800,-1.178121
0.099900,-1.176498
0.100000,-1.122293
0.100100,-0.895085
0.100200,-0.722083
0.100300,-0.626007
0.100400,-0.993758
0.100500,-1.210579
0.100600,-1.067763
0.100700,-0.851916
0.100800,-0.634446
0.100900,-0.686054
0.101000,-0.718512
0.101100,-0.971686
0.101200,-0.955782
0.101300,-0.842178
0.101400,-0.671124
0.101500,-0.619840
0.101600,-0.669825
0.101700,-0.688002
0.101800,-0.751620
0.101900,-0.722083
0.102000,-0.710073
0.102100,-0.707801
0.102200,-0.711372
0.102300,-0.756489
0.102400,-0.710073
0.102500,-0.756489
0.102600,-0.781806
0.102700,-0.932737
0.102800,-0.911314
0.102900,-0.968765
0.103000,-0.867820
0.103100,-0.849644
0.103200,-0.868469
0.103300,-1.101519
0.103400,-1.230378
0.103500,-1.205386
0.103600,-1.078149
0.103700,-0.861004
0.103800,-0.979476
0.103900,-1.141443
0.104000,-1.320937
0.104100,-1.280040
0.104200,-1.122293
0.104300,-0.977529
0.104400,-0.998627
0.104500,-1.121643
0.104600,-1.180393
0.104700,-1.144040
0.104800,-1.203763
0.104900,-1.165462
0.105000,-1.234273
0.105100,-1.241090
0.105200,-1.277118
0.105300,-1.272250
0.105400,-1.246283
0.105500,-1.279390
0.105600,-1.338140
0.105700,-1.345281
0.105800,-1.290751
0.105900,-1.277443
0.106000,-1.255371
0.106100,-1.379686
0.106200,-1.447524
0.106300,-1.451094
0.106400,-1.414741
0.106500,-1.296593
0.106600,-1.362159
0.106700,-1.377090
0.106800,-1.350149
0.106900,-1.387152
0.107000,-1.385529
0.107100,-1.387801
0.107200,-1.385529
0.107300,-1.394942
0.107400,-1.419285
0.107500,-1.424479
0.107600,-1.415715
0.107700,-1.441032
0.107800,-1.412794
0.107900,-1.417013
0.108000,-1.428049
0.108100,-1.474140
0.108200,-1.469271
0.108300,-1.543600
0.108400,-1.645519
0.108500,-1.966207
0.108600,-2.116489
0.108700,-1.948680
0.108800,-1.753930
0.108900,-1.645519
0.109000,-1.819171
0.109100,-2.076890
0.109200,-2.317406
0.109300,-2.259306
0.109400,-2.070074
0.109500,-2.001911
0.109600,-2.047353
0.109700,-2.207048
0.109800,-2.338829
0.109900,-2.363172
0.110000,-2.285272
0.110100,-2.260604
0.110200,-2.273263
0.110300,-2.314809
0.110400,-2.336881
0.110500,-2.325845
0.110600,-2.312213
0.110700,-2.296633
0.110800,-2.350189
0.110900,-2.398552
0.111000,-2.408939
0.111100,-2.344346
0.111200,-2.369339
0.111300,-2.409263
0.111400,-2.470934
0.111500,-2.463144
0.111600,-2.342399
0.111700,-2.221005
0.111800,-2.309941
0.111900,-2.476452
0.112000,-2.671851
0.112100,-2.659192
0.112200,-2.473531
0.112300,-2.345645
0.112400,-2.355382
0.112500,-2.515727
0.112600,-2.707555
0.112700,-2.765007
0.112800,-2.699116
0.112900,-2.559221
0.113000,-2.509235
0.113100,-2.537149
0.113200,-2.586161
0.113300,-2.579345
0.113400,-2.561168
0.113500,-2.529684
0.113600,-2.468986
0.113700,-2.426791
0.113800,-2.307669
0.113900,-2.183029
0.114000,-2.089224
0.114100,-2.039238
0.114200,-2.014245
0.114300,-2.010026
0.114400,-1.913949
0.114500,-1.762369
0.114600,-1.728288
0.114700,-1.522503
0.114800,-1.510818
0.114900,-1.467973
0.115000,-1.416040
0.115100,-1.320612
0.115200,-1.251801
0.115300,-1.127486
0.115400,-1.084641
0.115500,-1.071333
0.115600,-1.076851
0.115700,-1.103142
0.115800,-1.059973
0.115900,-1.089185
0.116000,-1.032059
0.116100,-1.006092
0.116200,-0.973959
0.116300,-0.988565
0.116400,-0.997653
0.116500,-1.063868
0.116600,-1.035305
0.116700,-0.973959
0.116800,-0.723057
0.116900,-0.540966
0.117000,-0.603286
0.117100,-0.935333
0.117200,-1.063219
0.117300,-1.032059
0.117400,-0.633147
0.117500,-0.611400
0.117600,-0.519219
0.117700,-0.766551
0.117800,-0.871391
0.117900,-0.916508
0.118000,-0.704231
0.118100,-0.582188
0.118200,-0.548432
0.118300,-0.498121
0.118400,-0.594847
0.118500,-0.552651
0.118600,-0.561090
0.118700,-0.497148
0.118800,-0.501692
0.118900,-0.497472
0.119000,-0.543887
0.119100,-0.534475
0.119200,-0.596794
0.119300,-0.638990
0.119400,-0.637692
0.119500,-0.661061
0.119600,-0.689625
0.119700,-0.600040
0.119800,-0.615295
0.119900,-0.628928
0.120000,-0.939877
0.120100,-0.946694
0.120200,-0.952861
0.120300,-0.777586
0.120400,-0.676317
0.120500,-0.770446
0.120600,-1.009013
0.120700,-1.156049
0.120800,-1.112555
0.120900,-0.973309
0.121000,-0.864574
0.121100,-0.941176
0.121200,-1.057701
0.121300,-1.139495
0.121400,-1.102168
0.121500,-1.122617
0.121600,-1.060947
0.121700,-1.146312
0.121800,-1.203438
0.121900,-1.239467
0.122000,-1.210904
0.122100,-1.189481
0.122200,-1.224861
0.122300,-1.251476
0.122400,-1.248555
0.122500,-1.223238
0.122600,-1.207658
0.122700,-1.220641
0.122800,-1.356641
0.122900,-1.367028
0.123000,-1.364106
0.123100,-1.341386
0.123200,-1.246283
0.123300,-1.283285
0.123400,-1.280364
0.123500,-1.280364
0.123600,-1.280364
0.123700,-1.278741
0.123800,-1.303085
0.123900,-1.298865
0.124000,-1.323209
0.124100,-1.332946
0.124200,-1.350474
0.124300,-1.338140
0.124400,-1.343982
0.124500,-1.363457
0.124600,-1.407600
0.124700,-1.366378
0.124800,-1.452717
0.124900,-1.471868
0.125000,-1.561452
0.125100,-1.655906
0.125200,-2.010350
0.125300,-2.031124
0.125400,-1.865586
0.125500,-1.676030
0.125600,-1.728937
0.125700,-1.918169
0.125800,-2.171993
0.125900,-2.296633
0.126000,-2.217110
0.126100,-2.068775
0.126200,-2.046055
0.126300,-2.134341
0.126400,-2.327468
0.126500,-2.461196
0.126600,-2.471259
0.126700,-2.410561
0.126800,-2.414456
0.126900,-2.407316
0.127000,-2.468986
0.127100,-2.492032
0.127200,-2.499173
0.127300,-2.483268
0.127400,-2.484891
0.127500,-2.552080
0.127600,-2.553703
0.127700,-2.540719
0.127800,-2.514428
0.127900,-2.520271
0.128000,-2.558896
0.128100,-2.586486
0.128200,-2.539746
0.128300,-2.367392
0.128400,-2.288518
0.128500,-2.392709
0.128600,-2.572529
0.128700,-2.700415
0.128800,-2.609856
0.128900,-2.414781
0.129000,-2.275859
0.129100,-2.343697
0.129200,-2.496576
0.129300,-2.639068
0.129400,-2.658219
0.129500,-2.584863
0.129600,-2.492032
0.129700,-2.439774
0.129800,-2.462170
0.129900,-2.497874
0.130000,-2.495278
0.130100,-2.469960
0.130200,-2.435879
0.130300,-2.394657
0.130400,-2.341101
0.130500,-2.292738
0.130600,-2.156088
0.130700,-2.086952
0.130800,-2.042484
0.130900,-2.021711
0.131000,-2.022360
0.131100,-1.887983
0.131200,-1.774703
0.131300,-1.573462
0.131400,-1.552689
0.131500,-1.576708
0.131600,-1.544250
0.131700,-1.502703
0.131800,-1.401109
0.131900,-1.317691
0.132000,-1.263486
0.132100,-1.223562
0.132200,-1.226159
0.132300,-1.229729
0.132400,-1.221290
0.132500,-1.203763
0.132600,-1.198894
0.132700,-1.129433
0.132800,-1.130407
0.132900,-1.085290
0.133000,-1.114503
0.133100,-1.114827
0.133200,-1.185911
0.133300,-1.047314
0.133400,-1.011935
0.133500,-0.644508
0.133600,-0.596145
0.133700,-0.720135
0.133800,-0.987591
0.133900,-1.003820
0.134000,-0.817185
0.134100,-0.680861
0.134200,-0.455277
0.134300,-0.591601
0.134400,-0.681186
0.134500,-0.799009
0.134600,-0.708450
0.134700,-0.651324
0.134800,-0.467611
0.134900,-0.484164
0.135000,-0.477024
0.135100,-0.512728
0.135200,-0.532202
0.135300,-0.471830
0.135400,-0.479620
0.135500,-0.507534
0.135600,-0.540642
0.135700,-0.552651
0.135800,-0.569529
0.135900,-0.587057
0.136000,-0.734092
0.136100,-0.729224
0.136200,-0.838283
0.136300,-0.754217
0.136400,-0.797061
0.136500,-0.715916
0.136600,-0.874636
0.136700,-1.070359
0.136800,-1.098598
0.136900,-0.991161
0.137000,-0.795438
0.137100,-0.750646
0.137200,-0.885997
0.137300,-1.112555
0.137400,-1.163515
0.137500,-1.056078
0.137600,-0.911314
0.137700,-0.889567
0.137800,-1.007715
0.137900,-1.081395
0.138000,-1.095352
0.138100,-1.073281
0.138200,-1.061271
0.138300,-1.063219
0.138400,-1.133653
0.138500,-1.205710
0.138600,-1.251152
0.138700,-1.203114
0.138800,-1.199868
0.138900,-1.269004
0.139000,-1.309901
0.139100,-1.321261
0.139200,-1.288479
0.139300,-1.303085
0.139400,-1.354044
0.139500,-1.498808
0.139600,-1.522178
0.139700,-1.527696
0.139800,-1.380660
0.139900,-1.415715
0.140000,-1.465051
0.140100,-1.466350
0.140200,-1.457586
0.140300,-1.451094
0.140400,-1.450121
0.140500,-1.459209
0.140600,-1.438111
0.140700,-1.476087
0.140800,-1.419935
0.140900,-1.427075
0.141000,-1.422856
0.141100,-1.425128
0.141200,-1.390722
0.141300,-1.368651
0.141400,-1.378063
0.141500,-1.410522
0.141600,-1.463753
0.141700,-1.448822
0.141800,-1.746465
0.141900,-1.931152
0.142000,-1.967181
0.142100,-1.696803
0.142200,-1.610140
0.142300,-1.627667
0.142400,-1.937319
0.142500,-2.163229
0.142600,-2.234637
0.142700,-2.103181
0.142800,-1.960365
0.142900,-1.958093
0.143000,-2.091496
0.143100,-2.289167
0.143200,-2.365769
0.143300,-2.338504
0.143400,-2.281053
0.143500,-2.294685
0.143600,-2.334934
0.143700,-2.402771
0.143800,-2.426141
0.143900,-2.401473
0.144000,-2.430036
0.144100,-2.467688
0.144200,-2.497874
0.144300,-2.564089
0.144400,-2.528710
0.144500,-2.535526
0.144600,-2.536824
0.144700,-2.579994
0.144800,-2.612452
0.144900,-2.505664
0.145000,-2.418351
0.145100,-2.383296
0.145200,-2.532280
0.145300,-2.715670
0.145400,-2.826353
0.145500,-2.726706
0.145600,-2.528710
0.145700,-2.484567
0.145800,-2.609531
0.145900,-2.779613
0.146000,-2.906201
0.146100,-2.889647
0.146200,-2.760787
0.146300,-2.669904
0.146400,-2.698143
0.146500,-2.760787
0.146600,-2.758840
0.146700,-2.720863
0.146800,-2.687431
0.146900,-2.636472
0.147000,-2.618295
0.147100,-2.533903
0.147200,-2.404070
0.147300,-2.292089
0.147400,-2.238532
0.147500,-2.257034
0.147600,-2.235936
0.147700,-2.189845
0.147800,-1.998665
0.147900,-1.918818
0.148000,-1.791582
0.148100,-1.746465
0.148200,-1.719524
0.148300,-1.668565
0.148400,-1.590665
0.148500,-1.513414
0.148600,-1.397214
0.148700,-1.352421
0.148800,-1.308278
0.148900,-1.310875
0.149000,-1.298216
0.149100,-1.260565
0.149200,-1.259266
0.149300,-1.229405
0.149400,-1.149233
0.149500,-1.159944
0.149600,-1.108660
0.149700,-1.120670
0.149800,-1.138197
0.149900,-1.161567
0.150000,-1.108985
0.150100,-0.895085
0.150200,-0.638341
0.150300,-0.573749
0.150400,-0.797061
0.150500,-1.140145
0.150600,-1.089510
0.150700,-0.885348
0.150800,-0.570179
0.150900,-0.550379
0.151000,-0.568556
0.151100,-0.780183
0.151200,-0.868145
0.151300,-0.730197
0.151400,-0.604260
0.151500,-0.471830
0.151600,-0.526035
0.151700,-0.529930
0.151800,-0.568880
0.151900,-0.521816
0.152000,-0.518245
0.152100,-0.469883
0.152200,-0.485463
0.152300,-0.487735
0.152400,-0.520193
0.152500,-0.502990
0.152600,-0.634770
0.152700,-0.650999
0.152800,-0.648727
0.152900,-0.650026
0.153000,-0.566284
0.153100,-0.542589
0.153200,-0.581864
0.153300,-0.745453
0.153400,-0.939877
0.153500,-0.873663
0.153600,-0.766551
0.153700,-0.536422
0.153800,-0.611076
0.153900,-0.755839
0.154000,-0.979476
0.154100,-0.935982
0.154200,-0.817185
0.154300,-0.650350
0.154400,-0.638341
0.154500,-0.753892
0.154600,-0.839906
0.154700,-0.840555
0.154800,-0.808097
0.154900,-0.767849
0.155000,-0.799983
0.155100,-0.846722
0.155200,-0.894111
0.155300,-0.879505
0.155400,-0.847696
0.155500,-0.881777
0.155600,-0.925596
0.155700,-0.942149
0.155800,-0.921376
0.155900,-0.894761
0.156000,-0.893462
0.156100,-0.984994
0.156200,-1.080746
0.156300,-1.074254
0.156400,-1.078149
0.156500,-1.083018
0.156600,-1.011610
0.156700,-1.032059
0.156800,-1.029462
0.156900,-1.022970
0.157000,-1.061920
0.157100,-1.053806
0.157200,-1.088211
0.157300,-1.082044
0.157400,-1.080746
0.157500,-1.108011
0.157600,-1.110283
0.157700,-1.136899
0.157800,-1.137873
0.157900,-1.154102
0.158000,-1.213176
0.158100,-1.229729
0.158200,-1.273548
0.158300,-1.271600
0.158400,-1.382608
0.158500,-1.632861
0.158600,-1.863314
0.158700,-1.724068
0.158800,-1.507247
0.158900,-1.369949
0.159000,-1.489720
0.159100,-1.776002
0.159200,-1.958742
0.159300,-1.967505
0.159400,-1.781195
0.159500,-1.700374
0.159600,-1.723744
0.159700,-1.914598
0.159800,-2.095067
0.159900,-2.098637
0.160000,-2.075267
0.160100,-2.020412
0.160200,-2.047353
0.160300,-2.063907
0.160400,-2.091821
0.160500,-2.110322
0.160600,-2.093119
0.160700,-2.107401
0.160800,-2.112919
0.160900,-2.185950
0.161000,-2.155764
0.161100,-2.196986
0.161200,-2.188871
0.161300,-2.237883
0.161400,-2.295659
0.161500,-2.344346
0.161600,-2.213539
0.161700,-2.095067
0.161800,-2.156737
0.161900,-2.303124
0.162000,-2.468013
0.162100,-2.531307
0.162200,-2.378103
0.162300,-2.200232
0.162400,-2.166150
0.162500,-2.315459
0.162600,-2.514428
0.162700,-2.609207
0.162800,-2.551755
0.162900,-2.415755
0.163000,-2.361225
0.163100,-2.398552
0.163200,-2.463469
0.163300,-2.469960
0.163400,-2.426466
0.163500,-2.416729
0.163600,-2.386867
0.163700,-2.371936
0.163800,-2.311564
0.163900,-2.193415
0.164000,-2.096040
0.164100,-2.069425
0.164200,-2.078513
0.164300,-2.090522
0.164400,-2.022035
0.164500,-1.857147
0.164600,-1.809758
0.164700,-1.622149
0.164800,-1.659152
0.164900,-1.612087
0.165000,-1.569892
0.165100,-1.455314
0.165200,-1.397863
0.165300,-1.258942
0.165400,-1.235247
0.165500,-1.252125
0.165600,-1.249204
0.165700,-1.279715
0.165800,-1.231352
0.165900,-1.237519
0.166000,-1.214149
0.166100,-1.169357
0.166200,-1.197271
0.166300,-1.108011
0.166400,-1.238168
0.166500,-1.176822
0.166600,-1.239467
0.166700,-1.089510
0.166800,-0.918130
0.166900,-0.609778
0.167000,-0.691897
0.167100,-0.903849
0.167200,-1.243686
0.167300,-1.014531
0.167400,-0.824326
0.167500,-0.556222
0.167600,-0.543563
0.167700,-0.677615
0.167800,-0.842827
0.167900,-0.835362
0.168000,-0.729873
0.168100,-0.551028
0.168200,-0.526685
0.168300,-0.542589
0.168400,-0.580241
0.168500,-0.602637
0.168600,-0.602961
0.168700,-0.525386
0.168800,-0.514675
0.168900,-0.510456
0.169000,-0.554274
0.169100,-0.531553
0.169200,-0.572775
0.169300,-0.711696
0.169400,-0.700011
0.169500,-0.741233
0.169600,-0.734417
0.169700,-0.691897
0.169800,-0.672097
0.169900,-0.663334
0.170000,-0.923324
0.170100,-1.031734
0.170200,-0.981424
0.170300,-0.810694
0.170400,-0.628928
0.170500,-0.734417
0.170600,-0.955133
0.170700,-1.166436
0.170800,-1.119371
0.170900,-0.952536
0.171000,-0.827897
0.171100,-0.858083
0.171200,-0.997328
0.171300,-1.081720
0.171400,-1.049586
0.171500,-1.066464
0.171600,-0.991486
0.171700,-1.055753
0.171800,-1.114827
0.171900,-1.154102
0.172000,-1.144689
0.172100,-1.146636
0.172200,-1.187858
0.172300,-1.236870
0.172400,-1.239791
0.172500,-1.200841
0.172600,-1.222588
0.172700,-1.238818
0.172800,-1.368975
0.172900,-1.424154
0.173000,-1.429023
0.173100,-1.434216
0.173200,-1.396240
0.173300,-1.424479
0.173400,-1.446550
0.173500,-1.454340
0.173600,-1.504975
0.173700,-1.542951
0.173800,-1.565347
0.173900,-1.598779
0.174000,-1.622474
0.174100,-1.654932
0.174200,-1.681548
0.174300,-1.716278
0.174400,-1.755553
0.174500,-1.779897
0.174600,-1.820145
0.174700,-1.847410
0.174800,-1.915897
0.174900,-1.939591
0.175000,-1.981787
0.175100,-2.108050
0.175200,-2.374533
0.175300,-2.463793
0.175400,-2.268394
0.175500,-2.046379
0.175600,-2.007754
0.175700,-2.174589
0.175800,-2.468337
0.175900,-2.573827
0.176000,-2.545588
0.176100,-2.315783
0.176200,-2.208346
0.176300,-2.263201
0.176400,-2.450485
0.176500,-2.549159
0.176600,-2.532280
0.176700,-2.467039
0.176800,-2.398876
0.176900,-2.416404
0.177000,-2.429063
0.177100,-2.475478
0.177200,-2.488786
0.177300,-2.476452
0.177400,-2.459249
0.177500,-2.500147
0.177600,-2.522867
0.177700,-2.564414
0.177800,-2.537149
0.177900,-2.493006
0.178000,-2.563440
0.178100,-2.598495
0.178200,-2.587135
0.178300,-2.462170
0.178400,-2.345645
0.178500,-2.419974
0.178600,-2.573502
0.178700,-2.752348
0.178800,-2.719890
0.178900,-2.503068
0.179000,-2.350514
0.179100,-2.325196
0.179200,-2.501445
0.179300,-2.680940
0.179400,-2.755918
0.179500,-2.662438
0.179600,-2.515727
0.179700,-2.467688
0.179800,-2.483917
0.179900,-2.497874
0.180000,-2.530333
0.180100,-2.505664
0.180200,-2.482619
0.180300,-2.421273
0.180400,-2.368041
0.180500,-2.295010
0.180600,-2.154790
0.180700,-2.070074
0.180800,-2.007754
0.180900,-1.983410
0.181000,-1.990226
0.181100,-1.882140
0.181200,-1.743868
0.181300,-1.588068
0.181400,-1.454016
0.181500,-1.499457
0.181600,-1.449796
0.181700,-1.422531
0.181800,-1.312498
0.181900,-1.251476
0.182000,-1.129109
0.182100,-1.122293
0.182200,-1.122293
0.182300,-1.135600
0.182400,-1.128460
0.182500,-1.135600
0.182600,-1.122293
0.182700,-1.081395
0.182800,-1.018751
0.182900,-0.992460
0.183000,-0.969090
0.183100,-1.032708
0.183200,-1.009338
0.183300,-0.956107
0.183400,-0.825949
0.183500,-0.521816
0.183600,-0.464365
0.183700,-0.365043
0.183800,-0.864250
0.183900,-0.790245
0.184000,-0.774990
0.184100,-0.402370
0.184200,-0.328690
0.184300,-0.298504
0.184400,-0.428985
0.184500,-0.581864
0.184600,-0.541291
0.184700,-0.449759
0.184800,-0.262800
0.184900,-0.201778
0.185000,-0.266695
0.185100,-0.265721
0.185200,-0.339401
0.185300,-0.300451
0.185400,-0.284547
0.185500,-0.257931
0.185600,-0.254360
0.185700,-0.288117
0.185800,-0.263124
0.185900,-0.318303
0.186000,-0.457224
0.186100,-0.458522
0.186200,-0.535124
0.186300,-0.509157
0.186400,-0.456575
0.186500,-0.487410
0.186600,-0.537396
0.186700,-0.822054
0.186800,-0.867820
0.186900,-0.816212
0.187000,-0.638665
0.187100,-0.567906
0.187200,-0.732470
0.187300,-0.980775
0.187400,-1.114503
0.187500,-1.107362
0.187600,-0.968441
0.187700,-0.924622
0.187800,-0.998951
0.187900,-1.136250
0.188000,-1.203114
0.188100,-1.196622
0.188200,-1.270951
0.188300,-1.251152
0.188400,-1.327104
0.188500,-1.346903
0.188600,-1.396565
0.188700,-1.389748
0.188800,-1.439409
0.188900,-1.509844
0.189000,-1.541653
0.189100,-1.518608
0.189200,-1.513090
0.189300,-1.483553
0.189400,-1.516336
0.189500,-1.627343
0.189600,-1.639028
0.189700,-1.625071
0.189800,-1.606569
0.189900,-1.483877
0.190000,-1.533863
0.190100,-1.515037
0.190200,-1.514713
0.190300,-1.500431
0.190400,-1.481281
0.190500,-1.480956
0.190600,-1.478035
0.190700,-1.494264
0.190800,-1.489071
0.190900,-1.482579
0.191000,-1.488746
0.191100,-1.463429
0.191200,-1.485500
0.191300,-1.479658
0.191400,-1.510168
0.191500,-1.526722
0.191600,-1.567620
0.191700,-1.584822
0.191800,-1.769510
0.191900,-2.070723
0.192000,-2.043458
0.192100,-1.896422
0.192200,-1.627343
0.192300,-1.635133
0.192400,-1.799372
0.192500,-2.153816
0.192600,-2.186599
0.192700,-2.101558
0.192800,-1.899343
0.192900,-1.851954
0.193000,-1.952250
0.193100,-2.126551
0.193200,-2.234313
0.193300,-2.216785
0.193400,-2.179783
0.193500,-2.142131
0.193600,-2.227496
0.193700,-2.243726
0.193800,-2.263525
0.193900,-2.245998
0.194000,-2.268069
0.194100,-2.290790
0.194200,-2.358304
0.194300,-2.415106
0.194400,-2.370962
0.194500,-2.355382
0.194600,-2.408289
0.194700,-2.471259
0.194800,-2.508261
0.194900,-2.427440
0.195000,-2.296633
0.195100,-2.252814
0.195200,-2.408289
0.195300,-2.619269
0.195400,-2.786105
0.195500,-2.701388
0.195600,-2.504042
0.195700,-2.373234
0.195800,-2.437502
0.195900,-2.604662
0.196000,-2.780587
0.196100,-2.794544
0.196200,-2.643612
0.196300,-2.510858
0.196400,-2.478399
0.196500,-2.501120
0.196600,-2.490734
0.196700,-2.488786
0.196800,-2.437502
0.196900,-2.417378
0.197000,-2.342074
0.197100,-2.295334
0.197200,-2.142131
0.197300,-2.014570
0.197400,-1.950627
0.197500,-1.942513
0.197600,-1.935696
0.197700,-1.953224
0.197800,-1.797099
0.197900,-1.695505
0.198000,-1.650713
0.198100,-1.458884
0.198200,-1.471219
0.198300,-1.432918
0.198400,-1.340087
0.198500,-1.239467
0.198600,-1.120670
0.198700,-1.052832
0.198800,-1.052507
0.198900,-1.003496
0.199000,-1.024918
0.199100,-0.970064
0.199200,-1.071009
0.199300,-0.990188
0.199400,-1.001873
0.199500,-0.886321
0.199600,-0.963572
0.199700,-0.932737
0.199800,-1.075228
0.199900,-1.084641
0.200000,-1.054779
0.200100,-0.891515
0.200200,-0.638990
0.200300,-0.580241
0.200400,-0.799658
0.200500,-1.118398
0.200600,-1.143390
0.200700,-0.947018
0.200800,-0.687353
0.200900,-0.593873
0.201000,-0.680861
0.201100,-0.884374
0.201200,-0.954159
0.201300,-0.909042
0.201400,-0.727601
0.201500,-0.667553
0.201600,-0.616918
0.201700,-0.700660
0.201800,-0.690598
0.201900,-0.722732
0.202000,-0.638665
0.202100,-0.645806
0.202200,-0.669501
0.202300,-0.706178
0.202400,-0.716890
0.202500,-0.762331
0.202600,-0.746102
0.202700,-0.895410
0.202800,-0.875286
0.202900,-0.956431
0.203000,-0.938255
0.203100,-0.856135
0.203200,-0.873987
0.203300,-1.047314
0.203400,-1.301137
0.203500,-1.233300
0.203600,-1.190779
0.203700,-0.914560
0.203800,-0.972011
0.203900,-1.095677
0.204000,-1.346903
0.204100,-1.359887
0.204200,-1.291725
0.204300,-1.094379
0.204400,-1.047963
0.204500,-1.129433
0.204600,-1.219667
0.204700,-1.222588
0.204800,-1.156698
0.204900,-1.145013
0.205000,-1.124565
0.205100,-1.190779
0.205200,-1.229405
0.205300,-1.253424
0.205400,-1.192727
0.205500,-1.165462
0.205600,-1.197920
0.205700,-1.211877
0.205800,-1.169032
0.205900,-1.120345
0.206000,-1.100221
0.206100,-1.154751
0.206200,-1.255696
0.206300,-1.274522
0.206400,-1.247257
0.206500,-1.116450
0.206600,-1.130407
0.206700,-1.178121
0.206800,-1.163839
0.206900,-1.163515
0.207000,-1.121319
0.207100,-1.129109
0.207200,-1.125214
0.207300,-1.149882
0.207400,-1.137873
0.207500,-1.155075
0.207600,-1.140145
0.207700,-1.148584
0.207800,-1.116450
0.207900,-1.114178
0.208000,-1.112880
0.208100,-1.113853
0.208200,-1.163839
0.208300,-1.168708
0.208400,-1.185586
0.208500,-1.462779
0.208600,-1.642923
0.208700,-1.583200
0.208800,-1.285233
0.208900,-1.200192
0.209000,-1.222264
0.209100,-1.508870
0.209200,-1.805863
0.209300,-1.842541
0.209400,-1.720173
0.209500,-1.544250
0.209600,-1.566321
0.209700,-1.735429
0.209800,-1.929854
0.209900,-2.000613
0.210000,-1.989577
0.210100,-1.945758
0.210200,-1.956470
0.210300,-2.010350
0.210400,-2.072021
0.210500,-2.101234
0.210600,-2.101234
0.210700,-2.103506
0.210800,-2.164852
0.210900,-2.201205
0.211000,-2.267745
0.211100,-2.231716
0.211200,-2.246322
0.211300,-2.269368
0.211400,-2.369015
0.211500,-2.417702
0.211600,-2.339478
0.211700,-2.224251
0.211800,-2.260929
0.211900,-2.400175
0.212000,-2.563116
0.212100,-2.667956
0.212200,-2.529359
0.212300,-2.368041
0.212400,-2.312537
0.212500,-2.443020
0.212600,-2.624787
0.212700,-2.753322
0.212800,-2.694572
0.212900,-2.586161
0.213000,-2.496901
0.213100,-2.503392
0.213200,-2.561817
0.213300,-2.577722
0.213400,-2.557598
0.213500,-2.544290
0.213600,-2.509884
0.213700,-2.502419
0.213800,-2.461521
0.213900,-2.367067
0.214000,-2.255735
0.214100,-2.186599
0.214200,-2.202179
0.214300,-2.175563
0.214400,-2.159983
0.214500,-1.986980
0.214600,-1.913625
0.214700,-1.743868
0.214800,-1.803591
0.214900,-1.794503
0.215000,-1.813653
0.215100,-1.751009
0.215200,-1.670188
0.215300,-1.580603
0.215400,-1.583524
0.215500,-1.562426
0.215600,-1.578331
0.215700,-1.593262
0.215800,-1.551066
0.215900,-1.563075
0.216000,-1.478684
0.216100,-1.456288
0.216200,-1.401109
0.216300,-1.434216
0.216400,-1.432918
0.216500,-1.453691
0.216600,-1.427075
0.216700,-1.293347
0.216800,-1.110932
0.216900,-0.812966
0.217000,-0.820756
0.217100,-1.028488
0.217200,-1.343333
0.217300,-1.145662
0.217400,-0.942799
0.217500,-0.674694
0.217600,-0.689625
0.217700,-0.692871
0.217800,-0.901252
0.217900,-0.919429
0.218000,-0.782455
0.218100,-0.573100
0.218200,-0.461444
0.218300,-0.454303
0.218400,-0.454952
0.218500,-0.463716
0.218600,-0.435153
0.218700,-0.401396
0.218800,-0.332585
0.218900,-0.333234
0.219000,-0.332260
0.219100,-0.276757
0.219200,-0.262475
0.219300,-0.429310
0.219400,-0.358876
0.219500,-0.475076
0.219600,-0.446837
0.219700,-0.409511
0.219800,-0.360499
0.219900,-0.391334
0.220000,-0.575696
0.220100,-0.708450
0.220200,-0.648078
0.220300,-0.522790
0.220400,-0.277081
0.220500,-0.418599
0.220600,-0.552002
0.220700,-0.758436
0.220800,-0.724030
0.220900,-0.610427
0.221000,-0.497797
0.221100,-0.534475
0.221200,-0.670150
0.221300,-0.775639
0.221400,-0.762656
0.221500,-0.778885
0.221600,-0.746751
0.221700,-0.836011
0.221800,-0.880479
0.221900,-0.960326
0.222000,-0.909367
0.222100,-0.873987
0.222200,-0.908393
0.222300,-0.954808
0.222400,-0.956431
0.222500,-0.943772
0.222600,-0.927219
0.222700,-0.938255
0.222800,-1.055104
0.222900,-1.138197
0.223000,-1.145987
0.223100,-1.136574
0.223200,-1.029787
0.223300,-1.082694
0.223400,-1.117099
0.223500,-1.104441
0.223600,-1.108985
0.223700,-1.132679
0.223800,-1.108660
0.223900,-1.108011
0.224000,-1.115152
0.224100,-1.102818
0.224200,-1.137548
0.224300,-1.143390
0.224400,-1.161567
0.224500,-1.158321
0.224600,-1.191429
0.224700,-1.209605
0.224800,-1.244335
0.224900,-1.290751
0.225000,-1.322560
0.225100,-1.497834
0.225200,-1.804889
0.225300,-1.952575
0.225400,-1.867209
0.225500,-1.655581
0.225600,-1.546197
0.225700,-1.738675
0.225800,-2.072021
0.225900,-2.237559
0.226000,-2.226847
0.226100,-2.070723
0.226200,-1.971725
0.226300,-2.040861
0.226400,-2.224900
0.226500,-2.378103
0.226600,-2.373884
0.226700,-2.382972
0.226800,-2.293387
0.226900,-2.307669
0.227000,-2.341750
0.227100,-2.339802
0.227200,-2.352136
0.227300,-2.290790
0.227400,-2.261902
0.227500,-2.314485
0.227600,-2.348891
0.227700,-2.361225
0.227800,-2.315134
0.227900,-2.297931
0.228000,-2.321626
0.228100,-2.360900
0.228200,-2.352136
0.228300,-2.219382
0.228400,-2.108699
0.228500,-2.178484
0.228600,-2.353110
0.228700,-2.532280
0.228800,-2.541044
0.228900,-2.369664
0.229000,-2.194714
0.229100,-2.186599
0.229200,-2.357005
0.229300,-2.555975
0.229400,-2.659517
0.229500,-2.566037
0.229600,-2.452108
0.229700,-2.424843
0.229800,-2.448538
0.229900,-2.502094
0.230000,-2.530008
0.230100,-2.505015
0.230200,-2.493006
0.230300,-2.413807
0.230400,-2.396280
0.230500,-2.354084
0.230600,-2.184002
0.230700,-2.085978
0.230800,-2.089873
0.230900,-2.061310
0.231000,-2.045081
0.231100,-1.961988
0.231200,-1.828584
0.231300,-1.785739
0.231400,-1.634808
0.231500,-1.633834
0.231600,-1.574436
0.231700,-1.554636
0.231800,-1.432593
0.231900,-1.372870
0.232000,-1.237519
0.232100,-1.232001
0.232200,-1.257643
0.232300,-1.291075
0.232400,-1.263161
0.232500,-1.288803
0.232600,-1.247257
0.232700,-1.245634
0.232800,-1.184288
0.232900,-1.189806
0.233000,-1.222913
0.233100,-1.220641
0.233200,-1.315419
0.233300,-1.203438
0.233400,-1.177472
0.233500,-0.923648
0.233600,-0.677940
0.233700,-0.725004
0.233800,-1.028164
0.233900,-1.230703
0.234000,-0.976231
0.234100,-0.829195
0.234200,-0.562713
0.234300,-0.610427
0.234400,-0.644832
0.234500,-0.798684
0.234600,-0.796737
0.234700,-0.606856
0.234800,-0.519868
0.234900,-0.434503
0.235000,-0.466312
0.235100,-0.506561
0.235200,-0.575372
0.235300,-0.552976
0.235400,-0.555572
0.235500,-0.568880
0.235600,-0.563038
0.235700,-0.644832
0.235800,-0.636069
0.235900,-0.727276
0.236000,-0.785701
0.236100,-0.873663
0.236200,-0.873663
0.236300,-0.930789
0.236400,-0.847372
0.236500,-0.879505
0.236600,-0.867171
0.236700,-1.157997
0.236800,-1.252450
0.236900,-1.214799
0.237000,-1.018751
0.237100,-0.891839
0.237200,-0.998302
0.237300,-1.163839
0.237400,-1.288803
0.237500,-1.229405
0.237600,-1.060297
0.237700,-0.903200
0.237800,-0.951562
0.237900,-1.053157
0.238000,-1.116126
0.238100,-1.050235
0.238200,-1.092106
0.238300,-1.019075
0.238400,-1.103791
0.238500,-1.140794
0.238600,-1.213825
0.238700,-1.217395
0.238800,-1.241414
0.238900,-1.297567
0.239000,-1.329701
0.239100,-1.336841
0.239200,-1.330999
0.239300,-1.328402
0.239400,-1.390722
0.239500,-1.515362
0.239600,-1.581252
0.239700,-1.601052
0.239800,-1.562751
0.239900,-1.447849
0.240000,-1.509519
0.240100,-1.481605
0.240200,-1.449147
0.240300,-1.417013
0.240400,-1.418312
0.240500,-1.377090
0.240600,-1.363133
0.240700,-1.354044
0.240800,-1.321586
0.240900,-1.348202
0.241000,-1.342684
0.241100,-1.345281
0.241200,-1.339114
0.241300,-1.377090
0.241400,-1.379686
0.241500,-1.404030
0.241600,-1.429023
0.241700,-1.479333
0.241800,-1.661099
0.241900,-1.940890
0.242000,-2.014895
0.242100,-1.802617
0.242200,-1.602350
0.242300,-1.559505
0.242400,-1.791257
0.242500,-2.059687
0.242600,-2.206074
0.242700,-2.112269
0.242800,-1.945109
0.242900,-1.892851
0.243000,-2.004508
0.243100,-2.175239
0.243200,-2.340451
0.243300,-2.293062
0.243400,-2.290790
0.243500,-2.255735
0.243600,-2.296308
0.243700,-2.350189
0.243800,-2.388490
0.243900,-2.419650
0.244000,-2.402122
0.244100,-2.412834
0.244200,-2.435230
0.244300,-2.501445
0.244400,-2.453082
0.244500,-2.465741
0.244600,-2.482944
0.244700,-2.537149
0.244800,-2.554677
0.244900,-2.479049
0.245000,-2.278456
0.245100,-2.236585
0.245200,-2.323573
0.245300,-2.470285
0.245400,-2.604338
0.245500,-2.530333
0.245600,-2.333311
0.245700,-2.182055
0.245800,-2.192117
0.245900,-2.363172
0.246000,-2.515402
0.246100,-2.556949
0.246200,-2.442046
0.246300,-2.334934
0.246400,-2.312862
0.246500,-2.320652
0.246600,-2.322599
0.246700,-2.338504
0.246800,-2.324871
0.246900,-2.313511
0.247000,-2.250542
0.247100,-2.217759
0.247200,-2.166150
0.247300,-2.043458
0.247400,-1.944460
0.247500,-1.917195
0.247600,-1.856498
0.247700,-1.862341
0.247800,-1.690636
0.247900,-1.574760
0.248000,-1.363457
0.248100,-1.312498
0.248200,-1.346579
0.248300,-1.293023
0.248400,-1.258617
0.248500,-1.145338
0.248600,-1.040498
0.248700,-0.975906
0.248800,-0.947343
0.248900,-0.923648
0.249000,-0.958379
0.249100,-0.926245
0.249200,-0.970713
0.249300,-0.925920
0.249400,-0.881128
0.249500,-0.843152
0.249600,-0.829195
0.249700,-0.884049
0.249800,-0.935333
0.249900,-0.942149
0.250000,-0.910665
0.250100,-0.853863
0.250200,-0.562064
0.250300,-0.527658
0.250400,-0.567257
0.250500,-1.081395
0.250600,-1.044717
0.250700,-1.013882
0.250800,-0.658789
0.250900,-0.626980
0.251000,-0.700011
0.251100,-0.924622
0.251200,-1.069061
0.251300,-1.049262
0.251400,-0.936632
0.251500,-0.787973
0.251600,-0.811343
0.251700,-0.862627
0.251800,-0.920727
0.251900,-0.905472
0.252000,-0.871715
0.252100,-0.859706
0.252200,-0.863276
0.252300,-0.856135
0.252400,-0.836660
0.252500,-0.813615
0.252600,-0.788298
0.252700,-0.957405
0.252800,-0.923324
0.252900,-0.971037
0.253000,-0.887295
0.253100,-0.767200
0.253200,-0.752918
0.253300,-0.805825
0.253400,-1.075553
0.253500,-1.026865
0.253600,-0.942149
0.253700,-0.670474
0.253800,-0.662684
0.253900,-0.759734
0.254000,-1.012259
0.254100,-1.046990
0.254200,-0.972985
0.254300,-0.788298
0.254400,-0.745128
0.254500,-0.798035
0.254600,-0.902226
0.254700,-0.916183
0.254800,-0.866197
0.254900,-0.875610
0.255000,-0.852889
0.255100,-0.947018
0.255200,-0.966169
0.255300,-0.983371
0.255400,-0.940527
0.255500,-0.960002
0.255600,-1.015180
0.255700,-1.069061
0.255800,-1.049262
0.255900,-1.054779
0.256000,-1.046990
0.256100,-1.102818
0.256200,-1.256994
0.256300,-1.301787
0.256400,-1.302760
0.256500,-1.243037
0.256600,-1.234598
0.256700,-1.300488
0.256800,-1.315094
0.256900,-1.354044
0.257000,-1.337166
0.257100,-1.358264
0.257200,-1.363782
0.257300,-1.400460
0.257400,-1.404679
0.257500,-1.427400
0.257600,-1.426102
0.257700,-1.458560
0.257800,-1.445901
0.257900,-1.452068
0.258000,-1.458235
0.258100,-1.447199
0.258200,-1.484202
0.258300,-1.478684
0.258400,-1.532565
0.258500,-1.698102
0.258600,-1.974646
0.258700,-1.890579
0.258800,-1.677978
0.258900,-1.508546
0.259000,-1.585147
0.259100,-1.802617
0.259200,-2.057740
0.259300,-2.104804
0.259400,-1.924336
0.259500,-1.728937
0.259600,-1.694207
0.259700,-1.860393
0.259800,-2.053845
0.259900,-2.112919
0.260000,-2.078513
0.260100,-1.970751
0.260200,-1.962961
0.260300,-2.025606
0.260400,-2.088900
0.260500,-2.118112
0.260600,-2.107076
0.260700,-2.098312
0.260800,-2.138236
0.260900,-2.261578
0.261000,-2.225549
0.261100,-2.241454
0.261200,-2.204127
0.261300,-2.267745
0.261400,-2.302151
0.261500,-2.332012
0.261600,-2.240155
0.261700,-2.086952
0.261800,-2.063582
0.261900,-2.184976
0.262000,-2.387516
0.262100,-2.505340
0.262200,-2.384919
0.262300,-2.148623
0.262400,-2.013596
0.262500,-2.101883
0.262600,-2.297931
0.262700,-2.473531
0.262800,-2.440099
0.262900,-2.313836
0.263000,-2.215162
0.263100,-2.207048
0.263200,-2.283649
0.263300,-2.338179
0.263400,-2.357979
0.263500,-2.346294
0.263600,-2.304747
0.263700,-2.286246
0.263800,-2.244375
0.263900,-2.159334
0.264000,-2.078837
0.264100,-2.037291
0.264200,-2.063257
0.264300,-2.074293
0.264400,-2.081434
0.264500,-1.911677
0.264600,-1.841567
0.264700,-1.736078
0.264800,-1.640651
0.264900,-1.624746
0.265000,-1.632211
0.265100,-1.545873
0.265200,-1.460183
0.265300,-1.325806
0.265400,-1.287505
0.265500,-1.234273
0.265600,-1.224861
0.265700,-1.223238
0.265800,-1.205386
0.265900,-1.231028
0.266000,-1.168383
0.266100,-1.117099
0.266200,-1.071982
0.266300,-1.061596
0.266400,-1.054455
0.266500,-1.057052
0.266600,-1.115476
0.266700,-0.946694
0.266800,-0.929166
0.266900,-0.496174
0.267000,-0.591601
0.267100,-0.616269
0.267200,-1.116775
0.267300,-0.957729
0.267400,-0.857109
0.267500,-0.561090
0.267600,-0.490007
0.267700,-0.617243
0.267800,-0.735066
0.267900,-0.879830
0.268000,-0.735391
0.268100,-0.647754
0.268200,-0.463067
0.268300,-0.483515
0.268400,-0.577319
0.268500,-0.572775
0.268600,-0.556546
0.268700,-0.547133
0.268800,-0.521167
0.268900,-0.531229
0.269000,-0.535124
0.269100,-0.525062
0.269200,-0.500069
0.269300,-0.602312
0.269400,-0.577969
0.269500,-0.610751
0.269600,-0.575696
0.269700,-0.559792
0.269800,-0.460470
0.269900,-0.462093
0.270000,-0.623410
0.270100,-0.855811
0.270200,-0.777911
0.270300,-0.666255
0.270400,-0.397176
0.270500,-0.481568
0.270600,-0.611076
0.270700,-0.884698
0.270800,-0.911639
0.270900,-0.839582
0.271000,-0.654570
0.271100,-0.594198
0.271200,-0.706828
0.271300,-0.825625
0.271400,-0.817185
0.271500,-0.833415
0.271600,-0.771744
0.271700,-0.809395
0.271800,-0.861653
0.271900,-0.903200
0.272000,-0.922999
0.272100,-0.887620
0.272200,-0.902550
0.272300,-0.946369
0.272400,-0.962598
0.272500,-0.940851
0.272600,-0.924622
0.272700,-0.913911
0.272800,-1.014207
0.272900,-1.124889
0.273000,-1.154102
0.273100,-1.166760
0.273200,-1.043095
0.273300,-1.115152
0.273400,-1.200841
0.273500,-1.214474
0.273600,-1.239142
0.273700,-1.261538
0.273800,-1.291075
0.273900,-1.341061
0.274000,-1.388775
0.274100,-1.382283
0.274200,-1.437137
0.274300,-1.442655
0.274400,-1.484526
0.274500,-1.507572
0.274600,-1.496861
0.274700,-1.510168
0.274800,-1.518932
0.274900,-1.588068
0.275000,-1.664670
0.275100,-1.729586
0.275200,-1.961338
0.275300,-2.122332
0.275400,-1.990551
0.275500,-1.772107
0.275600,-1.612412
0.275700,-1.741920
0.275800,-1.966532
0.275900,-2.203153
0.276000,-2.180432
0.276100,-2.006780
0.276200,-1.858770
0.276300,-1.846761
0.276400,-2.011973
0.276500,-2.187248
0.276600,-2.276833
0.276700,-2.230418
0.276800,-2.237559
0.276900,-2.253788
0.277000,-2.303449
0.277100,-2.346294
0.277200,-2.399201
0.277300,-2.408939
0.277400,-2.435879
0.277500,-2.469960
0.277600,-2.541693
0.277700,-2.600118
0.277800,-2.576099
0.277900,-2.579994
0.278000,-2.608233
0.278100,-2.642639
0.278200,-2.642639
0.278300,-2.539746
0.278400,-2.428738
0.278500,-2.458600
0.278600,-2.541369
0.278700,-2.678018
0.278800,-2.728653
0.278900,-2.574476
0.279000,-2.398876
0.279100,-2.355058
0.279200,-2.468337
0.279300,-2.660491
0.279400,-2.764358
0.279500,-2.754945
0.279600,-2.651402
0.279700,-2.616347
0.279800,-2.641990
0.279900,-2.695221
0.280000,-2.719890
0.280100,-2.709828
0.280200,-2.707231
0.280300,-2.662114
0.280400,-2.604987
0.280500,-2.540395
0.280600,-2.387841
0.280700,-2.280079
0.280800,-2.245349
0.280900,-2.249244
0.281000,-2.216136
0.281100,-2.135639
0.281200,-1.944135
0.281300,-1.897396
0.281400,-1.664670
0.281500,-1.660450
0.281600,-1.568918
0.281700,-1.538407
0.281800,-1.421557
0.281900,-1.333271
0.282000,-1.211877
0.282100,-1.140145
0.282200,-1.130407
0.282300,-1.128784
0.282400,-1.124565
0.282500,-1.134627
0.282600,-1.104441
0.282700,-1.075228
0.282800,-1.009013
0.282900,-1.031410
0.283000,-1.013233
0.283100,-1.085615
0.283200,-1.018751
0.283300,-1.094054
0.283400,-0.898331
0.283500,-0.763954
0.283600,-0.466962
0.283700,-0.554599
0.283800,-0.756489
0.283900,-1.067763
0.284000,-0.878856
0.284100,-0.649377
0.284200,-0.498771
0.284300,-0.411133
0.284400,-0.523763
0.284500,-0.723381
0.284600,-0.767200
0.284700,-0.677291
0.284800,-0.525711
0.284900,-0.481243
0.285000,-0.437749
0.285100,-0.464040
0.285200,-0.455277
0.285300,-0.468584
0.285400,-0.472479
0.285500,-0.483191
0.285600,-0.482541
0.285700,-0.485787
0.285800,-0.489358
0.285900,-0.576346
0.286000,-0.643209
0.286100,-0.741558
0.286200,-0.670799
0.286300,-0.810369
0.286400,-0.659439
0.286500,-0.702933
0.286600,-0.708450
0.286700,-0.979476
0.286800,-1.104441
0.286900,-1.013558
0.287000,-0.856784
0.287100,-0.693520
0.287200,-0.766226
0.287300,-0.946694
0.287400,-1.136250
0.287500,-1.078799
0.287600,-0.948641
0.287700,-0.844450
0.287800,-0.868469
0.287900,-0.996355
0.288000,-1.079448
0.288100,-1.029787
0.288200,-1.019075
0.288300,-0.979152
0.288400,-1.065815
0.288500,-1.107037
0.288600,-1.157672
0.288700,-1.171954
0.288800,-1.143715
0.288900,-1.175199
0.289000,-1.216421
0.289100,-1.200841
0.289200,-1.184937
0.289300,-1.181367
0.289400,-1.184612
0.289500,-1.312173
0.289600,-1.369624
0.289700,-1.378713
0.289800,-1.246932
0.289900,-1.269653
0.290000,-1.343009
0.290100,-1.348851
0.290200,-1.337815
0.290300,-1.350798
0.290400,-1.358913
0.290500,-1.365729
0.290600,-1.374168
0.290700,-1.363782
0.290800,-1.375467
0.290900,-1.398837
0.291000,-1.398512
0.291100,-1.417338
0.291200,-1.396565
0.291300,-1.443629
0.291400,-1.410846
0.291500,-1.501729
0.291600,-1.489720
0.291700,-1.585472
0.291800,-1.729911
0.291900,-1.993148
0.292000,-2.118112
0.292100,-1.917520
0.292200,-1.756851
0.292300,-1.617605
0.292400,-1.841567
0.292500,-2.099611
0.292600,-2.260929
0.292700,-2.158360
0.292800,-1.984708
0.292900,-1.878245
0.293000,-1.966207
0.293100,-2.166799
0.293200,-2.286571
0.293300,-2.276509
0.293400,-2.206074
0.293500,-2.165826
0.293600,-2.189520
0.293700,-2.229119
0.293800,-2.267096
0.293900,-2.272614
0.294000,-2.261578
0.294100,-2.264499
0.294200,-2.344996
0.294300,-2.404394
0.294400,-2.414132
0.294500,-2.345645
0.294600,-2.315134
0.294700,-2.327144
0.294800,-2.369664
0.294900,-2.333635
0.295000,-2.177835
0.295100,-2.044107
0.295200,-2.112594
0.295300,-2.269692
0.295400,-2.443020
0.295500,-2.407316
0.295600,-2.220680
0.295700,-2.043782
0.295800,-2.018140
0.295900,-2.190494
0.296000,-2.377454
0.296100,-2.402771
0.296200,-2.283649
0.296300,-2.175563
0.296400,-2.148298
0.296500,-2.171993
0.296600,-2.225874
0.296700,-2.261253
0.296800,-2.234962
0.296900,-2.207697
0.297000,-2.168422
0.297100,-2.155114
0.297200,-2.071372
0.297300,-1.963610
0.297400,-1.922388
0.297500,-1.901615
0.297600,-1.899018
0.297700,-1.914923
0.297800,-1.828909
0.297900,-1.706865
0.298000,-1.673758
0.298100,-1.450445
0.298200,-1.464402
0.298300,-1.418312
0.298400,-1.367028
0.298500,-1.251801
0.298600,-1.179744
0.298700,-1.059973
0.298800,-1.062894
0.298900,-1.053806
0.299000,-1.075877
0.299100,-1.044393
0.299200,-1.046665
0.299300,-1.000574
0.299400,-0.957729
0.299500,-0.910016
0.299600,-0.932087
0.299700,-0.903849
0.299800,-0.934035
0.299900,-0.982722
0.300000,-0.944422
0.300100,-0.889243
0.300200,-0.590303
0.300300,-0.472479
0.300400,-0.523763
0.300500,-0.871066
0.300600,-1.018102
0.300700,-0.862627
0.300800,-0.687353
0.300900,-0.501692
0.301000,-0.523114
0.301100,-0.770770
0.301200,-0.852565
0.301300,-0.886971
0.301400,-0.724680
0.301500,-0.627630
0.301600,-0.503964
0.301700,-0.563038
0.301800,-0.632823
0.301900,-0.704231
0.302000,-0.651973
0.302100,-0.641587
0.302200,-0.608155
0.302300,-0.603611
0.302400,-0.615945
0.302500,-0.616918
0.302600,-0.651649
0.302700,-0.755190
0.302800,-0.758761
0.302900,-0.871391
0.303000,-0.811668
0.303100,-0.815238
0.303200,-0.691572
0.303300,-0.794140
0.303400,-1.022321
0.303500,-1.100546
0.303600,-1.040173
0.303700,-0.869119
0.303800,-0.792517
0.303900,-0.945395
0.304000,-1.187209
0.304100,-1.312173
0.304200,-1.244011
0.304300,-1.138197
0.304400,-1.081071
0.304500,-1.194674
0.304600,-1.349500
0.304700,-1.445901
0.304800,-1.432593
0.304900,-1.480307
0.305000,-1.441357
0.305100,-1.559830
0.305200,-1.626044
0.305300,-1.688689
0.305400,-1.670837
0.305500,-1.676355
0.305600,-1.708488
0.305700,-1.736403
0.305800,-1.721796
0.305900,-1.710760
0.306000,-1.688689
0.306100,-1.695181
0.306200,-1.804565
0.306300,-1.825663
0.306400,-1.809758
0.306500,-1.655257
0.306600,-1.620527
0.306700,-1.645195
0.306800,-1.623123
0.306900,-1.602674
0.307000,-1.578331
0.307100,-1.573137
0.307200,-1.540679
0.307300,-1.528670
0.307400,-1.539381
0.307500,-1.524775
0.307600,-1.534837
0.307700,-1.531591
0.307800,-1.515037
0.307900,-1.486149
0.308000,-1.518608
0.308100,-1.484202
0.308200,-1.526073
0.308300,-1.518932
0.308400,-1.585796
0.308500,-1.767562
0.308600,-1.975945
0.308700,-1.977243
0.308800,-1.701023
0.308900,-1.566970
0.309000,-1.517634
0.309100,-1.742245
0.309200,-1.959391
0.309300,-2.026255
0.309400,-1.910379
0.309500,-1.741596
0.309600,-1.698102
0.309700,-1.759448
0.309800,-1.952899
0.309900,-2.031124
0.310000,-2.012622
0.310100,-1.970751
0.310200,-1.919792
0.310300,-1.981787
0.310400,-1.991200
0.310500,-1.998341
0.310600,-2.021062
0.310700,-1.995744
0.310800,-2.001911
0.310900,-2.039887
0.311000,-2.070723
0.311100,-2.069749
0.311200,-2.077864
0.311300,-2.110322
0.311400,-2.164852
0.311500,-2.174265
0.311600,-2.125577
0.311700,-1.989577
0.311800,-1.926933
0.311900,-2.041186
0.312000,-2.239181
0.312100,-2.319678
0.312200,-2.234962
0.312300,-1.999315
0.312400,-1.893501
0.312500,-1.956470
0.312600,-2.167449
0.312700,-2.320976
0.312800,-2.302151
0.312900,-2.181081
0.313000,-2.080460
0.313100,-2.127200
0.313200,-2.160957
0.313300,-2.187573
0.313400,-2.197310
0.313500,-2.190819
0.313600,-2.154465
0.313700,-2.125902
0.313800,-2.072995
0.313900,-1.986331
0.314000,-1.864613
0.314100,-1.827286
0.314200,-1.861042
0.314300,-1.868832
0.314400,-1.902264
0.314500,-1.776326
0.314600,-1.700374
0.314700,-1.681548
0.314800,-1.506273
0.314900,-1.560154
0.315000,-1.543276
0.315100,-1.510168
0.315200,-1.396240
0.315300,-1.326130
0.315400,-1.274197
0.315500,-1.286207
0.315600,-1.265758
0.315700,-1.325481
0.315800,-1.237519
0.315900,-1.300488
0.316000,-1.271925
0.316100,-1.226808
0.316200,-1.235572
0.316300,-1.214149
0.316400,-1.313796
0.316500,-1.275820
0.316600,-1.346903
0.316700,-1.275171
0.316800,-1.080421
0.316900,-0.886646
0.317000,-0.683133
0.317100,-1.066464
0.317200,-1.247581
0.317300,-1.340087
0.317400,-1.052507
0.317500,-0.779534
0.317600,-0.729873
0.317700,-0.708450
0.317800,-0.969414
0.317900,-1.021023
0.318000,-0.976231
0.318100,-0.797710
0.318200,-0.647429
0.318300,-0.626331
0.318400,-0.618541
0.318500,-0.701959
0.318600,-0.700985
0.318700,-0.688651
0.318800,-0.642885
0.318900,-0.647754
0.319000,-0.645482
0.319100,-0.650999
0.319200,-0.713644
0.319300,-0.732145
0.319400,-0.821730
0.319500,-0.782131
0.319600,-0.904498
0.319700,-0.835037
0.319800,-0.886646
0.319900,-0.807123
0.320000,-1.018751
0.320100,-1.215772
0.320200,-1.262188
0.320300,-1.077825
0.320400,-0.912613
0.320500,-0.892488
0.320600,-1.057052
0.320700,-1.314121
0.320800,-1.367677
0.320900,-1.266407
0.321000,-1.066464
0.321100,-0.996355
0.321200,-1.113204
0.321300,-1.228756
0.321400,-1.283285
0.321500,-1.221290
0.321600,-1.155400
0.321700,-1.151830
0.321800,-1.235572
0.321900,-1.308927
0.322000,-1.353395
0.322100,-1.286207
0.322200,-1.256345
0.322300,-1.273872
0.322400,-1.308927
0.322500,-1.265433
0.322600,-1.252775
0.322700,-1.215772
0.322800,-1.257643
0.322900,-1.384230
0.323000,-1.379686
0.323100,-1.375467
0.323200,-1.215448
0.323300,-1.254073
0.323400,-1.328727
0.323500,-1.335543
0.323600,-1.340087
0.323700,-1.314770
0.323800,-1.332622
0.323900,-1.358588
0.324000,-1.367677
0.324100,-1.397863
0.324200,-1.371247
0.324300,-1.391371
0.324400,-1.377739
0.324500,-1.377414
0.324600,-1.366703
0.324700,-1.390073
0.324800,-1.370598
0.324900,-1.438111
0.325000,-1.387152
0.325100,-1.494264
0.325200,-1.665319
0.325300,-1.880193
0.325400,-1.813978
0.325500,-1.563075
0.325600,-1.469596
0.325700,-1.448498
0.325800,-1.770159
0.325900,-1.983735
0.326000,-1.997692
0.326100,-1.834426
0.326200,-1.638703
0.326300,-1.614035
0.326400,-1.762694
0.326500,-1.925634
0.326600,-2.005157
0.326700,-2.010026
0.326800,-1.956794
0.326900,-1.922713
0.327000,-1.961338
0.327100,-2.046704
0.327200,-2.072670
0.327300,-2.086627
0.327400,-2.089224
0.327500,-2.057415
0.327600,-2.104479
0.327700,-2.173291
0.327800,-2.176537
0.327900,-2.192117
0.328000,-2.159009
0.328100,-2.252165
0.328200,-2.224251
0.328300,-2.184327
0.328400,-2.030799
0.328500,-2.046704
0.328600,-2.203802
0.328700,-2.383621
0.328800,-2.447889
0.328900,-2.355058
0.329000,-2.112594
0.329100,-2.032422
0.329200,-2.146026
0.329300,-2.376156
0.329400,-2.508261
0.329500,-2.468013
0.329600,-2.352136
0.329700,-2.240155
0.329800,-2.226847
0.329900,-2.293711
0.330000,-2.342074
0.330100,-2.334609
0.330200,-2.307019
0.330300,-2.276833
0.330400,-2.265797
0.330500,-2.199907
0.330600,-2.093119
0.330700,-1.994770
0.330800,-1.963935
0.330900,-1.990875
0.331000,-1.993148
0.331100,-1.963286
0.331200,-1.816899
0.331300,-1.763018
0.331400,-1.718875
0.331500,-1.560479
0.331600,-1.550741
0.331700,-1.542302
0.331800,-1.459534
0.331900,-1.387801
0.332000,-1.228106
0.332100,-1.197596
0.332200,-1.169032
0.332300,-1.147285
0.332400,-1.179744
0.332500,-1.151505
0.332600,-1.188183
0.332700,-1.111581
0.332800,-1.072631
0.332900,-1.058025
0.333000,-1.054455
0.333100,-1.111257
0.333200,-1.140794
0.333300,-1.179744
0.333400,-1.083992
0.333500,-0.972336
0.333600,-0.629902
0.333700,-0.696766
0.333800,-0.855486
0.333900,-1.254073
0.334000,-1.089185
0.334100,-0.865224
0.334200,-0.727276
0.334300,-0.579591
0.334400,-0.754866
0.334500,-0.867496
0.334600,-1.031734
0.334700,-0.868469
0.334800,-0.790245
0.334900,-0.633147
0.335000,-0.579267
0.335100,-0.601338
0.335200,-0.644508
0.335300,-0.704880
0.335400,-0.689625
0.335500,-0.656517
0.335600,-0.637367
0.335700,-0.624384
0.335800,-0.579267
0.335900,-0.631525
0.336000,-0.742856
0.336100,-0.716890
0.336200,-0.737663
0.336300,-0.729873
0.336400,-0.702283
0.336500,-0.653596
0.336600,-0.662684
0.336700,-0.829195
0.336800,-1.059973
0.336900,-0.978178
0.337000,-0.805176
0.337100,-0.641911
0.337200,-0.686703
0.337300,-0.860355
0.337400,-1.096326
0.337500,-1.090808
0.337600,-0.986293
0.337700,-0.830818
0.337800,-0.827897
0.337900,-0.983371
0.338000,-1.084966
0.338100,-1.078474
0.338200,-1.099247
0.338300,-1.095677
0.338400,-1.154102
0.338500,-1.204087
0.338600,-1.226808
0.338700,-1.233949
0.338800,-1.187534
0.338900,-1.257643
0.339000,-1.303409
0.339100,-1.305032
0.339200,-1.271600
0.339300,-1.260240
0.339400,-1.219667
0.339500,-1.325156
0.339600,-1.432593
0.339700,-1.436164
0.339800,-1.414092
0.339900,-1.286531
0.340000,-1.331648
0.340100,-1.383581
0.340200,-1.385204
0.340300,-1.379037
0.340400,-1.393643
0.340500,-1.410522
0.340600,-1.420259
0.340700,-1.432269
0.340800,-1.424803
0.340900,-1.451744
0.341000,-1.446550
0.341100,-1.445901
0.341200,-1.426751
0.341300,-1.455963
0.341400,-1.506598
0.341500,-1.488097
0.341600,-1.591314
0.341700,-1.566646
0.341800,-1.699400
0.341900,-1.921415
0.342000,-2.081434
0.342100,-1.923687
0.342200,-1.759448
0.342300,-1.623123
0.342400,-1.762694
0.342500,-2.060336
0.342600,-2.259955
0.342700,-2.246971
0.342800,-2.087277
0.342900,-1.996069
0.343000,-2.038914
0.343100,-2.193415
0.343200,-2.349864
0.343300,-2.352786
0.343400,-2.352786
0.343500,-2.307669
0.343600,-2.298256
0.343700,-2.366418
0.343800,-2.369015
0.343900,-2.379726
0.344000,-2.384270
0.344100,-2.389464
0.344200,-2.441397
0.344300,-2.483268
0.344400,-2.476776
0.344500,-2.467364
0.344600,-2.444318
0.344700,-2.480347
0.344800,-2.530008
0.344900,-2.513130
0.345000,-2.312862
0.345100,-2.162580
0.345200,-2.210943
0.345300,-2.387191
0.345400,-2.532280
0.345500,-2.487488
0.345600,-2.351812
0.345700,-2.154790
0.345800,-2.129797
0.345900,-2.284948
0.346000,-2.482619
0.346100,-2.613426
0.346200,-2.545264
0.346300,-2.437177
0.346400,-2.406017
0.346500,-2.399850
0.346600,-2.409912
0.346700,-2.441721
0.346800,-2.441397
0.346900,-2.444967
0.347000,-2.402771
0.347100,-2.387516
0.347200,-2.328117
0.347300,-2.184327
0.347400,-2.081759
0.347500,-2.044432
0.347600,-2.027553
0.347700,-2.005806
0.347800,-1.941863
0.347900,-1.760097
0.348000,-1.609166
0.348100,-1.444603
0.348200,-1.484202
0.348300,-1.435839
0.348400,-1.427400
0.348500,-1.348202
0.348600,-1.262512
0.348700,-1.156374
0.348800,-1.125538
0.348900,-1.099572
0.349000,-1.161567
0.349100,-1.127161
0.349200,-1.194350
0.349300,-1.180717
0.349400,-1.175199
0.349500,-1.095352
0.349600,-1.123915
0.349700,-1.145987
0.349800,-1.134302
0.349900,-1.202140
0.350000,-1.250827
0.350100,-1.156049
0.350200,-0.946044
0.350300,-0.708126
0.350400,-0.811343
0.350500,-1.117424
0.350600,-1.327429
0.350700,-1.183963
0.350800,-0.941176
0.350900,-0.795763
0.351000,-0.743181
0.351100,-0.837309
0.351200,-0.981099
0.351300,-1.044068
0.351400,-0.901252
0.351500,-0.796088
0.351600,-0.731820
0.351700,-0.778885
0.351800,-0.742856
0.351900,-0.717539
0.352000,-0.719162
0.352100,-0.745777
0.352200,-0.701310
0.352300,-0.731496
0.352400,-0.726302
0.352500,-0.752918
0.352600,-0.655219
0.352700,-0.870092
0.352800,-0.815563
0.352900,-0.950913
0.353000,-0.856460
0.353100,-0.786026
0.353200,-0.783753
0.353300,-0.784727
0.353400,-1.098923
0.353500,-1.170331
0.353600,-1.109958
0.353700,-0.899305
0.353800,-0.808097
0.353900,-0.941500
0.354000,-1.079123
0.354100,-1.257319
0.354200,-1.250178
0.354300,-1.128784
0.354400,-1.004145
0.354500,-0.982398
0.354600,-1.110608
0.354700,-1.191429
0.354800,-1.151830
0.354900,-1.158970
0.355000,-1.097300
0.355100,-1.166111
0.355200,-1.179744
0.355300,-1.203438
0.355400,-1.161892
0.355500,-1.124240
0.355600,-1.159295
0.355700,-1.169682
0.355800,-1.150531
0.355900,-1.092431
0.356000,-1.080746
0.356100,-1.081071
0.356200,-1.187209
0.356300,-1.220641
0.356400,-1.239142
0.356500,-1.191429
0.356600,-1.087562
0.356700,-1.127810
0.356800,-1.117424
0.356900,-1.083018
0.357000,-1.063219
0.357100,-1.075553
0.357200,-1.066464
0.357300,-1.059973
0.357400,-1.046340
0.357500,-1.085939
0.357600,-1.096326
0.357700,-1.143390
0.357800,-1.164813
0.357900,-1.219992
0.358000,-1.257643
0.358100,-1.317367
0.358200,-1.366054
0.358300,-1.418312
0.358400,-1.516336
0.358500,-1.672460
0.358600,-1.997043
0.358700,-2.053845
0.358800,-1.936995
0.358900,-1.725042
0.359000,-1.679276
0.359100,-1.868508
0.359200,-2.158360
0.359300,-2.317731
0.359400,-2.307019
0.359500,-2.155764
0.359600,-2.092794
0.359700,-2.099935
0.359800,-2.254761
0.359900,-2.387841
0.360000,-2.425817
0.360100,-2.424194
0.360200,-2.368690
0.360300,-2.331039
0.360400,-2.350838
0.360500,-2.438151
0.360600,-2.461846
0.360700,-2.434905
0.360800,-2.387841
0.360900,-2.493006
0.361000,-2.565388
0.361100,-2.529684
0.361200,-2.479049
0.361300,-2.555650
0.361400,-2.631927
0.361500,-2.674123
0.361600,-2.613102
0.361700,-2.520595
0.361800,-2.459574
0.361900,-2.590705
0.362000,-2.814668
0.362100,-2.968521
0.362200,-2.884129
0.362300,-2.756892
0.362400,-2.630954
0.362500,-2.650429
0.362600,-2.789675
0.362700,-2.936712
0.362800,-3.003901
0.362900,-2.957485
0.363000,-2.863031
0.363100,-2.798114
0.363200,-2.816291
0.363300,-2.872444
0.363400,-2.886401
0.363500,-2.869847
0.363600,-2.852320
0.363700,-2.802659
0.363800,-2.768577
0.363900,-2.713398
0.364000,-2.595574
0.364100,-2.474180
0.364200,-2.430036
0.364300,-2.397903
0.364400,-2.382647
0.364500,-2.247621
0.364600,-2.087277
0.364700,-1.848059
0.364800,-1.757825
0.364900,-1.732832
0.365000,-1.670512
0.365100,-1.582875
0.365200,-1.425128
0.365300,-1.309577
0.365400,-1.184937
0.365500,-1.133328
0.365600,-1.118073
0.365700,-1.104116
0.365800,-1.047314
0.365900,-1.059648
0.366000,-1.026541
0.366100,-0.972660
0.366200,-0.972336
0.366300,-0.883076
0.366400,-0.952536
0.366500,-0.881128
0.366600,-0.917806
0.366700,-0.844126
0.366800,-0.750322
0.366900,-0.495849
0.367000,-0.346542
0.367100,-0.572775
0.367200,-0.763954
0.367300,-0.938904
0.367400,-0.674045
0.367500,-0.583486
0.367600,-0.346217
0.367700,-0.464040
0.367800,-0.637692
0.367900,-0.719486
0.368000,-0.762006
0.368100,-0.630551
0.368200,-0.548756
0.368300,-0.491954
0.368400,-0.533501
0.368500,-0.562389
0.368600,-0.672422
0.368700,-0.719162
0.368800,-0.738961
0.368900,-0.746102
0.369000,-0.786350
0.369100,-0.858407
0.369200,-0.852565
0.369300,-0.883076
0.369400,-1.136574
0.369500,-1.050560
0.369600,-1.182665
0.369700,-1.057376
0.369800,-1.087562
0.369900,-1.022970
0.370000,-1.181691
0.370100,-1.492966
0.370200,-1.462130
0.370300,-1.383257
0.370400,-1.138846
0.370500,-1.171304
0.370600,-1.271276
0.370700,-1.448822
0.370800,-1.533214
0.370900,-1.479333
0.371000,-1.331324
0.371100,-1.246608
0.371200,-1.262512
0.371300,-1.358264
0.371400,-1.402407
0.371500,-1.372221
0.371600,-1.333596
0.371700,-1.321586
0.371800,-1.380335
0.371900,-1.386178
0.372000,-1.419610
0.372100,-1.381958
0.372200,-1.371896
0.372300,-1.413767
0.372400,-1.429997
0.372500,-1.423830
0.372600,-1.410197
0.372700,-1.414092
0.372800,-1.430646
0.372900,-1.563075
0.373000,-1.573787
0.373100,-1.584173
0.373200,-1.560479
0.373300,-1.466674
0.373400,-1.503352
0.373500,-1.516660
0.373600,-1.522503
0.373700,-1.514063
0.373800,-1.513739
0.373900,-1.530293
0.374000,-1.528020
0.374100,-1.506598
0.374200,-1.521204
0.374300,-1.529319
0.374400,-1.527371
0.374500,-1.518608
0.374600,-1.523476
0.374700,-1.496211
0.374800,-1.469271
0.374900,-1.469920
0.375000,-1.461806
0.375100,-1.526398
0.375200,-1.722121
0.375300,-1.959391
0.375400,-1.991849
0.375500,-1.731858
0.375600,-1.596832
0.375700,-1.547171
0.375800,-1.803267
0.375900,-2.004833
0.376000,-2.109673
0.376100,-2.005157
0.376200,-1.904536
0.376300,-1.823715
0.376400,-1.979190
0.376500,-2.108374
0.376600,-2.243726
0.376700,-2.260604
0.376800,-2.258981
0.376900,-2.248270
0.377000,-2.288518
0.377100,-2.346294
0.377200,-2.388165
0.377300,-2.421273
0.377400,-2.384595
0.377500,-2.413158
0.377600,-2.469311
0.377700,-2.536500
0.377800,-2.466390
0.377900,-2.443669
0.378000,-2.499497
0.378100,-2.548834
0.378200,-2.551106
0.378300,-2.456977
0.378400,-2.310914
0.378500,-2.283000
0.378600,-2.410886
0.378700,-2.642314
0.378800,-2.696195
0.378900,-2.611154
0.379000,-2.450161
0.379100,-2.359277
0.379200,-2.426141
0.379300,-2.616023
0.379400,-2.754945
0.379500,-2.768902
0.379600,-2.659517
0.379700,-2.558572
0.379800,-2.550132
0.379900,-2.572204
0.380000,-2.632901
0.380100,-2.638744
0.380200,-2.627059
0.380300,-2.615374
0.380400,-2.596223
0.380500,-2.547860
0.380600,-2.513130
0.380700,-2.396604
0.380800,-2.360900
0.380900,-2.337855
0.381000,-2.284299
0.381100,-2.270666
0.381200,-2.079811
0.381300,-1.997367
0.381400,-1.799372
0.381500,-1.782493
0.381600,-1.763667
0.381700,-1.735429
0.381800,-1.669538
0.381900,-1.562751
0.382000,-1.417987
0.382100,-1.404030
0.382200,-1.383906
0.382300,-1.386178
0.382400,-1.374493
0.382500,-1.360211
0.382600,-1.413767
0.382700,-1.373195
0.382800,-1.349825
0.382900,-1.304383
0.383000,-1.361834
0.383100,-1.316068
0.383200,-1.423830
0.383300,-1.321911
0.383400,-1.344631
0.383500,-1.170655
0.383600,-0.896059
0.383700,-0.901252
0.383800,-1.081395
0.383900,-1.499782
0.384000,-1.350798
0.384100,-1.279715
0.384200,-1.038226
0.384300,-0.936956
0.384400,-1.014207
0.384500,-1.141118
0.384600,-1.276794
0.384700,-1.150856
0.384800,-1.100546
0.384900,-0.915209
0.385000,-0.884374
0.385100,-0.900603
0.385200,-0.929166
0.385300,-0.942799
0.385400,-0.924622
0.385500,-0.917481
0.385600,-0.861653
0.385700,-0.857434
0.385800,-0.871715
0.385900,-0.855486
0.386000,-0.857758
0.386100,-0.946694
0.386200,-0.927868
0.386300,-0.912613
0.386400,-0.860679
0.386500,-0.752918
0.386600,-0.762331
0.386700,-0.857758
0.386800,-1.073605
0.386900,-0.978503
0.387000,-0.801605
0.387100,-0.617568
0.387200,-0.672422
0.387300,-0.721434
0.387400,-0.934684
0.387500,-0.939553
0.387600,-0.869119
0.387700,-0.683133
0.387800,-0.581214
0.387900,-0.662360
0.388000,-0.744804
0.388100,-0.749672
0.388200,-0.718512
0.388300,-0.687028
0.388400,-0.651649
0.388500,-0.676317
0.388600,-0.714293
0.388700,-0.731820
0.388800,-0.706178
0.388900,-0.722407
0.389000,-0.762656
0.389100,-0.762006
0.389200,-0.737014
0.389300,-0.748699
0.389400,-0.745777
0.389500,-0.823352
0.389600,-0.954484
0.389700,-0.973309
0.389800,-0.985319
0.389900,-0.868469
0.390000,-0.907095
0.390100,-0.938904
0.390200,-0.939877
0.390300,-0.941825
0.390400,-0.923648
0.390500,-0.902226
0.390600,-0.903524
0.390700,-0.905147
0.390800,-0.918780
0.390900,-0.912937
0.391000,-0.916508
0.391100,-0.957729
0.391200,-0.967791
0.391300,-1.013558
0.391400,-1.071333
0.391500,-1.116775
0.391600,-1.185262
0.391700,-1.252775
0.391800,-1.367352
0.391900,-1.608517
0.392000,-1.832479
0.392100,-1.769835
0.392200,-1.602350
0.392300,-1.464727
0.392400,-1.554636
0.392500,-1.800994
0.392600,-2.090522
0.392700,-2.159659
0.392800,-2.059362
0.392900,-1.995744
0.393000,-2.013596
0.393100,-2.215811
0.393200,-2.370638
0.393300,-2.524490
0.393400,-2.496576
0.393500,-2.487488
0.393600,-2.509884
0.393700,-2.604987
0.393800,-2.646534
0.393900,-2.694897
0.394000,-2.734496
0.394100,-2.786105
0.394200,-2.846802
0.394300,-2.977934
0.394400,-3.079204
0.394500,-3.049667
0.394600,-3.113935
0.394700,-3.197028
0.394800,-3.303817
0.394900,-3.310633
0.395000,-3.255778
0.395100,-3.198651
0.395200,-3.228838
0.395300,-3.428782
0.395400,-3.627103
0.395500,-3.652745
0.395600,-3.587828
0.395700,-3.419369
0.395800,-3.371330
0.395900,-3.499217
0.396000,-3.695266
0.396100,-3.872490
0.396200,-3.852690
0.396300,-3.809520
0.396400,-3.756613
0.396500,-3.756613
0.396600,-3.815687
0.396700,-3.884175
0.396800,-3.902676
0.396900,-3.886772
0.397000,-3.852365
0.397100,-3.810819
0.397200,-3.751419
0.397300,-3.641385
0.397400,-3.528429
0.397500,-3.503436
0.397600,-3.460267
0.397700,-3.419693
0.397800,-3.352829
0.397900,-3.170412
0.398000,-3.100627
0.398100,-2.845504
0.398200,-2.864329
0.398300,-2.813694
0.398400,-2.771823
0.398500,-2.684510
0.398600,-2.625760
0.398700,-2.474180
0.398800,-2.487163
0.398900,-2.419974
0.399000,-2.474180
0.399100,-2.426466
0.399200,-2.394981
0.399300,-2.387841
0.399400,-2.265473
0.399500,-2.228146
0.399600,-2.070723
0.399700,-2.068451
0.399800,-1.909730
0.399900,-1.896746
0.400000,-1.736403
0.400100,-1.660450
0.400200,-1.407276
0.400300,-1.019075
0.400400,-1.039200
0.400500,-1.157347
0.400600,-1.425128
0.400700,-1.230703
0.400800,-0.935658
0.400900,-0.758111
0.401000,-0.662035
0.401100,-0.850293
0.401200,-0.896708
0.401300,-1.019725
0.401400,-0.844775
0.401500,-0.660412
0.401600,-0.521816
0.401700,-0.504613
0.401800,-0.558818
0.401900,-0.516947
0.402000,-0.541940
0.402100,-0.494226
0.402200,-0.447811
0.402300,-0.404966
0.402400,-0.356604
0.402500,-0.297205
0.402600,-0.335181
0.402700,-0.416327
0.402800,-0.362122
0.402900,-0.392632
0.403000,-0.352060
0.403100,-0.272212
0.403200,-0.249816
0.403300,-0.235210
0.403400,-0.449759
0.403500,-0.585434
0.403600,-0.524088
0.403700,-0.293635
0.403800,-0.196585
0.403900,-0.259878
0.404000,-0.499095
0.404100,-0.717863
0.404200,-0.724030
0.404300,-0.601014
0.404400,-0.456900
0.404500,-0.514350
0.404600,-0.695467
0.404700,-0.806799
0.404800,-0.764603
0.404900,-0.744804
0.405000,-0.759410
0.405100,-0.871715
0.405200,-0.910990
0.405300,-0.947343
0.405400,-0.919104
0.405500,-0.913262
0.405600,-0.991486
0.405700,-1.099572
0.405800,-1.146312
0.405900,-1.131381
0.406000,-1.103142
0.406100,-1.155725
0.406200,-1.288479
0.406300,-1.392345
0.406400,-1.386827
0.406500,-1.369300
0.406600,-1.263486
0.406700,-1.332622
0.406800,-1.389099
0.406900,-1.387152
0.407000,-1.420584
0.407100,-1.512441
0.407200,-1.551066
0.407300,-1.653634
0.407400,-1.708164
0.407500,-1.850331
0.407600,-1.970102
0.407700,-2.124928
0.407800,-2.269043
0.407900,-2.430361
0.408000,-2.574152
0.408100,-2.770200
0.408200,-2.906525
0.408300,-3.060378
0.408400,-3.249936
0.408500,-3.407035
0.408600,-3.803028
0.408700,-4.005245
0.408800,-3.932538
0.408900,-3.770895
0.409000,-3.714741
0.409100,-3.948767
0.409200,-4.300943
0.409300,-4.540488
0.409400,-4.467132
0.409500,-4.311979
0.409600,-4.227911
0.409700,-4.285039
0.409800,-4.488554
0.409900,-4.589501
0.410000,-4.636891
0.410100,-4.524259
0.410200,-4.438893
0.410300,-4.382415
0.410400,-4.349956
0.410500,-4.325936
0.410600,-4.284389
0.410700,-4.219797
0.410800,-4.188312
0.410900,-4.137352
0.411000,-4.189286
0.411100,-4.162020
0.411200,-4.095805
0.411300,-4.032186
0.411400,-4.004272
0.411500,-3.984796
0.411600,-3.930266
0.411700,-3.732918
0.411800,-3.620612
0.411900,-3.632621
0.412000,-3.807248
0.412100,-3.935459
0.412200,-3.922476
0.412300,-3.674493
0.412400,-3.407359
0.412500,-3.363216
0.412600,-3.526482
0.412700,-3.673519
0.412800,-3.685204
0.412900,-3.515771
0.413000,-3.339521
0.413100,-3.282394
0.413200,-3.309984
0.413300,-3.333678
0.413400,-3.285315
0.413500,-3.234680
0.413600,-3.209687
0.413700,-3.147367
0.413800,-3.110040
0.413900,-2.978583
0.414000,-2.793895
0.414100,-2.681589
0.414200,-2.621541
0.414300,-2.601092
0.414400,-2.548834
0.414500,-2.397254
0.414600,-2.222952
0.414700,-2.146351
0.414800,-1.864937
0.414900,-1.872727
0.415000,-1.810732
0.415100,-1.739648
0.415200,-1.584173
0.415300,-1.473815
0.415400,-1.293347
0.415500,-1.242388
0.415600,-1.207333
0.415700,-1.200192
0.415800,-1.185911
0.415900,-1.061271
0.416000,-1.085939
0.416100,-0.951887
0.416200,-0.962598
0.416300,-0.883076
0.416400,-0.864574
0.416500,-0.817510
0.416600,-0.703257
0.416700,-0.687028
0.416800,-0.502666
0.416900,-0.274809
0.417000,0.098460
0.417100,0.051395
0.417200,-0.164776
0.417300,-0.259878
0.417400,-0.143678
0.417500,0.248416
0.417600,0.331185
0.417700,0.473027
0.417800,0.310736
0.417900,0.248092
0.418000,0.304245
0.418100,0.479194
0.418200,0.707699
0.418300,0.824224
0.418400,0.777484
0.418500,0.744377
0.418600,0.697637
0.418700,0.712893
0.418800,0.717112
0.418900,0.721656
0.419000,0.646678
0.419100,0.609027
0.419200,0.471404
0.419300,0.370784
0.419400,0.158832
0.419500,0.209142
0.419600,0.028026
0.419700,0.000761
0.419800,-0.030075
0.419900,-0.033645
0.420000,-0.105053
0.420100,-0.439048
0.420200,-0.553949
0.420300,-0.578618
0.420400,-0.406589
0.420500,-0.383219
0.420600,-0.522140
0.420700,-0.803228
0.420800,-1.023944
0.420900,-1.026541
0.421000,-0.889243
0.421100,-0.853214
0.421200,-0.959028
0.421300,-1.156374
0.421400,-1.266732
0.421500,-1.241739
0.421600,-1.347553
0.421700,-1.359562
0.421800,-1.490044
0.421900,-1.565672
0.422000,-1.637405
0.422100,-1.679276
0.422200,-1.693233
0.422300,-1.766264
0.422400,-1.818522
0.422500,-1.831505
0.422600,-1.867209
0.422700,-1.880842
0.422800,-1.958742
0.422900,-2.100584
0.423000,-2.169396
0.423100,-2.209644
0.423200,-2.132069
0.423300,-2.167449
0.423400,-2.290141
0.423500,-2.320976
0.423600,-2.375831
0.423700,-2.407965
0.423800,-2.477101
0.423900,-2.491058
0.424000,-2.524490
0.424100,-2.556624
0.424200,-2.584214
0.424300,-2.595250
0.424400,-2.588433
0.424500,-2.587459
0.424600,-2.602715
0.424700,-2.619918
0.424800,-2.644262
0.424900,-2.655297
0.425000,-2.713723
0.425100,-2.673799
0.425200,-2.810124
0.425300,-2.975013
0.425400,-3.049018
0.425500,-2.765981
0.425600,-2.536500
0.425700,-2.406666
0.425800,-2.611154
0.425900,-2.822783
0.426000,-2.923728
0.426100,-2.872769
0.426200,-2.694897
0.426300,-2.638744
0.426400,-2.694572
0.426500,-2.900683
0.426600,-3.060054
0.426700,-3.102574
0.426800,-3.116207
0.426900,-3.079204
0.427000,-3.108417
0.427100,-3.147042
0.427200,-3.209687
0.427300,-3.244418
0.427400,-3.265191
0.427500,-3.284017
0.427600,-3.322318
0.427700,-3.330433
0.427800,-3.371330
0.427900,-3.368734
0.428000,-3.339846
0.428100,-3.418720
0.428200,-3.432677
0.428300,-3.431054
0.428400,-3.247988
0.428500,-3.155806
0.428600,-3.206766
0.428700,-3.392753
0.428800,-3.493699
0.428900,-3.450529
0.429000,-3.187615
0.429100,-3.012340
0.429200,-3.038631
0.429300,-3.203195
0.429400,-3.307712
0.429500,-3.239873
0.429600,-3.097381
0.429700,-2.954564
0.429800,-2.906201
0.429900,-2.889322
0.430000,-2.832196
0.430100,-2.797790
0.430200,-2.753322
0.430300,-2.736119
0.430400,-2.678668
0.430500,-2.607908
0.430600,-2.441397
0.430700,-2.293062
0.430800,-2.204127
0.430900,-2.176862
0.431000,-2.133367
0.431100,-2.134666
0.431200,-1.971400
0.431300,-1.877596
0.431400,-1.835076
0.431500,-1.612087
0.431600,-1.616956
0.431700,-1.570216
0.431800,-1.522503
0.431900,-1.404355
0.432000,-1.334245
0.432100,-1.280040
0.432200,-1.282312
0.432300,-1.305682
0.432400,-1.312173
0.432500,-1.333271
0.432600,-1.370273
0.432700,-1.424803
0.432800,-1.398837
0.432900,-1.429347
0.433000,-1.471219
0.433100,-1.487772
0.433200,-1.576708
0.433300,-1.612737
0.433400,-1.649090
0.433500,-1.455639
0.433600,-1.322884
0.433700,-1.105090
0.433800,-1.369949
0.433900,-1.638054
0.434000,-1.731858
0.434100,-1.580278
0.434200,-1.503352
0.434300,-1.297892
0.434400,-1.423180
0.434500,-1.580278
0.434600,-1.703620
0.434700,-1.689987
0.434800,-1.530293
0.434900,-1.486799
0.435000,-1.429023
0.435100,-1.481930
0.435200,-1.508870
0.435300,-1.551066
0.435400,-1.588068
0.435500,-1.576383
0.435600,-1.588393
0.435700,-1.621825
0.435800,-1.639028
0.435900,-1.610140
0.436000,-1.831830
0.436100,-1.783792
0.436200,-1.919792
0.436300,-1.915897
0.436400,-1.967181
0.436500,-1.860393
0.436600,-1.918169
0.436700,-1.994121
0.436800,-2.327793
0.436900,-2.362199
0.437000,-2.230742
0.437100,-2.088575
0.437200,-2.030799
0.437300,-2.226198
0.437400,-2.462495
0.437500,-2.544290
0.437600,-2.437177
0.437700,-2.221329
0.437800,-2.204127
0.437900,-2.335583
0.438000,-2.447239
0.438100,-2.473855
0.438200,-2.397254
0.438300,-2.439125
0.438400,-2.459898
0.438500,-2.569283
0.438600,-2.629006
0.438700,-2.678668
0.438800,-2.658219
0.438900,-2.688730
0.439000,-2.754296
0.439100,-2.787079
0.439200,-2.795518
0.439300,-2.778315
0.439400,-2.742286
0.439500,-2.774420
0.439600,-2.927623
0.439700,-2.947098
0.439800,-2.950993
0.439900,-2.806878
0.440000,-2.838687
0.440100,-2.907824
0.440200,-2.880559
0.440300,-2.890296
0.440400,-2.872120
0.440500,-2.848100
0.440600,-2.838038
0.440700,-2.832845
0.440800,-2.835442
0.440900,-2.847776
0.441000,-2.849074
0.441100,-2.857838
0.441200,-2.857513
0.441300,-2.904578
0.441400,-2.886077
0.441500,-2.903929
0.441600,-2.929571
0.441700,-2.938335
0.441800,-2.965275
0.441900,-3.124971
0.442000,-3.357698
0.442100,-3.274929
0.442200,-3.105171
0.442300,-2.860759
0.442400,-2.887050
0.442500,-3.129515
0.442600,-3.337898
0.442700,-3.412228
0.442800,-3.243769
0.442900,-3.082125
0.443000,-3.022077
0.443100,-3.156131
0.443200,-3.290184
0.443300,-3.367111
0.443400,-3.373278
0.443500,-3.304466
0.443600,-3.275902
0.443700,-3.306738
0.443800,-3.349583
0.443900,-3.417097
0.444000,-3.399894
0.444100,-3.419044
0.444200,-3.394051
0.444300,-3.445985
0.444400,-3.480066
0.444500,-3.496620
0.444600,-3.495646
0.444700,-3.519990
0.444800,-3.556344
0.444900,-3.599513
0.445000,-3.527780
0.445100,-3.346662
0.445200,-3.302518
0.445300,-3.444686
0.445400,-3.652096
0.445500,-3.704030
0.445600,-3.592697
0.445700,-3.376524
0.445800,-3.288237
0.445900,-3.413202
0.446000,-3.651447
0.446100,-3.789071
0.446200,-3.769272
0.446300,-3.643982
0.446400,-3.573547
0.446500,-3.585232
0.446600,-3.665080
0.446700,-3.703056
0.446800,-3.682607
0.446900,-3.654368
0.447000,-3.615094
0.447100,-3.597891
0.447200,-3.511876
0.447300,-3.393727
0.447400,-3.285315
0.447500,-3.240847
0.447600,-3.224293
0.447700,-3.200274
0.447800,-3.169114
0.447900,-2.999032
0.448000,-2.898411
0.448100,-2.833494
0.448200,-2.678018
0.448300,-2.647507
0.448400,-2.632252
0.448500,-2.534552
0.448600,-2.426141
0.448700,-2.319354
0.448800,-2.261253
0.448900,-2.254761
0.449000,-2.256709
0.449100,-2.270991
0.449200,-2.213539
0.449300,-2.276184
0.449400,-2.181406
0.449500,-2.182704
0.449600,-2.179458
0.449700,-2.186274
0.449800,-2.226847
0.449900,-2.224251
0.450000,-2.283649
0.450100,-2.204127
0.450200,-2.040861
0.450300,-1.852928
0.450400,-1.745491
0.450500,-2.178809
0.450600,-2.316757
0.450700,-2.414456
0.450800,-2.113568
0.450900,-2.036317
0.451000,-1.944785
0.451100,-1.989902
0.451200,-2.245673
0.451300,-2.289816
0.451400,-2.314160
0.451500,-2.095391
0.451600,-2.003210
0.451700,-1.945434
0.451800,-2.002885
0.451900,-2.077864
0.452000,-2.106427
0.452100,-2.132394
0.452200,-2.106752
0.452300,-2.089224
0.452400,-2.072670
0.452500,-2.085329
0.452600,-2.128823
0.452700,-2.208022
0.452800,-2.210618
0.452900,-2.273587
0.453000,-2.350514
0.453100,-2.294361
0.453200,-2.330714
0.453300,-2.303124
0.453400,-2.488137
0.453500,-2.712100
0.453600,-2.658868
0.453700,-2.527412
0.453800,-2.380700
0.453900,-2.432958
0.454000,-2.649130
0.454100,-2.890296
0.454200,-2.902630
0.454300,-2.785456
0.454400,-2.630954
0.454500,-2.624462
0.454600,-2.775069
0.454700,-2.858162
0.454800,-2.805580
0.454900,-2.728004
0.455000,-2.698792
0.455100,-2.740014
0.455200,-2.745856
0.455300,-2.765331
0.455400,-2.710801
0.455500,-2.656596
0.455600,-2.653025
0.455700,-2.701713
0.455800,-2.677369
0.455900,-2.646534
0.456000,-2.588433
0.456100,-2.554352
0.456200,-2.660166
0.456300,-2.740663
0.456400,-2.744233
0.456500,-2.712424
0.456600,-2.586810
0.456700,-2.648157
0.456800,-2.694248
0.456900,-2.677694
0.457000,-2.707555
0.457100,-2.712749
0.457200,-2.747155
0.457300,-2.762410
0.457400,-2.751374
0.457500,-2.788701
0.457600,-2.811098
0.457700,-2.837064
0.457800,-2.864979
0.457900,-2.882831
0.458000,-2.973065
0.458100,-2.978583
0.458200,-3.045123
0.458300,-3.085371
0.458400,-3.155806
0.458500,-3.214880
0.458600,-3.494673
0.458700,-3.712794
0.458800,-3.627428
0.458900,-3.455073
0.459000,-3.257401
0.459100,-3.423264
0.459200,-3.676116
0.459300,-3.956882
0.459400,-3.936433
0.459500,-3.837110
0.459600,-3.686178
0.459700,-3.751095
0.459800,-3.906896
0.459900,-4.053933
0.460000,-4.154555
0.460100,-4.073733
0.460200,-4.036730
0.460300,-4.035107
0.460400,-4.073733
0.460500,-4.083471
0.460600,-4.076005
0.460700,-4.040950
0.460800,-4.045169
0.460900,-4.033160
0.461000,-4.046792
0.461100,-4.054907
0.461200,-4.060100
0.461300,-4.053609
0.461400,-4.065294
0.461500,-4.091910
0.461600,-4.125991
0.461700,-4.004596
0.461800,-3.917283
0.461900,-3.935784
0.462000,-4.085418
0.462100,-4.269134
0.462200,-4.361966
0.462300,-4.194154
0.462400,-4.026343
0.462500,-4.025370
0.462600,-4.207138
0.462700,-4.435322
0.462800,-4.533023
0.462900,-4.467132
0.463000,-4.388257
0.463100,-4.348333
0.463200,-4.384037
0.463300,-4.481089
0.463400,-4.535944
0.463500,-4.525882
0.463600,-4.481738
0.463700,-4.459991
0.463800,-4.477843
0.463900,-4.447007
0.464000,-4.354825
0.464100,-4.246413
0.464200,-4.206164
0.464300,-4.206813
0.464400,-4.211357
0.464500,-4.160722
0.464600,-3.984796
0.464700,-3.919555
0.464800,-3.751744
0.464900,-3.811143
0.465000,-3.805950
0.465100,-3.794265
0.465200,-3.693643
0.465300,-3.590750
0.465400,-3.483961
0.465500,-3.490778
0.465600,-3.449555
0.465700,-3.481040
0.465800,-3.451827
0.465900,-3.491102
0.466000,-3.446634
0.466100,-3.383015
0.466200,-3.338872
0.466300,-3.265516
0.466400,-3.335951
0.466500,-3.238900
0.466600,-3.361593
0.466700,-3.273955
0.466800,-3.273306
0.466900,-2.939308
0.467000,-2.790324
0.467100,-2.639393
0.467200,-3.043825
0.467300,-3.181124
0.467400,-3.146718
0.467500,-2.863356
0.467600,-2.648157
0.467700,-2.698792
0.467800,-2.724434
0.467900,-3.010717
0.468000,-3.017209
0.468100,-2.936387
0.468200,-2.740014
0.468300,-2.684185
0.468400,-2.712749
0.468500,-2.776692
0.468600,-2.785780
0.468700,-2.814344
0.468800,-2.777341
0.468900,-2.716968
0.469000,-2.739365
0.469100,-2.759164
0.469200,-2.735470
0.469300,-2.762735
0.469400,-2.844530
0.469500,-2.965924
0.469600,-2.967872
0.469700,-3.069142
0.469800,-2.938984
0.469900,-3.030192
0.470000,-2.988645
0.470100,-3.260647
0.470200,-3.434624
0.470300,-3.326862
0.470400,-3.210985
0.470500,-3.008445
0.470600,-3.145419
0.470700,-3.359321
0.470800,-3.578740
0.470900,-3.499541
0.471000,-3.331082
0.471100,-3.127892
0.471200,-3.177878
0.471300,-3.328161
0.471400,-3.403464
0.471500,-3.347311
0.471600,-3.305115
0.471700,-3.211635
0.471800,-3.301545
0.471900,-3.327511
0.472000,-3.371655
0.472100,-3.360294
0.472200,-3.316475
0.472300,-3.346986
0.472400,-3.393077
0.472500,-3.406061
0.472600,-3.367435
0.472700,-3.307387
0.472800,-3.341468
0.472900,-3.501489
0.473000,-3.630674
0.473100,-3.650798
0.473200,-3.654693
0.473300,-3.687476
0.473400,-3.663457
0.473500,-3.668326
0.473600,-3.631972
0.473700,-3.643332
0.473800,-3.619962
0.473900,-3.642359
0.474000,-3.630024
0.474100,-3.629051
0.474200,-3.592373
0.474300,-3.613146
0.474400,-3.557642
0.474500,-3.571924
0.474600,-3.526806
0.474700,-3.507981
0.474800,-3.501164
0.474900,-3.486233
0.475000,-3.541088
0.475100,-3.520639
0.475200,-3.673843
0.475300,-3.885473
0.475400,-4.065294
0.475500,-3.855287
0.475600,-3.677089
0.475700,-3.525508
0.475800,-3.769272
0.475900,-4.017255
0.476000,-4.200971
0.476100,-4.138975
0.476200,-3.911440
0.476300,-3.815038
0.476400,-3.833540
0.476500,-4.051986
0.476600,-4.142545
0.476700,-4.180522
0.476800,-4.118526
0.476900,-4.091261
0.477000,-4.105542
0.477100,-4.166889
0.477200,-4.224341
0.477300,-4.306137
0.477400,-4.271406
0.477500,-4.298671
0.477600,-4.353526
0.477700,-4.414549
0.477800,-4.458692
0.477900,-4.487581
0.478000,-4.508679
0.478100,-4.548278
0.478200,-4.554121
0.478300,-4.576193
0.478400,-4.408706
0.478500,-4.322366
0.478600,-4.390854
0.478700,-4.550875
0.478800,-4.744978
0.478900,-4.690447
0.479000,-4.479791
0.479100,-4.282442
0.479200,-4.264914
0.479300,-4.460315
0.479400,-4.653769
0.479500,-4.725178
0.479600,-4.627802
0.479700,-4.484984
0.479800,-4.455122
0.479900,-4.482712
0.480000,-4.547629
0.480100,-4.560937
0.480200,-4.547305
0.480300,-4.526206
0.480400,-4.471027
0.480500,-4.422988
0.480600,-4.352877
0.480700,-4.204541
0.480800,-4.144493
0.480900,-4.111385
0.481000,-4.082497
0.481100,-4.049714
0.481200,-3.950390
0.481300,-3.814714
0.481400,-3.743305
0.481500,-3.547904
0.481600,-3.569976
0.481700,-3.562511
0.481800,-3.532974
0.481900,-3.442739
0.482000,-3.353154
0.482100,-3.248962
0.482200,-3.238900
0.482300,-3.231759
0.482400,-3.283692
0.482500,-3.244093
0.482600,-3.301869
0.482700,-3.263568
0.482800,-3.200274
0.482900,-3.166517
0.483000,-3.162947
0.483100,-3.127567
0.483200,-3.210336
0.483300,-3.182747
0.483400,-3.179825
0.483500,-3.044149
0.483600,-2.790324
0.483700,-2.519622
0.483800,-2.658219
0.483900,-2.964626
0.484000,-3.147367
0.484100,-2.980206
0.484200,-2.681264
0.484300,-2.545913
0.484400,-2.498848
0.484500,-2.784806
0.484600,-2.844205
0.484700,-2.871146
0.484800,-2.765981
0.484900,-2.638419
0.485000,-2.591354
0.485100,-2.643612
0.485200,-2.716968
0.485300,-2.721837
0.485400,-2.751050
0.485500,-2.775069
0.485600,-2.746830
0.485700,-2.728329
0.485800,-2.764358
0.485900,-2.846802
0.486000,-2.886077
0.486100,-3.025323
0.486200,-2.998058
0.486300,-3.060054
0.486400,-3.032464
0.486500,-3.006497
0.486600,-3.003576
0.486700,-3.077257
0.486800,-3.400543
0.486900,-3.402490
0.487000,-3.367760
0.487100,-3.170412
0.487200,-3.079529
0.487300,-3.229487
0.487400,-3.435598
0.487500,-3.574196
0.487600,-3.507331
0.487700,-3.358996
0.487800,-3.248637
0.487900,-3.302518
0.488000,-3.440142
0.488100,-3.473574
0.488200,-3.431703
0.488300,-3.505708
0.488400,-3.453450
0.488500,-3.553098
0.488600,-3.550177
0.488700,-3.604058
0.488800,-3.612821
0.488900,-3.657290
0.489000,-3.714741
0.489100,-3.757262
0.489200,-3.767324
0.489300,-3.787773
0.489400,-3.775114
0.489500,-3.838408
0.489600,-3.985446
0.489700,-4.037704
0.489800,-4.039002
0.489900,-4.028616
0.490000,-3.952338
0.490100,-4.016606
0.490200,-3.996482
0.490300,-3.994859
0.490400,-4.016281
0.490500,-4.028940
0.490600,-4.014658
0.490700,-4.016606
0.490800,-4.033484
0.490900,-4.043222
0.491000,-4.043546
0.491100,-4.052635
0.491200,-4.084769
0.491300,-4.142221
0.491400,-4.125342
0.491500,-4.191233
0.491600,-4.218823
0.491700,-4.293478
0.491800,-4.322041
0.491900,-4.514521
0.492000,-4.784253
0.492100,-4.862154
0.492200,-4.612871
0.492300,-4.472325
0.492400,-4.452850
0.492500,-4.673244
0.492600,-4.957583
0.492700,-5.025422
0.492800,-4.921554
0.492900,-4.728100
0.493000,-4.703431
0.493100,-4.748873
0.493200,-4.984199
0.493300,-5.081251
0.493400,-5.054310
0.493500,-4.987120
0.493600,-4.958557
0.493700,-4.969593
0.493800,-5.028668
0.493900,-5.033537
0.494000,-5.015684
0.494100,-5.004648
0.494200,-5.002376
0.494300,-5.063399
0.494400,-5.036782
0.494500,-5.007569
0.494600,-4.991016
0.494700,-5.003674
0.494800,-5.092287
0.494900,-5.118579
0.495000,-5.069241
0.495100,-4.852092
0.495200,-4.800483
0.495300,-4.906623
0.495400,-5.109166
0.495500,-5.255230
0.495600,-5.150064
0.495700,-4.924475
0.495800,-4.813791
0.495900,-4.876436
0.496000,-5.067618
0.496100,-5.223096
0.496200,-5.250361
0.496300,-5.154608
0.496400,-5.048468
0.496500,-5.042625
0.496600,-5.065995
0.496700,-5.106244
0.496800,-5.103323
0.496900,-5.073785
0.497000,-5.045222
0.497100,-5.019904
0.497200,-4.965048
0.497300,-4.904026
0.497400,-4.769971
0.497500,-4.740434
0.497600,-4.734267
0.497700,-4.743031
0.497800,-4.750821
0.497900,-4.624232
0.498000,-4.537567
0.498100,-4.318796
0.498200,-4.309383
0.498300,-4.356123
0.498400,-4.352228
0.498500,-4.294452
0.498600,-4.200646
0.498700,-4.140598
0.498800,-4.091910
0.498900,-4.075356
0.499000,-4.099700
0.499100,-4.066267
0.499200,-4.047117
0.499300,-4.064320
0.499400,-4.061723
0.499500,-3.999727
0.499600,-4.020176
0.499700,-3.953636
0.499800,-4.054907
0.499900,-4.009790
0.500000,-4.106516
0.500100,-3.937731
0.500200,-3.904948
0.500300,-3.460916
0.500400,-3.498243
0.500500,-3.549203
0.500600,-4.028616
0.500700,-4.015308
0.500800,-3.822179
0.500900,-3.566406
0.501000,-3.472276
0.501100,-3.471302
0.501200,-3.716689
0.501300,-3.851067
0.501400,-3.717338
0.501500,-3.610549
0.501600,-3.447932
0.501700,-3.388533
0.501800,-3.462214
0.501900,-3.482338
0.502000,-3.495322
0.502100,-3.453775
0.502200,-3.428782
0.502300,-3.444686
0.502400,-3.448581
0.502500,-3.461240
0.502600,-3.465135
0.502700,-3.507656
0.502800,-3.588153
0.502900,-3.644955
0.503000,-3.703381
0.503100,-3.597241
0.503200,-3.549852
0.503300,-3.501813
0.503400,-3.714417
0.503500,-3.872490
0.503600,-3.876060
0.503700,-3.781930
0.503800,-3.559590
0.503900,-3.573871
0.504000,-3.741033
0.504100,-4.002973
0.504200,-4.066917
0.504300,-3.993885
0.504400,-3.801730
0.504500,-3.749472
0.504600,-3.906247
0.504700,-4.037379
0.504800,-4.071136
0.504900,-4.029589
0.505000,-4.033484
0.505100,-4.000052
0.505200,-4.064320
0.505300,-4.077628
0.505400,-4.080549
0.505500,-4.023422
0.505600,-3.984472
0.505700,-4.008816
0.505800,-4.036406
0.505900,-4.000052
0.506000,-3.960777
0.506100,-3.904624
0.506200,-3.937731
0.506300,-4.060100
0.506400,-4.055556
0.506500,-4.026343
0.506600,-3.936109
0.506700,-3.891965
0.506800,-3.919555
0.506900,-3.890342
0.507000,-3.896185
0.507100,-3.876060
0.507200,-3.869569
0.507300,-3.865024
0.507400,-3.851067
0.507500,-3.824776
0.507600,-3.868270
0.507700,-3.855287
0.507800,-3.894237
0.507900,-3.905273
0.508000,-3.950390
0.508100,-3.989341
0.508200,-4.022124
0.508300,-4.088339
0.508400,-4.140598
0.508500,-4.251282
0.508600,-4.506407
0.508700,-4.768024
0.508800,-4.763155
0.508900,-4.529452
0.509000,-4.431752
0.509100,-4.490826
0.509200,-4.819958
0.509300,-5.046845
0.509400,-5.064372
0.509500,-4.902728
0.509600,-4.678438
0.509700,-4.654743
0.509800,-4.786201
0.509900,-4.988094
0.510000,-5.039379
0.510100,-4.991340
0.510200,-4.919606
0.510300,-4.894613
0.510400,-4.942003
0.510500,-4.990042
0.510600,-4.996534
0.510700,-5.007569
0.510800,-5.011140
0.510900,-5.064697
0.511000,-5.135133
0.511100,-5.192909
0.511200,-5.145519
0.511300,-5.160450
0.511400,-5.200050
0.511500,-5.272758
0.511600,-5.308787
0.511700,-5.200375
0.511800,-5.054310
0.511900,-5.111438
0.512000,-5.256529
0.512100,-5.444465
0.512200,-5.525613
0.512300,-5.389935
0.512400,-5.177978
0.512500,-5.118903
0.512600,-5.254256
0.512700,-5.439597
0.512800,-5.554826
0.512900,-5.536000
0.513000,-5.426938
0.513100,-5.341895
0.513200,-5.306191
0.513300,-5.374354
0.513400,-5.401620
0.513500,-5.388312
0.513600,-5.320797
0.513700,-5.278925
0.513800,-5.244519
0.513900,-5.194208
0.514000,-5.109490
0.514100,-4.973812
0.514200,-4.904675
0.514300,-4.858584
0.514400,-4.821905
0.514500,-4.778735
0.514600,-4.614494
0.514700,-4.492774
0.514800,-4.290881
0.514900,-4.307435
0.515000,-4.269458
0.515100,-4.269134
0.515200,-4.208112
0.515300,-4.121447
0.515400,-4.062048
0.515500,-4.008491
0.515600,-4.020825
0.515700,-4.012386
0.515800,-4.036406
0.515900,-4.005245
0.516000,-4.024720
0.516100,-3.967593
0.516200,-3.937082
0.516300,-3.951040
0.516400,-3.965646
0.516500,-3.963049
0.516600,-4.034133
0.516700,-3.977656
0.516800,-3.987393
0.516900,-3.743629
0.517000,-3.524859
0.517100,-3.470329
0.517200,-3.741682
0.517300,-4.014983
0.517400,-3.954285
0.517500,-3.781281
0.517600,-3.593022
0.517700,-3.529728
0.517800,-3.668001
0.517900,-3.775114
0.518000,-3.922801
0.518100,-3.752393
0.518200,-3.628726
0.518300,-3.490453
0.518400,-3.537842
0.518500,-3.548554
0.518600,-3.561212
0.518700,-3.561212
0.518800,-3.535246
0.518900,-3.506682
0.519000,-3.520639
0.519100,-3.532974
0.519200,-3.515771
0.519300,-3.494023
0.519400,-3.612172
0.519500,-3.666053
0.519600,-3.727400
0.519700,-3.735190
0.519800,-3.630024
0.519900,-3.584258
0.520000,-3.561862
0.520100,-3.746551
0.520200,-3.914037
0.520300,-3.880280
0.520400,-3.739085
0.520500,-3.591723
0.520600,-3.592373
0.520700,-3.793940
0.520800,-3.976682
0.520900,-3.965321
0.521000,-3.836136
0.521100,-3.661834
0.521200,-3.648850
0.521300,-3.785176
0.521400,-3.867621
0.521500,-3.842952
0.521600,-3.849120
0.521700,-3.829644
0.521800,-3.882552
0.521900,-3.929941
0.522000,-4.011737
0.522100,-4.034133
0.522200,-3.990314
0.522300,-4.035432
0.522400,-4.090611
0.522500,-4.119824
0.522600,-4.115929
0.522700,-4.114306
0.522800,-4.100349
0.522900,-4.233105
0.523000,-4.331779
0.523100,-4.323664
0.523200,-4.289258
0.523300,-4.199672
0.523400,-4.252580
0.523500,-4.270108
0.523600,-4.249659
0.523700,-4.261344
0.523800,-4.253554
0.523900,-4.245114
0.524000,-4.242842
0.524100,-4.257773
0.524200,-4.275301
0.524300,-4.269458
0.524400,-4.285688
0.524500,-4.297373
0.524600,-4.288284
0.524700,-4.298671
0.524800,-4.304189
0.524900,-4.388582
0.525000,-4.449279
0.525100,-4.500889
0.525200,-4.630074
0.525300,-4.880331
0.525400,-5.077356
0.525500,-4.981278
0.525600,-4.768998
0.525700,-4.619687
0.525800,-4.831318
0.525900,-5.117605
0.526000,-5.305866
0.526100,-5.267889
0.526200,-5.145519
0.526300,-5.001078
0.526400,-5.087418
0.526500,-5.238027
0.526600,-5.404216
0.526700,-5.416226
0.526800,-5.356177
0.526900,-5.329561
0.527000,-5.379872
0.527100,-5.415902
0.527200,-5.452256
0.527300,-5.443816
0.527400,-5.445764
0.527500,-5.435052
0.527600,-5.485364
0.527700,-5.531780
0.527800,-5.541518
0.527900,-5.510682
0.528000,-5.497373
0.528100,-5.545413
0.528200,-5.536324
0.528300,-5.477574
0.528400,-5.368836
0.528500,-5.204270
0.528600,-5.271460
0.528700,-5.410384
0.528800,-5.596698
0.528900,-5.621042
0.529000,-5.446738
0.529100,-5.300348
0.529200,-5.309761
0.529300,-5.493154
0.529400,-5.713550
0.529500,-5.807356
0.529600,-5.716796
0.529700,-5.574301
0.529800,-5.540868
0.529900,-5.568783
0.530000,-5.638894
0.530100,-5.638570
0.530200,-5.588908
0.530300,-5.557422
0.530400,-5.486337
0.530500,-5.452256
0.530600,-5.384741
0.530700,-5.253283
0.530800,-5.147142
0.530900,-5.076058
0.531000,-5.043923
0.531100,-4.976409
0.531200,-4.873190
0.531300,-4.706028
0.531400,-4.610599
0.531500,-4.446683
0.531600,-4.484659
0.531700,-4.437594
0.531800,-4.374300
0.531900,-4.290232
0.532000,-4.215902
0.532100,-4.132808
0.532200,-4.079900
0.532300,-4.052635
0.532400,-4.097428
0.532500,-4.059127
0.532600,-4.069189
0.532700,-4.026019
0.532800,-3.986095
0.532900,-3.940004
0.533000,-3.920528
0.533100,-3.956557
0.533200,-3.940328
0.533300,-4.015308
0.533400,-3.965970
0.533500,-3.910466
0.533600,-3.660211
0.533700,-3.386910
0.533800,-3.453775
0.533900,-3.825100
0.534000,-4.030888
0.534100,-3.899430
0.534200,-3.673194
0.534300,-3.464811
0.534400,-3.371330
0.534500,-3.591723
0.534600,-3.677089
0.534700,-3.799458
0.534800,-3.569002
0.534900,-3.499541
0.535000,-3.418070
0.535100,-3.460591
0.535200,-3.447283
0.535300,-3.450529
0.535400,-3.468057
0.535500,-3.411254
0.535600,-3.402815
0.535700,-3.393077
0.535800,-3.405412
0.535900,-3.386261
0.536000,-3.424238
0.536100,-3.585556
0.536200,-3.542062
0.536300,-3.671896
0.536400,-3.666378
0.536500,-3.621261
0.536600,-3.630998
0.536700,-3.695266
0.536800,-3.943899
0.536900,-4.057179
0.537000,-4.030238
0.537100,-3.903975
0.537200,-3.750121
0.537300,-3.907545
0.537400,-4.119824
0.537500,-4.317173
0.537600,-4.267186
0.537700,-4.113008
0.537800,-3.970515
0.537900,-4.004921
0.538000,-4.156827
0.538100,-4.212656
0.538200,-4.176302
0.538300,-4.191882
0.538400,-4.133132
0.538500,-4.227911
0.538600,-4.246088
0.538700,-4.324314
0.538800,-4.328533
0.538900,-4.312628
0.539000,-4.358395
0.539100,-4.404162
0.539200,-4.416496
0.539300,-4.368457
0.539400,-4.362290
0.539500,-4.388582
0.539600,-4.512898
0.539700,-4.550550
0.539800,-4.542111
0.539900,-4.525557
0.540000,-4.412926
0.540100,-4.476545
0.540200,-4.481413
0.540300,-4.452201
0.540400,-4.476545
0.540500,-4.442138
0.540600,-4.435971
0.540700,-4.418444
0.540800,-4.412601
0.540900,-4.417470
0.541000,-4.427857
0.541100,-4.430453
0.541200,-4.441165
0.541300,-4.446683
0.541400,-4.435647
0.541500,-4.444735
0.541600,-4.473623
0.541700,-4.562885
0.541800,-4.528154
0.541900,-4.668051
0.542000,-4.940704
0.542100,-5.012438
0.542200,-4.797561
0.542300,-4.583334
0.542400,-4.571324
0.542500,-4.729398
0.542600,-5.034186
0.542700,-5.121500
0.542800,-5.029641
0.542900,-4.842030
0.543000,-4.770296
0.543100,-4.857285
0.543200,-5.003999
0.543300,-5.142274
0.543400,-5.145519
0.543500,-5.127667
0.543600,-5.063723
0.543700,-5.111113
0.543800,-5.147467
0.543900,-5.188365
0.544000,-5.212385
0.544100,-5.234132
0.544200,-5.266266
0.544300,-5.298076
0.544400,-5.366564
0.544500,-5.377276
0.544600,-5.358449
0.544700,-5.373381
0.544800,-5.424990
0.544900,-5.500619
0.545000,-5.462318
0.545100,-5.389610
0.545200,-5.303594
0.545300,-5.415252
0.545400,-5.624612
0.545500,-5.787232
0.545600,-5.718094
0.545700,-5.524639
0.545800,-5.375003
0.545900,-5.393505
0.546000,-5.538272
0.546100,-5.687907
0.546200,-5.709655
0.546300,-5.572029
0.546400,-5.451606
0.546500,-5.399023
0.546600,-5.392207
0.546700,-5.437649
0.546800,-5.409085
0.546900,-5.392856
0.547000,-5.375003
0.547100,-5.317227
0.547200,-5.258476
0.547300,-5.191611
0.547400,-5.012763
0.547500,-4.966022
0.547600,-4.985498
0.547700,-5.009517
0.547800,-5.004648
0.547900,-4.905324
0.548000,-4.792692
0.548100,-4.801456
0.548200,-4.637540
0.548300,-4.669998
0.548400,-4.616766
0.548500,-4.556393
0.548600,-4.445060
0.548700,-4.377870
0.548800,-4.268160
0.548900,-4.227911
0.549000,-4.254203
0.549100,-4.209085
0.549200,-4.247062
0.549300,-4.193505
0.549400,-4.184741
0.549500,-4.104569
0.549600,-4.082172
0.549700,-4.071461
0.549800,-4.039976
0.549900,-4.085418
0.550000,-4.084120
0.550100,-4.053933
0.550200,-3.971813
0.550300,-3.620612
0.550400,-3.577442
0.550500,-3.537518
0.550600,-4.094831
0.550700,-4.099051
0.550800,-3.975708
0.550900,-3.610225
0.551000,-3.604058
0.551100,-3.637490
0.551200,-3.811792
0.551300,-3.986419
0.551400,-3.948118
0.551500,-3.825425
0.551600,-3.708574
0.551700,-3.715715
0.551800,-3.793291
0.551900,-3.828022
0.552000,-3.806274
0.552100,-3.771544
0.552200,-3.749796
0.552300,-3.746875
0.552400,-3.756937
0.552500,-3.779334
0.552600,-3.757911
0.552700,-3.831917
0.552800,-3.893588
0.552900,-4.009790
0.553000,-4.091910
0.553100,-4.028940
0.553200,-3.980252
0.553300,-3.952338
0.553400,-4.053284
0.553500,-4.357097
0.553600,-4.343789
0.553700,-4.303540
0.553800,-4.041274
0.553900,-4.024071
0.554000,-4.161696
0.554100,-4.456745
0.554200,-4.518092
0.554300,-4.423637
0.554400,-4.234403
0.554500,-4.191233
0.554600,-4.301917
0.554700,-4.419417
0.554800,-4.484335
0.554900,-4.466807
0.555000,-4.484984
0.555100,-4.431752
0.555200,-4.512249
0.555300,-4.547305
0.555400,-4.584632
0.555500,-4.558016
0.555600,-4.530751
0.555700,-4.574245
0.555800,-4.595668
0.555900,-4.561911
0.556000,-4.535619
0.556100,-4.502836
0.556200,-4.560613
0.556300,-4.681359
0.556400,-4.703431
0.556500,-4.699536
0.556600,-4.609950
0.556700,-4.619687
0.556800,-4.631048
0.556900,-4.654418
0.557000,-4.668376
0.557100,-4.650199
0.557200,-4.642084
0.557300,-4.645330
0.557400,-4.651172
0.557500,-4.681684
0.557600,-4.680385
0.557700,-4.710247
0.557800,-4.687526
0.557900,-4.701483
0.558000,-4.731670
0.558100,-4.764778
0.558200,-4.777112
0.558300,-4.835213
0.558400,-4.839433
0.558500,-4.910193
0.558600,-5.102998
0.558700,-5.385066
0.558800,-5.362344
0.558900,-5.152985
0.559000,-4.925773
0.559100,-4.942003
0.559200,-5.245168
0.559300,-5.519446
0.559400,-5.575924
0.559500,-5.472705
0.559600,-5.253607
0.559700,-5.223745
0.559800,-5.339299
0.559900,-5.510682
0.560000,-5.613576
0.560100,-5.554826
0.560200,-5.428561
0.560300,-5.414279
0.560400,-5.421420
0.560500,-5.452905
0.560600,-5.440570
0.560700,-5.388961
0.560800,-5.355853
0.560900,-5.340272
0.561000,-5.366240
0.561100,-5.405839
0.561200,-5.363967
0.561300,-5.319174
0.561400,-5.304892
0.561500,-5.315279
0.561600,-5.326315
0.561700,-5.210437
0.561800,-5.038405
0.561900,-4.949468
0.562000,-5.070215
0.562100,-5.231211
0.562200,-5.321771
0.562300,-5.157854
0.562400,-4.956934
0.562500,-4.849820
0.562600,-4.919282
0.562700,-5.130588
0.562800,-5.280224
0.562900,-5.258476
0.563000,-5.148441
0.563100,-5.029641
0.563200,-5.019255
0.563300,-5.023474
0.563400,-5.066644
0.563500,-5.052687
0.563600,-4.993612
0.563700,-4.941029
0.563800,-4.861180
0.563900,-4.782630
0.564000,-4.683307
0.564100,-4.532698
0.564200,-4.466807
0.564300,-4.420716
0.564400,-4.369756
0.564500,-4.373326
0.564600,-4.153581
0.564700,-4.052310
0.564800,-4.010763
0.564900,-3.917932
0.565000,-3.927345
0.565100,-3.907220
0.565200,-3.846523
0.565300,-3.756937
0.565400,-3.649500
0.565500,-3.585232
0.565600,-3.583609
0.565700,-3.628726
0.565800,-3.633595
0.565900,-3.652421
0.566000,-3.668975
0.566100,-3.670598
0.566200,-3.640087
0.566300,-3.668650
0.566400,-3.672870
0.566500,-3.692020
0.566600,-3.838733
0.566700,-3.809520
0.566800,-3.940004
0.566900,-3.657939
0.567000,-3.565432
0.567100,-3.316475
0.567200,-3.672545
0.567300,-3.985446
0.567400,-4.022124
0.567500,-3.953961
0.567600,-3.641060
0.567700,-3.638139
0.567800,-3.717663
0.567900,-3.894237
0.568000,-4.085743
0.568100,-3.949092
0.568200,-3.829969
0.568300,-3.657614
0.568400,-3.749796
0.568500,-3.801730
0.568600,-3.853664
0.568700,-3.892939
0.568800,-3.815687
0.568900,-3.791019
0.569000,-3.775439
0.569100,-3.816661
0.569200,-3.810169
0.569300,-3.850093
0.569400,-3.800756
0.569500,-3.980901
0.569600,-3.963374
0.569700,-4.067241
0.569800,-3.994209
0.569900,-4.021475
0.570000,-4.039976
0.570100,-4.201944
0.570200,-4.488879
0.570300,-4.423962
0.570400,-4.367808
0.570500,-4.122421
0.570600,-4.190909
0.570700,-4.314576
0.570800,-4.578465
0.570900,-4.620986
0.571000,-4.519715
0.571100,-4.300943
0.571200,-4.245764
0.571300,-4.358395
0.571400,-4.452850
0.571500,-4.453499
0.571600,-4.443437
0.571700,-4.391178
0.571800,-4.368457
0.571900,-4.378519
0.572000,-4.441489
0.572100,-4.455122
0.572200,-4.384687
0.572300,-4.409355
0.572400,-4.421689
0.572500,-4.445384
0.572600,-4.408057
0.572700,-4.394100
0.572800,-4.411303
0.572900,-4.486931
0.573000,-4.623258
0.573100,-4.642084
0.573200,-4.642084
0.573300,-4.520688
0.573400,-4.582685
0.573500,-4.637215
0.573600,-4.626504
0.573700,-4.659612
0.573800,-4.663182
0.573900,-4.680061
0.574000,-4.687202
0.574100,-4.694992
0.574200,-4.732319
0.574300,-4.708949
0.574400,-4.729398
0.574500,-4.736863
0.574600,-4.763804
0.574700,-4.721932
0.574800,-4.777761
0.574900,-4.766076
0.575000,-4.823853
0.575100,-4.867997
0.575200,-4.933888
0.575300,-5.208165
0.575400,-5.361695
0.575500,-5.327289
0.575600,-5.026720
0.575700,-4.930967
0.575800,-4.987445
0.575900,-5.290286
0.576000,-5.515875
0.576100,-5.543465
0.576200,-5.398049
0.576300,-5.225693
0.576400,-5.260424
0.576500,-5.412656
0.576600,-5.621367
0.576700,-5.717770
0.576800,-5.698619
0.576900,-5.609032
0.577000,-5.648957
0.577100,-5.658045
0.577200,-5.687907
0.577300,-5.687583
0.577400,-5.680117
0.577500,-5.681740
0.577600,-5.681740
0.577700,-5.692127
0.577800,-5.701865
0.577900,-5.633052
0.578000,-5.612278
0.578100,-5.627534
0.578200,-5.669406
0.578300,-5.664537
0.578400,-5.559370
0.578500,-5.400321
0.578600,-5.444465
0.578700,-5.569432
0.578800,-5.730104
0.578900,-5.807356
0.579000,-5.652527
0.579100,-5.484065
0.579200,-5.433429
0.579300,-5.540219
0.579400,-5.719068
0.579500,-5.838517
0.579600,-5.796320
0.579700,-5.680766
0.579800,-5.624288
0.579900,-5.614550
0.580000,-5.685960
0.580100,-5.692452
0.580200,-5.703163
0.580300,-5.722314
0.580400,-5.700566
0.580500,-5.682389
0.580600,-5.594750
0.580700,-5.476924
0.580800,-5.418174
0.580900,-5.397075
0.581000,-5.433754
0.581100,-5.457774
0.581200,-5.413305
0.581300,-5.257827
0.581400,-5.209139
0.581500,-5.127342
0.581600,-5.064697
0.581700,-5.053661
0.581800,-5.020228
0.581900,-4.927072
0.582000,-4.873515
0.582100,-4.769322
0.582200,-4.727775
0.582300,-4.670972
0.582400,-4.694018
0.582500,-4.672271
0.582600,-4.685903
0.582700,-4.704729
0.582800,-4.640136
0.582900,-4.632671
0.583000,-4.527829
0.583100,-4.623583
0.583200,-4.540164
0.583300,-4.725178
0.583400,-4.581386
0.583500,-4.657015
0.583600,-4.352877
0.583700,-4.180846
0.583800,-4.112683
0.583900,-4.446358
0.584000,-4.697264
0.584100,-4.560937
0.584200,-4.339569
0.584300,-4.096779
0.584400,-4.000377
0.584500,-4.148712
0.584600,-4.344438
0.584700,-4.378195
0.584800,-4.230508
0.584900,-4.011737
0.585000,-3.941951
0.585100,-3.882227
0.585200,-3.899106
0.585300,-3.887745
0.585400,-3.883201
0.585500,-3.830294
0.585600,-3.828995
0.585700,-3.828995
0.585800,-3.791019
0.585900,-3.773491
0.586000,-3.743954
0.586100,-3.856910
0.586200,-3.877359
0.586300,-3.916958
0.586400,-3.982200
0.586500,-3.871191
0.586600,-3.892290
0.586700,-3.874762
0.586800,-4.167863
0.586900,-4.233105
0.587000,-4.258747
0.587100,-4.096129
0.587200,-3.978954
0.587300,-4.030563
0.587400,-4.286012
0.587500,-4.461289
0.587600,-4.435322
0.587700,-4.331130
0.587800,-4.207138
0.587900,-4.244790
0.588000,-4.381441
0.588100,-4.466807
0.588200,-4.430453
0.588300,-4.447981
0.588400,-4.401241
0.588500,-4.494397
0.588600,-4.502512
0.588700,-4.552498
0.588800,-4.546331
0.588900,-4.512574
0.589000,-4.540488
0.589100,-4.583658
0.589200,-4.587229
0.589300,-4.549901
0.589400,-4.522311
0.589500,-4.528803
0.589600,-4.615792
0.589700,-4.689798
0.589800,-4.676166
0.589900,-4.657989
0.590000,-4.557691
0.590100,-4.624881
0.590200,-4.644356
0.590300,-4.636566
0.590400,-4.632671
0.590500,-4.631373
0.590600,-4.609301
0.590700,-4.636241
0.590800,-4.640461
0.590900,-4.637864
0.591000,-4.673569
0.591100,-4.676815
0.591200,-4.713169
0.591300,-4.728100
0.591400,-4.764129
0.591500,-4.811194
0.591600,-4.836512
0.591700,-4.909869
0.591800,-4.942652
0.591900,-5.108192
0.592000,-5.375328
0.592100,-5.503216
0.592200,-5.376302
0.592300,-5.137729
0.592400,-5.028992
0.592500,-5.231860
0.592600,-5.522691
0.592700,-5.649930
0.592800,-5.620068
0.592900,-5.430833
0.593000,-5.326315
0.593100,-5.375977
0.593200,-5.568458
0.593300,-5.685311
0.593400,-5.712576
0.593500,-5.610330
0.593600,-5.589557
0.593700,-5.620717
0.593800,-5.652527
0.593900,-5.693750
0.594000,-5.723288
0.594100,-5.713225
0.594200,-5.721340
0.594300,-5.810927
0.594400,-5.842737
0.594500,-5.874222
0.594600,-5.838192
0.594700,-5.830402
0.594800,-5.882012
0.594900,-5.921612
0.595000,-5.947579
0.595100,-5.793399
0.595200,-5.737570
0.595300,-5.823261
0.595400,-6.013146
0.595500,-6.195566
0.595600,-6.218937
0.595700,-6.028402
0.595800,-5.869028
0.595900,-5.886881
0.596000,-6.060861
0.596100,-6.235816
0.596200,-6.296190
0.596300,-6.204655
0.596400,-6.087802
0.596500,-6.047228
0.596600,-6.079363
0.596700,-6.149150
0.596800,-6.148501
0.596900,-6.097215
0.597000,-6.087153
0.597100,-6.026779
0.597200,-6.024183
0.597300,-5.945956
0.597400,-5.818068
0.597500,-5.731402
0.597600,-5.677845
0.597700,-5.628832
0.597800,-5.566186
0.597900,-5.480495
0.598000,-5.329236
0.598100,-5.281847
0.598200,-5.078330
0.598300,-5.070864
0.598400,-5.006271
0.598500,-4.957258
0.598600,-4.836512
0.598700,-4.792043
0.598800,-4.665130
0.598900,-4.649549
0.599000,-4.635268
0.599100,-4.616442
0.599200,-4.639812
0.599300,-4.597616
0.599400,-4.599888
0.599500,-4.532374
0.599600,-4.581386
0.599700,-4.529128
0.599800,-4.559963
0.599900,-4.507056
0.600000,-4.598914
0.600100,-4.519066
0.600200,-4.401241
0.600300,-4.165266
0.600400,-3.935459
0.600500,-3.977006
0.600600,-4.276275
0.600700,-4.478492
0.600800,-4.193181
0.600900,-3.998429
0.601000,-3.787773
0.601100,-3.758236
0.601200,-3.981226
0.601300,-4.053284
0.601400,-4.089638
0.601500,-3.869893
0.601600,-3.787448
0.601700,-3.682607
0.601800,-3.741682
0.601900,-3.809845
0.602000,-3.744928
0.602100,-3.811468
0.602200,-3.756288
0.602300,-3.771219
0.602400,-3.760183
0.602500,-3.810819
0.602600,-3.753042
0.602700,-3.785825
0.602800,-3.917283
0.602900,-3.915984
0.603000,-3.946495
0.603100,-3.974410
0.603200,-3.881903
0.603300,-3.908194
0.603400,-3.892290
0.603500,-4.200971
0.603600,-4.240246
0.603700,-4.170135
0.603800,-3.923125
0.603900,-3.822828
0.604000,-3.888394
0.604100,-4.185715
0.604200,-4.279521
0.604300,-4.223367
0.604400,-4.029265
0.604500,-3.930266
0.604600,-3.998754
0.604700,-4.121772
0.604800,-4.181496
0.604900,-4.147739
0.605000,-4.138650
0.605100,-4.109762
0.605200,-4.221420
0.605300,-4.275626
0.605400,-4.350605
0.605500,-4.339894
0.605600,-4.339569
0.605700,-4.394100
0.605800,-4.458043
0.605900,-4.448955
0.606000,-4.437919
0.606100,-4.440516
0.606200,-4.484659
0.606300,-4.618714
0.606400,-4.655717
0.606500,-4.640461
0.606600,-4.587553
0.606700,-4.573921
0.606800,-4.645654
0.606900,-4.630399
0.607000,-4.652795
0.607100,-4.688175
0.607200,-4.708949
0.607300,-4.720959
0.607400,-4.753093
0.607500,-4.806974
0.607600,-4.798210
0.607700,-4.860207
0.607800,-4.893964
0.607900,-4.915062
0.608000,-4.929993
0.608100,-4.958557
0.608200,-5.024123
0.608300,-5.044248
0.608400,-5.074759
0.608500,-5.095208
0.608600,-5.282820
0.608700,-5.548009
0.608800,-5.554177
0.608900,-5.340597
0.609000,-5.143572
0.609100,-5.109815
0.609200,-5.382794
0.609300,-5.636298
0.609400,-5.737570
0.609500,-5.655448
0.609600,-5.475301
0.609700,-5.456800
0.609800,-5.579819
0.609900,-5.771651
0.610000,-5.858966
0.610100,-5.863510
0.610200,-5.793074
0.610300,-5.807356
0.610400,-5.825533
0.610500,-5.842412
0.610600,-5.856694
0.610700,-5.860265
0.610800,-5.826183
0.610900,-5.832025
0.611000,-5.893048
0.611100,-5.934271
0.611200,-5.918691
0.611300,-5.874222
0.611400,-5.850202
0.611500,-5.909278
0.611600,-5.931999
0.611700,-5.907655
0.611800,-5.749904
0.611900,-5.707707
0.612000,-5.820989
0.612100,-6.062160
0.612200,-6.232570
0.612300,-6.156615
0.612400,-5.962186
0.612500,-5.847606
0.612600,-5.917068
0.612700,-6.117665
0.612800,-6.294567
0.612900,-6.304304
0.613000,-6.152720
0.613100,-6.041386
0.613200,-6.034894
0.613300,-6.083907
0.613400,-6.123832
0.613500,-6.118314
0.613600,-6.070599
0.613700,-6.054045
0.613800,-6.013796
0.613900,-5.974196
0.614000,-5.847930
0.614100,-5.734648
0.614200,-5.673301
0.614300,-5.658694
0.614400,-5.621367
0.614500,-5.642140
0.614600,-5.509059
0.614700,-5.382794
0.614800,-5.311059
0.614900,-5.170188
0.615000,-5.203296
0.615100,-5.189663
0.615200,-5.154608
0.615300,-5.065995
0.615400,-4.989717
0.615500,-4.894938
0.615600,-4.925449
0.615700,-4.924475
0.615800,-4.957908
0.615900,-4.902403
0.616000,-4.963750
0.616100,-4.906623
0.616200,-4.923501
0.616300,-4.845276
0.616400,-4.858259
0.616500,-4.810869
0.616600,-4.831318
0.616700,-4.863453
0.616800,-4.792043
0.616900,-4.714467
0.617000,-4.370729
0.617100,-4.230833
0.617200,-4.361641
0.617300,-4.620986
0.617400,-4.678438
0.617500,-4.428181
0.617600,-4.173705
0.617700,-3.932214
0.617800,-4.001026
0.617900,-4.155204
0.618000,-4.194479
0.618100,-4.079900
0.618200,-3.861129
0.618300,-3.602759
0.618400,-3.618989
0.618500,-3.575819
0.618600,-3.538491
0.618700,-3.499541
0.618800,-3.430729
0.618900,-3.332380
0.619000,-3.304141
0.619100,-3.261945
0.619200,-3.238575
0.619300,-3.199950
0.619400,-3.292456
0.619500,-3.266165
0.619600,-3.257076
0.619700,-3.239873
0.619800,-3.164570
0.619900,-3.125944
0.620000,-3.086670
0.620100,-3.263244
0.620200,-3.429756
0.620300,-3.441765
0.620400,-3.349259
0.620500,-3.083748
0.620600,-3.105171
0.620700,-3.231434
0.620800,-3.502138
0.620900,-3.530052
0.621000,-3.451178
0.621100,-3.250260
0.621200,-3.210661
0.621300,-3.344390
0.621400,-3.511226
0.621500,-3.569652
0.621600,-3.513174
0.621700,-3.539465
0.621800,-3.529403
0.621900,-3.619638
0.622000,-3.714741
0.622100,-3.797186
0.622200,-3.781281
0.622300,-3.814389
0.622400,-3.907220
0.622500,-3.952662
0.622600,-3.977331
0.622700,-3.978954
0.622800,-3.992911
0.622900,-4.087041
0.623000,-4.230183
0.623100,-4.264590
0.623200,-4.265888
0.623300,-4.149686
0.623400,-4.198374
0.623500,-4.264590
0.623600,-4.272704
0.623700,-4.281468
0.623800,-4.285039
0.623900,-4.318796
0.624000,-4.314251
0.624100,-4.338595
0.624200,-4.327235
0.624300,-4.360667
0.624400,-4.352228
0.624500,-4.420067
0.624600,-4.444086
0.624700,-4.482387
0.624800,-4.512574
0.624900,-4.539514
0.625000,-4.636566
0.625100,-4.718037
0.625200,-4.783604
0.625300,-5.087094
0.625400,-5.336053
0.625500,-5.311384
0.625600,-5.099752
0.625700,-5.046520
0.625800,-5.091962
0.625900,-5.461669
0.626000,-5.729130
0.626100,-5.787232
0.626200,-5.701865
0.626300,-5.587934
0.626400,-5.583390
0.626500,-5.776845
0.626600,-5.994969
0.626700,-6.148176
0.626800,-6.121884
0.626900,-6.105330
0.627000,-6.100461
0.627100,-6.177389
0.627200,-6.278662
0.627300,-6.331895
0.627400,-6.382531
0.627500,-6.386751
0.627600,-6.387400
0.627700,-6.387075
0.627800,-6.387400
0.627900,-6.386751
0.628000,-6.387075
0.628100,-6.386426
0.628200,-6.387075
0.628300,-6.387400
0.628400,-6.386426
0.628500,-6.387075
0.628600,-6.387075
0.628700,-6.386751
0.628800,-6.386426
0.628900,-6.385452
0.629000,-6.385777
0.629100,-6.386101
0.629200,-6.386101
0.629300,-6.386101
0.629400,-6.385128
0.629500,-6.384803
0.629600,-6.384478
0.629700,-6.384803
0.629800,-6.385128
0.629900,-6.384803
0.630000,-6.384478
0.630100,-6.384478
0.630200,-6.383829
0.630300,-6.383829
0.630400,-6.383829
0.630500,-6.384154
0.630600,-6.384154
0.630700,-6.383829
0.630800,-6.383505
0.630900,-6.383180
0.631000,-6.383180
0.631100,-6.382855
0.631200,-6.383180
0.631300,-5.693750
0.631400,-5.604163
0.631500,-5.399348
0.631600,-5.321446
0.631700,-5.284443
