0.000100,-0.282275
0.000200,-0.242026
0.000300,-0.235535
0.000400,-0.272212
0.000500,-0.342322
0.000600,-0.365043
0.000700,-0.453978
0.000800,-0.432880
0.000900,-0.497148
0.001000,-0.528308
0.001100,-0.476050
0.001200,-0.486112
0.001300,-0.525062
0.001400,-0.858407
0.001500,-0.973959
0.001600,-0.873663
0.001700,-0.679563
0.001800,-0.458198
0.001900,-0.611076
0.002000,-0.871715
0.002100,-1.098923
0.002200,-1.001548
0.002300,-0.811018
0.002400,-0.626656
0.002500,-0.685730
0.002600,-0.891190
0.002700,-1.035305
0.002800,-0.969739
0.002900,-0.951238
0.003000,-0.847696
0.003100,-0.940202
0.003200,-1.007715
0.003300,-1.109309
0.003400,-1.096651
0.003500,-1.057701
0.003600,-1.112555
0.003700,-1.176822
0.003800,-1.163515
0.003900,-1.139171
0.004000,-1.112880
0.004100,-1.127486
0.004200,-1.276794
0.004300,-1.350798
0.004400,-1.353720
0.004500,-1.303085
0.004600,-1.166111
0.004700,-1.229729
0.004800,-1.258293
0.004900,-1.242713
0.005000,-1.227782
0.005100,-1.224536
0.005200,-1.236546
0.005300,-1.199868
0.005400,-1.218369
0.005500,-1.214474
0.005600,-1.229729
0.005700,-1.208307
0.005800,-1.220966
0.005900,-1.226808
0.006000,-1.241090
0.006100,-1.256994
0.006200,-1.280689
0.006300,-1.374168
0.006400,-1.371896
0.006500,-1.660450
0.006600,-1.970102
0.006700,-2.089224
0.006800,-1.803591
0.006900,-1.546197
0.007000,-1.496861
0.007100,-1.825338
0.007200,-2.184002
0.007300,-2.372585
0.007400,-2.305072
0.007500,-2.097339
0.007600,-1.995095
0.007700,-2.157062
0.007800,-2.363172
0.007900,-2.532929
0.008000,-2.555650
0.008100,-2.524490
0.008200,-2.436853
0.008300,-2.475803
0.008400,-2.547860
0.008500,-2.573827
0.008600,-2.595250
0.008700,-2.567660
0.008800,-2.603040
0.008900,-2.605636
0.009000,-2.633226
0.009100,-2.651402
0.009200,-2.674448
0.009300,-2.719890
0.009400,-2.745532
0.009500,-2.781885
0.009600,-2.755918
0.009700,-2.595250
0.009800,-2.483917
0.009900,-2.578047
0.010000,-2.834792
0.010100,-3.029543
0.010200,-2.998058
0.010300,-2.734496
0.010400,-2.532929
0.010500,-2.603040
0.010600,-2.834468
0.010700,-3.028894
0.010800,-3.099978
0.010900,-2.992540
0.011000,-2.845179
0.011100,-2.789026
0.011200,-2.836415
0.011300,-2.938010
0.011400,-2.975986
0.011500,-2.960082
0.011600,-2.930220
0.011700,-2.865952
0.011800,-2.790000
0.011900,-2.716968
0.012000,-2.571230
0.012100,-2.483268
0.012200,-2.467364
0.012300,-2.458600
0.012400,-2.456328
0.012500,-2.292413
0.012600,-2.135639
0.012700,-1.893176
0.012800,-1.802293
0.012900,-1.824040
0.013000,-1.775677
0.013100,-1.708164
0.013200,-1.596183
0.013300,-1.493939
0.013400,-1.396240
0.013500,-1.322884
0.013600,-1.287180
0.013700,-1.317367
0.013800,-1.268679
0.013900,-1.298865
0.014000,-1.207658
0.014100,-1.188832
0.014200,-1.077825
0.014300,-1.087238
0.014400,-1.063219
0.014500,-1.123591
0.014600,-1.123591
0.014700,-1.022646
0.014800,-0.950913
0.014900,-0.416002
0.015000,-0.370885
0.015100,-0.417950
0.015200,-0.957729
0.015300,-0.956756
0.015400,-0.749672
0.015500,-0.524088
0.015600,-0.261501
0.015700,-0.314408
0.015800,-0.583486
0.015900,-0.638341
0.016000,-0.620489
0.016100,-0.340375
0.016200,-0.224499
0.016300,-0.191716
0.016400,-0.245921
0.016500,-0.254036
0.016600,-0.302723
0.016700,-0.307267
0.016800,-0.280652
0.016900,-0.248843
0.017000,-0.269616
0.017100,-0.277406
0.017200,-0.295582
0.017300,-0.358227
0.017400,-0.497148
0.017500,-0.436451
0.017600,-0.552651
0.017700,-0.425090
0.017800,-0.401721
0.017900,-0.403993
0.018000,-0.557520
0.018100,-0.881453
0.018200,-0.913262
0.018300,-0.820431
0.018400,-0.549730
0.018500,-0.551028
0.018600,-0.708775
0.018700,-1.083992
0.018800,-1.119047
0.018900,-1.041147
0.019000,-0.841529
0.019100,-0.823352
0.019200,-0.930140
0.019300,-1.071658
0.019400,-1.115801
0.019500,-1.071009
0.019600,-1.109309
0.019700,-1.098598
0.019800,-1.194350
0.019900,-1.225185
0.020000,-1.205710
0.020100,-1.160918
0.020200,-1.168059
0.020300,-1.244660
0.020400,-1.269977
0.020500,-1.220641
0.020600,-1.153128
0.020700,-1.085615
0.020800,-1.161242
0.020900,-1.323534
0.021000,-1.360211
0.021100,-1.385853
0.021200,-1.350798
0.021300,-1.259591
0.021400,-1.296593
0.021500,-1.280689
0.021600,-1.304059
0.021700,-1.288803
0.021800,-1.296593
0.021900,-1.282961
0.022000,-1.286207
0.022100,-1.308603
0.022200,-1.323534
0.022300,-1.361510
0.022400,-1.349500
0.022500,-1.356316
0.022600,-1.364431
0.022700,-1.393643
0.022800,-1.398837
0.022900,-1.423830
0.023000,-1.489395
0.023100,-1.513090
0.023200,-1.817224
0.023300,-2.109024
0.023400,-2.091821
0.023500,-1.715954
0.023600,-1.484202
0.023700,-1.564374
0.023800,-1.908756
0.023900,-2.276184
0.024000,-2.317406
0.024100,-2.128823
0.024200,-1.888956
0.024300,-1.917844
0.024400,-2.118761
0.024500,-2.363821
0.024600,-2.472881
0.024700,-2.442371
0.024800,-2.379401
0.024900,-2.395631
0.025000,-2.499822
0.025100,-2.610180
0.025200,-2.636147
0.025300,-2.638744
0.025400,-2.622839
0.025500,-2.702362
0.025600,-2.786754
0.025700,-2.854917
0.025800,-2.846153
0.025900,-2.841609
0.026000,-2.833819
0.026100,-2.905876
0.026200,-2.929571
0.026300,-2.862382
0.026400,-2.605636
0.026500,-2.625760
0.026600,-2.815642
0.026700,-3.059729
0.026800,-3.204169
0.026900,-3.022402
0.027000,-2.765331
0.027100,-2.675422
0.027200,-2.819212
0.027300,-3.064922
0.027400,-3.227539
0.027500,-3.172684
0.027600,-3.017533
0.027700,-2.888998
0.027800,-2.910745
0.027900,-2.947098
0.028000,-2.963003
0.028100,-2.948397
0.028200,-2.857838
0.028300,-2.805255
0.028400,-2.733847
0.028500,-2.661465
0.028600,-2.518323
0.028700,-2.333311
0.028800,-2.208346
0.028900,-2.148298
0.029000,-2.090198
0.029100,-2.053195
0.029200,-1.814627
0.029300,-1.680250
0.029400,-1.377414
0.029500,-1.360211
0.029600,-1.360211
0.029700,-1.321586
0.029800,-1.226808
0.029900,-1.121319
0.030000,-0.978178
0.030100,-0.932737
0.030200,-0.925920
0.030300,-0.920402
0.030400,-0.914885
0.030500,-0.880479
0.030600,-0.919429
0.030700,-0.840880
0.030800,-0.821405
0.030900,-0.825300
0.031000,-0.826598
0.031100,-0.829844
0.031200,-0.887944
0.031300,-0.867820
0.031400,-0.910990
0.031500,-0.576995
0.031600,-0.349463
0.031700,-0.216060
0.031800,-0.562713
0.031900,-0.908068
0.032000,-0.921701
0.032100,-0.653272
0.032200,-0.312785
0.032300,-0.197883
0.032400,-0.358227
0.032500,-0.536422
0.032600,-0.707477
0.032700,-0.524737
0.032800,-0.378675
0.032900,-0.154389
0.033000,-0.228069
0.033100,-0.269291
0.033200,-0.297854
0.033300,-0.333558
0.033400,-0.278380
0.033500,-0.228719
0.033600,-0.214112
0.033700,-0.255010
0.033800,-0.282924
0.033900,-0.283897
0.034000,-0.376403
0.034100,-0.462093
0.034200,-0.552651
0.034300,-0.529930
0.034400,-0.527983
0.034500,-0.410809
0.034600,-0.522790
0.034700,-0.601338
0.034800,-0.978503
0.034900,-0.865548
0.035000,-0.738312
0.035100,-0.425740
0.035200,-0.497797
0.035300,-0.743830
0.035400,-0.989863
0.035500,-1.025243
0.035600,-0.901901
0.035700,-0.648727
0.035800,-0.653272
0.035900,-0.758761
0.036000,-0.923973
0.036100,-0.928842
0.036200,-0.957729
0.036300,-0.927543
0.036400,-0.957405
0.036500,-1.015180
0.036600,-1.078474
0.036700,-1.071333
0.036800,-1.054455
0.036900,-1.099247
0.037000,-1.157997
0.037100,-1.173252
0.037200,-1.129109
0.037300,-1.104765
0.037400,-1.097624
0.037500,-1.221615
0.037600,-1.385853
0.037700,-1.391371
0.037800,-1.408574
0.037900,-1.296593
0.038000,-1.292374
0.038100,-1.324183
0.038200,-1.294646
0.038300,-1.284259
0.038400,-1.263161
0.038500,-1.241414
0.038600,-1.237844
0.038700,-1.221615
0.038800,-1.259591
0.038900,-1.186884
0.039000,-1.229729
0.039100,-1.215123
0.039200,-1.274197
0.039300,-1.261214
0.039400,-1.293997
0.039500,-1.332297
0.039600,-1.352421
0.039700,-1.436813
0.039800,-1.565023
0.039900,-1.956470
0.040000,-2.210943
0.040100,-2.085654
0.040200,-1.788336
0.040300,-1.587744
0.040400,-1.781195
0.040500,-2.153492
0.040600,-2.493655
0.040700,-2.495927
0.040800,-2.310590
0.040900,-2.173291
0.041000,-2.199582
0.041100,-2.468662
0.041200,-2.631278
0.041300,-2.754620
0.041400,-2.654973
0.041500,-2.648481
0.041600,-2.693598
0.041700,-2.745207
0.041800,-2.794544
0.041900,-2.794544
0.042000,-2.804281
0.042100,-2.852969
0.042200,-2.921132
0.042300,-2.992216
0.042400,-2.989619
0.042500,-2.942230
0.042600,-2.908473
0.042700,-2.986698
0.042800,-3.075958
0.042900,-3.083099
0.043000,-2.880559
0.043100,-2.683212
0.043200,-2.777341
0.043300,-2.975662
0.043400,-3.220398
0.043500,-3.260647
0.043600,-3.014287
0.043700,-2.798114
0.043800,-2.766630
0.043900,-2.937036
0.044000,-3.170737
0.044100,-3.299272
0.044200,-3.202871
0.044300,-3.035061
0.044400,-2.972741
0.044500,-2.987347
0.044600,-3.039930
0.044700,-3.027271
0.044800,-2.997084
0.044900,-2.961705
0.045000,-2.902306
0.045100,-2.871146
0.045200,-2.802009
0.045300,-2.648481
0.045400,-2.491058
0.045500,-2.421922
0.045600,-2.399850
0.045700,-2.401798
0.045800,-2.299554
0.045900,-2.058713
0.046000,-1.855849
0.046100,-1.654283
0.046200,-1.661099
0.046300,-1.629615
0.046400,-1.528994
0.046500,-1.377739
0.046600,-1.306006
0.046700,-1.124889
0.046800,-1.062569
0.046900,-0.983047
0.047000,-0.970388
0.047100,-0.922025
0.047200,-0.883725
0.047300,-0.892488
0.047400,-0.780832
0.047500,-0.788298
0.047600,-0.717539
0.047700,-0.766226
0.047800,-0.792517
0.047900,-0.772718
0.048000,-0.884698
0.048100,-0.702933
0.048200,-0.543238
0.048300,-0.073244
0.048400,-0.283573
0.048500,-0.510131
0.048600,-0.913586
0.048700,-0.756813
0.048800,-0.441644
0.048900,-0.250790
0.049000,-0.122905
0.049100,-0.336480
0.049200,-0.536422
0.049300,-0.526685
0.049400,-0.292012
0.049500,-0.074218
0.049600,-0.003134
0.049700,-0.057664
0.049800,-0.100184
0.049900,-0.115440
0.050000,-0.007678
0.050100,0.010498
0.050200,0.007252
0.050300,-0.042084
0.050400,-0.039163
0.050500,-0.061559
0.050600,0.010174
0.050700,-0.128423
0.050800,-0.094666
0.050900,-0.209568
0.051000,-0.230666
0.051100,-0.113817
0.051200,-0.183926
0.051300,-0.146924
0.051400,-0.495525
0.051500,-0.572775
0.051600,-0.543238
0.051700,-0.272862
0.051800,-0.183602
0.051900,-0.249816
0.052000,-0.609778
0.052100,-0.822054
0.052200,-0.775314
0.052300,-0.637692
0.052400,-0.456250
0.052500,-0.566284
0.052600,-0.794140
0.052700,-0.971037
0.052800,-0.947343
0.052900,-0.997978
0.053000,-0.971037
0.053100,-1.144040
0.053200,-1.253099
0.053300,-1.414092
0.053400,-1.422531
0.053500,-1.413443
0.053600,-1.487448
0.053700,-1.570216
0.053800,-1.589691
0.053900,-1.582875
0.054000,-1.573462
0.054100,-1.568269
0.054200,-1.740298
0.054300,-1.838971
0.054400,-1.825663
0.054500,-1.800994
0.054600,-1.666293
0.054700,-1.703620
0.054800,-1.722770
0.054900,-1.718226
0.055000,-1.687715
0.055100,-1.710111
0.055200,-1.697777
0.055300,-1.724393
0.055400,-1.731209
0.055500,-1.716603
0.055600,-1.695505
0.055700,-1.728937
0.055800,-1.738025
0.055900,-1.774379
0.056000,-1.766589
0.056100,-1.774703
0.056200,-1.799696
0.056300,-1.801319
0.056400,-1.861367
0.056500,-2.001911
0.056600,-2.440748
0.056700,-2.530333
0.056800,-2.308642
0.056900,-2.001262
0.057000,-1.874350
0.057100,-2.153167
0.057200,-2.550457
0.057300,-2.734821
0.057400,-2.648481
0.057500,-2.411860
0.057600,-2.287544
0.057700,-2.389464
0.057800,-2.669579
0.057900,-2.832196
0.058000,-2.828950
0.058100,-2.747804
0.058200,-2.695870
0.058300,-2.703336
0.058400,-2.777016
0.058500,-2.828625
0.058600,-2.831871
0.058700,-2.805580
0.058800,-2.803957
0.058900,-2.895814
0.059000,-2.935089
0.059100,-2.950669
0.059200,-2.978908
0.059300,-3.001953
0.059400,-3.045123
0.059500,-3.078230
0.059600,-3.054536
0.059700,-2.858812
0.059800,-2.767279
0.059900,-2.916588
0.060000,-3.157429
0.060100,-3.389507
0.060200,-3.353154
0.060300,-3.094460
0.060400,-2.925027
0.060500,-2.930545
0.060600,-3.138928
0.060700,-3.396972
0.060800,-3.479092
0.060900,-3.321993
0.061000,-3.145419
0.061100,-3.083099
0.061200,-3.130164
0.061300,-3.204818
0.061400,-3.234356
0.061500,-3.173334
0.061600,-3.146718
0.061700,-3.071739
0.061800,-3.006173
0.061900,-2.939633
0.062000,-2.817265
0.062100,-2.749751
0.062200,-2.700739
0.062300,-2.674773
0.062400,-2.656596
0.062500,-2.472881
0.062600,-2.275210
0.062700,-1.983085
0.062800,-1.887333
0.062900,-1.902913
0.063000,-1.813653
0.063100,-1.733481
0.063200,-1.606569
0.063300,-1.476412
0.063400,-1.339438
0.063500,-1.299190
0.063600,-1.240765
0.063700,-1.280040
0.063800,-1.227782
0.063900,-1.275495
0.064000,-1.222264
0.064100,-1.154102
0.064200,-1.171304
0.064300,-1.132030
0.064400,-1.254722
0.064500,-1.212202
0.064600,-1.410197
0.064700,-1.260889
0.064800,-1.216746
0.064900,-0.843152
0.065000,-0.668851
0.065100,-0.803228
0.065200,-1.325481
0.065300,-1.514713
0.065400,-1.225834
0.065500,-0.886646
0.065600,-0.684431
0.065700,-0.700660
0.065800,-0.896708
0.065900,-1.092431
0.066000,-1.004145
0.066100,-0.781806
0.066200,-0.612699
0.066300,-0.548107
0.066400,-0.520193
0.066500,-0.542914
0.066600,-0.534799
0.066700,-0.513701
0.066800,-0.476050
0.066900,-0.461768
0.067000,-0.408212
0.067100,-0.426713
0.067200,-0.380947
0.067300,-0.466312
0.067400,-0.591926
0.067500,-0.651973
0.067600,-0.684756
0.067700,-0.631849
0.067800,-0.604584
0.067900,-0.584136
0.068000,-0.720460
0.068100,-0.991486
0.068200,-0.972011
0.068300,-0.905796
0.068400,-0.632498
0.068500,-0.630551
0.068600,-0.790570
0.068700,-1.099247
0.068800,-1.176173
0.068900,-1.088536
0.069000,-0.869768
0.069100,-0.788298
0.069200,-0.910016
0.069300,-1.050235
0.069400,-1.108336
0.069500,-1.061271
0.069600,-1.090484
0.069700,-1.064192
0.069800,-1.170006
0.069900,-1.207982
0.070000,-1.243037
0.070100,-1.214474
0.070200,-1.231677
0.070300,-1.310226
0.070400,-1.340412
0.070500,-1.291075
0.070600,-1.267381
0.070700,-1.249204
0.070800,-1.331648
0.070900,-1.518608
0.071000,-1.570541
0.071100,-1.557557
0.071200,-1.533538
0.071300,-1.456937
0.071400,-1.548469
0.071500,-1.519581
0.071600,-1.542627
0.071700,-1.531591
0.071800,-1.554961
0.071900,-1.535486
0.072000,-1.547171
0.072100,-1.536460
0.072200,-1.527696
0.072300,-1.509844
0.072400,-1.514388
0.072500,-1.521529
0.072600,-1.478035
0.072700,-1.494264
0.072800,-1.498808
0.072900,-1.537758
0.073000,-1.581252
0.073100,-1.648116
0.073200,-1.905510
0.073300,-2.229444
0.073400,-2.216136
0.073500,-1.876622
0.073600,-1.689338
0.073700,-1.734130
0.073800,-2.125253
0.073900,-2.472881
0.074000,-2.527736
0.074100,-2.357330
0.074200,-2.156737
0.074300,-2.187897
0.074400,-2.380700
0.074500,-2.646209
0.074600,-2.746181
0.074700,-2.652052
0.074800,-2.620567
0.074900,-2.629655
0.075000,-2.721188
0.075100,-2.756243
0.075200,-2.763059
0.075300,-2.759489
0.075400,-2.703985
0.075500,-2.740988
0.075600,-2.808826
0.075700,-2.872769
0.075800,-2.815317
0.075900,-2.745532
0.076000,-2.769226
0.076100,-2.866602
0.076200,-2.875041
0.076300,-2.818563
0.076400,-2.570257
0.076500,-2.540070
0.076600,-2.709178
0.076700,-3.001629
0.076800,-3.187615
0.076900,-3.030517
0.077000,-2.765331
0.077100,-2.673474
0.077200,-2.799737
0.077300,-3.093810
0.077400,-3.309984
0.077500,-3.335301
0.077600,-3.131787
0.077700,-3.024674
0.077800,-3.038307
0.077900,-3.145744
0.078000,-3.192160
0.078100,-3.178527
0.078200,-3.146718
0.078300,-3.095109
0.078400,-3.020454
0.078500,-2.960731
0.078600,-2.868549
0.078700,-2.697169
0.078800,-2.612128
0.078900,-2.606285
0.079000,-2.570581
0.079100,-2.552404
0.079200,-2.297606
0.079300,-2.163229
0.079400,-1.889281
0.079500,-1.887983
0.079600,-1.894474
0.079700,-1.829233
0.079800,-1.723095
0.079900,-1.589042
0.080000,-1.449796
0.080100,-1.399810
0.080200,-1.362159
0.080300,-1.391696
0.080400,-1.380660
0.080500,-1.349825
0.080600,-1.388775
0.080700,-1.353720
0.080800,-1.339438
0.080900,-1.325806
0.081000,-1.315419
0.081100,-1.270302
0.081200,-1.401109
0.081300,-1.323858
0.081400,-1.382932
0.081500,-1.073930
0.081600,-0.823677
0.081700,-0.502016
0.081800,-0.927868
0.081900,-1.234598
0.082000,-1.320612
0.082100,-1.026216
0.082200,-0.749023
0.082300,-0.589653
0.082400,-0.726952
0.082500,-0.983696
0.082600,-1.108660
0.082700,-0.928842
0.082800,-0.746427
0.082900,-0.569854
0.083000,-0.609453
0.083100,-0.648727
0.083200,-0.678589
0.083300,-0.735715
0.083400,-0.653921
0.083500,-0.613673
0.083600,-0.602312
0.083700,-0.630226
0.083800,-0.707477
0.083900,-0.671448
0.084000,-0.737014
0.084100,-0.721434
0.084200,-0.802255
0.084300,-0.759734
0.084400,-0.745128
0.084500,-0.664307
0.084600,-0.758436
0.084700,-0.883076
0.084800,-1.214799
0.084900,-1.114178
0.085000,-0.960326
0.085100,-0.621138
0.085200,-0.641587
0.085300,-0.879505
0.085400,-1.203114
0.085500,-1.221939
0.085600,-1.076526
0.085700,-0.777586
0.085800,-0.666255
0.085900,-0.774341
0.086000,-0.951238
0.086100,-0.963247
0.086200,-0.923648
0.086300,-0.814264
0.086400,-0.784078
0.086500,-0.822703
0.086600,-0.908393
0.086700,-0.926245
0.086800,-0.869119
0.086900,-0.857758
0.087000,-0.924947
0.087100,-0.931763
0.087200,-0.890216
0.087300,-0.847047
0.087400,-0.832441
0.087500,-0.944097
0.087600,-1.087238
0.087700,-1.110932
0.087800,-1.112880
0.087900,-0.989538
0.088000,-1.010312
0.088100,-1.053157
0.088200,-1.036927
0.088300,-1.039849
0.088400,-1.020049
0.088500,-1.026865
0.088600,-1.035954
0.088700,-1.087238
0.088800,-1.133004
0.088900,-1.115801
0.089000,-1.181042
0.089100,-1.199219
0.089200,-1.291725
0.089300,-1.311524
0.089400,-1.368975
0.089500,-1.385529
0.089600,-1.465376
0.089700,-1.554636
0.089800,-1.685443
0.089900,-2.070398
0.090000,-2.380375
0.090100,-2.234962
0.090200,-1.955820
0.090300,-1.754904
0.090400,-1.976269
0.090500,-2.431984
0.090600,-2.751699
0.090700,-2.818888
0.090800,-2.639068
0.090900,-2.468337
0.091000,-2.512481
0.091100,-2.755594
0.091200,-2.991566
0.091300,-3.100951
0.091400,-3.040254
0.091500,-2.961380
0.091600,-2.952941
0.091700,-2.971118
0.091800,-3.023376
0.091900,-3.054860
0.092000,-3.068818
0.092100,-3.064598
0.092200,-3.121076
0.092300,-3.175930
0.092400,-3.189887
0.092500,-3.173334
0.092600,-3.131462
0.092700,-3.208389
0.092800,-3.248313
0.092900,-3.247988
0.093000,-3.083424
0.093100,-2.891595
0.093200,-2.901657
0.093300,-3.077257
0.093400,-3.295053
0.093500,-3.398595
0.093600,-3.166842
0.093700,-2.915938
0.093800,-2.836415
0.093900,-2.985075
0.094000,-3.237926
0.094100,-3.388533
0.094200,-3.308361
0.094300,-3.121076
0.094400,-2.978583
0.094500,-2.931843
0.094600,-2.960731
0.094700,-2.976311
0.094800,-2.936712
0.094900,-2.894840
0.095000,-2.842582
0.095100,-2.726706
0.095200,-2.632901
0.095300,-2.471908
0.095400,-2.327144
0.095500,-2.252489
0.095600,-2.217759
0.095700,-2.213864
0.095800,-2.138885
0.095900,-1.882789
0.096000,-1.735429
0.096100,-1.538083
0.096200,-1.493939
0.096300,-1.436488
0.096400,-1.371247
0.096500,-1.251476
0.096600,-1.156698
0.096700,-0.967791
0.096800,-0.962274
0.096900,-0.858083
0.097000,-0.922025
0.097100,-0.884049
0.097200,-0.892813
0.097300,-0.901577
0.097400,-0.864250
0.097500,-0.827572
0.097600,-0.769796
0.097700,-0.754541
0.097800,-0.760384
0.097900,-0.805825
0.098000,-0.780832
0.098100,-0.636069
0.098200,-0.437100
0.098300,0.061133
0.098400,-0.072919
0.098500,-0.266695
0.098600,-0.665281
0.098700,-0.434503
0.098800,-0.153416
0.098900,0.142603
0.099000,0.255882
0.099100,0.028999
0.099200,-0.098561
0.099300,-0.169320
0.099400,0.093916
0.099500,0.322097
0.099600,0.432779
0.099700,0.431481
0.099800,0.327939
0.099900,0.262373
0.100000,0.336054
0.100100,0.433753
0.100200,0.560989
0.100300,0.697962
0.100400,0.738210
0.100500,0.560989
0.100600,0.861876
0.100700,0.353256
0.100800,0.528530
0.100900,0.260426
0.101000,0.268216
0.101100,0.582736
0.101200,0.825198
0.101300,0.689523
0.101400,0.014069
0.101500,-0.217683
0.101600,-0.192365
0.101700,-0.013196
0.101800,0.549304
0.101900,0.271462
0.102000,-0.245597
0.102100,-0.492928
0.102200,-0.434503
0.102300,-0.318952
0.102400,0.116636
0.102500,0.015367
0.102600,-0.307592
0.102700,-0.413730
0.102800,-0.413406
0.102900,-0.438398
0.103000,-0.403344
0.103100,-0.518245
0.103200,-0.591276
0.103300,-0.701310
0.103400,-0.699687
0.103500,-0.699038
0.103600,-0.770121
0.103700,-0.848670
0.103800,-0.900928
0.103900,-0.870741
0.104000,-0.858732
0.104100,-0.863276
0.104200,-1.043095
0.104300,-1.173577
0.104400,-1.156698
0.104500,-1.157672
0.104600,-1.007066
0.104700,-1.054130
0.104800,-1.076851
0.104900,-1.025243
0.105000,-1.038226
0.105100,-0.979801
0.105200,-0.967142
0.105300,-0.974932
0.105400,-0.984021
0.105500,-0.966493
0.105600,-0.984021
0.105700,-0.985319
0.105800,-1.025892
0.105900,-1.019400
0.106000,-1.060947
0.106100,-1.111906
0.106200,-1.186884
0.106300,-1.303085
0.106400,-1.369949
0.106500,-1.626044
0.106600,-1.969453
0.106700,-2.184976
0.106800,-1.947057
0.106900,-1.678951
0.107000,-1.566646
0.107100,-1.857796
0.107200,-2.219382
0.107300,-2.456003
0.107400,-2.418027
0.107500,-2.175563
0.107600,-2.039887
0.107700,-2.178160
0.107800,-2.427115
0.107900,-2.599145
0.108000,-2.594925
0.108100,-2.528710
0.108200,-2.518648
0.108300,-2.605312
0.108400,-2.669904
0.108500,-2.755594
0.108600,-2.780587
0.108700,-2.754945
0.108800,-2.796816
0.108900,-2.866602
0.109000,-2.962354
0.109100,-3.010068
0.109200,-2.961056
0.109300,-2.985075
0.109400,-3.000655
0.109500,-3.057457
0.109600,-3.035710
0.109700,-2.828625
0.109800,-2.690028
0.109900,-2.785131
0.110000,-3.030517
0.110100,-3.256103
0.110200,-3.242146
0.110300,-3.004225
0.110400,-2.772797
0.110500,-2.752673
0.110600,-2.954888
0.110700,-3.227864
0.110800,-3.366462
0.110900,-3.245067
0.111000,-3.084722
0.111100,-3.030517
0.111200,-3.109066
0.111300,-3.233057
0.111400,-3.275902
0.111500,-3.245067
0.111600,-3.236952
0.111700,-3.172360
0.111800,-3.153534
0.111900,-3.036034
0.112000,-2.912368
0.112100,-2.829599
0.112200,-2.788052
0.112300,-2.743909
0.112400,-2.740988
0.112500,-2.621541
0.112600,-2.401798
0.112700,-2.297931
0.112800,-2.027229
0.112900,-1.955820
0.113000,-1.855849
0.113100,-1.736727
0.113200,-1.568918
0.113300,-1.430321
0.113400,-1.268355
0.113500,-1.193051
0.113600,-1.159295
0.113700,-1.105090
0.113800,-1.114827
0.113900,-1.079123
0.114000,-1.105414
0.114100,-0.967467
0.114200,-0.950264
0.114300,-0.936307
0.114400,-0.871391
0.114500,-0.965195
0.114600,-0.887620
0.114700,-0.942149
0.114800,-0.686703
0.114900,-0.463067
0.115000,-0.096614
0.115100,-0.318303
0.115200,-0.675019
0.115300,-0.889243
0.115400,-0.752594
0.115500,-0.385816
0.115600,-0.132318
0.115700,-0.131019
0.115800,-0.281301
0.115900,-0.493902
0.116000,-0.471506
0.116100,-0.312461
0.116200,-0.082332
0.116300,-0.039487
0.116400,-0.056366
0.116500,-0.050848
0.116600,-0.119659
0.116700,-0.109272
0.116800,-0.101158
0.116900,-0.059611
0.117000,-0.094342
0.117100,-0.131669
0.117200,-0.076490
0.117300,-0.232938
0.117400,-0.330313
0.117500,-0.458847
0.117600,-0.389711
0.117700,-0.482541
0.117800,-0.355630
0.117900,-0.441644
0.118000,-0.530255
0.118100,-0.872364
0.118200,-0.979152
0.118300,-0.926245
0.118400,-0.703582
0.118500,-0.644183
0.118600,-0.759734
0.118700,-1.070035
0.118800,-1.264135
0.118900,-1.219992
0.119000,-1.051858
0.119100,-0.913586
0.119200,-1.009338
0.119300,-1.166760
0.119400,-1.244011
0.119500,-1.284584
0.119600,-1.327753
0.119700,-1.284584
0.119800,-1.383257
0.119900,-1.431619
0.120000,-1.530617
0.120100,-1.521204
0.120200,-1.525099
0.120300,-1.591314
0.120400,-1.613061
0.120500,-1.575410
0.120600,-1.488421
0.120700,-1.455314
0.120800,-1.497834
0.120900,-1.648441
0.121000,-1.690636
0.121100,-1.689987
0.121200,-1.632861
0.121300,-1.575410
0.121400,-1.636756
0.121500,-1.671811
0.121600,-1.653634
0.121700,-1.666293
0.121800,-1.671811
0.121900,-1.682522
0.122000,-1.688689
0.122100,-1.710760
0.122200,-1.703944
0.122300,-1.696803
0.122400,-1.699400
0.122500,-1.718550
0.122600,-1.706865
0.122700,-1.680899
0.122800,-1.695181
0.122900,-1.708813
0.123000,-1.730885
0.123100,-1.744842
0.123200,-2.034370
0.123300,-2.359602
0.123400,-2.368041
0.123500,-2.147324
0.123600,-1.830207
0.123700,-1.837997
0.123800,-2.184652
0.123900,-2.516700
0.124000,-2.651727
0.124100,-2.521569
0.124200,-2.382323
0.124300,-2.390437
0.124400,-2.569283
0.124500,-2.797141
0.124600,-2.915938
0.124700,-2.876664
0.124800,-2.824730
0.124900,-2.832845
0.125000,-2.883480
0.125100,-2.907824
0.125200,-2.876015
0.125300,-2.869198
0.125400,-2.845828
0.125500,-2.892568
0.125600,-2.949695
0.125700,-2.879585
0.125800,-2.892244
0.125900,-2.820835
0.126000,-2.872769
0.126100,-2.944502
0.126200,-2.974039
0.126300,-2.843556
0.126400,-2.600767
0.126500,-2.525464
0.126600,-2.661789
0.126700,-2.895490
0.126800,-3.090889
0.126900,-2.950344
0.127000,-2.714696
0.127100,-2.582591
0.127200,-2.678018
0.127300,-2.931843
0.127400,-3.105820
0.127500,-3.101601
0.127600,-2.964301
0.127700,-2.860759
0.127800,-2.935738
0.127900,-3.006173
0.128000,-3.047395
0.128100,-2.995137
0.128200,-2.961380
0.128300,-2.949046
0.128400,-2.899385
0.128500,-2.832196
0.128600,-2.630305
0.128700,-2.450810
0.128800,-2.365769
0.128900,-2.360576
0.129000,-2.349540
0.129100,-2.335258
0.129200,-2.151869
0.129300,-2.016517
0.129400,-1.969453
0.129500,-1.735429
0.129600,-1.746140
0.129700,-1.662398
0.129800,-1.555935
0.129900,-1.430646
0.130000,-1.323209
0.130100,-1.235896
0.130200,-1.171954
0.130300,-1.159944
0.130400,-1.131705
0.130500,-1.120345
0.130600,-1.068087
0.130700,-1.066789
0.130800,-0.959028
0.130900,-0.970064
0.131000,-0.869768
0.131100,-0.930465
0.131200,-0.880154
0.131300,-0.922999
0.131400,-0.879505
0.131500,-0.694169
0.131600,-0.370236
0.131700,-0.208919
0.131800,-0.450732
0.131900,-0.815887
0.132000,-0.826274
0.132100,-0.521491
0.132200,-0.181330
0.132300,-0.085253
0.132400,-0.089148
0.132500,-0.332585
0.132600,-0.358227
0.132700,-0.278380
0.132800,-0.036566
0.132900,0.110469
0.133000,0.137410
0.133100,0.126374
0.133200,0.080283
0.133300,0.128970
0.133400,0.162402
0.133500,0.202975
0.133600,0.214011
0.133700,0.204923
0.133800,0.199405
0.133900,0.213037
0.134000,0.150717
0.134100,0.099109
0.134200,0.092617
0.134300,0.002059
0.134400,0.154288
0.134500,0.126698
0.134600,0.359423
0.134700,0.002384
0.134800,-0.234561
0.134900,-0.250790
0.135000,-0.102781
0.135100,0.903422
0.135200,0.790792
0.135300,-0.075191
0.135400,-0.453005
0.135500,-0.455601
0.135600,-0.299477
0.135700,0.295805
0.135800,0.527881
0.135900,-0.309864
0.136000,-0.425415
0.136100,-0.448460
0.136200,-0.359850
0.136300,-0.129397
0.136400,-0.084280
0.136500,-0.459496
0.136600,-0.545510
0.136700,-0.571477
0.136800,-0.521167
0.136900,-0.536422
0.137000,-0.605883
0.137100,-0.648078
0.137200,-0.627630
0.137300,-0.615620
0.137400,-0.595171
0.137500,-0.725329
0.137600,-0.905147
0.137700,-0.957405
0.137800,-0.995381
0.137900,-0.862627
0.138000,-0.922350
0.138100,-0.996355
0.138200,-0.985643
0.138300,-1.006417
0.138400,-1.018751
0.138500,-1.036927
0.138600,-1.034006
0.138700,-1.041796
0.138800,-1.053481
0.138900,-1.059648
0.139000,-1.088861
0.139100,-1.134627
0.139200,-1.156374
0.139300,-1.200517
0.139400,-1.275171
0.139500,-1.310226
0.139600,-1.447199
0.139700,-1.527371
0.139800,-1.652011
0.139900,-2.031773
0.140000,-2.364146
0.140100,-2.277158
0.140200,-1.959391
0.140300,-1.811057
0.140400,-1.903238
0.140500,-2.308642
0.140600,-2.622839
0.140700,-2.638419
0.140800,-2.434256
0.140900,-2.184652
0.141000,-2.186274
0.141100,-2.384919
0.141200,-2.586486
0.141300,-2.692949
0.141400,-2.622515
0.141500,-2.579669
0.141600,-2.551431
0.141700,-2.589407
0.141800,-2.688405
0.141900,-2.742286
0.142000,-2.778964
0.142100,-2.749102
0.142200,-2.814993
0.142300,-2.909771
0.142400,-2.991891
0.142500,-3.002278
0.142600,-3.002278
0.142700,-3.018182
0.142800,-3.093810
0.142900,-3.156455
0.143000,-3.045772
0.143100,-2.880559
0.143200,-2.842258
0.143300,-3.046421
0.143400,-3.286938
0.143500,-3.422290
0.143600,-3.227539
0.143700,-2.934440
0.143800,-2.840959
0.143900,-2.966898
0.144000,-3.231110
0.144100,-3.403464
0.144200,-3.370681
0.144300,-3.177229
0.144400,-3.046421
0.144500,-3.066221
0.144600,-3.145419
0.144700,-3.168789
0.144800,-3.130164
0.144900,-3.089266
0.145000,-3.004874
0.145100,-2.923728
0.145200,-2.774744
0.145300,-2.622190
0.145400,-2.484242
0.145500,-2.417702
0.145600,-2.381674
0.145700,-2.337855
0.145800,-2.261253
0.145900,-2.028852
0.146000,-1.943486
0.146100,-1.846761
0.146200,-1.659476
0.146300,-1.591639
0.146400,-1.529319
0.146500,-1.407925
0.146600,-1.297242
0.146700,-1.096651
0.146800,-1.027839
0.146900,-0.970064
0.147000,-0.992135
0.147100,-1.008689
0.147200,-0.958703
0.147300,-0.945395
0.147400,-0.893138
0.147500,-0.782780
0.147600,-0.794465
0.147700,-0.771095
0.147800,-0.794465
0.147900,-0.891515
0.148000,-0.844775
0.148100,-0.783753
0.148200,-0.439372
0.148300,-0.111545
0.148400,-0.105053
0.148500,-0.473778
0.148600,-0.880803
0.148700,-0.766226
0.148800,-0.500393
0.148900,-0.163478
0.149000,-0.089148
0.149100,-0.263449
0.149200,-0.536422
0.149300,-0.656193
0.149400,-0.535773
0.149500,-0.417950
0.149600,-0.246895
0.149700,-0.365043
0.149800,-0.423143
0.149900,-0.509157
0.150000,-0.576670
0.150100,-0.581864
0.150200,-0.566284
0.150300,-0.569529
0.150400,-0.611076
0.150500,-0.576346
0.150600,-0.689300
0.150700,-0.726952
0.150800,-0.843801
0.150900,-0.879830
0.151000,-0.860030
0.151100,-0.779858
0.151200,-0.751620
0.151300,-0.794140
0.151400,-0.974608
0.151500,-1.224861
0.151600,-1.136574
0.151700,-0.958379
0.151800,-0.648403
0.151900,-0.743830
0.152000,-0.979476
0.152100,-1.199543
0.152200,-1.147935
0.152300,-0.988889
0.152400,-0.756813
0.152500,-0.722407
0.152600,-0.833415
0.152700,-0.921376
0.152800,-0.895734
0.152900,-0.890866
0.153000,-0.827897
0.153100,-0.873014
0.153200,-0.905796
0.153300,-0.964546
0.153400,-0.972660
0.153500,-0.925920
0.153600,-0.960002
0.153700,-0.993758
0.153800,-0.985643
0.153900,-0.916832
0.154000,-0.870092
0.154100,-0.850942
0.154200,-0.962274
0.154300,-1.077825
0.154400,-1.055753
0.154500,-1.009663
0.154600,-0.814264
0.154700,-0.842827
0.154800,-0.843801
0.154900,-0.799983
0.155000,-0.791219
0.155100,-0.773042
0.155200,-0.746102
0.155300,-0.733119
0.155400,-0.717539
0.155500,-0.710398
0.155600,-0.676641
0.155700,-0.692871
0.155800,-0.680212
0.155900,-0.706828
0.156000,-0.684431
0.156100,-0.697739
0.156200,-0.759085
0.156300,-0.755190
0.156400,-0.788947
0.156500,-0.909042
0.156600,-1.312173
0.156700,-1.397214
0.156800,-1.303085
0.156900,-0.954484
0.157000,-0.842178
0.157100,-1.017777
0.157200,-1.420584
0.157300,-1.681548
0.157400,-1.590989
0.157500,-1.392020
0.157600,-1.255696
0.157700,-1.353395
0.157800,-1.601701
0.157900,-1.791257
0.158000,-1.829233
0.158100,-1.777625
0.158200,-1.751333
0.158300,-1.803591
0.158400,-1.874026
0.158500,-1.956794
0.158600,-2.003859
0.158700,-2.023334
0.158800,-2.051572
0.158900,-2.181081
0.159000,-2.213864
0.159100,-2.320327
0.159200,-2.252165
0.159300,-2.311564
0.159400,-2.376805
0.159500,-2.436853
0.159600,-2.451134
0.159700,-2.278781
0.159800,-2.147974
0.159900,-2.215487
0.160000,-2.443994
0.160100,-2.710801
0.160200,-2.739040
0.160300,-2.497225
0.160400,-2.249244
0.160500,-2.221005
0.160600,-2.396280
0.160700,-2.656920
0.160800,-2.766305
0.160900,-2.656920
0.161000,-2.457951
0.161100,-2.375831
0.161200,-2.414132
0.161300,-2.465416
0.161400,-2.473531
0.161500,-2.433282
0.161600,-2.411860
0.161700,-2.347917
0.161800,-2.311239
0.161900,-2.172317
0.162000,-2.039563
0.162100,-1.925959
0.162200,-1.894474
0.162300,-1.887333
0.162400,-1.883763
0.162500,-1.798722
0.162600,-1.598455
0.162700,-1.531266
0.162800,-1.295944
0.162900,-1.297242
0.163000,-1.265758
0.163100,-1.194350
0.163200,-1.096001
0.163300,-1.042445
0.163400,-0.863276
0.163500,-0.849968
0.163600,-0.824002
0.163700,-0.892813
0.163800,-0.864899
0.163900,-0.913262
0.164000,-0.906445
0.164100,-0.836336
0.164200,-0.884049
0.164300,-0.778885
0.164400,-0.957405
0.164500,-0.852240
0.164600,-1.065815
0.164700,-0.844450
0.164800,-0.897033
0.164900,-0.480269
0.165000,-0.215735
0.165100,-0.353358
0.165200,-0.666904
0.165300,-1.010312
0.165400,-0.738961
0.165500,-0.465014
0.165600,-0.210867
0.165700,-0.131019
0.165800,-0.446188
0.165900,-0.605233
0.166000,-0.694169
0.166100,-0.442293
0.166200,-0.273835
0.166300,-0.187497
0.166400,-0.183277
0.166500,-0.325119
0.166600,-0.321549
0.166700,-0.336804
0.166800,-0.257606
0.166900,-0.218007
0.167000,-0.223201
0.167100,-0.254360
0.167200,-0.302074
0.167300,-0.293959
0.167400,-0.487735
0.167500,-0.452355
0.167600,-0.606856
0.167700,-0.554599
0.167800,-0.507534
0.167900,-0.475401
0.168000,-0.532202
0.168100,-0.859706
0.168200,-0.961300
0.168300,-0.933710
0.168400,-0.682159
0.168500,-0.562064
0.168600,-0.661386
0.168700,-0.989538
0.168800,-1.167409
0.168900,-1.126512
0.169000,-0.988889
0.169100,-0.836011
0.169200,-0.913586
0.169300,-1.063868
0.169400,-1.234273
0.169500,-1.229405
0.169600,-1.255696
0.169700,-1.191753
0.169800,-1.301137
0.169900,-1.359562
0.170000,-1.445577
0.170100,-1.476087
0.170200,-1.474140
0.170300,-1.505949
0.170400,-1.571839
0.170500,-1.570541
0.170600,-1.528020
0.170700,-1.521529
0.170800,-1.565023
0.170900,-1.741920
0.171000,-1.820469
0.171100,-1.840918
0.171200,-1.741596
0.171300,-1.671811
0.171400,-1.718226
0.171500,-1.715305
0.171600,-1.692584
0.171700,-1.704269
0.171800,-1.703295
0.171900,-1.714331
0.172000,-1.729262
0.172100,-1.736727
0.172200,-1.724068
0.172300,-1.736078
0.172400,-1.722770
0.172500,-1.771457
0.172600,-1.777625
0.172700,-1.796126
0.172800,-1.837348
0.172900,-1.865586
0.173000,-1.948030
0.173100,-2.012622
0.173200,-2.282351
0.173300,-2.626734
0.173400,-2.711126
0.173500,-2.490084
0.173600,-2.116489
0.173700,-2.088575
0.173800,-2.300852
0.173900,-2.776043
0.174000,-2.919184
0.174100,-2.819537
0.174200,-2.611154
0.174300,-2.485540
0.174400,-2.649130
0.174500,-2.890296
0.174600,-3.090565
0.174700,-3.056808
0.174800,-3.020454
0.174900,-3.045447
0.175000,-3.057132
0.175100,-3.096407
0.175200,-3.148990
0.175300,-3.138603
0.175400,-3.142823
0.175500,-3.181124
0.175600,-3.232408
0.175700,-3.247339
0.175800,-3.249286
0.175900,-3.190537
0.176000,-3.201897
0.176100,-3.226890
0.176200,-3.275578
0.176300,-3.194756
0.176400,-2.965275
0.176500,-2.884454
0.176600,-3.013963
0.176700,-3.256427
0.176800,-3.466434
0.176900,-3.396972
0.177000,-3.133085
0.177100,-2.956187
0.177200,-2.993514
0.177300,-3.204169
0.177400,-3.419369
0.177500,-3.478443
0.177600,-3.332705
0.177700,-3.181773
0.177800,-3.146393
0.177900,-3.148665
0.178000,-3.171062
0.178100,-3.126918
0.178200,-3.084398
0.178300,-3.063949
0.178400,-2.998383
0.178500,-2.931518
0.178600,-2.722811
0.178700,-2.542992
0.178800,-2.452433
0.178900,-2.440748
0.179000,-2.443344
0.179100,-2.440423
0.179200,-2.257034
0.179300,-2.062933
0.179400,-2.007105
0.179500,-1.739973
0.179600,-1.745166
0.179700,-1.686092
0.179800,-1.588068
0.179900,-1.427725
0.180000,-1.317367
0.180100,-1.223238
0.180200,-1.157997
0.180300,-1.151505
0.180400,-1.116450
0.180500,-1.095352
0.180600,-1.111581
0.180700,-1.048288
0.180800,-1.006741
0.180900,-0.893138
0.181000,-0.923973
0.181100,-0.831467
0.181200,-0.888269
0.181300,-0.875610
0.181400,-0.753892
0.181500,-0.672422
0.181600,-0.198857
0.181700,-0.081683
0.181800,-0.147249
0.181900,-0.583811
0.182000,-0.754541
0.182100,-0.418923
0.182200,-0.246895
0.182300,0.107873
0.182400,0.025104
0.182500,-0.181005
0.182600,-0.271888
0.182700,-0.205024
0.182800,0.006279
0.182900,0.115013
0.183000,0.144550
0.183100,0.091319
0.183200,0.090345
0.183300,0.153963
0.183400,0.159481
0.183500,0.211090
0.183600,0.202650
0.183700,0.216932
0.183800,0.212388
0.183900,0.378249
0.184000,0.223748
0.184100,0.301323
0.184200,0.224397
0.184300,0.303595
0.184400,0.911537
0.184500,1.660671
0.184600,2.498417
0.184700,1.942408
0.184800,0.528206
0.184900,0.892711
0.185000,1.941434
0.185100,4.389114
0.185200,4.900984
0.185300,4.318030
0.185400,2.847019
0.185500,2.583458
0.185600,3.548442
0.185700,5.164548
0.185800,5.980558
0.185900,5.449210
0.186000,4.592953
0.186100,4.604638
0.186200,4.886703
0.186300,5.248616
0.186400,5.509583
0.186500,4.811399
0.186600,4.680591
0.186700,4.510509
0.186800,4.908775
0.186900,5.003878
0.187000,4.642615
0.187100,4.583865
0.187200,4.943830
0.187300,5.284645
0.187400,5.817291
0.187500,5.626758
0.187600,4.804258
0.187700,4.638395
0.187800,4.725384
0.187900,5.814694
0.188000,5.647856
0.188100,5.254783
0.188200,5.229465
0.188300,5.148643
0.188400,5.245370
0.188500,5.096060
0.188600,4.996088
0.188700,4.829576
0.188800,4.715646
0.188900,4.517650
0.189000,4.272264
0.189100,3.979165
0.189200,3.688987
0.189300,3.571812
0.189400,3.096298
0.189500,2.785348
0.189600,2.085873
0.189700,1.645740
0.189800,0.730745
0.189900,-0.728575
0.190000,-1.142092
0.190100,-1.134302
0.190200,-0.938904
0.190300,-0.780183
0.190400,-0.841204
0.190500,-1.351772
0.190600,-1.738350
0.190700,-1.969778
0.190800,-1.850331
0.190900,-1.751658
0.191000,-1.789959
0.191100,-2.054169
0.191200,-2.386867
0.191300,-2.540070
0.191400,-2.576424
0.191500,-2.591030
0.191600,-2.672500
0.191700,-2.760463
0.191800,-2.904253
0.191900,-2.958134
0.192000,-3.040903
0.192100,-3.052913
0.192200,-3.166842
0.192300,-3.290833
0.192400,-3.429106
0.192500,-3.439493
0.192600,-3.448906
0.192700,-3.524210
0.192800,-3.637490
0.192900,-3.704030
0.193000,-3.687151
0.193100,-3.485260
0.193200,-3.547255
0.193300,-3.761806
0.193400,-4.048740
0.193500,-4.271081
0.193600,-4.115280
0.193700,-3.880604
0.193800,-3.745252
0.193900,-3.875411
0.194000,-4.166240
0.194100,-4.365861
0.194200,-4.318796
0.194300,-4.148063
0.194400,-3.996806
0.194500,-3.989665
0.194600,-4.014009
0.194700,-4.033160
0.194800,-4.007193
0.194900,-3.933512
0.195000,-3.844575
0.195100,-3.724803
0.195200,-3.600487
0.195300,-3.371006
0.195400,-3.195405
0.195500,-3.111338
0.195600,-3.025972
0.195700,-2.962354
0.195800,-2.904902
0.195900,-2.642963
0.196000,-2.518648
0.196100,-2.406991
0.196200,-2.153492
0.196300,-2.084355
0.196400,-2.006455
0.196500,-1.878570
0.196600,-1.707839
0.196700,-1.498483
0.196800,-1.389748
0.196900,-1.317367
0.197000,-1.307629
0.197100,-1.212202
0.197200,-1.192402
0.197300,-1.131056
0.197400,-1.091782
0.197500,-0.981749
0.197600,-0.963247
0.197700,-0.910665
0.197800,-0.882751
0.197900,-0.869768
0.198000,-0.855811
0.198100,-0.812966
0.198200,-0.492279
0.198300,-0.173540
0.198400,0.015691
0.198500,-0.338103
0.198600,-0.628279
0.198700,-0.580241
0.198800,-0.209893
0.198900,0.076713
0.199000,0.196808
0.199100,0.146498
0.199200,-0.047927
0.199300,-0.121607
0.199400,0.117610
0.199500,0.230565
0.199600,0.466211
0.199700,0.368187
0.199800,0.386039
0.199900,0.311710
0.200000,0.333781
0.200100,0.396426
0.200200,0.415251
0.200300,0.420120
0.200400,0.423691
0.200500,0.464263
0.200600,0.401619
0.200700,0.237056
0.200800,0.223748
0.200900,0.148445
0.201000,0.170192
0.201100,0.202001
0.201200,0.380197
0.201300,0.140655
0.201400,-0.032671
0.201500,-0.372508
0.201600,-0.352060
0.201700,-0.202427
0.201800,0.025429
0.201900,-0.074218
0.202000,-0.349138
0.202100,-0.623735
0.202200,-0.677615
0.202300,-0.593224
0.202400,-0.378026
0.202500,-0.396852
0.202600,-0.579267
0.202700,-0.754541
0.202800,-0.800632
0.202900,-0.858083
0.203000,-0.854188
0.203100,-0.947018
0.203200,-1.039524
0.203300,-1.167409
0.203400,-1.219667
0.203500,-1.232651
0.203600,-1.284259
0.203700,-1.357290
0.203800,-1.370273
0.203900,-1.338464
0.204000,-1.344307
0.204100,-1.340736
0.204200,-1.454665
0.204300,-1.605920
0.204400,-1.594560
0.204500,-1.590340
0.204600,-1.381634
0.204700,-1.423830
0.204800,-1.416040
0.204900,-1.377090
0.205000,-1.360536
0.205100,-1.330674
0.205200,-1.296269
0.205300,-1.255696
0.205400,-1.222588
0.205500,-1.221939
0.205600,-1.184612
0.205700,-1.176498
0.205800,-1.144040
0.205900,-1.141118
0.206000,-1.086913
0.206100,-1.087887
0.206200,-1.057052
0.206300,-1.055104
0.206400,-1.007390
0.206500,-1.120345
0.206600,-1.404355
0.206700,-1.598455
0.206800,-1.405328
0.206900,-1.085290
0.207000,-0.860679
0.207100,-1.012584
0.207200,-1.322560
0.207300,-1.566970
0.207400,-1.496211
0.207500,-1.273548
0.207600,-1.101519
0.207700,-1.113204
0.207800,-1.317042
0.207900,-1.455314
0.208000,-1.465051
0.208100,-1.356316
0.208200,-1.315094
0.208300,-1.294646
0.208400,-1.316717
0.208500,-1.341061
0.208600,-1.333920
0.208700,-1.322560
0.208800,-1.296269
0.208900,-1.380335
0.209000,-1.495562
0.209100,-1.508870
0.209200,-1.483877
0.209300,-1.443954
0.209400,-1.494264
0.209500,-1.572164
0.209600,-1.591639
0.209700,-1.466674
0.209800,-1.345605
0.209900,-1.396565
0.210000,-1.658503
0.210100,-1.950627
0.210200,-2.066503
0.210300,-1.859419
0.210400,-1.654932
0.210500,-1.661749
0.210600,-1.866560
0.210700,-2.160308
0.210800,-2.301501
0.210900,-2.242752
0.211000,-2.114217
0.211100,-2.058389
0.211200,-2.140508
0.211300,-2.217434
0.211400,-2.269043
0.211500,-2.247945
0.211600,-2.257034
0.211700,-2.206399
0.211800,-2.211916
0.211900,-2.168422
0.212000,-2.100584
0.212100,-1.997043
0.212200,-2.020737
0.212300,-2.062933
0.212400,-2.098312
0.212500,-2.058064
0.212600,-1.896097
0.212700,-1.775677
0.212800,-1.626369
0.212900,-1.712708
0.213000,-1.726990
0.213100,-1.726340
0.213200,-1.664021
0.213300,-1.645519
0.213400,-1.513414
0.213500,-1.532240
0.213600,-1.513090
0.213700,-1.633834
0.213800,-1.607868
0.213900,-1.655257
0.214000,-1.679276
0.214100,-1.660450
0.214200,-1.611114
0.214300,-1.652985
0.214400,-1.635133
0.214500,-1.766589
0.214600,-1.725691
0.214700,-1.804240
0.214800,-1.710760
0.214900,-1.396565
0.215000,-0.987916
0.215100,-1.119047
0.215200,-1.389424
0.215300,-1.816250
0.215400,-1.571190
0.215500,-1.386178
0.215600,-1.079772
0.215700,-1.043095
0.215800,-1.157672
0.215900,-1.372221
0.216000,-1.344307
0.216100,-1.139171
0.216200,-0.957405
0.216300,-0.760708
0.216400,-0.838932
0.216500,-0.828546
0.216600,-0.868469
0.216700,-0.760059
0.216800,-0.749348
0.216900,-0.694169
0.217000,-0.712995
0.217100,-0.672746
0.217200,-0.607830
0.217300,-0.637367
0.217400,-0.816861
0.217500,-0.767200
0.217600,-0.884049
0.217700,-0.816536
0.217800,-0.761682
0.217900,-0.719811
0.218000,-0.728899
0.218100,-1.034006
0.218200,-1.175849
0.218300,-1.073605
0.218400,-0.856135
0.218500,-0.645157
0.218600,-0.810694
0.218700,-1.024269
0.218800,-1.252450
0.218900,-1.174226
0.219000,-0.996355
0.219100,-0.787648
0.219200,-0.812317
0.219300,-0.978178
0.219400,-1.094054
0.219500,-1.060947
0.219600,-1.037901
0.219700,-0.952536
0.219800,-1.021672
0.219900,-1.058674
0.220000,-1.089834
0.220100,-1.056402
0.220200,-1.039524
0.220300,-1.043419
0.220400,-1.061271
0.220500,-1.036603
0.220600,-0.983047
0.220700,-0.938904
0.220800,-0.937930
0.220900,-1.060947
0.221000,-1.138197
0.221100,-1.116775
0.221200,-1.112555
0.221300,-1.039200
0.221400,-1.012259
0.221500,-1.010961
0.221600,-1.004145
0.221700,-0.997004
0.221800,-1.026541
0.221900,-0.999601
0.222000,-1.032383
0.222100,-1.015180
0.222200,-1.034331
0.222300,-1.031410
0.222400,-1.039849
0.222500,-1.021023
0.222600,-1.070684
0.222700,-1.037577
0.222800,-1.113204
0.222900,-1.108985
0.223000,-1.180068
0.223100,-1.193701
0.223200,-1.422207
0.223300,-1.778274
0.223400,-1.819496
0.223500,-1.638054
0.223600,-1.283285
0.223700,-1.246283
0.223800,-1.543600
0.223900,-1.957768
0.224000,-2.133367
0.224100,-2.008078
0.224200,-1.782169
0.224300,-1.698102
0.224400,-1.815276
0.224500,-2.010026
0.224600,-2.197635
0.224700,-2.158036
0.224800,-2.128174
0.224900,-2.104804
0.225000,-2.118761
0.225100,-2.178809
0.225200,-2.241778
0.225300,-2.238857
0.225400,-2.229769
0.225500,-2.252489
0.225600,-2.276184
0.225700,-2.407316
0.225800,-2.357654
0.225900,-2.333635
0.226000,-2.353110
0.226100,-2.393683
0.226200,-2.450161
0.226300,-2.368041
0.226400,-2.143105
0.226500,-2.010350
0.226600,-2.140184
0.226700,-2.357330
0.226800,-2.588433
0.226900,-2.517025
0.227000,-2.270991
0.227100,-2.085005
0.227200,-2.121033
0.227300,-2.372910
0.227400,-2.618620
0.227500,-2.679966
0.227600,-2.534552
0.227700,-2.375182
0.227800,-2.340451
0.227900,-2.391736
0.228000,-2.478075
0.228100,-2.501445
0.228200,-2.489435
0.228300,-2.487163
0.228400,-2.453082
0.228500,-2.415106
0.228600,-2.298905
0.228700,-2.191468
0.228800,-2.133367
0.228900,-2.164203
0.229000,-2.181081
0.229100,-2.207697
0.229200,-2.083706
0.229300,-1.911353
0.229400,-1.861367
0.229500,-1.612737
0.229600,-1.639028
0.229700,-1.592937
0.229800,-1.466025
0.229900,-1.336517
0.230000,-1.215448
0.230100,-1.077500
0.230200,-1.050884
0.230300,-0.984345
0.230400,-1.017128
0.230500,-0.950264
0.230600,-1.018751
0.230700,-0.944422
0.230800,-0.949939
0.230900,-0.849968
0.231000,-0.869443
0.231100,-0.870092
0.231200,-0.905796
0.231300,-0.967467
0.231400,-0.863925
0.231500,-0.788947
0.231600,-0.352384
0.231700,-0.230017
0.231800,-0.268642
0.231900,-0.753243
0.232000,-0.824002
0.232100,-0.529930
0.232200,-0.278380
0.232300,0.123128
0.232400,-0.018390
0.232500,-0.074218
0.232600,-0.315057
0.232700,-0.146275
0.232800,0.079959
0.232900,0.346116
0.233000,0.440569
0.233100,0.391557
0.233200,0.462316
0.233300,0.400321
0.233400,0.526907
0.233500,0.570726
0.233600,0.742754
0.233700,1.066037
0.233800,1.492213
0.233900,2.061530
0.234000,1.729158
0.234100,1.485397
0.234200,1.093627
0.234300,0.974830
0.234400,1.415287
0.234500,2.276728
0.234600,2.583133
0.234700,2.214083
0.234800,0.333457
0.234900,0.153963
0.235000,1.126410
0.235100,2.774312
0.235200,3.514361
0.235300,2.258226
0.235400,0.766449
0.235500,0.025754
0.235600,0.777160
0.235700,2.092040
0.235800,2.870389
0.235900,2.244269
0.236000,1.343230
0.236100,0.944319
0.236200,1.046563
0.236300,1.304280
0.236400,1.497407
0.236500,1.144586
0.236600,0.774563
0.236700,0.638888
0.236800,0.953732
0.236900,1.049159
0.237000,0.684005
0.237100,0.433753
0.237200,0.444788
0.237300,0.692120
0.237400,0.722306
0.237500,0.254908
0.237600,-0.637692
0.237700,-0.768498
0.237800,-0.805825
0.237900,-0.736365
0.238000,-0.758436
0.238100,-0.861329
0.238200,-0.887620
0.238300,-0.934035
0.238400,-0.940202
0.238500,-0.976555
0.238600,-1.019725
0.238700,-1.046016
0.238800,-1.081071
0.238900,-1.087238
0.239000,-1.128135
0.239100,-1.158321
0.239200,-1.188183
0.239300,-1.225185
0.239400,-1.276794
0.239500,-1.330350
0.239600,-1.414092
0.239700,-1.484526
0.239800,-1.569567
0.239900,-1.864288
0.240000,-2.207697
0.240100,-2.165177
0.240200,-1.918493
0.240300,-1.612087
0.240400,-1.624746
0.240500,-2.037615
0.240600,-2.363497
0.240700,-2.463469
0.240800,-2.237883
0.240900,-1.982436
0.241000,-1.841892
0.241100,-2.064231
0.241200,-2.224251
0.241300,-2.352136
0.241400,-2.241129
0.241500,-2.110971
0.241600,-2.047353
0.241700,-2.048327
0.241800,-2.071047
0.241900,-2.050599
0.242000,-2.027229
0.242100,-1.955496
0.242200,-1.985358
0.242300,-2.030475
0.242400,-2.037940
0.242500,-2.022035
0.242600,-1.982436
0.242700,-2.011649
0.242800,-2.066179
0.242900,-2.073969
0.243000,-1.989902
0.243100,-1.731209
0.243200,-1.686092
0.243300,-1.839944
0.243400,-2.097988
0.243500,-2.273587
0.243600,-2.127525
0.243700,-1.874999
0.243800,-1.697453
0.243900,-1.785090
0.244000,-2.053195
0.244100,-2.300203
0.244200,-2.310914
0.244300,-2.174589
0.244400,-2.050923
0.244500,-2.056766
0.244600,-2.154790
0.244700,-2.268069
0.244800,-2.295334
0.244900,-2.323249
0.245000,-2.329416
0.245100,-2.313511
0.245200,-2.290466
0.245300,-2.165826
0.245400,-2.035668
0.245500,-1.992498
0.245600,-1.974971
0.245700,-1.977892
0.245800,-1.947057
0.245900,-1.743219
0.246000,-1.604947
0.246100,-1.454340
0.246200,-1.307954
0.246300,-1.295944
0.246400,-1.267381
0.246500,-1.158970
0.246600,-1.027839
0.246700,-0.887295
0.246800,-0.796412
0.246900,-0.766226
0.247000,-0.782131
0.247100,-0.737663
0.247200,-0.760708
0.247300,-0.793491
0.247400,-0.722407
0.247500,-0.712021
0.247600,-0.608804
0.247700,-0.678914
0.247800,-0.588031
0.247900,-0.747725
0.248000,-0.595171
0.248100,-0.696766
0.248200,-0.350761
0.248300,0.012446
0.248400,0.131567
0.248500,-0.092719
0.248600,-0.483191
0.248700,-0.540642
0.248800,-0.304021
0.248900,0.028026
0.249000,0.121505
0.249100,0.041333
0.249200,-0.153416
0.249300,-0.311162
0.249400,-0.168346
0.249500,-0.010924
0.249600,0.148121
0.249700,0.103329
0.249800,-0.024232
0.249900,-0.065454
0.250000,-0.030724
0.250100,-0.013521
0.250200,-0.003459
0.250300,0.014718
0.250400,0.002384
0.250500,0.010498
0.250600,0.036789
0.250700,-0.093043
0.250800,-0.185225
0.250900,-0.208919
0.251000,-0.280002
0.251100,-0.219955
0.251200,-0.222876
0.251300,-0.181979
0.251400,-0.415353
0.251500,-0.667229
0.251600,-0.679887
0.251700,-0.553625
0.251800,-0.323496
0.251900,-0.376403
0.252000,-0.616269
0.252100,-0.960326
0.252200,-1.043419
0.252300,-0.961949
0.252400,-0.761682
0.252500,-0.723057
0.252600,-0.882102
0.252700,-1.084641
0.252800,-1.131056
0.252900,-1.157347
0.253000,-1.114827
0.253100,-1.162865
0.253200,-1.244985
0.253300,-1.349825
0.253400,-1.440059
0.253500,-1.469271
0.253600,-1.506923
0.253700,-1.606245
0.253800,-1.637405
0.253900,-1.622149
0.254000,-1.634484
0.254100,-1.639677
0.254200,-1.799696
0.254300,-1.960040
0.254400,-1.998990
0.254500,-1.999964
0.254600,-1.847734
0.254700,-1.921739
0.254800,-1.956470
0.254900,-1.946408
0.255000,-1.933100
0.255100,-1.899668
0.255200,-1.900317
0.255300,-1.868183
0.255400,-1.851629
0.255500,-1.821768
0.255600,-1.801968
0.255700,-1.802617
0.255800,-1.783792
0.255900,-1.724393
0.256000,-1.720173
0.256100,-1.726990
0.256200,-1.730560
0.256300,-1.789959
0.256400,-1.797099
0.256500,-1.896097
0.256600,-2.175563
0.256700,-2.423545
0.256800,-2.198609
0.256900,-1.940890
0.257000,-1.686741
0.257100,-1.844813
0.257200,-2.221654
0.257300,-2.455679
0.257400,-2.451134
0.257500,-2.174265
0.257600,-1.986980
0.257700,-1.969778
0.257800,-2.164203
0.257900,-2.306370
0.258000,-2.350514
0.258100,-2.220356
0.258200,-2.166799
0.258300,-2.114217
0.258400,-2.143429
0.258500,-2.118761
0.258600,-2.086303
0.258700,-2.056441
0.258800,-1.980164
0.258900,-2.005482
0.259000,-2.034045
0.259100,-1.948030
0.259200,-1.900966
0.259300,-1.821119
0.259400,-1.872727
0.259500,-1.856498
0.259600,-1.809434
0.259700,-1.622799
0.259800,-1.368326
0.259900,-1.403056
0.260000,-1.545223
0.260100,-1.779897
0.260200,-1.845138
0.260300,-1.615658
0.260400,-1.354693
0.260500,-1.237844
0.260600,-1.353720
0.260700,-1.589691
0.260800,-1.702321
0.260900,-1.610464
0.261000,-1.408899
0.261100,-1.317691
0.261200,-1.309901
0.261300,-1.309252
0.261400,-1.321261
0.261500,-1.270951
0.261600,-1.234598
0.261700,-1.216746
0.261800,-1.170655
0.261900,-1.112231
0.262000,-0.959028
0.262100,-0.850293
0.262200,-0.856460
0.262300,-0.880154
0.262400,-0.905147
0.262500,-0.861004
0.262600,-0.672097
0.262700,-0.624059
0.262800,-0.375429
0.262900,-0.412432
0.263000,-0.419573
0.263100,-0.409186
0.263200,-0.354656
0.263300,-0.305969
0.263400,-0.247869
0.263500,-0.240728
0.263600,-0.275134
0.263700,-0.398475
0.263800,-0.444565
0.263900,-0.468909
0.264000,-0.624384
0.264100,-0.563687
0.264200,-0.723706
0.264300,-0.710073
0.264400,-0.867496
0.264500,-0.875610
0.264600,-1.016479
0.264700,-1.051858
0.264800,-1.069061
0.264900,-0.856784
0.265000,-0.637692
0.265100,-0.646780
0.265200,-1.101519
0.265300,-1.471868
0.265400,-1.365405
0.265500,-1.102818
0.265600,-0.901901
0.265700,-0.925920
0.265800,-1.093405
0.265900,-1.410846
0.266000,-1.443304
0.266100,-1.327753
0.266200,-1.122942
0.266300,-1.109309
0.266400,-1.107362
0.266500,-1.243037
0.266600,-1.194025
0.266700,-1.158321
0.266800,-1.082044
0.266900,-1.023620
0.267000,-0.985319
0.267100,-0.905796
0.267200,-0.829195
0.267300,-0.845424
0.267400,-0.820107
0.267500,-0.753567
0.267600,-0.697739
0.267700,-0.655544
0.267800,-0.466637
0.267900,-0.349138
0.268000,-0.264423
0.268100,-0.461768
0.268200,-0.618541
0.268300,-0.443592
0.268400,-0.184900
0.268500,0.617790
0.268600,0.449008
0.268700,-0.128423
0.268800,-0.308241
0.268900,-0.206647
0.269000,0.497371
0.269100,2.035563
0.269200,2.208241
0.269300,1.709683
0.269400,1.329273
0.269500,1.951496
0.269600,2.233883
0.269700,2.954131
0.269800,2.699983
0.269900,2.785673
0.270000,2.807095
0.270100,2.971983
0.270200,3.241387
0.270300,3.249177
0.270400,3.334542
0.270500,3.554609
0.270600,3.989227
0.270700,4.235261
0.270800,4.393334
0.270900,3.480604
0.271000,2.950561
0.271100,3.053129
0.271200,3.066437
0.271300,3.640949
0.271400,3.212499
0.271500,2.998599
0.271600,2.914856
0.271700,2.680833
0.271800,2.640260
0.271900,2.429930
0.272000,2.328336
0.272100,2.232584
0.272200,1.924556
0.272300,1.895019
0.272400,1.356538
0.272500,1.451640
0.272600,1.316290
0.272700,1.014754
0.272800,0.925818
0.272900,0.530478
0.273000,0.405514
0.273100,0.029324
0.273200,-0.741558
0.273300,-1.047314
0.273400,-1.256670
0.273500,-1.072631
0.273600,-0.855162
0.273700,-0.742207
0.273800,-1.049586
0.273900,-1.497185
0.274000,-1.715954
0.274100,-1.705243
0.274200,-1.478684
0.274300,-1.424154
0.274400,-1.533863
0.274500,-1.831830
0.274600,-1.979515
0.274700,-2.036642
0.274800,-2.011000
0.274900,-1.972374
0.275000,-2.000288
0.275100,-2.086627
0.275200,-2.123954
0.275300,-2.162580
0.275400,-2.145052
0.275500,-2.192117
0.275600,-2.249568
0.275700,-2.369339
0.275800,-2.362848
0.275900,-2.348891
0.276000,-2.313836
0.276100,-2.361225
0.276200,-2.460872
0.276300,-2.426466
0.276400,-2.264174
0.276500,-2.106752
0.276600,-2.203153
0.276700,-2.451459
0.276800,-2.675422
0.276900,-2.702038
0.277000,-2.457626
0.277100,-2.264824
0.277200,-2.332661
0.277300,-2.544290
0.277400,-2.797141
0.277500,-2.857189
0.277600,-2.782534
0.277700,-2.659842
0.277800,-2.630629
0.277900,-2.658219
0.278000,-2.713723
0.278100,-2.719565
0.278200,-2.698792
0.278300,-2.677369
0.278400,-2.641990
0.278500,-2.597846
0.278600,-2.490409
0.278700,-2.326170
0.278800,-2.220031
0.278900,-2.210294
0.279000,-2.175563
0.279100,-2.156737
0.279200,-2.011973
0.279300,-1.804565
0.279400,-1.714331
0.279500,-1.446875
0.279600,-1.445901
0.279700,-1.365405
0.279800,-1.245309
0.279900,-1.116126
0.280000,-0.971037
0.280100,-0.824975
0.280200,-0.751295
0.280300,-0.737014
0.280400,-0.671124
0.280500,-0.630875
0.280600,-0.580241
0.280700,-0.554599
0.280800,-0.460145
0.280900,-0.387764
0.281000,-0.347515
0.281100,-0.312785
0.281200,-0.300776
0.281300,-0.320900
0.281400,-0.273186
0.281500,-0.119659
0.281600,0.202650
0.281700,0.452254
0.281800,0.395777
0.281900,-0.004433
0.282000,-0.281625
0.282100,0.038088
0.282200,0.211414
0.282300,0.515547
0.282400,0.448034
0.282500,0.303920
0.282600,0.118584
0.282700,0.122803
0.282800,0.304894
0.282900,0.435375
0.283000,0.477247
0.283100,0.375328
0.283200,0.352607
0.283300,0.252311
0.283400,0.282822
0.283500,0.280225
0.283600,0.235758
0.283700,0.170841
0.283800,0.095863
0.283900,0.098784
0.284000,-0.061884
0.284100,-0.245921
0.284200,-0.291038
0.284300,-0.428661
0.284400,-0.434828
0.284500,-0.350112
0.284600,-0.352060
0.284700,-0.506236
0.284800,-0.864899
0.284900,-0.981424
0.285000,-0.883076
0.285100,-0.663658
0.285200,-0.570503
0.285300,-0.729224
0.285400,-1.006417
0.285500,-1.138846
0.285600,-1.010961
0.285700,-0.847696
0.285800,-0.693520
0.285900,-0.809720
0.286000,-0.948317
0.286100,-0.998951
0.286200,-0.959352
0.286300,-0.963247
0.286400,-0.920727
0.286500,-1.012584
0.286600,-1.047314
0.286700,-1.102493
0.286800,-1.087562
0.286900,-1.097949
0.287000,-1.062245
0.287100,-1.078799
0.287200,-1.033357
0.287300,-0.950589
0.287400,-0.916832
0.287500,-0.903200
0.287600,-1.058674
0.287700,-1.082369
0.287800,-1.039200
0.287900,-0.832765
0.288000,-0.799658
0.288100,-0.815887
0.288200,-0.801605
0.288300,-0.743830
0.288400,-0.727925
0.288500,-0.701634
0.288600,-0.682159
0.288700,-0.699038
0.288800,-0.695143
0.288900,-0.679563
0.289000,-0.701959
0.289100,-0.680861
0.289200,-0.698064
0.289300,-0.711047
0.289400,-0.748374
0.289500,-0.763954
0.289600,-0.772393
0.289700,-0.857434
0.289800,-0.900928
0.289900,-1.184937
0.290000,-1.509195
0.290100,-1.518608
0.290200,-1.304708
0.290300,-1.010636
0.290400,-1.062569
0.290500,-1.309577
0.290600,-1.783467
0.290700,-1.897071
0.290800,-1.734780
0.290900,-1.565347
0.291000,-1.536460
0.291100,-1.733157
0.291200,-1.971400
0.291300,-2.137262
0.291400,-2.123305
0.291500,-2.055143
0.291600,-2.082732
0.291700,-2.159009
0.291800,-2.252165
0.291900,-2.300203
0.292000,-2.311564
0.292100,-2.290141
0.292200,-2.339153
0.292300,-2.473855
0.292400,-2.554677
0.292500,-2.609856
0.292600,-2.550782
0.292700,-2.649780
0.292800,-2.690677
0.292900,-2.741961
0.293000,-2.682238
0.293100,-2.519297
0.293200,-2.442695
0.293300,-2.546887
0.293400,-2.808501
0.293500,-2.968196
0.293600,-2.812721
0.293700,-2.524490
0.293800,-2.336556
0.293900,-2.409263
0.294000,-2.639068
0.294100,-2.823756
0.294200,-2.799088
0.294300,-2.576099
0.294400,-2.391411
0.294500,-2.362523
0.294600,-2.366094
0.294700,-2.393034
0.294800,-2.347917
0.294900,-2.292089
0.295000,-2.228795
0.295100,-2.164852
0.295200,-2.111620
0.295300,-1.963935
0.295400,-1.783792
0.295500,-1.683496
0.295600,-1.647467
0.295700,-1.645195
0.295800,-1.605596
0.295900,-1.391371
0.296000,-1.215123
0.296100,-1.025567
0.296200,-0.860355
0.296300,-0.844450
0.296400,-0.775639
0.296500,-0.672097
0.296600,-0.507859
0.296700,-0.343296
0.296800,-0.240403
0.296900,-0.176136
0.297000,-0.179382
0.297100,-0.143029
0.297200,-0.089473
0.297300,-0.131344
0.297400,-0.033970
0.297500,-0.056041
0.297600,0.042307
0.297700,-0.056041
0.297800,-0.008003
0.297900,-0.118361
0.298000,-0.110895
0.298100,-0.138485
0.298200,0.181877
0.298300,0.389285
0.298400,0.645380
0.298500,0.289963
0.298600,-0.113492
0.298700,-0.160881
0.298800,0.091644
0.298900,0.446087
0.299000,0.503213
0.299100,0.538268
0.299200,0.266918
0.299300,0.142927
0.299400,0.193562
0.299500,0.430831
0.299600,0.615843
0.299700,0.553523
0.299800,0.527557
0.299900,0.383767
0.300000,0.343843
0.300100,0.380846
0.300200,0.369810
0.300300,0.338975
0.300400,0.257180
0.300500,0.226020
0.300600,0.095539
0.300700,0.020236
0.300800,-0.082008
0.300900,-0.123879
0.301000,-0.138485
0.301100,-0.152117
0.301200,-0.083631
0.301300,-0.133292
0.301400,-0.221902
0.301500,-0.611076
0.301600,-0.544212
0.301700,-0.449759
0.301800,-0.118361
0.301900,-0.150170
0.302000,-0.305644
0.302100,-0.632823
0.302200,-0.680212
0.302300,-0.557520
0.302400,-0.306294
0.302500,-0.078437
0.302600,-0.275134
0.302700,-0.405940
0.302800,-0.448460
0.302900,-0.406589
0.303000,-0.157635
0.303100,0.299051
0.303200,0.141954
0.303300,0.015691
0.303400,0.009524
0.303500,0.498344
0.303600,0.635318
0.303700,0.553199
0.303800,0.514573
0.303900,0.739184
0.304000,0.974830
0.304100,1.226705
0.304200,0.719709
0.304300,-0.193339
0.304400,-0.505911
0.304500,-0.477673
0.304600,-0.292986
0.304700,0.301972
0.304800,0.195510
0.304900,0.339299
0.305000,0.665828
0.305100,0.694392
0.305200,0.715489
0.305300,0.770019
0.305400,0.947890
0.305500,0.986840
0.305600,1.061818
0.305700,1.020596
0.305800,0.932959
0.305900,0.858954
0.306000,0.626229
0.306100,0.486335
0.306200,0.180579
0.306300,-0.393606
0.306400,-0.683458
0.306500,-0.836660
0.306600,-1.162216
0.306700,-1.484202
0.306800,-1.442331
0.306900,-1.186884
0.307000,-1.091457
0.307100,-1.224536
0.307200,-1.646169
0.307300,-1.976269
0.307400,-2.062933
0.307500,-1.885711
0.307600,-1.759772
0.307700,-1.828259
0.307800,-2.083057
0.307900,-2.357979
0.308000,-2.503392
0.308100,-2.525464
0.308200,-2.465416
0.308300,-2.509884
0.308400,-2.609856
0.308500,-2.707231
0.308600,-2.783184
0.308700,-2.795518
0.308800,-2.849723
0.308900,-2.939308
0.309000,-3.003901
0.309100,-3.087968
0.309200,-3.070440
0.309300,-3.057782
0.309400,-3.079853
0.309500,-3.187940
0.309600,-3.203520
0.309700,-3.135357
0.309800,-2.948721
0.309900,-2.967872
0.310000,-3.127243
0.310100,-3.371979
0.310200,-3.504735
0.310300,-3.305115
0.310400,-2.998058
0.310500,-2.884778
0.310600,-3.016884
0.310700,-3.273630
0.310800,-3.362566
0.310900,-3.253831
0.311000,-3.067519
0.311100,-2.896139
0.311200,-2.835442
0.311300,-2.817265
0.311400,-2.843232
0.311500,-2.803957
0.311600,-2.761112
0.311700,-2.679641
0.311800,-2.569283
0.311900,-2.447239
0.312000,-2.285921
0.312100,-2.098312
0.312200,-2.035343
0.312300,-1.974322
0.312400,-1.931152
0.312500,-1.842541
0.312600,-1.606245
0.312700,-1.480956
0.312800,-1.181691
0.312900,-1.151505
0.313000,-1.126837
0.313100,-1.051209
0.313200,-0.916832
0.313300,-0.769796
0.313400,-0.649377
0.313500,-0.502666
0.313600,-0.508508
0.313700,-0.476050
0.313800,-0.493253
0.313900,-0.441969
0.314000,-0.478322
0.314100,-0.399773
0.314200,-0.333234
0.314300,-0.329014
0.314400,-0.316680
0.314500,-0.380947
0.314600,-0.326418
0.314700,-0.304995
0.314800,-0.317005
0.314900,0.072169
0.315000,0.280875
0.315100,0.447385
0.315200,-0.047602
0.315300,-0.249492
0.315400,-0.288766
0.315500,-0.009301
0.315600,0.311385
0.315700,0.257180
0.315800,0.232837
0.315900,-0.134265
0.316000,-0.116738
0.316100,-0.078437
0.316200,0.090345
0.316300,0.242899
0.316400,0.135787
0.316500,0.099758
0.316600,0.041658
0.316700,0.066651
0.316800,0.068274
0.316900,0.077037
0.317000,0.076064
0.317100,0.038412
0.317200,0.118908
0.317300,-0.008003
0.317400,-0.019039
0.317500,-0.263124
0.317600,-0.231640
0.317700,-0.361148
0.317800,-0.268318
0.317900,-0.283248
0.318000,-0.305320
0.318100,-0.598417
0.318200,-0.909691
0.318300,-0.823352
0.318400,-0.689949
0.318500,-0.497472
0.318600,-0.588355
0.318700,-0.858732
0.318800,-1.173901
0.318900,-1.163839
0.319000,-1.009338
0.319100,-0.842178
0.319200,-0.900928
0.319300,-1.079123
0.319400,-1.224536
0.319500,-1.244335
0.319600,-1.300164
0.319700,-1.232651
0.319800,-1.290751
0.319900,-1.325156
0.320000,-1.391371
0.320100,-1.349176
0.320200,-1.295619
0.320300,-1.295295
0.320400,-1.297242
0.320500,-1.244985
0.320600,-1.151180
0.320700,-1.071982
0.320800,-0.948641
0.320900,-1.047639
0.321000,-1.108336
0.321100,-1.073281
0.321200,-0.994407
0.321300,-0.871715
0.321400,-0.824975
0.321500,-0.826923
0.321600,-0.752594
0.321700,-0.743181
0.321800,-0.684756
0.321900,-0.666579
0.322000,-0.625357
0.322100,-0.597768
0.322200,-0.603611
0.322300,-0.489033
0.322400,-0.623410
0.322500,-0.574074
0.322600,-0.505262
0.322700,-0.551677
0.322800,-0.664632
0.322900,-0.739935
0.323000,-0.775314
0.323100,-0.837309
0.323200,-1.063868
0.323300,-1.427725
0.323400,-1.675056
0.323500,-1.578655
0.323600,-1.339438
0.323700,-1.229080
0.323800,-1.484851
0.323900,-1.931477
0.324000,-2.210943
0.324100,-2.252814
0.324200,-2.107401
0.324300,-1.999639
0.324400,-2.122656
0.324500,-2.389139
0.324600,-2.614075
0.324700,-2.664710
0.324800,-2.660491
0.324900,-2.663737
0.325000,-2.698792
0.325100,-2.820835
0.325200,-2.889647
0.325300,-2.927948
0.325400,-2.941580
0.325500,-2.970468
0.325600,-3.076283
0.325700,-3.149314
0.325800,-3.186966
0.325900,-3.126269
0.326000,-3.174957
0.326100,-3.180799
0.326200,-3.252532
0.326300,-3.173334
0.326400,-3.054536
0.326500,-2.900683
0.326600,-2.982478
0.326700,-3.197353
0.326800,-3.389182
0.326900,-3.453126
0.327000,-3.178527
0.327100,-2.933466
0.327200,-2.922105
0.327300,-3.123997
0.327400,-3.367435
0.327500,-3.445011
0.327600,-3.372304
0.327700,-3.199300
0.327800,-3.129515
0.327900,-3.156131
0.328000,-3.207740
0.328100,-3.181773
0.328200,-3.128866
0.328300,-3.055834
0.328400,-3.025972
0.328500,-2.987022
0.328600,-2.903929
0.328700,-2.735794
0.328800,-2.609207
0.328900,-2.576424
0.329000,-2.593951
0.329100,-2.617321
0.329200,-2.535851
0.329300,-2.333635
0.329400,-2.175888
0.329500,-1.964909
0.329600,-1.975295
0.329700,-1.927582
0.329800,-1.801968
0.329900,-1.669538
0.330000,-1.528345
0.330100,-1.344956
0.330200,-1.233300
0.330300,-1.120670
0.330400,-1.109309
0.330500,-1.031085
0.330600,-1.009013
0.330700,-0.974932
0.330800,-0.868469
0.330900,-0.833415
0.331000,-0.754541
0.331100,-0.759085
0.331200,-0.685081
0.331300,-0.775964
0.331400,-0.658140
0.331500,-0.613997
0.331600,-0.318952
0.331700,0.044904
0.331800,-0.030399
0.331900,-0.422494
0.332000,-0.703906
0.332100,-0.409511
0.332200,-0.176461
0.332300,0.192588
0.332400,0.144226
0.332500,-0.000213
0.332600,-0.185225
0.332700,-0.120957
0.332800,0.042307
0.332900,0.273409
0.333000,0.383442
0.333100,0.326641
0.333200,0.314631
0.333300,0.321123
0.333400,0.337352
0.333500,0.381170
0.333600,0.376951
0.333700,0.418173
0.333800,0.342870
0.333900,0.421094
0.334000,0.350660
0.334100,0.232187
0.334200,0.266593
0.334300,0.285743
0.334400,0.260101
0.334500,1.356863
0.334600,1.414314
0.334700,1.621072
0.334800,0.012770
0.334900,0.008875
0.335000,0.050097
0.335100,1.697024
0.335200,2.486083
0.335300,1.994666
0.335400,0.259128
0.335500,-0.155363
0.335600,-0.110571
0.335700,1.035851
0.335800,2.211162
0.335900,1.959936
0.336000,1.174772
0.336100,0.755088
0.336200,1.076100
0.336300,1.163412
0.336400,1.456509
0.336500,0.979374
0.336600,0.787871
0.336700,0.733666
0.336800,1.001121
0.336900,1.015403
0.337000,0.576893
0.337100,0.378249
0.337200,0.303271
0.337300,0.501915
0.337400,0.460368
0.337500,0.325018
0.337600,-0.638341
0.337700,-0.754541
0.337800,-0.800632
0.337900,-0.830493
0.338000,-0.780183
0.338100,-0.860030
0.338200,-0.898006
0.338300,-0.907419
0.338400,-0.975257
0.338500,-1.028813
0.338600,-1.102168
0.338700,-1.147935
0.338800,-1.230378
0.338900,-1.291400
0.339000,-1.362808
0.339100,-1.444603
0.339200,-1.480307
0.339300,-1.549443
0.339400,-1.585472
0.339500,-1.646818
0.339600,-1.680250
0.339700,-1.755877
0.339800,-1.837348
0.339900,-2.096365
0.340000,-2.533903
0.340100,-2.653350
0.340200,-2.391086
0.340300,-2.101558
0.340400,-2.090198
0.340500,-2.348241
0.340600,-2.808826
0.340700,-3.009743
0.340800,-2.870821
0.340900,-2.667956
0.341000,-2.605312
0.341100,-2.728653
0.341200,-2.944826
0.341300,-3.124646
0.341400,-3.111987
0.341500,-3.034087
0.341600,-3.036684
0.341700,-3.063624
0.341800,-3.099653
0.341900,-3.138928
0.342000,-3.117181
0.342100,-3.102574
0.342200,-3.120102
0.342300,-3.192809
0.342400,-3.273306
0.342500,-3.183396
0.342600,-3.107443
0.342700,-3.105820
0.342800,-3.120751
0.342900,-3.175606
0.343000,-3.101925
0.343100,-2.860759
0.343200,-2.754945
0.343300,-2.841609
0.343400,-3.094135
0.343500,-3.294079
0.343600,-3.206117
0.343700,-2.909447
0.343800,-2.678668
0.343900,-2.707231
0.344000,-2.950669
0.344100,-3.195730
0.344200,-3.223320
0.344300,-3.072063
0.344400,-2.925351
0.344500,-2.884454
0.344600,-2.947423
0.344700,-3.004550
0.344800,-2.999356
0.344900,-2.982478
0.345000,-2.923404
0.345100,-2.830573
0.345200,-2.777341
0.345300,-2.664061
0.345400,-2.505989
0.345500,-2.392709
0.345600,-2.337530
0.345700,-2.302800
0.345800,-2.277807
0.345900,-2.106102
0.346000,-1.932775
0.346100,-1.685768
0.346200,-1.575410
0.346300,-1.591314
0.346400,-1.580927
0.346500,-1.505624
0.346600,-1.387801
0.346700,-1.285882
0.346800,-1.194674
0.346900,-1.186235
0.347000,-1.165137
0.347100,-1.209605
0.347200,-1.165462
0.347300,-1.238818
0.347400,-1.190779
0.347500,-1.211228
0.347600,-1.219018
0.347700,-1.213500
0.347800,-1.309901
0.347900,-1.285233
0.348000,-1.422207
0.348100,-1.314121
0.348200,-1.301137
0.348300,-0.872040
0.348400,-0.886646
0.348500,-0.974283
0.348600,-1.563725
0.348700,-1.584822
0.348800,-1.418961
0.348900,-1.075228
0.349000,-0.908393
0.349100,-0.911314
0.349200,-1.157672
0.349300,-1.271276
0.349400,-1.204087
0.349500,-0.961949
0.349600,-0.753567
0.349700,-0.683458
0.349800,-0.691572
0.349900,-0.815563
0.350000,-0.737987
0.350100,-0.754541
0.350200,-0.710073
0.350300,-0.716890
0.350400,-0.713644
0.350500,-0.706503
0.350600,-0.660737
0.350700,-0.807123
0.350800,-0.913262
0.350900,-0.905472
0.351000,-0.972985
0.351100,-0.919429
0.351200,-0.855162
0.351300,-0.866846
0.351400,-0.981099
0.351500,-1.279715
0.351600,-1.259266
0.351700,-1.153777
0.351800,-0.801281
0.351900,-0.778885
0.352000,-0.887620
0.352100,-1.214474
0.352200,-1.276469
0.352300,-1.132355
0.352400,-0.860355
0.352500,-0.736040
0.352600,-0.870092
0.352700,-1.046990
0.352800,-1.079448
0.352900,-1.123591
0.353000,-1.061271
0.353100,-1.078799
0.353200,-1.157347
0.353300,-1.260889
0.353400,-1.329701
0.353500,-1.300488
0.353600,-1.306006
0.353700,-1.357615
0.353800,-1.402407
0.353900,-1.404355
0.354000,-1.390722
0.354100,-1.367352
0.354200,-1.426751
0.354300,-1.590340
0.354400,-1.617281
0.354500,-1.592937
0.354600,-1.543600
0.354700,-1.431619
0.354800,-1.454340
0.354900,-1.417987
0.355000,-1.396240
0.355100,-1.366378
0.355200,-1.343333
0.355300,-1.330350
0.355400,-1.313147
0.355500,-1.315419
0.355600,-1.280689
0.355700,-1.288479
0.355800,-1.252125
0.355900,-1.298865
0.356000,-1.278741
0.356100,-1.314445
0.356200,-1.304383
0.356300,-1.335219
0.356400,-1.424479
0.356500,-1.446875
0.356600,-1.823391
0.356700,-2.114217
0.356800,-2.108374
0.356900,-1.829233
0.357000,-1.576708
0.357100,-1.712059
0.357200,-2.034045
0.357300,-2.407640
0.357400,-2.477426
0.357500,-2.334284
0.357600,-2.154790
0.357700,-2.161606
0.357800,-2.379077
0.357900,-2.610505
0.358000,-2.750725
0.358100,-2.730601
0.358200,-2.723135
0.358300,-2.748453
0.358400,-2.844854
0.358500,-2.893542
0.358600,-2.933790
0.358700,-2.920807
0.358800,-2.913991
0.358900,-2.976960
0.359000,-3.063624
0.359100,-3.092188
0.359200,-3.033113
0.359300,-2.982478
0.359400,-3.020779
0.359500,-3.063300
0.359600,-3.089266
0.359700,-2.934764
0.359800,-2.743584
0.359900,-2.700415
0.360000,-2.895490
0.360100,-3.141200
0.360200,-3.297650
0.360300,-3.128216
0.360400,-2.870497
0.360500,-2.705283
0.360600,-2.853943
0.360700,-3.119777
0.360800,-3.288561
0.360900,-3.240523
0.361000,-3.028894
0.361100,-2.868224
0.361200,-2.792272
0.361300,-2.802659
0.361400,-2.818239
0.361500,-2.735145
0.361600,-2.637445
0.361700,-2.525789
0.361800,-2.428414
0.361900,-2.364471
0.362000,-2.193415
0.362100,-2.043133
0.362200,-1.938293
0.362300,-1.881816
0.362400,-1.859419
0.362500,-1.783142
0.362600,-1.563400
0.362700,-1.380985
0.362800,-1.109634
0.362900,-1.104441
0.363000,-1.090159
0.363100,-1.055429
0.363200,-0.971037
0.363300,-0.861653
0.363400,-0.749023
0.363500,-0.702283
0.363600,-0.695792
0.363700,-0.712345
0.363800,-0.706178
0.363900,-0.703257
0.364000,-0.735391
0.364100,-0.682808
0.364200,-0.681835
0.364300,-0.656193
0.364400,-0.668851
0.364500,-0.685730
0.364600,-0.655219
0.364700,-0.756813
0.364800,-0.544537
0.364900,-0.442293
0.365000,0.010823
0.365100,-0.058638
0.365200,-0.198857
0.365300,-0.695792
0.365400,-0.560117
0.365500,-0.311487
0.365600,0.023806
0.365700,0.224073
0.365800,0.051071
0.365900,-0.168671
0.366000,-0.275458
0.366100,-0.110571
0.366200,0.006603
0.366300,0.199080
0.366400,0.159157
0.366500,0.013419
0.366600,-0.021960
0.366700,-0.030724
0.366800,-0.094342
0.366900,-0.118036
0.367000,-0.142704
0.367100,-0.230991
0.367200,-0.283897
0.367300,-0.309215
0.367400,-0.456575
0.367500,-0.548756
0.367600,-0.742207
0.367700,-0.748049
0.367800,-0.757787
0.367900,-0.755515
0.368000,-0.886321
0.368100,-1.058674
0.368200,-1.450770
0.368300,-1.418312
0.368400,-1.278417
0.368500,-1.028813
0.368600,-1.157347
0.368700,-1.362483
0.368800,-1.699400
0.368900,-1.733157
0.369000,-1.624746
0.369100,-1.388125
0.369200,-1.373844
0.369300,-1.541978
0.369400,-1.751333
0.369500,-1.765940
0.369600,-1.824689
0.369700,-1.769510
0.369800,-1.835725
0.369900,-1.927582
0.370000,-2.031773
0.370100,-2.058713
0.370200,-2.091821
0.370300,-2.139210
0.370400,-2.217434
0.370500,-2.216461
0.370600,-2.191792
0.370700,-2.141482
0.370800,-2.113892
0.370900,-2.242103
0.371000,-2.375506
0.371100,-2.381349
0.371200,-2.315134
0.371300,-2.151219
0.371400,-2.151219
0.371500,-2.137262
0.371600,-2.056117
0.371700,-2.006131
0.371800,-1.957119
0.371900,-1.912651
0.372000,-1.864937
0.372100,-1.836374
0.372200,-1.804565
0.372300,-1.780870
0.372400,-1.752307
0.372500,-1.733481
0.372600,-1.734780
0.372700,-1.678302
0.372800,-1.679601
0.372900,-1.701997
0.373000,-1.726665
0.373100,-1.785090
0.373200,-1.862990
0.373300,-2.199907
0.373400,-2.330714
0.373500,-2.178809
0.373600,-1.819496
0.373700,-1.678302
0.373800,-1.826312
0.373900,-2.192442
0.374000,-2.433607
0.374100,-2.334934
0.374200,-2.133367
0.374300,-1.971076
0.374400,-2.064556
0.374500,-2.289816
0.374600,-2.516376
0.374700,-2.595899
0.374800,-2.511832
0.374900,-2.530657
0.375000,-2.568958
0.375100,-2.658868
0.375200,-2.735145
0.375300,-2.758191
0.375400,-2.808501
0.375500,-2.850048
0.375600,-2.992540
0.375700,-3.104846
0.375800,-3.193458
0.375900,-3.157104
0.376000,-3.281096
0.376100,-3.376524
0.376200,-3.435923
0.376300,-3.491102
0.376400,-3.301220
0.376500,-3.208389
0.376600,-3.278824
0.376700,-3.509279
0.376800,-3.788422
0.376900,-3.854638
0.377000,-3.597566
0.377100,-3.370357
0.377200,-3.313879
0.377300,-3.477470
0.377400,-3.736164
0.377500,-3.846848
0.377600,-3.738761
0.377700,-3.548229
0.377800,-3.418395
0.377900,-3.408333
0.378000,-3.434300
0.378100,-3.440467
0.378200,-3.387560
0.378300,-3.350881
0.378400,-3.290509
0.378500,-3.221048
0.378600,-3.139577
0.378700,-3.011042
0.378800,-2.882831
0.378900,-2.842582
0.379000,-2.816291
0.379100,-2.760138
0.379200,-2.650429
0.379300,-2.401473
0.379400,-2.184976
0.379500,-1.963935
0.379600,-1.956794
0.379700,-1.882465
0.379800,-1.768212
0.379900,-1.636756
0.380000,-1.528345
0.380100,-1.363457
0.380200,-1.293347
0.380300,-1.235247
0.380400,-1.292698
0.380500,-1.229405
0.380600,-1.247906
0.380700,-1.207009
0.380800,-1.174226
0.380900,-1.078799
0.381000,-1.120020
0.381100,-1.081071
0.381200,-1.105739
0.381300,-1.136899
0.381400,-1.110283
0.381500,-1.029787
0.381600,-0.664956
0.381700,-0.483191
0.381800,-0.372508
0.381900,-0.905147
0.382000,-1.127161
0.382100,-0.967467
0.382200,-0.634770
0.382300,-0.387764
0.382400,-0.331936
0.382500,-0.537396
0.382600,-0.785052
0.382700,-0.844126
0.382800,-0.614646
0.382900,-0.523114
0.383000,-0.395229
0.383100,-0.458847
0.383200,-0.489033
0.383300,-0.454952
0.383400,-0.441969
0.383500,-0.416327
0.383600,-0.443916
0.383700,-0.411783
0.383800,-0.408861
0.383900,-0.405616
0.384000,-0.418274
0.384100,-0.534150
0.384200,-0.626980
0.384300,-0.712345
0.384400,-0.741882
0.384500,-0.619515
0.384600,-0.658140
0.384700,-0.751944
0.384800,-1.036278
0.384900,-1.221939
0.385000,-1.179419
0.385100,-0.934360
0.385200,-0.829844
0.385300,-0.893787
0.385400,-1.283935
0.385500,-1.469920
0.385600,-1.440383
0.385700,-1.238493
0.385800,-1.026541
0.385900,-1.073930
0.386000,-1.250178
0.386100,-1.362483
0.386200,-1.279715
0.386300,-1.271925
0.386400,-1.186560
0.386500,-1.235247
0.386600,-1.231028
0.386700,-1.266407
0.386800,-1.188832
0.386900,-1.151180
0.387000,-1.154102
0.387100,-1.198894
0.387200,-1.161242
0.387300,-1.102168
0.387400,-1.037577
0.387500,-1.049911
0.387600,-1.219667
0.387700,-1.331973
0.387800,-1.345605
0.387900,-1.335219
0.388000,-1.196297
0.388100,-1.269653
0.388200,-1.296593
0.388300,-1.295295
0.388400,-1.309577
0.388500,-1.347228
0.388600,-1.364756
0.388700,-1.365729
0.388800,-1.392020
0.388900,-1.427075
0.389000,-1.450445
0.389100,-1.446875
0.389200,-1.499457
0.389300,-1.496861
0.389400,-1.561128
0.389500,-1.565347
0.389600,-1.669863
0.389700,-1.762694
0.389800,-1.821119
0.389900,-2.037291
0.390000,-2.443344
0.390100,-2.581942
0.390200,-2.381998
0.390300,-1.997367
0.390400,-1.964909
0.390500,-2.225874
0.390600,-2.670228
0.390700,-2.862707
0.390800,-2.745532
0.390900,-2.465091
0.391000,-2.306370
0.391100,-2.466714
0.391200,-2.675097
0.391300,-2.876664
0.391400,-2.896788
0.391500,-2.785131
0.391600,-2.752673
0.391700,-2.805255
0.391800,-2.843232
0.391900,-2.920158
0.392000,-2.882506
0.392100,-2.880559
0.392200,-2.871795
0.392300,-2.966898
0.392400,-2.990593
0.392500,-3.066870
0.392600,-3.004225
0.392700,-3.033762
0.392800,-3.107768
0.392900,-3.182422
0.393000,-3.125295
0.393100,-2.943528
0.393200,-2.821160
0.393300,-2.936063
0.393400,-3.171386
0.393500,-3.359645
0.393600,-3.297974
0.393700,-2.998058
0.393800,-2.749102
0.393900,-2.738066
0.394000,-2.915614
0.394100,-3.129515
0.394200,-3.173009
0.394300,-2.960082
0.394400,-2.743260
0.394500,-2.625760
0.394600,-2.638419
0.394700,-2.649455
0.394800,-2.610180
0.394900,-2.508586
0.395000,-2.414456
0.395100,-2.318704
0.395200,-2.222628
0.395300,-2.016842
0.395400,-1.816574
0.395500,-1.685118
0.395600,-1.642923
0.395700,-1.582875
0.395800,-1.537758
0.395900,-1.371572
0.396000,-1.177796
0.396100,-1.124240
0.396200,-0.827897
0.396300,-0.857109
0.396400,-0.820431
0.396500,-0.775964
0.396600,-0.643534
0.396700,-0.564012
0.396800,-0.454952
0.396900,-0.450083
0.397000,-0.473453
0.397100,-0.542914
0.397200,-0.569529
0.397300,-0.686703
0.397400,-0.700985
0.397500,-0.599391
0.397600,-0.684756
0.397700,-0.626980
0.397800,-0.786350
0.397900,-0.761682
0.398000,-0.868469
0.398100,-0.853214
0.398200,-0.654245
0.398300,-0.321549
0.398400,-0.132642
0.398500,-0.438398
0.398600,-0.761357
0.398700,-1.040498
0.398800,-0.768174
0.398900,-0.507210
0.399000,-0.321224
0.399100,-0.403668
0.399200,-0.717539
0.399300,-0.844775
0.399400,-0.885672
0.399500,-0.768823
0.399600,-0.587057
0.399700,-0.675019
0.399800,-0.776613
0.399900,-0.939228
0.400000,-0.974932
0.400100,-1.075228
0.400200,-1.108011
0.400300,-1.161567
0.400400,-1.219667
0.400500,-1.256670
0.400600,-1.333271
0.400700,-1.329701
0.400800,-1.466999
0.400900,-1.427075
0.401000,-1.454340
0.401100,-1.400135
0.401200,-1.271925
0.401300,-1.291075
0.401400,-1.291075
0.401500,-1.650713
0.401600,-1.640651
0.401700,-1.580278
0.401800,-1.322235
0.401900,-1.230378
0.402000,-1.359887
0.402100,-1.700698
0.402200,-1.826637
0.402300,-1.792231
0.402400,-1.591314
0.402500,-1.490694
0.402600,-1.596507
0.402700,-1.772756
0.402800,-1.880517
0.402900,-1.894474
0.403000,-1.954847
0.403100,-1.965233
0.403200,-2.087926
0.403300,-2.167124
0.403400,-2.266771
0.403500,-2.287544
0.403600,-2.364471
0.403700,-2.441721
0.403800,-2.480672
0.403900,-2.478075
0.404000,-2.471583
0.404100,-2.446590
0.404200,-2.527087
0.404300,-2.669904
0.404400,-2.755918
0.404500,-2.742286
0.404600,-2.630954
0.404700,-2.602390
0.404800,-2.667307
0.404900,-2.622190
0.405000,-2.608882
0.405100,-2.574476
0.405200,-2.518323
0.405300,-2.484567
0.405400,-2.408289
0.405500,-2.363172
0.405600,-2.255411
0.405700,-2.176537
0.405800,-2.061310
0.405900,-1.974971
0.406000,-1.869157
0.406100,-1.786713
0.406200,-1.713357
0.406300,-1.668240
0.406400,-1.664345
0.406500,-1.654608
0.406600,-1.909081
0.406700,-2.162580
0.406800,-2.095716
0.406900,-1.825663
0.407000,-1.485176
0.407100,-1.546846
0.407200,-1.880193
0.407300,-2.264499
0.407400,-2.374208
0.407500,-2.294685
0.407600,-2.094093
0.407700,-2.067152
0.407800,-2.233339
0.407900,-2.449511
0.408000,-2.577722
0.408100,-2.550132
0.408200,-2.560844
0.408300,-2.524490
0.408400,-2.563116
0.408500,-2.594600
0.408600,-2.599469
0.408700,-2.605636
0.408800,-2.596548
0.408900,-2.589082
0.409000,-2.667632
0.409100,-2.677694
0.409200,-2.643937
0.409300,-2.592004
0.409400,-2.626410
0.409500,-2.631927
0.409600,-2.681264
0.409700,-2.555650
0.409800,-2.336556
0.409900,-2.259630
0.410000,-2.432309
0.410100,-2.662438
0.410200,-2.826678
0.410300,-2.693598
0.410400,-2.430361
0.410500,-2.303124
0.410600,-2.406342
0.410700,-2.639717
0.410800,-2.832845
0.410900,-2.832520
0.411000,-2.677369
0.411100,-2.575450
0.411200,-2.560519
0.411300,-2.600767
0.411400,-2.608557
0.411500,-2.646534
0.411600,-2.636472
0.411700,-2.664061
0.411800,-2.652376
0.411900,-2.606610
0.412000,-2.458275
0.412100,-2.348241
0.412200,-2.320652
0.412300,-2.372910
0.412400,-2.363821
0.412500,-2.411535
0.412600,-2.254112
0.412700,-2.154141
0.412800,-2.020412
0.412900,-1.888632
0.413000,-1.881816
0.413100,-1.838971
0.413200,-1.728613
0.413300,-1.608192
0.413400,-1.491667
0.413500,-1.385529
0.413600,-1.381958
0.413700,-1.333596
0.413800,-1.384880
0.413900,-1.304708
0.414000,-1.434865
0.414100,-1.291725
0.414200,-1.339114
0.414300,-1.244335
0.414400,-1.277443
0.414500,-1.279390
0.414600,-1.308278
0.414700,-1.385529
0.414800,-1.294970
0.414900,-1.135925
0.415000,-0.686703
0.415100,-0.696766
0.415200,-0.839257
0.415300,-1.310226
0.415400,-1.301462
0.415500,-1.063543
0.415600,-0.778885
0.415700,-0.621463
0.415800,-0.768498
0.415900,-0.961949
0.416000,-1.046016
0.416100,-0.968116
0.416200,-0.687677
0.416300,-0.672097
0.416400,-0.652947
0.416500,-0.757462
0.416600,-0.744479
0.416700,-0.733443
0.416800,-0.770121
0.416900,-0.796737
0.417000,-0.825949
0.417100,-0.901577
0.417200,-0.940851
0.417300,-0.941176
0.417400,-1.016154
0.417500,-1.098273
0.417600,-1.207658
0.417700,-1.281013
0.417800,-1.177472
0.417900,-1.082369
0.418000,-1.022321
0.418100,-1.189157
0.418200,-1.417013
0.418300,-1.379686
0.418400,-1.206359
0.418500,-0.851591
0.418600,-0.874312
0.418700,-1.043419
0.418800,-1.318989
0.418900,-1.362483
0.419000,-1.229080
0.419100,-1.001223
0.419200,-0.969090
0.419300,-1.119371
0.419400,-1.292698
0.419500,-1.295619
0.419600,-1.290102
0.419700,-1.267705
0.419800,-1.291075
0.419900,-1.348202
0.420000,-1.420908
0.420100,-1.456937
0.420200,-1.389099
0.420300,-1.370598
0.420400,-1.379362
0.420500,-1.355667
0.420600,-1.312822
0.420700,-1.285233
0.420800,-1.272574
0.420900,-1.377090
0.421000,-1.461481
0.421100,-1.475114
0.421200,-1.515362
0.421300,-1.576383
0.421400,-1.562102
0.421500,-1.646493
0.421600,-1.672460
0.421700,-1.712708
0.421800,-1.727314
0.421900,-1.781520
0.422000,-1.757176
0.422100,-1.825987
0.422200,-1.808784
0.422300,-1.801644
0.422400,-1.784441
0.422500,-1.764966
0.422600,-1.719200
0.422700,-1.651037
0.422800,-1.601701
0.422900,-1.555285
0.423000,-1.553987
0.423100,-1.544250
0.423200,-1.583200
0.423300,-1.869481
0.423400,-2.047028
0.423500,-1.922388
0.423600,-1.626369
0.423700,-1.446550
0.423800,-1.668240
0.423900,-2.026904
0.424000,-2.337855
0.424100,-2.379401
0.424200,-2.247296
0.424300,-2.085329
0.424400,-2.171668
0.424500,-2.416079
0.424600,-2.630305
0.424700,-2.731575
0.424800,-2.659842
0.424900,-2.669579
0.425000,-2.685808
0.425100,-2.791623
0.425200,-2.863031
0.425300,-2.861084
0.425400,-2.864329
0.425500,-2.845179
0.425600,-2.925351
0.425700,-2.990268
0.425800,-2.999681
0.425900,-2.925027
0.426000,-2.928273
0.426100,-2.936387
0.426200,-2.975662
0.426300,-2.992216
0.426400,-2.857189
0.426500,-2.645235
0.426600,-2.688730
0.426700,-2.871146
0.426800,-3.101601
0.426900,-3.212608
0.427000,-2.963652
0.427100,-2.733847
0.427200,-2.648157
0.427300,-2.784806
0.427400,-2.990917
0.427500,-3.126594
0.427600,-3.057457
0.427700,-2.854917
0.427800,-2.745856
0.427900,-2.713723
0.428000,-2.745532
0.428100,-2.753322
0.428200,-2.697493
0.428300,-2.657245
0.428400,-2.550782
0.428500,-2.428738
0.428600,-2.318380
0.428700,-2.119735
0.428800,-1.961988
0.428900,-1.876622
0.429000,-1.820469
0.429100,-1.797099
0.429200,-1.694207
0.429300,-1.429672
0.429400,-1.320288
0.429500,-1.013233
0.429600,-1.006741
0.429700,-0.917806
0.429800,-0.872040
0.429900,-0.719162
0.430000,-0.636718
0.430100,-0.454303
0.430200,-0.382246
0.430300,-0.342322
0.430400,-0.351086
0.430500,-0.384518
0.430600,-0.362446
0.430700,-0.373157
0.430800,-0.317329
0.430900,-0.274809
0.431000,-0.248518
0.431100,-0.306294
0.431200,-0.318303
0.431300,-0.364069
0.431400,-0.303048
0.431500,-0.284547
0.431600,0.150717
0.431700,0.277304
0.431800,0.459070
0.431900,-0.014495
0.432000,-0.173864
0.432100,-0.131993
0.432200,0.133190
0.432300,0.465886
0.432400,0.407137
0.432500,0.332808
0.432600,0.071520
0.432700,0.039386
0.432800,0.179605
0.432900,0.323070
0.433000,0.349037
0.433100,0.247118
0.433200,0.191290
0.433300,0.145200
0.433400,0.103653
0.433500,0.080932
0.433600,0.014069
0.433700,-0.024557
0.433800,-0.095640
0.433900,-0.097263
0.434000,-0.274485
0.434100,-0.338427
0.434200,-0.537071
0.434300,-0.552651
0.434400,-0.634770
0.434500,-0.579267
0.434600,-0.591926
0.434700,-0.733768
0.434800,-0.967791
0.434900,-1.251801
0.435000,-1.127161
0.435100,-1.011610
0.435200,-0.757787
0.435300,-0.943772
0.435400,-1.186884
0.435500,-1.441032
0.435600,-1.402407
0.435700,-1.243686
0.435800,-1.078149
0.435900,-1.107362
0.436000,-1.281013
0.436100,-1.392670
0.436200,-1.307629
0.436300,-1.300813
0.436400,-1.219018
0.436500,-1.307954
0.436600,-1.364756
0.436700,-1.389424
0.436800,-1.406302
0.436900,-1.387801
0.437000,-1.402407
0.437100,-1.477710
0.437200,-1.452393
0.437300,-1.358264
0.437400,-1.307304
0.437500,-1.309901
0.437600,-1.488421
0.437700,-1.619553
0.437800,-1.634484
0.437900,-1.610140
0.438000,-1.485176
0.438100,-1.579954
0.438200,-1.621176
0.438300,-1.619553
0.438400,-1.636106
0.438500,-1.649090
0.438600,-1.685443
0.438700,-1.699400
0.438800,-1.733481
0.438900,-1.741920
0.439000,-1.789309
0.439100,-1.813653
0.439200,-1.850331
0.439300,-1.832804
0.439400,-1.924336
0.439500,-1.912326
0.439600,-2.062933
0.439700,-2.084680
0.439800,-2.185301
0.439900,-2.318055
0.440000,-2.676071
0.440100,-2.888349
0.440200,-2.624137
0.440300,-2.375506
0.440400,-2.280728
0.440500,-2.559221
0.440600,-2.991566
0.440700,-3.140875
0.440800,-3.085047
0.440900,-2.813370
0.441000,-2.751050
0.441100,-2.889647
0.441200,-3.165868
0.441300,-3.312256
0.441400,-3.323941
0.441500,-3.264217
0.441600,-3.271683
0.441700,-3.349259
0.441800,-3.407035
0.441900,-3.433001
0.442000,-3.433326
0.442100,-3.438844
0.442200,-3.460267
0.442300,-3.585556
0.442400,-3.647228
0.442500,-3.688774
0.442600,-3.654693
0.442700,-3.644631
0.442800,-3.707600
0.442900,-3.727400
0.443000,-3.706302
0.443100,-3.480066
0.443200,-3.319721
0.443300,-3.456371
0.443400,-3.668975
0.443500,-3.874113
0.443600,-3.842628
0.443700,-3.556019
0.443800,-3.289860
0.443900,-3.288561
0.444000,-3.494348
0.444100,-3.766675
0.444200,-3.834513
0.444300,-3.654044
0.444400,-3.451178
0.444500,-3.392428
0.444600,-3.461889
0.444700,-3.519666
0.444800,-3.512200
0.444900,-3.417746
0.445000,-3.373278
0.445100,-3.288886
0.445200,-3.243769
0.445300,-3.079529
0.445400,-2.898411
0.445500,-2.757217
0.445600,-2.696844
0.445700,-2.623164
0.445800,-2.577073
0.445900,-2.389464
0.446000,-2.152842
0.446100,-2.071047
0.446200,-1.752307
0.446300,-1.754255
0.446400,-1.687715
0.446500,-1.588717
0.446600,-1.454016
0.446700,-1.340087
0.446800,-1.192078
0.446900,-1.166436
0.447000,-1.167409
0.447100,-1.269653
0.447200,-1.219667
0.447300,-1.326130
0.447400,-1.261538
0.447500,-1.322884
0.447600,-1.270302
0.447700,-1.366703
0.447800,-1.392345
0.447900,-1.476412
0.448000,-1.512765
0.448100,-1.526073
0.448200,-1.443954
0.448300,-1.069386
0.448400,-0.889567
0.448500,-0.983371
0.448600,-1.386178
0.448700,-1.710111
0.448800,-1.489720
0.448900,-1.196622
0.449000,-0.899305
0.449100,-0.945071
0.449200,-1.164813
0.449300,-1.362808
0.449400,-1.336192
0.449500,-1.086913
0.449600,-0.897682
0.449700,-0.728899
0.449800,-0.873014
0.449900,-0.820756
0.450000,-0.884049
0.450100,-0.769147
0.450200,-0.703582
0.450300,-0.632174
0.450400,-0.564661
0.450500,-0.564336
0.450600,-0.550704
0.450700,-0.521816
0.450800,-0.625033
0.450900,-0.576670
0.451000,-0.610751
0.451100,-0.580890
0.451200,-0.468584
0.451300,-0.490331
0.451400,-0.493902
0.451500,-0.806150
0.451600,-0.883400
0.451700,-0.779534
0.451800,-0.515973
0.451900,-0.320900
0.452000,-0.444565
0.452100,-0.719811
0.452200,-0.892813
0.452300,-0.780832
0.452400,-0.491305
0.452500,-0.162179
0.452600,-0.193339
0.452700,-0.348165
0.452800,-0.427038
0.452900,-0.053120
0.453000,0.442516
0.453100,1.602246
0.453200,1.840165
0.453300,1.949549
0.453400,1.570762
0.453500,1.922284
0.453600,2.234532
0.453700,2.437720
0.453800,2.325740
0.453900,2.561386
0.454000,2.879477
0.454100,2.998599
0.454200,2.758083
0.454300,1.633082
0.454400,1.158219
0.454500,1.214047
0.454600,2.063153
0.454700,2.056661
0.454800,1.484423
0.454900,1.539927
0.455000,1.403927
0.455100,1.319536
0.455200,1.250075
0.455300,1.254944
0.455400,1.116672
0.455500,1.130954
0.455600,0.899527
0.455700,0.903747
0.455800,0.522363
0.455900,0.401619
0.456000,-0.043382
0.456100,-0.239430
0.456200,-0.652298
0.456300,-0.743181
0.456400,-0.803228
0.456500,-0.926570
0.456600,-1.210904
0.456700,-1.615658
0.456800,-1.703944
0.456900,-1.475763
0.457000,-1.260565
0.457100,-1.269328
0.457200,-1.674407
0.457300,-2.085005
0.457400,-2.286246
0.457500,-2.165501
0.457600,-2.002236
0.457700,-1.969128
0.457800,-2.136289
0.457900,-2.448538
0.458000,-2.605961
0.458100,-2.663412
0.458200,-2.616023
0.458300,-2.601092
0.458400,-2.634200
0.458500,-2.735470
0.458600,-2.809150
0.458700,-2.852320
0.458800,-2.891595
0.458900,-2.998058
0.459000,-3.072063
0.459100,-3.171711
0.459200,-3.206117
0.459300,-3.277201
0.459400,-3.347960
0.459500,-3.431378
0.459600,-3.518367
0.459700,-3.488505
0.459800,-3.338223
0.459900,-3.295053
0.460000,-3.472276
0.460100,-3.811792
0.460200,-4.051986
0.460300,-3.992911
0.460400,-3.733243
0.460500,-3.595618
0.460600,-3.727075
0.460700,-3.968892
0.460800,-4.184417
0.460900,-4.233429
0.461000,-4.088015
0.461100,-3.947794
0.461200,-3.848146
0.461300,-3.922151
0.461400,-3.968243
0.461500,-3.952662
0.461600,-3.905273
0.461700,-3.850093
0.461800,-3.786475
0.461900,-3.708250
0.462000,-3.548229
0.462100,-3.374901
0.462200,-3.297000
0.462300,-3.288886
0.462400,-3.261945
0.462500,-3.211310
0.462600,-2.997084
0.462700,-2.812071
0.462800,-2.715670
0.462900,-2.412184
0.463000,-2.378103
0.463100,-2.324222
0.463200,-2.165177
0.463300,-2.011649
0.463400,-1.839620
0.463500,-1.679276
0.463600,-1.608192
0.463700,-1.485825
0.463800,-1.451744
0.463900,-1.337815
0.464000,-1.313147
0.464100,-1.206359
0.464200,-1.169357
0.464300,-1.028813
0.464400,-1.007390
0.464500,-0.848670
0.464600,-0.882751
0.464700,-0.758111
0.464800,-0.729224
0.464900,-0.424117
0.465000,-0.099210
0.465100,0.235433
0.465200,-0.099535
0.465300,-0.399449
0.465400,-0.353358
0.465500,-0.089798
0.465600,0.229266
0.465700,0.450955
0.465800,0.370784
0.465900,0.173114
0.466000,0.102679
0.466100,0.217906
0.466200,0.448359
0.466300,0.545733
0.466400,0.659986
0.466500,0.637914
0.466600,0.671022
0.466700,0.622334
0.466800,0.908615
0.466900,0.899852
0.467000,1.192949
0.467100,1.178992
0.467200,1.755449
0.467300,1.724938
0.467400,1.758370
0.467500,0.938802
0.467600,0.973207
0.467700,0.348388
0.467800,1.012482
0.467900,0.894983
0.468000,1.014429
0.468100,0.013095
0.468200,-0.327067
0.468300,-0.375429
0.468400,-0.290714
0.468500,-0.087201
0.468600,-0.149845
0.468700,-0.440021
0.468800,-0.867171
0.468900,-1.031085
0.469000,-0.895085
0.469100,-0.806474
0.469200,-0.859706
0.469300,-1.089185
0.469400,-1.318340
0.469500,-1.400784
0.469600,-1.391696
0.469700,-1.448173
0.469800,-1.527047
0.469900,-1.665319
0.470000,-1.768536
0.470100,-1.886684
0.470200,-1.887009
0.470300,-1.943162
0.470400,-2.026255
0.470500,-2.052546
0.470600,-2.040537
0.470700,-1.997043
0.470800,-1.964584
0.470900,-2.061310
0.471000,-2.197310
0.471100,-2.231391
0.471200,-2.192117
0.471300,-2.015544
0.471400,-2.039238
0.471500,-2.080785
0.471600,-2.080460
0.471700,-2.091496
0.471800,-2.086952
0.471900,-2.075916
0.472000,-2.069100
0.472100,-2.062608
0.472200,-2.088900
0.472300,-2.124604
0.472400,-2.135315
0.472500,-2.149597
0.472600,-2.168747
0.472700,-2.167449
0.472800,-2.223601
0.472900,-2.233988
0.473000,-2.315783
0.473100,-2.350514
0.473200,-2.530657
0.473300,-2.852969
0.473400,-3.149314
0.473500,-3.092188
0.473600,-2.779938
0.473700,-2.574152
0.473800,-2.753322
0.473900,-3.152885
0.474000,-3.445985
0.474100,-3.519016
0.474200,-3.334652
0.474300,-3.119128
0.474400,-3.151262
0.474500,-3.289210
0.474600,-3.465784
0.474700,-3.544334
0.474800,-3.455722
0.474900,-3.401841
0.475000,-3.407035
0.475100,-3.455073
0.475200,-3.487532
0.475300,-3.521288
0.475400,-3.487856
0.475500,-3.518692
0.475600,-3.536869
0.475700,-3.582635
0.475800,-3.637490
0.475900,-3.623533
0.476000,-3.601136
0.476100,-3.591399
0.476200,-3.606654
0.476300,-3.584907
0.476400,-3.399245
0.476500,-3.201248
0.476600,-3.119453
0.476700,-3.311931
0.476800,-3.569327
0.476900,-3.630349
0.477000,-3.380743
0.477100,-2.990268
0.477200,-2.872769
0.477300,-2.994488
0.477400,-3.278824
0.477500,-3.361268
0.477600,-3.235654
0.477700,-3.006173
0.477800,-2.888998
0.477900,-2.859461
0.478000,-2.853294
0.478100,-2.848100
0.478200,-2.748453
0.478300,-2.670878
0.478400,-2.602715
0.478500,-2.513454
0.478600,-2.392709
0.478700,-2.161282
0.478800,-2.021062
0.478900,-1.942513
0.479000,-1.873052
0.479100,-1.825663
0.479200,-1.735429
0.479300,-1.481930
0.479400,-1.369949
0.479500,-1.124240
0.479600,-1.028164
0.479700,-0.951887
0.479800,-0.921701
0.479900,-0.795114
0.480000,-0.695792
0.480100,-0.537720
0.480200,-0.473453
0.480300,-0.401396
0.480400,-0.476374
0.480500,-0.409186
0.480600,-0.502990
0.480700,-0.438074
0.480800,-0.417625
0.480900,-0.337129
0.481000,-0.333234
0.481100,-0.317979
0.481200,-0.323821
0.481300,-0.398150
0.481400,-0.359200
0.481500,-0.385492
0.481600,-0.107000
0.481700,0.193887
0.481800,0.228942
0.481900,-0.119984
0.482000,-0.515649
0.482100,-0.460794
0.482200,-0.318952
0.482300,-0.082981
0.482400,-0.020986
0.482500,-0.185874
0.482600,-0.338427
0.482700,-0.514350
0.482800,-0.384193
0.482900,-0.280002
0.483000,-0.134265
0.483100,-0.261826
0.483200,-0.306294
0.483300,-0.304671
0.483400,-0.362446
0.483500,-0.381921
0.483600,-0.351735
0.483700,-0.356928
0.483800,-0.357253
0.483900,-0.389711
0.484000,-0.475076
0.484100,-0.596470
0.484200,-0.506561
0.484300,-0.613023
0.484400,-0.632174
0.484500,-0.591276
0.484600,-0.585759
0.484700,-0.566608
0.484800,-0.801605
0.484900,-1.043095
0.485000,-1.038550
0.485100,-0.792193
0.485200,-0.640937
0.485300,-0.677291
0.485400,-0.975257
0.485500,-1.250827
0.485600,-1.259591
0.485700,-1.046016
0.485800,-0.852565
0.485900,-0.913586
0.486000,-1.043744
0.486100,-1.148908
0.486200,-1.120345
0.486300,-1.162216
0.486400,-1.156374
0.486500,-1.240116
0.486600,-1.295619
0.486700,-1.369624
0.486800,-1.431619
0.486900,-1.421557
0.487000,-1.472517
0.487100,-1.548145
0.487200,-1.559830
0.487300,-1.542951
0.487400,-1.534188
0.487500,-1.532240
0.487600,-1.695830
0.487700,-1.839295
0.487800,-1.869157
0.487900,-1.814952
0.488000,-1.711410
0.488100,-1.800670
0.488200,-1.822417
0.488300,-1.797099
0.488400,-1.817224
0.488500,-1.811381
0.488600,-1.813004
0.488700,-1.790932
0.488800,-1.806512
0.488900,-1.794178
0.489000,-1.804240
0.489100,-1.815601
0.489200,-1.849357
0.489300,-1.901940
0.489400,-1.914598
0.489500,-1.950627
0.489600,-2.013596
0.489700,-2.024957
0.489800,-2.103830
0.489900,-2.227821
0.490000,-2.587459
0.490100,-2.781885
0.490200,-2.638419
0.490300,-2.336232
0.490400,-2.152193
0.490500,-2.374208
0.490600,-2.721513
0.490700,-3.014937
0.490800,-3.004225
0.490900,-2.881857
0.491000,-2.717942
0.491100,-2.799088
0.491200,-3.032464
0.491300,-3.253831
0.491400,-3.312256
0.491500,-3.319721
0.491600,-3.300571
0.491700,-3.383989
0.491800,-3.465135
0.491900,-3.539141
0.492000,-3.574196
0.492100,-3.590425
0.492200,-3.653395
0.492300,-3.702407
0.492400,-3.753042
0.492500,-3.793940
0.492600,-3.786475
0.492700,-3.761157
0.492800,-3.820556
0.492900,-3.856261
0.493000,-3.845225
0.493100,-3.655667
0.493200,-3.479092
0.493300,-3.481040
0.493400,-3.756288
0.493500,-3.948118
0.493600,-3.976033
0.493700,-3.659237
0.493800,-3.361593
0.493900,-3.291482
0.494000,-3.473250
0.494100,-3.702407
0.494200,-3.738436
0.494300,-3.535246
0.494400,-3.309010
0.494500,-3.226566
0.494600,-3.214231
0.494700,-3.195730
0.494800,-3.109066
0.494900,-2.994163
0.495000,-2.906201
0.495100,-2.799413
0.495200,-2.682563
0.495300,-2.494953
0.495400,-2.258981
0.495500,-2.051897
0.495600,-1.944785
0.495700,-1.857472
0.495800,-1.793854
0.495900,-1.653959
0.496000,-1.409223
0.496100,-1.279390
0.496200,-0.969090
0.496300,-0.991161
0.496400,-0.919104
0.496500,-0.857434
0.496600,-0.710723
0.496700,-0.602961
0.496800,-0.500069
0.496900,-0.443916
0.497000,-0.450083
0.497100,-0.460794
0.497200,-0.460470
0.497300,-0.502341
0.497400,-0.507859
0.497500,-0.509806
0.497600,-0.480919
0.497700,-0.524088
0.497800,-0.469558
0.497900,-0.602961
0.498000,-0.578618
0.498100,-0.706828
0.498200,-0.505911
0.498300,-0.290064
0.498400,0.057563
0.498500,0.053668
0.498600,-0.363420
0.498700,-0.538370
0.498800,-0.387114
0.498900,-0.127124
0.499000,0.143901
0.499100,0.248741
0.499200,0.103004
0.499300,-0.115764
0.499400,-0.021960
0.499500,0.086775
0.499600,0.288665
0.499700,0.355204
0.499800,0.333132
0.499900,0.192913
0.500000,0.212388
0.500100,0.235433
0.500200,0.239328
0.500300,0.238679
0.500400,0.206870
0.500500,0.199405
0.500600,0.109820
0.500700,-0.006705
0.500800,-0.093693
0.500900,-0.141081
0.501000,-0.239105
0.501100,-0.289415
0.501200,-0.224499
0.501300,-0.265721
0.501400,-0.305969
0.501500,-0.637692
0.501600,-0.855811
0.501700,-0.764279
0.501800,-0.578618
0.501900,-0.470532
0.502000,-0.676641
0.502100,-1.049911
0.502200,-1.331648
0.502300,-1.307629
0.502400,-1.115152
0.502500,-0.996355
0.502600,-1.176822
0.502700,-1.403056
0.502800,-1.559505
0.502900,-1.506273
0.503000,-1.528670
0.503100,-1.496536
0.503200,-1.610140
0.503300,-1.699400
0.503400,-1.786064
0.503500,-1.807811
0.503600,-1.779247
0.503700,-1.789309
0.503800,-1.823391
0.503900,-1.820794
0.504000,-1.766913
0.504100,-1.735753
0.504200,-1.738675
0.504300,-1.923687
0.504400,-1.973673
0.504500,-1.964909
0.504600,-1.776651
0.504700,-1.792555
0.504800,-1.874999
0.504900,-1.877921
0.505000,-1.878245
0.505100,-1.880517
0.505200,-1.870455
0.505300,-1.900641
0.505400,-1.884737
0.505500,-1.923687
0.505600,-1.918493
0.505700,-1.936346
0.505800,-1.971076
0.505900,-1.994446
0.506000,-2.032097
0.506100,-2.082083
0.506200,-2.121682
0.506300,-2.187573
0.506400,-2.281377
0.506500,-2.343048
0.506600,-2.621541
0.506700,-2.934764
0.506800,-3.026622
0.506900,-2.806878
0.507000,-2.550782
0.507100,-2.563765
0.507200,-2.816291
0.507300,-3.218451
0.507400,-3.374576
0.507500,-3.300246
0.507600,-3.094784
0.507700,-2.999356
0.507800,-3.141200
0.507900,-3.347636
0.508000,-3.560563
0.508100,-3.539465
0.508200,-3.522262
0.508300,-3.442414
0.508400,-3.473250
0.508500,-3.468381
0.508600,-3.482987
0.508700,-3.465460
0.508800,-3.459617
0.508900,-3.453775
0.509000,-3.431378
0.509100,-3.469679
0.509200,-3.473574
0.509300,-3.409631
0.509400,-3.414500
0.509500,-3.396323
0.509600,-3.405087
0.509700,-3.308361
0.509800,-3.108741
0.509900,-2.953266
0.510000,-3.026622
0.510100,-3.305440
0.510200,-3.453126
0.510300,-3.431378
0.510400,-3.140551
0.510500,-2.932492
0.510600,-3.004225
0.510700,-3.246690
0.510800,-3.481365
0.510900,-3.490453
0.511000,-3.329783
0.511100,-3.174632
0.511200,-3.136656
0.511300,-3.161649
0.511400,-3.200923
0.511500,-3.161973
0.511600,-3.104846
0.511700,-3.060054
0.511800,-3.007796
0.511900,-2.930869
0.512000,-2.803957
0.512100,-2.665035
0.512200,-2.606285
0.512300,-2.617970
0.512400,-2.598171
0.512500,-2.597197
0.512600,-2.419974
0.512700,-2.289167
0.512800,-2.191143
0.512900,-2.019114
0.513000,-2.065854
0.513100,-2.023334
0.513200,-1.942837
0.513300,-1.834751
0.513400,-1.725367
0.513500,-1.648116
0.513600,-1.627992
0.513700,-1.568269
0.513800,-1.658178
0.513900,-1.603648
0.514000,-1.675381
0.514100,-1.563075
0.514200,-1.560154
0.514300,-1.495887
0.514400,-1.501405
0.514500,-1.540030
0.514600,-1.535486
0.514700,-1.554961
0.514800,-1.463429
0.514900,-1.302111
0.515000,-0.820107
0.515100,-0.732794
0.515200,-0.774665
0.515300,-1.302111
0.515400,-1.298216
0.515500,-1.133653
0.515600,-0.791543
0.515700,-0.529930
0.515800,-0.608155
0.515900,-0.765577
0.516000,-0.916183
0.516100,-0.865548
0.516200,-0.623735
0.516300,-0.438723
0.516400,-0.387114
0.516500,-0.394255
0.516600,-0.420222
0.516700,-0.428012
0.516800,-0.407563
0.516900,-0.371535
0.517000,-0.352060
0.517100,-0.323496
0.517200,-0.277406
0.517300,-0.325444
0.517400,-0.402045
0.517500,-0.553300
0.517600,-0.522465
0.517700,-0.627630
0.517800,-0.568231
0.517900,-0.547782
0.518000,-0.568880
0.518100,-0.680536
0.518200,-1.064192
0.518300,-1.058999
0.518400,-0.910990
0.518500,-0.681186
0.518600,-0.638990
0.518700,-0.841529
0.518800,-1.190779
0.518900,-1.245309
0.519000,-1.088861
0.519100,-0.863925
0.519200,-0.807448
0.519300,-0.989863
0.519400,-1.120670
0.519500,-1.153128
0.519600,-1.070684
0.519700,-1.077500
0.519800,-1.102818
0.519900,-1.168708
0.520000,-1.217395
0.520100,-1.235572
0.520200,-1.188183
0.520300,-1.251152
0.520400,-1.303409
0.520500,-1.336517
0.520600,-1.303409
0.520700,-1.258942
0.520800,-1.239467
0.520900,-1.299839
0.521000,-1.481930
0.521100,-1.483228
0.521200,-1.466025
0.521300,-1.374168
0.521400,-1.393643
0.521500,-1.425128
0.521600,-1.405328
0.521700,-1.414092
0.521800,-1.461481
0.521900,-1.447199
0.522000,-1.480956
0.522100,-1.490694
0.522200,-1.511467
0.522300,-1.536784
0.522400,-1.558207
0.522500,-1.571515
0.522600,-1.587095
0.522700,-1.602350
0.522800,-1.672460
0.522900,-1.697453
0.523000,-1.786713
0.523100,-1.846111
0.523200,-1.910379
0.523300,-2.259306
0.523400,-2.556299
0.523500,-2.527736
0.523600,-2.223277
0.523700,-2.025930
0.523800,-2.101883
0.523900,-2.451134
0.524000,-2.758515
0.524100,-2.771498
0.524200,-2.592977
0.524300,-2.383621
0.524400,-2.386218
0.524500,-2.531307
0.524600,-2.758840
0.524700,-2.800711
0.524800,-2.778639
0.524900,-2.698792
0.525000,-2.707231
0.525100,-2.784157
0.525200,-2.802659
0.525300,-2.833494
0.525400,-2.810773
0.525500,-2.815966
0.525600,-2.829599
0.525700,-2.890945
0.525800,-2.886077
0.525900,-2.927299
0.526000,-2.920158
0.526100,-2.911719
0.526200,-2.929246
0.526300,-2.941905
0.526400,-2.867251
0.526500,-2.631927
0.526600,-2.583564
0.526700,-2.792921
0.526800,-3.105171
0.526900,-3.226241
0.527000,-3.064598
0.527100,-2.745856
0.527200,-2.641016
0.527300,-2.813370
0.527400,-3.134384
0.527500,-3.314853
0.527600,-3.214880
0.527700,-3.015586
0.527800,-2.906850
0.527900,-2.903929
0.528000,-2.968846
0.528100,-3.002278
0.528200,-2.952616
0.528300,-2.916912
0.528400,-2.845179
0.528500,-2.794869
0.528600,-2.663087
0.528700,-2.472557
0.528800,-2.337206
0.528900,-2.256384
0.529000,-2.242427
0.529100,-2.224251
0.529200,-2.177511
0.529300,-1.999964
0.529400,-1.834751
0.529500,-1.705567
0.529600,-1.580603
0.529700,-1.570865
0.529800,-1.537758
0.529900,-1.437462
0.530000,-1.329376
0.530100,-1.204412
0.530200,-1.137548
0.530300,-1.155400
0.530400,-1.198245
0.530500,-1.222588
0.530600,-1.244985
0.530700,-1.256020
0.530800,-1.300164
0.530900,-1.228431
0.531000,-1.333920
0.531100,-1.270302
0.531200,-1.426751
0.531300,-1.386503
0.531400,-1.600727
0.531500,-1.494588
0.531600,-1.262188
0.531700,-0.945395
0.531800,-0.842178
0.531900,-1.201815
0.532000,-1.622799
0.532100,-1.591639
0.532200,-1.318016
0.532300,-0.978503
0.532400,-0.918455
0.532500,-0.972011
0.532600,-1.221290
0.532700,-1.316068
0.532800,-1.294646
0.532900,-1.058674
0.533000,-0.976880
0.533100,-0.916508
0.533200,-1.003496
0.533300,-1.074904
0.533400,-1.070035
0.533500,-1.058999
0.533600,-1.071009
0.533700,-1.053157
0.533800,-1.106388
0.533900,-1.144040
0.534000,-1.144040
0.534100,-1.281338
0.534200,-1.268355
0.534300,-1.368001
0.534400,-1.354693
0.534500,-1.274197
0.534600,-1.263486
0.534700,-1.193376
0.534800,-1.379037
0.534900,-1.615333
0.535000,-1.502378
0.535100,-1.256670
0.535200,-0.884698
0.535300,-0.899954
0.535400,-1.033682
0.535500,-1.325806
0.535600,-1.261538
0.535700,-1.017453
0.535800,-0.747725
0.535900,-0.693844
0.536000,-0.836011
0.536100,-0.970064
0.536200,-0.944422
0.536300,-0.927868
0.536400,-0.842827
0.536500,-0.823028
0.536600,-0.863601
0.536700,-0.931114
0.536800,-0.966169
0.536900,-0.861329
0.537000,-0.834388
0.537100,-0.848345
0.537200,-0.815563
0.537300,-0.761357
0.537400,-0.700336
0.537500,-0.674694
0.537600,-0.788298
0.537700,-0.960975
0.537800,-1.013233
0.537900,-1.014856
0.538000,-0.865224
0.538100,-0.965519
0.538200,-1.001548
0.538300,-1.026541
0.538400,-1.032383
0.538500,-1.057052
0.538600,-1.089834
0.538700,-1.087238
0.538800,-1.114178
0.538900,-1.131056
0.539000,-1.151505
0.539100,-1.236221
0.539200,-1.212202
0.539300,-1.301462
0.539400,-1.309252
0.539500,-1.414741
0.539600,-1.488421
0.539700,-1.637080
0.539800,-1.756527
0.539900,-1.956145
0.540000,-2.430361
0.540100,-2.670878
0.540200,-2.637121
0.540300,-2.341101
0.540400,-2.255411
0.540500,-2.496576
0.540600,-2.907499
0.540700,-3.231759
0.540800,-3.224293
0.540900,-3.081476
0.541000,-2.913666
0.541100,-3.011691
0.541200,-3.230461
0.541300,-3.442739
0.541400,-3.523561
0.541500,-3.467407
0.541600,-3.416772
0.541700,-3.382042
0.541800,-3.428782
0.541900,-3.417746
0.542000,-3.382042
0.542100,-3.303817
0.542200,-3.251559
0.542300,-3.256752
0.542400,-3.196055
0.542500,-3.166517
0.542600,-3.085047
0.542700,-3.006822
0.542800,-3.005848
0.542900,-2.934764
0.543000,-2.878936
0.543100,-2.614075
0.543200,-2.393359
0.543300,-2.367392
0.543400,-2.510533
0.543500,-2.669904
0.543600,-2.680940
0.543700,-2.347592
0.543800,-2.052222
0.543900,-1.984708
0.544000,-2.099611
0.544100,-2.222628
0.544200,-2.233014
0.544300,-2.095067
0.544400,-1.871104
0.544500,-1.719200
0.544600,-1.687391
0.544700,-1.693233
0.544800,-1.632536
0.544900,-1.559180
0.545000,-1.535161
0.545100,-1.479658
0.545200,-1.436164
0.545300,-1.325156
0.545400,-1.150207
0.545500,-1.063219
0.545600,-1.068087
0.545700,-1.096651
0.545800,-1.130407
0.545900,-1.077825
0.546000,-0.917157
0.546100,-0.889567
0.546200,-0.675019
0.546300,-0.762656
0.546400,-0.750646
0.546500,-0.739286
0.546600,-0.687677
0.546700,-0.662684
0.546800,-0.637367
0.546900,-0.608479
0.547000,-0.688651
0.547100,-0.762980
0.547200,-0.861329
0.547300,-0.936307
0.547400,-1.065166
0.547500,-1.089510
0.547600,-1.178445
0.547700,-1.219992
0.547800,-1.345605
0.547900,-1.424154
0.548000,-1.590016
0.548100,-1.697777
0.548200,-1.686417
0.548300,-1.420259
0.548400,-1.212851
0.548500,-1.291725
0.548600,-1.831181
0.548700,-2.223601
0.548800,-2.134990
0.548900,-1.868508
0.549000,-1.654932
0.549100,-1.512765
0.549200,-1.780546
0.549300,-1.981787
0.549400,-1.995095
0.549500,-1.852279
0.549600,-1.654932
0.549700,-1.530942
0.549800,-1.608192
0.549900,-1.536784
0.550000,-1.545223
0.550100,-1.441357
0.550200,-1.370598
0.550300,-1.321911
0.550400,-1.284584
0.550500,-1.270627
0.550600,-1.231352
0.550700,-1.193051
0.550800,-1.228431
0.550900,-1.203438
0.551000,-1.255047
0.551100,-1.219343
0.551200,-1.055753
0.551300,-1.012908
0.551400,-1.006417
0.551500,-1.282961
0.551600,-1.472841
0.551700,-1.343009
0.551800,-1.119047
0.551900,-0.857434
0.552000,-0.983371
0.552100,-1.248880
0.552200,-1.412145
0.552300,-1.280689
0.552400,-1.063219
0.552500,-0.884374
0.552600,-0.891839
0.552700,-1.039200
0.552800,-1.144689
0.552900,-1.071333
0.553000,-1.066140
0.553100,-0.981099
0.553200,-1.060947
0.553300,-1.172603
0.553400,-1.225510
0.553500,-1.205386
0.553600,-1.165462
0.553700,-1.177147
0.553800,-1.220641
0.553900,-1.228431
0.554000,-1.174550
0.554100,-1.119696
0.554200,-1.102818
0.554300,-1.283610
0.554400,-1.370598
0.554500,-1.384230
0.554600,-1.278417
0.554700,-1.244011
0.554800,-1.321261
0.554900,-1.322235
0.555000,-1.340412
0.555100,-1.349500
0.555200,-1.340087
0.555300,-1.379362
0.555400,-1.388775
0.555500,-1.402407
0.555600,-1.422856
0.555700,-1.398188
0.555800,-1.431944
0.555900,-1.436813
0.556000,-1.477061
0.556100,-1.516985
0.556200,-1.555935
0.556300,-1.603324
0.556400,-1.678951
0.556500,-1.749710
0.556600,-1.983410
0.556700,-2.421273
0.556800,-2.498524
0.556900,-2.379726
0.557000,-2.040212
0.557100,-2.078837
0.557200,-2.309291
0.557300,-2.795518
0.557400,-3.006822
0.557500,-2.943203
0.557600,-2.732224
0.557700,-2.660166
0.557800,-2.771498
0.557900,-3.006822
0.558000,-3.232733
0.558100,-3.302194
0.558200,-3.239873
0.558300,-3.218775
0.558400,-3.244093
0.558500,-3.355750
0.558600,-3.423913
0.558700,-3.413202
0.558800,-3.393077
0.558900,-3.427483
0.559000,-3.478443
0.559100,-3.490128
0.559200,-3.558940
0.559300,-3.526157
0.559400,-3.517718
0.559500,-3.546931
0.559600,-3.575494
0.559700,-3.529079
0.559800,-3.264542
0.559900,-3.099978
0.560000,-3.183720
0.560100,-3.402166
0.560200,-3.531675
0.560300,-3.519990
0.560400,-3.228838
0.560500,-2.948721
0.560600,-2.956836
0.560700,-3.172360
0.560800,-3.373927
0.560900,-3.409631
0.561000,-3.256427
0.561100,-3.065572
0.561200,-2.969170
0.561300,-2.941580
0.561400,-2.954564
0.561500,-2.951967
0.561600,-2.895490
0.561700,-2.819212
0.561800,-2.729627
0.561900,-2.624137
0.562000,-2.486189
0.562100,-2.331688
0.562200,-2.250217
0.562300,-2.228470
0.562400,-2.216785
0.562500,-2.231391
0.562600,-2.100260
0.562700,-1.937319
0.562800,-1.917195
0.562900,-1.646818
0.563000,-1.686741
0.563100,-1.630913
0.563200,-1.564374
0.563300,-1.444927
0.563400,-1.329376
0.563500,-1.212526
0.563600,-1.136250
0.563700,-1.107686
0.563800,-1.111257
0.563900,-1.111906
0.564000,-1.140794
0.564100,-1.062569
0.564200,-1.072307
0.564300,-1.023944
0.564400,-1.094054
0.564500,-1.081395
0.564600,-1.206035
0.564700,-1.187858
0.564800,-1.179094
0.564900,-1.006741
0.565000,-0.677615
0.565100,-0.518570
0.565200,-0.578293
0.565300,-1.128784
0.565400,-1.222588
0.565500,-1.090808
0.565600,-0.671124
0.565700,-0.583811
0.565800,-0.515649
0.565900,-0.762656
0.566000,-0.930465
0.566100,-0.926894
0.566200,-0.762006
0.566300,-0.587706
0.566400,-0.618541
0.566500,-0.629252
0.566600,-0.716240
0.566700,-0.764603
0.566800,-0.860355
0.566900,-0.863601
0.567000,-0.866522
0.567100,-0.906121
0.567200,-0.902875
0.567300,-0.989538
0.567400,-0.975257
0.567500,-1.288154
0.567600,-1.213176
0.567700,-1.390398
0.567800,-1.269653
0.567900,-1.262512
0.568000,-1.243037
0.568100,-1.373519
0.568200,-1.714331
0.568300,-1.758150
0.568400,-1.640326
0.568500,-1.360536
0.568600,-1.385853
0.568700,-1.493290
0.568800,-1.841892
0.568900,-1.897396
0.569000,-1.829558
0.569100,-1.592288
0.569200,-1.560803
0.569300,-1.666617
0.569400,-1.799047
0.569500,-1.844489
0.569600,-1.790932
0.569700,-1.819171
0.569800,-1.833777
0.569900,-1.938618
0.570000,-2.013596
0.570100,-2.035343
0.570200,-1.997043
0.570300,-2.013921
0.570400,-2.074618
0.570500,-2.096365
0.570600,-2.041835
0.570700,-1.968155
0.570800,-1.921415
0.570900,-1.943811
0.571000,-2.102857
0.571100,-2.143429
0.571200,-2.122981
0.571300,-1.907133
0.571400,-1.917195
0.571500,-1.967181
0.571600,-1.939267
0.571700,-1.919467
0.571800,-1.904536
0.571900,-1.882465
0.572000,-1.860718
0.572100,-1.856174
0.572200,-1.847734
0.572300,-1.821119
0.572400,-1.829233
0.572500,-1.844489
0.572600,-1.856823
0.572700,-1.850980
0.572800,-1.809109
0.572900,-1.860393
0.573000,-1.856498
0.573100,-1.919467
0.573200,-1.919467
0.573300,-2.226523
0.573400,-2.497874
0.573500,-2.439774
0.573600,-2.105778
0.573700,-1.816574
0.573800,-1.873052
0.573900,-2.127525
0.574000,-2.478075
0.574100,-2.517674
0.574200,-2.368041
0.574300,-2.195363
0.574400,-2.153492
0.574500,-2.283325
0.574600,-2.498524
0.574700,-2.607584
0.574800,-2.612452
0.574900,-2.612128
0.575000,-2.631603
0.575100,-2.674448
0.575200,-2.688405
0.575300,-2.723460
0.575400,-2.714696
0.575500,-2.775393
0.575600,-2.811747
0.575700,-2.906201
0.575800,-2.952292
0.575900,-2.945151
0.576000,-2.884778
0.576100,-2.917886
0.576200,-2.952941
0.576300,-3.010717
0.576400,-2.950344
0.576500,-2.699116
0.576600,-2.634849
0.576700,-2.790974
0.576800,-3.087968
0.576900,-3.156131
0.577000,-3.049018
0.577100,-2.767603
0.577200,-2.681264
0.577300,-2.824406
0.577400,-3.127892
0.577500,-3.280447
0.577600,-3.230461
0.577700,-3.043500
0.577800,-2.967872
0.577900,-3.036034
0.578000,-3.142823
0.578100,-3.160675
0.578200,-3.117830
0.578300,-3.073686
0.578400,-3.048044
0.578500,-3.055185
0.578600,-3.019805
0.578700,-2.846477
0.578800,-2.687431
0.578900,-2.606610
0.579000,-2.598171
0.579100,-2.583240
0.579200,-2.557273
0.579300,-2.344996
0.579400,-2.165177
0.579500,-1.955496
0.579600,-1.824689
0.579700,-1.813653
0.579800,-1.727963
0.579900,-1.581577
0.580000,-1.465051
0.580100,-1.340412
0.580200,-1.243362
0.580300,-1.260240
0.580400,-1.255696
0.580500,-1.215448
0.580600,-1.176173
0.580700,-1.222588
0.580800,-1.182340
0.580900,-1.162216
0.581000,-1.125538
0.581100,-1.162541
0.581200,-1.108336
0.581300,-1.243362
0.581400,-1.227782
0.581500,-1.227782
0.581600,-0.942474
0.581700,-0.640288
0.581800,-0.494876
0.581900,-0.801281
0.582000,-1.119047
0.582100,-1.194674
0.582200,-0.962923
0.582300,-0.677291
0.582400,-0.554923
0.582500,-0.633797
0.582600,-0.780183
0.582700,-0.902226
0.582800,-0.753567
0.582900,-0.575696
0.583000,-0.458847
0.583100,-0.490656
0.583200,-0.521816
0.583300,-0.583162
0.583400,-0.537071
0.583500,-0.522465
0.583600,-0.406265
0.583700,-0.373157
0.583800,-0.363095
0.583900,-0.362122
0.584000,-0.425740
0.584100,-0.446188
0.584200,-0.427363
0.584300,-0.470857
0.584400,-0.539668
0.584500,-0.485787
0.584600,-0.440995
0.584700,-0.486436
0.584800,-0.617892
0.584900,-1.003171
0.585000,-0.951887
0.585100,-0.741558
0.585200,-0.501043
0.585300,-0.544861
0.585400,-0.780183
0.585500,-1.133978
0.585600,-1.134302
0.585700,-0.960651
0.585800,-0.679563
0.585900,-0.667229
0.586000,-0.847696
0.586100,-1.045691
0.586200,-1.059324
0.586300,-1.018426
0.586400,-0.918455
0.586500,-0.947343
0.586600,-1.039849
0.586700,-1.164164
0.586800,-1.231028
0.586900,-1.153452
0.587000,-1.145013
0.587100,-1.182016
0.587200,-1.193376
0.587300,-1.131056
0.587400,-1.088211
0.587500,-1.061920
0.587600,-1.159944
0.587700,-1.281338
0.587800,-1.288154
0.587900,-1.245309
0.588000,-1.073281
0.588100,-1.093729
0.588200,-1.121319
0.588300,-1.086913
0.588400,-1.071982
0.588500,-1.049911
0.588600,-1.030760
0.588700,-0.983696
0.588800,-1.018426
0.588900,-1.012584
0.589000,-1.017777
0.589100,-1.014856
0.589200,-1.034980
0.589300,-1.051209
0.589400,-1.069710
0.589500,-1.071982
0.589600,-1.110932
0.589700,-1.203438
0.589800,-1.210254
0.589900,-1.380335
0.590000,-1.712708
0.590100,-2.021386
0.590200,-1.877921
0.590300,-1.644870
0.590400,-1.463753
0.590500,-1.614359
0.590600,-1.983735
0.590700,-2.277482
0.590800,-2.351487
0.590900,-2.203153
0.591000,-2.097663
0.591100,-2.121358
0.591200,-2.334934
0.591300,-2.552404
0.591400,-2.682563
0.591500,-2.629980
0.591600,-2.595574
0.591700,-2.638744
0.591800,-2.756892
0.591900,-2.813045
0.592000,-2.849074
0.592100,-2.902955
0.592200,-2.926000
0.592300,-2.931518
0.592400,-3.058755
0.592500,-3.100627
0.592600,-3.098679
0.592700,-3.061027
0.592800,-3.188589
0.592900,-3.226890
0.593000,-3.243444
0.593100,-3.054536
0.593200,-2.892893
0.593300,-2.945800
0.593400,-3.181124
0.593500,-3.446309
0.593600,-3.429106
0.593700,-3.283692
0.593800,-3.036359
0.593900,-2.956836
0.594000,-3.097381
0.594100,-3.308036
0.594200,-3.479092
0.594300,-3.408982
0.594400,-3.236303
0.594500,-3.154508
0.594600,-3.137629
0.594700,-3.176255
0.594800,-3.210336
0.594900,-3.210661
0.595000,-3.212608
0.595100,-3.169763
0.595200,-3.102574
0.595300,-2.995786
0.595400,-2.836415
0.595500,-2.750401
0.595600,-2.716319
0.595700,-2.730276
0.595800,-2.733847
0.595900,-2.670228
0.596000,-2.502419
0.596100,-2.452108
0.596200,-2.233014
0.596300,-2.260604
0.596400,-2.263525
0.596500,-2.241778
0.596600,-2.135964
0.596700,-2.067477
0.596800,-1.934398
0.596900,-1.887009
0.597000,-1.853577
0.597100,-1.963610
0.597200,-1.914923
0.597300,-1.969453
0.597400,-1.968804
0.597500,-1.918493
0.597600,-1.917520
0.597700,-1.845787
0.597800,-1.901615
0.597900,-1.854551
0.598000,-1.952250
0.598100,-1.911677
0.598200,-1.819820
0.598300,-1.464078
0.598400,-1.134627
0.598500,-1.189157
0.598600,-1.499133
0.598700,-1.824364
0.598800,-1.660775
0.598900,-1.380660
0.599000,-1.151830
0.599100,-1.033682
0.599200,-1.140469
0.599300,-1.239142
0.599400,-1.238818
0.599500,-1.022970
0.599600,-0.866522
0.599700,-0.736040
0.599800,-0.757138
0.599900,-0.696766
0.600000,-0.780832
0.600100,-0.730522
0.600200,-0.709100
0.600300,-0.611400
0.600400,-0.585759
0.600500,-0.601014
0.600600,-0.535124
0.600700,-0.538045
0.600800,-0.706178
0.600900,-0.780832
0.601000,-0.873663
0.601100,-0.760708
0.601200,-0.666904
0.601300,-0.693195
0.601400,-0.694818
0.601500,-1.093080
0.601600,-1.189806
0.601700,-1.103142
0.601800,-0.760384
0.601900,-0.657491
0.602000,-0.807773
0.602100,-0.973959
0.602200,-1.210579
0.602300,-1.120020
0.602400,-0.968765
0.602500,-0.788298
0.602600,-0.756164
0.602700,-0.890216
0.602800,-1.044068
0.602900,-1.040822
0.603000,-1.069061
0.603100,-1.000899
0.603200,-1.133653
0.603300,-1.203438
0.603400,-1.291075
0.603500,-1.340736
0.603600,-1.350798
0.603700,-1.405653
0.603800,-1.487448
0.603900,-1.492316
0.604000,-1.472841
0.604100,-1.424154
0.604200,-1.449472
0.604300,-1.607219
0.604400,-1.763667
0.604500,-1.818197
0.604600,-1.730235
0.604700,-1.738025
0.604800,-1.828584
0.604900,-1.902264
0.605000,-1.948680
0.605100,-2.015219
0.605200,-2.089549
0.605300,-2.143105
0.605400,-2.204127
0.605500,-2.293387
0.605600,-2.322275
0.605700,-2.394008
0.605800,-2.437502
0.605900,-2.469960
0.606000,-2.504691
0.606100,-2.547860
0.606200,-2.615698
0.606300,-2.669255
0.606400,-2.709178
0.606500,-2.812721
0.606600,-3.031490
0.606700,-3.350557
0.606800,-3.522911
0.606900,-3.282719
0.607000,-3.009094
0.607100,-2.937685
0.607200,-3.255454
0.607300,-3.613146
0.607400,-3.835162
0.607500,-3.824451
0.607600,-3.612172
0.607700,-3.497269
0.607800,-3.576793
0.607900,-3.833215
0.608000,-4.032186
0.608100,-4.121447
0.608200,-4.079251
0.608300,-4.043871
0.608400,-4.018553
0.608500,-4.052310
0.608600,-4.070487
0.608700,-4.098726
0.608800,-4.041599
0.608900,-4.012386
0.609000,-3.991613
0.609100,-4.026993
0.609200,-3.937407
0.609300,-3.856261
0.609400,-3.814714
0.609500,-3.813740
0.609600,-3.773816
0.609700,-3.642683
0.609800,-3.334328
0.609900,-3.123348
0.610000,-3.202222
0.610100,-3.444686
0.610200,-3.580363
0.610300,-3.464811
0.610400,-3.228188
0.610500,-2.964301
0.610600,-2.925676
0.610700,-3.119777
0.610800,-3.341793
0.610900,-3.466434
0.611000,-3.328485
0.611100,-3.119128
0.611200,-3.033762
0.611300,-3.024349
0.611400,-3.095758
0.611500,-3.139901
0.611600,-3.092188
0.611700,-3.028894
0.611800,-2.927623
0.611900,-2.851995
0.612000,-2.728329
0.612100,-2.568309
0.612200,-2.489435
0.612300,-2.454705
0.612400,-2.398876
0.612500,-2.375506
0.612600,-2.234962
0.612700,-2.040212
0.612800,-1.959391
0.612900,-1.653309
0.613000,-1.687066
0.613100,-1.627343
0.613200,-1.563725
0.613300,-1.434865
0.613400,-1.278417
0.613500,-1.176822
0.613600,-1.117424
0.613700,-1.122617
0.613800,-1.168708
0.613900,-1.161892
0.614000,-1.233624
0.614100,-1.202464
0.614200,-1.215123
0.614300,-1.170006
0.614400,-1.251801
0.614500,-1.230703
0.614600,-1.349500
0.614700,-1.362808
0.614800,-1.444927
0.614900,-1.249529
0.615000,-1.091133
0.615100,-0.678264
0.615200,-0.938579
0.615300,-1.303085
0.615400,-1.552040
0.615500,-1.418312
0.615600,-1.163190
0.615700,-0.966493
0.615800,-0.938904
0.615900,-1.132679
0.616000,-1.298541
0.616100,-1.357939
0.616200,-1.165787
0.616300,-0.959352
0.616400,-0.817185
0.616500,-0.799009
0.616600,-0.837959
0.616700,-0.910016
0.616800,-0.864574
0.616900,-0.827572
0.617000,-0.774341
0.617100,-0.712670
0.617200,-0.729873
0.617300,-0.721758
0.617400,-0.759734
0.617500,-0.726952
0.617600,-0.805500
0.617700,-0.860679
0.617800,-0.749997
0.617900,-0.724680
0.618000,-0.640937
0.618100,-0.765577
0.618200,-1.052832
0.618300,-1.158970
0.618400,-1.001223
0.618500,-0.746102
0.618600,-0.678589
0.618700,-0.786350
0.618800,-1.053157
0.618900,-1.218044
0.619000,-1.158646
0.619100,-0.957080
0.619200,-0.810694
0.619300,-0.872689
0.619400,-0.978503
0.619500,-1.095677
0.619600,-1.118722
0.619700,-1.173252
0.619800,-1.106713
0.619900,-1.153452
0.620000,-1.233300
0.620100,-1.349176
0.620200,-1.372221
0.620300,-1.402407
0.620400,-1.451744
0.620500,-1.478684
0.620600,-1.413767
0.620700,-1.407276
0.620800,-1.393968
0.620900,-1.426751
0.621000,-1.634159
0.621100,-1.709787
0.621200,-1.750035
0.621300,-1.619228
0.621400,-1.654608
0.621500,-1.757500
0.621600,-1.797749
0.621700,-1.818522
0.621800,-1.848059
0.621900,-1.861042
0.622000,-1.889930
0.622100,-1.897396
0.622200,-1.909730
0.622300,-1.903238
0.622400,-1.885061
0.622500,-1.913949
0.622600,-1.906484
0.622700,-1.910054
0.622800,-1.896422
0.622900,-1.907458
0.623000,-1.965883
0.623100,-1.936021
0.623200,-1.986980
0.623300,-2.167449
0.623400,-2.486189
0.623500,-2.511832
0.623600,-2.224900
0.623700,-1.921739
0.623800,-1.892527
0.623900,-2.183353
0.624000,-2.425492
0.624100,-2.526762
0.624200,-2.350189
0.624300,-2.123305
0.624400,-2.014245
0.624500,-2.133043
0.624600,-2.270341
0.624700,-2.397578
0.624800,-2.376480
0.624900,-2.325845
0.625000,-2.332661
0.625100,-2.346619
0.625200,-2.402122
0.625300,-2.427440
0.625400,-2.447564
0.625500,-2.540395
0.625600,-2.586810
0.625700,-2.665035
0.625800,-2.710152
0.625900,-2.808501
0.626000,-2.792921
0.626100,-2.909771
0.626200,-3.045447
0.626300,-3.130489
0.626400,-3.127567
0.626500,-2.962354
0.626600,-2.954888
0.626700,-3.172360
0.626800,-3.562511
0.626900,-3.741357
0.627000,-3.753367
0.627100,-3.520964
0.627200,-3.433001
0.627300,-3.579389
0.627400,-3.882877
0.627500,-4.166889
0.627600,-4.204541
0.627700,-4.088339
0.627800,-4.016930
0.627900,-4.048415
0.628000,-4.146765
0.628100,-4.184417
0.628200,-4.147089
0.628300,-4.103919
0.628400,-4.090287
0.628500,-4.085093
0.628600,-4.014983
0.628700,-3.891316
0.628800,-3.669299
0.628900,-3.524859
0.629000,-3.483637
0.629100,-3.437546
0.629200,-3.422939
0.629300,-3.187291
0.629400,-2.963652
0.629500,-2.640691
0.629600,-2.550132
0.629700,-2.575774
0.629800,-2.518323
0.629900,-2.356356
0.630000,-2.253788
0.630100,-2.126227
0.630200,-2.046379
0.630300,-2.013596
0.630400,-1.964909
0.630500,-1.960689
0.630600,-1.912326
0.630700,-1.956145
0.630800,-1.890579
0.630900,-1.878245
0.631000,-1.835400
0.631100,-1.804240
0.631200,-1.834426
0.631300,-1.827935
0.631400,-1.888632
0.631500,-1.733806
0.631600,-1.656555
0.631700,-1.187209
0.631800,-1.165137
0.631900,-1.215772
0.632000,-1.743868
0.632100,-1.615982
0.632200,-1.415066
0.632300,-0.995381
0.632400,-0.817835
0.632500,-0.904823
0.632600,-1.061920
0.632700,-1.194999
0.632800,-1.042770
0.632900,-0.790570
0.633000,-0.670150
0.633100,-0.616594
0.633200,-0.600689
0.633300,-0.637692
0.633400,-0.623735
0.633500,-0.583162
0.633600,-0.520842
0.633700,-0.503315
0.633800,-0.511429
0.633900,-0.478971
0.634000,-0.515973
0.634100,-0.558494
0.634200,-0.649377
