0.000100,-3.072063
0.000200,-3.126918
0.000300,-3.153534
0.000400,-3.120426
0.000500,-3.051615
0.000600,-2.968521
0.000700,-2.893867
0.000800,-2.791947
0.000900,-2.626085
0.001000,-2.472557
0.001100,-2.369989
0.001200,-2.338179
0.001300,-2.318380
0.001400,-2.303449
0.001500,-2.115515
0.001600,-1.964584
0.001700,-1.937644
0.001800,-1.657854
0.001900,-1.675381
0.002000,-1.619877
0.002100,-1.532565
0.002200,-1.418961
0.002300,-1.252775
0.002400,-1.157023
0.002500,-1.099572
0.002600,-1.060622
0.002700,-1.087887
0.002800,-1.016154
0.002900,-1.011935
0.003000,-0.981424
0.003100,-0.931438
0.003200,-0.896383
0.003300,-0.922025
0.003400,-0.885672
0.003500,-0.951562
0.003600,-0.904173
0.003700,-0.893787
0.003800,-0.667229
0.003900,-0.356604
0.004000,-0.165425
0.004100,-0.439048
0.004200,-0.830493
0.004300,-0.883076
0.004400,-0.649701
0.004500,-0.354332
0.004600,-0.109272
0.004700,-0.267668
0.004800,-0.437749
0.004900,-0.632498
0.005000,-0.481243
0.005100,-0.363420
0.005200,-0.144327
0.005300,-0.049549
0.005400,-0.140432
0.005500,-0.181979
0.005600,-0.184575
0.005700,-0.129397
0.005800,-0.109922
0.005900,-0.066752
0.006000,-0.099210
0.006100,-0.067401
0.006200,-0.079411
0.006300,-0.228394
0.006400,-0.267344
0.006500,-0.261501
0.006600,-0.374780
0.006700,-0.314084
0.006800,-0.376403
0.006900,0.387987
0.007000,-0.450408
0.007100,-0.720785
0.007200,-0.758111
0.007300,-0.623410
0.007400,-0.014819
0.007500,0.346765
0.007600,-0.596470
0.007700,-0.926894
0.007800,-0.983047
0.007900,-0.797386
0.008000,-0.273511
0.008100,0.164674
0.008200,-0.509806
0.008300,-0.874312
0.008400,-0.951238
0.008500,-0.959028
0.008600,-0.888593
0.008700,-0.891190
0.008800,-0.953510
0.008900,-1.059648
0.009000,-1.148259
0.009100,-1.117424
0.009200,-1.129433
0.009300,-1.174875
0.009400,-1.205710
0.009500,-1.167409
0.009600,-1.157023
0.009700,-1.157997
0.009800,-1.266083
0.009900,-1.423830
0.010000,-1.442655
0.010100,-1.455314
0.010200,-1.338789
0.010300,-1.411820
0.010400,-1.485500
0.010500,-1.513414
0.010600,-1.532889
0.010700,-1.558856
0.010800,-1.593262
0.010900,-1.634808
0.011000,-1.654283
0.011100,-1.671486
0.011200,-1.718875
0.011300,-1.740947
0.011400,-1.793204
0.011500,-1.797099
0.011600,-1.819820
0.011700,-1.853901
0.011800,-1.899343
0.011900,-1.975295
0.012000,-1.954522
0.012100,-2.095067
0.012200,-2.373559
0.012300,-2.666658
0.012400,-2.540719
0.012500,-2.277807
0.012600,-2.065530
0.012700,-2.124604
0.012800,-2.507937
0.012900,-2.760463
0.013000,-2.799088
0.013100,-2.584863
0.013200,-2.437826
0.013300,-2.390437
0.013400,-2.550132
0.013500,-2.729303
0.013600,-2.831547
0.013700,-2.790324
0.013800,-2.693923
0.013900,-2.686133
0.014000,-2.743909
0.014100,-2.767279
0.014200,-2.795842
0.014300,-2.805255
0.014400,-2.795842
0.014500,-2.835766
0.014600,-2.860110
0.014700,-2.873093
0.014800,-2.848100
0.014900,-2.835442
0.015000,-2.849074
0.015100,-2.864329
0.015200,-2.818563
0.015300,-2.714696
0.015400,-2.488786
0.015500,-2.522867
0.015600,-2.686782
0.015700,-2.904902
0.015800,-3.001304
0.015900,-2.803632
0.016000,-2.542018
0.016100,-2.484891
0.016200,-2.729627
0.016300,-2.988321
0.016400,-3.144446
0.016500,-3.105820
0.016600,-2.951318
0.016700,-2.897112
0.016800,-2.927948
0.016900,-2.996760
0.017000,-3.033762
0.017100,-2.987022
0.017200,-2.945800
0.017300,-2.920158
0.017400,-2.881208
0.017500,-2.806229
0.017600,-2.625436
0.017700,-2.504366
0.017800,-2.444643
0.017900,-2.440423
0.018000,-2.444318
0.018100,-2.380700
0.018200,-2.136613
0.018300,-2.025281
0.018400,-1.794178
0.018500,-1.765615
0.018600,-1.738350
0.018700,-1.625395
0.018800,-1.520880
0.018900,-1.428374
0.019000,-1.259266
0.019100,-1.193376
0.019200,-1.175524
0.019300,-1.168059
0.019400,-1.142417
0.019500,-1.122942
0.019600,-1.094703
0.019700,-1.141768
0.019800,-0.995706
0.019900,-1.054779
0.020000,-0.942149
0.020100,-1.032708
0.020200,-1.009013
0.020300,-1.052183
0.020400,-1.060297
0.020500,-0.673071
0.020600,-0.381597
0.020700,-0.239430
0.020800,-0.542265
0.020900,-0.912288
0.021000,-0.803228
0.021100,-0.600689
0.021200,-0.260528
0.021300,-0.242026
0.021400,-0.332585
0.021500,-0.601988
0.021600,-0.619840
0.021700,-0.491630
0.021800,-0.335831
0.021900,-0.237482
0.022000,-0.233587
0.022100,-0.313434
0.022200,-0.348165
0.022300,-0.365043
0.022400,-0.314084
0.022500,-0.292661
0.022600,-0.326093
0.022700,-0.365043
0.022800,-0.315057
0.022900,-0.327067
0.023000,-0.448785
0.023100,-0.478322
0.023200,-0.557520
0.023300,-0.543887
0.023400,-0.498121
0.023500,-0.421196
0.023600,-0.494551
0.023700,-0.756813
0.023800,-0.982722
0.023900,-0.921052
0.024000,-0.683133
0.024100,-0.125177
0.024200,-0.565310
0.024300,-0.815887
0.024400,-1.095677
0.024500,-1.002197
0.024600,-0.822703
0.024700,-0.326742
0.024800,-0.237807
0.024900,-0.832441
0.025000,-0.958054
0.025100,-0.931763
0.025200,-0.918130
0.025300,-0.788298
0.025400,-0.939877
0.025500,-1.014856
0.025600,-1.043744
0.025700,-1.036603
0.025800,-0.992460
0.025900,-1.050884
0.026000,-1.131056
0.026100,-1.131056
0.026200,-1.109634
0.026300,-1.079448
0.026400,-1.100546
0.026500,-1.258617
0.026600,-1.380660
0.026700,-1.415390
0.026800,-1.400135
0.026900,-1.385529
0.027000,-1.374168
0.027100,-1.360861
0.027200,-1.369949
0.027300,-1.366703
0.027400,-1.386503
0.027500,-1.394617
0.027600,-1.395266
0.027700,-1.412469
0.027800,-1.413443
0.027900,-1.422531
0.028000,-1.463753
0.028100,-1.508870
0.028200,-1.521204
0.028300,-1.524125
0.028400,-1.549443
0.028500,-1.548145
0.028600,-1.528345
0.028700,-1.569892
0.028800,-1.727639
0.028900,-2.074942
0.029000,-2.173291
0.029100,-2.058064
0.029200,-1.682522
0.029300,-1.557233
0.029400,-1.734455
0.029500,-2.220356
0.029600,-2.459249
0.029700,-2.456652
0.029800,-2.197959
0.029900,-2.048651
0.030000,-2.095067
0.030100,-2.373884
0.030200,-2.595250
0.030300,-2.652701
0.030400,-2.553054
0.030500,-2.477101
0.030600,-2.473855
0.030700,-2.553378
0.030800,-2.601417
0.030900,-2.651402
0.031000,-2.621216
0.031100,-2.619918
0.031200,-2.680290
0.031300,-2.714372
0.031400,-2.799737
0.031500,-2.762735
0.031600,-2.777990
0.031700,-2.862382
0.031800,-2.922430
0.031900,-2.937685
0.032000,-2.751050
0.032100,-2.633550
0.032200,-2.750401
0.032300,-3.003251
0.032400,-3.284342
0.032500,-3.303167
0.032600,-3.041228
0.032700,-2.820511
0.032800,-2.818563
0.032900,-3.080503
0.033000,-3.372304
0.033100,-3.471627
0.033200,-3.376199
0.033300,-3.158403
0.033400,-3.111013
0.033500,-3.163272
0.033600,-3.243769
0.033700,-3.269086
0.033800,-3.223969
0.033900,-3.208389
0.034000,-3.148665
0.034100,-3.079529
0.034200,-2.994812
0.034300,-2.833819
0.034400,-2.704634
0.034500,-2.664061
0.034600,-2.653025
0.034700,-2.661789
0.034800,-2.519622
0.034900,-2.270991
0.035000,-2.157387
0.035100,-1.863314
0.035200,-1.880193
0.035300,-1.820469
0.035400,-1.700698
0.035500,-1.542627
0.035600,-1.396565
0.035700,-1.216097
0.035800,-1.150207
0.035900,-1.091457
0.036000,-1.082694
0.036100,-1.012259
0.036200,-0.983047
0.036300,-0.941500
0.036400,-0.840555
0.036500,-0.767524
0.036600,-0.688002
0.036700,-0.647104
0.036800,-0.709100
0.036900,-0.677940
0.037000,-0.672746
0.037100,-0.520193
0.037200,-0.206972
0.037300,0.049448
0.037400,0.013419
0.037500,-0.415678
0.037600,-0.716240
0.037700,-0.550379
0.037800,-0.249816
0.037900,-0.065454
0.038000,-0.002161
0.038100,-0.265072
0.038200,-0.502341
0.038300,-0.569205
0.038400,-0.324795
0.038500,-0.217358
0.038600,-0.109597
0.038700,-0.199831
0.038800,-0.342647
0.038900,-0.461444
0.039000,-0.424766
0.039100,-0.393281
0.039200,-0.410809
0.039300,-0.418923
0.039400,-0.459496
0.039500,-0.456250
0.039600,-0.647429
0.039700,-0.671448
0.039800,-0.730847
0.039900,-0.798035
0.040000,-0.867496
0.040100,-0.682159
0.040200,-0.805176
0.040300,-0.769796
0.040400,-1.184612
0.040500,-1.281338
0.040600,-1.171954
0.040700,-0.959352
0.040800,-0.773367
0.040900,-0.961949
0.041000,-1.291725
0.041100,-1.497510
0.041200,-1.436164
0.041300,-1.257319
0.041400,-1.127161
0.041500,-1.191429
0.041600,-1.395591
0.041700,-1.552364
0.041800,-1.526398
0.041900,-1.547495
0.042000,-1.498483
0.042100,-1.580278
0.042200,-1.652660
0.042300,-1.676355
0.042400,-1.691610
0.042500,-1.690961
0.042600,-1.745166
0.042700,-1.787037
0.042800,-1.752956
0.042900,-1.688364
0.043000,-1.637080
0.043100,-1.652985
0.043200,-1.810732
0.043300,-1.850656
0.043400,-1.813329
0.043500,-1.776651
0.043600,-1.623772
0.043700,-1.660775
0.043800,-1.647467
0.043900,-1.656555
0.044000,-1.642598
0.044100,-1.617930
0.044200,-1.623772
0.044300,-1.626694
0.044400,-1.622149
0.044500,-1.616307
0.044600,-1.607543
0.044700,-1.589691
0.044800,-1.556584
0.044900,-1.513090
0.045000,-1.487772
0.045100,-1.410846
0.045200,-1.430970
0.045300,-1.354044
0.045400,-1.368651
0.045500,-1.524125
0.045600,-1.861691
0.045700,-1.940241
0.045800,-1.680250
0.045900,-1.384230
0.046000,-1.321261
0.046100,-1.600078
0.046200,-1.967181
0.046300,-2.176212
0.046400,-2.055792
0.046500,-1.857472
0.046600,-1.771782
0.046700,-1.949653
0.046800,-2.193091
0.046900,-2.385569
0.047000,-2.376480
0.047100,-2.283974
0.047200,-2.266446
0.047300,-2.246971
0.047400,-2.323898
0.047500,-2.312862
0.047600,-2.319029
0.047700,-2.297282
0.047800,-2.351487
0.047900,-2.402122
0.048000,-2.431984
0.048100,-2.425492
0.048200,-2.383946
0.048300,-2.416079
0.048400,-2.495602
0.048500,-2.571555
0.048600,-2.518972
0.048700,-2.366418
0.048800,-2.270017
0.048900,-2.420624
0.049000,-2.706582
0.049100,-2.917237
0.049200,-2.855890
0.049300,-2.568958
0.049400,-2.403745
0.049500,-2.444643
0.049600,-2.681264
0.049700,-2.945476
0.049800,-2.995461
0.049900,-2.850048
0.050000,-2.687431
0.050100,-2.641665
0.050200,-2.691975
0.050300,-2.744233
0.050400,-2.727355
0.050500,-2.693598
0.050600,-2.664710
0.050700,-2.610180
0.050800,-2.542992
0.050900,-2.432958
0.051000,-2.292413
0.051100,-2.215811
0.051200,-2.214838
0.051300,-2.207372
0.051400,-2.208022
0.051500,-2.021711
0.051600,-1.840918
0.051700,-1.611763
0.051800,-1.510493
0.051900,-1.536135
0.052000,-1.476736
0.052100,-1.392020
0.052200,-1.288479
0.052300,-1.133328
0.052400,-1.071658
0.052500,-1.014856
0.052600,-1.043419
0.052700,-1.037577
0.052800,-1.014856
0.052900,-0.995706
0.053000,-0.991811
0.053100,-0.906445
0.053200,-0.925920
0.053300,-0.871715
0.053400,-0.898331
0.053500,-0.893787
0.053600,-0.929166
0.053700,-0.850942
0.053800,-0.743505
0.053900,-0.320251
0.054000,-0.273186
0.054100,-0.236184
0.054200,-0.915209
0.054300,-0.822379
0.054400,-0.737987
0.054500,-0.334532
0.054600,-0.139134
0.054700,-0.159907
0.054800,-0.378351
0.054900,-0.635095
0.055000,-0.540966
0.055100,-0.345243
0.055200,-0.200480
0.055300,-0.144652
0.055400,-0.190742
0.055500,-0.233263
0.055600,-0.319601
0.055700,-0.287143
0.055800,-0.263124
0.055900,-0.281301
0.056000,-0.323496
0.056100,-0.324146
0.056200,-0.371535
0.056300,-0.517921
0.056400,-0.649701
0.056500,-0.680861
0.056600,-0.694818
0.056700,-0.685730
0.056800,-0.589653
0.056900,-0.656193
0.057000,-0.769147
0.057100,-1.160269
0.057200,-1.133004
0.057300,-1.031085
0.057400,-0.722407
0.057500,-0.688002
0.057600,-0.825949
0.057700,-1.175199
0.057800,-1.273223
0.057900,-1.156698
0.058000,-0.909367
0.058100,-0.769472
0.058200,-0.865224
0.058300,-1.018751
0.058400,-1.087238
0.058500,-1.105090
0.058600,-1.039524
0.058700,-1.002197
0.058800,-1.051534
0.058900,-1.129109
0.059000,-1.195648
0.059100,-1.194025
0.059200,-1.214474
0.059300,-1.250178
0.059400,-1.266732
0.059500,-1.212202
0.059600,-1.125214
0.059700,-0.761357
0.059800,-1.118398
0.059900,-1.338464
0.060000,-1.394293
0.060100,-1.389424
0.060200,-1.396240
0.060300,-1.353071
0.060400,-1.382283
0.060500,-1.398512
0.060600,-1.404355
0.060700,-1.408250
0.060800,-1.432269
0.060900,-1.487448
0.061000,-1.498483
0.061100,-1.533863
0.061200,-1.553013
0.061300,-1.585147
0.061400,-1.616632
0.061500,-1.624097
0.061600,-1.656231
0.061700,-1.700698
0.061800,-1.750684
0.061900,-1.819171
0.062000,-1.887333
0.062100,-1.984059
0.062200,-2.266122
0.062300,-2.574152
0.062400,-2.590705
0.062500,-2.315459
0.062600,-2.115191
0.062700,-2.120384
0.062800,-2.501120
0.062900,-2.790324
0.063000,-2.905552
0.063100,-2.716968
0.063200,-2.535526
0.063300,-2.479373
0.063400,-2.652052
0.063500,-2.837064
0.063600,-2.925676
0.063700,-2.874716
0.063800,-2.788701
0.063900,-2.806229
0.064000,-2.789351
0.064100,-2.792596
0.064200,-2.808176
0.064300,-2.820186
0.064400,-2.804606
0.064500,-2.832845
0.064600,-2.936712
0.064700,-2.930545
0.064800,-2.915614
0.064900,-2.923404
0.065000,-3.010068
0.065100,-3.051939
0.065200,-3.060703
0.065300,-2.891595
0.065400,-2.683536
0.065500,-2.683212
0.065600,-2.838038
0.065700,-3.076283
0.065800,-3.217153
0.065900,-3.046421
0.066000,-2.806229
0.066100,-2.668930
0.066200,-2.778639
0.066300,-3.023051
0.066400,-3.211959
0.066500,-3.211635
0.066600,-3.007471
0.066700,-2.910420
0.066800,-2.902630
0.066900,-2.921781
0.067000,-2.949695
0.067100,-2.944826
0.067200,-2.931518
0.067300,-2.875690
0.067400,-2.812396
0.067500,-2.718591
0.067600,-2.573178
0.067700,-2.396604
0.067800,-2.319354
0.067900,-2.296633
0.068000,-2.258007
0.068100,-2.172317
0.068200,-1.913949
0.068300,-1.753605
0.068400,-1.476087
0.068500,-1.387476
0.068600,-1.316393
0.068700,-1.239791
0.068800,-1.134951
0.068900,-1.041147
0.069000,-0.829844
0.069100,-0.754217
0.069200,-0.696116
0.069300,-0.724030
0.069400,-0.687028
0.069500,-0.699362
0.069600,-0.706828
0.069700,-0.712995
0.069800,-0.615620
0.069900,-0.632174
0.070000,-0.604909
0.070100,-0.664307
0.070200,-0.692871
0.070300,-0.757462
0.070400,-0.692871
0.070500,-0.478322
0.070600,-0.110571
0.070700,-0.027153
0.070800,-0.347515
0.070900,-0.757787
0.071000,-0.815238
0.071100,-0.446837
0.071200,-0.222227
0.071300,-0.128098
0.071400,-0.169969
0.071500,-0.487410
0.071600,-0.517596
0.071700,-0.482217
0.071800,-0.238781
0.071900,-0.128098
0.072000,-0.117062
0.072100,-0.184575
0.072200,-0.226122
0.072300,-0.195936
0.072400,-0.197559
0.072500,-0.186198
0.072600,-0.195936
0.072700,-0.167697
0.072800,-0.178408
0.072900,-0.108948
0.073000,-0.302723
0.073100,-0.239105
0.073200,-0.337778
0.073300,-0.328690
0.073400,-0.270265
0.073500,0.335404
0.073600,-0.076490
0.073700,-0.453978
0.073800,-0.768823
0.073900,-0.660088
0.074000,-0.534150
0.074100,0.792740
0.074200,0.268865
0.074300,-0.618217
0.074400,-0.932087
0.074500,-0.897357
0.074600,-0.739286
0.074700,-0.181979
0.074800,0.278603
0.074900,-0.959677
0.075000,-0.898980
0.075100,-0.890866
0.075200,-0.906770
0.075300,-0.850293
0.075400,-0.933061
0.075500,-1.043419
0.075600,-1.073281
0.075700,-1.075553
0.075800,-1.072631
0.075900,-1.145338
0.076000,-1.221290
0.076100,-1.250503
0.076200,-1.245309
0.076300,-1.271925
0.076400,-1.287180
0.076500,-1.425777
0.076600,-1.574111
0.076700,-1.620202
0.076800,-1.647142
0.076900,-1.677004
0.077000,-1.598455
0.077100,-1.625395
0.077200,-1.609166
0.077300,-1.584822
0.077400,-1.584498
0.077500,-1.600727
0.077600,-1.598779
0.077700,-1.591963
0.077800,-1.601701
0.077900,-1.605596
0.078000,-1.625720
0.078100,-1.598130
0.078200,-1.631887
0.078300,-1.583524
0.078400,-1.673433
0.078500,-1.613061
0.078600,-1.714655
0.078700,-1.676679
0.078800,-1.884737
0.078900,-2.152193
0.079000,-2.409263
0.079100,-2.219057
0.079200,-1.894150
0.079300,-1.727314
0.079400,-1.873701
0.079500,-2.311239
0.079600,-2.586810
0.079700,-2.579020
0.079800,-2.369664
0.079900,-2.180757
0.080000,-2.279754
0.080100,-2.485865
0.080200,-2.723785
0.080300,-2.738066
0.080400,-2.721188
0.080500,-2.625436
0.080600,-2.691651
0.080700,-2.773121
0.080800,-2.823107
0.080900,-2.834468
0.081000,-2.803308
0.081100,-2.798114
0.081200,-2.839986
0.081300,-2.954564
0.081400,-2.969819
0.081500,-2.931194
0.081600,-2.865628
0.081700,-2.939308
0.081800,-2.958134
0.081900,-3.011042
0.082000,-2.779613
0.082100,-2.618944
0.082200,-2.669579
0.082300,-2.827327
0.082400,-3.077906
0.082500,-3.133734
0.082600,-2.885103
0.082700,-2.613751
0.082800,-2.565712
0.082900,-2.782210
0.083000,-3.062975
0.083100,-3.186317
0.083200,-3.073686
0.083300,-2.877313
0.083400,-2.792596
0.083500,-2.857189
0.083600,-2.926974
0.083700,-2.972741
0.083800,-2.946449
0.083900,-2.883805
0.084000,-2.812721
0.084100,-2.750725
0.084200,-2.684835
0.084300,-2.520595
0.084400,-2.395631
0.084500,-2.329740
0.084600,-2.314485
0.084700,-2.322599
0.084800,-2.217110
0.084900,-1.996069
0.085000,-1.921415
0.085100,-1.635782
0.085200,-1.643247
0.085300,-1.614684
0.085400,-1.535486
0.085500,-1.426751
0.085600,-1.312498
0.085700,-1.156374
0.085800,-1.096975
0.085900,-1.101195
0.086000,-1.070359
0.086100,-1.077500
0.086200,-1.009338
0.086300,-1.033682
0.086400,-0.996679
0.086500,-0.968441
0.086600,-0.941500
0.086700,-0.935982
0.086800,-0.934360
0.086900,-1.036603
0.087000,-0.906770
0.087100,-0.982722
0.087200,-0.505262
0.087300,-0.399124
0.087400,-0.183277
0.087500,-0.824975
0.087600,-1.016803
0.087700,-0.904498
0.087800,-0.516623
0.087900,-0.254360
0.088000,-0.298828
0.088100,-0.400747
0.088200,-0.692871
0.088300,-0.689300
0.088400,-0.486761
0.088500,-0.266370
0.088600,-0.108299
0.088700,-0.187497
0.088800,-0.195611
0.088900,-0.243974
0.089000,-0.164127
0.089100,-0.113167
0.089200,-0.064156
0.089300,-0.044356
0.089400,-0.046304
0.089500,0.245820
0.089600,0.167920
0.089700,-0.189769
0.089800,-0.187821
0.089900,-0.237158
0.090000,-0.281950
0.090100,0.212388
0.090200,0.084503
0.090300,0.367863
0.090400,-0.564336
0.090500,-0.698064
0.090600,-0.653272
0.090700,-0.196910
0.090800,0.909914
0.090900,0.251338
0.091000,-0.701959
0.091100,-0.915209
0.091200,-0.882751
0.091300,-0.691897
0.091400,0.232512
0.091500,0.326316
0.091600,-0.865548
0.091700,-0.910340
0.091800,-0.888918
0.091900,-0.885997
0.092000,-0.633147
0.092100,-0.899629
0.092200,-0.961300
0.092300,-1.037252
0.092400,-1.016803
0.092500,-1.040498
0.092600,-1.126512
0.092700,-1.181042
0.092800,-1.216746
0.092900,-1.244660
0.093000,-1.291400
0.093100,-1.330674
0.093200,-1.547495
0.093300,-1.661424
0.093400,-1.698102
0.093500,-1.735753
0.093600,-1.734130
0.093700,-1.696803
0.093800,-1.718550
0.093900,-1.718550
0.094000,-1.700698
0.094100,-1.706541
0.094200,-1.688689
0.094300,-1.700049
0.094400,-1.697128
0.094500,-1.698426
0.094600,-1.700049
0.094700,-1.711734
0.094800,-1.719849
0.094900,-1.701023
0.095000,-1.701672
0.095100,-1.744517
0.095200,-1.763667
0.095300,-1.796775
0.095400,-1.869157
0.095500,-2.091172
0.095600,-2.413807
0.095700,-2.496901
0.095800,-2.258332
0.095900,-1.984708
0.096000,-1.897720
0.096100,-2.165177
0.096200,-2.583240
0.096300,-2.790324
0.096400,-2.705933
0.096500,-2.504042
0.096600,-2.390762
0.096700,-2.587459
0.096800,-2.818563
0.096900,-3.008120
0.097000,-3.010392
0.097100,-2.953915
0.097200,-2.918535
0.097300,-2.935413
0.097400,-2.987671
0.097500,-2.998058
0.097600,-2.990268
0.097700,-2.967547
0.097800,-2.998058
0.097900,-3.065896
0.098000,-3.097056
0.098100,-3.077581
0.098200,-3.007471
0.098300,-3.037008
0.098400,-3.057782
0.098500,-3.133085
0.098600,-3.081801
0.098700,-2.870821
0.098800,-2.739040
0.098900,-2.859785
0.099000,-3.080827
0.099100,-3.305115
0.099200,-3.223320
0.099300,-2.944177
0.099400,-2.711126
0.099500,-2.699765
0.099600,-2.920158
0.099700,-3.146393
0.099800,-3.166842
0.099900,-2.986698
0.100000,-2.775718
0.100100,-2.690353
0.100200,-2.698792
0.100300,-2.726381
0.100400,-2.742611
0.100500,-2.692949
0.100600,-2.641665
0.100700,-2.541693
0.100800,-2.490734
0.100900,-2.391411
0.101000,-2.204451
0.101100,-2.100909
0.101200,-2.054169
0.101300,-2.030475
0.101400,-2.021386
0.101500,-1.842541
0.101600,-1.641624
0.101700,-1.512441
0.101800,-1.317691
0.101900,-1.392020
0.102000,-1.348526
0.102100,-1.290751
0.102200,-1.209930
0.102300,-1.077825
0.102400,-0.957080
0.102500,-0.934684
0.102600,-0.941500
0.102700,-0.951887
0.102800,-0.882102
0.102900,-0.953510
0.103000,-0.909367
0.103100,-0.891190
0.103200,-0.860679
0.103300,-0.810369
0.103400,-0.897033
0.103500,-0.823677
0.103600,-0.893787
0.103700,-0.819782
0.103800,-0.730522
0.103900,-0.411458
0.104000,-0.129397
0.104100,-0.260528
0.104200,-0.750971
0.104300,-0.863601
0.104400,-0.706828
0.104500,-0.215086
0.104600,-0.146599
0.104700,-0.112843
0.104800,-0.366341
0.104900,-0.529930
0.105000,-0.503315
0.105100,-0.269291
0.105200,-0.045654
0.105300,-0.075516
0.105400,-0.046953
0.105500,-0.171268
0.105600,-0.168996
0.105700,-0.115440
0.105800,-0.066103
0.105900,-0.069674
0.106000,-0.074218
0.106100,-0.067726
0.106200,-0.120308
0.106300,0.061133
0.106400,-0.355955
0.106500,-0.268642
0.106600,-0.398475
0.106700,-0.365043
0.106800,-0.044356
0.106900,-0.199182
0.107000,-0.880154
0.107100,-0.786999
0.107200,-0.790570
0.107300,-0.712995
0.107400,-0.240728
0.107500,0.445762
0.107600,-0.437749
0.107700,-0.821080
0.107800,-0.964221
0.107900,-0.882751
0.108000,-0.638665
0.108100,0.196808
0.108200,-0.196910
0.108300,-0.822379
0.108400,-0.931438
0.108500,-0.879505
0.108600,-0.887620
0.108700,-0.672746
0.108800,-0.886321
0.108900,-0.949939
0.109000,-0.915858
0.109100,-0.651324
0.109200,-0.650675
0.109300,-0.910990
0.109400,-0.968441
0.109500,-0.676966
0.109600,-0.408861
0.109700,-0.175812
0.109800,-0.374456
0.109900,-1.123591
0.110000,-1.197596
0.110100,-1.203763
0.110200,-1.183639
0.110300,-1.064842
0.110400,-1.179744
0.110500,-1.178445
0.110600,-1.180717
0.110700,-1.168383
0.110800,-1.160918
0.110900,-1.181042
0.111000,-1.187534
0.111100,-1.217071
0.111200,-1.232001
0.111300,-1.223887
0.111400,-1.271276
0.111500,-1.279066
0.111600,-1.293347
0.111700,-1.288479
0.111800,-1.318989
0.111900,-1.391696
0.112000,-1.379362
0.112100,-1.453042
0.112200,-1.683496
0.112300,-2.054494
0.112400,-2.023658
0.112500,-1.844164
0.112600,-1.516011
0.112700,-1.649414
0.112800,-1.911353
0.112900,-2.333635
0.113000,-2.432633
0.113100,-2.293062
0.113200,-2.029825
0.113300,-1.978217
0.113400,-2.180757
0.113500,-2.383946
0.113600,-2.525464
0.113700,-2.505340
0.113800,-2.393683
0.113900,-2.368041
0.114000,-2.393359
0.114100,-2.459249
0.114200,-2.510533
0.114300,-2.542667
0.114400,-2.549159
0.114500,-2.579669
0.114600,-2.679317
0.114700,-2.714372
0.114800,-2.721837
0.114900,-2.698792
0.115000,-2.737417
0.115100,-2.817589
0.115200,-2.836740
0.115300,-2.760787
0.115400,-2.592977
0.115500,-2.600118
0.115600,-2.758515
0.115700,-3.033113
0.115800,-3.235005
0.115900,-3.140551
0.116000,-2.862382
0.116100,-2.717293
0.116200,-2.802009
0.116300,-3.069142
0.116400,-3.315502
0.116500,-3.338547
0.116600,-3.193782
0.116700,-3.020130
0.116800,-2.978583
0.116900,-3.020130
0.117000,-3.064273
0.117100,-3.099653
0.117200,-3.080178
0.117300,-3.039930
0.117400,-2.972741
0.117500,-2.886077
0.117600,-2.751699
0.117700,-2.590705
0.117800,-2.505015
0.117900,-2.516376
0.118000,-2.478399
0.118100,-2.434581
0.118200,-2.188547
0.118300,-2.021711
0.118400,-1.773405
0.118500,-1.671486
0.118600,-1.645844
0.118700,-1.545873
0.118800,-1.411495
0.118900,-1.306006
0.119000,-1.061596
0.119100,-0.920078
0.119200,-0.821405
0.119300,-0.803228
0.119400,-0.773042
0.119500,-0.725004
0.119600,-0.756164
0.119700,-0.676966
0.119800,-0.637367
0.119900,-0.548432
0.120000,-0.584785
0.120100,-0.600689
0.120200,-0.609128
0.120300,-0.634121
0.120400,-0.531553
0.120500,-0.392308
0.120600,0.059185
0.120700,-0.004433
0.120800,-0.084280
0.120900,-0.737987
0.121000,-0.615295
0.121100,-0.447162
0.121200,-0.060585
0.121300,0.098784
0.121400,-0.031697
0.121500,-0.274485
0.121600,-0.424766
0.121700,-0.379324
0.121800,-0.158933
0.121900,-0.039163
0.122000,0.008551
0.122100,-0.045654
0.122200,-0.043707
0.122300,-0.062857
0.122400,-0.063831
0.122500,-0.046304
0.122600,-0.050523
0.122700,-0.026180
0.122800,0.266918
0.122900,0.069247
0.123000,-0.212165
0.123100,-0.199182
0.123200,-0.453005
0.123300,-0.226122
0.123400,0.497695
0.123500,0.574621
0.123600,0.618439
0.123700,-0.475401
0.123800,-0.666255
0.123900,-0.589653
0.124000,-0.243974
0.124100,1.585693
0.124200,1.587316
0.124300,0.607728
0.124400,-0.672422
0.124500,-0.621138
0.124600,-0.135564
0.124700,1.437359
0.124800,1.938838
0.124900,1.392891
0.125000,0.584034
0.125100,0.517819
0.125200,0.804749
0.125300,1.112777
0.125400,0.922248
0.125500,0.675566
0.125600,0.601561
0.125700,0.916405
0.125800,1.084539
0.125900,0.706077
0.126000,0.326965
0.126100,0.239328
0.126200,0.605132
0.126300,0.973856
0.126400,1.069283
0.126500,0.368836
0.126600,-0.934684
0.126700,-0.934035
0.126800,-0.708775
0.126900,-0.725004
0.127000,-0.311811
0.127100,-0.588680
0.127200,-0.530580
0.127300,-0.430284
0.127400,-0.578618
0.127500,-0.694493
0.127600,-0.817835
0.127700,-0.777262
0.127800,-0.775964
0.127900,-0.973959
0.128000,-0.957405
0.128100,-1.154751
0.128200,-1.122293
0.128300,-1.138197
0.128400,-1.164164
0.128500,-1.224536
0.128600,-1.225834
0.128700,-1.297892
0.128800,-1.355018
0.128900,-1.707839
0.129000,-1.962961
0.129100,-1.921415
0.129200,-1.556908
0.129300,-1.421557
0.129400,-1.576059
0.129500,-1.994121
0.129600,-2.308642
0.129700,-2.345969
0.129800,-2.115840
0.129900,-1.959715
0.130000,-1.962637
0.130100,-2.247296
0.130200,-2.469311
0.130300,-2.543965
0.130400,-2.534877
0.130500,-2.494953
0.130600,-2.506638
0.130700,-2.611479
0.130800,-2.661465
0.130900,-2.707231
0.131000,-2.690028
0.131100,-2.713073
0.131200,-2.787403
0.131300,-2.903280
0.131400,-2.878611
0.131500,-2.910096
0.131600,-2.892893
0.131700,-2.971767
0.131800,-3.015261
0.131900,-3.059729
0.132000,-2.882506
0.132100,-2.688080
0.132200,-2.743584
0.132300,-2.929246
0.132400,-3.190861
0.132500,-3.335301
0.132600,-3.102574
0.132700,-2.780587
0.132800,-2.654648
0.132900,-2.859785
0.133000,-3.104197
0.133100,-3.208389
0.133200,-3.090240
0.133300,-2.916588
0.133400,-2.823107
0.133500,-2.811098
0.133600,-2.872120
0.133700,-2.887700
0.133800,-2.848425
0.133900,-2.826678
0.134000,-2.791623
0.134100,-2.754620
0.134200,-2.677369
0.134300,-2.498848
0.134400,-2.341425
0.134500,-2.262876
0.134600,-2.245024
0.134700,-2.216785
0.134800,-2.133043
0.134900,-1.882789
0.135000,-1.749386
0.135100,-1.422531
0.135200,-1.376765
0.135300,-1.314770
0.135400,-1.261863
0.135500,-1.115801
0.135600,-1.011610
0.135700,-0.806799
0.135800,-0.744154
0.135900,-0.697739
0.136000,-0.700660
0.136100,-0.697415
0.136200,-0.642560
0.136300,-0.698713
0.136400,-0.616269
0.136500,-0.621463
0.136600,-0.574723
0.136700,-0.569529
0.136800,-0.550379
0.136900,-0.581214
0.137000,-0.593548
0.137100,-0.552327
0.137200,-0.295582
0.137300,0.000761
0.137400,-0.054094
0.137500,-0.314733
0.137600,-0.739935
0.137700,-0.646780
0.137800,-0.476699
0.137900,-0.061559
0.138000,-0.117712
0.138100,-0.208594
0.138200,-0.459821
0.138300,-0.563038
0.138400,-0.419897
0.138500,-0.241702
0.138600,-0.119335
0.138700,-0.140757
0.138800,-0.174513
0.138900,-0.267668
0.139000,-0.184900
0.139100,-0.206972
0.139200,-0.171268
0.139300,-0.180356
0.139400,-0.191716
0.139500,-0.115440
0.139600,-0.236508
0.139700,-0.252738
0.139800,-0.285196
0.139900,-0.280327
0.140000,-0.368289
0.140100,-0.299802
0.140200,-0.088824
0.140300,0.171166
0.140400,-0.515000
0.140500,-0.709100
0.140600,-0.615945
0.140700,0.310736
0.140800,1.406848
0.140900,1.338361
0.141000,-0.307267
0.141100,-0.780832
0.141200,-0.721109
0.141300,0.049123
0.141400,1.334791
0.141500,1.177044
0.141600,0.072493
0.141700,-0.708450
0.141800,-0.268318
0.141900,-0.182628
0.142000,0.200378
0.142100,-0.379974
0.142200,-0.830818
0.142300,-0.921052
0.142400,-0.807773
0.142500,-0.856460
0.142600,-1.007066
0.142700,-1.094054
0.142800,-1.102168
0.142900,-1.088536
0.143000,-1.085290
0.143100,-1.118722
0.143200,-1.285882
0.143300,-1.430321
0.143400,-1.463753
0.143500,-1.472841
0.143600,-1.397538
0.143700,-1.407925
0.143800,-1.420584
0.143900,-1.407600
0.144000,-1.402732
0.144100,-1.398188
0.144200,-1.399810
0.144300,-1.391371
0.144400,-1.388125
0.144500,-1.396889
0.144600,-1.407600
0.144700,-1.423180
0.144800,-1.416040
0.144900,-1.423180
0.145000,-1.419285
0.145100,-1.483553
0.145200,-1.474789
0.145300,-1.578980
0.145400,-1.607543
0.145500,-1.859419
0.145600,-2.231067
0.145700,-2.350838
0.145800,-2.157387
0.145900,-1.877921
0.146000,-1.803916
0.146100,-1.967505
0.146200,-2.377779
0.146300,-2.581942
0.146400,-2.525464
0.146500,-2.327793
0.146600,-2.162904
0.146700,-2.239831
0.146800,-2.371936
0.146900,-2.572204
0.147000,-2.581292
0.147100,-2.594276
0.147200,-2.491707
0.147300,-2.475154
0.147400,-2.468337
0.147500,-2.520595
0.147600,-2.543965
0.147700,-2.587784
0.147800,-2.537149
0.147900,-2.566686
0.148000,-2.622839
0.148100,-2.626410
0.148200,-2.597846
0.148300,-2.603689
0.148400,-2.670878
0.148500,-2.721188
0.148600,-2.685484
0.148700,-2.512156
0.148800,-2.309941
0.148900,-2.441397
0.149000,-2.782210
0.149100,-3.008769
0.149200,-3.033762
0.149300,-2.773771
0.149400,-2.543965
0.149500,-2.565388
0.149600,-2.799413
0.149700,-3.105171
0.149800,-3.150288
0.149900,-3.013638
0.150000,-2.821809
0.150100,-2.738066
0.150200,-2.756243
0.150300,-2.808826
0.150400,-2.839337
0.150500,-2.813370
0.150600,-2.766305
0.150700,-2.680940
0.150800,-2.623488
0.150900,-2.539746
0.151000,-2.362848
0.151100,-2.243076
0.151200,-2.197959
0.151300,-2.164203
0.151400,-2.140508
0.151500,-2.015544
0.151600,-1.792880
0.151700,-1.664021
0.151800,-1.381634
0.151900,-1.397214
0.152000,-1.333920
0.152100,-1.231352
0.152200,-1.100870
0.152300,-0.956756
0.152400,-0.802255
0.152500,-0.769147
0.152600,-0.733119
0.152700,-0.755839
0.152800,-0.681186
0.152900,-0.725329
0.153000,-0.655544
0.153100,-0.688002
0.153200,-0.585759
0.153300,-0.597443
0.153400,-0.561090
0.153500,-0.569205
0.153600,-0.584460
0.153700,-0.580890
0.153800,-0.498446
0.153900,-0.175163
0.154000,0.061457
0.154100,-0.057989
0.154200,-0.474752
0.154300,-0.642885
0.154400,-0.458847
0.154500,-0.141731
0.154600,0.104302
0.154700,0.147796
0.154800,-0.016118
0.154900,-0.220604
0.155000,-0.189444
0.155100,-0.144327
0.155200,0.108846
0.155300,0.216283
0.155400,0.192913
0.155500,0.127348
0.155600,0.122479
0.155700,0.119233
0.155800,0.459395
0.155900,0.419796
0.156000,0.892711
0.156100,0.899203
0.156200,1.071555
0.156300,0.797933
0.156400,0.118908
0.156500,0.274708
0.156600,-0.355305
0.156700,0.235433
0.156800,0.726525
0.156900,0.746325
0.157000,0.410707
0.157100,-0.603286
0.157200,-0.656517
0.157300,-0.548756
0.157400,0.647976
0.157500,1.102066
0.157600,0.449657
0.157700,-0.677940
0.157800,-0.869768
0.157900,-0.792517
0.158000,-0.486112
0.158100,0.702506
0.158200,0.437323
0.158300,-0.483515
0.158400,-0.838608
0.158500,-0.786999
0.158600,-0.792193
0.158700,-0.121282
0.158800,-0.526360
0.158900,-0.845424
0.159000,-0.951562
0.159100,-0.936632
0.159200,-0.975581
0.159300,-0.993758
0.159400,-1.023295
0.159500,-0.990512
0.159600,-0.920727
0.159700,-0.638016
0.159800,-0.812317
0.159900,-1.160269
0.160000,-1.230378
0.160100,-1.220641
0.160200,-1.190455
0.160300,-0.918130
0.160400,-1.105414
0.160500,-1.096651
0.160600,-1.071982
0.160700,-0.999925
0.160800,-0.927219
0.160900,-1.085939
0.161000,-1.031734
0.161100,-1.060622
0.161200,-1.043744
0.161300,-1.081720
0.161400,-1.110608
0.161500,-1.120670
0.161600,-1.160918
0.161700,-1.201166
0.161800,-1.222913
0.161900,-1.289777
0.162000,-1.363457
0.162100,-1.441682
0.162200,-1.710760
0.162300,-2.097988
0.162400,-2.158685
0.162500,-1.980489
0.162600,-1.736727
0.162700,-1.784441
0.162800,-2.066828
0.162900,-2.478724
0.163000,-2.626410
0.163100,-2.528385
0.163200,-2.388814
0.163300,-2.306370
0.163400,-2.477750
0.163500,-2.705283
0.163600,-2.854267
0.163700,-2.889972
0.163800,-2.803957
0.163900,-2.743584
0.164000,-2.777990
0.164100,-2.851346
0.164200,-2.867575
0.164300,-2.867575
0.164400,-2.855241
0.164500,-2.850372
0.164600,-2.928273
0.164700,-3.012664
0.164800,-2.976636
0.164900,-2.937685
0.165000,-2.907824
0.165100,-2.992865
0.165200,-3.003901
0.165300,-2.940931
0.165400,-2.665035
0.165500,-2.556624
0.165600,-2.712424
0.165700,-2.999356
0.165800,-3.125944
0.165900,-3.090565
0.166000,-2.791623
0.166100,-2.585512
0.166200,-2.670228
0.166300,-2.956187
0.166400,-3.232733
0.166500,-3.253831
0.166600,-3.116207
0.166700,-2.961380
0.166800,-2.940607
0.166900,-3.001304
0.167000,-3.096732
0.167100,-3.106469
0.167200,-3.033113
0.167300,-2.962678
0.167400,-2.901981
0.167500,-2.844530
0.167600,-2.769226
0.167700,-2.593302
0.167800,-2.458600
0.167900,-2.412834
0.168000,-2.391086
0.168100,-2.347268
0.168200,-2.139210
0.168300,-1.940890
0.168400,-1.674083
0.168500,-1.546522
0.168600,-1.546522
0.168700,-1.472517
0.168800,-1.378063
0.168900,-1.236221
0.169000,-1.063868
0.169100,-0.937281
0.169200,-0.889892
0.169300,-0.823028
0.169400,-0.826274
0.169500,-0.744154
0.169600,-0.756813
0.169700,-0.649701
0.169800,-0.619515
0.169900,-0.488709
0.170000,-0.542265
0.170100,-0.442618
0.170200,-0.563362
0.170300,-0.400098
0.170400,-0.468909
0.170500,-0.092394
0.170600,0.125075
0.170700,0.459719
0.170800,0.202326
0.170900,-0.270590
0.171000,-0.260203
0.171100,-0.068375
0.171200,0.322746
0.171300,0.434726
0.171400,0.136760
0.171500,0.253610
0.171600,0.188369
0.171700,0.283796
0.171800,0.669074
0.171900,2.230312
0.172000,2.378646
0.172100,2.476995
0.172200,2.115735
0.172300,2.342618
0.172400,2.818780
0.172500,3.145959
0.172600,3.169329
0.172700,3.402704
0.172800,3.430943
0.172900,3.266055
0.173000,3.216718
0.173100,3.002169
0.173200,2.424737
0.173300,2.126122
0.173400,2.580861
0.173500,2.934007
0.173600,3.479631
0.173700,2.052441
0.173800,0.151691
0.173900,0.158507
0.174000,1.369197
0.174100,3.231325
0.174200,3.052804
0.174300,2.105024
0.174400,0.054317
0.174500,-0.466962
0.174600,0.235758
0.174700,1.785960
0.174800,2.391630
0.174900,1.691506
0.175000,0.655766
0.175100,0.075414
0.175200,0.304894
0.175300,0.446411
0.175400,0.681733
0.175500,0.271137
0.175600,-0.133941
0.175700,-0.244948
0.175800,-0.330637
0.175900,-0.683458
0.176000,-1.097624
0.176100,-1.021348
0.176200,-1.049586
0.176300,-1.060297
0.176400,-1.062894
0.176500,-1.183639
0.176600,-1.394617
0.176700,-1.469271
0.176800,-1.499782
0.176900,-1.537433
0.177000,-1.486799
0.177100,-1.619553
0.177200,-1.649739
0.177300,-1.670837
0.177400,-1.695181
0.177500,-1.752956
0.177600,-1.785415
0.177700,-1.824364
0.177800,-1.815925
0.177900,-1.864613
0.178000,-1.876622
0.178100,-1.928556
0.178200,-1.944460
0.178300,-1.971400
0.178400,-2.043133
0.178500,-2.074293
0.178600,-2.199258
0.178700,-2.239831
0.178800,-2.464767
0.178900,-2.781885
0.179000,-3.089915
0.179100,-3.099004
0.179200,-2.801360
0.179300,-2.648481
0.179400,-2.663737
0.179500,-3.048369
0.179600,-3.334652
0.179700,-3.368734
0.179800,-3.148341
0.179900,-2.891595
0.180000,-2.826678
0.180100,-2.922430
0.180200,-3.103548
0.180300,-3.146718
0.180400,-3.095109
0.180500,-2.926974
0.180600,-2.862057
0.180700,-2.855241
0.180800,-2.830897
0.180900,-2.813694
0.181000,-2.752348
0.181100,-2.718267
0.181200,-2.695546
0.181300,-2.780587
0.181400,-2.800062
0.181500,-2.681264
0.181600,-2.642314
0.181700,-2.674448
0.181800,-2.716968
0.181900,-2.724109
0.182000,-2.550782
0.182100,-2.323249
0.182200,-2.359277
0.182300,-2.563116
0.182400,-2.873742
0.182500,-2.889972
0.182600,-2.771174
0.182700,-2.460547
0.182800,-2.335583
0.182900,-2.484242
0.183000,-2.750076
0.183100,-2.960082
0.183200,-2.891919
0.183300,-2.728004
0.183400,-2.602066
0.183500,-2.569932
0.183600,-2.605312
0.183700,-2.636472
0.183800,-2.627059
0.183900,-2.544939
0.184000,-2.442046
0.184100,-2.343697
0.184200,-2.223601
0.184300,-2.046379
0.184400,-1.876947
0.184500,-1.762369
0.184600,-1.756527
0.184700,-1.703620
0.184800,-1.645844
0.184900,-1.415390
0.185000,-1.284259
0.185100,-0.990512
0.185200,-0.996030
0.185300,-0.970064
0.185400,-0.960651
0.185500,-0.855162
0.185600,-0.759410
0.185700,-0.627630
0.185800,-0.561415
0.185900,-0.532527
0.186000,-0.525711
0.186100,-0.519219
0.186200,-0.502016
0.186300,-0.527009
0.186400,-0.457549
0.186500,-0.412107
0.186600,-0.433530
0.186700,-0.392957
0.186800,-0.511429
0.186900,-0.439048
0.187000,-0.530255
0.187100,-0.441644
0.187200,-0.155038
0.187300,0.187720
0.187400,0.274383
0.187500,-0.179382
0.187600,-0.423792
0.187700,-0.540966
0.187800,-0.061559
0.187900,0.022183
0.188000,0.308789
0.188100,0.110145
0.188200,0.007252
0.188300,-0.117712
0.188400,0.026078
0.188500,0.276331
0.188600,0.409409
0.188700,0.485036
0.188800,0.374030
0.188900,0.426287
0.189000,0.374679
0.189100,0.361371
0.189200,0.496397
0.189300,1.027737
0.189400,1.275393
0.189500,1.635678
0.189600,1.600623
0.189700,1.247803
0.189800,1.298763
0.189900,1.123164
0.190000,1.666189
0.190100,2.223496
0.190200,2.769444
0.190300,2.277052
0.190400,1.126734
0.190500,-0.111545
0.190600,0.091644
0.190700,1.302008
0.190800,2.781778
0.190900,1.887878
0.191000,1.151078
0.191100,-0.302723
0.191200,-0.283248
0.191300,0.123777
0.191400,1.612958
0.191500,2.245892
0.191600,1.617826
0.191700,0.713542
0.191800,0.819031
0.191900,0.972233
0.192000,1.473063
0.192100,1.193598
0.192200,1.017026
0.192300,0.729446
0.192400,0.831365
0.192500,0.812864
0.192600,0.318851
0.192700,-0.008977
0.192800,-0.244623
0.192900,-0.027478
0.193000,-0.055067
0.193100,-0.189120
0.193200,-0.803553
0.193300,-0.987916
0.193400,-1.038550
0.193500,-1.074904
0.193600,-1.010636
0.193700,-1.054455
0.193800,-1.141118
0.193900,-1.136574
0.194000,-1.165137
0.194100,-1.201815
0.194200,-1.243686
0.194300,-1.234273
0.194400,-1.252125
0.194500,-1.241090
0.194600,-1.256670
0.194700,-1.255047
0.194800,-1.257319
0.194900,-1.258942
0.195000,-1.228756
0.195100,-1.221290
0.195200,-1.195973
0.195300,-1.244335
0.195400,-1.223562
0.195500,-1.342035
0.195600,-1.650064
0.195700,-1.764317
0.195800,-1.565347
0.195900,-1.245309
0.196000,-1.049911
0.196100,-1.182989
0.196200,-1.558531
0.196300,-1.751333
0.196400,-1.776975
0.196500,-1.525424
0.196600,-1.383906
0.196700,-1.424154
0.196800,-1.602350
0.196900,-1.760097
0.197000,-1.827610
0.197100,-1.770159
0.197200,-1.659476
0.197300,-1.600402
0.197400,-1.629939
0.197500,-1.679925
0.197600,-1.712383
0.197700,-1.653959
0.197800,-1.650064
0.197900,-1.724718
0.198000,-1.791906
0.198100,-1.791582
0.198200,-1.689987
0.198300,-1.753281
0.198400,-1.826312
0.198500,-1.837023
0.198600,-1.793204
0.198700,-1.525424
0.198800,-1.372870
0.198900,-1.429347
0.199000,-1.620851
0.199100,-1.875973
0.199200,-1.806188
0.199300,-1.545548
0.199400,-1.354044
0.199500,-1.299514
0.199600,-1.436813
0.199700,-1.641624
0.199800,-1.746140
0.199900,-1.789959
0.200000,-1.646169
0.200100,-1.552689
0.200200,-1.544574
0.200300,-1.630913
0.200400,-1.721472
0.200500,-1.754904
0.200600,-1.745815
0.200700,-1.673109
0.200800,-1.650713
0.200900,-1.602674
0.201000,-1.488421
0.201100,-1.394293
0.201200,-1.376440
0.201300,-1.397863
0.201400,-1.413443
0.201500,-1.345930
0.201600,-1.204736
0.201700,-1.080746
0.201800,-0.884698
0.201900,-0.965519
0.202000,-1.001223
0.202100,-1.038875
0.202200,-0.963247
0.202300,-0.911963
0.202400,-0.812966
0.202500,-0.812317
0.202600,-0.874961
0.202700,-0.962598
0.202800,-1.020698
0.202900,-1.060622
0.203000,-1.103142
0.203100,-1.130083
0.203200,-1.132679
0.203300,-1.215772
0.203400,-1.246283
0.203500,-1.384880
0.203600,-1.457586
0.203700,-1.532240
0.203800,-1.463429
0.203900,-1.115152
0.204000,-0.857109
0.204100,-0.905796
0.204200,-1.355667
0.204300,-1.608192
0.204400,-1.588068
0.204500,-1.203438
0.204600,-1.017128
0.204700,-0.849968
0.204800,-1.026541
0.204900,-1.189806
0.205000,-1.336517
0.205100,-1.209605
0.205200,-1.012584
0.205300,-0.921376
0.205400,-0.855162
0.205500,-0.951562
0.205600,-0.973634
0.205700,-1.019400
0.205800,-0.990837
0.205900,-0.922999
0.206000,-0.930140
0.206100,-0.930465
0.206200,-0.955782
0.206300,-0.835687
0.206400,-1.173252
0.206500,-1.134302
0.206600,-1.236221
0.206700,-1.152803
0.206800,-1.089510
0.206900,-1.096326
0.207000,-1.177796
0.207100,-1.637405
0.207200,-1.705243
0.207300,-1.680574
0.207400,-1.352097
0.207500,-1.362159
0.207600,-1.484202
0.207700,-1.737701
0.207800,-1.904861
0.207900,-1.893176
0.208000,-1.798722
0.208100,-1.685118
0.208200,-1.666617
0.208300,-1.741271
0.208400,-1.860069
0.208500,-1.875973
0.208600,-1.939267
0.208700,-1.846111
0.208800,-1.874026
0.208900,-1.894150
0.209000,-1.922064
0.209100,-1.902264
0.209200,-1.899992
0.209300,-1.924661
0.209400,-1.936670
0.209500,-1.917195
0.209600,-1.879219
0.209700,-1.843515
0.209800,-1.822092
0.209900,-1.977892
0.210000,-2.026904
0.210100,-2.005157
0.210200,-1.967505
0.210300,-1.803591
0.210400,-1.831505
0.210500,-1.822092
0.210600,-1.824040
0.210700,-1.786713
0.210800,-1.767887
0.210900,-1.749061
0.211000,-1.689663
0.211100,-1.708488
0.211200,-1.670837
0.211300,-1.653309
0.211400,-1.621825
0.211500,-1.570216
0.211600,-1.554961
0.211700,-1.499133
0.211800,-1.475438
0.211900,-1.442006
0.212000,-1.495238
0.212100,-1.512441
0.212200,-1.733157
0.212300,-2.068126
0.212400,-2.156088
0.212500,-1.966207
0.212600,-1.705567
0.212700,-1.679601
0.212800,-1.872403
0.212900,-2.277807
0.213000,-2.426466
0.213100,-2.331688
0.213200,-2.102857
0.213300,-1.971076
0.213400,-2.047028
0.213500,-2.210943
0.213600,-2.299554
0.213700,-2.293062
0.213800,-2.210618
0.213900,-2.113568
0.214000,-2.080785
0.214100,-2.129148
0.214200,-2.168098
0.214300,-2.181730
0.214400,-2.147974
0.214500,-2.166475
0.214600,-2.330389
0.214700,-2.315459
0.214800,-2.281702
0.214900,-2.308967
0.215000,-2.351812
0.215100,-2.482294
0.215200,-2.462495
0.215300,-2.406991
0.215400,-2.120059
0.215500,-2.073969
0.215600,-2.198609
0.215700,-2.404070
0.215800,-2.536500
0.215900,-2.379726
0.216000,-2.190169
0.216100,-2.040861
0.216200,-2.061635
0.216300,-2.229119
0.216400,-2.387191
0.216500,-2.471583
0.216600,-2.452433
0.216700,-2.334609
0.216800,-2.258981
0.216900,-2.270017
0.217000,-2.341101
0.217100,-2.397903
0.217200,-2.375182
0.217300,-2.374533
0.217400,-2.317731
0.217500,-2.248270
0.217600,-2.196337
0.217700,-2.017816
0.217800,-1.927906
0.217900,-1.905186
0.218000,-1.884737
0.218100,-1.878570
0.218200,-1.717252
0.218300,-1.537109
0.218400,-1.299514
0.218500,-1.203763
0.218600,-1.230378
0.218700,-1.189806
0.218800,-1.122942
0.218900,-1.003496
0.219000,-0.877558
0.219100,-0.805825
0.219200,-0.813290
0.219300,-0.769472
0.219400,-0.843801
0.219500,-0.759734
0.219600,-0.886971
0.219700,-0.794140
0.219800,-0.802579
0.219900,-0.751295
0.220000,-0.778236
0.220100,-0.877882
0.220200,-0.871391
0.220300,-0.964870
0.220400,-0.957405
0.220500,-0.764928
0.220600,-0.619190
0.220700,-0.273186
0.220800,-0.678264
0.220900,-0.953185
0.221000,-1.205386
0.221100,-0.866197
0.221200,-0.666579
0.221300,-0.530580
0.221400,-0.537396
0.221500,-0.765577
0.221600,-0.864574
0.221700,-0.810694
0.221800,-0.640288
0.221900,-0.493577
0.222000,-0.481892
0.222100,-0.469883
0.222200,-0.501367
0.222300,-0.453005
0.222400,-0.431907
0.222500,-0.420222
0.222600,-0.358551
0.222700,-0.359200
0.222800,-0.373807
0.222900,-0.373157
0.223000,-0.373157
0.223100,-0.535448
0.223200,-0.543238
0.223300,-0.633147
0.223400,-0.509806
0.223500,-0.437425
0.223600,-0.507210
0.223700,-0.590627
0.223800,-1.005118
0.223900,-0.896383
0.224000,-0.793166
0.224100,-0.452355
0.224200,-0.613673
0.224300,-0.609453
0.224400,-0.983696
0.224500,-1.033682
0.224600,-0.990837
0.224700,-0.803228
0.224800,-0.671124
0.224900,-0.794140
0.225000,-0.942149
0.225100,-1.010961
0.225200,-0.966169
0.225300,-1.001873
0.225400,-1.004469
0.225500,-1.089510
0.225600,-1.133978
0.225700,-1.153128
0.225800,-1.098923
0.225900,-1.112231
0.226000,-1.150207
0.226100,-1.175849
0.226200,-1.144689
0.226300,-1.091457
0.226400,-1.034006
0.226500,-1.028488
0.226600,-1.198569
0.226700,-1.235247
0.226800,-1.222588
0.226900,-1.087562
0.227000,-1.032383
0.227100,-1.067763
0.227200,-1.031410
0.227300,-1.001223
0.227400,-0.985968
0.227500,-0.965844
0.227600,-0.956107
0.227700,-0.940527
0.227800,-0.940202
0.227900,-0.920078
0.228000,-0.928517
0.228100,-0.900928
0.228200,-0.927219
0.228300,-0.910665
0.228400,-0.964221
0.228500,-0.932412
0.228600,-0.970064
0.228700,-1.007066
0.228800,-1.048288
0.228900,-1.336517
0.229000,-1.553987
0.229100,-1.611438
0.229200,-1.308603
0.229300,-1.009987
0.229400,-1.043744
0.229500,-1.273223
0.229600,-1.627018
0.229700,-1.644546
0.229800,-1.532565
0.229900,-1.290102
0.230000,-1.243362
0.230100,-1.401433
0.230200,-1.579954
0.230300,-1.697453
0.230400,-1.596183
0.230500,-1.545548
0.230600,-1.536135
0.230700,-1.596183
0.230800,-1.647467
0.230900,-1.639677
0.231000,-1.621500
0.231100,-1.591639
0.231200,-1.624097
0.231300,-1.656880
0.231400,-1.819820
0.231500,-1.751009
0.231600,-1.722770
0.231700,-1.744192
0.231800,-1.821119
0.231900,-1.843839
0.232000,-1.705567
0.232100,-1.519581
0.232200,-1.467648
0.232300,-1.695181
0.232400,-2.056117
0.232500,-2.139210
0.232600,-2.044107
0.232700,-1.766913
0.232800,-1.651362
0.232900,-1.812355
0.233000,-2.093444
0.233100,-2.344671
0.233200,-2.297606
0.233300,-2.158685
0.233400,-2.048327
0.233500,-2.051572
0.233600,-2.127849
0.233700,-2.205425
0.233800,-2.198284
0.233900,-2.151544
0.234000,-2.048327
0.234100,-1.987630
0.234200,-1.910379
0.234300,-1.776002
0.234400,-1.632861
0.234500,-1.563725
0.234600,-1.553338
0.234700,-1.507896
0.234800,-1.467973
0.234900,-1.256345
0.235000,-1.134951
0.235100,-0.939228
0.235200,-0.808097
0.235300,-0.808422
0.235400,-0.756489
0.235500,-0.633797
0.235600,-0.504613
0.235700,-0.319277
0.235800,-0.209244
0.235900,-0.163478
0.236000,-0.126475
0.236100,-0.133941
0.236200,-0.060910
0.236300,-0.066103
0.236400,-0.068051
0.236500,0.016990
0.236600,-0.033970
0.236700,0.033219
0.236800,-0.100833
0.236900,-0.037540
0.237000,-0.189769
0.237100,-0.045330
0.237200,0.032245
0.237300,0.396750
0.237400,0.491528
0.237500,0.240627
0.237600,-0.120308
0.237700,-0.082008
0.237800,0.076064
0.237900,0.361695
0.238000,0.454526
0.238100,0.358125
0.238200,0.184149
0.238300,0.095539
0.238400,0.210116
0.238500,0.451605
0.238600,0.582411
0.238700,0.684654
0.238800,0.554497
0.238900,0.724902
0.239000,0.661933
0.239100,0.971584
0.239200,1.410419
0.239300,1.794723
0.239400,1.825883
0.239500,2.133587
0.239600,1.662943
0.239700,1.600948
0.239800,1.528242
0.239900,1.347774
0.240000,1.201713
0.240100,1.054677
0.240200,1.829454
0.240300,1.591860
0.240400,0.880701
0.240500,-0.141406
0.240600,-0.118361
0.240700,0.773589
0.240800,2.164747
0.240900,2.430904
0.241000,0.562936
0.241100,-0.389062
0.241200,-0.450083
0.241300,-0.296232
0.241400,0.735938
0.241500,0.567805
0.241600,-0.444241
0.241700,-0.636069
0.241800,-0.692871
0.241900,-0.747076
0.242000,-0.778885
0.242100,-0.882426
0.242200,-1.000574
0.242300,-1.109958
0.242400,-1.218044
0.242500,-1.256020
0.242600,-1.320612
0.242700,-1.381634
0.242800,-1.430646
0.242900,-1.399161
0.243000,-1.404355
0.243100,-1.395266
0.243200,-1.572164
0.243300,-1.724068
0.243400,-1.759123
0.243500,-1.726990
0.243600,-1.592612
0.243700,-1.677653
0.243800,-1.726665
0.243900,-1.732183
0.244000,-1.721472
0.244100,-1.727963
0.244200,-1.738025
0.244300,-1.740298
0.244400,-1.732183
0.244500,-1.749061
0.244600,-1.742894
0.244700,-1.736727
0.244800,-1.734455
0.244900,-1.737376
0.245000,-1.762045
0.245100,-1.719200
0.245200,-1.726016
0.245300,-1.723095
0.245400,-1.759772
0.245500,-1.825663
0.245600,-2.114542
0.245700,-2.357654
0.245800,-2.195038
0.245900,-1.857796
0.246000,-1.615658
0.246100,-1.764641
0.246200,-2.106427
0.246300,-2.388814
0.246400,-2.325196
0.246500,-2.111620
0.246600,-1.912326
0.246700,-1.933100
0.246800,-2.098312
0.246900,-2.263525
0.247000,-2.311888
0.247100,-2.216461
0.247200,-2.120709
0.247300,-2.095391
0.247400,-2.191143
0.247500,-2.216136
0.247600,-2.224575
0.247700,-2.197635
0.247800,-2.196012
0.247900,-2.270991
0.248000,-2.284948
0.248100,-2.329416
0.248200,-2.300203
0.248300,-2.309941
0.248400,-2.354409
0.248500,-2.392709
0.248600,-2.433931
0.248700,-2.234637
0.248800,-2.111945
0.248900,-2.130122
0.249000,-2.353435
0.249100,-2.597846
0.249200,-2.711126
0.249300,-2.489435
0.249400,-2.212241
0.249500,-2.196012
0.249600,-2.422896
0.249700,-2.685159
0.249800,-2.794544
0.249900,-2.720539
0.250000,-2.564089
0.250100,-2.472232
0.250200,-2.505340
0.250300,-2.607259
0.250400,-2.660491
0.250500,-2.631927
0.250600,-2.586161
0.250700,-2.528385
0.250800,-2.508586
0.250900,-2.376480
0.251000,-2.218733
0.251100,-2.096365
0.251200,-2.049625
0.251300,-2.078188
0.251400,-2.059362
0.251500,-1.985033
0.251600,-1.736727
0.251700,-1.642598
0.251800,-1.464402
0.251900,-1.314445
0.252000,-1.260565
0.252100,-1.158321
0.252200,-1.002197
0.252300,-0.855162
0.252400,-0.643859
0.252500,-0.550379
0.252600,-0.475076
0.252700,-0.465663
0.252800,-0.418274
0.252900,-0.416651
0.253000,-0.351410
0.253100,-0.338752
0.253200,-0.267668
0.253300,-0.271239
0.253400,-0.225148
0.253500,-0.218981
0.253600,-0.235859
0.253700,-0.268642
0.253800,-0.218981
0.253900,0.127672
0.254000,0.380197
0.254100,0.504511
0.254200,0.075739
0.254300,-0.252738
0.254400,-0.140757
0.254500,0.188044
0.254600,0.466535
0.254700,0.430831
0.254800,0.362994
0.254900,0.069247
0.255000,0.041983
0.255100,0.169219
0.255200,0.449008
0.255300,0.531452
0.255400,0.531127
0.255500,0.449008
0.255600,0.436349
0.255700,0.446736
0.255800,0.725876
0.255900,0.974830
0.256000,1.324080
0.256100,1.332844
0.256200,1.801864
0.256300,1.425999
0.256400,1.203660
0.256500,1.095899
0.256600,1.302008
0.256700,1.404252
0.256800,2.032317
0.256900,2.557167
0.257000,2.404613
0.257100,0.911212
0.257200,-0.063182
0.257300,0.170192
0.257400,1.575955
0.257500,2.871038
0.257600,2.514646
0.257700,0.431156
0.257800,-0.385816
0.257900,-0.359525
0.258000,-0.019039
0.258100,1.351994
0.258200,0.979374
0.258300,-0.188795
0.258400,-0.552651
0.258500,-0.592250
0.258600,-0.635420
0.258700,-0.595496
0.258800,-0.718188
0.258900,-0.815887
0.259000,-0.930465
0.259100,-0.951238
0.259200,-0.950913
0.259300,-1.017453
0.259400,-1.051534
0.259500,-1.062894
0.259600,-1.048937
0.259700,-1.058999
0.259800,-1.103791
0.259900,-1.300488
0.260000,-1.437787
0.260100,-1.428698
0.260200,-1.422531
0.260300,-1.304383
0.260400,-1.394942
0.260500,-1.398837
0.260600,-1.342359
0.260700,-1.306980
0.260800,-1.268355
0.260900,-1.217071
0.261000,-1.133978
0.261100,-1.100870
0.261200,-0.997004
0.261300,-0.933061
0.261400,-0.828221
0.261500,-0.714293
0.261600,-0.101483
0.261700,0.291910
0.261800,0.521390
0.261900,0.928739
0.262000,0.827470
0.262100,1.162114
0.262200,0.359099
0.262300,-0.836336
0.262400,-0.883400
0.262500,-0.554923
0.262600,2.163773
0.262700,3.181014
0.262800,2.594494
0.262900,0.107548
0.263000,-0.605883
0.263100,-0.090447
0.263200,1.618800
0.263300,2.725625
0.263400,2.256279
0.263500,1.078696
0.263600,-0.158284
0.263700,-0.350437
0.263800,-0.115115
0.263900,0.172789
0.264000,-0.290389
0.264100,-0.237158
0.264200,-0.286819
0.264300,-0.302074
0.264400,-0.313759
0.264500,-0.348165
0.264600,-0.455601
0.264700,-0.555572
0.264800,-0.548432
0.264900,-0.514026
0.265000,-0.590303
0.265100,-0.648727
0.265200,-0.722083
0.265300,-0.713644
0.265400,-0.547458
0.265500,-0.420546
0.265600,-0.520193
0.265700,-0.791868
0.265800,-1.101844
0.265900,-1.108336
0.266000,-0.879505
0.266100,-0.729873
0.266200,-0.772718
0.266300,-1.038875
0.266400,-1.353395
0.266500,-1.501080
0.266600,-1.448822
0.266700,-1.340087
0.266800,-1.335219
0.266900,-1.400460
0.267000,-1.504001
0.267100,-1.577032
0.267200,-1.616632
0.267300,-1.652011
0.267400,-1.628316
0.267500,-1.630589
0.267600,-1.572813
0.267700,-1.449796
0.267800,-1.391047
0.267900,-1.402083
0.268000,-1.436488
0.268100,-1.480956
0.268200,-1.353395
0.268300,-1.219667
0.268400,-1.043419
0.268500,-0.933061
0.268600,-1.021348
0.268700,-1.000899
0.268800,-0.970713
0.268900,-0.907095
0.269000,-0.861004
0.269100,-0.783429
0.269200,-0.770770
0.269300,-0.858407
0.269400,-0.932087
0.269500,-0.962274
0.269600,-1.011610
0.269700,-1.028164
0.269800,-1.002522
0.269900,-1.038226
0.270000,-0.991161
0.270100,-1.054779
0.270200,-1.010636
0.270300,-1.143715
0.270400,-1.041796
0.270500,-0.954808
0.270600,-0.602961
0.270700,-0.386141
0.270800,-0.400098
0.270900,-0.934360
0.271000,-1.021997
0.271100,-0.797386
0.271200,-0.391983
0.271300,-0.190418
0.271400,-0.060910
0.271500,-0.316356
0.271600,-0.364718
0.271700,-0.383219
0.271800,-0.112194
0.271900,0.057563
0.272000,0.160455
0.272100,0.119882
0.272200,0.140655
0.272300,0.171491
0.272400,0.187720
0.272500,0.234135
0.272600,0.291261
0.272700,0.306192
0.272800,0.369161
0.272900,0.706726
0.273000,0.814162
0.273100,0.149419
0.273200,-0.017091
0.273300,0.101056
0.273400,0.382793
0.273500,0.885895
0.273600,0.566182
0.273700,0.252636
0.273800,-0.368289
0.273900,-0.389062
0.274000,-0.336155
0.274100,0.242249
0.274200,0.616167
0.274300,-0.724355
0.274400,-0.592250
0.274500,-0.763954
0.274600,-0.744154
0.274700,-0.567582
0.274800,-0.538370
0.274900,-0.682484
0.275000,-0.909691
0.275100,-0.994407
0.275200,-0.996355
0.275300,-1.079772
0.275400,-1.090159
0.275500,-1.194999
0.275600,-1.235572
0.275700,-1.214799
0.275800,-1.222588
0.275900,-1.237519
0.276000,-1.331973
0.276100,-1.353720
0.276200,-1.329701
0.276300,-1.295944
0.276400,-1.243037
0.276500,-1.275495
0.276600,-1.469920
0.276700,-1.514713
0.276800,-1.516336
0.276900,-1.474464
0.277000,-1.398837
0.277100,-1.432918
0.277200,-1.408250
0.277300,-1.418636
0.277400,-1.400784
0.277500,-1.404679
0.277600,-1.371247
0.277700,-1.350474
0.277800,-1.381634
0.277900,-1.343333
0.278000,-1.355992
0.278100,-1.315094
0.278200,-1.301462
0.278300,-1.273223
0.278400,-1.255371
0.278500,-1.216097
0.278600,-1.227457
0.278700,-1.187534
0.278800,-1.289128
0.278900,-1.502703
0.279000,-1.833777
0.279100,-1.908431
0.279200,-1.585796
0.279300,-1.380011
0.279400,-1.358264
0.279500,-1.777300
0.279600,-2.131420
0.279700,-2.328117
0.279800,-2.222628
0.279900,-2.048002
0.280000,-2.023658
0.280100,-2.208995
0.280200,-2.475803
0.280300,-2.616347
0.280400,-2.677369
0.280500,-2.602390
0.280600,-2.689054
0.280700,-2.767603
0.280800,-2.887700
0.280900,-2.913991
0.281000,-2.960406
0.281100,-2.983776
0.281200,-3.053237
0.281300,-3.194432
0.281400,-3.223320
0.281500,-3.238900
0.281600,-3.163272
0.281700,-3.227215
0.281800,-3.321344
0.281900,-3.331406
0.282000,-3.260322
0.282100,-3.013963
0.282200,-2.927299
0.282300,-3.102250
0.282400,-3.355426
0.282500,-3.542387
0.282600,-3.351531
0.282700,-3.040254
0.282800,-2.860759
0.282900,-2.931194
0.283000,-3.116531
0.283100,-3.309010
0.283200,-3.264867
0.283300,-3.023376
0.283400,-2.799737
0.283500,-2.702687
0.283600,-2.673150
0.283700,-2.609207
0.283800,-2.487488
0.283900,-2.319354
0.284000,-2.200881
0.284100,-2.020412
0.284200,-1.867209
0.284300,-1.611763
0.284400,-1.314445
0.284500,-1.095677
0.284600,-0.941500
0.284700,-0.781481
0.284800,-0.643859
0.284900,-0.301100
0.285000,-0.028776
0.285100,0.360073
0.285200,0.554497
0.285300,0.652521
0.285400,0.808320
0.285500,1.023517
0.285600,1.556156
0.285700,3.160890
0.285800,4.063232
0.285900,5.106772
0.286000,5.432331
0.286100,6.102278
0.286200,6.703091
0.286300,7.067605
0.286400,7.646025
0.286500,8.223150
0.286600,8.463024
0.286700,9.238482
0.286800,8.950565
0.286900,9.599758
0.287000,9.173563
0.287100,9.590669
0.287200,10.654057
0.287300,10.654057
0.287400,10.654057
0.287500,10.654057
0.287600,10.654057
0.287700,10.488835
0.287800,10.654057
0.287900,10.654057
0.288000,10.654057
0.288100,10.654057
0.288200,10.654057
0.288300,10.654057
0.288400,10.654057
0.288500,10.654057
0.288600,10.654057
0.288700,10.654057
0.288800,10.654057
0.288900,10.654057
0.289000,10.654057
0.289100,10.654057
0.289200,10.654057
0.289300,10.654057
0.289400,10.654057
0.289500,10.654057
0.289600,10.654057
0.289700,9.878263
0.289800,8.939204
0.289900,7.993988
0.290000,6.754376
0.290100,6.399925
0.290200,5.923755
0.290300,5.335280
0.290400,3.555259
0.290500,0.895957
0.290600,0.166947
0.290700,0.259128
0.290800,1.371469
0.290900,0.870639
0.291000,-0.361472
0.291100,-0.812317
0.291200,-0.943123
0.291300,-0.931114
0.291400,-0.809395
0.291500,-0.875935
0.291600,-1.120994
0.291700,-1.386178
0.291800,-1.510493
0.291900,-1.557233
0.292000,-1.572164
0.292100,-1.664021
0.292200,-1.807162
0.292300,-1.940565
0.292400,-1.994770
0.292500,-1.982112
0.292600,-1.997367
0.292700,-2.079811
0.292800,-2.111945
0.292900,-2.080136
0.293000,-2.038265
0.293100,-2.002236
0.293200,-2.074293
0.293300,-2.219057
0.293400,-2.184002
0.293500,-2.150895
0.293600,-2.036642
0.293700,-1.971076
0.293800,-1.979190
0.293900,-1.936021
0.294000,-1.908756
0.294100,-1.852603
0.294200,-1.818522
0.294300,-1.826637
0.294400,-1.809434
0.294500,-1.798398
0.294600,-1.787687
0.294700,-1.794178
0.294800,-1.794827
0.294900,-1.787362
0.295000,-1.778923
0.295100,-1.770808
0.295200,-1.784116
0.295300,-1.818197
0.295400,-1.856823
0.295500,-1.962961
0.295600,-2.226523
0.295700,-2.542342
0.295800,-2.359602
0.295900,-2.101234
0.296000,-1.812355
0.296100,-1.906484
0.296200,-2.184652
0.296300,-2.508910
0.296400,-2.472232
0.296500,-2.242103
0.296600,-1.992823
0.296700,-1.951276
0.296800,-2.127525
0.296900,-2.267420
0.297000,-2.340127
0.297100,-2.235936
0.297200,-2.163229
0.297300,-2.126551
0.297400,-2.172967
0.297500,-2.240804
0.297600,-2.234313
0.297700,-2.233664
0.297800,-2.226198
0.297900,-2.311888
0.298000,-2.376156
0.298100,-2.390762
0.298200,-2.417378
0.298300,-2.402122
0.298400,-2.451459
0.298500,-2.538772
0.298600,-2.563765
0.298700,-2.444318
0.298800,-2.265148
0.298900,-2.315459
0.299000,-2.515402
0.299100,-2.800062
0.299200,-2.959108
0.299300,-2.785131
0.299400,-2.525139
0.299500,-2.480347
0.299600,-2.659517
0.299700,-2.959433
0.299800,-3.176580
0.299900,-3.173658
0.300000,-3.060703
0.300100,-2.973714
0.300200,-3.038956
0.300300,-3.163596
0.300400,-3.261945
0.300500,-3.271683
0.300600,-3.274604
0.300700,-3.259998
0.300800,-3.248637
0.300900,-3.210661
0.301000,-3.114908
0.301100,-2.910745
0.301200,-2.846477
0.301300,-2.884778
0.301400,-2.917237
0.301500,-2.896463
0.301600,-2.699765
0.301700,-2.612452
0.301800,-2.556949
0.301900,-2.360576
0.302000,-2.333960
0.302100,-2.254761
0.302200,-2.127200
0.302300,-1.997367
0.302400,-1.786064
0.302500,-1.706216
0.302600,-1.591639
0.302700,-1.604947
0.302800,-1.479982
0.302900,-1.451094
0.303000,-1.373844
0.303100,-1.259915
0.303200,-1.158970
0.303300,-1.085615
0.303400,-1.002522
0.303500,-1.005118
0.303600,-0.966818
0.303700,-0.953510
0.303800,-0.869119
0.303900,-0.480269
0.304000,-0.178733
0.304100,0.074441
0.304200,-0.352384
0.304300,-0.542914
0.304400,-0.496498
0.304500,-0.106027
0.304600,0.226020
0.304700,0.391882
0.304800,0.324369
0.304900,0.079959
0.305000,0.123777
0.305100,0.259452
0.305200,0.576244
0.305300,1.049484
0.305400,1.862236
0.305500,1.385101
0.305600,1.999859
0.305700,2.297176
0.305800,3.089482
0.305900,3.861341
0.306000,4.195662
0.306100,4.469936
0.306200,4.898388
0.306300,4.787055
0.306400,4.630281
0.306500,4.639369
0.306600,4.669880
0.306700,4.647484
0.306800,5.239852
0.306900,5.454078
0.307000,5.688105
0.307100,4.066478
0.307200,2.867467
0.307300,3.219640
0.307400,4.310565
0.307500,5.931221
0.307600,5.407987
0.307700,3.809407
0.307800,2.057959
0.307900,2.112165
0.308000,3.132651
0.308100,4.456628
0.308200,4.570557
0.308300,3.234246
0.308400,2.321845
0.308500,2.334179
0.308600,2.162150
0.308700,2.729844
0.308800,2.234532
0.308900,1.685664
0.309000,1.111479
0.309100,0.927441
0.309200,1.121541
0.309300,0.728148
0.309400,0.329562
0.309500,0.144550
0.309600,0.247118
0.309700,0.308140
0.309800,0.261400
0.309900,-1.011935
0.310000,-0.888593
0.310100,-0.880479
0.310200,-0.852889
0.310300,-0.386141
0.310400,-0.802255
0.310500,-0.623085
0.310600,-0.455926
0.310700,-0.197559
0.310800,-0.134590
0.310900,0.276655
0.311000,0.341247
0.311100,0.429208
0.311200,0.552225
0.311300,0.844348
0.311400,0.823900
0.311500,1.040071
0.311600,1.084539
0.311700,1.444175
0.311800,1.380233
0.311900,1.423077
0.312000,0.995928
0.312100,0.971909
0.312200,-0.083306
0.312300,-0.963247
0.312400,-1.149233
0.312500,-0.988565
0.312600,-0.278704
0.312700,0.162078
0.312800,-0.733768
0.312900,-1.134627
0.313000,-1.408899
0.313100,-1.375467
0.313200,-1.148584
0.313300,-1.048937
0.313400,-1.117424
0.313500,-1.366378
0.313600,-1.574760
0.313700,-1.618254
0.313800,-1.597481
0.313900,-1.551390
0.314000,-1.578006
0.314100,-1.641624
0.314200,-1.687066
0.314300,-1.742245
0.314400,-1.759772
0.314500,-1.769185
0.314600,-1.848708
0.314700,-1.943162
0.314800,-1.997367
0.314900,-1.979515
0.315000,-2.018465
0.315100,-2.088575
0.315200,-2.150246
0.315300,-2.138561
0.315400,-1.965558
0.315500,-1.807486
0.315600,-1.960040
0.315700,-2.171668
0.315800,-2.475803
0.315900,-2.477101
0.316000,-2.267420
0.316100,-2.038265
0.316200,-2.027553
0.316300,-2.265797
0.316400,-2.553378
0.316500,-2.688080
0.316600,-2.570581
0.316700,-2.391736
0.316800,-2.322275
0.316900,-2.391411
0.317000,-2.490409
0.317100,-2.540719
0.317200,-2.524490
0.317300,-2.514104
0.317400,-2.468662
0.317500,-2.458275
0.317600,-2.355707
0.317700,-2.242752
0.317800,-2.190494
0.317900,-2.227821
0.318000,-2.251516
0.318100,-2.269043
0.318200,-2.171993
0.318300,-2.005806
0.318400,-1.943162
0.318500,-1.747114
0.318600,-1.783792
0.318700,-1.733806
0.318800,-1.633185
0.318900,-1.548145
0.319000,-1.407276
0.319100,-1.233624
0.319200,-1.174226
0.319300,-1.109634
0.319400,-1.161892
0.319500,-1.061271
0.319600,-1.105090
0.319700,-0.991161
0.319800,-1.009987
0.319900,-0.896708
0.320000,-0.920727
0.320100,-0.880154
0.320200,-0.891839
0.320300,-0.943123
0.320400,-0.844126
0.320500,-0.841529
0.320600,-0.445215
0.320700,-0.144652
0.320800,-0.221578
0.320900,-0.550379
0.321000,-0.804527
0.321100,-0.574398
0.321200,-0.300451
0.321300,0.026727
0.321400,0.028026
0.321500,-0.123229
0.321600,-0.267668
0.321700,-0.194962
0.321800,0.052369
0.321900,0.262049
0.322000,0.329562
0.322100,0.406488
0.322200,0.353256
0.322300,0.414602
0.322400,0.445113
0.322500,0.848243
0.322600,1.502600
0.322700,2.056012
0.322800,2.551973
0.322900,3.113826
0.323000,3.601349
0.323100,3.009635
0.323200,3.617903
0.323300,3.897045
0.323400,4.493631
0.323500,5.710826
0.323600,6.311637
0.323700,6.758271
0.323800,5.607283
0.323900,5.372932
0.324000,6.455105
0.324100,8.749641
0.324200,10.160340
0.324300,9.975967
0.324400,8.444198
0.324500,7.689845
0.324600,8.328643
0.324700,10.017191
0.324800,10.654057
0.324900,10.654057
0.325000,10.172025
0.325100,9.611444
0.325200,9.849374
0.325300,9.742581
0.325400,10.100289
0.325500,9.616637
0.325600,9.263151
0.325700,8.990491
0.325800,8.769766
0.325900,8.645122
0.326000,8.083250
0.326100,7.649920
0.326200,7.629471
0.326300,7.755737
0.326400,7.672966
0.326500,7.087080
0.326600,5.665060
0.326700,4.869824
0.326800,4.532581
0.326900,4.777967
0.327000,4.478375
0.327100,3.345902
0.327200,2.794112
0.327300,2.331257
0.327400,1.918714
0.327500,1.355240
0.327600,1.061493
0.327700,0.412655
0.327800,-0.029425
0.327900,-0.553300
0.328000,-0.836985
0.328100,-0.910340
0.328200,-0.943772
0.328300,-0.989863
0.328400,-0.986293
0.328500,-0.995706
0.328600,-1.021672
0.328700,-1.011285
0.328800,-1.057376
0.328900,-1.230703
0.329000,-1.590016
0.329100,-1.616632
0.329200,-1.357615
0.329300,-1.008040
0.329400,-0.964221
0.329500,-1.278417
0.329600,-1.644870
0.329700,-1.797099
0.329800,-1.625720
0.329900,-1.397863
0.330000,-1.321261
0.330100,-1.481605
0.330200,-1.717577
0.330300,-1.822092
0.330400,-1.795152
0.330500,-1.736403
0.330600,-1.723095
0.330700,-1.806188
0.330800,-1.859744
0.330900,-1.864937
0.331000,-1.863639
0.331100,-1.866885
0.331200,-1.914923
0.331300,-2.021062
0.331400,-2.040537
0.331500,-2.040537
0.331600,-1.980489
0.331700,-2.058064
0.331800,-2.162255
0.331900,-2.217434
0.332000,-2.199582
0.332100,-1.893825
0.332200,-1.810083
0.332300,-1.954198
0.332400,-2.206723
0.332500,-2.411535
0.332600,-2.267096
0.332700,-1.926283
0.332800,-1.668565
0.332900,-1.680250
0.333000,-1.917195
0.333100,-2.121682
0.333200,-2.095391
0.333300,-1.879219
0.333400,-1.661749
0.333500,-1.611438
0.333600,-1.641949
0.333700,-1.676030
0.333800,-1.636431
0.333900,-1.571515
0.334000,-1.514713
0.334100,-1.449796
0.334200,-1.372221
0.334300,-1.268355
0.334400,-1.102168
0.334500,-0.975906
0.334600,-0.921701
0.334700,-0.882426
0.334800,-0.844126
0.334900,-0.650999
0.335000,-0.441969
0.335100,-0.147898
0.335200,-0.076165
0.335300,-0.062857
0.335400,-0.012872
0.335500,0.077037
0.335600,0.213037
0.335700,0.363643
0.335800,0.464588
0.335900,0.546707
0.336000,0.543461
0.336100,0.543461
0.336200,0.592473
0.336300,0.609676
0.336400,0.618439
0.336500,0.690172
0.336600,0.674268
0.336700,0.805074
0.336800,0.699585
0.336900,0.840129
0.337000,0.639213
0.337100,0.795986
0.337200,0.834935
0.337300,2.093339
0.337400,3.109606
0.337500,2.401043
0.337600,0.693418
0.337700,0.625580
0.337800,0.857656
0.337900,2.406236
0.338000,3.856472
0.338100,3.332270
0.338200,1.979086
0.338300,0.467834
0.338400,1.737922
0.338500,2.611372
0.338600,3.946706
0.338700,3.961637
0.338800,3.600700
0.338900,2.932384
0.339000,2.826570
0.339100,2.890837
0.339200,3.009959
0.339300,3.010284
0.339400,2.847992
0.339500,2.184546
0.339600,2.188441
0.339700,1.619449
0.339800,1.306877
0.339900,0.943346
0.340000,0.628826
0.340100,0.475948
0.340200,1.210152
0.340300,0.888816
0.340400,0.393829
0.340500,-0.363745
0.340600,-0.371210
0.340700,-0.318303
0.340800,0.555146
0.340900,0.952759
0.341000,-0.597443
0.341100,-0.573100
0.341200,-0.682484
0.341300,-0.522140
0.341400,0.048474
0.341500,1.188080
0.341600,0.698287
0.341700,-0.326418
0.341800,-0.463391
0.341900,-0.186198
0.342000,0.441218
0.342100,0.938152
0.342200,0.664205
0.342300,0.341247
0.342400,0.269190
0.342500,0.632072
0.342600,0.850515
0.342700,0.629800
0.342800,0.539242
0.342900,0.839804
0.343000,0.998849
0.343100,1.316939
0.343200,0.888491
0.343300,-0.331286
0.343400,-0.634121
0.343500,-0.643859
0.343600,0.086126
0.343700,0.276980
0.343800,0.082880
0.343900,0.094889
0.344000,0.071844
0.344100,0.179930
0.344200,0.386688
0.344300,0.482440
0.344400,0.378249
0.344500,0.509056
0.344600,0.637265
0.344700,0.637265
0.344800,0.689847
0.344900,0.613895
0.345000,0.708349
0.345100,0.473027
0.345200,0.457772
0.345300,-0.156986
0.345400,-0.307916
0.345500,-0.818484
0.345600,-1.147285
0.345700,-1.470245
0.345800,-1.456612
0.345900,-1.169682
0.346000,-0.941500
0.346100,-1.003171
0.346200,-1.337166
0.346300,-1.693882
0.346400,-1.823391
0.346500,-1.660775
0.346600,-1.455314
0.346700,-1.389748
0.346800,-1.609166
0.346900,-1.842541
0.347000,-2.026255
0.347100,-1.993472
0.347200,-1.965233
0.347300,-1.930828
0.347400,-1.963286
0.347500,-2.035343
0.347600,-2.106102
0.347700,-2.140184
0.347800,-2.150570
0.347900,-2.217759
0.348000,-2.252489
0.348100,-2.369339
0.348200,-2.369015
0.348300,-2.422896
0.348400,-2.495278
0.348500,-2.548509
0.348600,-2.606610
0.348700,-2.462819
0.348800,-2.251840
0.348900,-2.270666
0.349000,-2.444318
0.349100,-2.710152
0.349200,-2.868549
0.349300,-2.714047
0.349400,-2.415430
0.349500,-2.302151
0.349600,-2.398227
0.349700,-2.642963
0.349800,-2.846477
0.349900,-2.818888
0.350000,-2.661140
0.350100,-2.494304
0.350200,-2.463144
0.350300,-2.473531
0.350400,-2.505664
0.350500,-2.520920
0.350600,-2.506963
0.350700,-2.474180
0.350800,-2.396929
0.350900,-2.306695
0.351000,-2.219057
0.351100,-2.014895
0.351200,-1.906808
0.351300,-1.899018
0.351400,-1.919467
0.351500,-1.888956
0.351600,-1.673109
0.351700,-1.560479
0.351800,-1.523476
0.351900,-1.273872
0.352000,-1.246608
0.352100,-1.170980
0.352200,-1.052832
0.352300,-0.921701
0.352400,-0.747400
0.352500,-0.635095
0.352600,-0.564012
0.352700,-0.532527
0.352800,-0.455277
0.352900,-0.436451
0.353000,-0.407238
0.353100,-0.364394
0.353200,-0.230666
0.353300,-0.220604
0.353400,-0.096938
0.353500,-0.156012
0.353600,-0.120308
0.353700,-0.210542
0.353800,-0.122256
0.353900,0.107873
0.354000,0.517819
0.354100,0.562936
0.354200,0.338326
0.354300,-0.206322
0.354400,-0.125177
0.354500,-0.021960
0.354600,0.390908
0.354700,0.469457
0.354800,0.270813
0.354900,0.033543
0.355000,-0.197234
0.355100,-0.083306
0.355200,0.019911
0.355300,0.162078
0.355400,0.144226
0.355500,0.018613
0.355600,0.027376
0.355700,-0.059936
0.355800,-0.016767
0.355900,-0.047277
0.356000,-0.047277
0.356100,-0.069674
0.356200,-0.009626
0.356300,0.025754
0.356400,-0.029750
0.356500,-0.187497
0.356600,-0.124528
0.356700,-0.171917
0.356800,0.011796
0.356900,0.127672
0.357000,0.255882
0.357100,-0.075516
0.357200,-0.358551
0.357300,-0.238781
0.357400,0.631423
0.357500,2.214408
0.357600,2.735687
0.357700,1.369521
0.357800,-0.006705
0.357900,0.416225
0.358000,1.571736
0.358100,3.385502
0.358200,3.780844
0.358300,3.104737
0.358400,2.742179
0.358500,3.097921
0.358600,3.427373
0.358700,4.046353
0.358800,3.999289
0.358900,3.927556
0.359000,3.837322
0.359100,4.137886
0.359200,4.685135
0.359300,4.670854
0.359400,4.483568
0.359500,4.654624
0.359600,5.214209
0.359700,5.660840
0.359800,6.132465
0.359900,5.702062
0.360000,4.998035
0.360100,5.079182
0.360200,5.241475
0.360300,6.280477
0.360400,6.018535
0.360500,5.867926
0.360600,5.986725
0.360700,6.061705
0.360800,6.008473
0.360900,5.961732
0.361000,5.904929
0.361100,5.724134
0.361200,5.665709
0.361300,5.525487
0.361400,5.376178
0.361500,5.055487
0.361600,4.734797
0.361700,4.451759
0.361800,4.256359
0.361900,3.789283
0.362000,3.255993
0.362100,2.367611
0.362200,1.424700
0.362300,-0.844126
0.362400,-1.113853
0.362500,-1.047314
0.362600,-0.806799
0.362700,-0.726302
0.362800,-0.990512
0.362900,-1.419610
0.363000,-1.809434
0.363100,-1.816574
0.363200,-1.699076
0.363300,-1.623123
0.363400,-1.774379
0.363500,-2.125577
0.363600,-2.392060
0.363700,-2.544290
0.363800,-2.490409
0.363900,-2.527736
0.364000,-2.622839
0.364100,-2.748453
0.364200,-2.833169
0.364300,-2.894840
0.364400,-2.940931
0.364500,-3.000330
0.364600,-3.104846
0.364700,-3.198976
0.364800,-3.216179
0.364900,-3.145095
0.365000,-3.144121
0.365100,-3.199950
0.365200,-3.259024
0.365300,-3.210985
0.365400,-3.019481
0.365500,-2.803957
0.365600,-2.856539
0.365700,-3.035061
0.365800,-3.259673
0.365900,-3.285965
0.366000,-3.038631
0.366100,-2.755594
0.366200,-2.686133
0.366300,-2.793895
0.366400,-3.024025
0.366500,-3.111013
0.366600,-2.935413
0.366700,-2.677694
0.366800,-2.530008
0.366900,-2.490734
0.367000,-2.502419
0.367100,-2.476776
0.367200,-2.421597
0.367300,-2.325196
0.367400,-2.234313
0.367500,-2.179134
0.367600,-2.092470
0.367700,-1.929854
0.367800,-1.757176
0.367900,-1.665968
0.368000,-1.620202
0.368100,-1.603324
0.368200,-1.489395
0.368300,-1.220316
0.368400,-1.046990
0.368500,-0.825949
0.368600,-0.822703
0.368700,-0.802579
0.368800,-0.692871
0.368900,-0.587381
0.369000,-0.490656
0.369100,-0.337778
0.369200,-0.275783
0.369300,-0.292661
0.369400,-0.270590
0.369500,-0.311487
0.369600,-0.235859
0.369700,-0.298179
0.369800,-0.261177
0.369900,-0.222551
0.370000,-0.250466
0.370100,-0.231315
0.370200,-0.296232
0.370300,-0.338427
0.370400,-0.371210
0.370500,-0.381272
0.370600,-0.018390
0.370700,0.103329
0.370800,0.256531
0.370900,-0.269940
0.371000,-0.497148
0.371100,-0.420871
0.371200,-0.148547
0.371300,0.147796
0.371400,0.181553
0.371500,-0.035917
0.371600,-0.188146
0.371700,-0.247220
0.371800,0.004980
0.371900,0.184798
0.372000,0.274708
0.372100,0.192913
0.372200,0.206221
0.372300,0.147147
0.372400,0.237381
0.372500,0.286393
0.372600,0.314307
0.372700,0.327939
0.372800,0.392531
0.372900,0.538592
0.373000,0.185123
0.373100,-0.090447
0.373200,0.040360
0.373300,0.072818
0.373400,0.026727
0.373500,0.540215
0.373600,0.806697
0.373700,0.598640
0.373800,-0.157311
0.373900,-0.354656
0.374000,-0.279678
0.374100,0.414602
0.374200,1.525970
0.374300,0.803451
0.374400,-0.277730
0.374500,-0.510456
0.374600,-0.420546
0.374700,-0.024557
0.374800,1.116997
0.374900,0.998849
0.375000,0.308464
0.375100,-0.143029
0.375200,0.148445
0.375300,0.096512
0.375400,0.673618
0.375500,0.283471
0.375600,0.210440
0.375700,-0.004757
0.375800,0.155586
0.375900,0.287366
0.376000,0.026403
0.376100,-0.181979
0.376200,-0.002485
0.376300,0.489905
0.376400,0.625256
0.376500,0.588253
0.376600,-0.357577
0.376700,-0.739610
0.376800,-0.770770
0.376900,-0.530580
0.377000,0.229266
0.377100,-0.160232
0.377200,-0.135239
0.377300,0.029648
0.377400,0.171491
0.377500,0.327939
0.377600,0.370135
0.377700,0.575270
0.377800,0.593771
0.377900,0.808320
0.378000,0.883947
0.378100,0.790792
0.378200,1.010209
0.378300,0.820654
0.378400,1.053379
0.378500,0.671995
0.378600,0.567480
0.378700,0.149744
0.378800,-0.057664
0.378900,-0.827572
0.379000,-1.237195
0.379100,-1.331324
0.379200,-1.147610
0.379300,-0.837634
0.379400,-0.800632
0.379500,-1.087887
0.379600,-1.409548
0.379700,-1.630264
0.379800,-1.514063
0.379900,-1.324832
0.380000,-1.215772
0.380100,-1.400460
0.380200,-1.611763
0.380300,-1.799047
0.380400,-1.813329
0.380500,-1.773405
0.380600,-1.804889
0.380700,-1.890904
0.380800,-1.934723
0.380900,-1.962637
0.381000,-2.000288
0.381100,-2.023009
0.381200,-2.064880
0.381300,-2.186599
0.381400,-2.233664
0.381500,-2.246971
0.381600,-2.228795
0.381700,-2.245673
0.381800,-2.326170
0.381900,-2.351487
0.382000,-2.347917
0.382100,-2.081759
0.382200,-2.023983
0.382300,-2.141807
0.382400,-2.357654
0.382500,-2.562142
0.382600,-2.444967
0.382700,-2.201854
0.382800,-2.054818
0.382900,-2.130446
0.383000,-2.394008
0.383100,-2.605636
0.383200,-2.628357
0.383300,-2.476776
0.383400,-2.354084
0.383500,-2.351163
0.383600,-2.384919
0.383700,-2.391086
0.383800,-2.337206
0.383900,-2.277807
0.384000,-2.250542
0.384100,-2.174589
0.384200,-2.073969
0.384300,-1.900641
0.384400,-1.711410
0.384500,-1.609815
0.384600,-1.586121
0.384700,-1.566970
0.384800,-1.545873
0.384900,-1.340087
0.385000,-1.109958
0.385100,-1.071982
0.385200,-0.785052
0.385300,-0.811992
0.385400,-0.730522
0.385500,-0.609778
0.385600,-0.454627
0.385700,-0.349788
0.385800,-0.214437
0.385900,-0.155038
0.386000,-0.118361
0.386100,-0.080060
0.386200,-0.081683
0.386300,-0.015793
0.386400,-0.109272
0.386500,-0.028776
0.386600,-0.065454
0.386700,0.026403
0.386800,-0.037215
0.386900,-0.046953
0.387000,-0.154065
0.387100,-0.103430
0.387200,-0.029425
0.387300,0.351309
0.387400,0.564559
0.387500,0.586306
0.387600,0.004331
0.387700,-0.111545
0.387800,0.058861
0.387900,0.427261
0.388000,0.592798
0.388100,0.582411
0.388200,0.426612
0.388300,0.181877
0.388400,0.271786
0.388500,0.472702
0.388600,0.873236
0.388700,1.328624
0.388800,0.937828
0.388900,1.035851
0.389000,0.857656
0.389100,1.406848
0.389200,1.625292
0.389300,1.614256
0.389400,1.473712
0.389500,1.381855
0.389600,1.872948
0.389700,1.376987
0.389800,0.951136
0.389900,0.575270
0.390000,0.286068
0.390100,0.240302
0.390200,1.265006
0.390300,0.964768
0.390400,0.701208
0.390500,-0.329014
0.390600,-0.395878
0.390700,-0.335831
0.390800,0.322421
0.390900,0.870315
0.391000,-0.625682
0.391100,-0.604584
0.391200,-0.772393
0.391300,-0.631849
0.391400,-0.367640
0.391500,0.400321
0.391600,-0.319926
0.391700,-0.606532
0.391800,-0.701634
0.391900,-0.637367
0.392000,-0.587706
0.392100,-0.374131
0.392200,-0.667553
0.392300,-0.804851
0.392400,-0.904823
0.392500,-0.871715
0.392600,-0.860030
0.392700,-0.924947
0.392800,-0.972011
0.392900,-0.978827
0.393000,-0.969414
0.393100,-0.947667
0.393200,-1.005443
0.393300,-1.171304
0.393400,-1.212526
0.393500,-1.220966
0.393600,-1.064842
0.393700,-1.085939
0.393800,-1.164164
0.393900,-1.133653
0.394000,-1.145338
0.394100,-1.126188
0.394200,-1.112880
0.394300,-1.116126
0.394400,-1.107686
0.394500,-1.123591
0.394600,-1.090808
0.394700,-1.102168
0.394800,-1.093405
0.394900,-1.114178
0.395000,-1.134627
0.395100,-1.148584
0.395200,-1.169032
0.395300,-1.219343
0.395400,-1.232326
0.395500,-1.334569
0.395600,-1.556259
0.395700,-1.925959
0.395800,-1.914923
0.395900,-1.645195
0.396000,-1.367028
0.396100,-1.435514
0.396200,-1.776326
0.396300,-2.123630
0.396400,-2.221329
0.396500,-2.011000
0.396600,-1.771457
0.396700,-1.644870
0.396800,-1.815601
0.396900,-2.070723
0.397000,-2.199258
0.397100,-2.097663
0.397200,-1.942513
0.397300,-1.902589
0.397400,-1.910054
0.397500,-1.980813
0.397600,-2.043458
0.397700,-2.045405
0.397800,-2.031773
0.397900,-1.995420
0.398000,-2.054818
0.398100,-2.104804
0.398200,-2.157062
0.398300,-2.134017
0.398400,-2.160308
0.398500,-2.202179
0.398600,-2.250866
0.398700,-2.145702
0.398800,-2.019763
0.398900,-1.963610
0.399000,-2.126551
0.399100,-2.378103
0.399200,-2.577722
0.399300,-2.485216
0.399400,-2.228795
0.399500,-2.055467
0.399600,-2.129148
0.399700,-2.417053
0.399800,-2.688730
0.399900,-2.710477
0.400000,-2.525789
0.400100,-2.365444
0.400200,-2.325521
0.400300,-2.396604
0.400400,-2.487163
0.400500,-2.520595
0.400600,-2.501445
0.400700,-2.417702
0.400800,-2.320652
0.400900,-2.233014
0.401000,-2.160632
0.401100,-2.051897
0.401200,-1.981463
0.401300,-1.955496
0.401400,-1.920116
0.401500,-1.882789
0.401600,-1.688689
0.401700,-1.550741
0.401800,-1.291400
0.401900,-1.249853
0.402000,-1.255047
0.402100,-1.204412
0.402200,-1.136250
0.402300,-1.020049
0.402400,-0.860679
0.402500,-0.737663
0.402600,-0.728899
0.402700,-0.691897
0.402800,-0.770121
0.402900,-0.636069
0.403000,-0.732145
0.403100,-0.573749
0.403200,-0.574398
0.403300,-0.474752
0.403400,-0.478646
0.403500,-0.479945
0.403600,-0.464365
0.403700,-0.512078
0.403800,-0.410484
0.403900,-0.136537
0.404000,0.205247
0.404100,0.435700
0.404200,0.216283
0.404300,-0.070972
0.404400,-0.155688
0.404500,0.230240
0.404600,0.466860
0.404700,0.699909
0.404800,0.554172
0.404900,0.415251
0.405000,0.332159
0.405100,0.493800
0.405200,0.740482
0.405300,1.830427
0.405400,1.844709
0.405500,1.283832
0.405600,1.007937
0.405700,0.852463
0.405800,0.991708
0.405900,1.130954
0.406000,1.155622
0.406100,1.213073
0.406200,1.296490
0.406300,1.300710
0.406400,0.406488
0.406500,0.132541
0.406600,0.033868
0.406700,0.055290
0.406800,0.045228
0.406900,0.812864
0.407000,0.315280
0.407100,-0.089798
0.407200,-0.379649
0.407300,-0.378351
0.407400,-0.272212
0.407500,0.672320
0.407600,0.324369
0.407700,-0.335831
0.407800,-0.663009
0.407900,-0.691248
0.408000,-0.593873
0.408100,-0.391009
0.408200,-0.313110
0.408300,-0.546160
0.408400,-0.715916
0.408500,-0.747400
0.408600,-0.799983
0.408700,-0.799983
0.408800,-0.824651
0.408900,-0.868145
0.409000,-0.930140
0.409100,-0.957729
0.409200,-0.942474
0.409300,-0.987266
0.409400,-1.047963
0.409500,-1.065491
0.409600,-0.999276
0.409700,-0.966818
0.409800,-0.956107
0.409900,-1.067438
0.410000,-1.198894
0.410100,-1.201491
0.410200,-1.166760
0.410300,-1.015830
0.410400,-1.007066
0.410500,-0.999925
0.410600,-0.957080
0.410700,-0.933710
0.410800,-0.928517
0.410900,-0.901577
0.411000,-0.896708
0.411100,-0.867820
0.411200,-0.852240
0.411300,-0.849644
0.411400,-0.872689
0.411500,-0.861978
0.411600,-0.873014
0.411700,-0.859056
0.411800,-0.873338
0.411900,-0.895085
0.412000,-0.922675
0.412100,-0.969739
0.412200,-1.026865
0.412300,-1.373195
0.412400,-1.597157
0.412500,-1.436488
0.412600,-1.148908
0.412700,-1.016154
0.412800,-1.137873
0.412900,-1.579629
0.413000,-1.892202
0.413100,-1.930178
0.413200,-1.753281
0.413300,-1.614684
0.413400,-1.641949
0.413500,-1.914923
0.413600,-2.121682
0.413700,-2.193091
0.413800,-2.184652
0.413900,-2.152842
0.414000,-2.223601
0.414100,-2.316432
0.414200,-2.433931
0.414300,-2.463144
0.414400,-2.470609
0.414500,-2.495927
0.414600,-2.543316
0.414700,-2.710152
0.414800,-2.651727
0.414900,-2.646858
0.415000,-2.642639
0.415100,-2.725083
0.415200,-2.826353
0.415300,-2.850697
0.415400,-2.638419
0.415500,-2.431010
0.415600,-2.473531
0.415700,-2.686458
0.415800,-2.942230
0.415900,-3.013314
0.416000,-2.798764
0.416100,-2.527412
0.416200,-2.456328
0.416300,-2.635173
0.416400,-2.939308
0.416500,-3.085696
0.416600,-3.012340
0.416700,-2.819537
0.416800,-2.735470
0.416900,-2.770525
0.417000,-2.865628
0.417100,-2.875041
0.417200,-2.867251
0.417300,-2.822783
0.417400,-2.757217
0.417500,-2.699765
0.417600,-2.633226
0.417700,-2.516051
0.417800,-2.359277
0.417900,-2.287220
0.418000,-2.272938
0.418100,-2.272938
0.418200,-2.218733
0.418300,-1.968155
0.418400,-1.782818
0.418500,-1.562751
0.418600,-1.548145
0.418700,-1.548794
0.418800,-1.482904
0.418900,-1.355018
0.419000,-1.310226
0.419100,-1.149882
0.419200,-1.131056
0.419300,-1.087562
0.419400,-1.155400
0.419500,-1.126512
0.419600,-1.115152
0.419700,-1.136250
0.419800,-1.121319
0.419900,-1.040822
0.420000,-1.096326
0.420100,-0.992784
0.420200,-1.105090
0.420300,-1.025243
0.420400,-1.082694
0.420500,-0.986617
0.420600,-0.711372
0.420700,-0.397826
0.420800,-0.327716
0.420900,-0.760384
0.421000,-0.993433
0.421100,-0.938255
0.421200,-0.536747
0.421300,-0.204699
0.421400,-0.174513
0.421500,-0.269616
0.421600,-0.566933
0.421700,-0.549081
0.421800,-0.441969
0.421900,-0.108299
0.422000,-0.013845
0.422100,0.021209
0.422200,-0.019688
0.422300,-0.044681
0.422400,-0.020013
0.422500,0.048799
0.422600,0.110145
0.422700,0.126698
0.422800,0.147472
0.422900,0.152340
0.423000,0.197457
0.423100,0.118908
0.423200,0.150068
0.423300,0.230889
0.423400,0.152340
0.423500,1.305579
0.423600,1.752852
0.423700,2.120279
0.423800,0.766449
0.423900,-0.001511
0.424000,0.607404
0.424100,2.178379
0.424200,3.983060
0.424300,3.974296
0.424400,2.663305
0.424500,1.192949
0.424600,1.517531
0.424700,2.537692
0.424800,4.184626
0.424900,4.386193
0.425000,3.622123
0.425100,2.595467
0.425200,2.444212
0.425300,2.235181
0.425400,2.725625
0.425500,2.351057
0.425600,1.958637
0.425700,1.153025
0.425800,0.910563
0.425900,0.738210
0.426000,0.285094
0.426100,-0.206647
0.426200,-0.371535
0.426300,-0.266695
0.426400,-0.391334
0.426500,-0.603935
0.426600,-0.926570
0.426700,-1.085290
0.426800,-1.162865
0.426900,-1.191753
0.427000,-1.103791
0.427100,-1.215448
0.427200,-1.295619
0.427300,-1.336192
0.427400,-1.371247
0.427500,-1.383906
0.427600,-1.410522
0.427700,-1.459209
0.427800,-1.468946
0.427900,-1.493939
0.428000,-1.500756
0.428100,-1.486149
0.428200,-1.511142
0.428300,-1.464078
0.428400,-1.486799
0.428500,-1.461157
0.428600,-1.473491
0.428700,-1.501405
0.428800,-1.494913
0.428900,-1.690961
0.429000,-1.988279
0.429100,-2.158036
0.429200,-1.883439
0.429300,-1.659801
0.429400,-1.556259
0.429500,-1.762694
0.429600,-2.174589
0.429700,-2.397578
0.429800,-2.354733
0.429900,-2.117787
0.430000,-2.005157
0.430100,-2.072995
0.430200,-2.319678
0.430300,-2.439449
0.430400,-2.497550
0.430500,-2.433607
0.430600,-2.380051
0.430700,-2.403096
0.430800,-2.418027
0.430900,-2.461196
0.431000,-2.467039
0.431100,-2.494304
0.431200,-2.552729
0.431300,-2.622839
0.431400,-2.689054
0.431500,-2.710801
0.431600,-2.696844
0.431700,-2.735794
0.431800,-2.816616
0.431900,-2.878287
0.432000,-2.815317
0.432100,-2.595574
0.432200,-2.438800
0.432300,-2.553703
0.432400,-2.774744
0.432500,-2.962029
0.432600,-2.913017
0.432700,-2.635173
0.432800,-2.383296
0.432900,-2.331688
0.433000,-2.478724
0.433100,-2.676395
0.433200,-2.736443
0.433300,-2.604013
0.433400,-2.420299
0.433500,-2.332986
0.433600,-2.307993
0.433700,-2.328442
0.433800,-2.322924
0.433900,-2.309616
0.434000,-2.295659
0.434100,-2.276509
0.434200,-2.224251
0.434300,-2.121358
0.434400,-1.944460
0.434500,-1.868508
0.434600,-1.781520
0.434700,-1.804889
0.434800,-1.852603
0.434900,-1.774054
0.435000,-1.560479
0.435100,-1.525099
0.435200,-1.285882
0.435300,-1.310550
0.435400,-1.246608
0.435500,-1.136250
0.435600,-1.006417
0.435700,-0.919753
0.435800,-0.753243
0.435900,-0.712670
0.436000,-0.679887
0.436100,-0.639964
0.436200,-0.691897
0.436300,-0.668851
0.436400,-0.724355
0.436500,-0.653272
0.436600,-0.644183
0.436700,-0.622761
0.436800,-0.659763
0.436900,-0.736365
0.437000,-0.828546
0.437100,-0.828870
0.437200,-0.783104
0.437300,-0.426064
0.437400,-0.242026
0.437500,-0.317979
0.437600,-0.880803
0.437700,-1.099572
0.437800,-0.919104
0.437900,-0.596470
0.438000,-0.356604
0.438100,-0.411783
0.438200,-0.610751
0.438300,-0.818484
0.438400,-0.819457
0.438500,-0.581539
0.438600,-0.414704
0.438700,-0.324795
0.438800,-0.370236
0.438900,-0.336804
0.439000,-0.359200
0.439100,-0.286819
0.439200,-0.265396
0.439300,-0.271888
0.439400,-0.277730
0.439500,-0.285520
0.439600,-0.238781
0.439700,-0.255983
0.439800,-0.325768
0.439900,-0.429959
0.440000,-0.458522
0.440100,-0.480269
0.440200,-0.341024
0.440300,-0.342322
0.440400,-0.389062
0.440500,-0.704555
0.440600,-0.853863
0.440700,-0.743830
0.440800,-0.447811
0.440900,-0.321549
0.441000,-0.492928
0.441100,-0.805176
0.441200,-0.984345
0.441300,-0.836336
0.441400,-0.591926
0.441500,-0.406914
0.441600,-0.500069
0.441700,-0.657167
0.441800,-0.704555
0.441900,-0.621463
0.442000,-0.559143
0.442100,-0.181979
0.442200,-0.664632
0.442300,-0.618217
0.442400,-0.609778
0.442500,0.082555
0.442600,0.484063
0.442700,0.491528
0.442800,0.612922
0.442900,1.150753
0.443000,1.981683
0.443100,2.597415
0.443200,2.950561
0.443300,2.292308
0.443400,2.602933
0.443500,3.145635
0.443600,3.267353
0.443700,3.592261
0.443800,3.839594
0.443900,4.020711
0.444000,4.121982
0.444100,4.280703
0.444200,4.309267
0.444300,4.097313
0.444400,4.251166
0.444500,4.078812
0.444600,4.328417
0.444700,4.066153
0.444800,4.012921
0.444900,3.893150
0.445000,4.012921
0.445100,3.992148
0.445200,3.973971
0.445300,3.639650
0.445400,3.624719
0.445500,3.202112
0.445600,1.776547
0.445700,-1.051858
0.445800,-0.778885
0.445900,-0.254685
0.446000,1.670409
0.446100,1.162114
0.446200,-0.922999
0.446300,-1.166760
0.446400,-1.379037
0.446500,-1.334894
0.446600,-1.107037
0.446700,-1.146961
0.446800,-1.315094
0.446900,-1.627667
0.447000,-1.872078
0.447100,-1.874026
0.447200,-1.850980
0.447300,-1.873376
0.447400,-1.987630
0.447500,-2.062284
0.447600,-2.155439
0.447700,-2.233339
0.447800,-2.237883
0.447900,-2.286895
0.448000,-2.403096
0.448100,-2.505989
0.448200,-2.513779
0.448300,-2.462170
0.448400,-2.490409
0.448500,-2.592977
0.448600,-2.615374
0.448700,-2.603040
0.448800,-2.361874
0.448900,-2.297606
0.449000,-2.456977
0.449100,-2.737742
0.449200,-2.975662
0.449300,-2.877313
0.449400,-2.613102
0.449500,-2.416079
0.449600,-2.495602
0.449700,-2.781561
0.449800,-3.061677
0.449900,-3.111663
0.450000,-2.913017
0.450100,-2.718267
0.450200,-2.676395
0.450300,-2.728004
0.450400,-2.780262
0.450500,-2.795193
0.450600,-2.733522
0.450700,-2.685484
0.450800,-2.587135
0.450900,-2.537798
0.451000,-2.412509
0.451100,-2.250217
0.451200,-2.181081
0.451300,-2.135639
0.451400,-2.117463
0.451500,-2.095391
0.451600,-1.891228
0.451700,-1.723744
0.451800,-1.579629
0.451900,-1.358913
0.452000,-1.361834
0.452100,-1.266732
0.452200,-1.167085
0.452300,-1.038226
0.452400,-0.826274
0.452500,-0.690274
0.452600,-0.624384
0.452700,-0.596145
0.452800,-0.598417
0.452900,-0.549081
0.453000,-0.528308
0.453100,-0.468584
0.453200,-0.448460
0.453300,-0.405291
0.453400,-0.460145
0.453500,-0.400098
0.453600,-0.467611
0.453700,-0.381597
0.453800,-0.490331
0.453900,-0.158933
0.454000,0.021209
0.454100,0.251987
0.454200,-0.051497
0.454300,-0.465014
0.454400,-0.498771
0.454500,-0.381597
0.454600,-0.032022
0.454700,0.044579
0.454800,-0.018390
0.454900,-0.292661
0.455000,-0.406589
0.455100,-0.352060
0.455200,-0.301749
0.455300,-0.059936
0.455400,-0.154714
0.455500,-0.174189
0.455600,-0.255010
0.455700,-0.255659
0.455800,-0.237807
0.455900,-0.178733
0.456000,-0.131019
0.456100,-0.092070
0.456200,-0.118685
0.456300,-0.137836
0.456400,-0.188146
0.456500,-0.277730
0.456600,-0.263773
0.456700,-0.328690
0.456800,-0.280976
0.456900,-0.323496
0.457000,-0.281950
0.457100,-0.472804
0.457200,-0.833090
0.457300,-0.835037
0.457400,-0.777262
0.457500,-0.470532
0.457600,-0.526035
0.457700,-0.761357
0.457800,-1.121643
0.457900,-1.255371
0.458000,-1.203438
0.458100,-1.018426
0.458200,-0.988565
0.458300,-1.149557
0.458400,-1.335219
0.458500,-1.399161
0.458600,-1.460183
0.458700,-1.461806
0.458800,-1.466025
0.458900,-1.543276
0.459000,-1.621500
0.459100,-1.721796
0.459200,-1.762045
0.459300,-1.793854
0.459400,-1.803267
0.459500,-1.765290
0.459600,-1.694531
0.459700,-1.674407
0.459800,-1.659801
0.459900,-1.759123
0.460000,-1.920766
0.460100,-1.943486
0.460200,-1.917844
0.460300,-1.737052
0.460400,-1.782493
0.460500,-1.803591
0.460600,-1.755553
0.460700,-1.748087
0.460800,-1.707190
0.460900,-1.682846
0.461000,-1.696803
0.461100,-1.699400
0.461200,-1.708488
0.461300,-1.732183
0.461400,-1.765615
0.461500,-1.768536
0.461600,-1.805539
0.461700,-1.815276
0.461800,-1.893825
0.461900,-1.919143
0.462000,-2.008727
0.462100,-2.029825
0.462200,-2.151544
0.462300,-2.468986
0.462400,-2.752673
0.462500,-2.696844
0.462600,-2.402447
0.462700,-2.215811
0.462800,-2.339802
0.462900,-2.755918
0.463000,-3.078880
0.463100,-3.113286
0.463200,-2.988970
0.463300,-2.755594
0.463400,-2.783508
0.463500,-2.965600
0.463600,-3.171062
0.463700,-3.243769
0.463800,-3.190861
0.463900,-3.156131
0.464000,-3.168140
0.464100,-3.198327
0.464200,-3.197353
0.464300,-3.173009
0.464400,-3.156455
0.464500,-3.106794
0.464600,-3.141200
0.464700,-3.099004
0.464800,-3.092512
0.464900,-3.001304
0.465000,-2.950344
0.465100,-2.969170
0.465200,-3.012989
0.465300,-2.973714
0.465400,-2.782210
0.465500,-2.543641
0.465600,-2.494629
0.465700,-2.678668
0.465800,-2.920158
0.465900,-3.077581
0.466000,-2.884454
0.466100,-2.601741
0.466200,-2.489760
0.466300,-2.630954
0.466400,-2.947423
0.466500,-3.147691
0.466600,-3.095433
0.466700,-2.931518
0.466800,-2.855890
0.466900,-2.870821
0.467000,-2.918535
0.467100,-2.931194
0.467200,-2.872120
0.467300,-2.812071
0.467400,-2.752673
0.467500,-2.637770
0.467600,-2.484242
0.467700,-2.252814
0.467800,-2.033720
0.467900,-1.879868
0.468000,-1.781520
0.468100,-1.628641
0.468200,-1.486799
0.468300,-1.131381
0.468400,-0.912288
0.468500,-0.676641
0.468600,-0.483515
0.468700,-0.409511
0.468800,-0.255659
0.468900,-0.144976
0.469000,-0.013521
0.469100,0.202326
0.469200,0.251338
0.469300,0.275032
0.469400,0.224397
0.469500,0.217906
0.469600,0.235433
0.469700,0.181877
0.469800,0.201677
0.469900,0.202001
0.470000,0.184798
0.470100,0.253285
0.470200,0.172789
0.470300,0.184149
0.470400,0.066326
0.470500,0.242574
0.470600,0.349686
0.470700,0.811241
0.470800,0.729771
0.470900,0.535996
0.471000,0.004656
0.471100,0.155586
0.471200,0.342545
0.471300,0.628826
0.471400,0.638888
0.471500,0.432130
0.471600,0.146173
0.471700,0.020560
0.471800,0.124751
0.471900,0.301972
0.472000,0.410058
0.472100,0.366240
0.472200,0.221476
0.472300,0.186421
0.472400,0.152340
0.472500,0.191615
0.472600,0.202001
0.472700,0.198431
0.472800,0.138383
0.472900,0.166947
0.473000,0.142927
0.473100,0.118259
0.473200,0.017964
0.473300,-0.106676
0.473400,-0.088824
0.473500,-0.084280
0.473600,0.057887
0.473700,-0.072919
0.473800,-0.285520
0.473900,-0.629252
0.474000,-0.514026
0.474100,-0.340699
0.474200,0.802802
0.474300,0.241925
0.474400,-0.354007
0.474500,-0.644508
0.474600,-0.541940
0.474700,-0.296556
0.474800,1.502924
0.474900,1.950847
0.475000,1.106610
0.475100,0.290937
0.475200,0.397724
0.475300,0.718086
0.475400,1.264357
0.475500,1.180615
0.475600,0.892711
0.475700,0.287042
0.475800,0.076388
0.475900,0.351633
0.476000,0.109496
0.476100,-0.125177
0.476200,-0.200155
0.476300,0.072169
0.476400,0.239328
0.476500,0.064703
0.476600,-1.163190
0.476700,-0.932737
0.476800,-0.985319
0.476900,-1.001223
0.477000,-0.884698
0.477100,-1.022970
0.477200,-1.101195
0.477300,-1.124565
0.477400,-1.195324
0.477500,-1.222588
0.477600,-1.238818
0.477700,-1.291075
0.477800,-1.322884
0.477900,-1.381958
0.478000,-1.369949
0.478100,-1.407600
0.478200,-1.430321
0.478300,-1.481281
0.478400,-1.448173
0.478500,-1.513414
0.478600,-1.497185
0.478700,-1.605920
0.478800,-1.621500
0.478900,-1.843839
0.479000,-2.173616
0.479100,-2.395955
0.479200,-2.216461
0.479300,-1.856498
0.479400,-1.755877
0.479500,-1.871754
0.479600,-2.343048
0.479700,-2.561493
0.479800,-2.555650
0.479900,-2.317731
0.480000,-2.165177
0.480100,-2.219382
0.480200,-2.440748
0.480300,-2.678018
0.480400,-2.728653
0.480500,-2.659192
0.480600,-2.570906
0.480700,-2.571879
0.480800,-2.582266
0.480900,-2.616672
0.481000,-2.621865
0.481100,-2.614725
0.481200,-2.610830
0.481300,-2.621541
0.481400,-2.681913
0.481500,-2.657894
0.481600,-2.575450
0.481700,-2.534552
0.481800,-2.567984
0.481900,-2.542667
0.482000,-2.480672
0.482100,-2.223277
0.482200,-2.009377
0.482300,-2.095716
0.482400,-2.267420
0.482500,-2.467364
0.482600,-2.460223
0.482700,-2.176537
0.482800,-1.892202
0.482900,-1.796126
0.483000,-1.946408
0.483100,-2.211267
0.483200,-2.307993
0.483300,-2.160632
0.483400,-1.920766
0.483500,-1.776326
0.483600,-1.771133
0.483700,-1.817224
0.483800,-1.837023
0.483900,-1.816574
0.484000,-1.788985
0.484100,-1.706216
0.484200,-1.650713
0.484300,-1.545223
0.484400,-1.379686
0.484500,-1.287505
0.484600,-1.279390
0.484700,-1.276794
0.484800,-1.288479
0.484900,-1.193376
0.485000,-0.969739
0.485100,-0.929491
0.485200,-0.678589
0.485300,-0.736040
0.485400,-0.711372
0.485500,-0.658140
0.485600,-0.569854
0.485700,-0.489682
0.485800,-0.291363
0.485900,-0.255334
0.486000,-0.228394
0.486100,-0.261177
0.486200,-0.274809
0.486300,-0.202103
0.486400,-0.303697
0.486500,-0.185549
0.486600,-0.220279
0.486700,-0.161530
0.486800,-0.265072
0.486900,-0.285845
0.487000,-0.385492
0.487100,-0.411783
0.487200,-0.321224
0.487300,-0.039487
0.487400,0.212713
0.487500,0.212063
0.487600,-0.320900
0.487700,-0.580241
0.487800,-0.516298
0.487900,-0.147898
0.488000,0.063405
0.488100,0.098135
0.488200,-0.151468
0.488300,-0.432880
0.488400,-0.447162
0.488500,-0.347191
0.488600,-0.140432
0.488700,-0.146599
0.488800,-0.179058
0.488900,-0.287143
0.489000,-0.356279
0.489100,-0.377702
0.489200,-0.414055
0.489300,-0.453005
0.489400,-0.512078
0.489500,-0.513701
0.489600,-0.522465
0.489700,-0.517921
0.489800,-0.648078
0.489900,-0.739935
0.490000,-0.793166
0.490100,-0.714618
0.490200,-0.661061
0.490300,-0.613673
0.490400,-0.627954
0.490500,-0.915209
0.490600,-1.086913
0.490700,-0.970064
0.490800,-0.746102
0.490900,-0.584460
0.491000,-0.778885
0.491100,-1.091133
0.491200,-1.344631
0.491300,-1.293347
0.491400,-1.131381
0.491500,-0.972011
0.491600,-1.074904
0.491700,-1.280040
0.491800,-1.442331
0.491900,-1.394942
0.492000,-1.445901
0.492100,-1.408899
0.492200,-1.521529
0.492300,-1.595858
0.492400,-1.680574
0.492500,-1.695505
0.492600,-1.685118
0.492700,-1.746140
0.492800,-1.812679
0.492900,-1.788336
0.493000,-1.745166
0.493100,-1.696154
0.493200,-1.705567
0.493300,-1.863639
0.493400,-1.923362
0.493500,-1.889281
0.493600,-1.682197
0.493700,-1.594560
0.493800,-1.616307
0.493900,-1.587419
0.494000,-1.520880
0.494100,-1.454989
0.494200,-1.416364
0.494300,-1.362159
0.494400,-1.351772
0.494500,-1.294321
0.494600,-1.265758
0.494700,-1.220966
0.494800,-1.197920
0.494900,-1.191753
0.495000,-1.165462
0.495100,-1.189806
0.495200,-1.193376
0.495300,-1.271925
0.495400,-1.291400
0.495500,-1.366054
0.495600,-1.621176
0.495700,-1.961663
0.495800,-2.103181
0.495900,-1.837672
0.496000,-1.627992
0.496100,-1.564374
0.496200,-1.882465
0.496300,-2.308642
0.496400,-2.507612
0.496500,-2.413807
0.496600,-2.134341
0.496700,-2.062284
0.496800,-2.193091
0.496900,-2.431010
0.497000,-2.617970
0.497100,-2.564739
0.497200,-2.453082
0.497300,-2.392060
0.497400,-2.455679
0.497500,-2.517025
0.497600,-2.590705
0.497700,-2.613102
0.497800,-2.641665
0.497900,-2.699116
0.498000,-2.757866
0.498100,-2.899709
0.498200,-2.901332
0.498300,-2.921132
0.498400,-2.939633
0.498500,-3.031815
0.498600,-3.094460
0.498700,-3.037982
0.498800,-2.811098
0.498900,-2.656596
0.499000,-2.838363
0.499100,-3.116531
0.499200,-3.336600
0.499300,-3.259998
0.499400,-2.966573
0.499500,-2.726381
0.499600,-2.741637
0.499700,-2.990268
0.499800,-3.270709
0.499900,-3.352180
0.500000,-3.183720
0.500100,-2.991891
0.500200,-2.925676
0.500300,-2.989619
0.500400,-3.083099
0.500500,-3.111987
0.500600,-3.078230
0.500700,-3.038956
0.500800,-2.966573
0.500900,-2.916263
0.501000,-2.810124
0.501100,-2.666982
0.501200,-2.567011
0.501300,-2.556299
0.501400,-2.562467
0.501500,-2.606285
0.501600,-2.480022
0.501700,-2.275535
0.501800,-2.204776
0.501900,-1.995095
0.502000,-2.059038
0.502100,-2.032747
0.502200,-1.937644
0.502300,-1.818197
0.502400,-1.682846
0.502500,-1.560154
0.502600,-1.496861
0.502700,-1.496211
0.502800,-1.473166
0.502900,-1.452068
0.503000,-1.405004
0.503100,-1.352746
0.503200,-1.269328
0.503300,-1.172927
0.503400,-1.155075
0.503500,-1.046016
0.503600,-1.178445
0.503700,-1.011610
0.503800,-1.044068
0.503900,-0.671124
0.504000,-0.457549
0.504100,0.056589
0.504200,-0.127124
0.504300,-0.508183
0.504400,-0.517272
0.504500,-0.324470
0.504600,0.180904
0.504700,0.453227
0.504800,0.437648
0.504900,0.295481
0.505000,0.065352
0.505100,0.189343
0.505200,0.352607
0.505300,0.679136
0.505400,0.853437
0.505500,0.887193
0.505600,0.535996
0.505700,0.538268
0.505800,0.440569
0.505900,0.677189
0.506000,0.831690
0.506100,0.809293
0.506200,0.804749
0.506300,1.269875
0.506400,0.256531
0.506500,0.158832
0.506600,0.007902
0.506700,0.024780
0.506800,-0.019688
0.506900,0.100732
0.507000,0.391882
0.507100,-0.086876
0.507200,-0.408212
0.507300,-0.469883
0.507400,-0.379000
0.507500,0.326641
0.507600,0.750869
0.507700,-0.402370
0.507800,-0.516623
0.507900,-0.694493
0.508000,-0.591926
0.508100,-0.352709
0.508200,0.698611
0.508300,0.384741
0.508400,-0.539992
0.508500,-0.527658
0.508600,-0.490656
0.508700,-0.348489
0.508800,0.169868
0.508900,-0.142380
0.509000,-0.241702
0.509100,-0.349463
0.509200,0.038737
0.509300,-0.094666
0.509400,-0.392308
0.509500,-0.330637
0.509600,0.205572
0.509700,0.485686
0.509800,0.797933
0.509900,0.354555
0.510000,-0.679887
0.510100,-0.787973
0.510200,-0.775964
0.510300,-0.756813
0.510400,-0.326418
0.510500,-0.819782
0.510600,-0.799333
0.510700,-0.823352
0.510800,-0.798684
0.510900,-0.816536
0.511000,-0.708450
0.511100,-0.777586
0.511200,-0.630226
0.511300,-0.359850
0.511400,-0.362446
0.511500,-0.212489
0.511600,-0.143029
0.511700,-0.155038
0.511800,0.095539
0.511900,-0.316356
0.512000,-0.308890
0.512100,-0.770770
0.512200,-0.880479
0.512300,-1.153452
0.512400,-1.476412
0.512500,-1.410197
0.512600,-1.173252
0.512700,-0.844126
0.512800,-0.913911
0.512900,-1.197920
0.513000,-1.507247
0.513100,-1.566970
0.513200,-1.358588
0.513300,-1.130732
0.513400,-1.089185
0.513500,-1.240765
0.513600,-1.452717
0.513700,-1.535486
0.513800,-1.563400
0.513900,-1.515686
0.514000,-1.593911
0.514100,-1.652011
0.514200,-1.701997
0.514300,-1.774054
0.514400,-1.828259
0.514500,-1.886684
0.514600,-2.035668
0.514700,-2.142780
0.514800,-2.179134
0.514900,-2.186924
0.515000,-2.187248
0.515100,-2.271640
0.515200,-2.359277
0.515300,-2.352136
0.515400,-2.271315
0.515500,-2.068775
0.515600,-2.037940
0.515700,-2.216461
0.515800,-2.454056
0.515900,-2.634849
0.516000,-2.468986
0.516100,-2.239181
0.516200,-2.140184
0.516300,-2.246322
0.516400,-2.494953
0.516500,-2.659842
0.516600,-2.626734
0.516700,-2.463144
0.516800,-2.380700
0.516900,-2.394981
0.517000,-2.421597
0.517100,-2.431335
0.517200,-2.419001
0.517300,-2.402771
0.517400,-2.382323
0.517500,-2.330389
0.517600,-2.258981
0.517700,-2.119410
0.517800,-1.966532
0.517900,-1.909405
0.518000,-1.889606
0.518100,-1.863639
0.518200,-1.819171
0.518300,-1.570865
0.518400,-1.429672
0.518500,-1.100221
0.518600,-1.079123
0.518700,-1.034331
0.518800,-0.948641
0.518900,-0.834388
0.519000,-0.718837
0.519100,-0.549405
0.519200,-0.434179
0.519300,-0.393931
0.519400,-0.361797
0.519500,-0.372184
0.519600,-0.298504
0.519700,-0.393931
0.519800,-0.323172
0.519900,-0.322847
0.520000,-0.296556
0.520100,-0.292986
0.520200,-0.313759
0.520300,-0.414055
0.520400,-0.477673
0.520500,-0.498121
0.520600,-0.284871
0.520700,0.032894
0.520800,0.120856
0.520900,-0.135239
0.521000,-0.631200
0.521100,-0.675343
0.521200,-0.454627
0.521300,-0.212489
0.521400,-0.101483
0.521500,-0.334857
0.521600,-0.566284
0.521700,-0.698388
0.521800,-0.566284
0.521900,-0.363095
0.522000,-0.287468
0.522100,-0.312461
0.522200,-0.434828
0.522300,-0.413730
0.522400,-0.449759
0.522500,-0.356604
0.522600,-0.399124
0.522700,-0.443267
0.522800,-0.521816
0.522900,-0.548432
0.523000,-0.595496
0.523100,-0.706828
0.523200,-0.827897
0.523300,-0.984994
0.523400,-1.055753
0.523500,-1.034655
0.523600,-1.048288
0.523700,-1.050884
0.523800,-1.293023
0.523900,-1.646169
0.524000,-1.642274
0.524100,-1.487772
0.524200,-1.158970
0.524300,-1.231677
0.524400,-1.502378
0.524500,-1.759123
0.524600,-1.737052
0.524700,-1.521853
0.524800,-1.261214
0.524900,-1.212851
0.525000,-1.356641
0.525100,-1.479658
0.525200,-1.419935
0.525300,-1.342359
0.525400,-1.284259
0.525500,-1.329376
0.525600,-1.395915
0.525700,-1.365405
0.525800,-1.277767
0.525900,-1.222264
0.526000,-1.208631
0.526100,-1.252125
0.526200,-1.209605
0.526300,-1.105414
0.526400,-1.041147
0.526500,-0.962598
0.526600,-1.029462
0.526700,-1.118073
0.526800,-1.111257
0.526900,-1.100221
0.527000,-1.075553
0.527100,-0.986617
0.527200,-1.003820
0.527300,-0.968441
0.527400,-0.985968
0.527500,-0.954808
0.527600,-0.994083
0.527700,-1.010312
0.527800,-1.049911
0.527900,-1.082044
0.528000,-1.100546
0.528100,-1.102168
0.528200,-1.141118
0.528300,-1.143066
0.528400,-1.186884
0.528500,-1.144364
0.528600,-1.224861
0.528700,-1.244011
0.528800,-1.282961
0.528900,-1.397538
0.529000,-1.798722
0.529100,-2.044432
0.529200,-1.955496
0.529300,-1.608842
0.529400,-1.520231
0.529500,-1.578980
0.529600,-2.021386
0.529700,-2.320003
0.529800,-2.335583
0.529900,-2.142456
0.530000,-1.941539
0.530100,-1.969128
0.530200,-2.172642
0.530300,-2.360900
0.530400,-2.396604
0.530500,-2.276833
0.530600,-2.188222
0.530700,-2.140508
0.530800,-2.147974
0.530900,-2.186924
0.531000,-2.167773
0.531100,-2.164203
0.531200,-2.135964
0.531300,-2.198609
0.531400,-2.250217
0.531500,-2.283325
0.531600,-2.232690
0.531700,-2.238857
0.531800,-2.291764
0.531900,-2.328442
0.532000,-2.335583
0.532100,-2.122007
0.532200,-1.975945
0.532300,-2.018790
0.532400,-2.241778
0.532500,-2.509235
0.532600,-2.633550
0.532700,-2.400824
0.532800,-2.136938
0.532900,-2.093768
0.533000,-2.298905
0.533100,-2.579345
0.533200,-2.744233
0.533300,-2.624137
0.533400,-2.403421
0.533500,-2.259630
0.533600,-2.249244
0.533700,-2.279430
0.533800,-2.286246
0.533900,-2.217434
0.534000,-2.137912
0.534100,-2.022685
0.534200,-1.924011
0.534300,-1.804240
0.534400,-1.620851
0.534500,-1.458560
0.534600,-1.387476
0.534700,-1.360861
0.534800,-1.318340
0.534900,-1.228106
0.535000,-0.989214
0.535100,-0.914560
0.535200,-0.612699
0.535300,-0.639639
0.535400,-0.616594
0.535500,-0.543563
0.535600,-0.464040
0.535700,-0.375429
0.535800,-0.194637
0.535900,-0.126800
0.536000,-0.139783
0.536100,-0.151468
0.536200,-0.202103
0.536300,-0.112843
0.536400,-0.169969
0.536500,-0.078437
0.536600,-0.010924
0.536700,0.036465
0.536800,0.084503
0.536900,-0.039812
0.537000,0.023806
0.537100,-0.016767
0.537200,0.175710
0.537300,0.486010
0.537400,0.856358
0.537500,0.918028
0.537600,0.544435
0.537700,0.263672
0.537800,0.380197
0.537900,0.783002
0.538000,2.103401
0.538100,2.736012
0.538200,2.274456
0.538300,1.350371
0.538400,1.456509
0.538500,2.693167
0.538600,4.263825
0.538700,4.882808
0.538800,5.316129
0.538900,4.672801
0.539000,5.377801
0.539100,5.325218
0.539200,5.895841
0.539300,6.258405
0.539400,6.535928
0.539500,6.962438
0.539600,7.372720
0.539700,7.199713
0.539800,6.248343
0.539900,6.520023
0.540000,5.898437
0.540100,5.937713
0.540200,6.641419
0.540300,6.703091
0.540400,6.464843
0.540500,4.425143
0.540600,3.205033
0.540700,3.532862
0.540800,4.932145
0.540900,6.151616
0.541000,5.330411
0.541100,3.760720
0.541200,2.377348
0.541300,2.629224
0.541400,3.524423
0.541500,4.639369
0.541600,4.242078
0.541700,3.196594
0.541800,2.243296
0.541900,2.248814
0.542000,1.925854
0.542100,1.978112
0.542200,1.158219
0.542300,0.476273
0.542400,-0.220279
0.542500,-0.644832
0.542600,-0.746427
0.542700,-0.867820
0.542800,-1.010961
0.542900,-1.109634
0.543000,-1.158646
0.543100,-1.238818
0.543200,-1.341061
0.543300,-1.591639
0.543400,-1.780870
0.543500,-1.847410
0.543600,-1.833777
0.543700,-1.812679
0.543800,-1.964260
0.543900,-2.019114
0.544000,-2.082732
0.544100,-2.143105
0.544200,-2.160308
0.544300,-2.188222
0.544400,-2.243076
0.544500,-2.241778
0.544600,-2.279754
0.544700,-2.272289
0.544800,-2.319678
0.544900,-2.296957
0.545000,-2.321626
0.545100,-2.316108
0.545200,-2.376156
0.545300,-2.394657
0.545400,-2.448213
0.545500,-2.539097
0.545600,-2.731250
0.545700,-3.120102
0.545800,-3.238900
0.545900,-3.009094
0.546000,-2.754945
0.546100,-2.615698
0.546200,-2.826353
0.546300,-3.224618
0.546400,-3.401517
0.546500,-3.324265
0.546600,-3.029543
0.546700,-2.888024
0.546800,-2.950669
0.546900,-3.155157
0.547000,-3.225592
0.547100,-3.208713
0.547200,-3.118803
0.547300,-3.030841
0.547400,-3.040254
0.547500,-3.077906
0.547600,-3.110364
0.547700,-3.074660
0.547800,-3.027271
0.547900,-3.054211
0.548000,-3.114259
0.548100,-3.193782
0.548200,-3.191186
0.548300,-3.160026
0.548400,-3.157104
0.548500,-3.224293
0.548600,-3.254155
0.548700,-3.217477
0.548800,-3.044798
0.548900,-2.862057
0.549000,-2.983452
0.549100,-3.212608
0.549200,-3.414175
0.549300,-3.375225
0.549400,-3.084073
0.549500,-2.837064
0.549600,-2.879260
0.549700,-3.148016
0.549800,-3.334003
0.549900,-3.334977
0.550000,-3.150613
0.550100,-2.980531
0.550200,-2.920483
0.550300,-2.948397
0.550400,-2.999032
0.550500,-2.963652
0.550600,-2.884454
0.550700,-2.786754
0.550800,-2.714372
0.550900,-2.632577
0.551000,-2.454380
0.551100,-2.291764
0.551200,-2.163554
0.551300,-2.134990
0.551400,-2.140833
0.551500,-2.141482
0.551600,-1.998016
0.551700,-1.776002
0.551800,-1.729586
0.551900,-1.492316
0.552000,-1.479982
0.552100,-1.417987
0.552200,-1.334569
0.552300,-1.192078
0.552400,-1.049262
0.552500,-0.912937
0.552600,-0.881777
0.552700,-0.840231
0.552800,-0.818808
0.552900,-0.752594
0.553000,-0.710398
0.553100,-0.714942
0.553200,-0.624059
0.553300,-0.621138
0.553400,-0.533501
0.553500,-0.565634
0.553600,-0.516947
0.553700,-0.589329
0.553800,-0.449434
0.553900,-0.418274
0.554000,-0.001187
0.554100,0.159806
0.554200,0.154288
0.554300,-0.352384
0.554400,-0.368613
0.554500,-0.264098
0.554600,0.238030
0.554700,0.436349
0.554800,0.523662
0.554900,0.386364
0.555000,0.302622
0.555100,0.284445
0.555200,0.515547
0.555300,0.757360
0.555400,1.485397
0.555500,1.660671
0.555600,1.271498
0.555700,1.152052
0.555800,1.679821
0.555900,2.014465
0.556000,2.429606
0.556100,2.248814
0.556200,2.416623
0.556300,2.164098
0.556400,1.834972
0.556500,1.313369
0.556600,1.412366
0.556700,1.435411
0.556800,1.494161
0.556900,1.794399
0.557000,2.032317
0.557100,1.927477
0.557200,0.005629
0.557300,-0.060261
0.557400,-0.027478
0.557500,1.390619
0.557600,2.114437
0.557700,1.281884
0.557800,-0.236833
0.557900,-0.430933
0.558000,-0.369262
0.558100,0.019586
0.558200,1.051431
0.558300,0.583709
0.558400,-0.605233
0.558500,-0.546809
0.558600,-0.540642
0.558700,-0.559792
0.558800,-0.460145
0.558900,-0.559467
0.559000,-0.670150
0.559100,-0.799658
0.559200,-0.794140
0.559300,-0.799333
0.559400,-0.869443
0.559500,-0.922025
0.559600,-0.951887
0.559700,-0.980450
0.559800,-1.006417
0.559900,-1.120345
0.560000,-1.325156
0.560100,-1.419610
0.560200,-1.449472
0.560300,-1.379037
0.560400,-1.345605
0.560500,-1.438760
0.560600,-1.459858
0.560700,-1.447199
0.560800,-1.448822
0.560900,-1.411495
0.561000,-1.405004
0.561100,-1.392345
0.561200,-1.363457
0.561300,-1.335219
0.561400,-1.288154
0.561500,-1.282312
0.561600,-1.240765
0.561700,-1.229080
0.561800,-1.198894
0.561900,-1.209930
0.562000,-1.196622
0.562100,-1.224211
0.562200,-1.210579
0.562300,-1.474464
0.562400,-1.770159
0.562500,-1.756527
0.562600,-1.448173
0.562700,-1.192402
0.562800,-1.138846
0.562900,-1.448498
0.563000,-1.788660
0.563100,-1.912326
0.563200,-1.700374
0.563300,-1.517634
0.563400,-1.419610
0.563500,-1.561452
0.563600,-1.789634
0.563700,-1.935372
0.563800,-1.953548
0.563900,-1.897071
0.564000,-1.846111
0.564100,-1.888632
0.564200,-1.945109
0.564300,-2.019114
0.564400,-2.064231
0.564500,-2.066503
0.564600,-2.103181
0.564700,-2.147000
0.564800,-2.121682
0.564900,-2.156413
0.565000,-2.174265
0.565100,-2.274561
0.565200,-2.307669
0.565300,-2.369339
0.565400,-2.307344
0.565500,-2.134666
0.565600,-2.172967
0.565700,-2.333311
0.565800,-2.630629
0.565900,-2.873093
0.566000,-2.816940
0.566100,-2.590705
0.566200,-2.494629
0.566300,-2.623813
0.566400,-2.882831
0.566500,-3.134708
0.566600,-3.198002
0.566700,-3.093486
0.566800,-2.970793
0.566900,-2.961056
0.567000,-2.994812
0.567100,-3.042202
0.567200,-3.058431
0.567300,-3.042851
0.567400,-3.007471
0.567500,-2.927623
0.567600,-2.812721
0.567700,-2.611803
0.567800,-2.429712
0.567900,-2.349540
0.568000,-2.300528
0.568100,-2.236260
0.568200,-2.133043
0.568300,-1.848708
0.568400,-1.653959
0.568500,-1.547820
0.568600,-1.306006
0.568700,-1.266407
0.568800,-1.141768
0.568900,-1.022970
0.569000,-0.887620
0.569100,-0.720785
0.569200,-0.603935
0.569300,-0.537071
0.569400,-0.491305
0.569500,-0.496174
0.569600,-0.423468
0.569700,-0.453654
0.569800,-0.341024
0.569900,-0.282924
0.570000,-0.147898
0.570100,-0.150819
0.570200,-0.115764
0.570300,-0.136862
0.570400,-0.174838
0.570500,-0.080385
0.570600,0.171815
0.570700,0.505810
0.570800,0.782678
0.570900,0.549953
0.571000,0.071195
0.571100,0.070221
0.571200,0.257829
0.571300,0.629151
0.571400,0.733341
0.571500,0.642134
0.571600,0.508406
0.571700,0.333781
0.571800,0.442192
0.571900,0.591175
0.572000,0.710945
0.572100,0.653494
0.572200,0.733991
0.572300,0.603833
0.572400,0.511652
0.572500,0.553848
0.572600,0.459395
0.572700,0.455500
0.572800,0.428235
0.572900,0.661609
0.573000,0.618115
0.573100,0.086775
0.573200,0.048150
0.573300,0.064379
0.573400,-0.047927
0.573500,0.089696
0.573600,0.107548
0.573700,0.241925
0.573800,-0.094991
0.573900,-0.436775
0.574000,-0.369262
0.574100,-0.200805
0.574200,0.595719
0.574300,0.699585
0.574400,-0.195611
0.574500,-0.492279
0.574600,-0.506561
0.574700,-0.378026
0.574800,0.024455
0.574900,0.429533
0.575000,-0.360823
0.575100,-0.518895
0.575200,-0.555897
0.575300,-0.545510
0.575400,-0.569205
0.575500,-0.651324
0.575600,-0.787648
0.575700,-0.884698
0.575800,-0.961624
0.575900,-0.985319
0.576000,-1.056402
0.576100,-1.203763
0.576200,-1.258617
0.576300,-1.239142
0.576400,-1.239467
0.576500,-1.262512
0.576600,-1.331324
0.576700,-1.554961
0.576800,-1.633834
0.576900,-1.690636
0.577000,-1.687391
0.577100,-1.636431
0.577200,-1.702970
0.577300,-1.701023
0.577400,-1.711085
0.577500,-1.710436
0.577600,-1.760422
0.577700,-1.749710
0.577800,-1.784116
0.577900,-1.784765
0.578000,-1.819820
0.578100,-1.840918
0.578200,-1.867534
0.578300,-1.897071
0.578400,-1.914274
0.578500,-1.929529
0.578600,-1.940565
0.578700,-1.970751
0.578800,-2.009377
0.578900,-2.111620
0.579000,-2.464442
0.579100,-2.726706
0.579200,-2.660491
0.579300,-2.330714
0.579400,-2.136289
0.579500,-2.230093
0.579600,-2.635498
0.579700,-2.953266
0.579800,-2.990593
0.579900,-2.727355
0.580000,-2.520920
0.580100,-2.559221
0.580200,-2.769551
0.580300,-3.027920
0.580400,-3.062650
0.580500,-2.999032
0.580600,-2.925027
0.580700,-2.896463
0.580800,-2.924702
0.580900,-2.992216
0.581000,-2.974688
0.581100,-2.934440
0.581200,-2.855566
0.581300,-2.922755
0.581400,-2.965275
0.581500,-2.983127
0.581600,-2.855566
0.581700,-2.863356
0.581800,-2.865628
0.581900,-2.936387
0.582000,-2.895490
0.582100,-2.716968
0.582200,-2.460547
0.582300,-2.506314
0.582400,-2.701388
0.582500,-2.963977
0.582600,-3.091863
0.582700,-2.879585
0.582800,-2.606285
0.582900,-2.497225
0.583000,-2.678343
0.583100,-3.002927
0.583200,-3.194107
0.583300,-3.133734
0.583400,-2.941256
0.583500,-2.833494
0.583600,-2.864654
0.583700,-2.949046
0.583800,-3.004550
0.583900,-2.980206
0.584000,-2.918860
0.584100,-2.873742
0.584200,-2.800711
0.584300,-2.742286
0.584400,-2.579020
0.584500,-2.403421
0.584600,-2.324222
0.584700,-2.295010
0.584800,-2.270017
0.584900,-2.191468
0.585000,-1.949978
0.585100,-1.834426
0.585200,-1.551715
0.585300,-1.551390
0.585400,-1.550092
0.585500,-1.475114
0.585600,-1.381309
0.585700,-1.268030
0.585800,-1.083343
0.585900,-0.984994
0.586000,-0.949615
0.586100,-0.990188
0.586200,-0.964221
0.586300,-0.907095
0.586400,-0.909367
0.586500,-0.833415
0.586600,-0.801930
0.586700,-0.728575
0.586800,-0.758761
0.586900,-0.686703
0.587000,-0.760059
0.587100,-0.666255
0.587200,-0.660737
0.587300,-0.329339
0.587400,-0.112194
0.587500,0.118908
0.587600,-0.412432
0.587700,-0.648078
0.587800,-0.652947
0.587900,-0.231640
0.588000,0.016016
0.588100,0.162078
0.588200,0.058212
0.588300,-0.225148
0.588400,-0.267668
0.588500,-0.097588
0.588600,0.142603
0.588700,0.298077
0.588800,0.324369
0.588900,0.239004
0.589000,0.126049
0.589100,0.171491
0.589200,0.191939
0.589300,0.228942
0.589400,0.243872
0.589500,0.242899
0.589600,0.245495
0.589700,0.113715
0.589800,0.098135
0.589900,-0.008652
0.590000,-0.001187
0.590100,-0.123554
0.590200,-0.035592
0.590300,-0.049874
0.590400,-0.065129
0.590500,-0.370236
0.590600,-0.691572
0.590700,-0.628928
0.590800,-0.500718
0.590900,-0.272862
0.591000,-0.391983
0.591100,-0.673071
0.591200,-1.021672
0.591300,-1.057376
0.591400,-0.943448
0.591500,-0.759410
0.591600,-0.796737
0.591700,-0.979476
0.591800,-1.181691
0.591900,-1.196297
0.592000,-1.259266
0.592100,-1.195324
0.592200,-1.237844
0.592300,-1.321586
0.592400,-1.326130
0.592500,-1.337166
0.592600,-1.342035
0.592700,-1.390398
0.592800,-1.434216
0.592900,-1.400135
0.593000,-1.339114
0.593100,-1.343982
0.593200,-1.308927
0.593300,-1.447199
0.593400,-1.550417
0.593500,-1.533863
0.593600,-1.518608
0.593700,-1.475114
0.593800,-1.388775
0.593900,-1.393968
0.594000,-1.345930
0.594100,-1.351123
0.594200,-1.306980
0.594300,-1.292698
0.594400,-1.260889
0.594500,-1.251801
0.594600,-1.253424
0.594700,-1.264460
0.594800,-1.255047
0.594900,-1.226483
0.595000,-1.199868
0.595100,-1.171304
0.595200,-1.195324
0.595300,-1.145987
0.595400,-1.188832
0.595500,-1.162541
0.595600,-1.345605
0.595700,-1.623772
0.595800,-1.787037
0.595900,-1.586121
0.596000,-1.198894
0.596100,-1.084316
0.596200,-1.269977
0.596300,-1.662722
0.596400,-1.900966
0.596500,-1.904861
0.596600,-1.679601
0.596700,-1.498808
0.596800,-1.573137
0.596900,-1.768861
0.597000,-2.035992
0.597100,-2.074942
0.597200,-2.035668
0.597300,-2.037291
0.597400,-2.054818
0.597500,-2.099935
0.597600,-2.150246
0.597700,-2.155439
0.597800,-2.165826
0.597900,-2.219382
0.598000,-2.318704
0.598100,-2.395306
0.598200,-2.351487
0.598300,-2.331363
0.598400,-2.338179
0.598500,-2.419325
0.598600,-2.497874
0.598700,-2.436528
0.598800,-2.256384
0.598900,-2.072021
0.599000,-2.224900
0.599100,-2.437826
0.599200,-2.674773
0.599300,-2.725732
0.599400,-2.485540
0.599500,-2.233664
0.599600,-2.209320
0.599700,-2.410886
0.599800,-2.674123
0.599900,-2.769226
0.600000,-2.651402
0.600100,-2.498199
0.600200,-2.431335
0.600300,-2.443994
0.600400,-2.500796
0.600500,-2.494304
0.600600,-2.497225
0.600700,-2.449511
0.600800,-2.395306
0.600900,-2.344022
0.601000,-2.231716
0.601100,-2.049300
0.601200,-1.933100
0.601300,-1.889281
0.601400,-1.908107
0.601500,-1.904212
0.601600,-1.785415
0.601700,-1.519906
0.601800,-1.436813
0.601900,-1.160269
0.602000,-1.165462
0.602100,-1.114503
0.602200,-0.991486
0.602300,-0.880154
0.602400,-0.741558
0.602500,-0.566933
0.602600,-0.500718
0.602700,-0.443592
0.602800,-0.451382
0.602900,-0.383869
0.603000,-0.356279
0.603100,-0.335181
0.603200,-0.324795
0.603300,-0.219630
0.603400,-0.243325
0.603500,-0.153091
0.603600,-0.209893
0.603700,-0.219630
0.603800,-0.233912
0.603900,-0.160556
0.604000,0.157534
0.604100,0.296455
0.604200,0.406812
0.604300,-0.172890
0.604400,-0.432231
0.604500,-0.227420
0.604600,-0.011898
0.604700,0.251338
0.604800,0.132216
0.604900,0.064703
0.605000,-0.287468
0.605100,-0.270265
0.605200,-0.111869
0.605300,0.121180
0.605400,0.135138
0.605500,0.059835
0.605600,-0.043382
0.605700,-0.129397
0.605800,-0.110571
0.605900,-0.074218
0.606000,-0.109272
0.606100,-0.183277
0.606200,-0.214437
0.606300,-0.254036
0.606400,-0.306943
0.606500,-0.455277
0.606600,-0.506236
0.606700,-0.604260
0.606800,-0.568231
0.606900,-0.520518
0.607000,-0.524088
0.607100,-0.577319
0.607200,-1.001873
0.607300,-1.164813
0.607400,-1.075877
0.607500,-0.824326
0.607600,-0.669825
0.607700,-0.821080
0.607800,-1.170655
0.607900,-1.399810
0.608000,-1.325806
0.608100,-1.083018
0.608200,-0.880803
0.608300,-0.972660
0.608400,-1.198245
0.608500,-1.328078
0.608600,-1.301787
0.608700,-1.266407
0.608800,-1.186884
0.608900,-1.278741
0.609000,-1.392670
0.609100,-1.465376
0.609200,-1.435190
0.609300,-1.404679
0.609400,-1.437137
0.609500,-1.480307
0.609600,-1.472841
0.609700,-1.438111
0.609800,-1.415390
0.609900,-1.383257
0.610000,-1.545223
0.610100,-1.642274
0.610200,-1.636431
0.610300,-1.620527
0.610400,-1.484202
0.610500,-1.554636
0.610600,-1.560803
0.610700,-1.541978
0.610800,-1.549768
0.610900,-1.529968
0.611000,-1.516985
0.611100,-1.527696
0.611200,-1.536784
0.611300,-1.533863
0.611400,-1.525424
0.611500,-1.496211
0.611600,-1.508221
0.611700,-1.492316
0.611800,-1.480631
0.611900,-1.477710
0.612000,-1.491018
0.612100,-1.528670
0.612200,-1.553987
0.612300,-1.746465
0.612400,-2.082083
0.612500,-2.078513
0.612600,-1.776651
0.612700,-1.463104
0.612800,-1.399161
0.612900,-1.643572
0.613000,-1.988928
0.613100,-2.145702
0.613200,-1.972374
0.613300,-1.680250
0.613400,-1.540679
0.613500,-1.653959
0.613600,-1.856823
0.613700,-2.037615
0.613800,-2.008078
0.613900,-1.949329
0.614000,-1.890579
0.614100,-1.898369
0.614200,-1.923038
0.614300,-1.991525
0.614400,-2.020088
0.614500,-1.988928
0.614600,-1.967181
0.614700,-2.046379
0.614800,-2.063907
0.614900,-2.039238
0.615000,-2.021062
0.615100,-2.041835
0.615200,-2.109673
0.615300,-2.132394
0.615400,-2.063907
0.615500,-1.831181
0.615600,-1.701672
0.615700,-1.810407
0.615800,-2.065205
0.615900,-2.263850
0.616000,-2.170045
0.616100,-1.898369
0.616200,-1.669863
0.616300,-1.711734
0.616400,-1.949978
0.616500,-2.216461
0.616600,-2.289167
0.616700,-2.118112
0.616800,-1.956794
0.616900,-1.891228
0.617000,-1.929529
0.617100,-2.017491
0.617200,-2.102532
0.617300,-2.106752
0.617400,-2.074942
0.617500,-2.001911
0.617600,-1.981787
0.617700,-1.893825
0.617800,-1.818197
0.617900,-1.794503
0.618000,-1.855524
0.618100,-1.906808
0.618200,-1.941539
0.618300,-1.836374
0.618400,-1.721796
0.618500,-1.771133
0.618600,-1.567295
0.618700,-1.639028
0.618800,-1.649090
0.618900,-1.624746
0.619000,-1.589691
0.619100,-1.498159
0.619200,-1.408250
0.619300,-1.409548
0.619400,-1.440059
0.619500,-1.427400
0.619600,-1.450121
0.619700,-1.419610
0.619800,-1.426102
0.619900,-1.317367
0.620000,-1.285882
0.620100,-1.259591
0.620200,-1.257319
0.620300,-1.287180
0.620400,-1.280364
0.620500,-1.177147
0.620600,-1.026865
0.620700,-0.597443
0.620800,-0.422818
0.620900,-0.549730
0.621000,-1.005768
0.621100,-1.052832
0.621200,-0.868794
0.621300,-0.443267
0.621400,-0.314084
0.621500,-0.275458
0.621600,-0.520842
0.621700,-0.647104
0.621800,-0.608155
0.621900,-0.395554
0.622000,-0.197234
0.622100,-0.160556
0.622200,-0.203077
0.622300,-0.286170
0.622400,-0.292012
0.622500,-0.279353
0.622600,-0.277406
0.622700,-0.252738
0.622800,-0.210542
0.622900,-0.199182
0.623000,-0.272862
0.623100,-0.248518
0.623200,-0.476050
0.623300,-0.401396
0.623400,-0.485463
0.623500,-0.403344
0.623600,-0.349138
0.623700,-0.382246
0.623800,-0.529930
0.623900,-0.884698
0.624000,-0.828221
0.624100,-0.740909
0.624200,-0.452680
0.624300,-0.420871
0.624400,-0.604909
0.624500,-0.888593
0.624600,-0.920078
0.624700,-0.791868
0.624800,-0.530580
0.624900,-0.421520
0.625000,-0.498771
0.625100,-0.642236
0.625200,-0.649052
0.625300,-0.545186
0.625400,-0.528957
0.625500,-0.492279
0.625600,-0.553300
0.625700,-0.576995
0.625800,-0.621463
0.625900,-0.611400
0.626000,-0.632823
0.626100,-0.732794
0.626200,-0.753243
0.626300,-0.740259
0.626400,-0.714942
0.626500,-0.721758
0.626600,-0.847696
0.626700,-1.078799
0.626800,-1.140469
0.626900,-1.153777
0.627000,-0.993109
0.627100,-1.107037
0.627200,-1.198245
0.627300,-1.221290
0.627400,-1.240116
0.627500,-1.277767
0.627600,-1.319963
0.627700,-1.376440
0.627800,-1.420259
0.627900,-1.463753
0.628000,-1.483877
0.628100,-1.570541
0.628200,-1.617930
0.628300,-1.694856
0.628400,-1.717901
0.628500,-1.770159
0.628600,-1.792880
0.628700,-1.849682
0.628800,-1.927257
0.628900,-2.012947
0.629000,-2.343048
0.629100,-2.672500
0.629200,-2.551431
0.629300,-2.284623
0.629400,-2.006780
0.629500,-2.092145
0.629600,-2.465091
0.629700,-2.874716
0.629800,-2.924053
0.629900,-2.738716
0.630000,-2.508586
0.630100,-2.519297
0.630200,-2.707880
0.630300,-2.954888
0.630400,-3.010392
0.630500,-2.920158
0.630600,-2.849723
0.630700,-2.843881
0.630800,-2.862057
0.630900,-2.936387
0.631000,-2.883155
0.631100,-2.835442
0.631200,-2.772472
0.631300,-2.782210
0.631400,-2.769226
0.631500,-2.778964
0.631600,-2.649130
0.631700,-2.560844
0.631800,-2.513779
0.631900,-2.543641
0.632000,-2.458275
0.632100,-2.274236
0.632200,-2.009377
0.632300,-1.919792
0.632400,-2.089224
0.632500,-2.328117
0.632600,-2.471259
0.632700,-2.258332
0.632800,-1.935696
0.632900,-1.782818
0.633000,-1.934723
0.633100,-2.244375
0.633200,-2.424519
0.633300,-2.366418
0.633400,-2.147974
0.633500,-2.012298
0.633600,-2.042484
0.633700,-2.135315
0.633800,-2.208671
0.633900,-2.155764
0.634000,-2.098312
0.634100,-2.060661
0.634200,-2.005482
0.634300,-1.978217
0.634400,-1.845462
0.634500,-1.699725
0.634600,-1.653959
0.634700,-1.685443
0.634800,-1.723744
0.634900,-1.709138
0.635000,-1.485825
0.635100,-1.406302
0.635200,-1.199543
0.635300,-1.176822
0.635400,-1.195648
0.635500,-1.131381
0.635600,-1.054130
0.635700,-0.920727
0.635800,-0.805500
0.635900,-0.693520
0.636000,-0.687677
0.636100,-0.706828
0.636200,-0.700336
0.636300,-0.714618
0.636400,-0.774341
0.636500,-0.728899
0.636600,-0.725004
0.636700,-0.737338
0.636800,-0.724680
0.636900,-0.772069
0.637000,-0.806799
