0.000100,-0.841854
0.000200,-0.835687
0.000300,-0.792842
0.000400,-0.749348
0.000500,-0.763629
0.000600,-0.777262
0.000700,-0.774990
0.000800,-0.799009
0.000900,-0.658140
0.001000,-0.421845
0.001100,-0.306943
0.001200,-0.371859
0.001300,-0.689300
0.001400,-0.673720
0.001500,-0.602637
0.001600,-0.382895
0.001700,-0.233587
0.001800,-0.219306
0.001900,-0.327067
0.002000,-0.456900
0.002100,-0.394904
0.002200,-0.371859
0.002300,-0.195287
0.002400,-0.137186
0.002500,-0.135239
0.002600,-0.191716
0.002700,-0.235210
0.002800,-0.258255
0.002900,-0.190742
0.003000,-0.194637
0.003100,-0.198857
0.003200,-0.234236
0.003300,-0.231640
0.003400,-0.237158
0.003500,-0.392957
0.003600,-0.418274
0.003700,-0.392632
0.003800,-0.352384
0.003900,-0.240728
0.004000,-0.299802
0.004100,-0.372508
0.004200,-0.642236
0.004300,-0.614646
0.004400,-0.530580
0.004500,-0.282599
0.004600,-0.321224
0.004700,-0.441320
0.004800,-0.629252
0.004900,-0.682808
0.005000,-0.663983
0.005100,-0.538045
0.005200,-0.496174
0.005300,-0.493253
0.005400,-0.598742
0.005500,-0.709100
0.005600,-0.739935
0.005700,-0.749348
0.005800,-0.728250
0.005900,-0.801281
0.006000,-0.878856
0.006100,-0.913911
0.006200,-0.906445
0.006300,-0.932737
0.006400,-0.972985
0.006500,-1.006741
0.006600,-1.012908
0.006700,-1.000899
0.006800,-0.993109
0.006900,-1.014207
0.007000,-1.127486
0.007100,-1.175199
0.007200,-1.200192
0.007300,-1.158321
0.007400,-1.130407
0.007500,-1.164488
0.007600,-1.162541
0.007700,-1.190779
0.007800,-1.184612
0.007900,-1.198569
0.008000,-1.197596
0.008100,-1.179419
0.008200,-1.205061
0.008300,-1.193701
0.008400,-1.184288
0.008500,-1.193051
0.008600,-1.216421
0.008700,-1.217395
0.008800,-1.212202
0.008900,-1.241739
0.009000,-1.251476
0.009100,-1.318016
0.009200,-1.360861
0.009300,-1.589691
0.009400,-1.809109
0.009500,-1.768212
0.009600,-1.645844
0.009700,-1.462455
0.009800,-1.501729
0.009900,-1.739973
0.010000,-1.940565
0.010100,-2.060985
0.010200,-1.976269
0.010300,-1.866885
0.010400,-1.826312
0.010500,-1.960040
0.010600,-2.098962
0.010700,-2.205425
0.010800,-2.265148
0.010900,-2.247621
0.011000,-2.198933
0.011100,-2.186274
0.011200,-2.210294
0.011300,-2.279430
0.011400,-2.282351
0.011500,-2.257683
0.011600,-2.287869
0.011700,-2.335907
0.011800,-2.349215
0.011900,-2.300528
0.012000,-2.307669
0.012100,-2.389464
0.012200,-2.460547
0.012300,-2.436853
0.012400,-2.302800
0.012500,-2.172967
0.012600,-2.186924
0.012700,-2.343373
0.012800,-2.553054
0.012900,-2.615374
0.013000,-2.507612
0.013100,-2.369015
0.013200,-2.290466
0.013300,-2.356031
0.013400,-2.526762
0.013500,-2.636147
0.013600,-2.693923
0.013700,-2.609531
0.013800,-2.508586
0.013900,-2.450161
0.014000,-2.482294
0.014100,-2.530982
0.014200,-2.517999
0.014300,-2.505340
0.014400,-2.456977
0.014500,-2.441721
0.014600,-2.394657
0.014700,-2.319678
0.014800,-2.210943
0.014900,-2.151869
0.015000,-2.147324
0.015100,-2.147000
0.015200,-2.092145
0.015300,-1.933100
0.015400,-1.799696
0.015500,-1.623448
0.015600,-1.565023
0.015700,-1.543925
0.015800,-1.488097
0.015900,-1.405328
0.016000,-1.332622
0.016100,-1.196622
0.016200,-1.129433
0.016300,-1.093729
0.016400,-1.069061
0.016500,-1.089834
0.016600,-1.055753
0.016700,-1.101519
0.016800,-1.024593
0.016900,-1.030111
0.017000,-0.979152
0.017100,-0.982398
0.017200,-0.972336
0.017300,-0.970064
0.017400,-0.924297
0.017500,-0.839257
0.017600,-0.601663
0.017700,-0.374780
0.017800,-0.238131
0.017900,-0.504938
0.018000,-0.730847
0.018100,-0.668851
0.018200,-0.453005
0.018300,-0.335181
0.018400,-0.149521
0.018500,-0.203401
0.018600,-0.329663
0.018700,-0.390036
0.018800,-0.323496
0.018900,-0.209244
0.019000,-0.108299
0.019100,-0.011573
0.019200,-0.036566
0.019300,-0.031373
0.019400,-0.026504
0.019500,-0.052795
0.019600,-0.032996
0.019700,0.037438
0.019800,0.057238
0.019900,0.073467
0.020000,0.097486
0.020100,0.009200
0.020200,0.004331
0.020300,-0.144003
0.020400,-0.069674
0.020500,-0.078113
0.020600,0.007577
0.020700,-0.085253
0.020800,-0.215086
0.020900,-0.434828
0.021000,-0.356604
0.021100,-0.210867
0.021200,-0.113492
0.021300,-0.183926
0.021400,-0.359850
0.021500,-0.591601
0.021600,-0.618866
0.021700,-0.549730
0.021800,-0.441644
0.021900,-0.451706
0.022000,-0.558818
0.022100,-0.673071
0.022200,-0.671448
0.022300,-0.731496
0.022400,-0.712021
0.022500,-0.771744
0.022600,-0.824002
0.022700,-0.885348
0.022800,-0.877882
0.022900,-0.902875
0.023000,-0.963896
0.023100,-0.995056
0.023200,-1.003496
0.023300,-0.990188
0.023400,-0.986942
0.023500,-0.982722
0.023600,-1.091782
0.023700,-1.179094
0.023800,-1.196622
0.023900,-1.219018
0.024000,-1.102168
0.024100,-1.162216
0.024200,-1.178121
0.024300,-1.157023
0.024400,-1.170655
0.024500,-1.165137
0.024600,-1.159944
0.024700,-1.152479
0.024800,-1.141768
0.024900,-1.130407
0.025000,-1.097300
0.025100,-1.091782
0.025200,-1.077176
0.025300,-1.067114
0.025400,-1.067114
0.025500,-1.097300
0.025600,-1.080421
0.025700,-1.124565
0.025800,-1.167734
0.025900,-1.302436
0.026000,-1.546522
0.026100,-1.719200
0.026200,-1.668240
0.026300,-1.495562
0.026400,-1.412469
0.026500,-1.573137
0.026600,-1.832154
0.026700,-2.047677
0.026800,-2.115515
0.026900,-2.020737
0.027000,-1.957443
0.027100,-1.996393
0.027200,-2.183678
0.027300,-2.301826
0.027400,-2.363821
0.027500,-2.337855
0.027600,-2.341750
0.027700,-2.374533
0.027800,-2.433282
0.027900,-2.436853
0.028000,-2.458600
0.028100,-2.464442
0.028200,-2.444643
0.028300,-2.497550
0.028400,-2.579345
0.028500,-2.578371
0.028600,-2.536175
0.028700,-2.518648
0.028800,-2.594600
0.028900,-2.625111
0.029000,-2.602715
0.029100,-2.415106
0.029200,-2.305396
0.029300,-2.341425
0.029400,-2.564089
0.029500,-2.706257
0.029600,-2.708529
0.029700,-2.527087
0.029800,-2.312537
0.029900,-2.284948
0.030000,-2.439125
0.030100,-2.621541
0.030200,-2.709828
0.030300,-2.631603
0.030400,-2.533903
0.030500,-2.460547
0.030600,-2.472557
0.030700,-2.518323
0.030800,-2.534552
0.030900,-2.524490
0.031000,-2.473531
0.031100,-2.436204
0.031200,-2.394008
0.031300,-2.349864
0.031400,-2.266122
0.031500,-2.134017
0.031600,-2.093444
0.031700,-2.070723
0.031800,-2.056441
0.031900,-1.940565
0.032000,-1.771133
0.032100,-1.631238
0.032200,-1.467648
0.032300,-1.447199
0.032400,-1.392345
0.032500,-1.305032
0.032600,-1.190779
0.032700,-1.081071
0.032800,-0.963572
0.032900,-0.896708
0.033000,-0.883725
0.033100,-0.831142
0.033200,-0.819782
0.033300,-0.794140
0.033400,-0.813290
0.033500,-0.741233
0.033600,-0.741558
0.033700,-0.728575
0.033800,-0.707477
0.033900,-0.690923
0.034000,-0.740259
0.034100,-0.699362
0.034200,-0.685730
0.034300,-0.390036
0.034400,-0.252413
0.034500,-0.139459
0.034600,-0.516623
0.034700,-0.662360
0.034800,-0.570179
0.034900,-0.382895
0.035000,-0.187172
0.035100,-0.146924
0.035200,-0.255334
0.035300,-0.371859
0.035400,-0.421845
0.035500,-0.324470
0.035600,-0.211516
0.035700,-0.094991
0.035800,-0.086227
0.035900,-0.156337
0.036000,-0.184575
0.036100,-0.150494
0.036200,-0.137186
0.036300,-0.133941
0.036400,-0.111545
0.036500,-0.134265
0.036600,-0.197559
0.036700,-0.151144
0.036800,-0.221578
0.036900,-0.221902
0.037000,-0.342971
0.037100,-0.312785
0.037200,-0.320575
0.037300,-0.274160
0.037400,-0.345893
0.037500,-0.605558
0.037600,-0.668527
0.037700,-0.638990
0.037800,-0.391659
0.037900,-0.375429
0.038000,-0.452355
0.038100,-0.758761
0.038200,-0.876259
0.038300,-0.872689
0.038400,-0.704231
0.038500,-0.592575
0.038600,-0.655868
0.038700,-0.818808
0.038800,-0.920078
0.038900,-0.919104
0.039000,-0.903524
0.039100,-0.841529
0.039200,-0.920727
0.039300,-1.000574
0.039400,-1.076202
0.039500,-1.064192
0.039600,-1.053806
0.039700,-1.109958
0.039800,-1.148908
0.039900,-1.161567
0.040000,-1.143066
0.040100,-1.153452
0.040200,-1.190779
0.040300,-1.310550
0.040400,-1.374818
0.040500,-1.374818
0.040600,-1.346903
0.040700,-1.305357
0.040800,-1.352421
0.040900,-1.349500
0.041000,-1.341386
0.041100,-1.325481
0.041200,-1.332622
0.041300,-1.297242
0.041400,-1.292049
0.041500,-1.282961
0.041600,-1.282312
0.041700,-1.283285
0.041800,-1.266732
0.041900,-1.283935
0.042000,-1.278092
0.042100,-1.258617
0.042200,-1.283285
0.042300,-1.289128
0.042400,-1.328727
0.042500,-1.343009
0.042600,-1.522503
0.042700,-1.730560
0.042800,-1.777625
0.042900,-1.573462
0.043000,-1.390722
0.043100,-1.393968
0.043200,-1.550741
0.043300,-1.800345
0.043400,-1.924661
0.043500,-1.862990
0.043600,-1.704918
0.043700,-1.677004
0.043800,-1.796775
0.043900,-1.930828
0.044000,-2.054818
0.044100,-2.107076
0.044200,-2.116164
0.044300,-2.061310
0.044400,-2.080785
0.044500,-2.138885
0.044600,-2.190169
0.044700,-2.213864
0.044800,-2.247296
0.044900,-2.253463
0.045000,-2.267745
0.045100,-2.366743
0.045200,-2.388490
0.045300,-2.368690
0.045400,-2.419974
0.045500,-2.417053
0.045600,-2.491707
0.045700,-2.442046
0.045800,-2.305721
0.045900,-2.226847
0.046000,-2.305721
0.046100,-2.552404
0.046200,-2.678343
0.046300,-2.626410
0.046400,-2.394657
0.046500,-2.258007
0.046600,-2.309616
0.046700,-2.525789
0.046800,-2.697818
0.046900,-2.730601
0.047000,-2.624462
0.047100,-2.501769
0.047200,-2.473206
0.047300,-2.523841
0.047400,-2.596872
0.047500,-2.586161
0.047600,-2.558572
0.047700,-2.512156
0.047800,-2.435554
0.047900,-2.365769
0.048000,-2.205749
0.048100,-2.108699
0.048200,-2.022035
0.048300,-1.996393
0.048400,-1.985682
0.048500,-1.935047
0.048600,-1.779572
0.048700,-1.686417
0.048800,-1.628966
0.048900,-1.451094
0.049000,-1.426102
0.049100,-1.377414
0.049200,-1.307954
0.049300,-1.207658
0.049400,-1.077500
0.049500,-0.992135
0.049600,-0.944746
0.049700,-0.957729
0.049800,-0.911963
0.049900,-0.916508
0.050000,-0.859706
0.050100,-0.881777
0.050200,-0.776937
0.050300,-0.798035
0.050400,-0.759085
0.050500,-0.758436
0.050600,-0.778560
0.050700,-0.747076
0.050800,-0.734417
0.050900,-0.581214
0.051000,-0.298179
0.051100,-0.205673
0.051200,-0.332585
0.051300,-0.704555
0.051400,-0.628928
0.051500,-0.546484
0.051600,-0.218657
0.051700,-0.169969
0.051800,-0.178733
0.051900,-0.336155
0.052000,-0.423468
0.052100,-0.403019
0.052200,-0.255983
0.052300,-0.140757
0.052400,-0.087525
0.052500,-0.050523
0.052600,-0.081358
0.052700,-0.156337
0.052800,-0.150494
0.052900,-0.136213
0.053000,-0.090447
0.053100,-0.035917
0.053200,-0.026504
0.053300,-0.029750
0.053400,-0.152766
0.053500,-0.148547
0.053600,-0.185549
0.053700,-0.210542
0.053800,-0.162828
0.053900,-0.128098
0.054000,-0.143029
0.054100,-0.307267
0.054200,-0.539019
0.054300,-0.555897
0.054400,-0.427363
0.054500,-0.224174
0.054600,-0.255983
0.054700,-0.412432
0.054800,-0.706828
0.054900,-0.737014
0.055000,-0.648403
0.055100,-0.487086
0.055200,-0.471506
0.055300,-0.573424
0.055400,-0.710723
0.055500,-0.764603
0.055600,-0.780508
0.055700,-0.728575
0.055800,-0.768174
0.055900,-0.838932
0.056000,-0.903200
0.056100,-0.919104
0.056200,-0.904823
0.056300,-0.958703
0.056400,-1.008040
0.056500,-1.030760
0.056600,-1.025243
0.056700,-1.030436
0.056800,-1.021672
0.056900,-1.127810
0.057000,-1.249529
0.057100,-1.291075
0.057200,-1.303734
0.057300,-1.183314
0.057400,-1.226483
0.057500,-1.251152
0.057600,-1.233300
0.057700,-1.256670
0.057800,-1.235572
0.057900,-1.244011
0.058000,-1.210579
0.058100,-1.200517
0.058200,-1.210254
0.058300,-1.181367
0.058400,-1.187858
0.058500,-1.175849
0.058600,-1.165137
0.058700,-1.181691
0.058800,-1.178770
0.058900,-1.164488
0.059000,-1.182665
0.059100,-1.233624
0.059200,-1.346579
0.059300,-1.576059
0.059400,-1.761071
0.059500,-1.686417
0.059600,-1.455963
0.059700,-1.319639
0.059800,-1.458235
0.059900,-1.704918
0.060000,-1.907133
0.060100,-1.963286
0.060200,-1.874350
0.060300,-1.726665
0.060400,-1.760097
0.060500,-1.888632
0.060600,-2.014245
0.060700,-2.118761
0.060800,-2.127849
0.060900,-2.132718
0.061000,-2.112594
0.061100,-2.140833
0.061200,-2.220680
0.061300,-2.262227
0.061400,-2.312862
0.061500,-2.345645
0.061600,-2.377779
0.061700,-2.443669
0.061800,-2.554352
0.061900,-2.545588
0.062000,-2.577722
0.062100,-2.637121
0.062200,-2.684835
0.062300,-2.728653
0.062400,-2.617321
0.062500,-2.492357
0.062600,-2.488786
0.062700,-2.678668
0.062800,-2.886726
0.062900,-2.953266
0.063000,-2.818239
0.063100,-2.616347
0.063200,-2.560844
0.063300,-2.676071
0.063400,-2.875365
0.063500,-2.965600
0.063600,-2.903604
0.063700,-2.789026
0.063800,-2.725408
0.063900,-2.702038
0.064000,-2.712424
0.064100,-2.712424
0.064200,-2.674448
0.064300,-2.619918
0.064400,-2.566686
0.064500,-2.509884
0.064600,-2.402122
0.064700,-2.243726
0.064800,-2.135315
0.064900,-2.090847
0.065000,-2.050923
0.065100,-2.030150
0.065200,-1.958093
0.065300,-1.771133
0.065400,-1.695830
0.065500,-1.489720
0.065600,-1.465051
0.065700,-1.411171
0.065800,-1.310550
0.065900,-1.246608
0.066000,-1.130732
0.066100,-0.989538
0.066200,-0.919429
0.066300,-0.866522
0.066400,-0.847047
0.066500,-0.805825
0.066600,-0.785376
0.066700,-0.776937
0.066800,-0.716890
0.066900,-0.715591
0.067000,-0.683133
0.067100,-0.689300
0.067200,-0.705854
0.067300,-0.697415
0.067400,-0.722407
0.067500,-0.615620
0.067600,-0.407238
0.067700,-0.147249
0.067800,-0.164127
0.067900,-0.366341
0.068000,-0.601338
0.068100,-0.454627
0.068200,-0.266045
0.068300,-0.045005
0.068400,0.002708
0.068500,-0.114790
0.068600,-0.192365
0.068700,-0.290064
0.068800,-0.187172
0.068900,-0.015144
0.069000,0.051071
0.069100,0.105601
0.069200,0.063080
0.069300,0.059510
0.069400,-0.019688
0.069500,0.052045
0.069600,0.038088
0.069700,0.055940
0.069800,0.056913
0.069900,0.076064
0.070000,0.014069
0.070100,-0.043058
0.070200,-0.059936
0.070300,-0.106676
0.070400,-0.146599
0.070500,-0.088824
0.070600,-0.057339
0.070700,-0.112518
0.070800,-0.395229
0.070900,-0.526035
0.071000,-0.486761
0.071100,-0.303697
0.071200,-0.207296
0.071300,-0.290389
0.071400,-0.515973
0.071500,-0.724355
0.071600,-0.687677
0.071700,-0.590303
0.071800,-0.444565
0.071900,-0.528957
0.072000,-0.665606
0.072100,-0.776937
0.072200,-0.782131
0.072300,-0.819782
0.072400,-0.803878
0.072500,-0.896059
0.072600,-0.959677
0.072700,-1.033032
0.072800,-1.018426
0.072900,-0.988889
0.073000,-1.006092
0.073100,-1.057376
0.073200,-1.071982
0.073300,-1.056078
0.073400,-1.034655
0.073500,-1.034331
0.073600,-1.128460
0.073700,-1.223238
0.073800,-1.225185
0.073900,-1.228431
0.074000,-1.216097
0.074100,-1.210254
0.074200,-1.207982
0.074300,-1.183639
0.074400,-1.181042
0.074500,-1.156698
0.074600,-1.151180
0.074700,-1.139171
0.074800,-1.138846
0.074900,-1.133328
0.075000,-1.140145
0.075100,-1.117424
0.075200,-1.096001
0.075300,-1.095352
0.075400,-1.133004
0.075500,-1.153452
0.075600,-1.190130
0.075700,-1.243037
0.075800,-1.242713
0.075900,-1.430646
0.076000,-1.651686
0.076100,-1.772107
0.076200,-1.626044
0.076300,-1.491343
0.076400,-1.464727
0.076500,-1.590989
0.076600,-1.864288
0.076700,-2.026255
0.076800,-2.025606
0.076900,-1.898045
0.077000,-1.857796
0.077100,-1.899668
0.077200,-2.039238
0.077300,-2.182704
0.077400,-2.204451
0.077500,-2.220031
0.077600,-2.208346
0.077700,-2.239181
0.077800,-2.274561
0.077900,-2.305721
0.078000,-2.324222
0.078100,-2.354409
0.078200,-2.375506
0.078300,-2.396929
0.078400,-2.489435
0.078500,-2.516051
0.078600,-2.460223
0.078700,-2.483268
0.078800,-2.522543
0.078900,-2.553703
0.079000,-2.533254
0.079100,-2.396280
0.079200,-2.285272
0.079300,-2.365444
0.079400,-2.595574
0.079500,-2.732548
0.079600,-2.725083
0.079700,-2.531307
0.079800,-2.401149
0.079900,-2.417702
0.080000,-2.580319
0.080100,-2.731575
0.080200,-2.754945
0.080300,-2.631927
0.080400,-2.499822
0.080500,-2.479049
0.080600,-2.482619
0.080700,-2.447239
0.080800,-2.437502
0.080900,-2.377129
0.081000,-2.334609
0.081100,-2.281702
0.081200,-2.215487
0.081300,-2.098637
0.081400,-1.958417
0.081500,-1.867209
0.081600,-1.821768
0.081700,-1.809758
0.081800,-1.775677
0.081900,-1.650713
0.082000,-1.526398
0.082100,-1.382932
0.082200,-1.251801
0.082300,-1.232975
0.082400,-1.203114
0.082500,-1.128135
0.082600,-1.008689
0.082700,-0.903200
0.082800,-0.811343
0.082900,-0.781806
0.083000,-0.719162
0.083100,-0.745453
0.083200,-0.676317
0.083300,-0.687028
0.083400,-0.651324
0.083500,-0.634770
0.083600,-0.580241
0.083700,-0.586408
0.083800,-0.604584
0.083900,-0.605233
0.084000,-0.629902
0.084100,-0.621138
0.084200,-0.478646
0.084300,-0.265072
0.084400,-0.110571
0.084500,-0.198532
0.084600,-0.448785
0.084700,-0.611725
0.084800,-0.435153
0.084900,-0.265072
0.085000,-0.082332
0.085100,-0.004757
0.085200,-0.144003
0.085300,-0.210867
0.085400,-0.238131
0.085500,-0.082981
0.085600,-0.011249
0.085700,0.071195
0.085800,0.100083
0.085900,0.124751
0.086000,0.131243
0.086100,0.142603
0.086200,0.172789
0.086300,0.197457
0.086400,0.210440
0.086500,0.249066
0.086600,0.232187
0.086700,0.224073
0.086800,0.144550
0.086900,0.091968
0.087000,-0.026829
0.087100,0.030298
0.087200,0.086450
0.087300,0.103004
0.087400,0.022832
0.087500,-0.260203
0.087600,-0.286170
0.087700,-0.206972
0.087800,0.010823
0.087900,-0.008977
0.088000,-0.123229
0.088100,-0.406914
0.088200,-0.481892
0.088300,-0.405940
0.088400,-0.254685
0.088500,-0.216384
0.088600,-0.331286
0.088700,-0.465663
0.088800,-0.515649
0.088900,-0.500069
0.089000,-0.482217
0.089100,-0.530255
0.089200,-0.596794
0.089300,-0.657167
0.089400,-0.689625
0.089500,-0.680861
0.089600,-0.687353
0.089700,-0.731820
0.089800,-0.744479
0.089900,-0.743830
0.090000,-0.709424
0.090100,-0.689300
0.090200,-0.743830
0.090300,-0.849968
0.090400,-0.891839
0.090500,-0.886321
0.090600,-0.750322
0.090700,-0.775314
0.090800,-0.815887
0.090900,-0.817510
0.091000,-0.820107
0.091100,-0.799658
0.091200,-0.802579
0.091300,-0.802904
0.091400,-0.816861
0.091500,-0.820431
0.091600,-0.829520
0.091700,-0.843477
0.091800,-0.857109
0.091900,-0.875935
0.092000,-0.868794
0.092100,-0.918780
0.092200,-0.940527
0.092300,-1.016154
0.092400,-1.058025
0.092500,-1.177796
0.092600,-1.361185
0.092700,-1.629290
0.092800,-1.639028
0.092900,-1.486474
0.093000,-1.369949
0.093100,-1.424154
0.093200,-1.656231
0.093300,-1.946083
0.093400,-1.999315
0.093500,-1.949329
0.093600,-1.804240
0.093700,-1.833453
0.093800,-1.978866
0.093900,-2.158360
0.094000,-2.234637
0.094100,-2.275535
0.094200,-2.266446
0.094300,-2.261902
0.094400,-2.279105
0.094500,-2.336881
0.094600,-2.370313
0.094700,-2.363821
0.094800,-2.380375
0.094900,-2.403421
0.095000,-2.414781
0.095100,-2.489435
0.095200,-2.466065
0.095300,-2.488786
0.095400,-2.488462
0.095500,-2.509235
0.095600,-2.542667
0.095700,-2.463144
0.095800,-2.280728
0.095900,-2.252165
0.096000,-2.382647
0.096100,-2.579345
0.096200,-2.674123
0.096300,-2.581942
0.096400,-2.359926
0.096500,-2.262227
0.096600,-2.344022
0.096700,-2.572853
0.096800,-2.675746
0.096900,-2.634200
0.097000,-2.487812
0.097100,-2.395631
0.097200,-2.404394
0.097300,-2.439449
0.097400,-2.461521
0.097500,-2.409912
0.097600,-2.358953
0.097700,-2.304098
0.097800,-2.251516
0.097900,-2.179458
0.098000,-2.037940
0.098100,-1.915572
0.098200,-1.836049
0.098300,-1.811057
0.098400,-1.794503
0.098500,-1.749061
0.098600,-1.582875
0.098700,-1.503028
0.098800,-1.337815
0.098900,-1.295619
0.099000,-1.255047
0.099100,-1.214799
0.099200,-1.131056
0.099300,-1.025243
0.099400,-0.920078
0.099500,-0.854837
0.099600,-0.804202
0.099700,-0.821730
0.099800,-0.782455
0.099900,-0.744154
0.100000,-0.751620
0.100100,-0.680861
0.100200,-0.707801
0.100300,-0.615295
0.100400,-0.693844
0.100500,-0.625357
0.100600,-0.700011
0.100700,-0.654894
0.100800,-0.667229
0.100900,-0.434503
0.101000,-0.180356
0.101100,-0.129072
0.101200,-0.304995
0.101300,-0.580565
0.101400,-0.549405
0.101500,-0.390036
0.101600,-0.214437
0.101700,-0.133616
0.101800,-0.203401
0.101900,-0.295258
0.102000,-0.429310
0.102100,-0.382246
0.102200,-0.260203
0.102300,-0.129721
0.102400,-0.223525
0.102500,-0.243000
0.102600,-0.291038
0.102700,-0.338103
0.102800,-0.328365
0.102900,-0.290389
0.103000,-0.273835
0.103100,-0.266045
0.103200,-0.273186
0.103300,-0.295582
0.103400,-0.394580
0.103500,-0.362446
0.103600,-0.410160
0.103700,-0.452680
0.103800,-0.409835
0.103900,-0.405291
0.104000,-0.388413
0.104100,-0.561739
0.104200,-0.758436
0.104300,-0.711696
0.104400,-0.558169
0.104500,-0.409186
0.104600,-0.449759
0.104700,-0.606207
0.104800,-0.802579
0.104900,-0.793166
0.105000,-0.672746
0.105100,-0.506885
0.105200,-0.495849
0.105300,-0.602312
0.105400,-0.712670
0.105500,-0.678914
0.105600,-0.692546
0.105700,-0.642885
0.105800,-0.722732
0.105900,-0.774341
0.106000,-0.822703
0.106100,-0.867496
0.106200,-0.867820
0.106300,-0.916508
0.106400,-0.966169
0.106500,-0.942799
0.106600,-0.931438
0.106700,-0.922025
0.106800,-0.926570
0.106900,-1.051858
0.107000,-1.142417
0.107100,-1.169682
0.107200,-1.100546
0.107300,-1.079772
0.107400,-1.138846
0.107500,-1.152154
0.107600,-1.131381
0.107700,-1.131056
0.107800,-1.156374
0.107900,-1.167085
0.108000,-1.164488
0.108100,-1.174550
0.108200,-1.198245
0.108300,-1.226808
0.108400,-1.238168
0.108500,-1.245634
0.108600,-1.253748
0.108700,-1.250178
0.108800,-1.281662
0.108900,-1.303085
0.109000,-1.312173
0.109100,-1.338789
0.109200,-1.485825
0.109300,-1.717577
0.109400,-1.845138
0.109500,-1.761071
0.109600,-1.565347
0.109700,-1.458884
0.109800,-1.587419
0.109900,-1.890255
0.110000,-2.074293
0.110100,-2.095716
0.110200,-1.969778
0.110300,-1.907458
0.110400,-1.924011
0.110500,-2.073644
0.110600,-2.215811
0.110700,-2.253139
0.110800,-2.276184
0.110900,-2.250542
0.111000,-2.250217
0.111100,-2.241129
0.111200,-2.277482
0.111300,-2.299879
0.111400,-2.306370
0.111500,-2.326819
0.111600,-2.322924
0.111700,-2.366418
0.111800,-2.356031
0.111900,-2.363821
0.112000,-2.370962
0.112100,-2.448862
0.112200,-2.465741
0.112300,-2.484567
0.112400,-2.320976
0.112500,-2.236909
0.112600,-2.266122
0.112700,-2.489111
0.112800,-2.657245
0.112900,-2.682887
0.113000,-2.491707
0.113100,-2.321626
0.113200,-2.299879
0.113300,-2.439449
0.113400,-2.652701
0.113500,-2.713723
0.113600,-2.622515
0.113700,-2.516700
0.113800,-2.485865
0.113900,-2.513130
0.114000,-2.547536
0.114100,-2.565388
0.114200,-2.545264
0.114300,-2.560519
0.114400,-2.523517
0.114500,-2.496252
0.114600,-2.385569
0.114700,-2.265797
0.114800,-2.184002
0.114900,-2.204776
0.115000,-2.210294
0.115100,-2.198284
0.115200,-2.113568
0.115300,-1.975620
0.115400,-1.949978
0.115500,-1.746140
0.115600,-1.748737
0.115700,-1.698102
0.115800,-1.630913
0.115900,-1.552040
0.116000,-1.434541
0.116100,-1.350149
0.116200,-1.275820
0.116300,-1.249204
0.116400,-1.250178
0.116500,-1.199543
0.116600,-1.202140
0.116700,-1.178445
0.116800,-1.115801
0.116900,-1.091782
0.117000,-1.025567
0.117100,-1.072956
0.117200,-1.014856
0.117300,-1.077176
0.117400,-1.014207
0.117500,-0.896383
0.117600,-0.659114
0.117700,-0.397826
0.117800,-0.397826
0.117900,-0.615945
0.118000,-0.786350
0.118100,-0.596794
0.118200,-0.367315
0.118300,-0.208270
0.118400,-0.110895
0.118500,-0.309864
0.118600,-0.378351
0.118700,-0.400422
0.118800,-0.225473
0.118900,-0.149521
0.119000,-0.023583
0.119100,-0.059611
0.119200,-0.096938
0.119300,-0.093693
0.119400,-0.150494
0.119500,-0.148871
0.119600,-0.153416
0.119700,-0.138809
0.119800,-0.121931
0.119900,-0.143029
0.120000,-0.169645
0.120100,-0.311162
0.120200,-0.287143
0.120300,-0.391334
0.120400,-0.351410
0.120500,-0.343945
0.120600,-0.327391
0.120700,-0.383869
0.120800,-0.635420
0.120900,-0.719162
0.121000,-0.656193
0.121100,-0.434828
0.121200,-0.388737
0.121300,-0.486436
0.121400,-0.777262
0.121500,-0.878531
0.121600,-0.830169
0.121700,-0.634770
0.121800,-0.507859
0.121900,-0.589329
0.122000,-0.709100
0.122100,-0.779534
0.122200,-0.723057
0.122300,-0.706828
0.122400,-0.685081
0.122500,-0.774016
0.122600,-0.809720
0.122700,-0.847047
0.122800,-0.854512
0.122900,-0.886971
0.123000,-0.912288
0.123100,-0.948966
0.123200,-0.911963
0.123300,-0.886646
0.123400,-0.880803
0.123500,-0.911963
0.123600,-1.045691
0.123700,-1.095028
0.123800,-1.096001
0.123900,-0.979476
0.124000,-0.989863
0.124100,-1.069386
0.124200,-1.062245
0.124300,-1.070359
0.124400,-1.052183
0.124500,-1.049586
0.124600,-1.064517
0.124700,-1.067114
0.124800,-1.062569
0.124900,-1.103791
0.125000,-1.118073
0.125100,-1.121643
0.125200,-1.119371
0.125300,-1.136574
0.125400,-1.170980
0.125500,-1.181691
0.125600,-1.238168
0.125700,-1.242388
0.125800,-1.270627
0.125900,-1.473491
0.126000,-1.701997
0.126100,-1.739648
0.126200,-1.573137
0.126300,-1.428374
0.126400,-1.380011
0.126500,-1.597481
0.126600,-1.861691
0.126700,-1.964584
0.126800,-1.881491
0.126900,-1.753930
0.127000,-1.693882
0.127100,-1.792231
0.127200,-1.968155
0.127300,-2.072670
0.127400,-2.123305
0.127500,-2.087926
0.127600,-2.073969
0.127700,-2.112269
0.127800,-2.136938
0.127900,-2.221329
0.128000,-2.250866
0.128100,-2.281702
0.128200,-2.299879
0.128300,-2.307019
0.128400,-2.369664
0.128500,-2.406666
0.128600,-2.439449
0.128700,-2.425168
0.128800,-2.483917
0.128900,-2.484891
0.129000,-2.448538
0.129100,-2.309291
0.129200,-2.262227
0.129300,-2.369339
0.129400,-2.595899
0.129500,-2.721513
0.129600,-2.669255
0.129700,-2.433931
0.129800,-2.276184
0.129900,-2.345969
0.130000,-2.561493
0.130100,-2.745856
0.130200,-2.784482
0.130300,-2.638744
0.130400,-2.544939
0.130500,-2.527087
0.130600,-2.600118
0.130700,-2.634524
0.130800,-2.625436
0.130900,-2.602066
0.131000,-2.570906
0.131100,-2.549808
0.131200,-2.508910
0.131300,-2.381349
0.131400,-2.278131
0.131500,-2.211592
0.131600,-2.201205
0.131700,-2.172317
0.131800,-2.133043
0.131900,-1.986007
0.132000,-1.874675
0.132100,-1.698426
0.132200,-1.593262
0.132300,-1.539381
0.132400,-1.508870
0.132500,-1.387801
0.132600,-1.265758
0.132700,-1.108336
0.132800,-1.035305
0.132900,-0.975257
0.133000,-0.952212
0.133100,-0.951562
0.133200,-0.862627
0.133300,-0.901252
0.133400,-0.828546
0.133500,-0.835362
0.133600,-0.766875
0.133700,-0.752594
0.133800,-0.765252
0.133900,-0.779534
0.134000,-0.787648
0.134100,-0.799009
0.134200,-0.605233
0.134300,-0.361148
0.134400,-0.274485
0.134500,-0.398150
0.134600,-0.659763
0.134700,-0.684756
0.134800,-0.524413
0.134900,-0.345243
0.135000,-0.227096
0.135100,-0.261826
0.135200,-0.399773
0.135300,-0.502990
0.135400,-0.512728
0.135500,-0.356279
0.135600,-0.285520
0.135700,-0.266045
0.135800,-0.309215
0.135900,-0.380947
0.136000,-0.377377
0.136100,-0.420871
0.136200,-0.368613
0.136300,-0.361472
0.136400,-0.355955
0.136500,-0.389062
0.136600,-0.442293
0.136700,-0.569205
0.136800,-0.504288
0.136900,-0.564012
0.137000,-0.596470
0.137100,-0.519868
0.137200,-0.528632
0.137300,-0.448785
0.137400,-0.614322
0.137500,-0.801930
0.137600,-0.762006
0.137700,-0.570179
0.137800,-0.394904
0.137900,-0.352709
0.138000,-0.506561
0.138100,-0.752918
0.138200,-0.788622
0.138300,-0.708126
0.138400,-0.538370
0.138500,-0.493253
0.138600,-0.614971
0.138700,-0.741882
0.138800,-0.771744
0.138900,-0.796412
0.139000,-0.757462
0.139100,-0.824002
0.139200,-0.879181
0.139300,-0.936307
0.139400,-0.973309
0.139500,-0.951238
0.139600,-1.000574
0.139700,-1.045691
0.139800,-1.052507
0.139900,-1.020698
0.140000,-0.978503
0.140100,-0.955133
0.140200,-0.999925
0.140300,-1.109634
0.140400,-1.107686
0.140500,-1.096326
0.140600,-0.987591
0.140700,-1.029137
0.140800,-1.055429
0.140900,-1.045691
0.141000,-1.039200
0.141100,-1.061596
0.141200,-1.055753
0.141300,-1.049911
0.141400,-1.060947
0.141500,-1.058999
0.141600,-1.081395
0.141700,-1.084641
0.141800,-1.108336
0.141900,-1.131705
0.142000,-1.142417
0.142100,-1.186884
0.142200,-1.197920
0.142300,-1.249529
0.142400,-1.293023
0.142500,-1.446226
0.142600,-1.667591
0.142700,-1.852928
0.142800,-1.818197
0.142900,-1.648441
0.143000,-1.546846
0.143100,-1.589367
0.143200,-1.889606
0.143300,-2.096365
0.143400,-2.140833
0.143500,-2.046704
0.143600,-1.951925
0.143700,-1.954522
0.143800,-2.051572
0.143900,-2.220031
0.144000,-2.278781
0.144100,-2.281053
0.144200,-2.246647
0.144300,-2.236260
0.144400,-2.225224
0.144500,-2.232365
0.144600,-2.271640
0.144700,-2.267096
0.144800,-2.286246
0.144900,-2.290790
0.145000,-2.296957
0.145100,-2.373234
0.145200,-2.329091
0.145300,-2.348241
0.145400,-2.399526
0.145500,-2.438800
0.145600,-2.425817
0.145700,-2.315459
0.145800,-2.212566
0.145900,-2.238208
0.146000,-2.433607
0.146100,-2.630305
0.146200,-2.706582
0.146300,-2.566362
0.146400,-2.387841
0.146500,-2.340451
0.146600,-2.495278
0.146700,-2.716968
0.146800,-2.806878
0.146900,-2.761436
0.147000,-2.653025
0.147100,-2.623813
0.147200,-2.643612
0.147300,-2.683536
0.147400,-2.682563
0.147500,-2.663412
0.147600,-2.647183
0.147700,-2.609207
0.147800,-2.589082
0.147900,-2.525139
0.148000,-2.387516
0.148100,-2.272289
0.148200,-2.239831
0.148300,-2.216785
0.148400,-2.198609
0.148500,-2.113243
0.148600,-1.934073
0.148700,-1.868183
0.148800,-1.632211
0.148900,-1.613061
0.149000,-1.563725
0.149100,-1.491018
0.149200,-1.370598
0.149300,-1.260240
0.149400,-1.144689
0.149500,-1.057701
0.149600,-1.041147
0.149700,-0.994083
0.149800,-0.987916
0.149900,-0.968765
0.150000,-0.982398
0.150100,-0.933386
0.150200,-0.876259
0.150300,-0.878207
0.150400,-0.872364
0.150500,-0.859056
0.150600,-0.924297
0.150700,-0.852240
0.150800,-0.833739
0.150900,-0.596470
0.151000,-0.436126
0.151100,-0.368938
0.151200,-0.665281
0.151300,-0.845424
0.151400,-0.768823
0.151500,-0.556871
0.151600,-0.441320
0.151700,-0.340375
0.151800,-0.485463
0.151900,-0.568556
0.152000,-0.650026
0.152100,-0.488059
0.152200,-0.370885
0.152300,-0.287468
0.152400,-0.323496
0.152500,-0.322198
0.152600,-0.317005
0.152700,-0.333883
0.152800,-0.291687
0.152900,-0.289091
0.153000,-0.286494
0.153100,-0.263773
0.153200,-0.300127
0.153300,-0.358227
0.153400,-0.401071
0.153500,-0.379000
0.153600,-0.403344
0.153700,-0.431258
0.153800,-0.315706
0.153900,-0.322847
0.154000,-0.295907
0.154100,-0.545835
0.154200,-0.634446
0.154300,-0.566933
0.154400,-0.351086
0.154500,-0.256308
0.154600,-0.291363
0.154700,-0.541615
0.154800,-0.678914
0.154900,-0.657491
0.155000,-0.497472
0.155100,-0.397176
0.155200,-0.427687
0.155300,-0.554599
0.155400,-0.652622
0.155500,-0.638016
0.155600,-0.648403
0.155700,-0.637367
0.155800,-0.726302
0.155900,-0.778885
0.156000,-0.799983
0.156100,-0.789271
0.156200,-0.793816
0.156300,-0.835362
0.156400,-0.878856
0.156500,-0.888269
0.156600,-0.870417
0.156700,-0.847372
0.156800,-0.846073
0.156900,-0.935333
0.157000,-0.978503
0.157100,-0.987591
0.157200,-0.962274
0.157300,-0.866197
0.157400,-0.904823
0.157500,-0.910990
0.157600,-0.906770
0.157700,-0.897682
0.157800,-0.885023
0.157900,-0.915858
0.158000,-0.904823
0.158100,-0.933710
0.158200,-0.935658
0.158300,-0.941825
0.158400,-0.949290
0.158500,-0.967791
0.158600,-0.990837
0.158700,-1.008364
0.158800,-1.054455
0.158900,-1.113204
0.159000,-1.120670
0.159100,-1.214474
0.159200,-1.355018
0.159300,-1.631887
0.159400,-1.678302
0.159500,-1.569242
0.159600,-1.399486
0.159700,-1.330999
0.159800,-1.494913
0.159900,-1.769510
0.160000,-1.948680
0.160100,-1.917844
0.160200,-1.802617
0.160300,-1.761395
0.160400,-1.815276
0.160500,-1.990226
0.160600,-2.099935
0.160700,-2.175888
0.160800,-2.149597
0.160900,-2.199258
0.161000,-2.210943
0.161100,-2.258332
0.161200,-2.322599
0.161300,-2.334284
0.161400,-2.370638
0.161500,-2.376805
0.161600,-2.415755
0.161700,-2.449187
0.161800,-2.481645
0.161900,-2.474504
0.162000,-2.458600
0.162100,-2.500471
0.162200,-2.473855
0.162300,-2.459898
0.162400,-2.295659
0.162500,-2.226847
0.162600,-2.283974
0.162700,-2.488137
0.162800,-2.607584
0.162900,-2.606610
0.163000,-2.404070
0.163100,-2.248270
0.163200,-2.274236
0.163300,-2.441721
0.163400,-2.636472
0.163500,-2.687107
0.163600,-2.598495
0.163700,-2.485865
0.163800,-2.472232
0.163900,-2.509559
0.164000,-2.538123
0.164100,-2.533903
0.164200,-2.532280
0.164300,-2.506963
0.164400,-2.461521
0.164500,-2.432633
0.164600,-2.368690
0.164700,-2.244375
0.164800,-2.133367
0.164900,-2.110322
0.165000,-2.074293
0.165100,-2.058713
0.165200,-1.929529
0.165300,-1.792880
0.165400,-1.610464
0.165500,-1.512441
0.165600,-1.498808
0.165700,-1.458884
0.165800,-1.357615
0.165900,-1.265433
0.166000,-1.144364
0.166100,-1.051858
0.166200,-1.003171
0.166300,-0.947992
0.166400,-0.941176
0.166500,-0.889243
0.166600,-0.925920
0.166700,-0.883076
0.166800,-0.863925
0.166900,-0.811992
0.167000,-0.799333
0.167100,-0.801930
0.167200,-0.804202
0.167300,-0.827572
0.167400,-0.802255
0.167500,-0.704880
0.167600,-0.442293
0.167700,-0.245272
0.167800,-0.375105
0.167900,-0.542589
0.168000,-0.756813
0.168100,-0.502341
0.168200,-0.408212
0.168300,-0.180680
0.168400,-0.145626
0.168500,-0.309539
0.168600,-0.384193
0.168700,-0.413730
0.168800,-0.244298
0.168900,-0.139134
0.169000,-0.070972
0.169100,-0.079411
0.169200,-0.141731
0.169300,-0.132642
0.169400,-0.147573
0.169500,-0.156986
0.169600,-0.162828
0.169700,-0.164127
0.169800,-0.097912
0.169900,-0.166399
0.170000,-0.218981
0.170100,-0.319601
0.170200,-0.301100
0.170300,-0.413081
0.170400,-0.355305
0.170500,-0.362446
0.170600,-0.391009
0.170700,-0.463067
0.170800,-0.786350
0.170900,-0.793816
0.171000,-0.736689
0.171100,-0.562064
0.171200,-0.562389
0.171300,-0.681186
0.171400,-0.966493
0.171500,-1.039524
0.171600,-0.971362
0.171700,-0.804527
0.171800,-0.725329
0.171900,-0.825300
0.172000,-0.931438
0.172100,-0.950913
0.172200,-0.924297
0.172300,-0.870092
0.172400,-0.898006
0.172500,-0.943123
0.172600,-0.968116
0.172700,-0.944097
0.172800,-0.915858
0.172900,-0.919429
0.173000,-0.981749
0.173100,-1.022321
0.173200,-1.010961
0.173300,-0.977854
0.173400,-0.959352
0.173500,-1.007715
0.173600,-1.144689
0.173700,-1.180393
0.173800,-1.176822
0.173900,-1.168059
0.174000,-1.105739
0.174100,-1.146636
0.174200,-1.150856
0.174300,-1.127486
0.174400,-1.114178
0.174500,-1.108336
0.174600,-1.101844
0.174700,-1.072307
0.174800,-1.050235
0.174900,-1.043095
0.175000,-1.050235
0.175100,-1.020698
0.175200,-1.020374
0.175300,-1.019725
0.175400,-1.049586
0.175500,-1.056727
0.175600,-1.055753
0.175700,-1.127161
0.175800,-1.163839
0.175900,-1.436813
0.176000,-1.623772
0.176100,-1.701672
0.176200,-1.499133
0.176300,-1.392670
0.176400,-1.418961
0.176500,-1.655257
0.176600,-1.917844
0.176700,-2.001587
0.176800,-1.962312
0.176900,-1.846436
0.177000,-1.850656
0.177100,-2.003534
0.177200,-2.127849
0.177300,-2.207697
0.177400,-2.201205
0.177500,-2.234313
0.177600,-2.222628
0.177700,-2.261902
0.177800,-2.293711
0.177900,-2.320976
0.178000,-2.327468
0.178100,-2.355382
0.178200,-2.366743
0.178300,-2.357979
0.178400,-2.435230
0.178500,-2.437177
0.178600,-2.451784
0.178700,-2.470934
0.178800,-2.495602
0.178900,-2.543316
0.179000,-2.407316
0.179100,-2.296957
0.179200,-2.224251
0.179300,-2.373884
0.179400,-2.590705
0.179500,-2.690677
0.179600,-2.580968
0.179700,-2.369015
0.179800,-2.277807
0.179900,-2.394008
0.180000,-2.607584
0.180100,-2.728978
0.180200,-2.685484
0.180300,-2.555001
0.180400,-2.484242
0.180500,-2.484242
0.180600,-2.513130
0.180700,-2.512805
0.180800,-2.491383
0.180900,-2.457626
0.181000,-2.441072
0.181100,-2.419974
0.181200,-2.341425
0.181300,-2.225549
0.181400,-2.112594
0.181500,-2.054818
0.181600,-2.011324
0.181700,-1.980489
0.181800,-1.934723
0.181900,-1.757500
0.182000,-1.640326
0.182100,-1.424154
0.182200,-1.395591
0.182300,-1.333596
0.182400,-1.260565
0.182500,-1.170331
0.182600,-1.057701
0.182700,-0.915534
0.182800,-0.817510
0.182900,-0.781806
0.183000,-0.774016
0.183100,-0.728250
0.183200,-0.664307
0.183300,-0.676641
0.183400,-0.605233
0.183500,-0.614971
0.183600,-0.572775
0.183700,-0.613673
0.183800,-0.558818
0.183900,-0.628603
0.184000,-0.606856
0.184100,-0.580241
0.184200,-0.397501
0.184300,-0.168346
0.184400,-0.090771
0.184500,-0.315706
0.184600,-0.557520
0.184700,-0.584785
0.184800,-0.402694
0.184900,-0.200155
0.185000,-0.069024
0.185100,-0.175487
0.185200,-0.277730
0.185300,-0.354656
0.185400,-0.314408
0.185500,-0.174189
0.185600,-0.119010
0.185700,-0.167697
0.185800,-0.178733
0.185900,-0.218332
0.186000,-0.214762
0.186100,-0.229368
0.186200,-0.243649
0.186300,-0.276107
0.186400,-0.301749
0.186500,-0.340699
0.186600,-0.424441
0.186700,-0.485463
0.186800,-0.468909
0.186900,-0.534475
0.187000,-0.580890
0.187100,-0.584785
0.187200,-0.565959
0.187300,-0.557520
0.187400,-0.717539
0.187500,-0.910990
0.187600,-0.866197
0.187700,-0.701310
0.187800,-0.530580
0.187900,-0.604260
0.188000,-0.779209
0.188100,-1.034655
0.188200,-1.042121
0.188300,-0.922025
0.188400,-0.736365
0.188500,-0.757462
0.188600,-0.903200
0.188700,-1.030111
0.188800,-1.023944
0.188900,-1.031734
0.189000,-0.981749
0.189100,-1.053481
0.189200,-1.102493
0.189300,-1.143715
0.189400,-1.114827
0.189500,-1.105739
0.189600,-1.141118
0.189700,-1.183963
0.189800,-1.187534
0.189900,-1.159295
0.190000,-1.157023
0.190100,-1.155400
0.190200,-1.240441
0.190300,-1.324183
0.190400,-1.344631
0.190500,-1.332297
0.190600,-1.293672
0.190700,-1.332297
0.190800,-1.318340
0.190900,-1.306980
0.191000,-1.303734
0.191100,-1.294970
0.191200,-1.279390
0.191300,-1.254073
0.191400,-1.271600
0.191500,-1.254398
0.191600,-1.253748
0.191700,-1.257968
0.191800,-1.254073
0.191900,-1.274522
0.192000,-1.255696
0.192100,-1.306331
0.192200,-1.316068
0.192300,-1.367677
0.192400,-1.371247
0.192500,-1.541328
0.192600,-1.771133
0.192700,-1.907133
0.192800,-1.818847
0.192900,-1.608842
0.193000,-1.530293
0.193100,-1.641300
0.193200,-1.945109
0.193300,-2.148947
0.193400,-2.166475
0.193500,-2.061959
0.193600,-1.928880
0.193700,-1.970427
0.193800,-2.096365
0.193900,-2.234962
0.194000,-2.286571
0.194100,-2.273263
0.194200,-2.235286
0.194300,-2.234637
0.194400,-2.255086
0.194500,-2.283649
0.194600,-2.302475
0.194700,-2.283974
0.194800,-2.260604
0.194900,-2.260604
0.195000,-2.341750
0.195100,-2.387841
0.195200,-2.367392
0.195300,-2.370313
0.195400,-2.364146
0.195500,-2.348566
0.195600,-2.338504
0.195700,-2.204776
0.195800,-2.130122
0.195900,-2.111620
0.196000,-2.311564
0.196100,-2.494304
0.196200,-2.555650
0.196300,-2.386867
0.196400,-2.195363
0.196500,-2.179783
0.196600,-2.361225
0.196700,-2.582591
0.196800,-2.704959
0.196900,-2.642963
0.197000,-2.557922
0.197100,-2.518972
0.197200,-2.567011
0.197300,-2.635498
0.197400,-2.654648
0.197500,-2.659842
0.197600,-2.645885
0.197700,-2.586486
0.197800,-2.570581
0.197900,-2.512156
0.198000,-2.384595
0.198100,-2.305396
0.198200,-2.250866
0.198300,-2.213215
0.198400,-2.172317
0.198500,-2.062608
0.198600,-1.914923
0.198700,-1.746789
0.198800,-1.589367
0.198900,-1.565672
0.199000,-1.487123
0.199100,-1.408250
0.199200,-1.294970
0.199300,-1.180068
0.199400,-1.046340
0.199500,-0.949615
0.199600,-0.895734
0.199700,-0.877233
0.199800,-0.824975
0.199900,-0.813940
0.200000,-0.761357
0.200100,-0.755839
0.200200,-0.676641
0.200300,-0.702283
0.200400,-0.680536
0.200500,-0.697415
0.200600,-0.679563
0.200700,-0.688002
0.200800,-0.602312
0.200900,-0.355305
0.201000,-0.203077
0.201100,-0.241702
0.201200,-0.549730
0.201300,-0.711047
0.201400,-0.584136
0.201500,-0.474752
0.201600,-0.250141
0.201700,-0.277406
0.201800,-0.364394
0.201900,-0.490007
0.202000,-0.528308
0.202100,-0.423792
0.202200,-0.287143
0.202300,-0.223525
0.202400,-0.226122
0.202500,-0.242026
0.202600,-0.301425
0.202700,-0.341673
0.202800,-0.331936
0.202900,-0.310838
0.203000,-0.288766
0.203100,-0.277081
0.203200,-0.311811
0.203300,-0.433205
0.203400,-0.421845
0.203500,-0.448136
0.203600,-0.445215
0.203700,-0.431258
0.203800,-0.383544
0.203900,-0.369262
0.204000,-0.399773
0.204100,-0.660737
0.204200,-0.735715
0.204300,-0.678264
0.204400,-0.469558
0.204500,-0.441644
0.204600,-0.543563
0.204700,-0.813290
0.204800,-0.922999
0.204900,-0.893787
0.205000,-0.715591
0.205100,-0.672746
0.205200,-0.738312
0.205300,-0.909691
0.205400,-1.008364
0.205500,-1.026541
0.205600,-1.054779
0.205700,-1.076851
0.205800,-1.173252
0.205900,-1.255371
0.206000,-1.292698
0.206100,-1.334245
0.206200,-1.389424
0.206300,-1.475438
0.206400,-1.528670
0.206500,-1.531266
0.206600,-1.540355
0.206700,-1.540355
0.206800,-1.604947
0.206900,-1.741920
0.207000,-1.800670
0.207100,-1.825987
0.207200,-1.824040
0.207300,-1.758799
0.207400,-1.793529
0.207500,-1.795152
0.207600,-1.788985
0.207700,-1.748737
0.207800,-1.721796
0.207900,-1.685443
0.208000,-1.645195
0.208100,-1.628641
0.208200,-1.582550
0.208300,-1.566321
0.208400,-1.523152
0.208500,-1.501405
0.208600,-1.504001
0.208700,-1.454340
0.208800,-1.498808
0.208900,-1.466674
0.209000,-1.537109
0.209100,-1.564698
0.209200,-1.780221
0.209300,-1.996718
0.209400,-2.038265
0.209500,-1.845787
0.209600,-1.647142
0.209700,-1.655906
0.209800,-1.868832
0.209900,-2.112919
0.210000,-2.249244
0.210100,-2.190494
0.210200,-1.987630
0.210300,-1.922388
0.210400,-2.035992
0.210500,-2.142456
0.210600,-2.287869
0.210700,-2.307019
0.210800,-2.293062
0.210900,-2.300852
0.211000,-2.282676
0.211100,-2.297606
0.211200,-2.331363
0.211300,-2.316108
0.211400,-2.347917
0.211500,-2.388490
0.211600,-2.423220
0.211700,-2.452757
0.211800,-2.477750
0.211900,-2.443344
0.212000,-2.505340
0.212100,-2.541693
0.212200,-2.543641
0.212300,-2.476776
0.212400,-2.359602
0.212500,-2.257358
0.212600,-2.389788
0.212700,-2.609207
0.212800,-2.725408
0.212900,-2.662438
0.213000,-2.436853
0.213100,-2.319354
0.213200,-2.371936
0.213300,-2.597197
0.213400,-2.720539
0.213500,-2.725408
0.213600,-2.634849
0.213700,-2.554027
0.213800,-2.545913
0.213900,-2.574476
0.214000,-2.589407
0.214100,-2.566686
0.214200,-2.527412
0.214300,-2.493330
0.214400,-2.446266
0.214500,-2.366418
0.214600,-2.262551
0.214700,-2.109997
0.214800,-2.021062
0.214900,-1.983085
0.215000,-1.935047
0.215100,-1.893501
0.215200,-1.680574
0.215300,-1.550417
0.215400,-1.307629
0.215500,-1.232975
0.215600,-1.194674
0.215700,-1.115152
0.215800,-1.034980
0.215900,-0.890541
0.216000,-0.757138
0.216100,-0.691897
0.216200,-0.635095
0.216300,-0.623085
0.216400,-0.564985
0.216500,-0.541940
0.216600,-0.544537
0.216700,-0.526035
0.216800,-0.495849
0.216900,-0.440670
0.217000,-0.426389
0.217100,-0.417301
0.217200,-0.405616
0.217300,-0.438398
0.217400,-0.415678
0.217500,-0.221253
0.217600,-0.025530
0.217700,0.108846
0.217800,0.000436
0.217900,-0.395878
0.218000,-0.320575
0.218100,-0.305644
0.218200,0.009200
0.218300,0.034517
0.218400,0.040035
0.218500,-0.099210
0.218600,-0.228069
0.218700,-0.162504
0.218800,-0.074542
0.218900,0.058536
0.219000,0.043930
0.219100,0.042307
0.219200,-0.035917
0.219300,-0.034619
0.219400,-0.041435
0.219500,-0.025530
0.219600,-0.048900
0.219700,-0.061884
0.219800,-0.101158
0.219900,-0.160881
0.220000,-0.159583
0.220100,-0.253711
0.220200,-0.245272
0.220300,-0.308566
0.220400,-0.344270
0.220500,-0.277081
0.220600,-0.331286
0.220700,-0.415028
0.220800,-0.706828
0.220900,-0.656842
0.221000,-0.526685
0.221100,-0.341673
0.221200,-0.339076
0.221300,-0.523114
0.221400,-0.786675
0.221500,-0.849968
0.221600,-0.764603
0.221700,-0.587381
0.221800,-0.568231
0.221900,-0.704231
0.222000,-0.854512
0.222100,-0.898655
0.222200,-0.914235
0.222300,-0.904823
0.222400,-0.981424
0.222500,-1.049586
0.222600,-1.172603
0.222700,-1.232001
0.222800,-1.237844
0.222900,-1.227133
0.223000,-1.247581
0.223100,-1.289128
0.223200,-1.291725
0.223300,-1.273872
0.223400,-1.232651
0.223500,-1.300164
0.223600,-1.408250
0.223700,-1.453691
0.223800,-1.456937
0.223900,-1.453691
0.224000,-1.398837
0.224100,-1.450121
0.224200,-1.430970
0.224300,-1.459534
0.224400,-1.471868
0.224500,-1.494588
0.224600,-1.507896
0.224700,-1.521529
0.224800,-1.556584
0.224900,-1.578006
0.225000,-1.603648
0.225100,-1.621176
0.225200,-1.655257
0.225300,-1.679276
0.225400,-1.730560
0.225500,-1.777300
0.225600,-1.822092
0.225700,-1.890904
0.225800,-1.996069
0.225900,-2.261902
0.226000,-2.434581
0.226100,-2.367067
0.226200,-2.185950
0.226300,-2.023009
0.226400,-2.088250
0.226500,-2.318380
0.226600,-2.532280
0.226700,-2.555975
0.226800,-2.455029
0.226900,-2.302151
0.227000,-2.241454
0.227100,-2.362848
0.227200,-2.454705
0.227300,-2.506314
0.227400,-2.486189
0.227500,-2.466714
0.227600,-2.450161
0.227700,-2.448213
0.227800,-2.481321
0.227900,-2.481321
0.228000,-2.496576
0.228100,-2.535526
0.228200,-2.568634
0.228300,-2.629655
0.228400,-2.653350
0.228500,-2.704959
0.228600,-2.700415
0.228700,-2.768253
0.228800,-2.825055
0.228900,-2.854917
0.229000,-2.762735
0.229100,-2.682238
0.229200,-2.657894
0.229300,-2.839986
0.229400,-3.028894
0.229500,-3.112636
0.229600,-2.967872
0.229700,-2.762086
0.229800,-2.674123
0.229900,-2.769876
0.230000,-2.980855
0.230100,-3.047720
0.230200,-2.993839
0.230300,-2.884454
0.230400,-2.809475
0.230500,-2.804606
0.230600,-2.818239
0.230700,-2.829924
0.230800,-2.819861
0.230900,-2.803957
0.231000,-2.777016
0.231100,-2.752348
0.231200,-2.700415
0.231300,-2.567011
0.231400,-2.465741
0.231500,-2.427115
0.231600,-2.446266
0.231700,-2.417702
0.231800,-2.354733
0.231900,-2.191468
0.232000,-2.093119
0.232100,-1.875649
0.232200,-1.850980
0.232300,-1.794503
0.232400,-1.714006
0.232500,-1.597157
0.232600,-1.503352
0.232700,-1.390722
0.232800,-1.289777
0.232900,-1.215772
0.233000,-1.165462
0.233100,-1.147285
0.233200,-1.090159
0.233300,-1.136250
0.233400,-1.025567
0.233500,-1.014207
0.233600,-0.953510
0.233700,-0.926894
0.233800,-0.943123
0.233900,-0.873014
0.234000,-0.896383
0.234100,-0.728250
0.234200,-0.577319
0.234300,-0.243000
0.234400,-0.314084
0.234500,-0.467935
0.234600,-0.691897
0.234700,-0.604584
0.234800,-0.379324
0.234900,-0.233263
0.235000,-0.137836
0.235100,-0.272537
0.235200,-0.348165
0.235300,-0.483191
0.235400,-0.362771
0.235500,-0.251115
0.235600,-0.232614
0.235700,-0.183926
0.235800,-0.184251
0.235900,-0.231315
0.236000,-0.235859
0.236100,-0.236184
0.236200,-0.236508
0.236300,-0.223850
0.236400,-0.174838
0.236500,-0.174838
0.236600,-0.222227
0.236700,-0.332260
0.236800,-0.326093
0.236900,-0.413406
0.237000,-0.400747
0.237100,-0.370561
0.237200,-0.369262
0.237300,-0.383544
0.237400,-0.642560
0.237500,-0.793491
0.237600,-0.753892
0.237700,-0.564336
0.237800,-0.483840
0.237900,-0.565634
0.238000,-0.773367
0.238100,-0.941825
0.238200,-0.912288
0.238300,-0.753243
0.238400,-0.625357
0.238500,-0.641262
0.238600,-0.766551
0.238700,-0.857758
0.238800,-0.831142
0.238900,-0.794465
0.239000,-0.753243
0.239100,-0.831792
0.239200,-0.863276
0.239300,-0.895410
0.239400,-0.856460
0.239500,-0.852889
0.239600,-0.865548
0.239700,-0.909367
0.239800,-0.926894
0.239900,-0.886321
0.240000,-0.854512
0.240100,-0.863276
0.240200,-0.964870
0.240300,-1.034655
0.240400,-1.025243
0.240500,-1.012584
0.240600,-0.899954
0.240700,-0.948966
0.240800,-0.947018
0.240900,-0.943123
0.241000,-0.949290
0.241100,-0.935658
0.241200,-0.945720
0.241300,-0.939553
0.241400,-0.949939
0.241500,-0.934360
0.241600,-0.964870
0.241700,-0.955457
0.241800,-0.968116
0.241900,-0.986942
0.242000,-0.981424
0.242100,-1.004145
0.242200,-1.010312
0.242300,-1.071658
0.242400,-1.090484
0.242500,-1.276469
0.242600,-1.555935
0.242700,-1.643896
0.242800,-1.554961
0.242900,-1.385853
0.243000,-1.349825
0.243100,-1.517309
0.243200,-1.809434
0.243300,-1.991200
0.243400,-1.960689
0.243500,-1.824364
0.243600,-1.795477
0.243700,-1.864937
0.243800,-2.048976
0.243900,-2.201854
0.244000,-2.226198
0.244100,-2.228470
0.244200,-2.211592
0.244300,-2.259306
0.244400,-2.300852
0.244500,-2.339478
0.244600,-2.321950
0.244700,-2.328766
0.244800,-2.369664
0.244900,-2.436853
0.245000,-2.456003
0.245100,-2.483917
0.245200,-2.440423
0.245300,-2.480996
0.245400,-2.466714
0.245500,-2.503392
0.245600,-2.426791
0.245700,-2.289492
0.245800,-2.150895
0.245900,-2.199907
0.246000,-2.366094
0.246100,-2.491058
0.246200,-2.484891
0.246300,-2.256709
0.246400,-2.074293
0.246500,-2.072021
0.246600,-2.239831
0.246700,-2.377779
0.246800,-2.409912
0.246900,-2.302151
0.247000,-2.195363
0.247100,-2.147000
0.247200,-2.182055
0.247300,-2.203802
0.247400,-2.198284
0.247500,-2.163878
0.247600,-2.088900
0.247700,-2.034045
0.247800,-1.981138
0.247900,-1.900317
0.248000,-1.788660
0.248100,-1.678627
0.248200,-1.609491
0.248300,-1.568593
0.248400,-1.525099
0.248500,-1.358588
0.248600,-1.207658
0.248700,-0.983696
0.248800,-0.883076
0.248900,-0.856784
0.249000,-0.761033
0.249100,-0.675019
0.249200,-0.512403
0.249300,-0.388088
0.249400,-0.265396
0.249500,-0.193988
0.249600,-0.143029
0.249700,-0.109272
0.249800,-0.038189
0.249900,-0.031373
0.250000,0.014393
0.250100,0.090345
0.250200,0.094565
0.250300,0.152340
0.250400,0.140655
0.250500,0.183176
0.250600,0.196159
0.250700,0.194536
0.250800,0.393504
0.250900,0.561313
0.251000,0.826821
0.251100,0.655117
0.251200,0.463289
0.251300,0.333132
0.251400,0.482115
0.251500,0.698287
0.251600,0.824224
0.251700,0.801828
0.251800,0.681733
0.251900,0.596043
0.252000,0.615194
0.252100,0.723928
0.252200,0.876806
0.252300,0.869341
0.252400,0.843375
0.252500,0.775862
0.252600,0.713217
0.252700,0.717437
0.252800,0.686926
0.252900,0.677189
0.253000,0.625256
0.253100,0.571051
0.253200,0.473027
0.253300,0.397399
0.253400,0.295805
0.253500,0.272760
0.253600,0.152016
0.253700,0.144550
0.253800,0.127023
0.253900,0.107548
0.254000,-0.000862
0.254100,-0.273835
0.254200,-0.293959
0.254300,-0.230666
0.254400,-0.066752
0.254500,-0.020337
0.254600,-0.174838
0.254700,-0.426713
0.254800,-0.549730
0.254900,-0.504938
0.255000,-0.386141
0.255100,-0.338103
0.255200,-0.416651
0.255300,-0.555248
0.255400,-0.646780
0.255500,-0.630875
0.255600,-0.630875
0.255700,-0.631849
0.255800,-0.696766
0.255900,-0.772718
0.256000,-0.793166
0.256100,-0.789596
0.256200,-0.822379
0.256300,-0.883725
0.256400,-0.924622
0.256500,-0.949615
0.256600,-0.964870
0.256700,-0.994083
0.256800,-1.098598
0.256900,-1.268355
0.257000,-1.354044
0.257100,-1.376116
0.257200,-1.380985
0.257300,-1.423830
0.257400,-1.471219
0.257500,-1.504975
0.257600,-1.556584
0.257700,-1.576708
0.257800,-1.616956
0.257900,-1.638703
0.258000,-1.669214
0.258100,-1.710436
0.258200,-1.736403
0.258300,-1.786713
0.258400,-1.813978
0.258500,-1.814627
0.258600,-1.834751
0.258700,-1.879868
0.258800,-1.901291
0.258900,-1.941863
0.259000,-1.996069
0.259100,-2.035992
0.259200,-2.264824
0.259300,-2.497874
0.259400,-2.463469
0.259500,-2.313511
0.259600,-2.129148
0.259700,-2.152518
0.259800,-2.390113
0.259900,-2.670553
0.260000,-2.736119
0.260100,-2.678018
0.260200,-2.532605
0.260300,-2.521569
0.260400,-2.656596
0.260500,-2.777341
0.260600,-2.897762
0.260700,-2.894840
0.260800,-2.908473
0.260900,-2.899060
0.261000,-2.894516
0.261100,-2.938010
0.261200,-2.969495
0.261300,-2.983452
0.261400,-2.961380
0.261500,-3.037333
0.261600,-3.053562
0.261700,-3.104522
0.261800,-3.111663
0.261900,-3.094784
0.262000,-3.103223
0.262100,-3.099328
0.262200,-3.086345
0.262300,-3.013963
0.262400,-2.841933
0.262500,-2.852644
0.262600,-2.937685
0.262700,-3.104197
0.262800,-3.205792
0.262900,-3.086994
0.263000,-2.876015
0.263100,-2.747479
0.263200,-2.801036
0.263300,-2.932168
0.263400,-3.036359
0.263500,-2.997409
0.263600,-2.857189
0.263700,-2.728653
0.263800,-2.691975
0.263900,-2.673474
0.264000,-2.667632
0.264100,-2.616672
0.264200,-2.546887
0.264300,-2.493655
0.264400,-2.407640
0.264500,-2.293387
0.264600,-2.120384
0.264700,-1.992823
0.264800,-1.933424
0.264900,-1.887009
0.265000,-1.846111
0.265100,-1.775352
0.265200,-1.608517
0.265300,-1.511467
0.265400,-1.389748
0.265500,-1.280689
0.265600,-1.218044
0.265700,-1.156374
0.265800,-1.087887
0.265900,-1.001223
0.266000,-0.895085
0.266100,-0.814264
0.266200,-0.771419
0.266300,-0.791219
0.266400,-0.760059
0.266500,-0.751944
0.266600,-0.741233
0.266700,-0.676966
0.266800,-0.680212
0.266900,-0.602637
0.267000,-0.678589
0.267100,-0.568880
0.267200,-0.706828
0.267300,-0.612050
0.267400,-0.641911
0.267500,-0.357253
0.267600,-0.210542
0.267700,-0.058313
0.267800,-0.328365
0.267900,-0.587057
0.268000,-0.547133
0.268100,-0.445539
0.268200,-0.177110
0.268300,-0.123554
0.268400,-0.247544
0.268500,-0.373482
0.268600,-0.519544
0.268700,-0.441969
0.268800,-0.334857
0.268900,-0.260852
0.269000,-0.300127
0.269100,-0.331611
0.269200,-0.392632
0.269300,-0.376728
0.269400,-0.413406
0.269500,-0.455926
0.269600,-0.465663
0.269700,-0.475401
0.269800,-0.518895
0.269900,-0.525386
0.270000,-0.631849
0.270100,-0.705205
0.270200,-0.765901
0.270300,-0.795438
0.270400,-0.781806
0.270500,-0.744154
0.270600,-0.761357
0.270700,-0.968441
0.270800,-1.149882
0.270900,-1.112555
0.271000,-0.966493
0.271100,-0.814913
0.271200,-0.834064
0.271300,-1.043744
0.271400,-1.232001
0.271500,-1.196622
0.271600,-1.073605
0.271700,-0.903524
0.271800,-0.865548
0.271900,-0.945071
0.272000,-1.036927
0.272100,-1.019400
0.272200,-1.000574
0.272300,-0.961624
0.272400,-0.985968
0.272500,-0.997328
0.272600,-1.058674
0.272700,-1.060622
0.272800,-1.055753
0.272900,-1.069710
0.273000,-1.100546
0.273100,-1.091782
0.273200,-1.065815
0.273300,-1.062894
0.273400,-1.062894
0.273500,-1.161567
0.273600,-1.268679
0.273700,-1.256994
0.273800,-1.259915
0.273900,-1.157347
0.274000,-1.242063
0.274100,-1.267381
0.274200,-1.265433
0.274300,-1.300813
0.274400,-1.322235
0.274500,-1.355667
0.274600,-1.372546
0.274700,-1.394942
0.274800,-1.404355
0.274900,-1.427075
0.275000,-1.417338
0.275100,-1.415715
0.275200,-1.403381
0.275300,-1.413767
0.275400,-1.424154
0.275500,-1.463753
0.275600,-1.494913
0.275700,-1.533214
0.275800,-1.684794
0.275900,-1.890904
0.276000,-2.079162
0.276100,-1.909081
0.276200,-1.774379
0.276300,-1.680899
0.276400,-1.819496
0.276500,-2.091172
0.276600,-2.289492
0.276700,-2.226847
0.276800,-2.062933
0.276900,-1.977892
0.277000,-2.061310
0.277100,-2.222628
0.277200,-2.387516
0.277300,-2.412834
0.277400,-2.352786
0.277500,-2.292413
0.277600,-2.328442
0.277700,-2.351487
0.277800,-2.395631
0.277900,-2.390113
0.278000,-2.368041
0.278100,-2.367392
0.278200,-2.397578
0.278300,-2.447239
0.278400,-2.440748
0.278500,-2.411211
0.278600,-2.419325
0.278700,-2.425817
0.278800,-2.483917
0.278900,-2.435230
0.279000,-2.326819
0.279100,-2.182379
0.279200,-2.263525
0.279300,-2.428414
0.279400,-2.627059
0.279500,-2.655297
0.279600,-2.485865
0.279700,-2.320976
0.279800,-2.317081
0.279900,-2.475478
0.280000,-2.675746
0.280100,-2.774420
0.280200,-2.706906
0.280300,-2.583240
0.280400,-2.491383
0.280500,-2.501769
0.280600,-2.549483
0.280700,-2.542992
0.280800,-2.492357
0.280900,-2.443020
0.281000,-2.373884
0.281100,-2.306695
0.281200,-2.191468
0.281300,-2.048651
0.281400,-1.920116
0.281500,-1.866885
0.281600,-1.837348
0.281700,-1.794503
0.281800,-1.675056
0.281900,-1.491343
0.282000,-1.408899
0.282100,-1.174226
0.282200,-1.164488
0.282300,-1.109309
0.282400,-0.997978
0.282500,-0.877558
0.282600,-0.750971
0.282700,-0.613348
0.282800,-0.538694
0.282900,-0.519868
0.283000,-0.470207
0.283100,-0.429310
0.283200,-0.371210
0.283300,-0.354007
0.283400,-0.323821
0.283500,-0.253062
0.283600,-0.312461
0.283700,-0.236833
0.283800,-0.360499
0.283900,-0.260852
0.284000,-0.361472
0.284100,-0.241702
0.284200,-0.005731
0.284300,0.093591
0.284400,0.104627
0.284500,-0.313759
0.284600,-0.397501
0.284700,-0.407563
0.284800,-0.185549
0.284900,0.043605
0.285000,-0.026504
0.285100,-0.108623
0.285200,-0.337453
0.285300,-0.321873
0.285400,-0.255010
0.285500,-0.096289
0.285600,-0.023583
0.285700,-0.119335
0.285800,-0.174513
0.285900,-0.258255
0.286000,-0.246571
0.286100,-0.281625
0.286200,-0.265396
0.286300,-0.284871
0.286400,-0.343620
0.286500,-0.364069
0.286600,-0.503964
0.286700,-0.511429
0.286800,-0.648727
0.286900,-0.657816
0.287000,-0.723381
0.287100,-0.652298
0.287200,-0.645482
0.287300,-0.732145
0.287400,-0.973959
0.287500,-1.083667
0.287600,-1.021672
0.287700,-0.839906
0.287800,-0.726302
0.287900,-0.839906
0.288000,-1.079448
0.288100,-1.233949
0.288200,-1.192402
0.288300,-1.071982
0.288400,-0.931114
0.288500,-0.980126
0.288600,-1.113204
0.288700,-1.213176
0.288800,-1.253099
0.288900,-1.241739
0.289000,-1.196297
0.289100,-1.242713
0.289200,-1.298541
0.289300,-1.362483
0.289400,-1.356966
0.289500,-1.383257
0.289600,-1.414741
0.289700,-1.427725
0.289800,-1.442331
0.289900,-1.417338
0.290000,-1.413767
0.290100,-1.448822
0.290200,-1.583524
0.290300,-1.645519
0.290400,-1.639352
0.290500,-1.532240
0.290600,-1.541978
0.290700,-1.593262
0.290800,-1.596183
0.290900,-1.596507
0.291000,-1.606569
0.291100,-1.632536
0.291200,-1.645844
0.291300,-1.677653
0.291400,-1.689663
0.291500,-1.724068
0.291600,-1.752956
0.291700,-1.768212
0.291800,-1.781195
0.291900,-1.799372
0.292000,-1.812030
0.292100,-1.820469
0.292200,-1.821768
0.292300,-1.882465
0.292400,-1.886684
0.292500,-2.087277
0.292600,-2.300528
0.292700,-2.340451
0.292800,-2.163229
0.292900,-1.925634
0.293000,-1.941214
0.293100,-2.056117
0.293200,-2.352136
0.293300,-2.441072
0.293400,-2.378752
0.293500,-2.191792
0.293600,-2.120384
0.293700,-2.188871
0.293800,-2.354733
0.293900,-2.453731
0.294000,-2.492681
0.294100,-2.488137
0.294200,-2.465741
0.294300,-2.471908
0.294400,-2.497550
0.294500,-2.540070
0.294600,-2.553703
0.294700,-2.566362
0.294800,-2.632577
0.294900,-2.674123
0.295000,-2.718267
0.295100,-2.709178
0.295200,-2.700415
0.295300,-2.751050
0.295400,-2.772797
0.295500,-2.794544
0.295600,-2.696195
0.295700,-2.533903
0.295800,-2.469636
0.295900,-2.558572
0.296000,-2.734171
0.296100,-2.860434
0.296200,-2.768902
0.296300,-2.555001
0.296400,-2.385244
0.296500,-2.407965
0.296600,-2.534877
0.296700,-2.669904
0.296800,-2.692300
0.296900,-2.572204
0.297000,-2.439449
0.297100,-2.392385
0.297200,-2.383946
0.297300,-2.403421
0.297400,-2.398876
0.297500,-2.350189
0.297600,-2.295984
0.297700,-2.225549
0.297800,-2.136938
0.297900,-1.971400
0.298000,-1.862990
0.298100,-1.754904
0.298200,-1.709138
0.298300,-1.687715
0.298400,-1.624097
0.298500,-1.451419
0.298600,-1.297242
0.298700,-1.218693
0.298800,-1.014531
0.298900,-0.918130
0.299000,-0.867171
0.299100,-0.746102
0.299200,-0.624384
0.299300,-0.493577
0.299400,-0.367640
0.299500,-0.297530
0.299600,-0.269616
0.299700,-0.209244
0.299800,-0.202427
0.299900,-0.157311
0.300000,-0.144327
0.300100,-0.066428
0.300200,-0.039487
0.300300,-0.034294
0.300400,0.019262
0.300500,-0.053120
0.300600,0.007577
0.300700,-0.006056
0.300800,0.204273
0.300900,0.400645
0.301000,0.547681
0.301100,0.422068
0.301200,0.124426
0.301300,0.126374
0.301400,0.310087
0.301500,0.503862
0.301600,0.643757
0.301700,0.562287
0.301800,0.445438
0.301900,0.383767
0.302000,0.434077
0.302100,0.616167
0.302200,0.746649
0.302300,0.747298
0.302400,0.730096
0.302500,0.667127
0.302600,0.678487
0.302700,0.642459
0.302800,0.643757
0.302900,0.634019
0.303000,0.628177
0.303100,0.620712
0.303200,0.658688
0.303300,0.535022
0.303400,0.460044
0.303500,0.362345
0.303600,0.370135
0.303700,0.419796
0.303800,0.420769
0.303900,0.455500
0.304000,0.254908
0.304100,0.052694
0.304200,0.007252
0.304300,0.093266
0.304400,0.238030
0.304500,0.189018
0.304600,0.000761
0.304700,-0.253711
0.304800,-0.361148
0.304900,-0.297530
0.305000,-0.192365
0.305100,-0.160232
0.305200,-0.299477
0.305300,-0.450408
0.305400,-0.504938
0.305500,-0.542589
0.305600,-0.537071
0.305700,-0.588355
0.305800,-0.666255
0.305900,-0.741558
0.306000,-0.804527
0.306100,-0.816212
0.306200,-0.867496
0.306300,-0.934360
0.306400,-0.962598
0.306500,-0.948641
0.306600,-0.949290
0.306700,-0.938579
0.306800,-1.041796
0.306900,-1.145013
0.307000,-1.195973
0.307100,-1.198245
0.307200,-1.092106
0.307300,-1.155725
0.307400,-1.203763
0.307500,-1.196297
0.307600,-1.194350
0.307700,-1.219992
0.307800,-1.260565
0.307900,-1.273548
0.308000,-1.308927
0.308100,-1.308278
0.308200,-1.318665
0.308300,-1.365405
0.308400,-1.376440
0.308500,-1.408250
0.308600,-1.393643
0.308700,-1.407276
0.308800,-1.385204
0.308900,-1.443304
0.309000,-1.436164
0.309100,-1.571515
0.309200,-1.756202
0.309300,-1.963286
0.309400,-1.871429
0.309500,-1.686417
0.309600,-1.499457
0.309700,-1.521204
0.309800,-1.800994
0.309900,-2.018140
0.310000,-2.013596
0.310100,-1.866236
0.310200,-1.711734
0.310300,-1.706216
0.310400,-1.809434
0.310500,-1.988603
0.310600,-2.023334
0.310700,-2.020737
0.310800,-1.974322
0.310900,-1.981787
0.311000,-2.009377
0.311100,-2.042809
0.311200,-2.038589
0.311300,-2.074942
0.311400,-2.075916
0.311500,-2.182704
0.311600,-2.224900
0.311700,-2.288194
0.311800,-2.263850
0.311900,-2.320652
0.312000,-2.378103
0.312100,-2.446266
0.312200,-2.467039
0.312300,-2.416079
0.312400,-2.294036
0.312500,-2.339478
0.312600,-2.502094
0.312700,-2.699441
0.312800,-2.790000
0.312900,-2.635822
0.313000,-2.471583
0.313100,-2.430036
0.313200,-2.568634
0.313300,-2.786105
0.313400,-2.909771
0.313500,-2.887700
0.313600,-2.768577
0.313700,-2.702038
0.313800,-2.737093
0.313900,-2.790974
0.314000,-2.820511
0.314100,-2.782210
0.314200,-2.732548
0.314300,-2.691002
0.314400,-2.656596
0.314500,-2.596548
0.314600,-2.473206
0.314700,-2.346943
0.314800,-2.335907
0.314900,-2.287544
0.315000,-2.262551
0.315100,-2.184002
0.315200,-2.040212
0.315300,-1.984059
0.315400,-1.748737
0.315500,-1.756202
0.315600,-1.725691
0.315700,-1.672460
0.315800,-1.579305
0.315900,-1.505300
0.316000,-1.413767
0.316100,-1.337166
0.316200,-1.337166
0.316300,-1.309252
0.316400,-1.307304
0.316500,-1.259915
0.316600,-1.262837
0.316700,-1.195973
0.316800,-1.197920
0.316900,-1.191429
0.317000,-1.182989
0.317100,-1.233949
0.317200,-1.188507
0.317300,-1.210904
0.317400,-1.135276
0.317500,-0.928517
0.317600,-0.709424
0.317700,-0.608479
0.317800,-0.954808
0.317900,-1.016803
0.318000,-1.067438
0.318100,-0.783104
0.318200,-0.613673
0.318300,-0.512078
0.318400,-0.569529
0.318500,-0.716240
0.318600,-0.676641
0.318700,-0.566608
0.318800,-0.423468
0.318900,-0.331611
0.319000,-0.392957
0.319100,-0.376728
0.319200,-0.384842
0.319300,-0.345568
0.319400,-0.332585
0.319500,-0.304346
0.319600,-0.300776
0.319700,-0.276757
0.319800,-0.273835
0.319900,-0.301425
0.320000,-0.343296
0.320100,-0.375105
0.320200,-0.378351
0.320300,-0.373807
0.320400,-0.331611
0.320500,-0.329339
0.320600,-0.379649
0.320700,-0.568231
0.320800,-0.725004
0.320900,-0.677615
0.321000,-0.524413
0.321100,-0.372833
0.321200,-0.469234
0.321300,-0.643534
0.321400,-0.805825
0.321500,-0.777262
0.321600,-0.678589
0.321700,-0.545186
0.321800,-0.566608
0.321900,-0.644183
0.322000,-0.712670
0.322100,-0.671124
0.322200,-0.677940
0.322300,-0.641262
0.322400,-0.691248
0.322500,-0.726952
0.322600,-0.765577
0.322700,-0.794465
0.322800,-0.820107
0.322900,-0.855811
0.323000,-0.868469
0.323100,-0.872364
0.323200,-0.832116
0.323300,-0.836985
0.323400,-0.855162
0.323500,-1.000899
0.323600,-1.096326
0.323700,-1.084966
0.323800,-1.062894
0.323900,-1.016803
0.324000,-1.081395
0.324100,-1.090484
0.324200,-1.074579
0.324300,-1.081720
0.324400,-1.072956
0.324500,-1.096975
0.324600,-1.097949
0.324700,-1.082369
0.324800,-1.113853
0.324900,-1.113529
0.325000,-1.141768
0.325100,-1.158321
0.325200,-1.180393
0.325300,-1.189806
0.325400,-1.209605
0.325500,-1.285882
0.325600,-1.304059
0.325700,-1.392670
0.325800,-1.547171
0.325900,-1.851954
0.326000,-1.932126
0.326100,-1.835400
0.326200,-1.627018
0.326300,-1.614359
0.326400,-1.798073
0.326500,-2.107076
0.326600,-2.265797
0.326700,-2.257034
0.326800,-2.120059
0.326900,-2.044107
0.327000,-2.167124
0.327100,-2.352136
0.327200,-2.437826
0.327300,-2.499497
0.327400,-2.506638
0.327500,-2.511832
0.327600,-2.544614
0.327700,-2.556299
0.327800,-2.602390
0.327900,-2.608557
0.328000,-2.622190
0.328100,-2.653350
0.328200,-2.704959
0.328300,-2.748778
0.328400,-2.726706
0.328500,-2.723460
0.328600,-2.744558
0.328700,-2.825704
0.328800,-2.854917
0.328900,-2.864979
0.329000,-2.719890
0.329100,-2.661789
0.329200,-2.755594
0.329300,-2.919509
0.329400,-3.107768
0.329500,-3.063624
0.329600,-2.904253
0.329700,-2.782534
0.329800,-2.832196
0.329900,-3.020779
0.330000,-3.202222
0.330100,-3.252532
0.330200,-3.165868
0.330300,-3.078555
0.330400,-3.046097
0.330500,-3.076608
0.330600,-3.082450
0.330700,-3.027920
0.330800,-2.977934
0.330900,-2.933466
0.331000,-2.871795
0.331100,-2.795193
0.331200,-2.653675
0.331300,-2.497550
0.331400,-2.381998
0.331500,-2.334284
0.331600,-2.266771
0.331700,-2.198284
0.331800,-2.028527
0.331900,-1.869481
0.332000,-1.738025
0.332100,-1.573137
0.332200,-1.534837
0.332300,-1.472841
0.332400,-1.363457
0.332500,-1.245309
0.332600,-1.127161
0.332700,-1.041147
0.332800,-1.009338
0.332900,-0.974608
0.333000,-0.977529
0.333100,-0.940851
0.333200,-0.983047
0.333300,-0.982398
0.333400,-0.957405
0.333500,-0.994732
0.333600,-0.949290
0.333700,-0.963896
0.333800,-1.026541
0.333900,-0.966818
0.334000,-1.039200
0.334100,-0.828546
0.334200,-0.701959
0.334300,-0.365043
0.334400,-0.609778
0.334500,-0.810369
0.334600,-0.888918
0.334700,-0.732470
0.334800,-0.503639
0.334900,-0.368938
0.335000,-0.320251
0.335100,-0.466312
0.335200,-0.584136
0.335300,-0.487410
0.335400,-0.364718
0.335500,-0.191392
0.335600,-0.194962
0.335700,-0.184575
0.335800,-0.198532
0.335900,-0.166723
0.336000,-0.126475
0.336100,-0.092394
0.336200,-0.062533
0.336300,-0.064805
0.336400,-0.071621
0.336500,-0.045330
0.336600,-0.088499
0.336700,-0.140757
0.336800,-0.223201
0.336900,-0.269616
0.337000,-0.227420
0.337100,-0.186523
0.337200,-0.152442
0.337300,-0.272212
0.337400,-0.512078
0.337500,-0.537396
0.337600,-0.487086
0.337700,-0.246571
0.337800,-0.271563
0.337900,-0.379649
0.338000,-0.645806
0.338100,-0.738637
0.338200,-0.669501
0.338300,-0.499420
0.338400,-0.403993
0.338500,-0.529281
0.338600,-0.663334
0.338700,-0.729873
0.338800,-0.711372
0.338900,-0.679887
0.339000,-0.671124
0.339100,-0.737987
0.339200,-0.818159
0.339300,-0.880479
0.339400,-0.807123
0.339500,-0.800956
0.339600,-0.842178
0.339700,-0.873663
0.339800,-0.886971
0.339900,-0.871391
0.340000,-0.846073
0.340100,-0.897357
0.340200,-1.012584
0.340300,-1.060947
0.340400,-1.076526
0.340500,-1.065166
0.340600,-1.012584
0.340700,-1.049262
0.340800,-1.041472
0.340900,-1.064517
0.341000,-1.071009
0.341100,-1.090808
0.341200,-1.087238
0.341300,-1.123266
0.341400,-1.138197
0.341500,-1.186235
0.341600,-1.228106
0.341700,-1.253748
0.341800,-1.268679
0.341900,-1.324832
0.342000,-1.364106
0.342100,-1.393968
0.342200,-1.459534
0.342300,-1.539705
0.342400,-1.622799
0.342500,-1.829558
0.342600,-2.073644
0.342700,-2.061310
0.342800,-1.896746
0.342900,-1.724718
0.343000,-1.802942
0.343100,-2.041186
0.343200,-2.280728
0.343300,-2.332986
0.343400,-2.224575
0.343500,-2.060661
0.343600,-2.045081
0.343700,-2.177511
0.343800,-2.302800
0.343900,-2.385569
0.344000,-2.348241
0.344100,-2.296633
0.344200,-2.258981
0.344300,-2.258981
0.344400,-2.273912
0.344500,-2.263850
0.344600,-2.228795
0.344700,-2.192117
0.344800,-2.185301
0.344900,-2.196986
0.345000,-2.191792
0.345100,-2.118437
0.345200,-2.072995
0.345300,-2.071047
0.345400,-2.078837
0.345500,-2.068126
0.345600,-1.971725
0.345700,-1.749710
0.345800,-1.662398
0.345900,-1.753605
0.346000,-1.916221
0.346100,-2.002560
0.346200,-1.879544
0.346300,-1.638379
0.346400,-1.489720
0.346500,-1.545548
0.346600,-1.733806
0.346700,-1.889930
0.346800,-1.839295
0.346900,-1.671811
0.347000,-1.505624
0.347100,-1.447849
0.347200,-1.438436
0.347300,-1.469596
0.347400,-1.427400
0.347500,-1.339763
0.347600,-1.224536
0.347700,-1.118398
0.347800,-1.022321
0.347900,-0.894761
0.348000,-0.759734
0.348100,-0.665281
0.348200,-0.600365
0.348300,-0.529606
0.348400,-0.463716
0.348500,-0.263124
0.348600,-0.146599
0.348700,0.082555
0.348800,0.157534
0.348900,0.222775
0.349000,0.299700
0.349100,0.395452
0.349200,0.511977
0.349300,0.646678
0.349400,0.730096
0.349500,0.767747
0.349600,0.755737
0.349700,0.809618
0.349800,0.807021
0.349900,0.802477
0.350000,0.790468
0.350100,0.829742
0.350200,0.769695
0.350300,0.762878
0.350400,0.682707
0.350500,0.707699
0.350600,0.581113
0.350700,0.645704
0.350800,0.726201
0.350900,1.041694
0.351000,0.906019
0.351100,0.760606
0.351200,0.412330
0.351300,0.421094
0.351400,0.570726
0.351500,0.665179
0.351600,0.748272
0.351700,0.632396
0.351800,0.486659
0.351900,0.367863
0.352000,0.390583
0.352100,0.517170
0.352200,0.537619
0.352300,0.498020
0.352400,0.347738
0.352500,0.312684
0.352600,0.211414
0.352700,0.174087
0.352800,0.135462
0.352900,0.088398
0.353000,0.030947
0.353100,-0.015468
0.353200,-0.095640
0.353300,-0.244298
0.353400,-0.334208
0.353500,-0.455601
0.353600,-0.510131
0.353700,-0.484814
0.353800,-0.561415
0.353900,-0.608155
0.354000,-0.807773
0.354100,-0.995381
0.354200,-0.987916
0.354300,-0.883725
0.354400,-0.753892
0.354500,-0.806799
0.354600,-1.032383
0.354700,-1.261863
0.354800,-1.308927
0.354900,-1.228106
0.355000,-1.085939
0.355100,-1.066789
0.355200,-1.181691
0.355300,-1.305357
0.355400,-1.321911
0.355500,-1.369300
0.355600,-1.351123
0.355700,-1.394293
0.355800,-1.416689
0.355900,-1.452068
0.356000,-1.478684
0.356100,-1.497834
0.356200,-1.545223
0.356300,-1.599753
0.356400,-1.613710
0.356500,-1.609491
0.356600,-1.604297
0.356700,-1.592288
0.356800,-1.701997
0.356900,-1.792231
0.357000,-1.803267
0.357100,-1.799047
0.357200,-1.766264
0.357300,-1.734455
0.357400,-1.756527
0.357500,-1.727314
0.357600,-1.716278
0.357700,-1.697453
0.357800,-1.702646
0.357900,-1.666617
0.358000,-1.671486
0.358100,-1.624746
0.358200,-1.637729
0.358300,-1.613386
0.358400,-1.600402
0.358500,-1.602350
0.358600,-1.593911
0.358700,-1.594884
0.358800,-1.594560
0.358900,-1.623448
0.359000,-1.648441
0.359100,-1.788985
0.359200,-2.071047
0.359300,-2.184002
0.359400,-2.117787
0.359500,-1.875324
0.359600,-1.837023
0.359700,-1.919792
0.359800,-2.256384
0.359900,-2.431335
0.360000,-2.454056
0.360100,-2.284623
0.360200,-2.211267
0.360300,-2.299229
0.360400,-2.434256
0.360500,-2.610505
0.360600,-2.654973
0.360700,-2.644911
0.360800,-2.614725
0.360900,-2.656596
0.361000,-2.683212
0.361100,-2.705608
0.361200,-2.702362
0.361300,-2.718591
0.361400,-2.751699
0.361500,-2.811422
0.361600,-2.847127
0.361700,-2.853943
0.361800,-2.839661
0.361900,-2.867251
0.362000,-2.938335
0.362100,-2.974039
0.362200,-2.969495
0.362300,-2.833169
0.362400,-2.726381
0.362500,-2.833169
0.362600,-2.965275
0.362700,-3.157104
0.362800,-3.170737
0.362900,-3.001629
0.363000,-2.829274
0.363100,-2.813370
0.363200,-2.954888
0.363300,-3.129839
0.363400,-3.190861
0.363500,-3.117830
0.363600,-2.984426
0.363700,-2.905552
0.363800,-2.908798
0.363900,-2.909447
0.364000,-2.907175
0.364100,-2.872120
0.364200,-2.829274
0.364300,-2.752673
0.364400,-2.689379
0.364500,-2.604662
0.364600,-2.468986
0.364700,-2.358304
0.364800,-2.307344
0.364900,-2.266771
0.365000,-2.236909
0.365100,-2.113243
0.365200,-1.948030
0.365300,-1.843190
0.365400,-1.638379
0.365500,-1.629290
0.365600,-1.569567
0.365700,-1.479333
0.365800,-1.361185
0.365900,-1.239791
0.366000,-1.153128
0.366100,-1.058999
0.366200,-1.034655
0.366300,-1.006741
0.366400,-1.006417
0.366500,-0.966493
0.366600,-0.967142
0.366700,-0.914885
0.366800,-0.889567
0.366900,-0.854188
0.367000,-0.873338
0.367100,-0.904498
0.367200,-0.872689
0.367300,-0.931763
0.367400,-0.782131
0.367500,-0.609453
0.367600,-0.348165
0.367700,-0.437100
0.367800,-0.708775
0.367900,-0.830493
0.368000,-0.768174
0.368100,-0.472804
0.368200,-0.341673
0.368300,-0.281625
0.368400,-0.394904
0.368500,-0.518570
0.368600,-0.534475
0.368700,-0.385492
0.368800,-0.225797
0.368900,-0.148547
0.369000,-0.186847
0.369100,-0.130695
0.369200,-0.150819
0.369300,-0.142380
0.369400,-0.155038
0.369500,-0.154389
0.369600,-0.164127
0.369700,-0.131019
0.369800,-0.096938
0.369900,-0.106676
0.370000,-0.172566
0.370100,-0.235535
0.370200,-0.254360
0.370300,-0.288766
0.370400,-0.160232
0.370500,-0.222551
0.370600,-0.270590
0.370700,-0.531878
0.370800,-0.602637
0.370900,-0.511105
0.371000,-0.352709
0.371100,-0.260528
0.371200,-0.376728
0.371300,-0.612050
0.371400,-0.775639
0.371500,-0.723706
0.371600,-0.594522
0.371700,-0.458522
0.371800,-0.517272
0.371900,-0.650350
0.372000,-0.761033
0.372100,-0.742856
0.372200,-0.767200
0.372300,-0.723706
0.372400,-0.786026
0.372500,-0.861329
0.372600,-0.919753
0.372700,-0.890866
0.372800,-0.905472
0.372900,-0.960975
0.373000,-1.021672
0.373100,-1.009987
0.373200,-1.017453
0.373300,-1.009663
0.373400,-1.037252
0.373500,-1.199868
0.373600,-1.268355
0.373700,-1.281987
0.373800,-1.287505
0.373900,-1.238168
0.374000,-1.308927
0.374100,-1.300164
0.374200,-1.333271
0.374300,-1.333920
0.374400,-1.354693
0.374500,-1.381958
0.374600,-1.396889
0.374700,-1.421557
0.374800,-1.429347
0.374900,-1.458560
0.375000,-1.479009
0.375100,-1.514063
0.375200,-1.504651
0.375300,-1.518608
0.375400,-1.523476
0.375500,-1.541328
0.375600,-1.577682
0.375700,-1.608842
0.375800,-1.815276
0.375900,-2.042484
0.376000,-2.104804
0.376100,-1.914274
0.376200,-1.657529
0.376300,-1.663371
0.376400,-1.805214
0.376500,-2.105129
0.376600,-2.174589
0.376700,-2.111296
0.376800,-1.912002
0.376900,-1.855524
0.377000,-1.907458
0.377100,-2.067152
0.377200,-2.161606
0.377300,-2.153167
0.377400,-2.111620
0.377500,-2.070398
0.377600,-2.061310
0.377700,-2.084680
0.377800,-2.086952
0.377900,-2.091172
0.378000,-2.086303
0.378100,-2.092145
0.378200,-2.161606
0.378300,-2.217110
0.378400,-2.162255
0.378500,-2.141482
0.378600,-2.146351
0.378700,-2.180432
0.378800,-2.189520
0.378900,-2.114542
0.379000,-1.917520
0.379100,-1.867859
0.379200,-1.934723
0.379300,-2.101883
0.379400,-2.224575
0.379500,-2.136289
0.379600,-1.932775
0.379700,-1.801644
0.379800,-1.816899
0.379900,-1.973997
0.380000,-2.145377
0.380100,-2.154465
0.380200,-2.053520
0.380300,-1.933424
0.380400,-1.884737
0.380500,-1.908756
0.380600,-1.955820
0.380700,-1.959066
0.380800,-1.924336
0.380900,-1.917844
0.381000,-1.874675
0.381100,-1.841892
0.381200,-1.751982
0.381300,-1.645844
0.381400,-1.584498
0.381500,-1.580603
0.381600,-1.562102
0.381700,-1.571515
0.381800,-1.441682
0.381900,-1.353395
0.382000,-1.158970
0.382100,-1.106388
0.382200,-1.101844
0.382300,-1.069710
0.382400,-1.009013
0.382500,-0.918780
0.382600,-0.820107
0.382700,-0.757462
0.382800,-0.716240
0.382900,-0.720460
0.383000,-0.741882
0.383100,-0.709424
0.383200,-0.762331
0.383300,-0.689625
0.383400,-0.716890
0.383500,-0.687677
0.383600,-0.742532
0.383700,-0.718837
0.383800,-0.836985
0.383900,-0.848670
0.384000,-0.892488
0.384100,-0.698713
0.384200,-0.490656
0.384300,-0.299153
0.384400,-0.573100
0.384500,-0.776288
0.384600,-0.947992
0.384700,-0.721434
0.384800,-0.564012
0.384900,-0.387439
0.385000,-0.425740
0.385100,-0.577644
0.385200,-0.650026
0.385300,-0.623735
0.385400,-0.470207
0.385500,-0.405291
0.385600,-0.341998
0.385700,-0.374131
0.385800,-0.393931
0.385900,-0.379324
0.386000,-0.396203
0.386100,-0.388737
0.386200,-0.373807
0.386300,-0.345893
0.386400,-0.370885
0.386500,-0.304995
0.386600,-0.438074
0.386700,-0.433854
0.386800,-0.475725
0.386900,-0.497797
0.387000,-0.426713
0.387100,-0.428985
0.387200,-0.401721
0.387300,-0.608804
0.387400,-0.737987
0.387500,-0.728575
0.387600,-0.609453
0.387700,-0.413081
0.387800,-0.438723
0.387900,-0.550704
0.388000,-0.748049
0.388100,-0.774341
0.388200,-0.717214
0.388300,-0.544212
0.388400,-0.477348
0.388500,-0.584460
0.388600,-0.700985
0.388700,-0.697415
0.388800,-0.722083
0.388900,-0.660412
0.389000,-0.702933
0.389100,-0.710073
0.389200,-0.740909
0.389300,-0.740909
0.389400,-0.717539
0.389500,-0.755190
0.389600,-0.785052
0.389700,-0.797386
0.389800,-0.787973
0.389900,-0.765901
0.390000,-0.779209
0.390100,-0.857758
0.390200,-0.955133
0.390300,-0.991811
0.390400,-1.003820
0.390500,-1.023620
0.390600,-0.980126
0.390700,-1.015505
0.390800,-1.017453
0.390900,-1.023295
0.391000,-1.044068
0.391100,-1.051858
0.391200,-1.024269
0.391300,-1.032059
0.391400,-1.019725
0.391500,-1.040498
0.391600,-1.030111
0.391700,-1.040822
0.391800,-1.034980
0.391900,-1.031085
0.392000,-1.054130
0.392100,-1.076526
0.392200,-1.132679
0.392300,-1.147610
0.392400,-1.266407
0.392500,-1.497510
0.392600,-1.679925
0.392700,-1.646169
0.392800,-1.436164
0.392900,-1.294321
0.393000,-1.375467
0.393100,-1.642274
0.393200,-1.849357
0.393300,-1.875973
0.393400,-1.716603
0.393500,-1.619877
0.393600,-1.620202
0.393700,-1.780546
0.393800,-1.909081
0.393900,-2.000938
0.394000,-2.010026
0.394100,-1.986007
0.394200,-2.010350
0.394300,-2.042809
0.394400,-2.084355
0.394500,-2.123305
0.394600,-2.131744
0.394700,-2.187897
0.394800,-2.236585
0.394900,-2.284299
0.395000,-2.336556
0.395100,-2.322275
0.395200,-2.335907
0.395300,-2.392709
0.395400,-2.452108
0.395500,-2.450161
0.395600,-2.363497
0.395700,-2.207697
0.395800,-2.227821
0.395900,-2.377779
0.396000,-2.594276
0.396100,-2.674123
0.396200,-2.519946
0.396300,-2.311239
0.396400,-2.243076
0.396500,-2.359277
0.396600,-2.537474
0.396700,-2.636796
0.396800,-2.569607
0.396900,-2.426791
0.397000,-2.341425
0.397100,-2.332986
0.397200,-2.354733
0.397300,-2.332986
0.397400,-2.266771
0.397500,-2.219382
0.397600,-2.156413
0.397700,-2.125902
0.397800,-2.078837
0.397900,-1.964260
0.398000,-1.867859
0.398100,-1.825014
0.398200,-1.829558
0.398300,-1.805539
0.398400,-1.740622
0.398500,-1.616956
0.398600,-1.533214
0.398700,-1.361834
0.398800,-1.343982
0.398900,-1.300488
0.399000,-1.236870
0.399100,-1.164488
0.399200,-1.098598
0.399300,-0.999276
0.399400,-0.958379
0.399500,-0.960975
0.399600,-0.979801
0.399700,-0.984345
0.399800,-0.979801
0.399900,-1.001548
0.400000,-0.998302
0.400100,-1.007066
0.400200,-0.979476
0.400300,-1.056727
0.400400,-1.055753
0.400500,-1.097624
0.400600,-1.132355
0.400700,-1.058350
0.400800,-0.938904
0.400900,-0.613673
0.401000,-0.765901
0.401100,-0.904823
0.401200,-1.256994
0.401300,-1.145987
0.401400,-0.999276
0.401500,-0.817185
0.401600,-0.792193
0.401700,-0.885348
0.401800,-1.009663
0.401900,-1.059648
0.402000,-0.953510
0.402100,-0.839582
0.402200,-0.744804
0.402300,-0.818484
0.402400,-0.820756
0.402500,-0.870417
0.402600,-0.908718
0.402700,-0.913911
0.402800,-0.897033
0.402900,-0.929166
0.403000,-0.905796
0.403100,-0.930140
0.403200,-0.958703
0.403300,-1.046990
0.403400,-1.031410
0.403500,-1.114503
0.403600,-1.078474
0.403700,-1.024918
0.403800,-0.996679
0.403900,-1.014531
0.404000,-1.210579
0.404100,-1.293023
0.404200,-1.224536
0.404300,-1.051209
0.404400,-0.858732
0.404500,-0.925920
0.404600,-1.079448
0.404700,-1.238493
0.404800,-1.189157
0.404900,-1.020698
0.405000,-0.851916
0.405100,-0.816212
0.405200,-0.900603
0.405300,-0.976880
0.405400,-0.947343
0.405500,-0.887944
0.405600,-0.788947
0.405700,-0.808746
0.405800,-0.821730
0.405900,-0.819457
0.406000,-0.817185
0.406100,-0.763305
0.406200,-0.757787
0.406300,-0.755190
0.406400,-0.686054
0.406500,-0.661711
0.406600,-0.606207
0.406700,-0.610102
0.406800,-0.696441
0.406900,-0.733443
0.407000,-0.757138
0.407100,-0.662684
0.407200,-0.626980
0.407300,-0.660412
0.407400,-0.647754
0.407500,-0.636393
0.407600,-0.627305
0.407700,-0.620813
0.407800,-0.613348
0.407900,-0.602637
0.408000,-0.606207
0.408100,-0.629252
0.408200,-0.645482
0.408300,-0.659114
0.408400,-0.639315
0.408500,-0.664956
0.408600,-0.667229
0.408700,-0.684756
0.408800,-0.717214
0.408900,-0.735066
0.409000,-0.790245
0.409100,-0.907419
0.409200,-1.211228
0.409300,-1.279390
0.409400,-1.180717
0.409500,-1.003820
0.409600,-0.939553
0.409700,-1.138522
0.409800,-1.392670
0.409900,-1.617605
0.410000,-1.589042
0.410100,-1.522178
0.410200,-1.491667
0.410300,-1.627992
0.410400,-1.767238
0.410500,-1.947706
0.410600,-2.022360
0.410700,-2.038265
0.410800,-2.040212
0.410900,-2.066503
0.411000,-2.112919
0.411100,-2.154790
0.411200,-2.204451
0.411300,-2.218733
0.411400,-2.222628
0.411500,-2.267745
0.411600,-2.276184
0.411700,-2.334284
0.411800,-2.322599
0.411900,-2.347917
0.412000,-2.404070
0.412100,-2.426141
0.412200,-2.410561
0.412300,-2.283974
0.412400,-2.184002
0.412500,-2.295334
0.412600,-2.481970
0.412700,-2.669255
0.412800,-2.657245
0.412900,-2.475154
0.413000,-2.367392
0.413100,-2.373559
0.413200,-2.538772
0.413300,-2.730926
0.413400,-2.789026
0.413500,-2.727030
0.413600,-2.641665
0.413700,-2.593951
0.413800,-2.596223
0.413900,-2.632577
0.414000,-2.659192
0.414100,-2.641665
0.414200,-2.616023
0.414300,-2.578371
0.414400,-2.517025
0.414500,-2.415755
0.414600,-2.324222
0.414700,-2.268719
0.414800,-2.254112
0.414900,-2.231067
0.415000,-2.215487
0.415100,-2.080460
0.415200,-1.973673
0.415300,-1.898694
0.415400,-1.732508
0.415500,-1.716603
0.415600,-1.669863
0.415700,-1.590989
0.415800,-1.496861
0.415900,-1.368001
0.416000,-1.273872
0.416100,-1.227457
0.416200,-1.215448
0.416300,-1.190455
0.416400,-1.135276
0.416500,-1.148259
0.416600,-1.103467
0.416700,-1.055104
0.416800,-1.039200
0.416900,-0.986942
0.417000,-0.998302
0.417100,-0.934684
0.417200,-0.997004
0.417300,-0.889892
0.417400,-0.715267
0.417500,-0.421196
0.417600,-0.221902
0.417700,-0.305320
0.417800,-0.574074
0.417900,-0.627954
0.418000,-0.528957
0.418100,-0.246246
0.418200,-0.161530
0.418300,-0.044356
0.418400,-0.210867
0.418500,-0.281301
0.418600,-0.275458
0.418700,-0.160881
0.418800,-0.065129
0.418900,0.006928
0.419000,0.006603
0.419100,-0.037215
0.419200,-0.020337
0.419300,-0.045330
0.419400,-0.061884
0.419500,-0.069024
0.419600,-0.080385
0.419700,-0.110246
0.419800,-0.134590
0.419900,-0.207945
0.420000,-0.324795
0.420100,-0.398150
0.420200,-0.462742
0.420300,-0.433530
0.420400,-0.460470
0.420500,-0.477997
0.420600,-0.605558
0.420700,-0.871715
0.420800,-0.909691
0.420900,-0.859381
0.421000,-0.713968
0.421100,-0.709749
0.421200,-0.916832
0.421300,-1.166111
0.421400,-1.303085
0.421500,-1.253748
0.421600,-1.144364
0.421700,-1.118722
0.421800,-1.257968
0.421900,-1.392670
0.422000,-1.446550
0.422100,-1.462779
0.422200,-1.459534
0.422300,-1.463104
0.422400,-1.509195
0.422500,-1.559830
0.422600,-1.570216
0.422700,-1.552689
0.422800,-1.566970
0.422900,-1.619877
0.423000,-1.631562
0.423100,-1.590665
0.423200,-1.545548
0.423300,-1.540030
0.423400,-1.563075
0.423500,-1.682197
0.423600,-1.716603
0.423700,-1.709787
0.423800,-1.670512
0.423900,-1.591639
0.424000,-1.604947
0.424100,-1.565023
0.424200,-1.551715
0.424300,-1.532889
0.424400,-1.505624
0.424500,-1.463429
0.424600,-1.416364
0.424700,-1.397538
0.424800,-1.345281
0.424900,-1.285557
0.425000,-1.224536
0.425100,-1.169682
0.425200,-1.114503
0.425300,-1.070035
0.425400,-0.997004
0.425500,-0.976231
0.425600,-0.912288
0.425700,-0.961949
0.425800,-1.057376
0.425900,-1.275171
0.426000,-1.124889
0.426100,-0.941825
0.426200,-0.675343
0.426300,-0.692546
0.426400,-0.899954
0.426500,-1.048288
0.426600,-1.045691
0.426700,-0.842178
0.426800,-0.647429
0.426900,-0.564336
0.427000,-0.651649
0.427100,-0.752594
0.427200,-0.777911
0.427300,-0.695143
0.427400,-0.576995
0.427500,-0.540317
0.427600,-0.519544
0.427700,-0.530255
0.427800,-0.520193
0.427900,-0.502990
0.428000,-0.484489
0.428100,-0.520193
0.428200,-0.577644
0.428300,-0.610102
0.428400,-0.648403
0.428500,-0.645482
0.428600,-0.725653
0.428700,-0.807123
0.428800,-0.842827
0.428900,-0.778236
0.429000,-0.626980
0.429100,-0.637367
0.429200,-0.770121
0.429300,-0.991486
0.429400,-1.123591
0.429500,-1.049262
0.429600,-0.917806
0.429700,-0.854188
0.429800,-0.999601
0.429900,-1.256994
0.430000,-1.482254
0.430100,-1.548794
0.430200,-1.513739
0.430300,-1.511791
0.430400,-1.589367
0.430500,-1.741920
0.430600,-1.861367
0.430700,-1.959715
0.430800,-2.024632
0.430900,-2.079162
0.431000,-2.160957
0.431100,-2.214189
0.431200,-2.212241
0.431300,-2.194389
0.431400,-2.236585
0.431500,-2.314485
0.431600,-2.389139
0.431700,-2.408939
0.431800,-2.321301
0.431900,-2.294036
0.432000,-2.147649
0.432100,-2.206399
0.432200,-2.233664
0.432300,-2.215811
0.432400,-2.173940
0.432500,-2.104479
0.432600,-2.016517
0.432700,-1.989902
0.432800,-1.994446
0.432900,-2.025606
0.433000,-2.019763
0.433100,-2.000613
0.433200,-2.054494
0.433300,-2.009377
0.433400,-1.976918
0.433500,-1.986331
0.433600,-1.902589
0.433700,-1.957768
0.433800,-1.865262
0.433900,-1.953224
0.434000,-1.875649
0.434100,-1.690961
0.434200,-1.466674
0.434300,-1.349825
0.434400,-1.673758
0.434500,-1.816250
0.434600,-1.951601
0.434700,-1.646169
0.434800,-1.517958
0.434900,-1.368651
0.435000,-1.436813
0.435100,-1.608192
0.435200,-1.639352
0.435300,-1.565672
0.435400,-1.390398
0.435500,-1.293672
0.435600,-1.251476
0.435700,-1.271600
0.435800,-1.337166
0.435900,-1.291075
0.436000,-1.287180
0.436100,-1.268030
0.436200,-1.262188
0.436300,-1.251476
0.436400,-1.300488
0.436500,-1.274197
0.436600,-1.377090
0.436700,-1.363782
0.436800,-1.437462
0.436900,-1.450121
0.437000,-1.429672
0.437100,-1.403381
0.437200,-1.426102
0.437300,-1.642274
0.437400,-1.766589
0.437500,-1.744517
0.437600,-1.550417
0.437700,-1.356966
0.437800,-1.377739
0.437900,-1.527696
0.438000,-1.751982
0.438100,-1.743868
0.438200,-1.598455
0.438300,-1.398512
0.438400,-1.333596
0.438500,-1.422856
0.438600,-1.548145
0.438700,-1.556259
0.438800,-1.546522
0.438900,-1.481281
0.439000,-1.458560
0.439100,-1.468297
0.439200,-1.510493
0.439300,-1.492316
0.439400,-1.475763
0.439500,-1.464402
0.439600,-1.483877
0.439700,-1.477061
0.439800,-1.439085
0.439900,-1.411820
0.440000,-1.358264
0.440100,-1.416364
0.440200,-1.461806
0.440300,-1.432269
0.440400,-1.396565
0.440500,-1.275495
0.440600,-1.271600
0.440700,-1.251476
0.440800,-1.200517
0.440900,-1.160269
0.441000,-1.115801
0.441100,-1.085290
0.441200,-1.058674
0.441300,-1.026216
0.441400,-1.011610
0.441500,-0.986293
0.441600,-0.965519
0.441700,-0.945071
0.441800,-0.940202
0.441900,-0.923973
0.442000,-0.940202
0.442100,-0.951887
0.442200,-1.006092
0.442300,-1.059973
0.442400,-1.152154
0.442500,-1.452393
0.442600,-1.601701
0.442700,-1.553013
0.442800,-1.372221
0.442900,-1.355018
0.443000,-1.523152
0.443100,-1.864613
0.443200,-2.109673
0.443300,-2.134666
0.443400,-2.044432
0.443500,-1.937644
0.443600,-2.017167
0.443700,-2.212890
0.443800,-2.398552
0.443900,-2.496901
0.444000,-2.525464
0.444100,-2.548185
0.444200,-2.583564
0.444300,-2.660815
0.444400,-2.737742
0.444500,-2.773771
0.444600,-2.811098
0.444700,-2.876664
0.444800,-2.969819
0.444900,-3.046746
0.445000,-3.081801
0.445100,-3.040254
0.445200,-3.100627
0.445300,-3.149964
0.445400,-3.237601
0.445500,-3.227215
0.445600,-3.117830
0.445700,-3.004225
0.445800,-3.079853
0.445900,-3.266489
0.446000,-3.498243
0.446100,-3.529403
0.446200,-3.408982
0.446300,-3.227215
0.446400,-3.202546
0.446500,-3.362242
0.446600,-3.562511
0.446700,-3.653719
0.446800,-3.588153
0.446900,-3.446634
0.447000,-3.328161
0.447100,-3.278174
0.447200,-3.285965
0.447300,-3.278499
0.447400,-3.228838
0.447500,-3.133410
0.447600,-3.023376
0.447700,-2.912693
0.447800,-2.747155
0.447900,-2.598171
0.448000,-2.507287
0.448100,-2.473531
0.448200,-2.430036
0.448300,-2.381674
0.448400,-2.251840
0.448500,-2.063257
0.448600,-1.967830
0.448700,-1.761071
0.448800,-1.686417
0.448900,-1.600402
0.449000,-1.474789
0.449100,-1.334894
0.449200,-1.189481
0.449300,-1.023620
0.449400,-0.942474
0.449500,-0.834388
0.449600,-0.805825
0.449700,-0.726952
0.449800,-0.686379
0.449900,-0.640288
0.450000,-0.530580
0.450100,-0.500069
0.450200,-0.426713
0.450300,-0.359850
0.450400,-0.386141
0.450500,-0.286170
0.450600,-0.371535
0.450700,-0.130695
0.450800,0.053668
0.450900,0.363318
0.451000,0.322746
0.451100,0.077362
0.451200,-0.014170
0.451300,0.082880
0.451400,0.418822
0.451500,0.545409
0.451600,0.638564
0.451700,0.591175
0.451800,0.421094
0.451900,0.469781
0.452000,0.547032
0.452100,0.763527
0.452200,0.764826
0.452300,0.803126
0.452400,0.736912
0.452500,0.719060
0.452600,0.700883
0.452700,0.675890
0.452800,0.682057
0.452900,0.657389
0.453000,0.651222
0.453100,0.680435
0.453200,0.543461
0.453300,0.505810
0.453400,0.409084
0.453500,0.396101
0.453600,0.337352
0.453700,0.390583
0.453800,0.374030
0.453900,0.277304
0.454000,0.039386
0.454100,-0.055716
0.454200,-0.022285
0.454300,0.091644
0.454400,0.166947
0.454500,0.032245
0.454600,-0.214762
0.454700,-0.408537
0.454800,-0.371535
0.454900,-0.270265
0.455000,-0.177759
0.455100,-0.267668
0.455200,-0.400098
0.455300,-0.538045
0.455400,-0.589653
0.455500,-0.638990
0.455600,-0.655868
0.455700,-0.764279
0.455800,-0.839582
0.455900,-0.931438
0.456000,-0.960975
0.456100,-0.998627
0.456200,-1.089834
0.456300,-1.134302
0.456400,-1.145987
0.456500,-1.143390
0.456600,-1.141443
0.456700,-1.174550
0.456800,-1.316717
0.456900,-1.386178
0.457000,-1.384880
0.457100,-1.301462
0.457200,-1.247581
0.457300,-1.261538
0.457400,-1.236870
0.457500,-1.213176
0.457600,-1.216097
0.457700,-1.223238
0.457800,-1.205386
0.457900,-1.219992
0.458000,-1.193701
0.458100,-1.211877
0.458200,-1.204412
0.458300,-1.230054
0.458400,-1.228756
0.458500,-1.254398
0.458600,-1.273223
0.458700,-1.303409
0.458800,-1.361834
0.458900,-1.406951
0.459000,-1.528670
0.459100,-1.737376
0.459200,-2.073320
0.459300,-2.150570
0.459400,-2.036317
0.459500,-1.872078
0.459600,-1.895773
0.459700,-2.134990
0.459800,-2.458600
0.459900,-2.629980
0.460000,-2.653350
0.460100,-2.494304
0.460200,-2.498848
0.460300,-2.578696
0.460400,-2.792272
0.460500,-2.898086
0.460600,-2.940607
0.460700,-2.899709
0.460800,-2.891919
0.460900,-2.942230
0.461000,-2.979232
0.461100,-3.014937
0.461200,-3.034087
0.461300,-3.037982
0.461400,-3.087968
0.461500,-3.150937
0.461600,-3.211959
0.461700,-3.181448
0.461800,-3.194107
0.461900,-3.183720
0.462000,-3.256103
0.462100,-3.265840
0.462200,-3.223320
0.462300,-3.022077
0.462400,-2.962678
0.462500,-3.061677
0.462600,-3.229811
0.462700,-3.392753
0.462800,-3.316475
0.462900,-3.134708
0.463000,-2.988970
0.463100,-3.009094
0.463200,-3.203520
0.463300,-3.397297
0.463400,-3.434624
0.463500,-3.298623
0.463600,-3.184370
0.463700,-3.151262
0.463800,-3.158403
0.463900,-3.179825
0.464000,-3.142823
0.464100,-3.060378
0.464200,-2.975013
0.464300,-2.873093
0.464400,-2.793570
0.464500,-2.659842
0.464600,-2.498848
0.464700,-2.416729
0.464800,-2.357005
0.464900,-2.315134
0.465000,-2.273263
0.465100,-2.109024
0.465200,-2.006131
0.465300,-1.770159
0.465400,-1.736403
0.465500,-1.722770
0.465600,-1.660126
0.465700,-1.610140
0.465800,-1.510168
0.465900,-1.413118
0.466000,-1.331324
0.466100,-1.313796
0.466200,-1.304383
0.466300,-1.314445
0.466400,-1.279066
0.466500,-1.323858
0.466600,-1.249204
0.466700,-1.268679
0.466800,-1.236546
0.466900,-1.243362
0.467000,-1.206035
0.467100,-1.195973
0.467200,-1.244335
0.467300,-1.149557
0.467400,-1.018426
0.467500,-0.701310
0.467600,-0.587057
0.467700,-0.727276
0.467800,-0.995056
0.467900,-1.002846
0.468000,-0.789271
0.468100,-0.619190
0.468200,-0.399449
0.468300,-0.445539
0.468400,-0.519219
0.468500,-0.583486
0.468600,-0.528957
0.468700,-0.350761
0.468800,-0.194313
0.468900,-0.141081
0.469000,-0.127774
0.469100,-0.098237
0.469200,-0.040461
0.469300,-0.028452
0.469400,0.026403
0.469500,0.059510
0.469600,0.065352
0.469700,0.031596
0.469800,0.043605
0.469900,-0.022609
0.470000,-0.021635
0.470100,0.008875
0.470200,-0.045654
0.470300,0.073792
0.470400,0.022508
0.470500,0.120856
0.470600,-0.066752
0.470700,-0.187821
0.470800,-0.181330
0.470900,-0.049549
0.471000,0.201028
0.471100,0.183500
0.471200,0.057887
0.471300,-0.193015
0.471400,-0.256633
0.471500,-0.172890
0.471600,-0.004433
0.471700,0.058861
0.471800,-0.039163
0.471900,-0.190742
0.472000,-0.218007
0.472100,-0.225473
0.472200,-0.227096
0.472300,-0.264098
0.472400,-0.331936
0.472500,-0.416327
0.472600,-0.460794
0.472700,-0.475401
0.472800,-0.503964
0.472900,-0.580565
0.473000,-0.615620
0.473100,-0.609453
0.473200,-0.600365
0.473300,-0.605558
0.473400,-0.694493
0.473500,-0.834064
0.473600,-0.869443
0.473700,-0.904823
0.473800,-0.850617
0.473900,-0.896059
0.474000,-0.965519
0.474100,-0.982398
0.474200,-1.016803
0.474300,-1.040498
0.474400,-1.110608
0.474500,-1.120994
0.474600,-1.143390
0.474700,-1.179094
0.474800,-1.232326
0.474900,-1.260240
0.475000,-1.298865
0.475100,-1.332946
0.475200,-1.417987
0.475300,-1.464078
0.475400,-1.550092
0.475500,-1.578006
0.475600,-1.719200
0.475700,-1.862016
0.475800,-2.178484
0.475900,-2.429387
0.476000,-2.462495
0.476100,-2.258981
0.476200,-2.212566
0.476300,-2.309291
0.476400,-2.605636
0.476500,-2.861084
0.476600,-2.930869
0.476700,-2.868549
0.476800,-2.779613
0.476900,-2.807203
0.477000,-2.925027
0.477100,-3.078880
0.477200,-3.161649
0.477300,-3.175930
0.477400,-3.117830
0.477500,-3.116856
0.477600,-3.129839
0.477700,-3.161973
0.477800,-3.165219
0.477900,-3.177878
0.478000,-3.168140
0.478100,-3.204494
0.478200,-3.275253
0.478300,-3.249611
0.478400,-3.253181
0.478500,-3.228188
0.478600,-3.273630
0.478700,-3.337573
0.478800,-3.314853
0.478900,-3.271683
0.479000,-3.108092
0.479100,-3.136006
0.479200,-3.259024
0.479300,-3.444037
0.479400,-3.540764
0.479500,-3.392428
0.479600,-3.200599
0.479700,-3.119128
0.479800,-3.216828
0.479900,-3.396323
0.480000,-3.474548
0.480100,-3.407359
0.480200,-3.285315
0.480300,-3.184694
0.480400,-3.174632
0.480500,-3.197028
0.480600,-3.146069
0.480700,-3.128216
0.480800,-3.084398
0.480900,-3.023051
0.481000,-2.962354
0.481100,-2.875690
0.481200,-2.740663
0.481300,-2.608557
0.481400,-2.545588
0.481500,-2.515727
0.481600,-2.479698
0.481700,-2.384919
0.481800,-2.214513
0.481900,-2.069749
0.482000,-1.907782
0.482100,-1.864937
0.482200,-1.825663
0.482300,-1.757176
0.482400,-1.663047
0.482500,-1.534512
0.482600,-1.433892
0.482700,-1.359562
0.482800,-1.347877
0.482900,-1.329051
0.483000,-1.309901
0.483100,-1.277118
0.483200,-1.283610
0.483300,-1.276145
0.483400,-1.240116
0.483500,-1.263161
0.483600,-1.227133
0.483700,-1.270951
0.483800,-1.239467
0.483900,-1.293347
0.484000,-1.194999
0.484100,-0.990512
0.484200,-0.810369
0.484300,-0.742856
0.484400,-1.066789
0.484500,-1.212202
0.484600,-1.212202
0.484700,-0.945395
0.484800,-0.845424
0.484900,-0.731171
0.485000,-0.930465
0.485100,-1.018751
0.485200,-1.100221
0.485300,-1.001873
0.485400,-0.898331
0.485500,-0.806799
0.485600,-0.877882
0.485700,-0.890216
0.485800,-0.925920
0.485900,-0.946044
0.486000,-0.934684
0.486100,-0.952212
0.486200,-0.986293
0.486300,-0.998302
0.486400,-0.995056
0.486500,-1.071982
0.486600,-1.102818
0.486700,-1.135600
0.486800,-1.193051
0.486900,-1.247257
0.487000,-1.158646
0.487100,-1.176822
0.487200,-1.180717
0.487300,-1.482254
0.487400,-1.585472
0.487500,-1.576059
0.487600,-1.405653
0.487700,-1.334894
0.487800,-1.412145
0.487900,-1.665643
0.488000,-1.837672
0.488100,-1.824364
0.488200,-1.705892
0.488300,-1.558207
0.488400,-1.617605
0.488500,-1.704918
0.488600,-1.799696
0.488700,-1.761720
0.488800,-1.771133
0.488900,-1.728288
0.489000,-1.796775
0.489100,-1.833453
0.489200,-1.843190
0.489300,-1.817873
0.489400,-1.775677
0.489500,-1.798722
0.489600,-1.799047
0.489700,-1.785739
0.489800,-1.754579
0.489900,-1.714331
0.490000,-1.721796
0.490100,-1.835725
0.490200,-1.912326
0.490300,-1.921739
0.490400,-1.919143
0.490500,-1.826312
0.490600,-1.861691
0.490700,-1.861367
0.490800,-1.857472
0.490900,-1.870455
0.491000,-1.850980
0.491100,-1.854551
0.491200,-1.856498
0.491300,-1.845787
0.491400,-1.834426
0.491500,-1.837672
0.491600,-1.803267
0.491700,-1.809109
0.491800,-1.785739
0.491900,-1.779897
0.492000,-1.740622
0.492100,-1.745815
0.492200,-1.726340
0.492300,-1.788011
0.492400,-1.912976
0.492500,-2.194389
0.492600,-2.292738
0.492700,-2.125253
0.492800,-1.936346
0.492900,-1.849357
0.493000,-2.042484
0.493100,-2.337855
0.493200,-2.500796
0.493300,-2.456003
0.493400,-2.352136
0.493500,-2.278131
0.493600,-2.396604
0.493700,-2.591030
0.493800,-2.757866
0.493900,-2.804931
0.494000,-2.789026
0.494100,-2.744558
0.494200,-2.767279
0.494300,-2.807527
0.494400,-2.857838
0.494500,-2.861733
0.494600,-2.823756
0.494700,-2.826678
0.494800,-2.864005
0.494900,-2.929246
0.495000,-2.898411
0.495100,-2.889322
0.495200,-2.879260
0.495300,-2.929571
0.495400,-2.971442
0.495500,-2.924702
0.495600,-2.756568
0.495700,-2.702362
0.495800,-2.767928
0.495900,-2.955538
0.496000,-3.120751
0.496100,-3.066545
0.496200,-2.874067
0.496300,-2.713723
0.496400,-2.716319
0.496500,-2.894191
0.496600,-3.104846
0.496700,-3.153209
0.496800,-3.057132
0.496900,-2.931518
0.497000,-2.875365
0.497100,-2.874716
0.497200,-2.941256
0.497300,-2.952292
0.497400,-2.909122
0.497500,-2.858487
0.497600,-2.790324
0.497700,-2.746830
0.497800,-2.611803
0.497900,-2.507612
0.498000,-2.442046
0.498100,-2.414456
0.498200,-2.380375
0.498300,-2.365444
0.498400,-2.280404
0.498500,-2.158036
0.498600,-2.126227
0.498700,-1.944460
0.498800,-1.979840
0.498900,-1.987630
0.499000,-1.935696
0.499100,-1.854875
0.499200,-1.770159
0.499300,-1.701997
0.499400,-1.682522
0.499500,-1.655257
0.499600,-1.644221
0.499700,-1.611438
0.499800,-1.597481
0.499900,-1.581252
0.500000,-1.531591
0.500100,-1.553663
0.500200,-1.520555
0.500300,-1.569567
0.500400,-1.555285
0.500500,-1.620851
0.500600,-1.595209
0.500700,-1.449796
0.500800,-1.169032
0.500900,-1.090159
0.501000,-1.163515
0.501100,-1.446875
0.501200,-1.605596
0.501300,-1.385529
0.501400,-1.207658
0.501500,-0.995706
0.501600,-1.025892
0.501700,-1.071333
0.501800,-1.263161
0.501900,-1.182016
0.502000,-1.055753
0.502100,-0.924297
0.502200,-0.860679
0.502300,-0.866522
0.502400,-0.903849
0.502500,-0.902550
0.502600,-0.859706
0.502700,-0.830169
0.502800,-0.796088
0.502900,-0.797710
0.503000,-0.824975
0.503100,-0.797386
0.503200,-0.815563
0.503300,-0.853863
0.503400,-0.820431
0.503500,-0.795114
0.503600,-0.785052
0.503700,-0.658465
0.503800,-0.699038
0.503900,-0.699362
0.504000,-0.997653
0.504100,-0.968765
0.504200,-0.881453
0.504300,-0.690923
0.504400,-0.640288
0.504500,-0.738312
0.504600,-0.974283
0.504700,-1.086589
0.504800,-1.038875
0.504900,-0.865224
0.505000,-0.753567
0.505100,-0.812641
0.505200,-0.944097
0.505300,-1.034006
0.505400,-1.037577
0.505500,-1.045042
0.505600,-0.993433
0.505700,-1.067438
0.505800,-1.157672
0.505900,-1.253099
0.506000,-1.241414
0.506100,-1.275820
0.506200,-1.322235
0.506300,-1.362159
0.506400,-1.341061
0.506500,-1.326779
0.506600,-1.307304
0.506700,-1.366054
0.506800,-1.506923
0.506900,-1.547171
0.507000,-1.570216
0.507100,-1.438760
0.507200,-1.489071
0.507300,-1.534837
0.507400,-1.541978
0.507500,-1.568269
0.507600,-1.586445
0.507700,-1.582550
0.507800,-1.600078
0.507900,-1.616956
0.508000,-1.638703
0.508100,-1.660775
0.508200,-1.700374
0.508300,-1.742894
0.508400,-1.764641
0.508500,-1.831181
0.508600,-1.855524
0.508700,-1.923362
0.508800,-1.996393
0.508900,-2.072670
0.509000,-2.172642
0.509100,-2.432309
0.509200,-2.676071
0.509300,-2.702687
0.509400,-2.536500
0.509500,-2.357979
0.509600,-2.407316
0.509700,-2.742286
0.509800,-2.987347
0.509900,-3.111987
0.510000,-3.024025
0.510100,-2.925351
0.510200,-2.938010
0.510300,-3.112312
0.510400,-3.304141
0.510500,-3.427483
0.510600,-3.432352
0.510700,-3.425861
0.510800,-3.420343
0.510900,-3.468057
0.511000,-3.513498
0.511100,-3.522587
0.511200,-3.533947
0.511300,-3.545957
0.511400,-3.592697
0.511500,-3.643008
0.511600,-3.672870
0.511700,-3.649175
0.511800,-3.690073
0.511900,-3.696564
0.512000,-3.756613
0.512100,-3.704355
0.512200,-3.614120
0.512300,-3.450204
0.512400,-3.468706
0.512500,-3.553098
0.512600,-3.705004
0.512700,-3.791343
0.512800,-3.683581
0.512900,-3.470978
0.513000,-3.391779
0.513100,-3.483312
0.513200,-3.635218
0.513300,-3.755639
0.513400,-3.737138
0.513500,-3.604707
0.513600,-3.501489
0.513700,-3.457994
0.513800,-3.464162
0.513900,-3.463837
0.514000,-3.430080
0.514100,-3.395350
0.514200,-3.333678
0.514300,-3.295702
0.514400,-3.196704
0.514500,-3.000006
0.514600,-2.836415
0.514700,-2.797141
0.514800,-2.787403
0.514900,-2.785131
0.515000,-2.698467
0.515100,-2.561168
0.515200,-2.469960
0.515300,-2.421597
0.515400,-2.288843
0.515500,-2.250866
0.515600,-2.198284
0.515700,-2.135964
0.515800,-2.052546
0.515900,-1.930828
0.516000,-1.879544
0.516100,-1.832154
0.516200,-1.837348
0.516300,-1.826961
0.516400,-1.828584
0.516500,-1.845138
0.516600,-1.841567
0.516700,-1.842541
0.516800,-1.792231
0.516900,-1.881491
0.517000,-1.828259
0.517100,-1.859419
0.517200,-1.875973
0.517300,-1.819820
0.517400,-1.671161
0.517500,-1.428374
0.517600,-1.437787
0.517700,-1.632536
0.517800,-1.969778
0.517900,-1.836374
0.518000,-1.813653
0.518100,-1.486799
0.518200,-1.459209
0.518300,-1.503028
0.518400,-1.677004
0.518500,-1.720823
0.518600,-1.618254
0.518700,-1.545873
0.518800,-1.417987
0.518900,-1.500756
0.519000,-1.493615
0.519100,-1.586770
0.519200,-1.573137
0.519300,-1.578655
0.519400,-1.611114
0.519500,-1.614035
0.519600,-1.625720
0.519700,-1.600078
0.519800,-1.646169
0.519900,-1.718226
0.520000,-1.738350
0.520100,-1.780546
0.520200,-1.796126
0.520300,-1.667266
0.520400,-1.653634
0.520500,-1.615009
0.520600,-1.828584
0.520700,-1.982112
0.520800,-1.908107
0.520900,-1.769185
0.521000,-1.575410
0.521100,-1.627992
0.521200,-1.817224
0.521300,-2.031448
0.521400,-2.001262
0.521500,-1.885711
0.521600,-1.769185
0.521700,-1.746140
0.521800,-1.848708
0.521900,-1.926608
0.522000,-1.915897
0.522100,-1.923038
0.522200,-1.860393
0.522300,-1.902589
0.522400,-1.942513
0.522500,-1.969453
0.522600,-1.937644
0.522700,-1.918493
0.522800,-1.934723
0.522900,-1.982761
0.523000,-1.986331
0.523100,-1.934398
0.523200,-1.884412
0.523300,-1.870131
0.523400,-1.991525
0.523500,-2.074618
0.523600,-2.072346
0.523700,-2.041835
0.523800,-1.924011
0.523900,-1.979515
0.524000,-1.974971
0.524100,-1.966856
0.524200,-1.972374
0.524300,-1.974322
0.524400,-1.988603
0.524500,-2.006131
0.524600,-2.018790
0.524700,-2.048976
0.524800,-2.075592
0.524900,-2.105453
0.525000,-2.133692
0.525100,-2.155439
0.525200,-2.202504
0.525300,-2.222952
0.525400,-2.287220
0.525500,-2.331039
0.525600,-2.378752
0.525700,-2.525464
0.525800,-2.788377
0.525900,-2.922105
0.526000,-2.800711
0.526100,-2.606610
0.526200,-2.434256
0.526300,-2.540395
0.526400,-2.831871
0.526500,-3.003576
0.526600,-3.012989
0.526700,-2.815642
0.526800,-2.688080
0.526900,-2.747804
0.527000,-2.893217
0.527100,-3.030841
0.527200,-3.067519
0.527300,-3.033113
0.527400,-2.957810
0.527500,-2.969495
0.527600,-3.018507
0.527700,-3.034087
0.527800,-3.034736
0.527900,-3.000979
0.528000,-2.978583
0.528100,-3.034736
0.528200,-3.024999
0.528300,-3.048693
0.528400,-3.029543
0.528500,-3.026622
0.528600,-3.058755
0.528700,-3.079204
0.528800,-3.042851
0.528900,-2.930545
0.529000,-2.783184
0.529100,-2.828301
0.529200,-2.966249
0.529300,-3.121725
0.529400,-3.156455
0.529500,-2.981504
0.529600,-2.827327
0.529700,-2.779288
0.529800,-2.925027
0.529900,-3.117830
0.530000,-3.185019
0.530100,-3.153209
0.530200,-3.041552
0.530300,-2.969819
0.530400,-2.981504
0.530500,-3.015586
0.530600,-3.010068
0.530700,-2.963328
0.530800,-2.939633
0.530900,-2.898411
0.531000,-2.870497
0.531100,-2.798114
0.531200,-2.657245
0.531300,-2.568634
0.531400,-2.541693
0.531500,-2.508261
0.531600,-2.497874
0.531700,-2.382647
0.531800,-2.250217
0.531900,-2.108699
0.532000,-1.972050
0.532100,-1.958093
0.532200,-1.910054
0.532300,-1.826637
0.532400,-1.731534
0.532500,-1.603324
0.532600,-1.503028
0.532700,-1.430646
0.532800,-1.399161
0.532900,-1.388125
0.533000,-1.368326
0.533100,-1.366703
0.533200,-1.347228
0.533300,-1.355343
0.533400,-1.329376
0.533500,-1.323858
0.533600,-1.329701
0.533700,-1.367677
0.533800,-1.328078
0.533900,-1.434216
0.534000,-1.246283
0.534100,-1.156374
0.534200,-0.885023
0.534300,-1.046665
0.534400,-1.288479
0.534500,-1.466674
0.534600,-1.344631
0.534700,-1.147285
0.534800,-1.062245
0.534900,-1.005443
0.535000,-1.232326
0.535100,-1.352746
0.535200,-1.446875
0.535300,-1.341386
0.535400,-1.179744
0.535500,-1.151505
0.535600,-1.212851
0.535700,-1.242713
0.535800,-1.289452
0.535900,-1.356966
0.536000,-1.362483
0.536100,-1.385529
0.536200,-1.417662
0.536300,-1.436813
0.536400,-1.487772
0.536500,-1.515686
0.536600,-1.685443
0.536700,-1.651686
0.536800,-1.763018
0.536900,-1.773080
0.537000,-1.757176
0.537100,-1.776002
0.537200,-1.849033
0.537300,-2.079487
0.537400,-2.163554
0.537500,-2.123305
0.537600,-1.962637
0.537700,-1.917195
0.537800,-2.002885
0.537900,-2.291115
0.538000,-2.419974
0.538100,-2.414132
0.538200,-2.292738
0.538300,-2.182704
0.538400,-2.261902
0.538500,-2.386542
0.538600,-2.449187
0.538700,-2.462819
0.538800,-2.469311
0.538900,-2.480347
0.539000,-2.552729
0.539100,-2.622839
0.539200,-2.666333
0.539300,-2.649780
0.539400,-2.691002
0.539500,-2.740988
0.539600,-2.799088
0.539700,-2.785456
0.539800,-2.755918
0.539900,-2.753322
0.540000,-2.768902
0.540100,-2.911719
0.540200,-2.950344
0.540300,-2.957485
0.540400,-2.933141
0.540500,-2.868224
0.540600,-2.898086
0.540700,-2.854917
0.540800,-2.826678
0.540900,-2.809799
0.541000,-2.781236
0.541100,-2.756243
0.541200,-2.730601
0.541300,-2.702687
0.541400,-2.690677
0.541500,-2.681264
0.541600,-2.663412
0.541700,-2.640042
0.541800,-2.643612
0.541900,-2.604662
0.542000,-2.594600
0.542100,-2.620892
0.542200,-2.634200
0.542300,-2.674123
0.542400,-2.862382
0.542500,-3.066870
0.542600,-3.081801
0.542700,-2.856215
0.542800,-2.642639
0.542900,-2.591679
0.543000,-2.761436
0.543100,-2.981504
0.543200,-3.049992
0.543300,-2.934115
0.543400,-2.759813
0.543500,-2.676720
0.543600,-2.728978
0.543700,-2.856864
0.543800,-2.898735
0.543900,-2.925027
0.544000,-2.846153
0.544100,-2.837389
0.544200,-2.816940
0.544300,-2.851022
0.544400,-2.882182
0.544500,-2.877962
0.544600,-2.882182
0.544700,-2.927299
0.544800,-3.001629
0.544900,-3.006822
0.545000,-2.995786
0.545100,-2.975337
0.545200,-3.009094
0.545300,-3.056808
0.545400,-3.074985
0.545500,-3.044474
0.545600,-2.858162
0.545700,-2.800062
0.545800,-2.880234
0.545900,-3.060054
0.546000,-3.196704
0.546100,-3.120751
0.546200,-2.938984
0.546300,-2.805580
0.546400,-2.877962
0.546500,-3.023051
0.546600,-3.163596
0.546700,-3.155482
0.546800,-3.062326
0.546900,-2.978259
0.547000,-2.960082
0.547100,-3.017533
0.547200,-3.036359
0.547300,-3.028569
0.547400,-3.015586
0.547500,-2.995137
0.547600,-2.969819
0.547700,-2.926325
0.547800,-2.786754
0.547900,-2.679317
0.548000,-2.620242
0.548100,-2.592328
0.548200,-2.563440
0.548300,-2.534877
0.548400,-2.404719
0.548500,-2.311888
0.548600,-2.249893
0.548700,-2.123630
0.548800,-2.093444
0.548900,-2.060012
0.549000,-1.991525
0.549100,-1.914923
0.549200,-1.837348
0.549300,-1.771457
0.549400,-1.781520
0.549500,-1.759772
0.549600,-1.759448
0.549700,-1.721147
0.549800,-1.729262
0.549900,-1.734780
0.550000,-1.668889
0.550100,-1.732508
0.550200,-1.643247
0.550300,-1.747114
0.550400,-1.669214
0.550500,-1.799047
0.550600,-1.730885
0.550700,-1.615009
0.550800,-1.303085
0.550900,-1.271925
0.551000,-1.426426
0.551100,-1.711734
0.551200,-1.746465
0.551300,-1.625071
0.551400,-1.429347
0.551500,-1.292049
0.551600,-1.360211
0.551700,-1.488421
0.551800,-1.661424
0.551900,-1.538083
0.552000,-1.459858
0.552100,-1.317367
0.552200,-1.310550
0.552300,-1.326455
0.552400,-1.352746
0.552500,-1.342684
0.552600,-1.341386
0.552700,-1.310226
0.552800,-1.283285
0.552900,-1.304059
0.553000,-1.260889
0.553100,-1.265758
0.553200,-1.388450
0.553300,-1.318016
0.553400,-1.455639
0.553500,-1.385204
0.553600,-1.417662
0.553700,-1.363133
0.553800,-1.412794
0.553900,-1.541328
0.554000,-1.775677
0.554100,-1.782818
0.554200,-1.690312
0.554300,-1.521204
0.554400,-1.580927
0.554500,-1.751009
0.554600,-1.986007
0.554700,-2.050599
0.554800,-1.996069
0.554900,-1.882789
0.555000,-1.873376
0.555100,-2.027229
0.555200,-2.153816
0.555300,-2.187897
0.555400,-2.226847
0.555500,-2.233339
0.555600,-2.297282
0.555700,-2.378103
0.555800,-2.445941
0.555900,-2.525789
0.556000,-2.520920
0.556100,-2.555975
0.556200,-2.608233
0.556300,-2.625436
0.556400,-2.618295
0.556500,-2.609207
0.556600,-2.593951
0.556700,-2.686133
0.556800,-2.782210
0.556900,-2.832520
0.557000,-2.832845
0.557100,-2.733198
0.557200,-2.751050
0.557300,-2.755269
0.557400,-2.739689
0.557500,-2.735794
0.557600,-2.708205
0.557700,-2.691975
0.557800,-2.672825
0.557900,-2.659517
0.558000,-2.667956
0.558100,-2.683212
0.558200,-2.696195
0.558300,-2.670878
0.558400,-2.682563
0.558500,-2.678668
0.558600,-2.713398
0.558700,-2.715021
0.558800,-2.776367
0.558900,-2.763708
0.559000,-2.884454
0.559100,-3.122698
0.559200,-3.303492
0.559300,-3.201248
0.559400,-2.964951
0.559500,-2.853618
0.559600,-2.883480
0.559700,-3.169114
0.559800,-3.301545
0.559900,-3.361917
0.560000,-3.198651
0.560100,-3.099328
0.560200,-3.094784
0.560300,-3.252857
0.560400,-3.416448
0.560500,-3.491427
0.560600,-3.495322
0.560700,-3.474224
0.560800,-3.452476
0.560900,-3.478443
0.561000,-3.527456
0.561100,-3.531351
0.561200,-3.547904
0.561300,-3.550501
0.561400,-3.630349
0.561500,-3.677739
0.561600,-3.715715
0.561700,-3.683906
0.561800,-3.711495
0.561900,-3.738761
0.562000,-3.762455
0.562100,-3.792317
0.562200,-3.676765
0.562300,-3.558291
0.562400,-3.583933
0.562500,-3.716040
0.562600,-3.899430
0.562700,-3.979603
0.562800,-3.843602
0.562900,-3.656316
0.563000,-3.651123
0.563100,-3.759209
0.563200,-3.948443
0.563300,-4.045494
0.563400,-4.042573
0.563500,-3.930266
0.563600,-3.836136
0.563700,-3.836461
0.563800,-3.876709
0.563900,-3.891640
0.564000,-3.868919
0.564100,-3.842303
0.564200,-3.794265
0.564300,-3.697538
0.564400,-3.594969
0.564500,-3.441441
0.564600,-3.352504
0.564700,-3.286938
0.564800,-3.269086
0.564900,-3.237601
0.565000,-3.129839
0.565100,-2.952292
0.565200,-2.860759
0.565300,-2.709178
0.565400,-2.567660
0.565500,-2.447889
0.565600,-2.343373
0.565700,-2.190819
0.565800,-2.055143
0.565900,-1.911353
0.566000,-1.865262
0.566100,-1.820794
0.566200,-1.860718
0.566300,-1.813329
0.566400,-1.884412
0.566500,-1.856823
0.566600,-1.872403
0.566700,-1.888956
0.566800,-1.850006
0.566900,-1.944460
0.567000,-1.890904
0.567100,-1.990551
0.567200,-1.933749
0.567300,-1.821768
0.567400,-1.613061
0.567500,-1.274522
0.567600,-1.374168
0.567700,-1.517958
0.567800,-1.751333
0.567900,-1.629290
0.568000,-1.368326
0.568100,-1.250503
0.568200,-1.079772
0.568300,-1.220641
0.568400,-1.300164
0.568500,-1.309577
0.568600,-1.174550
0.568700,-1.002846
0.568800,-0.949290
0.568900,-0.902875
0.569000,-0.937930
0.569100,-0.931438
0.569200,-0.948317
0.569300,-0.934684
0.569400,-0.910665
0.569500,-0.899954
0.569600,-0.935009
0.569700,-0.937605
0.569800,-0.985319
0.569900,-1.046990
0.570000,-1.060947
0.570100,-1.121319
0.570200,-1.092756
0.570300,-1.060297
0.570400,-1.067763
0.570500,-1.104116
0.570600,-1.318989
0.570700,-1.419285
0.570800,-1.355018
0.570900,-1.218044
0.571000,-1.077500
0.571100,-1.192402
0.571200,-1.385529
0.571300,-1.534512
0.571400,-1.497185
0.571500,-1.371896
0.571600,-1.233300
0.571700,-1.280364
0.571800,-1.374493
0.571900,-1.456288
0.572000,-1.399486
0.572100,-1.376116
0.572200,-1.305032
0.572300,-1.354044
0.572400,-1.400460
0.572500,-1.420259
0.572600,-1.377090
0.572700,-1.360861
0.572800,-1.377090
0.572900,-1.400460
0.573000,-1.380335
0.573100,-1.361185
0.573200,-1.325156
0.573300,-1.306006
0.573400,-1.424479
0.573500,-1.500431
0.573600,-1.488421
0.573700,-1.484202
0.573800,-1.394617
0.573900,-1.442655
0.574000,-1.449796
0.574100,-1.450121
0.574200,-1.465051
0.574300,-1.476087
0.574400,-1.504001
0.574500,-1.514063
0.574600,-1.558856
0.574700,-1.590016
0.574800,-1.602025
0.574900,-1.647791
0.575000,-1.670512
0.575100,-1.739973
0.575200,-1.756202
0.575300,-1.817548
0.575400,-1.877271
0.575500,-1.937968
0.575600,-2.038914
0.575700,-2.248270
0.575800,-2.534552
0.575900,-2.632577
0.576000,-2.484567
0.576100,-2.347268
0.576200,-2.309291
0.576300,-2.493655
0.576400,-2.793895
0.576500,-2.954888
0.576600,-2.907175
0.576700,-2.814668
0.576800,-2.758840
0.576900,-2.891919
0.577000,-3.077257
0.577100,-3.236952
0.577200,-3.283692
0.577300,-3.299922
0.577400,-3.294079
0.577500,-3.390481
0.577600,-3.477794
0.577700,-3.566730
0.577800,-3.615418
0.577900,-3.645280
0.578000,-3.697214
0.578100,-3.785176
0.578200,-3.852365
0.578300,-3.880280
0.578400,-3.915984
0.578500,-3.932538
0.578600,-4.017580
0.578700,-4.042248
0.578800,-4.066917
0.578900,-3.963698
0.579000,-3.858208
0.579100,-3.964348
0.579200,-4.133781
0.579300,-4.288609
0.579400,-4.242518
0.579500,-4.057179
0.579600,-3.938381
0.579700,-3.969216
0.579800,-4.121123
0.579900,-4.289907
0.580000,-4.296724
0.580100,-4.189610
0.580200,-4.064969
0.580300,-3.990639
0.580400,-4.020176
0.580500,-4.088989
0.580600,-4.065618
0.580700,-4.037055
0.580800,-3.978954
0.580900,-3.953312
0.581000,-3.936109
0.581100,-3.860480
0.581200,-3.728374
0.581300,-3.622559
0.581400,-3.597566
0.581500,-3.557317
0.581600,-3.524534
0.581700,-3.378147
0.581800,-3.216179
0.581900,-3.009094
0.582000,-2.924053
0.582100,-2.888998
0.582200,-2.838363
0.582300,-2.752997
0.582400,-2.642314
0.582500,-2.525464
0.582600,-2.437826
0.582700,-2.404394
0.582800,-2.344671
0.582900,-2.347917
0.583000,-2.281702
0.583100,-2.286571
0.583200,-2.195038
0.583300,-2.148947
0.583400,-2.044756
0.583500,-2.055467
0.583600,-1.973997
0.583700,-1.924661
0.583800,-1.883439
0.583900,-1.781195
0.584000,-1.559505
0.584100,-1.168059
0.584200,-1.086264
0.584300,-1.033032
0.584400,-1.396240
0.584500,-1.324183
0.584600,-1.207658
0.584700,-0.859706
0.584800,-0.631849
0.584900,-0.634446
0.585000,-0.706178
0.585100,-0.827897
0.585200,-0.741882
0.585300,-0.554923
0.585400,-0.361472
0.585500,-0.262475
0.585600,-0.316356
0.585700,-0.339076
0.585800,-0.364394
0.585900,-0.369912
0.586000,-0.286170
0.586100,-0.253711
0.586200,-0.217358
0.586300,-0.216060
0.586400,-0.178733
0.586500,-0.270265
0.586600,-0.235859
0.586700,-0.289091
0.586800,-0.281625
0.586900,-0.232938
0.587000,-0.161206
0.587100,-0.147573
0.587200,-0.196585
0.587300,-0.440670
0.587400,-0.421520
0.587500,-0.345893
0.587600,-0.134914
0.587700,-0.093693
0.587800,-0.232938
0.587900,-0.483840
0.588000,-0.571801
0.588100,-0.542914
0.588200,-0.375429
0.588300,-0.288442
0.588400,-0.391009
0.588500,-0.576670
0.588600,-0.681835
0.588700,-0.687028
0.588800,-0.719486
0.588900,-0.751620
0.589000,-0.868794
0.589100,-0.976231
0.589200,-1.080746
0.589300,-1.108985
0.589400,-1.141118
0.589500,-1.155400
0.589600,-1.217720
0.589700,-1.269328
0.589800,-1.314121
0.589900,-1.351772
0.590000,-1.484202
0.590100,-1.668565
0.590200,-1.752307
0.590300,-1.803267
0.590400,-1.843839
0.590500,-1.853577
0.590600,-1.961338
0.590700,-1.989577
0.590800,-2.028852
0.590900,-2.061959
0.591000,-2.129797
0.591100,-2.146351
0.591200,-2.192117
0.591300,-2.252814
0.591400,-2.278456
0.591500,-2.322924
0.591600,-2.356031
0.591700,-2.373559
0.591800,-2.420624
0.591900,-2.406342
0.592000,-2.451784
0.592100,-2.513779
0.592200,-2.573827
0.592300,-2.633550
0.592400,-2.877637
0.592500,-3.174632
0.592600,-3.158078
0.592700,-3.021104
0.592800,-2.874716
0.592900,-2.954564
0.593000,-3.178527
0.593100,-3.495971
0.593200,-3.575170
0.593300,-3.487532
0.593400,-3.351855
0.593500,-3.340495
0.593600,-3.444362
0.593700,-3.627752
0.593800,-3.698512
0.593900,-3.680660
0.594000,-3.637165
0.594100,-3.637490
0.594200,-3.661509
0.594300,-3.731944
0.594400,-3.781930
0.594500,-3.828995
0.594600,-3.884175
0.594700,-3.930915
0.594800,-4.001999
0.594900,-4.061074
0.595000,-4.117552
0.595100,-4.136703
0.595200,-4.194479
0.595300,-4.275950
0.595400,-4.310032
0.595500,-4.230508
0.595600,-4.095156
0.595700,-4.106192
0.595800,-4.214279
0.595900,-4.406109
0.596000,-4.528479
0.596100,-4.430778
0.596200,-4.235701
0.596300,-4.131834
0.596400,-4.192207
0.596500,-4.381116
0.596600,-4.539839
0.596700,-4.533347
0.596800,-4.406109
0.596900,-4.277573
0.597000,-4.239596
0.597100,-4.261668
0.597200,-4.294127
0.597300,-4.268160
0.597400,-4.199672
0.597500,-4.129562
0.597600,-4.059127
0.597700,-3.948118
0.597800,-3.808222
0.597900,-3.663457
0.598000,-3.576468
0.598100,-3.483637
0.598200,-3.403140
0.598300,-3.298299
0.598400,-3.092837
0.598500,-2.977934
0.598600,-2.734496
0.598700,-2.666333
0.598800,-2.581292
0.598900,-2.512156
0.599000,-2.411860
0.599100,-2.309941
0.599200,-2.159983
0.599300,-2.047353
0.599400,-1.970751
0.599500,-1.972699
0.599600,-1.915572
0.599700,-1.885061
0.599800,-1.848059
0.599900,-1.789309
0.600000,-1.759772
0.600100,-1.774054
0.600200,-1.757500
0.600300,-1.807162
0.600400,-1.783467
0.600500,-1.849357
0.600600,-1.680250
0.600700,-1.610464
0.600800,-1.266083
0.600900,-1.303409
0.601000,-1.474464
0.601100,-1.750035
0.601200,-1.698102
0.601300,-1.490369
0.601400,-1.358913
0.601500,-1.159944
0.601600,-1.281662
0.601700,-1.419935
0.601800,-1.453042
0.601900,-1.340412
0.602000,-1.176498
0.602100,-1.138846
0.602200,-1.181367
0.602300,-1.225185
0.602400,-1.257319
0.602500,-1.274522
0.602600,-1.308603
0.602700,-1.277118
0.602800,-1.307304
0.602900,-1.322884
0.603000,-1.350149
0.603100,-1.292698
0.603200,-1.464402
0.603300,-1.437137
0.603400,-1.530293
0.603500,-1.528670
0.603600,-1.485500
0.603700,-1.497185
0.603800,-1.564049
0.603900,-1.746140
0.604000,-1.959391
0.604100,-1.913949
0.604200,-1.801644
0.604300,-1.586121
0.604400,-1.691286
0.604500,-1.843515
0.604600,-2.086303
0.604700,-2.083706
0.604800,-1.989253
0.604900,-1.795152
0.605000,-1.799696
0.605100,-1.900966
0.605200,-2.047677
0.605300,-2.046379
0.605400,-2.078513
0.605500,-2.021386
0.605600,-2.087601
0.605700,-2.114217
0.605800,-2.119086
0.605900,-2.057415
0.606000,-2.023658
0.606100,-2.028852
0.606200,-2.054818
0.606300,-2.038265
0.606400,-1.968479
0.606500,-1.910054
0.606600,-1.877271
0.606700,-1.962637
0.606800,-2.031124
0.606900,-2.010026
0.607000,-2.002560
0.607100,-1.983085
0.607200,-1.960040
0.607300,-1.966207
0.607400,-1.953224
0.607500,-1.972699
0.607600,-1.964909
0.607700,-1.984708
0.607800,-1.997692
0.607900,-2.022360
0.608000,-2.023658
0.608100,-2.057415
0.608200,-2.110647
0.608300,-2.101883
0.608400,-2.164527
0.608500,-2.166799
0.608600,-2.243076
0.608700,-2.254437
0.608800,-2.309291
0.608900,-2.363497
0.609000,-2.474180
0.609100,-2.795193
0.609200,-2.929571
0.609300,-2.868874
0.609400,-2.671527
0.609500,-2.577073
0.609600,-2.734496
0.609700,-3.022727
0.609800,-3.209363
0.609900,-3.189563
0.610000,-3.091538
0.610100,-2.994812
0.610200,-3.047395
0.610300,-3.186317
0.610400,-3.320046
0.610500,-3.363865
0.610600,-3.368084
0.610700,-3.360944
0.610800,-3.381068
0.610900,-3.383015
0.611000,-3.420667
0.611100,-3.460916
0.611200,-3.465784
0.611300,-3.515121
0.611400,-3.598215
0.611500,-3.645280
0.611600,-3.677739
0.611700,-3.719285
0.611800,-3.774790
0.611900,-3.847497
0.612000,-3.888394
0.612100,-3.927020
0.612200,-3.785825
0.612300,-3.696240
0.612400,-3.763754
0.612500,-3.914037
0.612600,-4.063346
0.612700,-4.074058
0.612800,-3.861129
0.612900,-3.650149
0.613000,-3.576793
0.613100,-3.651447
0.613200,-3.753691
0.613300,-3.795888
0.613400,-3.674817
0.613500,-3.515771
0.613600,-3.422939
0.613700,-3.395674
0.613800,-3.414175
0.613900,-3.396972
0.614000,-3.349259
0.614100,-3.328161
0.614200,-3.282719
0.614300,-3.271034
0.614400,-3.187615
0.614500,-3.068168
0.614600,-2.988645
0.614700,-2.963977
0.614800,-2.959433
0.614900,-2.979881
0.615000,-2.876339
0.615100,-2.724109
0.615200,-2.640367
0.615300,-2.478075
0.615400,-2.475478
0.615500,-2.405368
0.615600,-2.353435
0.615700,-2.250542
0.615800,-2.158036
0.615900,-2.045730
0.616000,-2.001587
0.616100,-1.986007
0.616200,-1.994446
0.616300,-1.985358
0.616400,-2.018465
0.616500,-1.994121
0.616600,-2.020088
0.616700,-2.006131
0.616800,-2.053520
0.616900,-2.019439
0.617000,-2.111620
0.617100,-2.130122
0.617200,-2.196986
0.617300,-2.064880
0.617400,-1.934398
0.617500,-1.699725
0.617600,-1.818847
0.617700,-2.050599
0.617800,-2.243726
0.617900,-2.044432
0.618000,-1.822742
0.618100,-1.621500
0.618200,-1.529643
0.618300,-1.615009
0.618400,-1.738999
0.618500,-1.693233
0.618600,-1.541978
0.618700,-1.362483
0.618800,-1.291400
0.618900,-1.196297
0.619000,-1.215772
0.619100,-1.212851
0.619200,-1.194999
0.619300,-1.163515
0.619400,-1.154751
0.619500,-1.118398
0.619600,-1.151180
0.619700,-1.088536
0.619800,-1.193701
0.619900,-1.239467
0.620000,-1.272899
0.620100,-1.359238
0.620200,-1.331324
0.620300,-1.316717
0.620400,-1.273872
0.620500,-1.396240
0.620600,-1.630589
0.620700,-1.698751
0.620800,-1.659476
0.620900,-1.501080
0.621000,-1.367677
0.621100,-1.523801
0.621200,-1.706541
0.621300,-1.877596
0.621400,-1.839944
0.621500,-1.676030
0.621600,-1.607219
0.621700,-1.642923
0.621800,-1.776002
0.621900,-1.821768
0.622000,-1.850331
0.622100,-1.857796
0.622200,-1.846436
0.622300,-1.916546
0.622400,-1.997043
0.622500,-2.060661
0.622600,-2.090847
0.622700,-2.076890
0.622800,-2.104479
0.622900,-2.104804
0.623000,-2.109348
0.623100,-2.075267
0.623200,-2.027878
0.623300,-2.045405
0.623400,-2.128174
0.623500,-2.128174
0.623600,-2.092794
0.623700,-1.910379
0.623800,-1.919792
0.623900,-1.939267
0.624000,-1.919143
0.624100,-1.901940
0.624200,-1.887333
0.624300,-1.892851
0.624400,-1.908107
0.624500,-1.933100
0.624600,-1.955171
0.624700,-1.981138
0.624800,-2.017167
0.624900,-2.038914
0.625000,-2.077215
0.625100,-2.109997
0.625200,-2.146026
0.625300,-2.154141
0.625400,-2.227172
0.625500,-2.236909
0.625600,-2.353110
0.625700,-2.533579
0.625800,-2.810124
0.625900,-2.828625
0.626000,-2.635173
0.626100,-2.457301
0.626200,-2.470934
0.626300,-2.716644
0.626400,-2.966573
0.626500,-3.072063
0.626600,-3.010068
0.626700,-2.855241
0.626800,-2.834143
0.626900,-2.936387
0.627000,-3.094135
0.627100,-3.194756
0.627200,-3.222021
0.627300,-3.151262
0.627400,-3.123023
0.627500,-3.128541
0.627600,-3.136980
0.627700,-3.103873
0.627800,-3.084398
0.627900,-3.069467
0.628000,-3.065572
0.628100,-3.131462
0.628200,-3.110689
0.628300,-3.125295
0.628400,-3.104197
0.628500,-3.123997
0.628600,-3.185019
0.628700,-3.201248
0.628800,-3.144446
0.628900,-2.959108
0.629000,-2.911719
0.629100,-3.020454
0.629200,-3.207415
0.629300,-3.364514
0.629400,-3.271683
0.629500,-3.081152
0.629600,-2.970468
0.629700,-3.034736
0.629800,-3.214556
0.629900,-3.410930
0.630000,-3.442739
0.630100,-3.360294
0.630200,-3.267788
0.630300,-3.241821
0.630400,-3.265516
0.630500,-3.277525
0.630600,-3.278824
0.630700,-3.249611
0.630800,-3.234680
0.630900,-3.185992
0.631000,-3.108741
0.631100,-2.984750
0.631200,-2.843881
0.631300,-2.766954
0.631400,-2.723135
0.631500,-2.663737
0.631600,-2.624787
0.631700,-2.471259
0.631800,-2.352786
0.631900,-2.195038
0.632000,-2.096365
0.632100,-2.085329
0.632200,-2.025281
0.632300,-1.936995
0.632400,-1.862341
0.632500,-1.765940
0.632600,-1.704918
0.632700,-1.653959
