0.000100,-0.974932
0.000200,-0.981424
0.000300,-0.998302
0.000400,-1.047639
0.000500,-1.002522
0.000600,-0.891190
0.000700,-0.624059
0.000800,-0.461119
0.000900,-0.549730
0.001000,-0.807773
0.001100,-0.905472
0.001200,-0.826923
0.001300,-0.552651
0.001400,-0.451706
0.001500,-0.402045
0.001600,-0.533176
0.001700,-0.578942
0.001800,-0.552976
0.001900,-0.414379
0.002000,-0.311811
0.002100,-0.310838
0.002200,-0.318303
0.002300,-0.328041
0.002400,-0.356279
0.002500,-0.331286
0.002600,-0.305969
0.002700,-0.327067
0.002800,-0.335181
0.002900,-0.306618
0.003000,-0.327391
0.003100,-0.367315
0.003200,-0.479620
0.003300,-0.483515
0.003400,-0.534799
0.003500,-0.548107
0.003600,-0.499095
0.003700,-0.507534
0.003800,-0.610751
0.003900,-0.844126
0.004000,-0.846398
0.004100,-0.765577
0.004200,-0.585759
0.004300,-0.522140
0.004400,-0.636393
0.004500,-0.909042
0.004600,-0.967142
0.004700,-0.878207
0.004800,-0.737338
0.004900,-0.682484
0.005000,-0.766875
0.005100,-0.892813
0.005200,-0.952536
0.005300,-0.944422
0.005400,-0.905472
0.005500,-0.912613
0.005600,-0.987266
0.005700,-1.064192
0.005800,-1.070359
0.005900,-1.025892
0.006000,-1.033357
0.006100,-1.078474
0.006200,-1.108336
0.006300,-1.099572
0.006400,-1.075228
0.006500,-1.048612
0.006600,-1.104441
0.006700,-1.225834
0.006800,-1.240116
0.006900,-1.251152
0.007000,-1.212202
0.007100,-1.194350
0.007200,-1.216421
0.007300,-1.208307
0.007400,-1.204412
0.007500,-1.209281
0.007600,-1.195324
0.007700,-1.212851
0.007800,-1.228106
0.007900,-1.241739
0.008000,-1.238168
0.008100,-1.270627
0.008200,-1.272574
0.008300,-1.289128
0.008400,-1.307304
0.008500,-1.351123
0.008600,-1.364756
0.008700,-1.418312
0.008800,-1.480307
0.008900,-1.494913
0.009000,-1.750684
0.009100,-1.956145
0.009200,-1.975295
0.009300,-1.810732
0.009400,-1.667266
0.009500,-1.729586
0.009600,-1.889281
0.009700,-2.164203
0.009800,-2.201530
0.009900,-2.126227
0.010000,-1.986980
0.010100,-1.964584
0.010200,-2.122332
0.010300,-2.292413
0.010400,-2.384270
0.010500,-2.376156
0.010600,-2.366094
0.010700,-2.356356
0.010800,-2.424194
0.010900,-2.505340
0.011000,-2.579669
0.011100,-2.597522
0.011200,-2.599794
0.011300,-2.639068
0.011400,-2.655297
0.011500,-2.737417
0.011600,-2.727030
0.011700,-2.713398
0.011800,-2.706906
0.011900,-2.755918
0.012000,-2.778315
0.012100,-2.698792
0.012200,-2.542342
0.012300,-2.521894
0.012400,-2.652376
0.012500,-2.841933
0.012600,-2.993514
0.012700,-2.876664
0.012800,-2.671202
0.012900,-2.574476
0.013000,-2.687431
0.013100,-2.888349
0.013200,-3.033438
0.013300,-3.030517
0.013400,-2.911070
0.013500,-2.804606
0.013600,-2.795193
0.013700,-2.820186
0.013800,-2.860110
0.013900,-2.835766
0.014000,-2.796816
0.014100,-2.743260
0.014200,-2.694248
0.014300,-2.644262
0.014400,-2.567984
0.014500,-2.457301
0.014600,-2.378103
0.014700,-2.336232
0.014800,-2.311888
0.014900,-2.238208
0.015000,-2.055467
0.015100,-1.931152
0.015200,-1.712708
0.015300,-1.670837
0.015400,-1.598455
0.015500,-1.560803
0.015600,-1.486474
0.015700,-1.410197
0.015800,-1.282961
0.015900,-1.217071
0.016000,-1.175199
0.016100,-1.180068
0.016200,-1.154751
0.016300,-1.127161
0.016400,-1.130407
0.016500,-1.065491
0.016600,-1.089185
0.016700,-1.015180
0.016800,-1.021672
0.016900,-0.988565
0.017000,-1.008364
0.017100,-1.018751
0.017200,-0.910016
0.017300,-0.804202
0.017400,-0.431258
0.017500,-0.567582
0.017600,-0.601663
0.017700,-0.906121
0.017800,-0.762980
0.017900,-0.601338
0.018000,-0.427363
0.018100,-0.341673
0.018200,-0.420222
0.018300,-0.525386
0.018400,-0.539992
0.018500,-0.504938
0.018600,-0.308566
0.018700,-0.267668
0.018800,-0.182628
0.018900,-0.234561
0.019000,-0.259229
0.019100,-0.249492
0.019200,-0.251439
0.019300,-0.259229
0.019400,-0.250141
0.019500,-0.268642
0.019600,-0.289091
0.019700,-0.336480
0.019800,-0.470857
0.019900,-0.451382
0.020000,-0.531229
0.020100,-0.543563
0.020200,-0.505911
0.020300,-0.525386
0.020400,-0.488384
0.020500,-0.723706
0.020600,-0.875935
0.020700,-0.917806
0.020800,-0.767524
0.020900,-0.597119
0.021000,-0.650675
0.021100,-0.848345
0.021200,-1.106388
0.021300,-1.101195
0.021400,-0.993758
0.021500,-0.868145
0.021600,-0.872040
0.021700,-1.028164
0.021800,-1.127161
0.021900,-1.128135
0.022000,-1.144040
0.022100,-1.108011
0.022200,-1.185586
0.022300,-1.238168
0.022400,-1.277767
0.022500,-1.284908
0.022600,-1.274522
0.022700,-1.332297
0.022800,-1.371896
0.022900,-1.362808
0.023000,-1.333920
0.023100,-1.317691
0.023200,-1.327104
0.023300,-1.402732
0.023400,-1.474140
0.023500,-1.495238
0.023600,-1.495562
0.023700,-1.383257
0.023800,-1.412469
0.023900,-1.430970
0.024000,-1.412794
0.024100,-1.396889
0.024200,-1.414417
0.024300,-1.392020
0.024400,-1.407600
0.024500,-1.411171
0.024600,-1.414092
0.024700,-1.419935
0.024800,-1.429347
0.024900,-1.436164
0.025000,-1.453691
0.025100,-1.492316
0.025200,-1.524775
0.025300,-1.577357
0.025400,-1.625395
0.025500,-1.644870
0.025600,-1.800670
0.025700,-2.046704
0.025800,-2.156413
0.025900,-2.027878
0.026000,-1.893825
0.026100,-1.827286
0.026200,-1.953224
0.026300,-2.234313
0.026400,-2.363821
0.026500,-2.412509
0.026600,-2.258981
0.026700,-2.214189
0.026800,-2.217434
0.026900,-2.385244
0.027000,-2.503068
0.027100,-2.572853
0.027200,-2.548834
0.027300,-2.528061
0.027400,-2.526438
0.027500,-2.552729
0.027600,-2.579345
0.027700,-2.590705
0.027800,-2.617321
0.027900,-2.617970
0.028000,-2.634200
0.028100,-2.722486
0.028200,-2.692625
0.028300,-2.666982
0.028400,-2.654324
0.028500,-2.708854
0.028600,-2.761761
0.028700,-2.741637
0.028800,-2.598820
0.028900,-2.443994
0.029000,-2.500471
0.029100,-2.708529
0.029200,-2.847776
0.029300,-2.863680
0.029400,-2.665360
0.029500,-2.502094
0.029600,-2.456003
0.029700,-2.614075
0.029800,-2.819861
0.029900,-2.896788
0.030000,-2.848100
0.030100,-2.732224
0.030200,-2.669904
0.030300,-2.676720
0.030400,-2.717942
0.030500,-2.747155
0.030600,-2.720539
0.030700,-2.669579
0.030800,-2.579020
0.030900,-2.517674
0.031000,-2.492681
0.031100,-2.404719
0.031200,-2.308967
0.031300,-2.259630
0.031400,-2.227172
0.031500,-2.215162
0.031600,-2.112919
0.031700,-1.959715
0.031800,-1.741920
0.031900,-1.608517
0.032000,-1.619228
0.032100,-1.560803
0.032200,-1.514063
0.032300,-1.404679
0.032400,-1.272574
0.032500,-1.174875
0.032600,-1.118073
0.032700,-1.113529
0.032800,-1.091133
0.032900,-1.085939
0.033000,-1.038875
0.033100,-1.052832
0.033200,-0.999601
0.033300,-1.009663
0.033400,-0.977204
0.033500,-1.007390
0.033600,-1.006092
0.033700,-1.009663
0.033800,-1.028164
0.033900,-0.847696
0.034000,-0.752594
0.034100,-0.453005
0.034200,-0.646131
0.034300,-0.849968
0.034400,-1.004145
0.034500,-0.904498
0.034600,-0.656517
0.034700,-0.561090
0.034800,-0.449759
0.034900,-0.606207
0.035000,-0.762331
0.035100,-0.779209
0.035200,-0.692221
0.035300,-0.499744
0.035400,-0.408212
0.035500,-0.378026
0.035600,-0.455601
0.035700,-0.437100
0.035800,-0.437749
0.035900,-0.400422
0.036000,-0.381272
0.036100,-0.355630
0.036200,-0.337129
0.036300,-0.339725
0.036400,-0.293635
0.036500,-0.393281
0.036600,-0.419573
0.036700,-0.471181
0.036800,-0.420546
0.036900,-0.348165
0.037000,-0.371210
0.037100,-0.381921
0.037200,-0.709100
0.037300,-0.769147
0.037400,-0.685730
0.037500,-0.443267
0.037600,-0.416002
0.037700,-0.478971
0.037800,-0.746427
0.037900,-0.887620
0.038000,-0.885023
0.038100,-0.752594
0.038200,-0.626007
0.038300,-0.670474
0.038400,-0.759085
0.038500,-0.877882
0.038600,-0.876909
0.038700,-0.870092
0.038800,-0.811343
0.038900,-0.849644
0.039000,-0.897033
0.039100,-0.949290
0.039200,-0.939228
0.039300,-0.949615
0.039400,-0.974932
0.039500,-0.995381
0.039600,-0.995056
0.039700,-0.990188
0.039800,-0.997004
0.039900,-1.032059
0.040000,-1.177472
0.040100,-1.250178
0.040200,-1.281987
0.040300,-1.298216
0.040400,-1.219667
0.040500,-1.261214
0.040600,-1.269328
0.040700,-1.285882
0.040800,-1.251801
0.040900,-1.268679
0.041000,-1.290102
0.041100,-1.291075
0.041200,-1.297567
0.041300,-1.290102
0.041400,-1.300164
0.041500,-1.309577
0.041600,-1.310550
0.041700,-1.333920
0.041800,-1.301462
0.041900,-1.352421
0.042000,-1.386178
0.042100,-1.447524
0.042200,-1.481930
0.042300,-1.707515
0.042400,-1.940241
0.042500,-1.961663
0.042600,-1.846761
0.042700,-1.640975
0.042800,-1.674732
0.042900,-1.780546
0.043000,-2.110322
0.043100,-2.240155
0.043200,-2.191792
0.043300,-2.064880
0.043400,-1.993797
0.043500,-2.092145
0.043600,-2.216785
0.043700,-2.390762
0.043800,-2.424519
0.043900,-2.391736
0.044000,-2.410886
0.044100,-2.427115
0.044200,-2.451134
0.044300,-2.482294
0.044400,-2.525464
0.044500,-2.542992
0.044600,-2.580643
0.044700,-2.663087
0.044800,-2.748453
0.044900,-2.706906
0.045000,-2.699765
0.045100,-2.772797
0.045200,-2.830248
0.045300,-2.892568
0.045400,-2.825704
0.045500,-2.664386
0.045600,-2.610830
0.045700,-2.723460
0.045800,-2.937036
0.045900,-3.018832
0.046000,-2.998058
0.046100,-2.809799
0.046200,-2.701388
0.046300,-2.729952
0.046400,-2.890621
0.046500,-3.067195
0.046600,-3.099978
0.046700,-3.032789
0.046800,-2.926325
0.046900,-2.882182
0.047000,-2.875041
0.047100,-2.896788
0.047200,-2.917237
0.047300,-2.908473
0.047400,-2.861084
0.047500,-2.800711
0.047600,-2.731575
0.047700,-2.673474
0.047800,-2.576424
0.047900,-2.493655
0.048000,-2.456652
0.048100,-2.394008
0.048200,-2.371611
0.048300,-2.211267
0.048400,-2.070723
0.048500,-1.875649
0.048600,-1.817548
0.048700,-1.792555
0.048800,-1.746465
0.048900,-1.667916
0.049000,-1.596183
0.049100,-1.446550
0.049200,-1.381958
0.049300,-1.312498
0.049400,-1.264135
0.049500,-1.272250
0.049600,-1.194350
0.049700,-1.245958
0.049800,-1.160593
0.049900,-1.181367
0.050000,-1.138846
0.050100,-1.111581
0.050200,-1.113529
0.050300,-1.069386
0.050400,-1.129433
0.050500,-1.034006
0.050600,-0.911639
0.050700,-0.642885
0.050800,-0.513377
0.050900,-0.685730
0.051000,-0.852240
0.051100,-0.979152
0.051200,-0.699362
0.051300,-0.609453
0.051400,-0.404317
0.051500,-0.523439
0.051600,-0.584460
0.051700,-0.685730
0.051800,-0.617243
0.051900,-0.461119
0.052000,-0.359200
0.052100,-0.288117
0.052200,-0.341024
0.052300,-0.352060
0.052400,-0.375429
0.052500,-0.353033
0.052600,-0.323821
0.052700,-0.332585
0.052800,-0.304021
0.052900,-0.316680
0.053000,-0.315057
0.053100,-0.420871
0.053200,-0.478322
0.053300,-0.514350
0.053400,-0.539343
0.053500,-0.462093
0.053600,-0.437749
0.053700,-0.441644
0.053800,-0.576670
0.053900,-0.797386
0.054000,-0.805500
0.054100,-0.679238
0.054200,-0.500069
0.054300,-0.501692
0.054400,-0.640288
0.054500,-0.869443
0.054600,-0.866197
0.054700,-0.789596
0.054800,-0.602312
0.054900,-0.588031
0.055000,-0.665606
0.055100,-0.782455
0.055200,-0.791868
0.055300,-0.764928
0.055400,-0.716240
0.055500,-0.735715
0.055600,-0.815238
0.055700,-0.875610
0.055800,-0.881453
0.055900,-0.823028
0.056000,-0.862302
0.056100,-0.924297
0.056200,-0.951887
0.056300,-0.939877
0.056400,-0.926570
0.056500,-0.918780
0.056600,-0.999276
0.056700,-1.131056
0.056800,-1.171954
0.056900,-1.185586
0.057000,-1.132030
0.057100,-1.163515
0.057200,-1.213825
0.057300,-1.222913
0.057400,-1.224211
0.057500,-1.268030
0.057600,-1.276469
0.057700,-1.298541
0.057800,-1.313472
0.057900,-1.326455
0.058000,-1.345281
0.058100,-1.372221
0.058200,-1.409548
0.058300,-1.415390
0.058400,-1.432593
0.058500,-1.444927
0.058600,-1.490044
0.058700,-1.541978
0.058800,-1.583200
0.058900,-1.702321
0.059000,-1.940565
0.059100,-2.135639
0.059200,-2.056117
0.059300,-1.896422
0.059400,-1.748087
0.059500,-1.892527
0.059600,-2.149597
0.059700,-2.332986
0.059800,-2.401473
0.059900,-2.280404
0.060000,-2.174914
0.060100,-2.188871
0.060200,-2.351812
0.060300,-2.501769
0.060400,-2.586810
0.060500,-2.605312
0.060600,-2.587135
0.060700,-2.588758
0.060800,-2.627708
0.060900,-2.676071
0.061000,-2.697169
0.061100,-2.739689
0.061200,-2.746181
0.061300,-2.777666
0.061400,-2.832520
0.061500,-2.925027
0.061600,-2.896139
0.061700,-2.863031
0.061800,-2.936712
0.061900,-3.000655
0.062000,-3.009094
0.062100,-2.916588
0.062200,-2.756243
0.062300,-2.767603
0.062400,-2.941580
0.062500,-3.136006
0.062600,-3.193133
0.062700,-3.080503
0.062800,-2.856539
0.062900,-2.801036
0.063000,-2.932492
0.063100,-3.125620
0.063200,-3.212933
0.063300,-3.142823
0.063400,-2.970793
0.063500,-2.905227
0.063600,-2.890621
0.063700,-2.885103
0.063800,-2.870821
0.063900,-2.814344
0.064000,-2.739689
0.064100,-2.642314
0.064200,-2.603689
0.064300,-2.552404
0.064400,-2.420624
0.064500,-2.269692
0.064600,-2.176862
0.064700,-2.121682
0.064800,-2.090847
0.064900,-2.006455
0.065000,-1.817548
0.065100,-1.651362
0.065200,-1.484526
0.065300,-1.446875
0.065400,-1.375467
0.065500,-1.291075
0.065600,-1.198894
0.065700,-1.123266
0.065800,-0.971686
0.065900,-0.918130
0.066000,-0.874961
0.066100,-0.911639
0.066200,-0.852240
0.066300,-0.868469
0.066400,-0.840555
0.066500,-0.825949
0.066600,-0.798035
0.066700,-0.765901
0.066800,-0.766551
0.066900,-0.812966
0.067000,-0.848021
0.067100,-0.865224
0.067200,-0.836660
0.067300,-0.619840
0.067400,-0.357902
0.067500,-0.420222
0.067600,-0.598093
0.067700,-0.836985
0.067800,-0.827247
0.067900,-0.615295
0.068000,-0.459172
0.068100,-0.366341
0.068200,-0.417950
0.068300,-0.490656
0.068400,-0.589653
0.068500,-0.487086
0.068600,-0.364394
0.068700,-0.285196
0.068800,-0.248843
0.068900,-0.271239
0.069000,-0.279678
0.069100,-0.258905
0.069200,-0.241377
0.069300,-0.230017
0.069400,-0.234561
0.069500,-0.218981
0.069600,-0.253062
0.069700,-0.312136
0.069800,-0.334208
0.069900,-0.314084
0.070000,-0.410484
0.070100,-0.408537
0.070200,-0.344594
0.070300,-0.367640
0.070400,-0.412432
0.070500,-0.637042
0.070600,-0.798684
0.070700,-0.767200
0.070800,-0.611400
0.070900,-0.518895
0.071000,-0.593873
0.071100,-0.814589
0.071200,-1.024269
0.071300,-1.005443
0.071400,-0.896383
0.071500,-0.757138
0.071600,-0.779858
0.071700,-0.897682
0.071800,-1.030111
0.071900,-1.013882
0.072000,-1.041472
0.072100,-0.995056
0.072200,-1.047314
0.072300,-1.072631
0.072400,-1.117748
0.072500,-1.137873
0.072600,-1.144364
0.072700,-1.140794
0.072800,-1.167734
0.072900,-1.158970
0.073000,-1.150531
0.073100,-1.158646
0.073200,-1.182989
0.073300,-1.310550
0.073400,-1.366703
0.073500,-1.403705
0.073600,-1.305357
0.073700,-1.331324
0.073800,-1.388450
0.073900,-1.422531
0.074000,-1.440059
0.074100,-1.454989
0.074200,-1.465051
0.074300,-1.489071
0.074400,-1.501729
0.074500,-1.505949
0.074600,-1.504001
0.074700,-1.507896
0.074800,-1.504975
0.074900,-1.490694
0.075000,-1.474464
0.075100,-1.494264
0.075200,-1.482904
0.075300,-1.512116
0.075400,-1.500106
0.075500,-1.528670
0.075600,-1.702321
0.075700,-1.963935
0.075800,-2.041835
0.075900,-1.861691
0.076000,-1.683820
0.076100,-1.605271
0.076200,-1.764641
0.076300,-1.977568
0.076400,-2.152518
0.076500,-2.116814
0.076600,-1.987630
0.076700,-1.945434
0.076800,-1.973997
0.076900,-2.119086
0.077000,-2.263201
0.077100,-2.339153
0.077200,-2.332012
0.077300,-2.348891
0.077400,-2.340127
0.077500,-2.357654
0.077600,-2.388165
0.077700,-2.448862
0.077800,-2.461196
0.077900,-2.475478
0.078000,-2.541369
0.078100,-2.595899
0.078200,-2.583240
0.078300,-2.623164
0.078400,-2.667632
0.078500,-2.755918
0.078600,-2.780262
0.078700,-2.746506
0.078800,-2.547536
0.078900,-2.505340
0.079000,-2.608882
0.079100,-2.809475
0.079200,-2.933466
0.079300,-2.874716
0.079400,-2.761761
0.079500,-2.629331
0.079600,-2.622190
0.079700,-2.748778
0.079800,-2.868874
0.079900,-2.962029
0.080000,-2.915289
0.080100,-2.816940
0.080200,-2.752348
0.080300,-2.736443
0.080400,-2.772148
0.080500,-2.786429
0.080600,-2.756568
0.080700,-2.728004
0.080800,-2.672176
0.080900,-2.603689
0.081000,-2.501769
0.081100,-2.377129
0.081200,-2.320003
0.081300,-2.275859
0.081400,-2.244375
0.081500,-2.210618
0.081600,-2.080785
0.081700,-1.940241
0.081800,-1.877921
0.081900,-1.693882
0.082000,-1.650713
0.082100,-1.585147
0.082200,-1.490369
0.082300,-1.358588
0.082400,-1.231028
0.082500,-1.137548
0.082600,-1.064842
0.082700,-0.985643
0.082800,-1.018751
0.082900,-0.958379
0.083000,-0.951238
0.083100,-0.913262
0.083200,-0.863276
0.083300,-0.866846
0.083400,-0.764279
0.083500,-0.849644
0.083600,-0.774665
0.083700,-0.827247
0.083800,-0.783104
0.083900,-0.619840
0.084000,-0.426713
0.084100,-0.258905
0.084200,-0.383544
0.084300,-0.578293
0.084400,-0.745128
0.084500,-0.668202
0.084600,-0.370561
0.084700,-0.315057
0.084800,-0.238131
0.084900,-0.378675
0.085000,-0.441644
0.085100,-0.514675
0.085200,-0.360823
0.085300,-0.295907
0.085400,-0.285520
0.085500,-0.209893
0.085600,-0.284547
0.085700,-0.292337
0.085800,-0.304671
0.085900,-0.263449
0.086000,-0.267344
0.086100,-0.295582
0.086200,-0.265072
0.086300,-0.267019
0.086400,-0.284547
0.086500,-0.394255
0.086600,-0.461768
0.086700,-0.494551
0.086800,-0.425090
0.086900,-0.410160
0.087000,-0.455277
0.087100,-0.541291
0.087200,-0.813290
0.087300,-0.800307
0.087400,-0.766875
0.087500,-0.565959
0.087600,-0.619840
0.087700,-0.759085
0.087800,-0.944422
0.087900,-0.997004
0.088000,-0.972336
0.088100,-0.895734
0.088200,-0.871391
0.088300,-0.912613
0.088400,-0.967467
0.088500,-1.042445
0.088600,-1.070035
0.088700,-1.108336
0.088800,-1.084641
0.088900,-1.137223
0.089000,-1.165137
0.089100,-1.223887
0.089200,-1.219992
0.089300,-1.249529
0.089400,-1.287830
0.089500,-1.296918
0.089600,-1.269653
0.089700,-1.255696
0.089800,-1.241739
0.089900,-1.282636
0.090000,-1.382932
0.090100,-1.404679
0.090200,-1.394293
0.090300,-1.374818
0.090400,-1.330025
0.090500,-1.351772
0.090600,-1.355667
0.090700,-1.364106
0.090800,-1.356316
0.090900,-1.355343
0.091000,-1.353720
0.091100,-1.354044
0.091200,-1.346579
0.091300,-1.385529
0.091400,-1.393968
0.091500,-1.435839
0.091600,-1.442331
0.091700,-1.475438
0.091800,-1.505949
0.091900,-1.532240
0.092000,-1.582875
0.092100,-1.625395
0.092200,-1.714331
0.092300,-1.961014
0.092400,-2.163878
0.092500,-2.177186
0.092600,-1.973997
0.092700,-1.917520
0.092800,-1.907458
0.092900,-2.171668
0.093000,-2.398552
0.093100,-2.497874
0.093200,-2.413483
0.093300,-2.300852
0.093400,-2.307669
0.093500,-2.421273
0.093600,-2.589082
0.093700,-2.711126
0.093800,-2.717293
0.093900,-2.697493
0.094000,-2.678343
0.094100,-2.691326
0.094200,-2.765331
0.094300,-2.794219
0.094400,-2.792596
0.094500,-2.784157
0.094600,-2.846802
0.094700,-2.951967
0.094800,-2.920483
0.094900,-2.868874
0.095000,-2.886401
0.095100,-2.938659
0.095200,-3.024349
0.095300,-3.010392
0.095400,-2.863356
0.095500,-2.704959
0.095600,-2.707880
0.095700,-2.858162
0.095800,-3.075309
0.095900,-3.124971
0.096000,-2.996435
0.096100,-2.850697
0.096200,-2.796816
0.096300,-2.838687
0.096400,-2.999032
0.096500,-3.104522
0.096600,-3.137629
0.096700,-3.083424
0.096800,-3.006822
0.096900,-2.941905
0.097000,-2.952941
0.097100,-3.020454
0.097200,-3.058106
0.097300,-3.037333
0.097400,-2.997409
0.097500,-2.944177
0.097600,-2.868549
0.097700,-2.768902
0.097800,-2.676395
0.097900,-2.628357
0.098000,-2.592977
0.098100,-2.590381
0.098200,-2.578047
0.098300,-2.438151
0.098400,-2.376805
0.098500,-2.244699
0.098600,-2.116489
0.098700,-2.080460
0.098800,-2.010675
0.098900,-1.907458
0.099000,-1.815925
0.099100,-1.644221
0.099200,-1.565997
0.099300,-1.504001
0.099400,-1.466025
0.099500,-1.405328
0.099600,-1.341061
0.099700,-1.307954
0.099800,-1.253748
0.099900,-1.172927
0.100000,-1.181042
0.100100,-1.085615
0.100200,-1.134302
0.100300,-1.112880
0.100400,-1.108985
0.100500,-1.063868
0.100600,-0.852565
0.100700,-0.688326
0.100800,-0.546160
0.100900,-0.827897
0.101000,-1.052507
0.101100,-1.029137
0.101200,-0.861978
0.101300,-0.683133
0.101400,-0.625357
0.101500,-0.609453
0.101600,-0.704231
0.101700,-0.780832
0.101800,-0.706503
0.101900,-0.605883
0.102000,-0.484814
0.102100,-0.449110
0.102200,-0.429635
0.102300,-0.451382
0.102400,-0.477673
0.102500,-0.494226
0.102600,-0.477997
0.102700,-0.462417
0.102800,-0.490007
0.102900,-0.512728
0.103000,-0.540966
0.103100,-0.579591
0.103200,-0.628279
0.103300,-0.693195
0.103400,-0.663658
0.103500,-0.617892
0.103600,-0.600689
0.103700,-0.666255
0.103800,-0.805176
0.103900,-0.989214
0.104000,-0.948966
0.104100,-0.778560
0.104200,-0.624059
0.104300,-0.701634
0.104400,-0.838608
0.104500,-1.033357
0.104600,-1.073281
0.104700,-1.000250
0.104800,-0.889567
0.104900,-0.843477
0.105000,-0.914235
0.105100,-1.045367
0.105200,-1.093729
0.105300,-1.120345
0.105400,-1.107686
0.105500,-1.135600
0.105600,-1.176822
0.105700,-1.247581
0.105800,-1.283935
0.105900,-1.287830
0.106000,-1.311524
0.106100,-1.357290
0.106200,-1.381958
0.106300,-1.343982
0.106400,-1.344307
0.106500,-1.328727
0.106600,-1.426751
0.106700,-1.517309
0.106800,-1.527371
0.106900,-1.529319
0.107000,-1.393319
0.107100,-1.413118
0.107200,-1.431619
0.107300,-1.427075
0.107400,-1.407276
0.107500,-1.392020
0.107600,-1.389748
0.107700,-1.388125
0.107800,-1.368975
0.107900,-1.383257
0.108000,-1.363782
0.108100,-1.366054
0.108200,-1.352746
0.108300,-1.350149
0.108400,-1.360211
0.108500,-1.347553
0.108600,-1.346579
0.108700,-1.366703
0.108800,-1.401433
0.108900,-1.515362
0.109000,-1.762369
0.109100,-1.888632
0.109200,-1.795152
0.109300,-1.636106
0.109400,-1.533863
0.109500,-1.692259
0.109600,-1.907133
0.109700,-2.142456
0.109800,-2.166475
0.109900,-2.073969
0.110000,-1.992498
0.110100,-2.029501
0.110200,-2.166475
0.110300,-2.286571
0.110400,-2.381349
0.110500,-2.367716
0.110600,-2.366743
0.110700,-2.371287
0.110800,-2.348566
0.110900,-2.368690
0.111000,-2.426141
0.111100,-2.439125
0.111200,-2.435554
0.111300,-2.441397
0.111400,-2.523192
0.111500,-2.483917
0.111600,-2.462495
0.111700,-2.489760
0.111800,-2.564089
0.111900,-2.579994
0.112000,-2.542667
0.112100,-2.366418
0.112200,-2.283000
0.112300,-2.337206
0.112400,-2.536824
0.112500,-2.698792
0.112600,-2.695870
0.112700,-2.587784
0.112800,-2.387191
0.112900,-2.354409
0.113000,-2.489760
0.113100,-2.659192
0.113200,-2.803308
0.113300,-2.768902
0.113400,-2.690353
0.113500,-2.631278
0.113600,-2.606610
0.113700,-2.655622
0.113800,-2.671202
0.113900,-2.677045
0.114000,-2.673474
0.114100,-2.628357
0.114200,-2.594600
0.114300,-2.470934
0.114400,-2.370962
0.114500,-2.280728
0.114600,-2.244050
0.114700,-2.202828
0.114800,-2.198933
0.114900,-2.111620
0.115000,-1.930828
0.115100,-1.858770
0.115200,-1.655906
0.115300,-1.630264
0.115400,-1.575085
0.115500,-1.479333
0.115600,-1.356641
0.115700,-1.256020
0.115800,-1.121319
0.115900,-1.064842
0.116000,-1.000899
0.116100,-1.004145
0.116200,-0.960975
0.116300,-0.965195
0.116400,-0.969090
0.116500,-0.917157
0.116600,-0.897357
0.116700,-0.865548
0.116800,-0.882102
0.116900,-0.911639
0.117000,-0.947018
0.117100,-0.995056
0.117200,-0.895085
0.117300,-0.765252
0.117400,-0.487735
0.117500,-0.696766
0.117600,-0.841529
0.117700,-1.203114
0.117800,-1.000899
0.117900,-0.943448
0.118000,-0.729224
0.118100,-0.657167
0.118200,-0.805825
0.118300,-0.912937
0.118400,-1.034006
0.118500,-0.884049
0.118600,-0.817185
0.118700,-0.747725
0.118800,-0.698713
0.118900,-0.807448
0.119000,-0.752918
0.119100,-0.773367
0.119200,-0.745128
0.119300,-0.749997
0.119400,-0.727601
0.119500,-0.737338
0.119600,-0.742856
0.119700,-0.759085
0.119800,-0.807448
0.119900,-0.841204
0.120000,-0.936307
0.120100,-0.896059
0.120200,-0.853863
0.120300,-0.816212
0.120400,-0.858083
0.120500,-1.134302
0.120600,-1.166436
0.120700,-1.127486
0.120800,-0.878531
0.120900,-0.850293
0.121000,-0.873338
0.121100,-1.130083
0.121200,-1.260565
0.121300,-1.205386
0.121400,-1.063219
0.121500,-0.903849
0.121600,-0.959677
0.121700,-1.061596
0.121800,-1.149557
0.121900,-1.180717
0.122000,-1.177796
0.122100,-1.134951
0.122200,-1.171954
0.122300,-1.248230
0.122400,-1.309577
0.122500,-1.290751
0.122600,-1.285557
0.122700,-1.346254
0.122800,-1.357615
0.122900,-1.368651
0.123000,-1.343658
0.123100,-1.330674
0.123200,-1.384555
0.123300,-1.518608
0.123400,-1.595534
0.123500,-1.592937
0.123600,-1.510493
0.123700,-1.521529
0.123800,-1.572164
0.123900,-1.588393
0.124000,-1.575410
0.124100,-1.591963
0.124200,-1.594235
0.124300,-1.597806
0.124400,-1.613386
0.124500,-1.595534
0.124600,-1.606245
0.124700,-1.585796
0.124800,-1.602999
0.124900,-1.605271
0.125000,-1.642274
0.125100,-1.626044
0.125200,-1.668889
0.125300,-1.688689
0.125400,-1.706216
0.125500,-1.770808
0.125600,-1.945434
0.125700,-2.202504
0.125800,-2.284623
0.125900,-2.097988
0.126000,-1.962637
0.126100,-1.883439
0.126200,-2.161931
0.126300,-2.392060
0.126400,-2.550782
0.126500,-2.490409
0.126600,-2.386542
0.126700,-2.325521
0.126800,-2.407640
0.126900,-2.603040
0.127000,-2.726057
0.127100,-2.780587
0.127200,-2.754945
0.127300,-2.727680
0.127400,-2.755269
0.127500,-2.801685
0.127600,-2.817914
0.127700,-2.859461
0.127800,-2.859785
0.127900,-2.833494
0.128000,-2.897112
0.128100,-2.939308
0.128200,-2.946774
0.128300,-2.926325
0.128400,-2.960406
0.128500,-3.001304
0.128600,-2.984750
0.128700,-2.959433
0.128800,-2.759813
0.128900,-2.683861
0.129000,-2.795518
0.129100,-3.031166
0.129200,-3.150288
0.129300,-3.135682
0.129400,-2.925351
0.129500,-2.734496
0.129600,-2.781236
0.129700,-2.970468
0.129800,-3.173009
0.129900,-3.205792
0.130000,-3.096407
0.130100,-3.000006
0.130200,-2.973714
0.130300,-3.009094
0.130400,-3.086345
0.130500,-3.071090
0.130600,-3.035385
0.130700,-2.996111
0.130800,-2.927623
0.130900,-2.880559
0.131000,-2.737417
0.131100,-2.607259
0.131200,-2.498524
0.131300,-2.454380
0.131400,-2.427764
0.131500,-2.380375
0.131600,-2.226198
0.131700,-2.093119
0.131800,-1.953548
0.131900,-1.807162
0.132000,-1.773080
0.132100,-1.686741
0.132200,-1.601052
0.132300,-1.486799
0.132400,-1.321586
0.132500,-1.236546
0.132600,-1.158646
0.132700,-1.156374
0.132800,-1.090159
0.132900,-1.055429
0.133000,-1.022321
0.133100,-1.029462
0.133200,-0.960651
0.133300,-1.001223
0.133400,-0.948966
0.133500,-0.994732
0.133600,-0.957080
0.133700,-0.972011
0.133800,-0.974283
0.133900,-0.758111
0.134000,-0.665606
0.134100,-0.408537
0.134200,-0.683133
0.134300,-0.907095
0.134400,-0.960975
0.134500,-0.888593
0.134600,-0.647104
0.134700,-0.588031
0.134800,-0.570179
0.134900,-0.717214
0.135000,-0.860679
0.135100,-0.764928
0.135200,-0.746102
0.135300,-0.582513
0.135400,-0.616594
0.135500,-0.578618
0.135600,-0.610427
0.135700,-0.618217
0.135800,-0.608155
0.135900,-0.642560
0.136000,-0.619190
0.136100,-0.635095
0.136200,-0.615945
0.136300,-0.693195
0.136400,-0.751944
0.136500,-0.781806
0.136600,-0.865873
0.136700,-0.883076
0.136800,-0.933386
0.136900,-0.868469
0.137000,-0.882102
0.137100,-0.991811
0.137200,-1.195324
0.137300,-1.287180
0.137400,-1.159295
0.137500,-0.961949
0.137600,-0.935982
0.137700,-1.105414
0.137800,-1.358264
0.137900,-1.397538
0.138000,-1.292049
0.138100,-1.117748
0.138200,-1.057701
0.138300,-1.139495
0.138400,-1.215123
0.138500,-1.198569
0.138600,-1.199543
0.138700,-1.148584
0.138800,-1.155725
0.138900,-1.180717
0.139000,-1.197920
0.139100,-1.154751
0.139200,-1.127161
0.139300,-1.131705
0.139400,-1.159295
0.139500,-1.133004
0.139600,-1.071982
0.139700,-1.047314
0.139800,-1.008364
0.139900,-1.034655
0.140000,-1.116126
0.140100,-1.090808
0.140200,-1.080746
0.140300,-1.055753
0.140400,-0.992784
0.140500,-1.011935
0.140600,-0.989863
0.140700,-0.995056
0.140800,-1.001223
0.140900,-1.035629
0.141000,-1.051858
0.141100,-1.056402
0.141200,-1.085939
0.141300,-1.104765
0.141400,-1.161242
0.141500,-1.170331
0.141600,-1.205061
0.141700,-1.223562
0.141800,-1.282636
0.141900,-1.321261
0.142000,-1.377414
0.142100,-1.419285
0.142200,-1.532889
0.142300,-1.765940
0.142400,-1.972699
0.142500,-1.957443
0.142600,-1.779897
0.142700,-1.689013
0.142800,-1.746465
0.142900,-2.005482
0.143000,-2.231067
0.143100,-2.299879
0.143200,-2.205100
0.143300,-2.117463
0.143400,-2.154790
0.143500,-2.295334
0.143600,-2.469636
0.143700,-2.563116
0.143800,-2.563765
0.143900,-2.571555
0.144000,-2.595574
0.144100,-2.640367
0.144200,-2.689703
0.144300,-2.733198
0.144400,-2.771498
0.144500,-2.839337
0.144600,-2.902630
0.144700,-2.961705
0.144800,-2.987347
0.144900,-2.947748
0.145000,-2.986373
0.145100,-3.008445
0.145200,-3.043825
0.145300,-3.099653
0.145400,-2.973065
0.145500,-2.846477
0.145600,-2.819861
0.145700,-2.950993
0.145800,-3.110689
0.145900,-3.209687
0.146000,-3.055510
0.146100,-2.867251
0.146200,-2.793246
0.146300,-2.919509
0.146400,-3.075958
0.146500,-3.139901
0.146600,-3.062001
0.146700,-2.942879
0.146800,-2.890945
0.146900,-2.872120
0.147000,-2.869523
0.147100,-2.859785
0.147200,-2.826353
0.147300,-2.810773
0.147400,-2.773121
0.147500,-2.727355
0.147600,-2.627383
0.147700,-2.498848
0.147800,-2.391411
0.147900,-2.339153
0.148000,-2.307344
0.148100,-2.267096
0.148200,-2.183029
0.148300,-2.031448
0.148400,-1.951925
0.148500,-1.746789
0.148600,-1.725367
0.148700,-1.658503
0.148800,-1.583524
0.148900,-1.494588
0.149000,-1.425128
0.149100,-1.301462
0.149200,-1.250503
0.149300,-1.205710
0.149400,-1.211228
0.149500,-1.196297
0.149600,-1.164813
0.149700,-1.207009
0.149800,-1.190779
0.149900,-1.185586
0.150000,-1.172603
0.150100,-1.175199
0.150200,-1.193051
0.150300,-1.196622
0.150400,-1.221615
0.150500,-1.134627
0.150600,-0.973634
0.150700,-0.634446
0.150800,-0.722407
0.150900,-0.921701
0.151000,-1.171954
0.151100,-1.034655
0.151200,-0.807448
0.151300,-0.621463
0.151400,-0.490007
0.151500,-0.626007
0.151600,-0.723706
0.151700,-0.756489
0.151800,-0.616594
0.151900,-0.440995
0.152000,-0.365043
0.152100,-0.308890
0.152200,-0.380947
0.152300,-0.355305
0.152400,-0.347515
0.152500,-0.271888
0.152600,-0.274809
0.152700,-0.258905
0.152800,-0.226122
0.152900,-0.194313
0.153000,-0.228069
0.153100,-0.280652
0.153200,-0.271239
0.153300,-0.343296
0.153400,-0.404317
0.153500,-0.369912
0.153600,-0.370236
0.153700,-0.429310
0.153800,-0.658140
0.153900,-0.814589
0.154000,-0.806799
0.154100,-0.617892
0.154200,-0.538370
0.154300,-0.583811
0.154400,-0.842178
0.154500,-0.991161
0.154600,-0.959028
0.154700,-0.837959
0.154800,-0.721434
0.154900,-0.796088
0.155000,-0.903524
0.155100,-1.004469
0.155200,-0.966169
0.155300,-0.955782
0.155400,-0.897682
0.155500,-0.972985
0.155600,-1.034006
0.155700,-1.060297
0.155800,-1.049262
0.155900,-1.033032
0.156000,-1.072631
0.156100,-1.129758
0.156200,-1.132030
0.156300,-1.131381
0.156400,-1.139171
0.156500,-1.162216
0.156600,-1.293997
0.156700,-1.380985
0.156800,-1.413118
0.156900,-1.433242
0.157000,-1.392020
0.157100,-1.438111
0.157200,-1.457586
0.157300,-1.479009
0.157400,-1.479982
0.157500,-1.479658
0.157600,-1.457262
0.157700,-1.474789
0.157800,-1.464727
0.157900,-1.486474
0.158000,-1.517958
0.158100,-1.540030
0.158200,-1.537433
0.158300,-1.549443
0.158400,-1.553013
0.158500,-1.588393
0.158600,-1.615658
0.158700,-1.661099
0.158800,-1.689338
0.158900,-1.886684
0.159000,-2.130771
0.159100,-2.244699
0.159200,-2.094417
0.159300,-1.936021
0.159400,-1.855849
0.159500,-2.021062
0.159600,-2.342724
0.159700,-2.451134
0.159800,-2.429712
0.159900,-2.279754
0.160000,-2.229119
0.160100,-2.298905
0.160200,-2.510209
0.160300,-2.677045
0.160400,-2.749427
0.160500,-2.743909
0.160600,-2.713723
0.160700,-2.761436
0.160800,-2.859136
0.160900,-2.916263
0.161000,-2.969495
0.161100,-2.929895
0.161200,-2.980855
0.161300,-3.028569
0.161400,-3.093810
0.161500,-3.126594
0.161600,-3.140551
0.161700,-3.149964
0.161800,-3.187940
0.161900,-3.228188
0.162000,-3.185668
0.162100,-3.031490
0.162200,-2.968846
0.162300,-3.042526
0.162400,-3.216503
0.162500,-3.363540
0.162600,-3.355101
0.162700,-3.148665
0.162800,-2.954888
0.162900,-2.963652
0.163000,-3.135357
0.163100,-3.301869
0.163200,-3.325564
0.163300,-3.215530
0.163400,-3.083424
0.163500,-3.031166
0.163600,-3.050965
0.163700,-3.096083
0.163800,-3.107443
0.163900,-3.067844
0.164000,-2.987347
0.164100,-2.916588
0.164200,-2.841933
0.164300,-2.767603
0.164400,-2.655947
0.164500,-2.558572
0.164600,-2.500147
0.164700,-2.446915
0.164800,-2.414456
0.164900,-2.260604
0.165000,-2.114217
0.165100,-1.949329
0.165200,-1.811706
0.165300,-1.793854
0.165400,-1.727314
0.165500,-1.630264
0.165600,-1.493290
0.165700,-1.355343
0.165800,-1.244335
0.165900,-1.200517
0.166000,-1.168708
0.166100,-1.120994
0.166200,-1.080421
0.166300,-1.037252
0.166400,-0.967142
0.166500,-0.927543
0.166600,-0.878856
0.166700,-0.890541
0.166800,-0.850293
0.166900,-0.896383
0.167000,-0.859706
0.167100,-0.855162
0.167200,-0.741882
0.167300,-0.515649
0.167400,-0.350761
0.167500,-0.464365
0.167600,-0.722732
0.167700,-0.791868
0.167800,-0.610102
0.167900,-0.482217
0.168000,-0.239430
0.168100,-0.342971
0.168200,-0.394255
0.168300,-0.545186
0.168400,-0.502666
0.168500,-0.358876
0.168600,-0.248843
0.168700,-0.143354
0.168800,-0.214762
0.168900,-0.306294
0.169000,-0.304021
0.169100,-0.280976
0.169200,-0.220604
0.169300,-0.210542
0.169400,-0.209568
0.169500,-0.211840
0.169600,-0.220279
0.169700,-0.322523
0.169800,-0.310838
0.169900,-0.318303
0.170000,-0.343296
0.170100,-0.310513
0.170200,-0.291687
0.170300,-0.254360
0.170400,-0.433854
0.170500,-0.606207
0.170600,-0.687028
0.170700,-0.586083
0.170800,-0.451706
0.170900,-0.367315
0.171000,-0.519868
0.171100,-0.760384
0.171200,-0.858083
0.171300,-0.779858
0.171400,-0.655219
0.171500,-0.604909
0.171600,-0.699038
0.171700,-0.813290
0.171800,-0.890541
0.171900,-0.906770
0.172000,-0.894111
0.172100,-0.874961
0.172200,-0.943448
0.172300,-1.011610
0.172400,-1.024269
0.172500,-0.989863
0.172600,-1.003820
0.172700,-1.039849
0.172800,-1.054130
0.172900,-1.024918
0.173000,-1.013882
0.173100,-0.986942
0.173200,-1.031410
0.173300,-1.151180
0.173400,-1.200517
0.173500,-1.196946
0.173600,-1.189806
0.173700,-1.119047
0.173800,-1.151505
0.173900,-1.165462
0.174000,-1.149882
0.174100,-1.144364
0.174200,-1.152154
0.174300,-1.140469
0.174400,-1.174875
0.174500,-1.186884
0.174600,-1.214149
0.174700,-1.223238
0.174800,-1.225834
0.174900,-1.256345
0.175000,-1.251801
0.175100,-1.280689
0.175200,-1.321911
0.175300,-1.343333
0.175400,-1.413118
0.175500,-1.488097
0.175600,-1.726016
0.175700,-1.951925
0.175800,-1.937644
0.175900,-1.828259
0.176000,-1.664670
0.176100,-1.734130
0.176200,-1.961338
0.176300,-2.225549
0.176400,-2.309941
0.176500,-2.219706
0.176600,-2.121682
0.176700,-2.088900
0.176800,-2.228470
0.176900,-2.388490
0.177000,-2.505015
0.177100,-2.492357
0.177200,-2.479049
0.177300,-2.463793
0.177400,-2.527736
0.177500,-2.544939
0.177600,-2.580319
0.177700,-2.580319
0.177800,-2.602715
0.177900,-2.671527
0.178000,-2.686458
0.178100,-2.758840
0.178200,-2.773446
0.178300,-2.765331
0.178400,-2.798764
0.178500,-2.828625
0.178600,-2.871146
0.178700,-2.793895
0.178800,-2.681913
0.178900,-2.691002
0.179000,-2.827002
0.179100,-3.042202
0.179200,-3.170737
0.179300,-3.106469
0.179400,-2.918860
0.179500,-2.814344
0.179600,-2.927623
0.179700,-3.137954
0.179800,-3.268762
0.179900,-3.262919
0.180000,-3.155482
0.180100,-3.078555
0.180200,-3.068168
0.180300,-3.086020
0.180400,-3.105496
0.180500,-3.086670
0.180600,-3.066221
0.180700,-3.015261
0.180800,-2.971118
0.180900,-2.900683
0.181000,-2.800062
0.181100,-2.680615
0.181200,-2.606610
0.181300,-2.576099
0.181400,-2.557598
0.181500,-2.497225
0.181600,-2.315783
0.181700,-2.208022
0.181800,-1.980489
0.181900,-1.955496
0.182000,-1.899343
0.182100,-1.831830
0.182200,-1.719200
0.182300,-1.624746
0.182400,-1.463429
0.182500,-1.392670
0.182600,-1.326779
0.182700,-1.303085
0.182800,-1.290102
0.182900,-1.246608
0.183000,-1.249529
0.183100,-1.136574
0.183200,-1.120020
0.183300,-0.995056
0.183400,-1.049911
0.183500,-0.970064
0.183600,-1.013233
0.183700,-1.001223
0.183800,-0.866522
0.183900,-0.712670
0.184000,-0.376728
0.184100,-0.299477
0.184200,-0.398150
0.184300,-0.675343
0.184400,-0.642560
0.184500,-0.389062
0.184600,-0.255659
0.184700,-0.084280
0.184800,-0.174838
0.184900,-0.254685
0.185000,-0.343296
0.185100,-0.274809
0.185200,-0.129721
0.185300,-0.026504
0.185400,-0.045330
0.185500,-0.044681
0.185600,-0.128423
0.185700,-0.103105
0.185800,-0.114141
0.185900,-0.094342
0.186000,-0.104728
0.186100,-0.135239
0.186200,-0.158609
0.186300,-0.210542
0.186400,-0.315057
0.186500,-0.356604
0.186600,-0.400422
0.186700,-0.448136
0.186800,-0.410160
0.186900,-0.462417
0.187000,-0.431582
0.187100,-0.649052
0.187200,-0.795114
0.187300,-0.796088
0.187400,-0.708126
0.187500,-0.542265
0.187600,-0.605558
0.187700,-0.801930
0.187800,-1.049911
0.187900,-1.119371
0.188000,-1.013882
0.188100,-0.921376
0.188200,-0.907095
0.188300,-1.046340
0.188400,-1.195648
0.188500,-1.248880
0.188600,-1.292698
0.188700,-1.270627
0.188800,-1.304708
0.188900,-1.380660
0.189000,-1.448173
0.189100,-1.478035
0.189200,-1.467648
0.189300,-1.490694
0.189400,-1.523476
0.189500,-1.514388
0.189600,-1.467973
0.189700,-1.454340
0.189800,-1.423505
0.189900,-1.503677
0.190000,-1.558856
0.190100,-1.555610
0.190200,-1.518608
0.190300,-1.416689
0.190400,-1.401758
0.190500,-1.372221
0.190600,-1.346903
0.190700,-1.285557
0.190800,-1.265758
0.190900,-1.242713
0.191000,-1.200192
0.191100,-1.188832
0.191200,-1.153452
0.191300,-1.135600
0.191400,-1.124565
0.191500,-1.135276
0.191600,-1.092756
0.191700,-1.109634
0.191800,-1.075228
0.191900,-1.082694
0.192000,-1.126512
0.192100,-1.156049
0.192200,-1.277767
0.192300,-1.543925
0.192400,-1.693882
0.192500,-1.594560
0.192600,-1.381309
0.192700,-1.304059
0.192800,-1.419285
0.192900,-1.799047
0.193000,-2.004833
0.193100,-2.064231
0.193200,-1.977243
0.193300,-1.872403
0.193400,-1.955820
0.193500,-2.138236
0.193600,-2.336556
0.193700,-2.459249
0.193800,-2.508261
0.193900,-2.497225
0.194000,-2.528710
0.194100,-2.602715
0.194200,-2.655297
0.194300,-2.725408
0.194400,-2.772797
0.194500,-2.816291
0.194600,-2.876015
0.194700,-2.947748
0.194800,-2.958134
0.194900,-2.968196
0.195000,-2.977934
0.195100,-3.021428
0.195200,-3.090240
0.195300,-3.051939
0.195400,-2.944502
0.195500,-2.832520
0.195600,-2.877637
0.195700,-3.032139
0.195800,-3.210336
0.195900,-3.265516
0.196000,-3.125295
0.196100,-2.963652
0.196200,-2.978583
0.196300,-3.129839
0.196400,-3.329134
0.196500,-3.415798
0.196600,-3.411254
0.196700,-3.304141
0.196800,-3.235329
0.196900,-3.247014
0.197000,-3.277525
0.197100,-3.297000
0.197200,-3.262594
0.197300,-3.241172
0.197400,-3.200599
0.197500,-3.143472
0.197600,-3.075958
0.197700,-2.932817
0.197800,-2.815966
0.197900,-2.763708
0.198000,-2.710152
0.198100,-2.683861
0.198200,-2.526113
0.198300,-2.332661
0.198400,-2.163878
0.198500,-1.959715
0.198600,-1.903563
0.198700,-1.808135
0.198800,-1.678302
0.198900,-1.546846
0.199000,-1.396240
0.199100,-1.239791
0.199200,-1.133978
0.199300,-1.037901
0.199400,-0.998627
0.199500,-0.942474
0.199600,-0.851591
0.199700,-0.851916
0.199800,-0.734417
0.199900,-0.753243
0.200000,-0.648403
0.200100,-0.692546
0.200200,-0.681186
0.200300,-0.632174
0.200400,-0.673071
0.200500,-0.516298
0.200600,-0.346217
0.200700,-0.047277
0.200800,-0.136213
0.200900,-0.386141
0.201000,-0.579591
0.201100,-0.473129
0.201200,-0.275458
0.201300,-0.145301
0.201400,-0.066103
0.201500,-0.240079
0.201600,-0.405940
0.201700,-0.365692
0.201800,-0.332585
0.201900,-0.173864
0.202000,-0.121607
0.202100,-0.122256
0.202200,-0.152766
0.202300,-0.175812
0.202400,-0.179382
0.202500,-0.148871
0.202600,-0.154065
0.202700,-0.152766
0.202800,-0.145626
0.202900,-0.098237
0.203000,-0.182303
0.203100,-0.221578
0.203200,-0.320251
0.203300,-0.327067
0.203400,-0.348165
0.203500,-0.279678
0.203600,-0.312785
0.203700,-0.290714
0.203800,-0.608479
0.203900,-0.671773
0.204000,-0.625357
0.204100,-0.428985
0.204200,-0.347515
0.204300,-0.448460
0.204400,-0.697739
0.204500,-0.817835
0.204600,-0.811018
0.204700,-0.664632
0.204800,-0.576346
0.204900,-0.616918
0.205000,-0.742207
0.205100,-0.826274
0.205200,-0.818808
0.205300,-0.834064
0.205400,-0.833090
0.205500,-0.898331
0.205600,-0.961300
0.205700,-0.972985
0.205800,-0.958703
0.205900,-0.974932
0.206000,-1.045367
0.206100,-1.061920
0.206200,-1.086589
0.206300,-1.059648
0.206400,-1.046990
0.206500,-1.050560
0.206600,-1.171304
0.206700,-1.216097
0.206800,-1.205061
0.206900,-1.201815
0.207000,-1.123591
0.207100,-1.172603
0.207200,-1.160269
0.207300,-1.142417
0.207400,-1.159620
0.207500,-1.171629
0.207600,-1.186884
0.207700,-1.191753
0.207800,-1.211228
0.207900,-1.200841
0.208000,-1.227133
0.208100,-1.261863
0.208200,-1.274846
0.208300,-1.311524
0.208400,-1.346579
0.208500,-1.400460
0.208600,-1.464078
0.208700,-1.536460
0.208800,-1.585472
0.208900,-1.811706
0.209000,-2.088575
0.209100,-2.175888
0.209200,-2.045405
0.209300,-1.861691
0.209400,-1.877596
0.209500,-2.079487
0.209600,-2.385569
0.209700,-2.491058
0.209800,-2.449836
0.209900,-2.283325
0.210000,-2.217110
0.210100,-2.304747
0.210200,-2.425492
0.210300,-2.502094
0.210400,-2.476452
0.210500,-2.422571
0.210600,-2.349215
0.210700,-2.342399
0.210800,-2.346943
0.210900,-2.331363
0.211000,-2.320003
0.211100,-2.269043
0.211200,-2.317406
0.211300,-2.337206
0.211400,-2.397578
0.211500,-2.362848
0.211600,-2.360576
0.211700,-2.390113
0.211800,-2.443344
0.211900,-2.484567
0.212000,-2.394981
0.212100,-2.285272
0.212200,-2.197959
0.212300,-2.297931
0.212400,-2.536500
0.212500,-2.667632
0.212600,-2.594925
0.212700,-2.428089
0.212800,-2.321950
0.212900,-2.422246
0.213000,-2.601417
0.213100,-2.761112
0.213200,-2.766954
0.213300,-2.664386
0.213400,-2.587784
0.213500,-2.587459
0.213600,-2.619593
0.213700,-2.641990
0.213800,-2.617970
0.213900,-2.580319
0.214000,-2.552080
0.214100,-2.547211
0.214200,-2.506314
0.214300,-2.398227
0.214400,-2.273263
0.214500,-2.211592
0.214600,-2.207697
0.214700,-2.212566
0.214800,-2.195687
0.214900,-2.078188
0.215000,-1.967830
0.215100,-1.777625
0.215200,-1.755553
0.215300,-1.733157
0.215400,-1.712708
0.215500,-1.666617
0.215600,-1.598455
0.215700,-1.485825
0.215800,-1.433242
0.215900,-1.420908
0.216000,-1.389424
0.216100,-1.394293
0.216200,-1.353720
0.216300,-1.330350
0.216400,-1.278092
0.216500,-1.201491
0.216600,-1.187858
0.216700,-1.132679
0.216800,-1.141768
0.216900,-1.096326
0.217000,-1.107362
0.217100,-1.053157
0.217200,-0.886971
0.217300,-0.590952
0.217400,-0.499744
0.217500,-0.600689
0.217600,-0.911963
0.217700,-0.955457
0.217800,-0.831792
0.217900,-0.564012
0.218000,-0.456900
0.218100,-0.444890
0.218200,-0.611400
0.218300,-0.677615
0.218400,-0.634446
0.218500,-0.510780
0.218600,-0.372833
0.218700,-0.384842
0.218800,-0.399449
0.218900,-0.432231
0.219000,-0.408212
0.219100,-0.451057
0.219200,-0.427363
0.219300,-0.429959
0.219400,-0.456900
0.219500,-0.477024
0.219600,-0.481892
0.219700,-0.605233
0.219800,-0.651324
0.219900,-0.705529
0.220000,-0.735391
0.220100,-0.689625
0.220200,-0.693844
0.220300,-0.686054
0.220400,-0.824651
0.220500,-1.026541
0.220600,-1.040822
0.220700,-0.935982
0.220800,-0.759410
0.220900,-0.742207
0.221000,-0.895410
0.221100,-1.111257
0.221200,-1.140794
0.221300,-1.069061
0.221400,-0.918780
0.221500,-0.862302
0.221600,-0.961949
0.221700,-1.069061
0.221800,-1.093080
0.221900,-1.094054
0.222000,-1.074904
0.222100,-1.111906
0.222200,-1.167085
0.222300,-1.224861
0.222400,-1.229729
0.222500,-1.220641
0.222600,-1.249853
0.222700,-1.300488
0.222800,-1.302436
0.222900,-1.298541
0.223000,-1.275171
0.223100,-1.269977
0.223200,-1.342684
0.223300,-1.439085
0.223400,-1.466350
0.223500,-1.479333
0.223600,-1.413767
0.223700,-1.436488
0.223800,-1.442655
0.223900,-1.441357
0.224000,-1.421882
0.224100,-1.434216
0.224200,-1.414741
0.224300,-1.395266
0.224400,-1.368651
0.224500,-1.348851
0.224600,-1.333596
0.224700,-1.308927
0.224800,-1.299839
0.224900,-1.267056
0.225000,-1.254398
0.225100,-1.248555
0.225200,-1.274197
0.225300,-1.301137
0.225400,-1.352746
0.225500,-1.435190
0.225600,-1.704918
0.225700,-1.862665
0.225800,-1.812355
0.225900,-1.620202
0.226000,-1.525748
0.226100,-1.576708
0.226200,-1.907133
0.226300,-2.099935
0.226400,-2.206723
0.226500,-2.059038
0.226600,-1.962961
0.226700,-1.956794
0.226800,-2.145052
0.226900,-2.249244
0.227000,-2.349215
0.227100,-2.330389
0.227200,-2.306046
0.227300,-2.279754
0.227400,-2.320327
0.227500,-2.370313
0.227600,-2.420948
0.227700,-2.452757
0.227800,-2.456652
0.227900,-2.522218
0.228000,-2.594600
0.228100,-2.635822
0.228200,-2.590056
0.228300,-2.584863
0.228400,-2.652052
0.228500,-2.703336
0.228600,-2.767279
0.228700,-2.666982
0.228800,-2.566686
0.228900,-2.606610
0.229000,-2.723135
0.229100,-2.913342
0.229200,-3.013314
0.229300,-2.886077
0.229400,-2.721513
0.229500,-2.657894
0.229600,-2.778639
0.229700,-2.963652
0.229800,-3.067519
0.229900,-3.032789
0.230000,-2.911394
0.230100,-2.807527
0.230200,-2.802983
0.230300,-2.824406
0.230400,-2.855890
0.230500,-2.829599
0.230600,-2.799413
0.230700,-2.752023
0.230800,-2.715021
0.230900,-2.637770
0.231000,-2.517999
0.231100,-2.369339
0.231200,-2.302151
0.231300,-2.237883
0.231400,-2.182704
0.231500,-2.071697
0.231600,-1.881491
0.231700,-1.750035
0.231800,-1.566646
0.231900,-1.511467
0.232000,-1.451419
0.232100,-1.375142
0.232200,-1.273223
0.232300,-1.161892
0.232400,-1.022646
0.232500,-0.980126
0.232600,-0.906445
0.232700,-0.933061
0.232800,-0.884049
0.232900,-0.866846
0.233000,-0.844126
0.233100,-0.818808
0.233200,-0.750971
0.233300,-0.723057
0.233400,-0.730847
0.233500,-0.712021
0.233600,-0.765901
0.233700,-0.721758
0.233800,-0.636393
0.233900,-0.444241
0.234000,-0.159583
0.234100,-0.193015
0.234200,-0.398799
0.234300,-0.676641
0.234400,-0.528308
0.234500,-0.405616
0.234600,-0.157960
0.234700,-0.055716
0.234800,-0.168671
0.234900,-0.224174
0.235000,-0.320575
0.235100,-0.155363
0.235200,-0.056041
0.235300,0.042632
0.235400,0.041658
0.235500,0.032245
0.235600,0.015042
0.235700,0.028999
0.235800,0.033543
0.235900,0.030622
0.236000,0.043605
0.236100,0.021209
0.236200,0.030622
0.236300,0.020560
0.236400,-0.109272
0.236500,-0.049225
0.236600,-0.179707
0.236700,-0.171917
0.236800,-0.154065
0.236900,-0.161530
0.237000,-0.185549
0.237100,-0.419248
0.237200,-0.505911
0.237300,-0.492279
0.237400,-0.329988
0.237500,-0.210542
0.237600,-0.301100
0.237700,-0.535448
0.237800,-0.712995
0.237900,-0.697090
0.238000,-0.594198
0.238100,-0.489358
0.238200,-0.510456
0.238300,-0.657491
0.238400,-0.771095
0.238500,-0.796412
0.238600,-0.816536
0.238700,-0.801281
0.238800,-0.898655
0.238900,-0.968765
0.239000,-1.043419
0.239100,-1.053806
0.239200,-1.073930
0.239300,-1.135276
0.239400,-1.204087
0.239500,-1.230703
0.239600,-1.216421
0.239700,-1.205386
0.239800,-1.212526
0.239900,-1.338464
0.240000,-1.423505
0.240100,-1.429023
0.240200,-1.420584
0.240300,-1.321261
0.240400,-1.352097
0.240500,-1.319963
0.240600,-1.314445
0.240700,-1.278092
0.240800,-1.257319
0.240900,-1.260240
0.241000,-1.243037
0.241100,-1.227782
0.241200,-1.217395
0.241300,-1.183314
0.241400,-1.198569
0.241500,-1.191104
0.241600,-1.177796
0.241700,-1.192727
0.241800,-1.203114
0.241900,-1.216746
0.242000,-1.241414
0.242100,-1.285882
0.242200,-1.462455
0.242300,-1.742894
0.242400,-1.845787
0.242500,-1.732508
0.242600,-1.552364
0.242700,-1.474140
0.242800,-1.638703
0.242900,-1.926933
0.243000,-2.101558
0.243100,-2.106102
0.243200,-1.969453
0.243300,-1.904536
0.243400,-1.998016
0.243500,-2.171668
0.243600,-2.295334
0.243700,-2.349864
0.243800,-2.310914
0.243900,-2.302800
0.244000,-2.295659
0.244100,-2.323249
0.244200,-2.369339
0.244300,-2.371287
0.244400,-2.324547
0.244500,-2.346619
0.244600,-2.396604
0.244700,-2.419650
0.244800,-2.399526
0.244900,-2.371936
0.245000,-2.368366
0.245100,-2.439125
0.245200,-2.443020
0.245300,-2.448213
0.245400,-2.300852
0.245500,-2.190819
0.245600,-2.267420
0.245700,-2.427440
0.245800,-2.596223
0.245900,-2.579345
0.246000,-2.421597
0.246100,-2.267096
0.246200,-2.268719
0.246300,-2.422246
0.246400,-2.626734
0.246500,-2.693274
0.246600,-2.627383
0.246700,-2.506314
0.246800,-2.457626
0.246900,-2.468662
0.247000,-2.504042
0.247100,-2.523192
0.247200,-2.509559
0.247300,-2.470934
0.247400,-2.434581
0.247500,-2.398876
0.247600,-2.344346
0.247700,-2.211267
0.247800,-2.134341
0.247900,-2.095067
0.248000,-2.086952
0.248100,-2.084355
0.248200,-1.944460
0.248300,-1.799696
0.248400,-1.586445
0.248500,-1.498808
0.248600,-1.467648
0.248700,-1.413443
0.248800,-1.313796
0.248900,-1.224861
0.249000,-1.096001
0.249100,-1.020698
0.249200,-0.974608
0.249300,-0.955782
0.249400,-0.952536
0.249500,-0.925596
0.249600,-0.938904
0.249700,-0.897033
0.249800,-0.873987
0.249900,-0.859706
0.250000,-0.855811
0.250100,-0.896059
0.250200,-0.902875
0.250300,-0.967467
0.250400,-0.866846
0.250500,-0.810045
0.250600,-0.453978
0.250700,-0.433854
0.250800,-0.435153
0.250900,-0.808422
0.251000,-0.935982
0.251100,-0.732794
0.251200,-0.567257
0.251300,-0.375105
0.251400,-0.408861
0.251500,-0.525386
0.251600,-0.636718
0.251700,-0.601338
0.251800,-0.441969
0.251900,-0.322847
0.252000,-0.262150
0.252100,-0.331286
0.252200,-0.326742
0.252300,-0.351086
0.252400,-0.346217
0.252500,-0.313110
0.252600,-0.304671
0.252700,-0.312136
0.252800,-0.314408
0.252900,-0.314084
0.253000,-0.452031
0.253100,-0.486761
0.253200,-0.542914
0.253300,-0.515000
0.253400,-0.495525
0.253500,-0.462417
0.253600,-0.486761
0.253700,-0.536422
0.253800,-0.829520
0.253900,-0.816861
0.254000,-0.766875
0.254100,-0.576021
0.254200,-0.514350
0.254300,-0.650675
0.254400,-0.874312
0.254500,-0.961300
0.254600,-0.910990
0.254700,-0.737338
0.254800,-0.619190
0.254900,-0.650675
0.255000,-0.744479
0.255100,-0.793491
0.255200,-0.771419
0.255300,-0.725653
0.255400,-0.698064
0.255500,-0.729224
0.255600,-0.784727
0.255700,-0.833090
0.255800,-0.823677
0.255900,-0.849319
0.256000,-0.909367
0.256100,-0.957405
0.256200,-0.916832
0.256300,-0.913262
0.256400,-0.894761
0.256500,-0.942149
0.256600,-1.088536
0.256700,-1.119371
0.256800,-1.114178
0.256900,-1.012908
0.257000,-1.042121
0.257100,-1.073281
0.257200,-1.059648
0.257300,-1.065166
0.257400,-1.064842
0.257500,-1.058999
0.257600,-1.058350
0.257700,-1.058674
0.257800,-1.064842
0.257900,-1.039524
0.258000,-1.028164
0.258100,-1.016154
0.258200,-1.016479
0.258300,-1.025243
0.258400,-1.023620
0.258500,-1.035954
0.258600,-1.056402
0.258700,-1.087562
0.258800,-1.145338
0.258900,-1.418961
0.259000,-1.606894
0.259100,-1.605920
0.259200,-1.425128
0.259300,-1.240765
0.259400,-1.292049
0.259500,-1.513739
0.259600,-1.783467
0.259700,-1.886684
0.259800,-1.817224
0.259900,-1.669863
0.260000,-1.637080
0.260100,-1.775352
0.260200,-1.928880
0.260300,-2.056117
0.260400,-2.065205
0.260500,-2.077539
0.260600,-2.087601
0.260700,-2.120384
0.260800,-2.191468
0.260900,-2.225549
0.261000,-2.270341
0.261100,-2.293062
0.261200,-2.353110
0.261300,-2.435554
0.261400,-2.477426
0.261500,-2.497874
0.261600,-2.510209
0.261700,-2.590056
0.261800,-2.638419
0.261900,-2.674123
0.262000,-2.587135
0.262100,-2.474829
0.262200,-2.465091
0.262300,-2.596223
0.262400,-2.830573
0.262500,-2.964301
0.262600,-2.868874
0.262700,-2.657894
0.262800,-2.576748
0.262900,-2.664710
0.263000,-2.839661
0.263100,-2.999356
0.263200,-3.017858
0.263300,-2.913666
0.263400,-2.846477
0.263500,-2.841284
0.263600,-2.915614
0.263700,-2.944177
0.263800,-2.948072
0.263900,-2.936063
0.264000,-2.908148
0.264100,-2.906201
0.264200,-2.824406
0.264300,-2.672825
0.264400,-2.544290
0.264500,-2.489760
0.264600,-2.473531
0.264700,-2.459574
0.264800,-2.397254
0.264900,-2.212566
0.265000,-2.103830
0.265100,-1.928556
0.265200,-1.826961
0.265300,-1.762694
0.265400,-1.677978
0.265500,-1.565672
0.265600,-1.458560
0.265700,-1.299839
0.265800,-1.219018
0.265900,-1.123915
0.266000,-1.087562
0.266100,-1.055429
0.266200,-1.017453
0.266300,-1.034331
0.266400,-0.982398
0.266500,-0.928192
0.266600,-0.945071
0.266700,-0.871715
0.266800,-0.958379
0.266900,-0.888593
0.267000,-0.992135
0.267100,-0.907419
0.267200,-0.724355
0.267300,-0.485787
0.267400,-0.401721
0.267500,-0.583486
0.267600,-0.877233
0.267700,-0.846398
0.267800,-0.652298
0.267900,-0.420222
0.268000,-0.312136
0.268100,-0.266370
0.268200,-0.401396
0.268300,-0.462742
0.268400,-0.383219
0.268500,-0.239754
0.268600,-0.141731
0.268700,-0.078762
0.268800,-0.067726
0.268900,-0.099860
0.269000,-0.118685
0.269100,-0.060910
0.269200,-0.086227
0.269300,-0.060585
0.269400,-0.055392
0.269500,-0.035268
0.269600,-0.085578
0.269700,-0.127124
0.269800,-0.158933
0.269900,-0.184251
0.270000,-0.203401
0.270100,-0.141081
0.270200,-0.099210
0.270300,-0.137186
0.270400,-0.257931
0.270500,-0.496498
0.270600,-0.455926
0.270700,-0.341348
0.270800,-0.150170
0.270900,-0.184251
0.271000,-0.399773
0.271100,-0.678914
0.271200,-0.725653
0.271300,-0.628279
0.271400,-0.498446
0.271500,-0.528957
0.271600,-0.671448
0.271700,-0.803228
0.271800,-0.861978
0.271900,-0.868469
0.272000,-0.852240
0.272100,-0.911639
0.272200,-0.955457
0.272300,-1.041796
0.272400,-1.095352
0.272500,-1.087887
0.272600,-1.116450
0.272700,-1.138522
0.272800,-1.149882
0.272900,-1.099247
0.273000,-1.076526
0.273100,-1.052832
0.273200,-1.109634
0.273300,-1.209930
0.273400,-1.235247
0.273500,-1.175849
0.273600,-1.100546
0.273700,-1.120345
0.273800,-1.139171
0.273900,-1.123915
0.274000,-1.111257
0.274100,-1.122942
0.274200,-1.129433
0.274300,-1.145013
0.274400,-1.178770
0.274500,-1.182340
0.274600,-1.194350
0.274700,-1.240765
0.274800,-1.232975
0.274900,-1.264784
0.275000,-1.279066
0.275100,-1.315744
0.275200,-1.333920
0.275300,-1.333920
0.275400,-1.393319
0.275500,-1.489720
0.275600,-1.774379
0.275700,-1.864937
0.275800,-1.803267
0.275900,-1.605271
0.276000,-1.488421
0.276100,-1.602674
0.276200,-1.851305
0.276300,-2.071047
0.276400,-2.087601
0.276500,-1.974971
0.276600,-1.863639
0.276700,-1.892851
0.276800,-2.074618
0.276900,-2.194389
0.277000,-2.296308
0.277100,-2.267420
0.277200,-2.261253
0.277300,-2.266446
0.277400,-2.329740
0.277500,-2.376805
0.277600,-2.440748
0.277700,-2.437826
0.277800,-2.485540
0.277900,-2.526762
0.278000,-2.513130
0.278100,-2.608233
0.278200,-2.611479
0.278300,-2.636472
0.278400,-2.647832
0.278500,-2.643288
0.278600,-2.647507
0.278700,-2.466065
0.278800,-2.348891
0.278900,-2.369989
0.279000,-2.521244
0.279100,-2.694248
0.279200,-2.763708
0.279300,-2.597846
0.279400,-2.360251
0.279500,-2.320327
0.279600,-2.432309
0.279700,-2.602715
0.279800,-2.660815
0.279900,-2.579345
0.280000,-2.444643
0.280100,-2.358304
0.280200,-2.324871
0.280300,-2.375831
0.280400,-2.377454
0.280500,-2.353110
0.280600,-2.307344
0.280700,-2.233988
0.280800,-2.208995
0.280900,-2.120384
0.281000,-2.019439
0.281100,-1.947706
0.281200,-1.909081
0.281300,-1.906484
0.281400,-1.880842
0.281500,-1.806837
0.281600,-1.659801
0.281700,-1.589367
0.281800,-1.367677
0.281900,-1.332946
0.282000,-1.294646
0.282100,-1.212202
0.282200,-1.097300
0.282300,-0.972336
0.282400,-0.848021
0.282500,-0.766551
0.282600,-0.709749
0.282700,-0.701959
0.282800,-0.643859
0.282900,-0.667878
0.283000,-0.567906
0.283100,-0.570828
0.283200,-0.493902
0.283300,-0.491954
0.283400,-0.489682
0.283500,-0.483515
0.283600,-0.493577
0.283700,-0.460794
0.283800,-0.402694
0.283900,-0.115440
0.284000,0.039711
0.284100,-0.023583
0.284200,-0.330962
0.284300,-0.499744
0.284400,-0.396527
0.284500,-0.194637
0.284600,-0.056690
0.284700,0.030622
0.284800,-0.133941
0.284900,-0.212165
0.285000,-0.314408
0.285100,-0.176461
0.285200,-0.036891
0.285300,0.054317
0.285400,0.087099
0.285500,0.052045
0.285600,0.058536
0.285700,-0.002810
0.285800,0.028026
0.285900,0.040035
0.286000,0.065352
0.286100,0.078985
0.286200,0.088398
0.286300,0.087099
0.286400,-0.079411
0.286500,0.013419
0.286600,-0.103430
0.286700,-0.041110
0.286800,-0.049549
0.286900,0.018288
0.287000,-0.021960
0.287100,-0.271563
0.287200,-0.329988
0.287300,-0.326418
0.287400,-0.141406
0.287500,-0.042409
0.287600,-0.121282
0.287700,-0.345893
0.287800,-0.475401
0.287900,-0.434179
0.288000,-0.323172
0.288100,-0.254360
0.288200,-0.294284
0.288300,-0.397501
0.288400,-0.461768
0.288500,-0.456900
0.288600,-0.487735
0.288700,-0.466962
0.288800,-0.548432
0.288900,-0.580241
0.289000,-0.618866
0.289100,-0.604584
0.289200,-0.623735
0.289300,-0.668527
0.289400,-0.658789
0.289500,-0.649377
0.289600,-0.616918
0.289700,-0.622761
0.289800,-0.657167
0.289900,-0.810369
0.290000,-0.866846
0.290100,-0.892164
0.290200,-0.756813
0.290300,-0.836660
0.290400,-0.881453
0.290500,-0.902875
0.290600,-0.926894
0.290700,-0.948641
0.290800,-0.963572
0.290900,-0.981424
0.291000,-0.996679
0.291100,-1.021023
0.291200,-1.032059
0.291300,-1.041472
0.291400,-1.054130
0.291500,-1.061920
0.291600,-1.045367
0.291700,-1.103142
0.291800,-1.104441
0.291900,-1.181691
0.292000,-1.194025
0.292100,-1.232651
0.292200,-1.454665
0.292300,-1.673758
0.292400,-1.753930
0.292500,-1.558531
0.292600,-1.443629
0.292700,-1.369949
0.292800,-1.588068
0.292900,-1.847410
0.293000,-1.910703
0.293100,-1.866236
0.293200,-1.674407
0.293300,-1.670188
0.293400,-1.734130
0.293500,-1.889606
0.293600,-1.993472
0.293700,-2.015544
0.293800,-2.035668
0.293900,-2.034370
0.294000,-2.129472
0.294100,-2.181406
0.294200,-2.210943
0.294300,-2.265797
0.294400,-2.293711
0.294500,-2.378428
0.294600,-2.461196
0.294700,-2.560194
0.294800,-2.530657
0.294900,-2.582591
0.295000,-2.607584
0.295100,-2.691651
0.295200,-2.739040
0.295300,-2.686782
0.295400,-2.536824
0.295500,-2.447889
0.295600,-2.556949
0.295700,-2.733198
0.295800,-2.897437
0.295900,-2.841933
0.296000,-2.673799
0.296100,-2.565712
0.296200,-2.617970
0.296300,-2.810449
0.296400,-2.993839
0.296500,-3.046097
0.296600,-2.978259
0.296700,-2.888024
0.296800,-2.889972
0.296900,-2.914315
0.297000,-2.977285
0.297100,-2.978908
0.297200,-2.964301
0.297300,-2.940931
0.297400,-2.917237
0.297500,-2.841933
0.297600,-2.736768
0.297700,-2.597846
0.297800,-2.518323
0.297900,-2.469636
0.298000,-2.437177
0.298100,-2.397254
0.298200,-2.214513
0.298300,-2.084680
0.298400,-1.962312
0.298500,-1.783142
0.298600,-1.766589
0.298700,-1.710436
0.298800,-1.599429
0.298900,-1.506923
0.299000,-1.373195
0.299100,-1.293997
0.299200,-1.263161
0.299300,-1.254398
0.299400,-1.241414
0.299500,-1.184937
0.299600,-1.235572
0.299700,-1.217720
0.299800,-1.223238
0.299900,-1.215123
0.300000,-1.189806
0.300100,-1.208956
0.300200,-1.213825
0.300300,-1.187209
0.300400,-1.239467
0.300500,-0.989538
0.300600,-0.853214
0.300700,-0.619840
0.300800,-0.840555
0.300900,-1.098598
0.301000,-1.113529
0.301100,-0.967142
0.301200,-0.688326
0.301300,-0.633472
0.301400,-0.587706
0.301500,-0.730522
0.301600,-0.806474
0.301700,-0.688326
0.301800,-0.607505
0.301900,-0.434828
0.302000,-0.475076
0.302100,-0.426389
0.302200,-0.501043
0.302300,-0.473778
0.302400,-0.450408
0.302500,-0.431582
0.302600,-0.458198
0.302700,-0.474102
0.302800,-0.487735
0.302900,-0.533825
0.303000,-0.593548
0.303100,-0.605558
0.303200,-0.650999
0.303300,-0.669501
0.303400,-0.674694
0.303500,-0.557520
0.303600,-0.605233
0.303700,-0.675992
0.303800,-0.910340
0.303900,-0.892164
0.304000,-0.761682
0.304100,-0.560441
0.304200,-0.497472
0.304300,-0.652622
0.304400,-0.862302
0.304500,-0.882102
0.304600,-0.784727
0.304700,-0.599716
0.304800,-0.540966
0.304900,-0.615620
0.305000,-0.717214
0.305100,-0.749023
0.305200,-0.719162
0.305300,-0.685081
0.305400,-0.710398
0.305500,-0.767849
0.305600,-0.824651
0.305700,-0.868469
0.305800,-0.827897
0.305900,-0.841854
0.306000,-0.850617
0.306100,-0.847372
0.306200,-0.812966
0.306300,-0.767524
0.306400,-0.725004
0.306500,-0.767524
0.306600,-0.848994
0.306700,-0.850617
0.306800,-0.814913
0.306900,-0.693195
0.307000,-0.710073
0.307100,-0.711047
0.307200,-0.681186
0.307300,-0.645482
0.307400,-0.636393
0.307500,-0.614322
0.307600,-0.618866
0.307700,-0.581214
0.307800,-0.602637
0.307900,-0.577969
0.308000,-0.587381
0.308100,-0.563687
0.308200,-0.578942
0.308300,-0.590627
0.308400,-0.623085
0.308500,-0.667878
0.308600,-0.714293
0.308700,-0.774990
0.308800,-0.895085
0.308900,-1.170655
0.309000,-1.392670
0.309100,-1.360536
0.309200,-1.243362
0.309300,-1.098923
0.309400,-1.228431
0.309500,-1.481605
0.309600,-1.746140
0.309700,-1.822092
0.309800,-1.764966
0.309900,-1.659476
0.310000,-1.710111
0.310100,-1.879868
0.310200,-2.056766
0.310300,-2.132718
0.310400,-2.150570
0.310500,-2.108699
0.310600,-2.111620
0.310700,-2.173940
0.310800,-2.233664
0.310900,-2.267745
0.311000,-2.242752
0.311100,-2.236260
0.311200,-2.272614
0.311300,-2.330714
0.311400,-2.361225
0.311500,-2.409912
0.311600,-2.398227
0.311700,-2.444967
0.311800,-2.492032
0.311900,-2.526762
0.312000,-2.421922
0.312100,-2.281053
0.312200,-2.335258
0.312300,-2.463144
0.312400,-2.664386
0.312500,-2.787728
0.312600,-2.643612
0.312700,-2.453731
0.312800,-2.405693
0.312900,-2.532280
0.313000,-2.733847
0.313100,-2.844530
0.313200,-2.819537
0.313300,-2.699765
0.313400,-2.593951
0.313500,-2.604662
0.313600,-2.631603
0.313700,-2.636472
0.313800,-2.612128
0.313900,-2.570257
0.314000,-2.512805
0.314100,-2.483593
0.314200,-2.411535
0.314300,-2.309941
0.314400,-2.226523
0.314500,-2.180757
0.314600,-2.176537
0.314700,-2.165826
0.314800,-2.120384
0.314900,-1.974971
0.315000,-1.900641
0.315100,-1.729262
0.315200,-1.714980
0.315300,-1.691610
0.315400,-1.640975
0.315500,-1.581252
0.315600,-1.492641
0.315700,-1.377090
0.315800,-1.305032
0.315900,-1.277443
0.316000,-1.253099
0.316100,-1.237519
0.316200,-1.188832
0.316300,-1.174226
0.316400,-1.079448
0.316500,-1.040822
0.316600,-0.957729
0.316700,-0.947992
0.316800,-0.919104
0.316900,-0.924297
0.317000,-0.846722
0.317100,-0.813290
0.317200,-0.552651
0.317300,-0.362446
0.317400,-0.216060
0.317500,-0.493902
0.317600,-0.628928
0.317700,-0.520842
0.317800,-0.315057
0.317900,-0.096938
0.318000,0.049448
0.318100,-0.015468
0.318200,-0.119984
0.318300,-0.100509
0.318400,0.061133
0.318500,0.202001
0.318600,0.371433
0.318700,0.312034
0.318800,0.333132
0.318900,0.284770
0.319000,0.285094
0.319100,0.331185
0.319200,0.355853
0.319300,0.370459
0.319400,0.368512
0.319500,0.405189
0.319600,0.337027
0.319700,0.281848
0.319800,0.212063
0.319900,0.156884
0.320000,0.117935
0.320100,0.146173
0.320200,0.169868
0.320300,0.119882
0.320400,-0.109597
0.320500,-0.262800
0.320600,-0.231315
0.320700,-0.102781
0.320800,0.030947
0.320900,-0.077788
0.321000,-0.318303
0.321100,-0.519544
0.321200,-0.497148
0.321300,-0.382570
0.321400,-0.267344
0.321500,-0.293635
0.321600,-0.428985
0.321700,-0.554599
0.321800,-0.541940
0.321900,-0.531878
0.322000,-0.489682
0.322100,-0.570503
0.322200,-0.632823
0.322300,-0.705205
0.322400,-0.731496
0.322500,-0.722407
0.322600,-0.766875
0.322700,-0.818159
0.322800,-0.842178
0.322900,-0.804851
0.323000,-0.788622
0.323100,-0.794140
0.323200,-0.922350
0.323300,-1.017777
0.323400,-1.038875
0.323500,-0.993433
0.323600,-0.947992
0.323700,-1.042770
0.323800,-1.062569
0.323900,-1.070359
0.324000,-1.080097
0.324100,-1.108011
0.324200,-1.130083
0.324300,-1.133328
0.324400,-1.153128
0.324500,-1.170655
0.324600,-1.191753
0.324700,-1.211228
0.324800,-1.228756
0.324900,-1.263161
0.325000,-1.302760
0.325100,-1.320612
0.325200,-1.316717
0.325300,-1.411171
0.325400,-1.388450
0.325500,-1.601052
0.325600,-1.819496
0.325700,-1.958093
0.325800,-1.827286
0.325900,-1.666293
0.326000,-1.580927
0.326100,-1.715629
0.326200,-2.029825
0.326300,-2.175888
0.326400,-2.168747
0.326500,-2.039887
0.326600,-1.943486
0.326700,-2.025281
0.326800,-2.196661
0.326900,-2.328117
0.327000,-2.357005
0.327100,-2.359926
0.327200,-2.362523
0.327300,-2.393359
0.327400,-2.457951
0.327500,-2.518972
0.327600,-2.532929
0.327700,-2.537474
0.327800,-2.584214
0.327900,-2.635173
0.328000,-2.676395
0.328100,-2.663412
0.328200,-2.650104
0.328300,-2.680940
0.328400,-2.713723
0.328500,-2.756243
0.328600,-2.714696
0.328700,-2.597522
0.328800,-2.526113
0.328900,-2.579020
0.329000,-2.760138
0.329100,-2.931843
0.329200,-2.917886
0.329300,-2.711126
0.329400,-2.578047
0.329500,-2.601741
0.329600,-2.736768
0.329700,-2.916263
0.329800,-2.968521
0.329900,-2.851995
0.330000,-2.712424
0.330100,-2.633550
0.330200,-2.642963
0.330300,-2.691975
0.330400,-2.676395
0.330500,-2.640367
0.330600,-2.573178
0.330700,-2.502743
0.330800,-2.455354
0.330900,-2.327793
0.331000,-2.211916
0.331100,-2.121682
0.331200,-2.087926
0.331300,-2.054494
0.331400,-2.026904
0.331500,-1.891553
0.331600,-1.734455
0.331700,-1.677328
0.331800,-1.485825
0.331900,-1.490044
0.332000,-1.420908
0.332100,-1.332622
0.332200,-1.232975
0.332300,-1.120345
0.332400,-1.003496
0.332500,-0.939553
0.332600,-0.937930
0.332700,-0.924297
0.332800,-0.912937
0.332900,-0.922675
0.333000,-0.898655
0.333100,-0.902226
0.333200,-0.865548
0.333300,-0.875286
0.333400,-0.934360
0.333500,-0.940202
0.333600,-0.982722
0.333700,-1.019075
0.333800,-0.870741
0.333900,-0.694493
0.334000,-0.450408
0.334100,-0.650350
0.334200,-0.804202
0.334300,-1.041472
0.334400,-0.796737
0.334500,-0.682808
0.334600,-0.453329
0.334700,-0.443916
0.334800,-0.593873
0.334900,-0.616269
0.335000,-0.652622
0.335100,-0.418599
0.335200,-0.350112
0.335300,-0.255010
0.335400,-0.318952
0.335500,-0.295907
0.335600,-0.355305
0.335700,-0.336804
0.335800,-0.305644
0.335900,-0.313434
0.336000,-0.304671
0.336100,-0.348814
0.336200,-0.358227
0.336300,-0.450732
0.336400,-0.515973
0.336500,-0.589978
0.336600,-0.625033
0.336700,-0.657816
0.336800,-0.651649
0.336900,-0.644183
0.337000,-0.777586
0.337100,-0.966818
0.337200,-1.010312
0.337300,-0.982073
0.337400,-0.779858
0.337500,-0.754217
0.337600,-0.872364
0.337700,-1.118398
0.337800,-1.239142
0.337900,-1.222913
0.338000,-1.091133
0.338100,-1.004469
0.338200,-1.092431
0.338300,-1.221290
0.338400,-1.338140
0.338500,-1.313147
0.338600,-1.349500
0.338700,-1.327429
0.338800,-1.389748
0.338900,-1.425452
0.339000,-1.480307
0.339100,-1.454665
0.339200,-1.482904
0.339300,-1.521529
0.339400,-1.518283
0.339500,-1.489720
0.339600,-1.437137
0.339700,-1.406627
0.339800,-1.441682
0.339900,-1.541328
0.340000,-1.565347
0.340100,-1.545223
0.340200,-1.383581
0.340300,-1.431295
0.340400,-1.464078
0.340500,-1.472192
0.340600,-1.462130
0.340700,-1.436813
0.340800,-1.434865
0.340900,-1.407925
0.341000,-1.400135
0.341100,-1.389748
0.341200,-1.370273
0.341300,-1.378713
0.341400,-1.339763
0.341500,-1.329376
0.341600,-1.283935
0.341700,-1.272899
0.341800,-1.283610
0.341900,-1.277443
0.342000,-1.322884
0.342100,-1.330025
0.342200,-1.519581
0.342300,-1.718875
0.342400,-1.690636
0.342500,-1.448822
0.342600,-1.283610
0.342700,-1.279715
0.342800,-1.508546
0.342900,-1.715629
0.343000,-1.789309
0.343100,-1.685118
0.343200,-1.495887
0.343300,-1.441682
0.343400,-1.533863
0.343500,-1.636756
0.343600,-1.707190
0.343700,-1.664021
0.343800,-1.618904
0.343900,-1.611114
0.344000,-1.627018
0.344100,-1.636106
0.344200,-1.656555
0.344300,-1.654932
0.344400,-1.643247
0.344500,-1.693882
0.344600,-1.700698
0.344700,-1.721472
0.344800,-1.679601
0.344900,-1.704269
0.345000,-1.759772
0.345100,-1.823391
0.345200,-1.849357
0.345300,-1.805214
0.345400,-1.632211
0.345500,-1.615009
0.345600,-1.746465
0.345700,-1.955171
0.345800,-2.092794
0.345900,-2.025930
0.346000,-1.867209
0.346100,-1.770484
0.346200,-1.840918
0.346300,-2.033071
0.346400,-2.186599
0.346500,-2.225874
0.346600,-2.140508
0.346700,-2.067802
0.346800,-2.069749
0.346900,-2.109997
0.347000,-2.169072
0.347100,-2.173616
0.347200,-2.181081
0.347300,-2.185625
0.347400,-2.153492
0.347500,-2.090847
0.347600,-1.996393
0.347700,-1.912976
0.347800,-1.895773
0.347900,-1.924336
0.348000,-1.934398
0.348100,-1.915897
0.348200,-1.788011
0.348300,-1.747763
0.348400,-1.667916
0.348500,-1.541004
0.348600,-1.525748
0.348700,-1.479658
0.348800,-1.404030
0.348900,-1.304383
0.349000,-1.201815
0.349100,-1.113529
0.349200,-1.070684
0.349300,-1.009987
0.349400,-0.981749
0.349500,-0.920402
0.349600,-0.897033
0.349700,-0.852565
0.349800,-0.778560
0.349900,-0.745453
0.350000,-0.676641
0.350100,-0.660088
0.350200,-0.649377
0.350300,-0.690598
0.350400,-0.629902
0.350500,-0.438723
0.350600,-0.164451
0.350700,-0.057015
0.350800,-0.238131
0.350900,-0.485463
0.351000,-0.446837
0.351100,-0.291687
0.351200,-0.098561
0.351300,0.001734
0.351400,-0.065779
0.351500,-0.134914
0.351600,-0.241702
0.351700,-0.142704
0.351800,-0.032671
0.351900,0.068598
0.352000,-0.002485
0.352100,-0.007678
0.352200,-0.035917
0.352300,-0.098561
0.352400,-0.084280
0.352500,-0.121607
0.352600,-0.125502
0.352700,-0.161855
0.352800,-0.146924
0.352900,-0.204375
0.353000,-0.269940
0.353100,-0.294933
0.353200,-0.373157
0.353300,-0.359850
0.353400,-0.372508
0.353500,-0.299802
0.353600,-0.364394
0.353700,-0.480594
0.353800,-0.742207
0.353900,-0.687677
0.354000,-0.603286
0.354100,-0.394255
0.354200,-0.481568
0.354300,-0.644832
0.354400,-0.877233
0.354500,-0.861329
0.354600,-0.765577
0.354700,-0.619840
0.354800,-0.638341
0.354900,-0.729873
0.355000,-0.804851
0.355100,-0.769796
0.355200,-0.759410
0.355300,-0.712995
0.355400,-0.769796
0.355500,-0.786675
0.355600,-0.784727
0.355700,-0.773367
0.355800,-0.751295
0.355900,-0.747725
0.356000,-0.766875
0.356100,-0.751944
0.356200,-0.697739
0.356300,-0.663009
0.356400,-0.614971
0.356500,-0.717863
0.356600,-0.782131
0.356700,-0.784727
0.356800,-0.770121
0.356900,-0.638016
0.357000,-0.687353
0.357100,-0.678589
0.357200,-0.646780
0.357300,-0.636718
0.357400,-0.596145
0.357500,-0.585434
0.357600,-0.528632
0.357700,-0.510131
0.357800,-0.506561
0.357900,-0.501043
0.358000,-0.499744
0.358100,-0.493902
0.358200,-0.514026
0.358300,-0.520518
0.358400,-0.572451
0.358500,-0.568231
0.358600,-0.646131
0.358700,-0.661061
0.358800,-0.795763
0.358900,-1.058350
0.359000,-1.190130
0.359100,-1.137873
0.359200,-0.890866
0.359300,-0.804527
0.359400,-0.889892
0.359500,-1.230054
0.359600,-1.436164
0.359700,-1.444278
0.359800,-1.332297
0.359900,-1.226483
0.360000,-1.281013
0.360100,-1.462130
0.360200,-1.642274
0.360300,-1.726990
0.360400,-1.721147
0.360500,-1.734455
0.360600,-1.731209
0.360700,-1.816250
0.360800,-1.900966
0.360900,-1.952899
0.361000,-1.971725
0.361100,-2.009052
0.361200,-2.064880
0.361300,-2.163229
0.361400,-2.151544
0.361500,-2.150246
0.361600,-2.177511
0.361700,-2.256709
0.361800,-2.342399
0.361900,-2.377454
0.362000,-2.263850
0.362100,-2.174265
0.362200,-2.215487
0.362300,-2.407316
0.362400,-2.569607
0.362500,-2.612777
0.362600,-2.452757
0.362700,-2.295010
0.362800,-2.289492
0.362900,-2.424519
0.363000,-2.615698
0.363100,-2.671851
0.363200,-2.614400
0.363300,-2.503392
0.363400,-2.478075
0.363500,-2.490409
0.363600,-2.546562
0.363700,-2.549483
0.363800,-2.507937
0.363900,-2.455029
0.364000,-2.426791
0.364100,-2.417053
0.364200,-2.388490
0.364300,-2.295984
0.364400,-2.177511
0.364500,-2.165177
0.364600,-2.160308
0.364700,-2.158360
0.364800,-2.092794
0.364900,-1.940890
0.365000,-1.784116
0.365100,-1.678627
0.365200,-1.677978
0.365300,-1.637080
0.365400,-1.539381
0.365500,-1.458884
0.365600,-1.356316
0.365700,-1.254398
0.365800,-1.171954
0.365900,-1.156698
0.366000,-1.130407
0.366100,-1.097949
0.366200,-1.066140
0.366300,-1.058999
0.366400,-1.009013
0.366500,-1.006417
0.366600,-0.993433
0.366700,-1.010961
0.366800,-1.010312
0.366900,-1.056727
0.367000,-0.967467
0.367100,-0.885997
0.367200,-0.612374
0.367300,-0.451706
0.367400,-0.462742
0.367500,-0.799333
0.367600,-0.952861
0.367700,-0.843477
0.367800,-0.587057
0.367900,-0.458198
0.368000,-0.398799
0.368100,-0.547782
0.368200,-0.654245
0.368300,-0.753243
0.368400,-0.544861
0.368500,-0.488384
0.368600,-0.388088
0.368700,-0.413406
0.368800,-0.481892
0.368900,-0.525062
0.369000,-0.540642
0.369100,-0.533176
0.369200,-0.515000
0.369300,-0.561415
0.369400,-0.551677
0.369500,-0.540642
0.369600,-0.596145
0.369700,-0.783104
0.369800,-0.700660
0.369900,-0.843801
0.370000,-0.797710
0.370100,-0.795763
0.370200,-0.749023
0.370300,-0.755190
0.370400,-0.997328
0.370500,-1.108660
0.370600,-1.032383
0.370700,-0.855162
0.370800,-0.794140
0.370900,-0.854837
0.371000,-1.126188
0.371100,-1.259915
0.371200,-1.238168
0.371300,-1.115476
0.371400,-0.999601
0.371500,-1.074579
0.371600,-1.184937
0.371700,-1.238818
0.371800,-1.204412
0.371900,-1.195648
0.372000,-1.160593
0.372100,-1.196946
0.372200,-1.200517
0.372300,-1.211553
0.372400,-1.176822
0.372500,-1.190455
0.372600,-1.208307
0.372700,-1.199543
0.372800,-1.184288
0.372900,-1.141768
0.373000,-1.116450
0.373100,-1.123266
0.373200,-1.213825
0.373300,-1.242063
0.373400,-1.225185
0.373500,-1.201166
0.373600,-1.082694
0.373700,-1.083018
0.373800,-1.074904
0.373900,-1.011935
0.374000,-0.972985
0.374100,-0.918455
0.374200,-0.876584
0.374300,-0.839257
0.374400,-0.811668
0.374500,-0.778560
0.374600,-0.734417
0.374700,-0.707477
0.374800,-0.692221
0.374900,-0.668202
0.375000,-0.679563
0.375100,-0.615620
0.375200,-0.651324
0.375300,-0.661061
0.375400,-0.688326
0.375500,-0.848021
0.375600,-1.063219
0.375700,-1.077500
0.375800,-0.923973
0.375900,-0.761682
0.376000,-0.759410
0.376100,-0.927868
0.376200,-1.130407
0.376300,-1.239791
0.376400,-1.155075
0.376500,-1.017453
0.376600,-0.950264
0.376700,-0.976880
0.376800,-1.084641
0.376900,-1.142092
0.377000,-1.158646
0.377100,-1.098273
0.377200,-1.014856
0.377300,-0.994407
0.377400,-0.985643
0.377500,-0.952536
0.377600,-0.961300
0.377700,-0.938255
0.377800,-0.919429
0.377900,-0.909691
0.378000,-0.976880
0.378100,-0.889243
0.378200,-0.866522
0.378300,-0.870417
0.378400,-0.920727
0.378500,-0.970388
0.378600,-0.892488
0.378700,-0.734417
0.378800,-0.658789
0.378900,-0.751620
0.379000,-1.001223
0.379100,-1.104116
0.379200,-1.083343
0.379300,-0.904498
0.379400,-0.771419
0.379500,-0.819133
0.379600,-1.008364
0.379700,-1.191753
0.379800,-1.239142
0.379900,-1.193051
0.380000,-1.120994
0.380100,-1.105414
0.380200,-1.159620
0.380300,-1.240765
0.380400,-1.275820
0.380500,-1.318665
0.380600,-1.297242
0.380700,-1.269004
0.380800,-1.238493
0.380900,-1.198894
0.381000,-1.119696
0.381100,-1.093080
0.381200,-1.070359
0.381300,-1.094054
0.381400,-1.068412
0.381500,-0.971037
0.381600,-0.877882
0.381700,-0.713968
0.381800,-0.685405
0.381900,-0.683782
0.382000,-0.675668
0.382100,-0.613673
0.382200,-0.551677
0.382300,-0.465988
0.382400,-0.395229
0.382500,-0.412756
0.382600,-0.402370
0.382700,-0.449434
0.382800,-0.434503
0.382900,-0.495849
0.383000,-0.457549
0.383100,-0.497797
0.383200,-0.468260
0.383300,-0.497148
0.383400,-0.559143
0.383500,-0.578293
0.383600,-0.704880
0.383700,-0.645806
0.383800,-0.588031
0.383900,-0.270914
0.384000,-0.258905
0.384100,-0.334208
0.384200,-0.692221
0.384300,-0.693844
0.384400,-0.547133
0.384500,-0.426713
0.384600,-0.287468
0.384700,-0.300451
0.384800,-0.517272
0.384900,-0.550379
0.385000,-0.561739
0.385100,-0.446513
0.385200,-0.340050
0.385300,-0.319277
0.385400,-0.339725
0.385500,-0.405616
0.385600,-0.439372
0.385700,-0.457549
0.385800,-0.438074
0.385900,-0.428985
0.386000,-0.402045
0.386100,-0.379324
0.386200,-0.457873
0.386300,-0.557195
0.386400,-0.594847
0.386500,-0.610427
0.386600,-0.630226
0.386700,-0.586408
0.386800,-0.588680
0.386900,-0.572126
0.387000,-0.694169
0.387100,-0.949290
0.387200,-0.923648
0.387300,-0.819133
0.387400,-0.615620
0.387500,-0.636393
0.387600,-0.797710
0.387700,-1.029137
0.387800,-1.089510
0.387900,-0.981424
0.388000,-0.841529
0.388100,-0.809071
0.388200,-0.937605
0.388300,-1.080097
0.388400,-1.113204
0.388500,-1.116126
0.388600,-1.103791
0.388700,-1.141768
0.388800,-1.228431
0.388900,-1.269004
0.389000,-1.304383
0.389100,-1.290751
0.389200,-1.327429
0.389300,-1.366703
0.389400,-1.394617
0.389500,-1.391047
0.389600,-1.394942
0.389700,-1.379362
0.389800,-1.466999
0.389900,-1.581577
0.390000,-1.647467
0.390100,-1.634159
0.390200,-1.516985
0.390300,-1.576708
0.390400,-1.578006
0.390500,-1.561777
0.390600,-1.562751
0.390700,-1.536135
0.390800,-1.531915
0.390900,-1.502054
0.391000,-1.468622
0.391100,-1.464402
0.391200,-1.426102
0.391300,-1.416040
0.391400,-1.373519
0.391500,-1.354044
0.391600,-1.348202
0.391700,-1.309252
0.391800,-1.328727
0.391900,-1.334894
0.392000,-1.347877
0.392100,-1.430646
0.392200,-1.636431
0.392300,-1.777625
0.392400,-1.673758
0.392500,-1.510493
0.392600,-1.351772
0.392700,-1.407276
0.392800,-1.627343
0.392900,-1.827286
0.393000,-1.867859
0.393100,-1.719524
0.393200,-1.613061
0.393300,-1.588393
0.393400,-1.740947
0.393500,-1.903238
0.393600,-1.999964
0.393700,-1.975295
0.393800,-1.933100
0.393900,-1.941214
0.394000,-1.967830
0.394100,-2.012298
0.394200,-2.019439
0.394300,-1.970102
0.394400,-1.962637
0.394500,-1.971725
0.394600,-1.982761
0.394700,-1.974971
0.394800,-1.942513
0.394900,-1.888307
0.395000,-1.905835
0.395100,-1.911353
0.395200,-1.890579
0.395300,-1.746789
0.395400,-1.620527
0.395500,-1.591963
0.395600,-1.715629
0.395700,-1.868183
0.395800,-1.956145
0.395900,-1.820794
0.396000,-1.630913
0.396100,-1.577682
0.396200,-1.725367
0.396300,-1.929854
0.396400,-2.052222
0.396500,-2.051572
0.396600,-1.948680
0.396700,-1.888956
0.396800,-1.898369
0.396900,-1.955171
0.397000,-2.019763
0.397100,-2.036317
0.397200,-1.986656
0.397300,-1.956470
0.397400,-1.945434
0.397500,-1.901940
0.397600,-1.820469
0.397700,-1.738675
0.397800,-1.717901
0.397900,-1.718550
0.398000,-1.729586
0.398100,-1.686741
0.398200,-1.542302
0.398300,-1.493939
0.398400,-1.338140
0.398500,-1.357290
0.398600,-1.351123
0.398700,-1.290426
0.398800,-1.238818
0.398900,-1.163839
0.399000,-1.083343
0.399100,-1.026541
0.399200,-1.012908
0.399300,-1.009987
0.399400,-1.010312
0.399500,-1.001223
0.399600,-1.008364
0.399700,-1.028813
0.399800,-0.984670
0.399900,-1.017777
0.400000,-1.004469
0.400100,-1.074254
0.400200,-1.104441
0.400300,-1.104116
0.400400,-1.155400
0.400500,-0.871715
0.400600,-0.790245
0.400700,-0.649701
0.400800,-1.000574
0.400900,-1.186235
0.401000,-1.205061
0.401100,-1.021023
0.401200,-0.884049
0.401300,-0.777586
0.401400,-0.906445
0.401500,-1.013882
0.401600,-1.117099
0.401700,-0.997978
0.401800,-0.879181
0.401900,-0.774990
0.402000,-0.756813
0.402100,-0.762980
0.402200,-0.799009
0.402300,-0.796088
0.402400,-0.776613
0.402500,-0.781806
0.402600,-0.729224
0.402700,-0.708775
0.402800,-0.691572
0.402900,-0.742856
0.403000,-0.818484
0.403100,-0.769796
0.403200,-0.817835
0.403300,-0.764603
0.403400,-0.770121
0.403500,-0.708450
0.403600,-0.767849
0.403700,-0.931763
0.403800,-1.086264
0.403900,-0.983696
0.404000,-0.860355
0.404100,-0.668202
0.404200,-0.751620
0.404300,-0.897357
0.404400,-1.069061
0.404500,-1.044068
0.404600,-0.897682
0.404700,-0.714293
0.404800,-0.704231
0.404900,-0.791543
0.405000,-0.885023
0.405100,-0.857434
0.405200,-0.863276
0.405300,-0.811992
0.405400,-0.857434
0.405500,-0.898980
0.405600,-0.899954
0.405700,-0.889892
0.405800,-0.885023
0.405900,-0.919753
0.406000,-0.963247
0.406100,-0.947343
0.406200,-0.922675
0.406300,-0.917806
0.406400,-0.926894
0.406500,-1.059973
0.406600,-1.140145
0.406700,-1.174875
0.406800,-1.160918
0.406900,-1.125538
0.407000,-1.167734
0.407100,-1.176498
0.407200,-1.169357
0.407300,-1.169682
0.407400,-1.187534
0.407500,-1.210254
0.407600,-1.216746
0.407700,-1.244985
0.407800,-1.231028
0.407900,-1.248230
0.408000,-1.282312
0.408100,-1.305032
0.408200,-1.326130
0.408300,-1.322235
0.408400,-1.383257
0.408500,-1.406302
0.408600,-1.483553
0.408700,-1.512116
0.408800,-1.697453
0.408900,-1.933749
0.409000,-2.060661
0.409100,-1.939591
0.409200,-1.775028
0.409300,-1.692259
0.409400,-1.917195
0.409500,-2.193415
0.409600,-2.362199
0.409700,-2.290141
0.409800,-2.150246
0.409900,-2.043133
0.410000,-2.134666
0.410100,-2.301177
0.410200,-2.440748
0.410300,-2.441072
0.410400,-2.416404
0.410500,-2.366094
0.410600,-2.409912
0.410700,-2.416729
0.410800,-2.419974
0.410900,-2.405368
0.411000,-2.393359
0.411100,-2.397254
0.411200,-2.421922
0.411300,-2.418027
0.411400,-2.411535
0.411500,-2.357005
0.411600,-2.371611
0.411700,-2.403421
0.411800,-2.419001
0.411900,-2.363821
0.412000,-2.205100
0.412100,-2.090198
0.412200,-2.125253
0.412300,-2.261578
0.412400,-2.417702
0.412500,-2.351487
0.412600,-2.131095
0.412700,-1.899668
0.412800,-1.866885
0.412900,-1.987630
0.413000,-2.172317
0.413100,-2.197959
0.413200,-2.084031
0.413300,-1.917520
0.413400,-1.840594
0.413500,-1.814302
0.413600,-1.838646
0.413700,-1.820469
0.413800,-1.755553
0.413900,-1.680574
0.414000,-1.628316
0.414100,-1.560803
0.414200,-1.472841
0.414300,-1.325481
0.414400,-1.224861
0.414500,-1.195324
0.414600,-1.157672
0.414700,-1.120345
0.414800,-1.008364
0.414900,-0.868469
0.415000,-0.716890
0.415100,-0.582837
0.415200,-0.579267
0.415300,-0.498771
0.415400,-0.410484
0.415500,-0.312461
0.415600,-0.165750
0.415700,-0.083631
0.415800,-0.003134
0.415900,-0.004757
0.416000,0.016665
0.416100,0.044255
0.416200,0.038412
0.416300,0.019911
0.416400,0.062107
0.416500,0.076064
0.416600,0.045553
0.416700,0.055940
0.416800,-0.008003
0.416900,0.001734
0.417000,-0.069349
0.417100,0.069572
0.417200,0.252311
0.417300,0.387987
0.417400,0.233486
0.417500,-0.061234
0.417600,-0.273186
0.417700,-0.168996
0.417800,0.004007
0.417900,0.176684
0.418000,0.112741
0.418100,-0.062857
0.418200,-0.251764
0.418300,-0.294609
0.418400,-0.161530
0.418500,-0.142704
0.418600,-0.124852
0.418700,-0.261177
0.418800,-0.306943
0.418900,-0.395554
0.419000,-0.451057
0.419100,-0.453978
0.419200,-0.498121
0.419300,-0.531878
0.419400,-0.570828
0.419500,-0.622761
0.419600,-0.770121
0.419700,-0.786350
0.419800,-0.859056
0.419900,-0.926570
0.420000,-0.920402
0.420100,-0.885348
0.420200,-0.829520
0.420300,-0.942799
0.420400,-1.159295
0.420500,-1.224861
0.420600,-1.127161
0.420700,-0.910340
0.420800,-0.801930
0.420900,-0.922350
0.421000,-1.148584
0.421100,-1.269004
0.421200,-1.189157
0.421300,-0.999601
0.421400,-0.856135
0.421500,-0.916832
0.421600,-1.019400
0.421700,-1.061596
0.421800,-0.997978
0.421900,-0.948966
0.422000,-0.901252
0.422100,-0.928192
0.422200,-0.942149
0.422300,-0.937281
0.422400,-0.872689
0.422500,-0.832441
0.422600,-0.824002
0.422700,-0.808097
0.422800,-0.755190
0.422900,-0.658789
0.423000,-0.571801
0.423100,-0.553625
0.423200,-0.616269
0.423300,-0.581214
0.423400,-0.519868
0.423500,-0.412432
0.423600,-0.301425
0.423700,-0.289091
0.423800,-0.207621
0.423900,-0.143029
0.424000,-0.089148
0.424100,-0.008328
0.424200,0.026727
0.424300,0.100732
0.424400,0.138059
0.424500,0.205247
0.424600,0.226020
0.424700,0.288665
0.424800,0.313333
0.424900,0.319824
0.425000,0.357476
0.425100,0.369810
0.425200,0.348388
0.425300,0.350011
0.425400,0.318202
0.425500,0.127997
0.425600,-0.092719
0.425700,-0.081358
0.425800,0.051395
0.425900,0.226020
0.426000,0.163376
0.426100,-0.090447
0.426200,-0.374456
0.426300,-0.518895
0.426400,-0.455926
0.426500,-0.378351
0.426600,-0.356604
0.426700,-0.542265
0.426800,-0.748699
0.426900,-0.905147
0.427000,-0.975581
0.427100,-0.961624
0.427200,-1.031410
0.427300,-1.108985
0.427400,-1.227782
0.427500,-1.358588
0.427600,-1.429023
0.427700,-1.519257
0.427800,-1.630264
0.427900,-1.813329
0.428000,-1.930828
0.428100,-2.048002
0.428200,-2.157387
0.428300,-2.281053
0.428400,-2.448213
0.428500,-2.566037
0.428600,-2.576748
0.428700,-2.528385
0.428800,-2.587135
0.428900,-2.805255
0.429000,-3.106794
0.429100,-3.325888
0.429200,-3.326213
0.429300,-3.180475
0.429400,-3.136006
0.429500,-3.262919
0.429600,-3.521938
0.429700,-3.738111
0.429800,-3.798809
0.429900,-3.735515
0.430000,-3.690722
0.430100,-3.690397
0.430200,-3.777711
0.430300,-3.833540
0.430400,-3.863401
0.430500,-3.844900
0.430600,-3.783229
0.430700,-3.717013
0.430800,-3.633270
0.430900,-3.525508
0.431000,-3.413851
0.431100,-3.313554
0.431200,-3.241821
0.431300,-3.164245
0.431400,-3.056808
0.431500,-2.833819
0.431600,-2.647507
0.431700,-2.375831
0.431800,-2.233664
0.431900,-2.130446
0.432000,-2.025930
0.432100,-1.878894
0.432200,-1.733157
0.432300,-1.568593
0.432400,-1.423830
0.432500,-1.345930
0.432600,-1.263810
0.432700,-1.216097
0.432800,-1.106063
0.432900,-1.090484
0.433000,-0.959352
0.433100,-0.929166
0.433200,-0.829195
0.433300,-0.820107
0.433400,-0.784078
0.433500,-0.803553
0.433600,-0.796088
0.433700,-0.737338
0.433800,-0.528632
0.433900,-0.263449
0.434000,-0.224824
0.434100,-0.429635
0.434200,-0.660737
0.434300,-0.743505
0.434400,-0.477673
0.434500,-0.329339
0.434600,-0.226446
0.434700,-0.275134
0.434800,-0.469234
0.434900,-0.534475
0.435000,-0.494551
0.435100,-0.363095
0.435200,-0.224174
0.435300,-0.180356
0.435400,-0.177759
0.435500,-0.184900
0.435600,-0.204050
0.435700,-0.174838
0.435800,-0.159583
0.435900,-0.113492
0.436000,-0.107000
0.436100,-0.023907
0.436200,-0.110571
0.436300,-0.062857
0.436400,-0.214112
0.436500,-0.169320
0.436600,-0.163802
0.436700,-0.057989
0.436800,0.054641
0.436900,0.079309
0.437000,-0.049549
0.437100,-0.219306
0.437200,-0.143354
0.437300,0.012770
0.437400,0.288340
0.437500,0.294832
0.437600,0.210765
0.437700,0.065028
0.437800,0.087749
0.437900,0.228617
0.438000,0.407461
0.438100,0.486335
0.438200,0.436674
0.438300,0.362020
0.438400,0.373380
0.438500,0.357151
0.438600,0.403891
0.438700,0.358125
0.438800,0.341571
0.438900,0.302622
0.439000,0.296779
0.439100,0.302946
0.439200,0.287366
0.439300,0.270163
0.439400,0.282498
0.439500,0.296455
0.439600,0.312034
0.439700,0.330211
0.439800,0.221476
0.439900,0.133839
0.440000,0.115013
0.440100,0.121505
0.440200,0.203624
0.440300,0.146498
0.440400,0.141305
0.440500,0.114689
0.440600,0.114040
0.440700,0.122479
0.440800,0.104951
0.440900,0.117610
0.441000,0.098784
0.441100,0.090345
0.441200,0.056264
0.441300,0.027701
0.441400,0.012770
0.441500,-0.014495
0.441600,-0.034619
0.441700,-0.067726
0.441800,-0.117062
0.441900,-0.166723
0.442000,-0.252413
0.442100,-0.406265
0.442200,-0.663983
0.442300,-0.861329
0.442400,-0.792842
0.442500,-0.659763
0.442600,-0.571152
0.442700,-0.727276
0.442800,-1.063543
0.442900,-1.277767
0.443000,-1.374493
0.443100,-1.308603
0.443200,-1.294321
0.443300,-1.419610
0.443400,-1.606894
0.443500,-1.847085
0.443600,-1.970427
0.443700,-2.042160
0.443800,-2.120059
0.443900,-2.218408
0.444000,-2.364146
0.444100,-2.473531
0.444200,-2.597197
0.444300,-2.697818
0.444400,-2.866277
0.444500,-3.015910
0.444600,-3.177878
0.444700,-3.255129
0.444800,-3.300246
0.444900,-3.431054
0.445000,-3.568353
0.445100,-3.673194
0.445200,-3.741033
0.445300,-3.657290
0.445400,-3.535570
0.445500,-3.635867
0.445600,-3.812766
0.445700,-4.034133
0.445800,-4.088664
0.445900,-3.956233
0.446000,-3.762455
0.446100,-3.708250
0.446200,-3.835162
0.446300,-4.012386
0.446400,-4.082172
0.446500,-4.008167
0.446600,-3.876709
0.446700,-3.798809
0.446800,-3.763104
0.446900,-3.761482
0.447000,-3.738761
0.447100,-3.671571
0.447200,-3.606330
0.447300,-3.518043
0.447400,-3.414500
0.447500,-3.306738
0.447600,-3.116531
0.447700,-2.931518
0.447800,-2.794219
0.447900,-2.698792
0.448000,-2.602390
0.448100,-2.428414
0.448200,-2.147974
0.448300,-1.953873
0.448400,-1.702646
0.448500,-1.662073
0.448600,-1.526073
0.448700,-1.381634
0.448800,-1.207658
0.448900,-1.035305
0.449000,-0.862951
0.449100,-0.760384
0.449200,-0.677615
0.449300,-0.625682
0.449400,-0.610102
0.449500,-0.552976
0.449600,-0.569205
0.449700,-0.458522
0.449800,-0.500069
0.449900,-0.409835
0.450000,-0.380947
0.450100,-0.369587
0.450200,-0.331936
0.450300,-0.404642
0.450400,-0.231640
0.450500,-0.103430
0.450600,0.204923
0.450700,0.148445
0.450800,-0.094666
0.450900,-0.254360
0.451000,-0.209568
0.451100,0.098135
0.451200,0.208168
0.451300,0.298402
0.451400,0.219853
0.451500,0.055290
0.451600,0.115987
0.451700,0.173114
0.451800,0.399672
0.451900,0.435051
0.452000,0.423366
0.452100,0.406488
0.452200,0.392531
0.452300,0.407137
0.452400,0.420445
0.452500,0.381495
0.452600,0.360722
0.452700,0.340922
0.452800,0.380846
0.452900,0.259452
0.453000,0.255233
0.453100,0.198431
0.453200,0.123453
0.453300,0.107548
0.453400,0.147796
0.453500,0.182202
0.453600,0.091644
0.453700,-0.139459
0.453800,-0.239754
0.453900,-0.188795
0.454000,-0.030724
0.454100,0.084178
0.454200,-0.022609
0.454300,-0.243325
0.454400,-0.390685
0.454500,-0.351086
0.454600,-0.185549
0.454700,-0.034943
0.454800,-0.092394
0.454900,-0.199182
0.455000,-0.313759
0.455100,-0.270590
0.455200,-0.264098
0.455300,-0.199831
0.455400,-0.261501
0.455500,-0.322847
0.455600,-0.387114
0.455700,-0.368613
0.455800,-0.359850
0.455900,-0.366666
0.456000,-0.401396
0.456100,-0.380947
0.456200,-0.342971
0.456300,-0.304671
0.456400,-0.295258
0.456500,-0.403019
0.456600,-0.420546
0.456700,-0.404317
0.456800,-0.350761
0.456900,-0.248193
0.457000,-0.264423
0.457100,-0.223525
0.457200,-0.193664
0.457300,-0.152442
0.457400,-0.116413
0.457500,-0.092719
0.457600,-0.071621
0.457700,-0.051172
0.457800,-0.033645
0.457900,-0.023258
0.458000,-0.035592
0.458100,-0.056690
0.458200,-0.071296
0.458300,-0.051822
0.458400,-0.092070
0.458500,-0.112843
0.458600,-0.183277
0.458700,-0.203077
0.458800,-0.428985
0.458900,-0.663334
0.459000,-0.755839
0.459100,-0.605233
0.459200,-0.435477
0.459300,-0.406265
0.459400,-0.580890
0.459500,-0.849968
0.459600,-1.003820
0.459700,-0.961949
0.459800,-0.837634
0.459900,-0.791219
0.460000,-0.939877
0.460100,-1.110283
0.460200,-1.250503
0.460300,-1.256994
0.460400,-1.225185
0.460500,-1.192402
0.460600,-1.242388
0.460700,-1.300164
0.460800,-1.319639
0.460900,-1.360861
0.461000,-1.346579
0.461100,-1.382608
0.461200,-1.458884
0.461300,-1.495562
0.461400,-1.532565
0.461500,-1.557882
0.461600,-1.583200
0.461700,-1.672135
0.461800,-1.741596
0.461900,-1.728937
0.462000,-1.599429
0.462100,-1.567944
0.462200,-1.740298
0.462300,-1.968155
0.462400,-2.190494
0.462500,-2.196661
0.462600,-2.065530
0.462700,-1.994770
0.462800,-2.097988
0.462900,-2.333635
0.463000,-2.596223
0.463100,-2.696520
0.463200,-2.690028
0.463300,-2.665360
0.463400,-2.698143
0.463500,-2.808176
0.463600,-2.944826
0.463700,-2.988321
0.463800,-3.002278
0.463900,-3.015586
0.464000,-2.996111
0.464100,-2.995461
0.464200,-2.964301
0.464300,-2.889972
0.464400,-2.843881
0.464500,-2.825055
0.464600,-2.842582
0.464700,-2.859461
0.464800,-2.695546
0.464900,-2.590705
0.465000,-2.563765
0.465100,-2.387841
0.465200,-2.397254
0.465300,-2.353110
0.465400,-2.277482
0.465500,-2.155764
0.465600,-2.022360
0.465700,-1.963286
0.465800,-1.878245
0.465900,-1.872403
0.466000,-1.826637
0.466100,-1.788985
0.466200,-1.784116
0.466300,-1.740298
0.466400,-1.724718
0.466500,-1.699725
0.466600,-1.713033
0.466700,-1.706216
0.466800,-1.693233
0.466900,-1.712708
0.467000,-1.643247
0.467100,-1.498159
0.467200,-1.232651
0.467300,-1.144364
0.467400,-1.199219
0.467500,-1.565023
0.467600,-1.468622
0.467700,-1.301787
0.467800,-1.058999
0.467900,-0.877558
0.468000,-0.843477
0.468100,-0.933386
0.468200,-0.952212
0.468300,-0.906121
0.468400,-0.701310
0.468500,-0.559143
0.468600,-0.481568
0.468700,-0.484164
0.468800,-0.453654
0.468900,-0.430608
0.469000,-0.413730
0.469100,-0.350112
0.469200,-0.341348
0.469300,-0.292986
0.469400,-0.267344
0.469500,-0.240403
0.469600,-0.320575
0.469700,-0.312461
0.469800,-0.366341
0.469900,-0.313759
0.470000,-0.295907
0.470100,-0.192690
0.470200,-0.176785
0.470300,-0.288442
0.470400,-0.500718
0.470500,-0.496498
0.470600,-0.401396
0.470700,-0.216384
0.470800,-0.220929
0.470900,-0.356604
0.471000,-0.611400
0.471100,-0.694493
0.471200,-0.627630
0.471300,-0.458198
0.471400,-0.381272
0.471500,-0.476374
0.471600,-0.588680
0.471700,-0.621463
0.471800,-0.600365
0.471900,-0.530580
0.472000,-0.521167
0.472100,-0.556222
0.472200,-0.614646
0.472300,-0.671448
0.472400,-0.657491
0.472500,-0.683458
0.472600,-0.735715
0.472700,-0.743181
0.472800,-0.733443
0.472900,-0.736689
0.473000,-0.740584
0.473100,-0.814264
0.473200,-0.939877
0.473300,-0.978178
0.473400,-0.965519
0.473500,-0.859056
0.473600,-0.935009
0.473700,-0.967791
0.473800,-0.965195
0.473900,-0.967142
0.474000,-0.959677
0.474100,-0.978178
0.474200,-0.967467
0.474300,-0.997004
0.474400,-1.021997
0.474500,-1.022646
0.474600,-1.037577
0.474700,-1.047963
0.474800,-1.061920
0.474900,-1.055429
0.475000,-1.064842
0.475100,-1.066464
0.475200,-1.123266
0.475300,-1.127486
0.475400,-1.188507
0.475500,-1.399161
0.475600,-1.552689
0.475700,-1.485500
0.475800,-1.266732
0.475900,-1.092106
0.476000,-1.228431
0.476100,-1.426751
0.476200,-1.656555
0.476300,-1.692908
0.476400,-1.584498
0.476500,-1.430970
0.476600,-1.448498
0.476700,-1.557233
0.476800,-1.702646
0.476900,-1.750684
0.477000,-1.721472
0.477100,-1.653959
0.477200,-1.636756
0.477300,-1.642923
0.477400,-1.662073
0.477500,-1.649739
0.477600,-1.614359
0.477700,-1.593586
0.477800,-1.608517
0.477900,-1.596507
0.478000,-1.624097
0.478100,-1.543276
0.478200,-1.543276
0.478300,-1.525099
0.478400,-1.575410
0.478500,-1.551715
0.478600,-1.473491
0.478700,-1.330674
0.478800,-1.362808
0.478900,-1.511142
0.479000,-1.725691
0.479100,-1.826637
0.479200,-1.716278
0.479300,-1.529643
0.479400,-1.464402
0.479500,-1.592937
0.479600,-1.830207
0.479700,-1.993797
0.479800,-1.970751
0.479900,-1.867209
0.480000,-1.808784
0.480100,-1.813004
0.480200,-1.886360
0.480300,-1.928556
0.480400,-1.939267
0.480500,-1.907458
0.480600,-1.873052
0.480700,-1.843839
0.480800,-1.809758
0.480900,-1.717901
0.481000,-1.571839
0.481100,-1.535486
0.481200,-1.558207
0.481300,-1.597481
0.481400,-1.564374
0.481500,-1.442331
0.481600,-1.402732
0.481700,-1.343658
0.481800,-1.278417
0.481900,-1.259591
0.482000,-1.209605
0.482100,-1.151505
0.482200,-1.070359
0.482300,-0.983047
0.482400,-0.921052
0.482500,-0.930465
0.482600,-0.981099
0.482700,-0.997978
0.482800,-0.993109
0.482900,-1.051209
0.483000,-1.022970
0.483100,-1.065166
0.483200,-1.060297
0.483300,-1.157023
0.483400,-1.137873
0.483500,-1.257319
0.483600,-1.210254
0.483700,-1.275495
0.483800,-0.974932
0.483900,-0.856135
0.484000,-0.744154
0.484100,-1.030436
0.484200,-1.281987
0.484300,-1.168383
0.484400,-0.963247
0.484500,-0.720460
0.484600,-0.652947
0.484700,-0.720135
0.484800,-0.902226
0.484900,-0.951887
0.485000,-0.836985
0.485100,-0.703582
0.485200,-0.549081
0.485300,-0.600689
0.485400,-0.639315
0.485500,-0.640613
0.485600,-0.611076
0.485700,-0.586732
0.485800,-0.572451
0.485900,-0.567582
0.486000,-0.591926
0.486100,-0.600365
0.486200,-0.682808
0.486300,-0.700660
0.486400,-0.770446
0.486500,-0.810369
0.486600,-0.874636
0.486700,-0.743505
0.486800,-0.813290
0.486900,-0.766226
0.487000,-1.025243
0.487100,-1.137873
0.487200,-1.127486
0.487300,-0.969739
0.487400,-0.768823
0.487500,-0.862951
0.487600,-1.037901
0.487700,-1.256670
0.487800,-1.261214
0.487900,-1.154426
0.488000,-0.987591
0.488100,-1.000574
0.488200,-1.151505
0.488300,-1.284259
0.488400,-1.289452
0.488500,-1.309901
0.488600,-1.248230
0.488700,-1.277443
0.488800,-1.313796
0.488900,-1.386503
0.489000,-1.377414
0.489100,-1.354044
0.489200,-1.392345
0.489300,-1.387801
0.489400,-1.380335
0.489500,-1.343333
0.489600,-1.309901
0.489700,-1.302111
0.489800,-1.410522
0.489900,-1.479982
0.490000,-1.475114
0.490100,-1.443304
0.490200,-1.344307
0.490300,-1.391371
0.490400,-1.383257
0.490500,-1.377090
0.490600,-1.386827
0.490700,-1.413443
0.490800,-1.417662
0.490900,-1.409548
0.491000,-1.422207
0.491100,-1.415390
0.491200,-1.432593
0.491300,-1.436813
0.491400,-1.456612
0.491500,-1.478359
0.491600,-1.505949
0.491700,-1.523476
0.491800,-1.562426
0.491900,-1.576059
0.492000,-1.602025
0.492100,-1.762369
0.492200,-2.042484
0.492300,-2.125902
0.492400,-2.031773
0.492500,-1.821768
0.492600,-1.782818
0.492700,-1.907133
0.492800,-2.201854
0.492900,-2.396929
0.493000,-2.368690
0.493100,-2.214513
0.493200,-2.131095
0.493300,-2.195687
0.493400,-2.315134
0.493500,-2.474504
0.493600,-2.497225
0.493700,-2.479698
0.493800,-2.429063
0.493900,-2.451784
0.494000,-2.472557
0.494100,-2.494304
0.494200,-2.517025
0.494300,-2.532280
0.494400,-2.579020
0.494500,-2.640042
0.494600,-2.646209
0.494700,-2.664386
0.494800,-2.618295
0.494900,-2.641016
0.495000,-2.669579
0.495100,-2.663412
0.495200,-2.625436
0.495300,-2.456003
0.495400,-2.389464
0.495500,-2.435230
0.495600,-2.581942
0.495700,-2.762735
0.495800,-2.750076
0.495900,-2.595250
0.496000,-2.426141
0.496100,-2.423220
0.496200,-2.553054
0.496300,-2.708205
0.496400,-2.749102
0.496500,-2.676720
0.496600,-2.559870
0.496700,-2.489111
0.496800,-2.481645
0.496900,-2.488462
0.497000,-2.483917
0.497100,-2.456328
0.497200,-2.441721
0.497300,-2.380700
0.497400,-2.294361
0.497500,-2.159334
0.497600,-2.012947
0.497700,-1.910703
0.497800,-1.862341
0.497900,-1.821768
0.498000,-1.768861
0.498100,-1.647791
0.498200,-1.504001
0.498300,-1.467973
0.498400,-1.269653
0.498500,-1.234923
0.498600,-1.198569
0.498700,-1.118398
0.498800,-1.035629
0.498900,-0.954484
0.499000,-0.864899
0.499100,-0.806799
0.499200,-0.781157
0.499300,-0.774665
0.499400,-0.787324
0.499500,-0.766551
0.499600,-0.765252
0.499700,-0.771419
0.499800,-0.732794
0.499900,-0.775964
0.500000,-0.749672
0.500100,-0.837309
0.500200,-0.853539
0.500300,-0.904498
0.500400,-0.743505
0.500500,-0.535448
0.500600,-0.275783
0.500700,-0.444241
0.500800,-0.664956
0.500900,-0.818159
0.501000,-0.555572
0.501100,-0.378351
0.501200,-0.189444
0.501300,-0.145950
0.501400,-0.221253
0.501500,-0.324146
0.501600,-0.239430
0.501700,-0.126475
0.501800,0.035816
0.501900,0.126698
0.502000,0.124751
0.502100,0.170841
0.502200,0.170192
0.502300,0.170192
0.502400,0.201677
0.502500,0.204923
0.502600,0.252311
0.502700,0.265944
0.502800,0.318851
0.502900,0.158832
0.503000,0.124751
0.503100,0.060484
0.503200,0.016016
0.503300,0.073467
0.503400,0.121180
0.503500,0.137410
0.503600,0.017964
0.503700,-0.203401
0.503800,-0.211516
0.503900,-0.135888
0.504000,0.062431
0.504100,0.101056
0.504200,-0.029101
0.504300,-0.232614
0.504400,-0.325768
0.504500,-0.270265
0.504600,-0.136213
0.504700,-0.076814
0.504800,-0.181330
0.504900,-0.305644
0.505000,-0.344270
0.505100,-0.346866
0.505200,-0.401396
0.505300,-0.415678
0.505400,-0.520193
0.505500,-0.578293
0.505600,-0.639639
0.505700,-0.638016
0.505800,-0.695467
0.505900,-0.805825
0.506000,-0.863601
0.506100,-0.899305
0.506200,-0.912613
0.506300,-0.920402
0.506400,-0.981099
0.506500,-1.131381
0.506600,-1.210254
0.506700,-1.253099
0.506800,-1.162216
0.506900,-1.204087
0.507000,-1.241414
0.507100,-1.252450
0.507200,-1.294321
0.507300,-1.320937
0.507400,-1.340412
0.507500,-1.378063
0.507600,-1.386503
0.507700,-1.406627
0.507800,-1.392020
0.507900,-1.403056
0.508000,-1.373844
0.508100,-1.386503
0.508200,-1.370273
0.508300,-1.375142
0.508400,-1.374168
0.508500,-1.378388
0.508600,-1.436813
0.508700,-1.473815
0.508800,-1.689663
0.508900,-1.937644
0.509000,-1.980489
0.509100,-1.775677
0.509200,-1.606894
0.509300,-1.660450
0.509400,-1.892527
0.509500,-2.119086
0.509600,-2.205749
0.509700,-2.133367
0.509800,-1.969128
0.509900,-1.932451
0.510000,-2.089224
0.510100,-2.254761
0.510200,-2.339802
0.510300,-2.324871
0.510400,-2.286895
0.510500,-2.281377
0.510600,-2.367067
0.510700,-2.440748
0.510800,-2.466065
0.510900,-2.468337
0.511000,-2.479698
0.511100,-2.535851
0.511200,-2.640691
0.511300,-2.663412
0.511400,-2.666009
0.511500,-2.661789
0.511600,-2.699116
0.511700,-2.761112
0.511800,-2.746181
0.511900,-2.689379
0.512000,-2.500147
0.512100,-2.483268
0.512200,-2.593951
0.512300,-2.804281
0.512400,-2.923728
0.512500,-2.851995
0.512600,-2.654324
0.512700,-2.543641
0.512800,-2.625111
0.512900,-2.845179
0.513000,-3.017858
0.513100,-3.026622
0.513200,-2.928597
0.513300,-2.839986
0.513400,-2.842258
0.513500,-2.874392
0.513600,-2.938335
0.513700,-2.944502
0.513800,-2.916263
0.513900,-2.879260
0.514000,-2.879910
0.514100,-2.830573
0.514200,-2.751374
0.514300,-2.653675
0.514400,-2.612452
0.514500,-2.576424
0.514600,-2.570257
0.514700,-2.544939
0.514800,-2.398552
0.514900,-2.320652
0.515000,-2.243076
0.515100,-2.077539
0.515200,-2.055143
0.515300,-2.007429
0.515400,-1.887983
0.515500,-1.753930
0.515600,-1.643247
0.515700,-1.571839
0.515800,-1.482904
0.515900,-1.517634
0.516000,-1.424154
0.516100,-1.412794
0.516200,-1.367352
0.516300,-1.363133
0.516400,-1.285882
0.516500,-1.282961
0.516600,-1.263810
0.516700,-1.237844
0.516800,-1.241090
0.516900,-1.210579
0.517000,-1.157347
0.517100,-0.934360
0.517200,-0.641262
0.517300,-0.603286
0.517400,-0.731496
0.517500,-1.039849
0.517600,-0.954808
0.517700,-0.821080
0.517800,-0.531878
0.517900,-0.454952
0.518000,-0.467286
0.518100,-0.578618
0.518200,-0.656193
0.518300,-0.546484
0.518400,-0.383544
0.518500,-0.212489
0.518600,-0.154714
0.518700,-0.188146
0.518800,-0.182953
0.518900,-0.183277
0.519000,-0.151793
0.519100,-0.108299
0.519200,-0.090771
0.519300,-0.098561
0.519400,-0.091745
0.519500,-0.116738
0.519600,-0.131344
0.519700,-0.138485
0.519800,-0.219955
0.519900,-0.166723
0.520000,-0.145301
0.520100,-0.084280
0.520200,-0.116738
0.520300,-0.193339
0.520400,-0.444890
0.520500,-0.354332
0.520600,-0.259878
0.520700,-0.028127
0.520800,-0.098237
0.520900,-0.227420
0.521000,-0.454627
0.521100,-0.470857
0.521200,-0.398799
0.521300,-0.216060
0.521400,-0.189769
0.521500,-0.301425
0.521600,-0.404966
0.521700,-0.420222
0.521800,-0.429635
0.521900,-0.393931
0.522000,-0.431907
0.522100,-0.479945
0.522200,-0.568556
0.522300,-0.594847
0.522400,-0.602312
0.522500,-0.624708
0.522600,-0.670150
0.522700,-0.696441
0.522800,-0.693520
0.522900,-0.685081
0.523000,-0.675343
0.523100,-0.775314
0.523200,-0.886321
0.523300,-0.912937
0.523400,-0.929815
0.523500,-0.844450
0.523600,-0.898006
0.523700,-0.926245
0.523800,-0.932412
0.523900,-0.938904
0.524000,-0.953834
0.524100,-0.955133
0.524200,-0.969739
0.524300,-0.970064
0.524400,-0.976880
0.524500,-0.969739
0.524600,-0.968765
0.524700,-0.969414
0.524800,-0.951238
0.524900,-0.948641
0.525000,-0.931438
0.525100,-0.931438
0.525200,-0.948966
0.525300,-0.953834
0.525400,-1.127486
0.525500,-1.299190
0.525600,-1.490369
0.525700,-1.380985
0.525800,-1.207658
0.525900,-1.061596
0.526000,-1.196946
0.526100,-1.410197
0.526200,-1.649414
0.526300,-1.642274
0.526400,-1.540030
0.526500,-1.470245
0.526600,-1.481930
0.526700,-1.660775
0.526800,-1.827286
0.526900,-1.900966
0.527000,-1.913625
0.527100,-1.880517
0.527200,-1.945434
0.527300,-1.980164
0.527400,-2.004183
0.527500,-2.039887
0.527600,-2.076565
0.527700,-2.088575
0.527800,-2.174914
0.527900,-2.253139
0.528000,-2.244050
0.528100,-2.280728
0.528200,-2.307993
0.528300,-2.387516
0.528400,-2.444967
0.528500,-2.457626
0.528600,-2.336556
0.528700,-2.290141
0.528800,-2.399850
0.528900,-2.569283
0.529000,-2.791947
0.529100,-2.871470
0.529200,-2.785780
0.529300,-2.670553
0.529400,-2.690677
0.529500,-2.852320
0.529600,-3.087319
0.529700,-3.257401
0.529800,-3.255129
0.529900,-3.202546
0.530000,-3.184045
0.530100,-3.213582
0.530200,-3.288561
0.530300,-3.332380
0.530400,-3.365163
0.530500,-3.352504
0.530600,-3.315826
0.530700,-3.327836
0.530800,-3.245391
0.530900,-3.138279
0.531000,-3.068493
0.531100,-3.065896
0.531200,-3.075634
0.531300,-3.081801
0.531400,-2.989619
0.531500,-2.871470
0.531600,-2.839661
0.531700,-2.674773
0.531800,-2.644262
0.531900,-2.600443
0.532000,-2.542018
0.532100,-2.425817
0.532200,-2.344022
0.532300,-2.233014
0.532400,-2.190169
0.532500,-2.146675
0.532600,-2.137587
0.532700,-2.119086
0.532800,-2.092145
0.532900,-2.121033
0.533000,-2.018465
0.533100,-2.034694
0.533200,-1.933749
0.533300,-1.963286
0.533400,-1.927906
0.533500,-1.942513
0.533600,-1.924011
0.533700,-1.830856
0.533800,-1.610140
0.533900,-1.360861
0.534000,-1.373195
0.534100,-1.647142
0.534200,-1.755553
0.534300,-1.693882
0.534400,-1.446226
0.534500,-1.339763
0.534600,-1.202464
0.534700,-1.348851
0.534800,-1.439734
0.534900,-1.389424
0.535000,-1.328727
0.535100,-1.164164
0.535200,-1.163839
0.535300,-1.105414
0.535400,-1.139171
0.535500,-1.067114
0.535600,-1.034655
0.535700,-1.040498
0.535800,-1.021672
0.535900,-0.991811
0.536000,-0.951238
0.536100,-0.933061
0.536200,-0.881453
0.536300,-1.032383
0.536400,-0.998302
0.536500,-1.025892
0.536600,-0.975906
0.536700,-0.878856
0.536800,-0.895410
0.536900,-0.888269
0.537000,-1.149882
0.537100,-1.155725
0.537200,-1.098273
0.537300,-0.893787
0.537400,-0.787648
0.537500,-0.858407
0.537600,-1.073281
0.537700,-1.211877
0.537800,-1.161892
0.537900,-1.004145
0.538000,-0.871391
0.538100,-0.930140
0.538200,-1.040173
0.538300,-1.155400
0.538400,-1.131056
0.538500,-1.114827
0.538600,-1.089510
0.538700,-1.181042
0.538800,-1.206684
0.538900,-1.247257
0.539000,-1.223238
0.539100,-1.212851
0.539200,-1.240765
0.539300,-1.249204
0.539400,-1.255696
0.539500,-1.210904
0.539600,-1.182016
0.539700,-1.188832
0.539800,-1.309577
0.539900,-1.353720
0.540000,-1.328727
0.540100,-1.234923
0.540200,-1.225185
0.540300,-1.259591
0.540400,-1.258293
0.540500,-1.232001
0.540600,-1.226159
0.540700,-1.239791
0.540800,-1.223238
0.540900,-1.229405
0.541000,-1.202464
0.541100,-1.194025
0.541200,-1.170980
0.541300,-1.158321
0.541400,-1.129109
0.541500,-1.140469
0.541600,-1.130083
0.541700,-1.137223
0.541800,-1.169032
0.541900,-1.216746
0.542000,-1.223238
0.542100,-1.431944
0.542200,-1.676355
0.542300,-1.720823
0.542400,-1.564698
0.542500,-1.375142
0.542600,-1.384555
0.542700,-1.575734
0.542800,-1.882789
0.542900,-2.033396
0.543000,-1.985682
0.543100,-1.827935
0.543200,-1.806188
0.543300,-1.926933
0.543400,-2.130771
0.543500,-2.249244
0.543600,-2.271640
0.543700,-2.292738
0.543800,-2.306370
0.543900,-2.365444
0.544000,-2.443020
0.544100,-2.489111
0.544200,-2.562791
0.544300,-2.592328
0.544400,-2.668605
0.544500,-2.747155
0.544600,-2.792596
0.544700,-2.827976
0.544800,-2.832196
0.544900,-2.906850
0.545000,-2.957810
0.545100,-2.999356
0.545200,-2.965600
0.545300,-2.815642
0.545400,-2.787079
0.545500,-2.900358
0.545600,-3.138928
0.545700,-3.316475
0.545800,-3.305115
0.545900,-3.141524
0.546000,-3.007471
0.546100,-3.062326
0.546200,-3.262594
0.546300,-3.464162
0.546400,-3.514148
0.546500,-3.433001
0.546600,-3.329134
0.546700,-3.318748
0.546800,-3.355426
0.546900,-3.420018
0.547000,-3.457994
0.547100,-3.439818
0.547200,-3.411254
0.547300,-3.366137
0.547400,-3.329459
0.547500,-3.235654
0.547600,-3.111338
0.547700,-3.042851
0.547800,-3.026622
0.547900,-2.993514
0.548000,-2.955213
0.548100,-2.766954
0.548200,-2.639393
0.548300,-2.561817
0.548400,-2.360576
0.548500,-2.315459
0.548600,-2.236585
0.548700,-2.120709
0.548800,-1.967505
0.548900,-1.800021
0.549000,-1.678951
0.549100,-1.586445
0.549200,-1.532889
0.549300,-1.492966
0.549400,-1.423505
0.549500,-1.391047
0.549600,-1.309901
0.549700,-1.215772
0.549800,-1.202140
0.549900,-1.097624
0.550000,-1.150856
0.550100,-1.033357
0.550200,-1.043095
0.550300,-0.921701
0.550400,-0.773691
0.550500,-0.471181
0.550600,-0.316031
0.550700,-0.488384
0.550800,-0.716890
0.550900,-0.726952
0.551000,-0.477997
0.551100,-0.259554
0.551200,-0.119984
0.551300,-0.071621
0.551400,-0.213463
0.551500,-0.260203
0.551600,-0.132642
0.551700,0.044904
0.551800,0.189992
0.551900,0.252961
0.552000,0.273734
0.552100,0.294182
0.552200,0.305543
0.552300,0.355204
0.552400,0.415901
0.552500,0.428884
0.552600,0.454526
0.552700,0.465886
0.552800,0.488931
0.552900,0.367213
0.553000,0.399022
0.553100,0.259452
0.553200,0.255233
0.553300,0.191939
0.553400,0.250364
0.553500,0.181877
0.553600,0.032570
0.553700,-0.253062
0.553800,-0.327391
0.553900,-0.308566
0.554000,-0.180031
0.554100,-0.243974
0.554200,-0.438723
0.554300,-0.761033
0.554400,-0.906121
0.554500,-0.927219
0.554600,-0.812317
0.554700,-0.823677
0.554800,-1.012584
0.554900,-1.222913
0.555000,-1.356966
0.555100,-1.441357
0.555200,-1.473166
0.555300,-1.548469
0.555400,-1.663371
0.555500,-1.771457
0.555600,-1.851305
0.555700,-1.879868
0.555800,-1.953224
0.555900,-2.003210
0.556000,-2.031448
0.556100,-2.005806
0.556200,-1.978866
0.556300,-1.943811
0.556400,-1.991849
0.556500,-2.088250
0.556600,-2.065854
0.556700,-2.024307
0.556800,-1.853901
0.556900,-1.863639
0.557000,-1.854226
0.557100,-1.784116
0.557200,-1.753930
0.557300,-1.710760
0.557400,-1.722121
0.557500,-1.697128
0.557600,-1.672135
0.557700,-1.674732
0.557800,-1.684794
0.557900,-1.673758
0.558000,-1.681548
0.558100,-1.660450
0.558200,-1.689338
0.558300,-1.714655
0.558400,-1.726665
0.558500,-1.758799
0.558600,-1.750684
0.558700,-1.862990
0.558800,-2.085329
0.558900,-2.271315
0.559000,-2.287869
0.559100,-2.045405
0.559200,-1.944135
0.559300,-1.991849
0.559400,-2.301177
0.559500,-2.521244
0.559600,-2.631603
0.559700,-2.565712
0.559800,-2.462495
0.559900,-2.482294
0.560000,-2.613102
0.560100,-2.779288
0.560200,-2.868874
0.560300,-2.881208
0.560400,-2.893542
0.560500,-2.882831
0.560600,-2.864005
0.560700,-2.873742
0.560800,-2.884778
0.560900,-2.911070
0.561000,-2.897112
0.561100,-2.928922
0.561200,-3.002602
0.561300,-2.975986
0.561400,-2.946125
0.561500,-2.947423
0.561600,-2.994488
0.561700,-3.041877
0.561800,-3.037982
0.561900,-2.958783
0.562000,-2.793246
0.562100,-2.822783
0.562200,-2.978908
0.562300,-3.208713
0.562400,-3.334652
0.562500,-3.218451
0.562600,-3.036359
0.562700,-2.961380
0.562800,-3.057457
0.562900,-3.295377
0.563000,-3.447608
0.563100,-3.410930
0.563200,-3.309010
0.563300,-3.223969
0.563400,-3.204169
0.563500,-3.252857
0.563600,-3.284666
0.563700,-3.280771
0.563800,-3.250585
0.563900,-3.210336
0.564000,-3.150613
0.564100,-3.053237
0.564200,-2.931843
0.564300,-2.824081
0.564400,-2.797141
0.564500,-2.792596
0.564600,-2.769551
0.564700,-2.698792
0.564800,-2.531307
0.564900,-2.448862
0.565000,-2.278131
0.565100,-2.260279
0.565200,-2.219057
0.565300,-2.139210
0.565400,-2.092145
0.565500,-2.007754
0.565600,-1.877271
0.565700,-1.788336
0.565800,-1.775028
0.565900,-1.758799
0.566000,-1.757500
0.566100,-1.706541
0.566200,-1.722770
0.566300,-1.655581
0.566400,-1.595209
0.566500,-1.572488
0.566600,-1.507896
0.566700,-1.483553
0.566800,-1.460832
0.566900,-1.417662
0.567000,-1.371247
0.567100,-1.024593
0.567200,-0.849319
0.567300,-0.697415
0.567400,-0.971362
0.567500,-1.155075
0.567600,-1.093405
0.567700,-0.853214
0.567800,-0.601663
0.567900,-0.555572
0.568000,-0.667229
0.568100,-0.782455
0.568200,-0.876259
0.568300,-0.748049
0.568400,-0.656193
0.568500,-0.502341
0.568600,-0.612050
0.568700,-0.605558
0.568800,-0.689300
0.568900,-0.682484
0.569000,-0.701959
0.569100,-0.708126
0.569200,-0.704880
0.569300,-0.729224
0.569400,-0.725653
0.569500,-0.762980
0.569600,-0.810045
0.569700,-0.859056
0.569800,-0.954159
0.569900,-1.001223
0.570000,-0.940851
0.570100,-0.933710
0.570200,-0.963896
0.570300,-1.188507
0.570400,-1.344631
0.570500,-1.321911
0.570600,-1.141118
0.570700,-0.999276
0.570800,-1.108985
0.570900,-1.321911
0.571000,-1.567944
0.571100,-1.581577
0.571200,-1.484202
0.571300,-1.333920
0.571400,-1.361510
0.571500,-1.514063
0.571600,-1.677978
0.571700,-1.711410
0.571800,-1.755877
0.571900,-1.746789
0.572000,-1.839620
0.572100,-1.930503
0.572200,-2.033396
0.572300,-2.096040
0.572400,-2.144728
0.572500,-2.197635
0.572600,-2.270341
0.572700,-2.294036
0.572800,-2.285272
0.572900,-2.278456
0.573000,-2.265797
0.573100,-2.365769
0.573200,-2.434581
0.573300,-2.432633
0.573400,-2.357979
0.573500,-2.277482
0.573600,-2.299229
0.573700,-2.291439
0.573800,-2.269692
0.573900,-2.257683
0.574000,-2.231391
0.574100,-2.214838
0.574200,-2.161606
0.574300,-2.113243
0.574400,-2.063582
0.574500,-2.006131
0.574600,-1.943486
0.574700,-1.893825
0.574800,-1.861691
0.574900,-1.790932
0.575000,-1.743868
0.575100,-1.750360
0.575200,-1.743219
0.575300,-1.762694
0.575400,-1.910054
0.575500,-2.193740
0.575600,-2.302800
0.575700,-2.143754
0.575800,-1.975295
0.575900,-1.924661
0.576000,-2.068775
0.576100,-2.430036
0.576200,-2.583240
0.576300,-2.624787
0.576400,-2.434581
0.576500,-2.372910
0.576600,-2.433931
0.576700,-2.613102
0.576800,-2.756568
0.576900,-2.817589
0.577000,-2.784482
0.577100,-2.734171
0.577200,-2.775069
0.577300,-2.813370
0.577400,-2.866277
0.577500,-2.891919
0.577600,-2.905876
0.577700,-2.925027
0.577800,-2.976960
0.577900,-3.038956
0.578000,-2.999032
0.578100,-2.989944
0.578200,-2.945476
0.578300,-2.994163
0.578400,-3.012015
0.578500,-2.951318
0.578600,-2.774420
0.578700,-2.634849
0.578800,-2.705933
0.578900,-2.865952
0.579000,-3.069142
0.579100,-3.080503
0.579200,-2.902630
0.579300,-2.716968
0.579400,-2.700090
0.579500,-2.845828
0.579600,-3.060054
0.579700,-3.154183
0.579800,-3.081152
0.579900,-2.974688
0.580000,-2.887375
0.580100,-2.902630
0.580200,-2.929246
0.580300,-2.929246
0.580400,-2.890296
0.580500,-2.840310
0.580600,-2.759164
0.580700,-2.671202
0.580800,-2.534228
0.580900,-2.395306
0.581000,-2.300852
0.581100,-2.251516
0.581200,-2.210943
0.581300,-2.190169
0.581400,-2.069425
0.581500,-1.912326
0.581600,-1.869806
0.581700,-1.660450
0.581800,-1.649739
0.581900,-1.606894
0.582000,-1.526722
0.582100,-1.432593
0.582200,-1.293023
0.582300,-1.202464
0.582400,-1.153777
0.582500,-1.110608
0.582600,-1.113204
0.582700,-1.081395
0.582800,-1.076526
0.582900,-1.052183
0.583000,-1.010961
0.583100,-0.974608
0.583200,-0.990188
0.583300,-0.966818
0.583400,-1.015180
0.583500,-1.010961
0.583600,-1.051858
0.583700,-0.900603
0.583800,-0.691572
0.583900,-0.503964
0.584000,-0.667229
0.584100,-0.989863
0.584200,-1.144040
0.584300,-1.071982
0.584400,-0.905147
0.584500,-0.727276
0.584600,-0.729224
0.584700,-0.844775
0.584800,-1.026541
0.584900,-1.021997
0.585000,-0.995381
0.585100,-0.852240
0.585200,-0.820756
0.585300,-0.793491
0.585400,-0.796088
0.585500,-0.822379
0.585600,-0.849644
0.585700,-0.818159
0.585800,-0.796737
0.585900,-0.792517
0.586000,-0.772718
0.586100,-0.770770
0.586200,-0.840231
0.586300,-0.881453
0.586400,-0.874961
0.586500,-0.960975
0.586600,-0.912937
0.586700,-0.905472
0.586800,-0.900278
0.586900,-0.998627
0.587000,-1.207658
0.587100,-1.244011
0.587200,-1.155400
0.587300,-0.991811
0.587400,-0.899305
0.587500,-1.011935
0.587600,-1.217395
0.587700,-1.315419
0.587800,-1.266083
0.587900,-1.085939
0.588000,-0.955133
0.588100,-0.971686
0.588200,-1.023295
0.588300,-1.029787
0.588400,-1.045042
0.588500,-0.989863
0.588600,-0.942799
0.588700,-0.938904
0.588800,-0.938904
0.588900,-0.962598
0.589000,-0.921376
0.589100,-0.919753
0.589200,-0.896383
0.589300,-0.868469
0.589400,-0.820431
0.589500,-0.757138
0.589600,-0.713319
0.589700,-0.713319
0.589800,-0.809720
0.589900,-0.831467
0.590000,-0.814589
0.590100,-0.680212
0.590200,-0.689625
0.590300,-0.713644
0.590400,-0.676317
0.590500,-0.635095
0.590600,-0.596470
0.590700,-0.554599
0.590800,-0.531878
0.590900,-0.497148
0.591000,-0.463716
0.591100,-0.425415
0.591200,-0.405616
0.591300,-0.366017
0.591400,-0.360174
0.591500,-0.340699
0.591600,-0.331936
0.591700,-0.331611
0.591800,-0.328690
0.591900,-0.383544
0.592000,-0.456575
0.592100,-0.700985
0.592200,-0.929491
0.592300,-0.975257
0.592400,-0.848345
0.592500,-0.682159
0.592600,-0.774016
0.592700,-1.021997
0.592800,-1.268355
0.592900,-1.444278
0.593000,-1.370273
0.593100,-1.312173
0.593200,-1.306655
0.593300,-1.470894
0.593400,-1.655906
0.593500,-1.757825
0.593600,-1.801968
0.593700,-1.804889
0.593800,-1.841243
0.593900,-1.938618
0.594000,-1.986331
0.594100,-2.035343
0.594200,-2.057090
0.594300,-2.073644
0.594400,-2.165501
0.594500,-2.237234
0.594600,-2.249893
0.594700,-2.276509
0.594800,-2.293387
0.594900,-2.429712
0.595000,-2.544614
0.595100,-2.619269
0.595200,-2.626410
0.595300,-2.528385
0.595400,-2.615698
0.595500,-2.759164
0.595600,-3.005524
0.595700,-3.200599
0.595800,-3.177553
0.595900,-3.074985
0.596000,-3.028894
0.596100,-3.165544
0.596200,-3.409307
0.596300,-3.609900
0.596400,-3.681309
0.596500,-3.635542
0.596600,-3.589451
0.596700,-3.608926
0.596800,-3.689099
0.596900,-3.753367
0.597000,-3.762131
0.597100,-3.769596
0.597200,-3.784852
0.597300,-3.773491
0.597400,-3.747200
0.597500,-3.601136
0.597600,-3.520639
0.597700,-3.461240
0.597800,-3.473899
0.597900,-3.467407
0.598000,-3.415149
0.598100,-3.230136
0.598200,-3.125944
0.598300,-2.965924
0.598400,-2.878611
0.598500,-2.792272
0.598600,-2.700739
0.598700,-2.586161
0.598800,-2.429387
0.598900,-2.272289
0.599000,-2.168422
0.599100,-2.084680
0.599200,-2.043782
0.599300,-1.997367
0.599400,-1.945434
0.599500,-1.931152
0.599600,-1.884412
0.599700,-1.837672
0.599800,-1.787362
0.599900,-1.769835
0.600000,-1.763018
0.600100,-1.745166
0.600200,-1.780870
0.600300,-1.639028
0.600400,-1.524450
0.600500,-1.184612
0.600600,-1.118073
0.600700,-1.301787
0.600800,-1.529968
0.600900,-1.496536
0.601000,-1.254722
0.601100,-1.047963
0.601200,-0.990512
0.601300,-0.975581
0.601400,-1.145662
0.601500,-1.179094
0.601600,-1.139820
0.601700,-0.927219
0.601800,-0.857758
0.601900,-0.843152
0.602000,-0.860679
0.602100,-0.853539
0.602200,-0.799009
0.602300,-0.787324
0.602400,-0.780508
0.602500,-0.779209
0.602600,-0.780508
0.602700,-0.752918
0.602800,-0.723706
0.602900,-0.773042
0.603000,-0.772718
0.603100,-0.832765
0.603200,-0.809720
0.603300,-0.793491
0.603400,-0.703582
0.603500,-0.730522
0.603600,-0.870741
0.603700,-1.093405
0.603800,-1.028164
0.603900,-0.918780
0.604000,-0.713644
0.604100,-0.777911
0.604200,-0.945720
0.604300,-1.180717
0.604400,-1.232001
0.604500,-1.145662
0.604600,-0.973309
0.604700,-0.967467
0.604800,-1.090159
0.604900,-1.235896
0.605000,-1.238493
0.605100,-1.243362
0.605200,-1.187209
0.605300,-1.244011
0.605400,-1.330025
0.605500,-1.394942
0.605600,-1.396240
0.605700,-1.354369
0.605800,-1.355343
0.605900,-1.400460
0.606000,-1.398512
0.606100,-1.372870
0.606200,-1.331324
0.606300,-1.293023
0.606400,-1.379037
0.606500,-1.474464
0.606600,-1.489071
0.606700,-1.429023
0.606800,-1.336192
0.606900,-1.409548
0.607000,-1.405977
0.607100,-1.415066
0.607200,-1.400460
0.607300,-1.410197
0.607400,-1.420584
0.607500,-1.409223
0.607600,-1.422531
0.607700,-1.405653
0.607800,-1.380335
0.607900,-1.410197
0.608000,-1.397863
0.608100,-1.418961
0.608200,-1.412469
0.608300,-1.416689
0.608400,-1.445577
0.608500,-1.476087
0.608600,-1.497834
0.608700,-1.628966
0.608800,-1.861367
0.608900,-2.038589
0.609000,-1.928556
0.609100,-1.755877
0.609200,-1.602025
0.609300,-1.728613
0.609400,-2.026904
0.609500,-2.214838
0.609600,-2.256709
0.609700,-2.078837
0.609800,-1.996069
0.609900,-2.034370
0.610000,-2.193415
0.610100,-2.365769
0.610200,-2.407640
0.610300,-2.394332
0.610400,-2.358628
0.610500,-2.417702
0.610600,-2.466390
0.610700,-2.507612
0.610800,-2.536175
0.610900,-2.550782
0.611000,-2.548185
0.611100,-2.615049
0.611200,-2.704959
0.611300,-2.706257
0.611400,-2.717942
0.611500,-2.696520
0.611600,-2.733198
0.611700,-2.762410
0.611800,-2.753646
0.611900,-2.634849
0.612000,-2.511507
0.612100,-2.560844
0.612200,-2.720214
0.612300,-2.915614
0.612400,-2.985075
0.612500,-2.829274
0.612600,-2.643612
0.612700,-2.596872
0.612800,-2.719240
0.612900,-2.969819
0.613000,-3.094460
0.613100,-3.044474
0.613200,-2.930545
0.613300,-2.872444
0.613400,-2.918210
0.613500,-2.984426
0.613600,-3.026946
0.613700,-3.005848
0.613800,-2.988645
0.613900,-2.943528
0.614000,-2.931518
0.614100,-2.872444
0.614200,-2.763708
0.614300,-2.694572
0.614400,-2.715995
0.614500,-2.698792
0.614600,-2.712424
0.614700,-2.622839
0.614800,-2.493330
0.614900,-2.479049
0.615000,-2.281053
0.615100,-2.310590
0.615200,-2.279430
0.615300,-2.197635
0.615400,-2.122332
0.615500,-2.047353
0.615600,-1.940890
0.615700,-1.869806
0.615800,-1.828909
0.615900,-1.824364
0.616000,-1.798722
0.616100,-1.778923
0.616200,-1.793854
0.616300,-1.697128
0.616400,-1.706541
0.616500,-1.648765
0.616600,-1.684794
0.616700,-1.677978
0.616800,-1.637080
0.616900,-1.745491
0.617000,-1.549443
0.617100,-1.412469
0.617200,-1.042770
0.617300,-1.179419
0.617400,-1.366378
0.617500,-1.548469
0.617600,-1.494264
0.617700,-1.145338
0.617800,-0.989538
0.617900,-0.865224
0.618000,-0.960651
0.618100,-1.055753
0.618200,-1.060947
0.618300,-0.873663
0.618400,-0.678589
0.618500,-0.602312
0.618600,-0.535448
0.618700,-0.580241
0.618800,-0.542914
0.618900,-0.579591
0.619000,-0.527658
0.619100,-0.534799
0.619200,-0.516947
0.619300,-0.521816
0.619400,-0.541940
0.619500,-0.660412
0.619600,-0.741882
0.619700,-0.721109
0.619800,-0.755190
0.619900,-0.786999
0.620000,-0.754541
0.620100,-0.767524
0.620200,-0.852889
0.620300,-1.086589
0.620400,-1.216421
0.620500,-1.162541
0.620600,-1.033032
0.620700,-0.954808
0.620800,-1.066464
0.620900,-1.300164
0.621000,-1.457586
0.621100,-1.433242
0.621200,-1.288803
0.621300,-1.111906
0.621400,-1.121643
0.621500,-1.207982
0.621600,-1.277118
0.621700,-1.246608
0.621800,-1.217720
0.621900,-1.165462
0.622000,-1.210254
0.622100,-1.273548
0.622200,-1.369300
0.622300,-1.387152
0.622400,-1.447199
0.622500,-1.497185
0.622600,-1.557557
0.622700,-1.578655
0.622800,-1.571515
0.622900,-1.598455
0.623000,-1.648441
0.623100,-1.829882
0.623200,-1.899343
0.623300,-1.924661
0.623400,-1.807811
0.623500,-1.847085
0.623600,-1.923362
0.623700,-1.946408
0.623800,-1.951601
0.623900,-1.971725
0.624000,-1.989253
0.624100,-2.009701
0.624200,-2.022360
0.624300,-2.054494
0.624400,-2.067802
0.624500,-2.065854
0.624600,-2.069749
0.624700,-2.091172
0.624800,-2.107401
0.624900,-2.134341
0.625000,-2.130446
0.625100,-2.181406
0.625200,-2.234962
0.625300,-2.245349
0.625400,-2.441397
0.625500,-2.675097
0.625600,-2.737417
0.625700,-2.603364
0.625800,-2.394657
0.625900,-2.417702
0.626000,-2.586486
0.626100,-2.862382
0.626200,-2.951318
0.626300,-2.867575
0.626400,-2.679966
0.626500,-2.615049
0.626600,-2.717293
0.626700,-2.856539
0.626800,-2.963652
0.626900,-2.983776
0.627000,-2.963003
0.627100,-2.954888
0.627200,-2.976636
0.627300,-2.996111
0.627400,-3.019156
0.627500,-3.014612
0.627600,-3.015910
0.627700,-3.027920
0.627800,-3.038307
0.627900,-3.016884
0.628000,-3.000006
0.628100,-2.980531
0.628200,-2.997084
0.628300,-2.994488
0.628400,-3.025323
0.628500,-2.959433
0.628600,-2.810124
0.628700,-2.764358
0.628800,-2.852644
0.628900,-3.079529
0.629000,-3.270060
0.629100,-3.250909
0.629200,-3.066870
0.629300,-2.944177
0.629400,-2.989944
0.629500,-3.213907
0.629600,-3.406710
0.629700,-3.462214
0.629800,-3.388533
0.629900,-3.287263
0.630000,-3.239224
0.630100,-3.276552
0.630200,-3.333029
0.630300,-3.360619
0.630400,-3.351206
0.630500,-3.337898
0.630600,-3.286289
0.630700,-3.242795
0.630800,-3.141849
0.630900,-3.030517
0.631000,-2.973390
0.631100,-2.973065
0.631200,-2.939308
0.631300,-2.879910
0.631400,-2.728329
0.631500,-2.584538
0.631600,-2.469960
0.631700,-2.320976
0.631800,-2.275535
0.631900,-2.230093
0.632000,-2.119410
0.632100,-1.988603
0.632200,-1.829233
0.632300,-1.733481
0.632400,-1.687715
0.632500,-1.619228
0.632600,-1.588393
