0.000100,-0.355630
0.000200,-0.314408
0.000300,-0.274160
0.000400,-0.297854
0.000500,-0.314084
0.000600,-0.391659
0.000700,-0.329339
0.000800,-0.345568
0.000900,-0.321873
0.001000,-0.289091
0.001100,-0.304995
0.001200,-0.376403
0.001300,-0.425740
0.001400,-0.452031
0.001500,-0.461768
0.001600,-0.481892
0.001700,-0.455601
0.001800,-0.448460
0.001900,-0.465988
0.002000,-0.741233
0.002100,-0.900928
0.002200,-0.878531
0.002300,-0.624384
0.002400,-0.657167
0.002500,-0.635095
0.002600,-0.958703
0.002700,-1.090484
0.002800,-1.089834
0.002900,-0.933710
0.003000,-0.801930
0.003100,-0.872040
0.003200,-0.965519
0.003300,-1.047639
0.003400,-1.009663
0.003500,-1.021672
0.003600,-0.938904
0.003700,-1.015505
0.003800,-1.061271
0.003900,-1.102818
0.004000,-1.071658
0.004100,-1.055104
0.004200,-1.067763
0.004300,-1.043095
0.004400,-1.025567
0.004500,-0.997328
0.004600,-1.008364
0.004700,-0.992135
0.004800,-1.142092
0.004900,-1.190130
0.005000,-1.192402
0.005100,-1.200841
0.005200,-1.203763
0.005300,-1.157997
0.005400,-1.145013
0.005500,-1.116450
0.005600,-1.133328
0.005700,-1.127486
0.005800,-1.140469
0.005900,-1.142417
0.006000,-1.140794
0.006100,-1.158970
0.006200,-1.174550
0.006300,-1.202464
0.006400,-1.190779
0.006500,-1.214149
0.006600,-1.220641
0.006700,-1.293023
0.006800,-1.340736
0.006900,-1.395591
0.007000,-1.448822
0.007100,-1.633185
0.007200,-1.856498
0.007300,-1.954522
0.007400,-1.820145
0.007500,-1.577682
0.007600,-1.637729
0.007700,-1.750360
0.007800,-2.084355
0.007900,-2.153816
0.008000,-2.093768
0.008100,-1.910054
0.008200,-1.817873
0.008300,-1.858446
0.008400,-2.012298
0.008500,-2.056441
0.008600,-2.052546
0.008700,-1.984708
0.008800,-1.914923
0.008900,-1.884088
0.009000,-1.894474
0.009100,-1.916221
0.009200,-1.876622
0.009300,-1.874675
0.009400,-1.863639
0.009500,-1.887983
0.009600,-2.004508
0.009700,-1.972374
0.009800,-1.916221
0.009900,-1.943486
0.010000,-1.989253
0.010100,-2.034370
0.010200,-2.042484
0.010300,-1.895123
0.010400,-1.822417
0.010500,-1.880842
0.010600,-2.114542
0.010700,-2.202828
0.010800,-2.207048
0.010900,-2.024307
0.011000,-1.861367
0.011100,-1.928231
0.011200,-2.124928
0.011300,-2.322275
0.011400,-2.312213
0.011500,-2.191792
0.011600,-2.099611
0.011700,-2.076890
0.011800,-2.090198
0.011900,-2.157387
0.012000,-2.114866
0.012100,-2.101558
0.012200,-2.056441
0.012300,-2.035992
0.012400,-2.005482
0.012500,-1.898694
0.012600,-1.745491
0.012700,-1.640326
0.012800,-1.618579
0.012900,-1.594235
0.013000,-1.572488
0.013100,-1.472841
0.013200,-1.298865
0.013300,-1.234273
0.013400,-1.074904
0.013500,-1.103142
0.013600,-1.070684
0.013700,-0.991486
0.013800,-0.943448
0.013900,-0.870417
0.014000,-0.764279
0.014100,-0.796737
0.014200,-0.781481
0.014300,-0.843477
0.014400,-0.768174
0.014500,-0.833090
0.014600,-0.819782
0.014700,-0.828546
0.014800,-0.831142
0.014900,-0.815563
0.015000,-0.908718
0.015100,-0.823677
0.015200,-0.996355
0.015300,-0.862302
0.015400,-0.863276
0.015500,-0.591276
0.015600,-0.510131
0.015700,-0.561090
0.015800,-0.922350
0.015900,-1.032708
0.016000,-0.837309
0.016100,-0.611400
0.016200,-0.607830
0.016300,-0.588355
0.016400,-0.796737
0.016500,-0.778236
0.016600,-0.790894
0.016700,-0.581539
0.016800,-0.502666
0.016900,-0.458198
0.017000,-0.538370
0.017100,-0.524088
0.017200,-0.517596
0.017300,-0.473453
0.017400,-0.440021
0.017500,-0.450732
0.017600,-0.475725
0.017700,-0.453005
0.017800,-0.490981
0.017900,-0.475076
0.018000,-0.531229
0.018100,-0.578942
0.018200,-0.578942
0.018300,-0.620813
0.018400,-0.512728
0.018500,-0.499420
0.018600,-0.595496
0.018700,-0.802579
0.018800,-0.860030
0.018900,-0.694169
0.019000,-0.477997
0.019100,-0.462417
0.019200,-0.577644
0.019300,-0.834388
0.019400,-0.873663
0.019500,-0.744154
0.019600,-0.553949
0.019700,-0.501043
0.019800,-0.621138
0.019900,-0.774341
0.020000,-0.800956
0.020100,-0.776288
0.020200,-0.718188
0.020300,-0.732470
0.020400,-0.816212
0.020500,-0.898006
0.020600,-0.935009
0.020700,-0.886971
0.020800,-0.878207
0.020900,-0.929491
0.021000,-0.943448
0.021100,-0.916832
0.021200,-0.896059
0.021300,-0.912288
0.021400,-0.960975
0.021500,-1.079123
0.021600,-1.139171
0.021700,-1.168059
0.021800,-1.021348
0.021900,-1.067114
0.022000,-1.133653
0.022100,-1.169682
0.022200,-1.162865
0.022300,-1.167409
0.022400,-1.169032
0.022500,-1.170655
0.022600,-1.165787
0.022700,-1.171954
0.022800,-1.153777
0.022900,-1.149882
0.023000,-1.142092
0.023100,-1.144689
0.023200,-1.159944
0.023300,-1.155400
0.023400,-1.166436
0.023500,-1.174550
0.023600,-1.142092
0.023700,-1.221939
0.023800,-1.392020
0.023900,-1.669214
0.024000,-1.617281
0.024100,-1.444927
0.024200,-1.312173
0.024300,-1.322235
0.024400,-1.576383
0.024500,-1.767562
0.024600,-1.887983
0.024700,-1.744842
0.024800,-1.632536
0.024900,-1.621500
0.025000,-1.727314
0.025100,-1.915248
0.025200,-1.979840
0.025300,-1.999639
0.025400,-1.962637
0.025500,-1.945434
0.025600,-1.983735
0.025700,-2.045405
0.025800,-2.090522
0.025900,-2.100584
0.026000,-2.085978
0.026100,-2.060336
0.026200,-2.141157
0.026300,-2.193415
0.026400,-2.229444
0.026500,-2.187248
0.026600,-2.187248
0.026700,-2.196337
0.026800,-2.251191
0.026900,-2.165501
0.027000,-1.994446
0.027100,-1.950952
0.027200,-2.073644
0.027300,-2.275859
0.027400,-2.340127
0.027500,-2.234637
0.027600,-1.977568
0.027700,-1.886360
0.027800,-2.005482
0.027900,-2.242103
0.028000,-2.372910
0.028100,-2.351487
0.028200,-2.212566
0.028300,-2.122007
0.028400,-2.138885
0.028500,-2.201205
0.028600,-2.252165
0.028700,-2.252814
0.028800,-2.247296
0.028900,-2.235611
0.029000,-2.185950
0.029100,-2.147649
0.029200,-2.039563
0.029300,-1.952899
0.029400,-1.912651
0.029500,-1.914598
0.029600,-1.929854
0.029700,-1.883114
0.029800,-1.727639
0.029900,-1.636106
0.030000,-1.491343
0.030100,-1.430970
0.030200,-1.413767
0.030300,-1.387152
0.030400,-1.315094
0.030500,-1.205061
0.030600,-1.085939
0.030700,-1.048612
0.030800,-1.034655
0.030900,-1.077825
0.031000,-1.072631
0.031100,-1.025567
0.031200,-1.105739
0.031300,-1.023620
0.031400,-1.108336
0.031500,-0.981424
0.031600,-1.072307
0.031700,-1.042121
0.031800,-1.067114
0.031900,-1.099247
0.032000,-0.948317
0.032100,-0.887295
0.032200,-0.563687
0.032300,-0.564985
0.032400,-0.737663
0.032500,-1.011285
0.032600,-0.925920
0.032700,-0.679887
0.032800,-0.538694
0.032900,-0.337778
0.033000,-0.494551
0.033100,-0.546809
0.033200,-0.642560
0.033300,-0.483191
0.033400,-0.309864
0.033500,-0.207945
0.033600,-0.139783
0.033700,-0.156661
0.033800,-0.146924
0.033900,-0.126475
0.034000,-0.082657
0.034100,-0.044032
0.034200,-0.040786
0.034300,-0.024557
0.034400,-0.045654
0.034500,-0.118361
0.034600,-0.222876
0.034700,-0.203401
0.034800,-0.231640
0.034900,-0.246895
0.035000,-0.220604
0.035100,-0.162828
0.035200,-0.203401
0.035300,-0.380298
0.035400,-0.638990
0.035500,-0.590952
0.035600,-0.412756
0.035700,-0.286170
0.035800,-0.301100
0.035900,-0.495525
0.036000,-0.753567
0.036100,-0.722407
0.036200,-0.604584
0.036300,-0.424441
0.036400,-0.434828
0.036500,-0.559143
0.036600,-0.673071
0.036700,-0.660737
0.036800,-0.657491
0.036900,-0.605883
0.037000,-0.668851
0.037100,-0.755839
0.037200,-0.806150
0.037300,-0.837309
0.037400,-0.810045
0.037500,-0.841529
0.037600,-0.872689
0.037700,-0.892813
0.037800,-0.873663
0.037900,-0.861653
0.038000,-0.846073
0.038100,-0.974608
0.038200,-1.098273
0.038300,-1.108660
0.038400,-1.071333
0.038500,-0.968116
0.038600,-0.995706
0.038700,-1.041472
0.038800,-1.025243
0.038900,-1.036603
0.039000,-1.008364
0.039100,-1.040173
0.039200,-1.057052
0.039300,-1.023620
0.039400,-1.050235
0.039500,-1.048612
0.039600,-1.086264
0.039700,-1.101844
0.039800,-1.133978
0.039900,-1.177796
0.040000,-1.177472
0.040100,-1.203438
0.040200,-1.236221
0.040300,-1.285233
0.040400,-1.381958
0.040500,-1.579954
0.040600,-1.815276
0.040700,-1.638379
0.040800,-1.503028
0.040900,-1.356316
0.041000,-1.483877
0.041100,-1.772431
0.041200,-1.923362
0.041300,-1.971400
0.041400,-1.798073
0.041500,-1.703620
0.041600,-1.723419
0.041700,-1.906808
0.041800,-2.042484
0.041900,-2.043458
0.042000,-2.026255
0.042100,-1.947057
0.042200,-1.971076
0.042300,-1.967505
0.042400,-2.023983
0.042500,-2.036317
0.042600,-2.011649
0.042700,-2.037291
0.042800,-2.061635
0.042900,-2.103506
0.043000,-2.095391
0.043100,-2.090847
0.043200,-2.070398
0.043300,-2.096040
0.043400,-2.108050
0.043500,-2.088575
0.043600,-1.976269
0.043700,-1.806837
0.043800,-1.871104
0.043900,-2.023658
0.044000,-2.150246
0.044100,-2.194064
0.044200,-1.974646
0.044300,-1.764966
0.044400,-1.728613
0.044500,-1.886035
0.044600,-2.113568
0.044700,-2.166475
0.044800,-2.079487
0.044900,-1.956145
0.045000,-1.908756
0.045100,-1.948680
0.045200,-1.975945
0.045300,-1.979840
0.045400,-1.935696
0.045500,-1.909405
0.045600,-1.872078
0.045700,-1.855524
0.045800,-1.799047
0.045900,-1.665319
0.046000,-1.570541
0.046100,-1.543600
0.046200,-1.562426
0.046300,-1.574436
0.046400,-1.529968
0.046500,-1.342035
0.046600,-1.321586
0.046700,-1.104765
0.046800,-1.167409
0.046900,-1.129758
0.047000,-1.100546
0.047100,-1.009663
0.047200,-0.931763
0.047300,-0.817185
0.047400,-0.788298
0.047500,-0.758761
0.047600,-0.778560
0.047700,-0.783753
0.047800,-0.756164
0.047900,-0.812641
0.048000,-0.722732
0.048100,-0.757787
0.048200,-0.708450
0.048300,-0.692221
0.048400,-0.780508
0.048500,-0.675343
0.048600,-0.815238
0.048700,-0.606207
0.048800,-0.549730
0.048900,-0.214112
0.049000,-0.295907
0.049100,-0.564336
0.049200,-0.736365
0.049300,-0.673720
0.049400,-0.346866
0.049500,-0.290064
0.049600,-0.119010
0.049700,-0.284871
0.049800,-0.446188
0.049900,-0.510780
0.050000,-0.382570
0.050100,-0.238781
0.050200,-0.162179
0.050300,-0.115764
0.050400,-0.166723
0.050500,-0.216060
0.050600,-0.206647
0.050700,-0.192041
0.050800,-0.168346
0.050900,-0.224824
0.051000,-0.171268
0.051100,-0.212489
0.051200,-0.322847
0.051300,-0.329663
0.051400,-0.355955
0.051500,-0.344594
0.051600,-0.443592
0.051700,-0.401071
0.051800,-0.371210
0.051900,-0.370561
0.052000,-0.620489
0.052100,-0.797710
0.052200,-0.752594
0.052300,-0.552651
0.052400,-0.534150
0.052500,-0.621787
0.052600,-0.891839
0.052700,-1.058350
0.052800,-1.045042
0.052900,-0.854188
0.053000,-0.754866
0.053100,-0.832116
0.053200,-0.996679
0.053300,-1.057052
0.053400,-1.014531
0.053500,-1.030760
0.053600,-1.002846
0.053700,-1.075228
0.053800,-1.120020
0.053900,-1.178121
0.054000,-1.158646
0.054100,-1.151830
0.054200,-1.177472
0.054300,-1.216746
0.054400,-1.176173
0.054500,-1.162541
0.054600,-1.142417
0.054700,-1.146636
0.054800,-1.286531
0.054900,-1.336841
0.055000,-1.324507
0.055100,-1.178121
0.055200,-1.219667
0.055300,-1.268355
0.055400,-1.266083
0.055500,-1.263486
0.055600,-1.237519
0.055700,-1.227457
0.055800,-1.197920
0.055900,-1.203763
0.056000,-1.184937
0.056100,-1.177472
0.056200,-1.159295
0.056300,-1.165462
0.056400,-1.173901
0.056500,-1.161892
0.056600,-1.173577
0.056700,-1.142417
0.056800,-1.216746
0.056900,-1.157347
0.057000,-1.260240
0.057100,-1.358913
0.057200,-1.661099
0.057300,-1.669863
0.057400,-1.533863
0.057500,-1.399161
0.057600,-1.298216
0.057700,-1.502054
0.057800,-1.741920
0.057900,-1.897396
0.058000,-1.797099
0.058100,-1.704269
0.058200,-1.588068
0.058300,-1.649414
0.058400,-1.820469
0.058500,-1.963286
0.058600,-1.919143
0.058700,-1.914923
0.058800,-1.886360
0.058900,-1.867859
0.059000,-1.885711
0.059100,-1.905186
0.059200,-1.911677
0.059300,-1.903563
0.059400,-1.913625
0.059500,-1.943162
0.059600,-2.006131
0.059700,-2.000938
0.059800,-1.956470
0.059900,-1.942513
0.060000,-1.972374
0.060100,-2.010675
0.060200,-2.008078
0.060300,-1.900317
0.060400,-1.820145
0.060500,-1.899018
0.060600,-2.110322
0.060700,-2.223277
0.060800,-2.223926
0.060900,-2.004183
0.061000,-1.868183
0.061100,-1.920766
0.061200,-2.128823
0.061300,-2.302800
0.061400,-2.331363
0.061500,-2.220031
0.061600,-2.109997
0.061700,-2.095716
0.061800,-2.149597
0.061900,-2.133692
0.062000,-2.127849
0.062100,-2.109673
0.062200,-2.101234
0.062300,-2.060985
0.062400,-2.010026
0.062500,-1.914923
0.062600,-1.779247
0.062700,-1.721472
0.062800,-1.738350
0.062900,-1.729911
0.063000,-1.747114
0.063100,-1.617930
0.063200,-1.497510
0.063300,-1.490044
0.063400,-1.297567
0.063500,-1.350474
0.063600,-1.344307
0.063700,-1.291725
0.063800,-1.231677
0.063900,-1.160593
0.064000,-1.073281
0.064100,-1.108011
0.064200,-1.083018
0.064300,-1.126837
0.064400,-1.115476
0.064500,-1.203114
0.064600,-1.175524
0.064700,-1.167734
0.064800,-1.142741
0.064900,-1.122293
0.065000,-1.199219
0.065100,-1.112231
0.065200,-1.164813
0.065300,-1.062894
0.065400,-0.993758
0.065500,-0.648727
0.065600,-0.559467
0.065700,-0.583811
0.065800,-0.935982
0.065900,-0.900928
0.066000,-0.743505
0.066100,-0.485463
0.066200,-0.356928
0.066300,-0.326093
0.066400,-0.448460
0.066500,-0.520518
0.066600,-0.467286
0.066700,-0.313759
0.066800,-0.191716
0.066900,-0.112843
0.067000,-0.139783
0.067100,-0.163153
0.067200,-0.111545
0.067300,-0.153091
0.067400,-0.115115
0.067500,-0.141731
0.067600,-0.115764
0.067700,-0.119659
0.067800,-0.138809
0.067900,-0.234236
0.068000,-0.230017
0.068100,-0.261177
0.068200,-0.290389
0.068300,-0.265721
0.068400,-0.232938
0.068500,-0.188470
0.068600,-0.333558
0.068700,-0.535124
0.068800,-0.611076
0.068900,-0.477024
0.069000,-0.268318
0.069100,-0.254685
0.069200,-0.419897
0.069300,-0.731171
0.069400,-0.793491
0.069500,-0.703582
0.069600,-0.536422
0.069700,-0.515324
0.069800,-0.663983
0.069900,-0.775314
0.070000,-0.794465
0.070100,-0.731171
0.070200,-0.738961
0.070300,-0.799333
0.070400,-0.860030
0.070500,-0.871715
0.070600,-0.825300
0.070700,-0.787648
0.070800,-0.829195
0.070900,-0.895734
0.071000,-0.940202
0.071100,-0.922025
0.071200,-0.884698
0.071300,-0.897033
0.071400,-0.972011
0.071500,-1.113529
0.071600,-1.127810
0.071700,-1.138522
0.071800,-1.154102
0.071900,-1.079772
0.072000,-1.133004
0.072100,-1.131056
0.072200,-1.132355
0.072300,-1.095352
0.072400,-1.101195
0.072500,-1.097949
0.072600,-1.091133
0.072700,-1.070684
0.072800,-1.092756
0.072900,-1.077500
0.073000,-1.061271
0.073100,-1.049911
0.073200,-1.020698
0.073300,-1.029137
0.073400,-1.037577
0.073500,-1.070035
0.073600,-1.062569
0.073700,-1.105090
0.073800,-1.279715
0.073900,-1.508546
0.074000,-1.412469
0.074100,-1.241414
0.074200,-1.076202
0.074300,-1.138522
0.074400,-1.321911
0.074500,-1.642923
0.074600,-1.707839
0.074700,-1.615333
0.074800,-1.484526
0.074900,-1.455639
0.075000,-1.597806
0.075100,-1.767238
0.075200,-1.811706
0.075300,-1.837997
0.075400,-1.830207
0.075500,-1.762694
0.075600,-1.813004
0.075700,-1.864613
0.075800,-1.871754
0.075900,-1.848059
0.076000,-1.887333
0.076100,-1.898045
0.076200,-1.938618
0.076300,-1.986007
0.076400,-1.954522
0.076500,-1.960365
0.076600,-1.964584
0.076700,-2.007429
0.076800,-2.108050
0.076900,-2.007754
0.077000,-1.873701
0.077100,-1.807486
0.077200,-1.942188
0.077300,-2.171993
0.077400,-2.252489
0.077500,-2.122981
0.077600,-1.877596
0.077700,-1.795152
0.077800,-1.937644
0.077900,-2.152193
0.078000,-2.256060
0.078100,-2.176212
0.078200,-1.997043
0.078300,-1.940565
0.078400,-1.952575
0.078500,-2.012298
0.078600,-1.998990
0.078700,-1.962312
0.078800,-1.946083
0.078900,-1.911353
0.079000,-1.899668
0.079100,-1.851954
0.079200,-1.733157
0.079300,-1.644546
0.079400,-1.575085
0.079500,-1.595534
0.079600,-1.592937
0.079700,-1.555610
0.079800,-1.386827
0.079900,-1.306655
0.080000,-1.101844
0.080100,-1.101195
0.080200,-1.077176
0.080300,-1.059648
0.080400,-0.982398
0.080500,-0.864574
0.080600,-0.746751
0.080700,-0.701634
0.080800,-0.710073
0.080900,-0.697090
0.081000,-0.722407
0.081100,-0.640937
0.081200,-0.689949
0.081300,-0.617568
0.081400,-0.623410
0.081500,-0.599716
0.081600,-0.581539
0.081700,-0.669501
0.081800,-0.627305
0.081900,-0.815238
0.082000,-0.614646
0.082100,-0.625033
0.082200,-0.262150
0.082300,-0.327067
0.082400,-0.515973
0.082500,-0.833090
0.082600,-0.868145
0.082700,-0.594847
0.082800,-0.522465
0.082900,-0.435153
0.083000,-0.470532
0.083100,-0.613348
0.083200,-0.688002
0.083300,-0.690598
0.083400,-0.517921
0.083500,-0.492604
0.083600,-0.453978
0.083700,-0.511429
0.083800,-0.516623
0.083900,-0.508833
0.084000,-0.528632
0.084100,-0.490331
0.084200,-0.515000
0.084300,-0.564336
0.084400,-0.583162
0.084500,-0.633797
0.084600,-0.614322
0.084700,-0.642560
0.084800,-0.708126
0.084900,-0.796412
0.085000,-0.754217
0.085100,-0.755190
0.085200,-0.675992
0.085300,-0.888593
0.085400,-1.075228
0.085500,-1.023620
0.085600,-0.844450
0.085700,-0.586408
0.085800,-0.657491
0.085900,-0.786350
0.086000,-1.007715
0.086100,-0.928842
0.086200,-0.751295
0.086300,-0.543563
0.086400,-0.505911
0.086500,-0.655868
0.086600,-0.737014
0.086700,-0.694818
0.086800,-0.659763
0.086900,-0.571477
0.087000,-0.624384
0.087100,-0.669176
0.087200,-0.693520
0.087300,-0.642560
0.087400,-0.598417
0.087500,-0.616594
0.087600,-0.635095
0.087700,-0.613348
0.087800,-0.618541
0.087900,-0.597119
0.088000,-0.591926
0.088100,-0.690274
0.088200,-0.813615
0.088300,-0.846073
0.088400,-0.842178
0.088500,-0.802255
0.088600,-0.789921
0.088700,-0.801930
0.088800,-0.821730
0.088900,-0.829195
0.089000,-0.853214
0.089100,-0.873338
0.089200,-0.864574
0.089300,-0.901252
0.089400,-0.864250
0.089500,-0.881453
0.089600,-0.876909
0.089700,-0.858407
0.089800,-0.878531
0.089900,-0.898980
0.090000,-0.895410
0.090100,-0.896708
0.090200,-0.910665
0.090300,-0.960975
0.090400,-1.043095
0.090500,-1.337491
0.090600,-1.430646
0.090700,-1.406951
0.090800,-1.189481
0.090900,-1.095028
0.091000,-1.222264
0.091100,-1.519581
0.091200,-1.708488
0.091300,-1.745166
0.091400,-1.622149
0.091500,-1.521529
0.091600,-1.557233
0.091700,-1.697777
0.091800,-1.894150
0.091900,-1.919792
0.092000,-1.933100
0.092100,-1.891878
0.092200,-1.871429
0.092300,-1.886360
0.092400,-1.910054
0.092500,-1.952899
0.092600,-1.899343
0.092700,-1.857796
0.092800,-1.824364
0.092900,-1.877271
0.093000,-1.885061
0.093100,-1.856174
0.093200,-1.821119
0.093300,-1.865911
0.093400,-1.891553
0.093500,-1.893825
0.093600,-1.764966
0.093700,-1.625071
0.093800,-1.689987
0.093900,-1.897720
0.094000,-2.086952
0.094100,-2.113892
0.094200,-1.938618
0.094300,-1.769185
0.094400,-1.763992
0.094500,-1.954847
0.094600,-2.182055
0.094700,-2.244050
0.094800,-2.165826
0.094900,-2.038265
0.095000,-2.015544
0.095100,-2.049950
0.095200,-2.094417
0.095300,-2.142780
0.095400,-2.150246
0.095500,-2.123630
0.095600,-2.089549
0.095700,-2.069749
0.095800,-2.041510
0.095900,-1.892527
0.096000,-1.821119
0.096100,-1.785090
0.096200,-1.765290
0.096300,-1.754904
0.096400,-1.666293
0.096500,-1.500756
0.096600,-1.394942
0.096700,-1.212202
0.096800,-1.249204
0.096900,-1.149233
0.097000,-1.094379
0.097100,-0.957729
0.097200,-0.847372
0.097300,-0.691248
0.097400,-0.639315
0.097500,-0.604260
0.097600,-0.563038
0.097700,-0.542265
0.097800,-0.504288
0.097900,-0.500069
0.098000,-0.422169
0.098100,-0.355630
0.098200,-0.336480
0.098300,-0.314084
0.098400,-0.356928
0.098500,-0.342322
0.098600,-0.383544
0.098700,-0.236184
0.098800,0.018288
0.098900,0.199729
0.099000,0.161753
0.099100,-0.230666
0.099200,-0.302399
0.099300,-0.228719
0.099400,-0.100509
0.099500,0.103004
0.099600,0.028026
0.099700,0.007252
0.099800,-0.193339
0.099900,-0.182303
0.100000,-0.149521
0.100100,0.040035
0.100200,0.064703
0.100300,0.088398
0.100400,0.113066
0.100500,0.017964
0.100600,0.067949
0.100700,0.073142
0.100800,0.073792
0.100900,0.111768
0.101000,0.118259
0.101100,0.076064
0.101200,-0.001836
0.101300,0.004980
0.101400,-0.041110
0.101500,-0.057989
0.101600,-0.103755
0.101700,0.019262
0.101800,-0.041435
0.101900,-0.026504
0.102000,-0.400422
0.102100,-0.482217
0.102200,-0.391659
0.102300,-0.135564
0.102400,-0.119010
0.102500,-0.211516
0.102600,-0.515649
0.102700,-0.629902
0.102800,-0.608804
0.102900,-0.401721
0.103000,-0.331936
0.103100,-0.422169
0.103200,-0.564661
0.103300,-0.686379
0.103400,-0.613023
0.103500,-0.616594
0.103600,-0.573424
0.103700,-0.672422
0.103800,-0.720460
0.103900,-0.713644
0.104000,-0.687353
0.104100,-0.684431
0.104200,-0.717863
0.104300,-0.785052
0.104400,-0.778560
0.104500,-0.757787
0.104600,-0.726302
0.104700,-0.770121
0.104800,-0.913262
0.104900,-0.994732
0.105000,-1.018426
0.105100,-1.011610
0.105200,-0.917806
0.105300,-1.031734
0.105400,-1.045042
0.105500,-1.062245
0.105600,-1.051534
0.105700,-1.083667
0.105800,-1.090484
0.105900,-1.070359
0.106000,-1.079772
0.106100,-1.081395
0.106200,-1.068087
0.106300,-1.089510
0.106400,-1.122293
0.106500,-1.121968
0.106600,-1.158321
0.106700,-1.138197
0.106800,-1.202789
0.106900,-1.193376
0.107000,-1.247257
0.107100,-1.420259
0.107200,-1.649090
0.107300,-1.677004
0.107400,-1.458235
0.107500,-1.314445
0.107600,-1.250178
0.107700,-1.446226
0.107800,-1.681223
0.107900,-1.746789
0.108000,-1.701348
0.108100,-1.510168
0.108200,-1.452393
0.108300,-1.568269
0.108400,-1.717252
0.108500,-1.761071
0.108600,-1.772431
0.108700,-1.744517
0.108800,-1.711410
0.108900,-1.719200
0.109000,-1.765290
0.109100,-1.790932
0.109200,-1.783792
0.109300,-1.804889
0.109400,-1.803267
0.109500,-1.844164
0.109600,-1.936670
0.109700,-1.940241
0.109800,-1.912651
0.109900,-1.896097
0.110000,-1.929854
0.110100,-1.930178
0.110200,-1.887983
0.110300,-1.761395
0.110400,-1.685768
0.110500,-1.813653
0.110600,-2.023658
0.110700,-2.121033
0.110800,-2.073969
0.110900,-1.801968
0.111000,-1.673109
0.111100,-1.733481
0.111200,-1.973348
0.111300,-2.158360
0.111400,-2.166475
0.111500,-2.052546
0.111600,-1.909405
0.111700,-1.905835
0.111800,-1.976269
0.111900,-2.023658
0.112000,-2.021711
0.112100,-1.998341
0.112200,-1.979190
0.112300,-1.968155
0.112400,-1.955171
0.112500,-1.893176
0.112600,-1.796126
0.112700,-1.727639
0.112800,-1.751333
0.112900,-1.756202
0.113000,-1.764966
0.113100,-1.630589
0.113200,-1.533863
0.113300,-1.352097
0.113400,-1.302436
0.113500,-1.338789
0.113600,-1.320612
0.113700,-1.267705
0.113800,-1.149882
0.113900,-1.048937
0.114000,-0.996030
0.114100,-0.950589
0.114200,-0.954808
0.114300,-0.981424
0.114400,-0.910016
0.114500,-0.951562
0.114600,-0.916508
0.114700,-0.842503
0.114800,-0.812641
0.114900,-0.789596
0.115000,-0.871066
0.115100,-0.774665
0.115200,-0.845749
0.115300,-0.719162
0.115400,-0.654894
0.115500,-0.270265
0.115600,-0.219630
0.115700,-0.349788
0.115800,-0.640937
0.115900,-0.673720
0.116000,-0.401396
0.116100,-0.218981
0.116200,-0.001836
0.116300,-0.101158
0.116400,-0.215411
0.116500,-0.325768
0.116600,-0.208594
0.116700,-0.132318
0.116800,0.019586
0.116900,0.043930
0.117000,-0.013521
0.117100,-0.102132
0.117200,-0.118361
0.117300,-0.124528
0.117400,-0.082981
0.117500,-0.116089
0.117600,-0.091745
0.117700,-0.069024
0.117800,-0.091420
0.117900,-0.193988
0.118000,-0.265072
0.118100,-0.244298
0.118200,-0.332260
0.118300,-0.249816
0.118400,-0.271239
0.118500,-0.210867
0.118600,-0.399773
0.118700,-0.683782
0.118800,-0.661711
0.118900,-0.529281
0.119000,-0.367640
0.119100,-0.354656
0.119200,-0.524413
0.119300,-0.762656
0.119400,-0.805176
0.119500,-0.692546
0.119600,-0.497472
0.119700,-0.418599
0.119800,-0.532527
0.119900,-0.626980
0.120000,-0.649377
0.120100,-0.587381
0.120200,-0.516298
0.120300,-0.497797
0.120400,-0.558494
0.120500,-0.580241
0.120600,-0.568556
0.120700,-0.514026
0.120800,-0.553300
0.120900,-0.591926
0.121000,-0.628279
0.121100,-0.598093
0.121200,-0.566284
0.121300,-0.540642
0.121400,-0.619840
0.121500,-0.772718
0.121600,-0.808422
0.121700,-0.791219
0.121800,-0.712995
0.121900,-0.708450
0.122000,-0.767200
0.122100,-0.744154
0.122200,-0.765901
0.122300,-0.769796
0.122400,-0.797386
0.122500,-0.825300
0.122600,-0.853214
0.122700,-0.826274
0.122800,-0.865548
0.122900,-0.888593
0.123000,-0.917806
0.123100,-0.907744
0.123200,-0.956431
0.123300,-0.976880
0.123400,-0.977854
0.123500,-1.041472
0.123600,-1.089185
0.123700,-1.131056
0.123800,-1.361185
0.123900,-1.544574
0.124000,-1.521853
0.124100,-1.310550
0.124200,-1.187858
0.124300,-1.237195
0.124400,-1.550417
0.124500,-1.728937
0.124600,-1.799047
0.124700,-1.669863
0.124800,-1.538083
0.124900,-1.494588
0.125000,-1.640651
0.125100,-1.804240
0.125200,-1.855524
0.125300,-1.891878
0.125400,-1.881491
0.125500,-1.867209
0.125600,-1.863314
0.125700,-1.925310
0.125800,-1.906808
0.125900,-1.913949
0.126000,-1.914923
0.126100,-1.945434
0.126200,-1.979840
0.126300,-2.019763
0.126400,-1.982761
0.126500,-2.002236
0.126600,-1.983410
0.126700,-2.026904
0.126800,-2.061635
0.126900,-1.966532
0.127000,-1.830856
0.127100,-1.819171
0.127200,-1.992823
0.127300,-2.175888
0.127400,-2.231391
0.127500,-2.099935
0.127600,-1.863964
0.127700,-1.767887
0.127800,-1.882465
0.127900,-2.109348
0.128000,-2.185950
0.128100,-2.122332
0.128200,-1.967181
0.128300,-1.899343
0.128400,-1.895123
0.128500,-1.930178
0.128600,-1.930178
0.128700,-1.883763
0.128800,-1.835725
0.128900,-1.835076
0.129000,-1.828909
0.129100,-1.787362
0.129200,-1.660126
0.129300,-1.560479
0.129400,-1.512765
0.129500,-1.527696
0.129600,-1.521853
0.129700,-1.474140
0.129800,-1.303409
0.129900,-1.240441
0.130000,-1.015180
0.130100,-1.080421
0.130200,-1.065815
0.130300,-1.046990
0.130400,-0.972011
0.130500,-0.910340
0.130600,-0.759085
0.130700,-0.738637
0.130800,-0.684431
0.130900,-0.678589
0.131000,-0.658789
0.131100,-0.624384
0.131200,-0.668202
0.131300,-0.591926
0.131400,-0.559792
0.131500,-0.502990
0.131600,-0.500069
0.131700,-0.512403
0.131800,-0.543887
0.131900,-0.552327
0.132000,-0.502016
0.132100,-0.249816
0.132200,-0.075841
0.132300,0.132216
0.132400,-0.309864
0.132500,-0.517272
0.132600,-0.470207
0.132700,-0.247869
0.132800,-0.085578
0.132900,-0.000862
0.133000,-0.062857
0.133100,-0.239105
0.133200,-0.228719
0.133300,-0.188795
0.133400,-0.015793
0.133500,0.038737
0.133600,0.049773
0.133700,0.013419
0.133800,0.032894
0.133900,0.023806
0.134000,0.015367
0.134100,0.043605
0.134200,0.040684
0.134300,0.075414
0.134400,0.082231
0.134500,-0.001187
0.134600,0.016341
0.134700,-0.076165
0.134800,-0.045654
0.134900,-0.157311
0.135000,-0.078113
0.135100,-0.057664
0.135200,-0.042409
0.135300,-0.280652
0.135400,-0.467611
0.135500,-0.413081
0.135600,-0.238131
0.135700,-0.101807
0.135800,-0.175487
0.135900,-0.393931
0.136000,-0.663983
0.136100,-0.616269
0.136200,-0.492604
0.136300,-0.332585
0.136400,-0.380623
0.136500,-0.563038
0.136600,-0.669825
0.136700,-0.638665
0.136800,-0.641262
0.136900,-0.602961
0.137000,-0.710723
0.137100,-0.784727
0.137200,-0.854837
0.137300,-0.830818
0.137400,-0.774665
0.137500,-0.838932
0.137600,-0.888269
0.137700,-0.910665
0.137800,-0.888918
0.137900,-0.874312
0.138000,-0.871391
0.138100,-0.961949
0.138200,-1.050884
0.138300,-1.055104
0.138400,-1.012584
0.138500,-0.878531
0.138600,-0.910340
0.138700,-0.935333
0.138800,-0.856784
0.138900,-0.844126
0.139000,-0.823677
0.139100,-0.790894
0.139200,-0.787648
0.139300,-0.765901
0.139400,-0.739935
0.139500,-0.750322
0.139600,-0.733119
0.139700,-0.739286
0.139800,-0.730847
0.139900,-0.730522
0.140000,-0.742856
0.140100,-0.742856
0.140200,-0.822703
0.140300,-0.808746
0.140400,-0.919104
0.140500,-1.180717
0.140600,-1.289128
0.140700,-1.160269
0.140800,-0.951887
0.140900,-0.912288
0.141000,-1.046016
0.141100,-1.324183
0.141200,-1.538732
0.141300,-1.545873
0.141400,-1.379037
0.141500,-1.325806
0.141600,-1.379362
0.141700,-1.541653
0.141800,-1.695181
0.141900,-1.779897
0.142000,-1.774054
0.142100,-1.725367
0.142200,-1.725367
0.142300,-1.747763
0.142400,-1.819496
0.142500,-1.804565
0.142600,-1.800345
0.142700,-1.784116
0.142800,-1.793204
0.142900,-1.845787
0.143000,-1.899668
0.143100,-1.814627
0.143200,-1.794827
0.143300,-1.806188
0.143400,-1.849682
0.143500,-1.843190
0.143600,-1.760422
0.143700,-1.623772
0.143800,-1.682846
0.143900,-1.907458
0.144000,-2.110322
0.144100,-2.138561
0.144200,-1.947706
0.144300,-1.751982
0.144400,-1.785090
0.144500,-1.980164
0.144600,-2.202828
0.144700,-2.255086
0.144800,-2.179134
0.144900,-2.054818
0.145000,-2.030799
0.145100,-2.068775
0.145200,-2.143105
0.145300,-2.135639
0.145400,-2.106752
0.145500,-2.081110
0.145600,-2.018140
0.145700,-2.006455
0.145800,-1.935372
0.145900,-1.754255
0.146000,-1.619553
0.146100,-1.600402
0.146200,-1.612737
0.146300,-1.592288
0.146400,-1.490694
0.146500,-1.353395
0.146600,-1.298216
0.146700,-1.098923
0.146800,-1.099247
0.146900,-1.056727
0.147000,-1.004145
0.147100,-0.884374
0.147200,-0.808422
0.147300,-0.696766
0.147400,-0.639315
0.147500,-0.666579
0.147600,-0.670150
0.147700,-0.661061
0.147800,-0.622761
0.147900,-0.612050
0.148000,-0.583162
0.148100,-0.559792
0.148200,-0.577319
0.148300,-0.551028
0.148400,-0.592250
0.148500,-0.552002
0.148600,-0.548756
0.148700,-0.481568
0.148800,-0.247544
0.148900,-0.060910
0.149000,-0.072595
0.149100,-0.402370
0.149200,-0.461119
0.149300,-0.354656
0.149400,-0.200155
0.149500,0.013095
0.149600,-0.038838
0.149700,-0.123554
0.149800,-0.236833
0.149900,-0.260852
0.150000,-0.136862
0.150100,-0.033970
0.150200,0.021859
0.150300,-0.083955
0.150400,-0.119984
0.150500,-0.207945
0.150600,-0.242676
0.150700,-0.227096
0.150800,-0.238456
0.150900,-0.275134
0.151000,-0.326418
0.151100,-0.353033
0.151200,-0.491305
0.151300,-0.458522
0.151400,-0.575047
0.151500,-0.549730
0.151600,-0.645482
0.151700,-0.496174
0.151800,-0.544861
0.151900,-0.503315
0.152000,-0.820756
0.152100,-0.897682
0.152200,-0.791543
0.152300,-0.578293
0.152400,-0.525062
0.152500,-0.632498
0.152600,-0.884698
0.152700,-0.987591
0.152800,-0.898006
0.152900,-0.736689
0.153000,-0.697739
0.153100,-0.760708
0.153200,-0.884374
0.153300,-0.939228
0.153400,-0.878531
0.153500,-0.910340
0.153600,-0.875286
0.153700,-0.996355
0.153800,-1.015830
0.153900,-1.050884
0.154000,-1.026216
0.154100,-1.030436
0.154200,-1.083018
0.154300,-1.104116
0.154400,-1.099247
0.154500,-1.066464
0.154600,-1.035954
0.154700,-1.069386
0.154800,-1.185262
0.154900,-1.201815
0.155000,-1.202789
0.155100,-1.146312
0.155200,-1.096001
0.155300,-1.138197
0.155400,-1.137223
0.155500,-1.149233
0.155600,-1.114827
0.155700,-1.118073
0.155800,-1.129109
0.155900,-1.099247
0.156000,-1.126512
0.156100,-1.116775
0.156200,-1.137223
0.156300,-1.120994
0.156400,-1.105090
0.156500,-1.140794
0.156600,-1.138197
0.156700,-1.145013
0.156800,-1.175524
0.156900,-1.169032
0.157000,-1.204736
0.157100,-1.332946
0.157200,-1.602350
0.157300,-1.550417
0.157400,-1.405977
0.157500,-1.164164
0.157600,-1.209605
0.157700,-1.339438
0.157800,-1.562102
0.157900,-1.638054
0.158000,-1.546846
0.158100,-1.381634
0.158200,-1.342684
0.158300,-1.380335
0.158400,-1.522178
0.158500,-1.594235
0.158600,-1.578980
0.158700,-1.576383
0.158800,-1.531591
0.158900,-1.518608
0.159000,-1.566646
0.159100,-1.570865
0.159200,-1.562102
0.159300,-1.576383
0.159400,-1.574436
0.159500,-1.622149
0.159600,-1.659476
0.159700,-1.643896
0.159800,-1.626044
0.159900,-1.590665
0.160000,-1.654283
0.160100,-1.629290
0.160200,-1.599429
0.160300,-1.442006
0.160400,-1.372870
0.160500,-1.531591
0.160600,-1.716928
0.160700,-1.803916
0.160800,-1.774703
0.160900,-1.559505
0.161000,-1.468622
0.161100,-1.564049
0.161200,-1.777300
0.161300,-1.889281
0.161400,-1.871754
0.161500,-1.774054
0.161600,-1.680250
0.161700,-1.695181
0.161800,-1.734455
0.161900,-1.736403
0.162000,-1.737376
0.162100,-1.722121
0.162200,-1.719849
0.162300,-1.697777
0.162400,-1.651686
0.162500,-1.587095
0.162600,-1.441032
0.162700,-1.395266
0.162800,-1.375791
0.162900,-1.356641
0.163000,-1.340087
0.163100,-1.076851
0.163200,-0.983047
0.163300,-0.959677
0.163400,-0.793816
0.163500,-0.761357
0.163600,-0.700660
0.163700,-0.597443
0.163800,-0.445864
0.163900,-0.335506
0.164000,-0.263124
0.164100,-0.253387
0.164200,-0.170618
0.164300,-0.173215
0.164400,-0.078762
0.164500,-0.126151
0.164600,-0.048576
0.164700,-0.019039
0.164800,0.000436
0.164900,0.057563
0.165000,-0.007678
0.165100,0.031596
0.165200,-0.060585
0.165300,0.041009
0.165400,0.159806
0.165500,0.416874
0.165600,0.533724
0.165700,0.251987
0.165800,0.158507
0.165900,0.019911
0.166000,0.355853
0.166100,0.452903
0.166200,0.604158
0.166300,0.503862
0.166400,0.375328
0.166500,0.267242
0.166600,0.303271
0.166700,0.440569
0.166800,0.535347
0.166900,0.461991
0.167000,0.379547
0.167100,0.301323
0.167200,0.284120
0.167300,0.258154
0.167400,0.255557
0.167500,0.197133
0.167600,0.168569
0.167700,0.122479
0.167800,0.075414
0.167900,-0.094017
0.168000,-0.106676
0.168100,-0.185874
0.168200,-0.233912
0.168300,-0.210217
0.168400,-0.170294
0.168500,-0.168996
0.168600,-0.340699
0.168700,-0.637042
0.168800,-0.625357
0.168900,-0.426064
0.169000,-0.334857
0.169100,-0.309215
0.169200,-0.544212
0.169300,-0.742207
0.169400,-0.774665
0.169500,-0.644832
0.169600,-0.450732
0.169700,-0.458198
0.169800,-0.611400
0.169900,-0.718512
0.170000,-0.733443
0.170100,-0.663658
0.170200,-0.646131
0.170300,-0.672097
0.170400,-0.745453
0.170500,-0.811343
0.170600,-0.790894
0.170700,-0.757787
0.170800,-0.763954
0.170900,-0.818808
0.171000,-0.836011
0.171100,-0.806799
0.171200,-0.795114
0.171300,-0.776613
0.171400,-0.836660
0.171500,-0.991486
0.171600,-1.019400
0.171700,-0.997653
0.171800,-0.857758
0.171900,-0.923973
0.172000,-0.957729
0.172100,-0.950589
0.172200,-0.972011
0.172300,-0.947343
0.172400,-0.945071
0.172500,-0.950264
0.172600,-0.929815
0.172700,-0.945071
0.172800,-0.920727
0.172900,-0.926894
0.173000,-0.919753
0.173100,-0.928517
0.173200,-0.936307
0.173300,-0.962274
0.173400,-0.933061
0.173500,-0.992460
0.173600,-1.024918
0.173700,-1.097949
0.173800,-1.322884
0.173900,-1.535161
0.174000,-1.500106
0.174100,-1.298541
0.174200,-1.206359
0.174300,-1.250178
0.174400,-1.527371
0.174500,-1.796450
0.174600,-1.774054
0.174700,-1.649739
0.174800,-1.510818
0.174900,-1.505624
0.175000,-1.696803
0.175100,-1.833128
0.175200,-1.897396
0.175300,-1.841892
0.175400,-1.777625
0.175500,-1.814627
0.175600,-1.832479
0.175700,-1.880193
0.175800,-1.925310
0.175900,-1.899343
0.176000,-1.919143
0.176100,-1.919143
0.176200,-2.000613
0.176300,-2.055467
0.176400,-2.029176
0.176500,-2.033071
0.176600,-2.081434
0.176700,-2.101558
0.176800,-2.106427
0.176900,-2.003859
0.177000,-1.887333
0.177100,-1.865586
0.177200,-2.086303
0.177300,-2.294361
0.177400,-2.357979
0.177500,-2.185625
0.177600,-1.949329
0.177700,-1.910703
0.177800,-2.074618
0.177900,-2.310265
0.178000,-2.419974
0.178100,-2.314485
0.178200,-2.176862
0.178300,-2.094742
0.178400,-2.123954
0.178500,-2.185301
0.178600,-2.204776
0.178700,-2.171668
0.178800,-2.128174
0.178900,-2.065205
0.179000,-2.039238
0.179100,-1.919792
0.179200,-1.785739
0.179300,-1.689987
0.179400,-1.640975
0.179500,-1.644870
0.179600,-1.627992
0.179700,-1.580278
0.179800,-1.386827
0.179900,-1.317042
0.180000,-1.168383
0.180100,-1.094379
0.180200,-1.046340
0.180300,-0.985319
0.180400,-0.874312
0.180500,-0.806150
0.180600,-0.600040
0.180700,-0.578618
0.180800,-0.555248
0.180900,-0.542589
0.181000,-0.537720
0.181100,-0.475401
0.181200,-0.523114
0.181300,-0.440670
0.181400,-0.445539
0.181500,-0.458198
0.181600,-0.448460
0.181700,-0.491305
0.181800,-0.503315
0.181900,-0.492928
0.182000,-0.476374
0.182100,-0.278380
0.182200,-0.139459
0.182300,-0.077463
0.182400,-0.358876
0.182500,-0.518570
0.182600,-0.473129
0.182700,-0.212489
0.182800,-0.115115
0.182900,0.004007
0.183000,-0.161530
0.183100,-0.268967
0.183200,-0.381597
0.183300,-0.212489
0.183400,-0.057664
0.183500,0.012446
0.183600,0.021859
0.183700,-0.059287
0.183800,-0.071621
0.183900,-0.114790
0.184000,-0.092070
0.184100,-0.072270
0.184200,-0.082981
0.184300,-0.055392
0.184400,-0.110895
0.184500,-0.172890
0.184600,-0.266045
0.184700,-0.185549
0.184800,-0.267019
0.184900,-0.282599
0.185000,-0.249492
0.185100,-0.224824
0.185200,-0.250790
0.185300,-0.466962
0.185400,-0.545186
0.185500,-0.485787
0.185600,-0.280002
0.185700,-0.171268
0.185800,-0.239105
0.185900,-0.450083
0.186000,-0.636393
0.186100,-0.589329
0.186200,-0.441644
0.186300,-0.299477
0.186400,-0.318952
0.186500,-0.486436
0.186600,-0.563687
0.186700,-0.510456
0.186800,-0.509482
0.186900,-0.488709
0.187000,-0.598417
0.187100,-0.605233
0.187200,-0.673071
0.187300,-0.667229
0.187400,-0.668202
0.187500,-0.720460
0.187600,-0.738312
0.187700,-0.757787
0.187800,-0.726302
0.187900,-0.703906
0.188000,-0.710723
0.188100,-0.817510
0.188200,-0.881777
0.188300,-0.856460
0.188400,-0.811018
0.188500,-0.679887
0.188600,-0.725004
0.188700,-0.713968
0.188800,-0.674045
0.188900,-0.643859
0.189000,-0.658140
0.189100,-0.643209
0.189200,-0.643859
0.189300,-0.612374
0.189400,-0.619515
0.189500,-0.628279
0.189600,-0.644832
0.189700,-0.672097
0.189800,-0.719486
0.189900,-0.732470
0.190000,-0.761357
0.190100,-0.788622
0.190200,-0.833090
0.190300,-0.895410
0.190400,-1.002197
0.190500,-1.339763
0.190600,-1.427725
0.190700,-1.344956
0.190800,-1.185262
0.190900,-1.109309
0.191000,-1.281987
0.191100,-1.591639
0.191200,-1.808460
0.191300,-1.714980
0.191400,-1.586121
0.191500,-1.503677
0.191600,-1.610464
0.191700,-1.751333
0.191800,-1.915248
0.191900,-1.923687
0.192000,-1.909730
0.192100,-1.879219
0.192200,-1.887009
0.192300,-1.898369
0.192400,-1.935372
0.192500,-1.930503
0.192600,-1.940890
0.192700,-1.979515
0.192800,-2.002885
0.192900,-2.088575
0.193000,-2.092470
0.193100,-2.059687
0.193200,-2.097339
0.193300,-2.141157
0.193400,-2.170045
0.193500,-2.119735
0.193600,-2.001911
0.193700,-1.890255
0.193800,-1.965233
0.193900,-2.180432
0.194000,-2.315783
0.194100,-2.304098
0.194200,-2.063582
0.194300,-1.873376
0.194400,-1.871754
0.194500,-2.072021
0.194600,-2.223277
0.194700,-2.230418
0.194800,-2.082083
0.194900,-1.942513
0.195000,-1.912326
0.195100,-1.929529
0.195200,-1.955496
0.195300,-1.940241
0.195400,-1.873701
0.195500,-1.853901
0.195600,-1.784441
0.195700,-1.714331
0.195800,-1.577682
0.195900,-1.406951
0.196000,-1.318665
0.196100,-1.307629
0.196200,-1.268355
0.196300,-1.253424
0.196400,-1.091457
0.196500,-0.945071
0.196600,-0.925271
0.196700,-0.715267
0.196800,-0.746102
0.196900,-0.709749
0.197000,-0.667229
0.197100,-0.569205
0.197200,-0.492279
0.197300,-0.379974
0.197400,-0.379649
0.197500,-0.351735
0.197600,-0.364394
0.197700,-0.313759
0.197800,-0.362446
0.197900,-0.348165
0.198000,-0.293959
0.198100,-0.288766
0.198200,-0.218332
0.198300,-0.265072
0.198400,-0.259878
0.198500,-0.331936
0.198600,-0.331611
0.198700,-0.196260
0.198800,0.037763
0.198900,0.263347
0.199000,0.180254
0.199100,-0.113817
0.199200,-0.319277
0.199300,-0.118685
0.199400,0.007902
0.199500,0.159157
0.199600,0.122479
0.199700,0.070221
0.199800,-0.139134
0.199900,-0.098561
0.200000,0.017639
0.200100,0.122154
0.200200,0.165973
0.200300,0.106250
0.200400,0.089372
0.200500,0.016665
0.200600,0.021859
0.200700,-0.017740
0.200800,0.023157
0.200900,-0.015468
0.201000,-0.024232
0.201100,-0.042084
0.201200,-0.186523
0.201300,-0.168996
0.201400,-0.279353
0.201500,-0.260852
0.201600,-0.318628
0.201700,-0.207945
0.201800,-0.279678
0.201900,-0.283248
0.202000,-0.614646
0.202100,-0.659114
0.202200,-0.539992
0.202300,-0.298828
0.202400,-0.294284
0.202500,-0.334857
0.202600,-0.703257
0.202700,-0.730847
0.202800,-0.675668
0.202900,-0.463716
0.203000,-0.405291
0.203100,-0.542914
0.203200,-0.678589
0.203300,-0.702933
0.203400,-0.696116
0.203500,-0.637692
0.203600,-0.654245
0.203700,-0.743505
0.203800,-0.778236
0.203900,-0.784078
0.204000,-0.725004
0.204100,-0.731496
0.204200,-0.783429
0.204300,-0.801281
0.204400,-0.774990
0.204500,-0.757787
0.204600,-0.718837
0.204700,-0.774341
0.204800,-0.916508
0.204900,-0.960651
0.205000,-0.953185
0.205100,-0.835037
0.205200,-0.897682
0.205300,-0.957729
0.205400,-0.976555
0.205500,-1.007066
0.205600,-1.002197
0.205700,-1.052507
0.205800,-1.057701
0.205900,-1.078149
0.206000,-1.079772
0.206100,-1.088861
0.206200,-1.078799
0.206300,-1.086913
0.206400,-1.078474
0.206500,-1.099896
0.206600,-1.079448
0.206700,-1.111581
0.206800,-1.088211
0.206900,-1.169682
0.207000,-1.148584
0.207100,-1.379037
0.207200,-1.569567
0.207300,-1.591963
0.207400,-1.363457
0.207500,-1.111581
0.207600,-1.115476
0.207700,-1.275495
0.207800,-1.556259
0.207900,-1.610789
0.208000,-1.503028
0.208100,-1.293997
0.208200,-1.218369
0.208300,-1.293023
0.208400,-1.394617
0.208500,-1.476412
0.208600,-1.417987
0.208700,-1.409872
0.208800,-1.357615
0.208900,-1.361510
0.209000,-1.398512
0.209100,-1.437462
0.209200,-1.456612
0.209300,-1.469920
0.209400,-1.494264
0.209500,-1.545548
0.209600,-1.550417
0.209700,-1.561128
0.209800,-1.545548
0.209900,-1.537109
0.210000,-1.554636
0.210100,-1.595209
0.210200,-1.501729
0.210300,-1.318665
0.210400,-1.247257
0.210500,-1.378063
0.210600,-1.613061
0.210700,-1.701023
0.210800,-1.621176
0.210900,-1.379362
0.211000,-1.270951
0.211100,-1.351123
0.211200,-1.599753
0.211300,-1.733806
0.211400,-1.726340
0.211500,-1.604297
0.211600,-1.549443
0.211700,-1.582550
0.211800,-1.610140
0.211900,-1.636431
0.212000,-1.651686
0.212100,-1.634808
0.212200,-1.629290
0.212300,-1.591639
0.212400,-1.529968
0.212500,-1.393968
0.212600,-1.293672
0.212700,-1.260240
0.212800,-1.243037
0.212900,-1.217720
0.213000,-1.200192
0.213100,-1.059973
0.213200,-0.973959
0.213300,-0.935333
0.213400,-0.755190
0.213500,-0.772718
0.213600,-0.749348
0.213700,-0.694493
0.213800,-0.623735
0.213900,-0.486436
0.214000,-0.503315
0.214100,-0.453005
0.214200,-0.464365
0.214300,-0.478646
0.214400,-0.455277
0.214500,-0.513701
0.214600,-0.508183
0.214700,-0.443916
0.214800,-0.472804
0.214900,-0.413730
0.215000,-0.480919
0.215100,-0.403019
0.215200,-0.553300
0.215300,-0.431907
0.215400,-0.317329
0.215500,-0.031048
0.215600,0.036789
0.215700,-0.238131
0.215800,-0.421845
0.215900,-0.502016
0.216000,-0.275458
0.216100,-0.073568
0.216200,0.026727
0.216300,0.029648
0.216400,-0.205024
0.216500,-0.210867
0.216600,-0.236184
0.216700,0.026078
0.216800,0.038737
0.216900,0.072169
0.217000,0.093916
0.217100,0.052369
0.217200,0.051071
0.217300,0.075090
0.217400,0.082555
0.217500,0.084827
0.217600,0.112417
0.217700,0.118908
0.217800,0.026078
0.217900,0.015042
0.218000,-0.052146
0.218100,0.016341
0.218200,-0.078762
0.218300,0.013095
0.218400,0.012770
0.218500,0.094565
0.218600,-0.132967
0.218700,-0.325444
0.218800,-0.259554
0.218900,-0.085578
0.219000,0.048474
0.219100,0.062431
0.219200,-0.145950
0.219300,-0.375754
0.219400,-0.372508
0.219500,-0.253387
0.219600,-0.082657
0.219700,-0.076814
0.219800,-0.213463
0.219900,-0.335181
0.220000,-0.276107
0.220100,-0.282599
0.220200,-0.238456
0.220300,-0.328365
0.220400,-0.376403
0.220500,-0.439048
0.220600,-0.453654
0.220700,-0.471830
0.220800,-0.506885
0.220900,-0.589329
0.221000,-0.637042
0.221100,-0.636718
0.221200,-0.639315
0.221300,-0.661711
0.221400,-0.775314
0.221500,-0.894111
0.221600,-0.927219
0.221700,-0.910665
0.221800,-0.778236
0.221900,-0.862302
0.222000,-0.888269
0.222100,-0.858732
0.222200,-0.887295
0.222300,-0.894761
0.222400,-0.893787
0.222500,-0.878531
0.222600,-0.893462
0.222700,-0.892813
0.222800,-0.910665
0.222900,-0.923324
0.223000,-0.950913
0.223100,-0.941500
0.223200,-0.986942
0.223300,-0.970064
0.223400,-0.994407
0.223500,-1.027839
0.223600,-1.063543
0.223700,-1.161242
0.223800,-1.375791
0.223900,-1.550741
0.224000,-1.498483
0.224100,-1.268355
0.224200,-1.207333
0.224300,-1.269977
0.224400,-1.605596
0.224500,-1.747438
0.224600,-1.832154
0.224700,-1.666942
0.224800,-1.534188
0.224900,-1.563075
0.225000,-1.720823
0.225100,-1.870455
0.225200,-1.899668
0.225300,-1.886684
0.225400,-1.866885
0.225500,-1.873701
0.225600,-1.930828
0.225700,-1.984059
0.225800,-1.974322
0.225900,-1.981463
0.226000,-2.021711
0.226100,-2.035343
0.226200,-2.151544
0.226300,-2.183353
0.226400,-2.152842
0.226500,-2.137587
0.226600,-2.199258
0.226700,-2.250542
0.226800,-2.258656
0.226900,-2.188222
0.227000,-2.080785
0.227100,-2.078513
0.227200,-2.309941
0.227300,-2.515727
0.227400,-2.615374
0.227500,-2.416729
0.227600,-2.215162
0.227700,-2.212241
0.227800,-2.406017
0.227900,-2.659842
0.228000,-2.714696
0.228100,-2.628032
0.228200,-2.507287
0.228300,-2.432633
0.228400,-2.466714
0.228500,-2.499173
0.228600,-2.495602
0.228700,-2.451784
0.228800,-2.406666
0.228900,-2.358304
0.229000,-2.338504
0.229100,-2.210618
0.229200,-2.063582
0.229300,-1.922064
0.229400,-1.875324
0.229500,-1.858446
0.229600,-1.842866
0.229700,-1.765940
0.229800,-1.581901
0.229900,-1.499457
0.230000,-1.288479
0.230100,-1.284908
0.230200,-1.260240
0.230300,-1.211877
0.230400,-1.098598
0.230500,-1.027839
0.230600,-0.889892
0.230700,-0.891839
0.230800,-0.894111
0.230900,-0.898655
0.231000,-0.857758
0.231100,-0.859381
0.231200,-0.860355
0.231300,-0.854512
0.231400,-0.816861
0.231500,-0.789271
0.231600,-0.775639
0.231700,-0.753567
0.231800,-0.838283
0.231900,-0.795438
0.232000,-0.801605
0.232100,-0.500393
0.232200,-0.341024
0.232300,-0.290064
0.232400,-0.630551
0.232500,-0.812966
0.232600,-0.736689
0.232700,-0.508183
0.232800,-0.325444
0.232900,-0.200155
0.233000,-0.315706
0.233100,-0.467935
0.233200,-0.553300
0.233300,-0.448136
0.233400,-0.297530
0.233500,-0.179058
0.233600,-0.160881
0.233700,-0.200805
0.233800,-0.168022
0.233900,-0.179382
0.234000,-0.148547
0.234100,-0.129397
0.234200,-0.128747
0.234300,-0.107325
0.234400,-0.105702
0.234500,-0.063831
0.234600,-0.159258
0.234700,-0.135239
0.234800,-0.223850
0.234900,-0.252413
0.235000,-0.185549
0.235100,-0.140432
0.235200,-0.157311
0.235300,-0.362446
0.235400,-0.524737
0.235500,-0.431907
0.235600,-0.232289
0.235700,-0.130695
0.235800,-0.199182
0.235900,-0.491954
0.236000,-0.674045
0.236100,-0.639964
0.236200,-0.480919
0.236300,-0.352384
0.236400,-0.464365
0.236500,-0.627954
0.236600,-0.737014
0.236700,-0.712670
0.236800,-0.702608
0.236900,-0.661061
0.237000,-0.768174
0.237100,-0.817835
0.237200,-0.908393
0.237300,-0.903524
0.237400,-0.906445
0.237500,-0.920402
0.237600,-0.969739
0.237700,-0.992135
0.237800,-0.971362
0.237900,-0.973959
0.238000,-0.986293
0.238100,-1.110608
0.238200,-1.179094
0.238300,-1.154426
0.238400,-1.090808
0.238500,-1.022646
0.238600,-1.074579
0.238700,-1.082044
0.238800,-1.082369
0.238900,-1.073605
0.239000,-1.081071
0.239100,-1.078149
0.239200,-1.104116
0.239300,-1.111906
0.239400,-1.146636
0.239500,-1.160918
0.239600,-1.177472
0.239700,-1.194674
0.239800,-1.236870
0.239900,-1.277767
0.240000,-1.312173
0.240100,-1.372221
0.240200,-1.435839
0.240300,-1.456937
0.240400,-1.546846
0.240500,-1.838971
0.240600,-1.920116
0.240700,-1.810732
0.240800,-1.626044
0.240900,-1.556259
0.241000,-1.710760
0.241100,-1.945758
0.241200,-2.157387
0.241300,-2.097663
0.241400,-1.961663
0.241500,-1.862016
0.241600,-1.922388
0.241700,-2.099611
0.241800,-2.208022
0.241900,-2.270341
0.242000,-2.216461
0.242100,-2.205100
0.242200,-2.210618
0.242300,-2.221654
0.242400,-2.283000
0.242500,-2.261578
0.242600,-2.252814
0.242700,-2.269368
0.242800,-2.285597
0.242900,-2.300528
0.243000,-2.293062
0.243100,-2.289167
0.243200,-2.293062
0.243300,-2.290790
0.243400,-2.296308
0.243500,-2.235936
0.243600,-2.099935
0.243700,-2.009701
0.243800,-2.081110
0.243900,-2.282351
0.244000,-2.385244
0.244100,-2.363172
0.244200,-2.125253
0.244300,-1.900641
0.244400,-1.913300
0.244500,-2.097014
0.244600,-2.267420
0.244700,-2.272614
0.244800,-2.108374
0.244900,-1.975620
0.245000,-1.917844
0.245100,-1.927582
0.245200,-1.943486
0.245300,-1.895123
0.245400,-1.837997
0.245500,-1.793204
0.245600,-1.743868
0.245700,-1.709787
0.245800,-1.573462
0.245900,-1.464078
0.246000,-1.373195
0.246100,-1.345605
0.246200,-1.347228
0.246300,-1.343982
0.246400,-1.233624
0.246500,-1.107362
0.246600,-1.057701
0.246700,-0.877233
0.246800,-0.887944
0.246900,-0.872040
0.247000,-0.810369
0.247100,-0.710723
0.247200,-0.595496
0.247300,-0.522790
0.247400,-0.478646
0.247500,-0.501692
0.247600,-0.461119
0.247700,-0.454952
0.247800,-0.441644
0.247900,-0.360499
0.248000,-0.328365
0.248100,-0.246246
0.248200,-0.321873
0.248300,-0.215735
0.248400,-0.275783
0.248500,-0.234561
0.248600,-0.188146
0.248700,-0.048576
0.248800,0.176035
0.248900,0.275681
0.249000,0.188369
0.249100,-0.079411
0.249200,-0.280652
0.249300,-0.005406
0.249400,0.111443
0.249500,0.300674
0.249600,0.215309
0.249700,0.055940
0.249800,-0.056690
0.249900,-0.091420
0.250000,0.045228
0.250100,0.144550
0.250200,0.185123
0.250300,0.187395
0.250400,0.088073
0.250500,0.140980
0.250600,0.125725
0.250700,0.147796
0.250800,0.146498
0.250900,0.146173
0.251000,0.178631
0.251100,0.145849
0.251200,0.107873
0.251300,0.001085
0.251400,-0.016118
0.251500,-0.044356
0.251600,-0.073244
0.251700,-0.039163
0.251800,-0.044681
0.251900,-0.087850
0.252000,-0.406589
0.252100,-0.412107
0.252200,-0.299477
0.252300,-0.089473
0.252400,-0.072919
0.252500,-0.211191
0.252600,-0.467611
0.252700,-0.552327
0.252800,-0.467286
0.252900,-0.279353
0.253000,-0.253387
0.253100,-0.379974
0.253200,-0.527658
0.253300,-0.547133
0.253400,-0.546160
0.253500,-0.529930
0.253600,-0.540317
0.253700,-0.639639
0.253800,-0.670474
0.253900,-0.671773
0.254000,-0.644832
0.254100,-0.679887
0.254200,-0.741882
0.254300,-0.763954
0.254400,-0.762331
0.254500,-0.738637
0.254600,-0.742207
0.254700,-0.804851
0.254800,-0.968441
0.254900,-1.006092
0.255000,-1.006417
0.255100,-1.038226
0.255200,-1.010636
0.255300,-1.123915
0.255400,-1.175524
0.255500,-1.213176
0.255600,-1.240441
0.255700,-1.290102
0.255800,-1.339114
0.255900,-1.415066
0.256000,-1.445901
0.256100,-1.492641
0.256200,-1.524450
0.256300,-1.562426
0.256400,-1.607219
0.256500,-1.589367
0.256600,-1.668240
0.256700,-1.714655
0.256800,-1.771782
0.256900,-1.835725
0.257000,-1.875973
0.257100,-2.092145
0.257200,-2.266122
0.257300,-2.347268
0.257400,-2.145702
0.257500,-1.992174
0.257600,-2.010350
0.257700,-2.254112
0.257800,-2.510209
0.257900,-2.556624
0.258000,-2.448213
0.258100,-2.286246
0.258200,-2.292738
0.258300,-2.384595
0.258400,-2.519622
0.258500,-2.555650
0.258600,-2.519297
0.258700,-2.482294
0.258800,-2.422896
0.258900,-2.465416
0.259000,-2.437826
0.259100,-2.408614
0.259200,-2.350514
0.259300,-2.309941
0.259400,-2.355382
0.259500,-2.304423
0.259600,-2.293062
0.259700,-2.246322
0.259800,-2.184652
0.259900,-2.222952
0.260000,-2.224251
0.260100,-2.212890
0.260200,-2.098962
0.260300,-1.935696
0.260400,-1.881491
0.260500,-1.972050
0.260600,-2.109673
0.260700,-2.197635
0.260800,-2.052871
0.260900,-1.782169
0.261000,-1.655257
0.261100,-1.735104
0.261200,-1.942188
0.261300,-2.036642
0.261400,-1.970102
0.261500,-1.831830
0.261600,-1.734780
0.261700,-1.739648
0.261800,-1.762694
0.261900,-1.815925
0.262000,-1.808460
0.262100,-1.780870
0.262200,-1.738999
0.262300,-1.693558
0.262400,-1.675056
0.262500,-1.566970
0.262600,-1.444927
0.262700,-1.412145
0.262800,-1.395266
0.262900,-1.376440
0.263000,-1.346254
0.263100,-1.187858
0.263200,-1.115476
0.263300,-0.872040
0.263400,-0.885997
0.263500,-0.883400
0.263600,-0.888269
0.263700,-0.808097
0.263800,-0.748699
0.263900,-0.641911
0.264000,-0.625033
0.264100,-0.595171
0.264200,-0.606856
0.264300,-0.629252
0.264400,-0.614971
0.264500,-0.674369
0.264600,-0.605558
0.264700,-0.610102
0.264800,-0.576995
0.264900,-0.595496
0.265000,-0.568231
0.265100,-0.630226
0.265200,-0.659439
0.265300,-0.557844
0.265400,-0.369262
0.265500,-0.122256
0.265600,-0.069349
0.265700,-0.244948
0.265800,-0.600040
0.265900,-0.515000
0.266000,-0.296881
0.266100,-0.033645
0.266200,-0.004108
0.266300,0.006928
0.266400,-0.232289
0.266500,-0.210217
0.266600,-0.191716
0.266700,-0.042084
0.266800,0.062756
0.266900,0.088073
0.267000,0.069897
0.267100,0.066002
0.267200,0.021209
0.267300,0.077687
0.267400,0.078985
0.267500,0.108522
0.267600,0.120207
0.267700,0.172464
0.267800,0.078336
0.267900,0.095863
0.268000,-0.069349
0.268100,-0.051172
0.268200,-0.173540
0.268300,-0.015793
0.268400,-0.042409
0.268500,0.010498
0.268600,-0.242026
0.268700,-0.433205
0.268800,-0.428985
0.268900,-0.298504
0.269000,-0.126800
0.269100,-0.121282
0.269200,-0.369262
0.269300,-0.593224
0.269400,-0.596145
0.269500,-0.459172
0.269600,-0.273835
0.269700,-0.236184
0.269800,-0.351086
0.269900,-0.440021
0.270000,-0.412432
0.270100,-0.355955
0.270200,-0.283248
0.270300,-0.305969
0.270400,-0.326093
0.270500,-0.340699
0.270600,-0.284547
0.270700,-0.230017
0.270800,-0.224499
0.270900,-0.269940
0.271000,-0.283248
0.271100,-0.235859
0.271200,-0.203077
0.271300,-0.171592
0.271400,-0.292986
0.271500,-0.400422
0.271600,-0.411458
0.271700,-0.409186
0.271800,-0.374131
0.271900,-0.366666
0.272000,-0.409511
0.272100,-0.394580
0.272200,-0.427687
0.272300,-0.438398
0.272400,-0.441644
0.272500,-0.465988
0.272600,-0.438398
0.272700,-0.493577
0.272800,-0.501043
0.272900,-0.535124
0.273000,-0.533176
0.273100,-0.540317
0.273200,-0.586732
0.273300,-0.583811
0.273400,-0.674045
0.273500,-0.699362
0.273600,-0.817510
0.273700,-0.926894
0.273800,-1.222264
0.273900,-1.486149
0.274000,-1.404355
0.274100,-1.238168
0.274200,-1.162865
0.274300,-1.349825
0.274400,-1.643896
0.274500,-1.893501
0.274600,-1.938293
0.274700,-1.789634
0.274800,-1.757500
0.274900,-1.849682
0.275000,-2.047028
0.275100,-2.209969
0.275200,-2.331363
0.275300,-2.357330
0.275400,-2.323573
0.275500,-2.361874
0.275600,-2.442046
0.275700,-2.513779
0.275800,-2.551755
0.275900,-2.558896
0.276000,-2.596548
0.276100,-2.627708
0.276200,-2.686458
0.276300,-2.716644
0.276400,-2.700415
0.276500,-2.752997
0.276600,-2.766305
0.276700,-2.817589
0.276800,-2.808176
0.276900,-2.710152
0.277000,-2.560844
0.277100,-2.607584
0.277200,-2.772797
0.277300,-2.950993
0.277400,-2.997409
0.277500,-2.800062
0.277600,-2.591030
0.277700,-2.545913
0.277800,-2.694897
0.277900,-2.857513
0.278000,-2.934115
0.278100,-2.836091
0.278200,-2.693274
0.278300,-2.602715
0.278400,-2.585837
0.278500,-2.602066
0.278600,-2.583240
0.278700,-2.513779
0.278800,-2.478075
0.278900,-2.392060
0.279000,-2.338504
0.279100,-2.238857
0.279200,-2.088575
0.279300,-1.953873
0.279400,-1.912976
0.279500,-1.900317
0.279600,-1.873701
0.279700,-1.757825
0.279800,-1.571839
0.279900,-1.485500
0.280000,-1.288154
0.280100,-1.296269
0.280200,-1.260240
0.280300,-1.227133
0.280400,-1.144040
0.280500,-1.056402
0.280600,-0.946369
0.280700,-0.921376
0.280800,-0.912288
0.280900,-0.913586
0.281000,-0.905147
0.281100,-0.877558
0.281200,-0.873663
0.281300,-0.797061
0.281400,-0.813615
0.281500,-0.784403
0.281600,-0.749023
0.281700,-0.762006
0.281800,-0.769147
0.281900,-0.715267
0.282000,-0.666904
0.282100,-0.318303
0.282200,-0.162179
0.282300,-0.022934
0.282400,-0.455926
0.282500,-0.565310
0.282600,-0.508183
0.282700,-0.181979
0.282800,0.001734
0.282900,0.051395
0.283000,-0.030075
0.283100,-0.190742
0.283200,-0.159583
0.283300,0.016665
0.283400,0.136111
0.283500,0.266593
0.283600,0.219853
0.283700,0.197457
0.283800,0.155586
0.283900,0.189667
0.284000,0.186097
0.284100,0.209142
0.284200,0.195185
0.284300,0.162727
0.284400,0.199405
0.284500,0.112092
0.284600,-0.035917
0.284700,-0.044356
0.284800,-0.132318
0.284900,-0.205024
0.285000,-0.151793
0.285100,-0.165750
0.285200,-0.221253
0.285300,-0.489682
0.285400,-0.663983
0.285500,-0.634446
0.285600,-0.474427
0.285700,-0.424766
0.285800,-0.528632
0.285900,-0.825625
0.286000,-0.955133
0.286100,-0.932087
0.286200,-0.816212
0.286300,-0.745453
0.286400,-0.836660
0.286500,-1.017128
0.286600,-1.105090
0.286700,-1.097949
0.286800,-1.128784
0.286900,-1.136250
0.287000,-1.256994
0.287100,-1.293023
0.287200,-1.288479
0.287300,-1.269977
0.287400,-1.293672
0.287500,-1.369624
0.287600,-1.399810
0.287700,-1.430970
0.287800,-1.404030
0.287900,-1.405004
0.288000,-1.425452
0.288100,-1.563075
0.288200,-1.626044
0.288300,-1.615982
0.288400,-1.606245
0.288500,-1.580278
0.288600,-1.599104
0.288700,-1.601376
0.288800,-1.580927
0.288900,-1.564698
0.289000,-1.576059
0.289100,-1.564698
0.289200,-1.573787
0.289300,-1.585472
0.289400,-1.590340
0.289500,-1.620851
0.289600,-1.602350
0.289700,-1.621825
0.289800,-1.611438
0.289900,-1.636756
0.290000,-1.606569
0.290100,-1.667591
0.290200,-1.678951
0.290300,-1.698426
0.290400,-1.843515
0.290500,-2.101883
0.290600,-2.213864
0.290700,-2.058713
0.290800,-1.917520
0.290900,-1.868183
0.291000,-2.093119
0.291100,-2.381998
0.291200,-2.511507
0.291300,-2.454380
0.291400,-2.279430
0.291500,-2.237559
0.291600,-2.330389
0.291700,-2.515402
0.291800,-2.655297
0.291900,-2.689054
0.292000,-2.675097
0.292100,-2.683536
0.292200,-2.747804
0.292300,-2.796816
0.292400,-2.880883
0.292500,-2.885103
0.292600,-2.856539
0.292700,-2.888349
0.292800,-2.993839
0.292900,-3.048693
0.293000,-3.021753
0.293100,-2.962354
0.293200,-2.949371
0.293300,-3.006497
0.293400,-2.982154
0.293500,-2.901981
0.293600,-2.678992
0.293700,-2.562791
0.293800,-2.618944
0.293900,-2.762410
0.294000,-2.854267
0.294100,-2.736119
0.294200,-2.472232
0.294300,-2.292738
0.294400,-2.300852
0.294500,-2.447564
0.294600,-2.586810
0.294700,-2.572204
0.294800,-2.438800
0.294900,-2.313836
0.295000,-2.302151
0.295100,-2.338504
0.295200,-2.386218
0.295300,-2.396280
0.295400,-2.351487
0.295500,-2.301501
0.295600,-2.268719
0.295700,-2.227496
0.295800,-2.140184
0.295900,-2.016193
0.296000,-1.966856
0.296100,-1.956470
0.296200,-1.964260
0.296300,-1.994446
0.296400,-1.899992
0.296500,-1.818522
0.296600,-1.701997
0.296700,-1.661099
0.296800,-1.729586
0.296900,-1.734780
0.297000,-1.690636
0.297100,-1.588717
0.297200,-1.526722
0.297300,-1.444603
0.297400,-1.440708
0.297500,-1.423180
0.297600,-1.400784
0.297700,-1.365729
0.297800,-1.385529
0.297900,-1.324183
0.298000,-1.307954
0.298100,-1.271276
0.298200,-1.226808
0.298300,-1.219018
0.298400,-1.177472
0.298500,-1.231352
0.298600,-1.120345
0.298700,-1.022321
0.298800,-0.690923
0.298900,-0.614971
0.299000,-0.633797
0.299100,-0.962923
0.299200,-0.978827
0.299300,-0.730197
0.299400,-0.520842
0.299500,-0.352384
0.299600,-0.306943
0.299700,-0.448136
0.299800,-0.495200
0.299900,-0.416327
0.300000,-0.169320
0.300100,-0.048900
0.300200,0.067300
0.300300,0.065028
0.300400,0.056264
0.300500,0.053668
0.300600,0.092942
0.300700,0.119882
0.300800,0.166947
0.300900,0.182851
0.301000,0.150717
0.301100,0.189343
0.301200,0.097161
0.301300,0.183500
0.301400,0.119882
0.301500,0.125725
0.301600,0.177009
0.301700,0.219204
0.301800,0.244846
0.301900,0.135787
0.302000,-0.062208
0.302100,-0.096289
0.302200,-0.001187
0.302300,0.174087
0.302400,0.196159
0.302500,0.045878
0.302600,-0.182303
0.302700,-0.252738
0.302800,-0.163802
0.302900,-0.016767
0.303000,0.037114
0.303100,-0.053444
0.303200,-0.178084
0.303300,-0.182953
0.303400,-0.161855
0.303500,-0.134590
0.303600,-0.153416
0.303700,-0.197559
0.303800,-0.233263
0.303900,-0.296556
0.304000,-0.247544
0.304100,-0.263449
0.304200,-0.300451
0.304300,-0.322847
0.304400,-0.328690
0.304500,-0.331286
0.304600,-0.331936
0.304700,-0.429310
0.304800,-0.565310
0.304900,-0.622112
0.305000,-0.635420
0.305100,-0.507210
0.305200,-0.585759
0.305300,-0.604260
0.305400,-0.609128
0.305500,-0.620164
0.305600,-0.632174
0.305700,-0.659439
0.305800,-0.691572
0.305900,-0.713644
0.306000,-0.757138
0.306100,-0.809071
0.306200,-0.832116
0.306300,-0.873014
0.306400,-0.933386
0.306500,-0.976880
0.306600,-1.010312
0.306700,-1.010312
0.306800,-1.074904
0.306900,-1.092431
0.307000,-1.217720
0.307100,-1.414417
0.307200,-1.705567
0.307300,-1.664021
0.307400,-1.489395
0.307500,-1.368651
0.307600,-1.420584
0.307700,-1.791906
0.307800,-2.047677
0.307900,-2.168422
0.308000,-2.085005
0.308100,-2.026255
0.308200,-2.064556
0.308300,-2.264174
0.308400,-2.508586
0.308500,-2.654973
0.308600,-2.706906
0.308700,-2.753971
0.308800,-2.787728
0.308900,-2.870497
0.309000,-2.980531
0.309100,-3.023376
0.309200,-3.030192
0.309300,-3.024999
0.309400,-3.077257
0.309500,-3.100951
0.309600,-3.067195
0.309700,-3.014287
0.309800,-2.992865
0.309900,-3.002602
0.310000,-2.971118
0.310100,-2.958783
0.310200,-2.802983
0.310300,-2.671527
0.310400,-2.636796
0.310500,-2.716319
0.310600,-2.879910
0.310700,-2.953915
0.310800,-2.761112
0.310900,-2.519297
0.311000,-2.428414
0.311100,-2.486189
0.311200,-2.565063
0.311300,-2.604013
0.311400,-2.529359
0.311500,-2.345969
0.311600,-2.203477
0.311700,-2.169396
0.311800,-2.137262
0.311900,-2.112919
0.312000,-2.029825
0.312100,-1.939267
0.312200,-1.825014
0.312300,-1.718226
0.312400,-1.606245
0.312500,-1.395266
0.312600,-1.236870
0.312700,-1.118073
0.312800,-1.062894
0.312900,-1.008364
0.313000,-0.889243
0.313100,-0.680536
0.313200,-0.580890
0.313300,-0.374780
0.313400,-0.316031
0.313500,-0.256957
0.313600,-0.185225
0.313700,-0.077788
0.313800,0.019586
0.313900,0.167271
0.314000,0.194861
0.314100,0.228292
0.314200,0.273085
0.314300,0.233486
0.314400,0.283147
0.314500,0.211414
0.314600,0.226345
0.314700,0.197457
0.314800,0.158507
0.314900,0.064054
0.315000,-0.001511
0.315100,-0.058638
0.315200,-0.140108
0.315300,-0.097263
0.315400,0.060484
0.315500,0.216932
0.315600,0.246794
0.315700,-0.080060
0.315800,-0.326093
0.315900,-0.362122
0.316000,-0.142704
0.316100,0.080608
0.316200,0.151691
0.316300,0.014069
0.316400,-0.199182
0.316500,-0.278055
0.316600,-0.280327
0.316700,-0.175487
0.316800,-0.190418
0.316900,-0.239105
0.317000,-0.345568
0.317100,-0.426389
0.317200,-0.493902
0.317300,-0.546809
0.317400,-0.666904
0.317500,-0.768174
0.317600,-0.923324
0.317700,-0.993109
0.317800,-1.161242
0.317900,-1.277118
0.318000,-1.536135
0.318100,-1.575085
0.318200,-1.728937
0.318300,-1.674732
0.318400,-1.737701
0.318500,-1.808135
0.318600,-2.079487
0.318700,-2.280728
0.318800,-2.252489
0.318900,-2.122332
0.319000,-1.973023
0.319100,-2.060012
0.319200,-2.230418
0.319300,-2.413158
0.319400,-2.344022
0.319500,-2.169396
0.319600,-1.997692
0.319700,-2.023334
0.319800,-2.127849
0.319900,-2.218733
0.320000,-2.131744
0.320100,-2.103181
0.320200,-2.019439
0.320300,-2.085005
0.320400,-2.146026
0.320500,-2.184976
0.320600,-2.189196
0.320700,-2.155114
0.320800,-2.183678
0.320900,-2.243726
0.321000,-2.252165
0.321100,-2.241129
0.321200,-2.187573
0.321300,-2.182055
0.321400,-2.329740
0.321500,-2.417053
0.321600,-2.391736
0.321700,-2.247945
0.321800,-2.194714
0.321900,-2.255411
0.322000,-2.228146
0.322100,-2.204451
0.322200,-2.160308
0.322300,-2.122656
0.322400,-2.071047
0.322500,-1.993148
0.322600,-1.962961
0.322700,-1.892527
0.322800,-1.850980
0.322900,-1.802617
0.323000,-1.728937
0.323100,-1.691610
0.323200,-1.613061
0.323300,-1.552689
0.323400,-1.539705
0.323500,-1.533538
0.323600,-1.501729
0.323700,-1.522827
0.323800,-1.734780
0.323900,-1.775028
0.324000,-1.610140
0.324100,-1.325481
0.324200,-1.246283
0.324300,-1.306006
0.324400,-1.640001
0.324500,-1.740298
0.324600,-1.697128
0.324700,-1.502054
0.324800,-1.384230
0.324900,-1.496536
0.325000,-1.648765
0.325100,-1.781520
0.325200,-1.759448
0.325300,-1.714655
0.325400,-1.649090
0.325500,-1.664021
0.325600,-1.734455
0.325700,-1.770808
0.325800,-1.749386
0.325900,-1.729586
0.326000,-1.714006
0.326100,-1.744517
0.326200,-1.809758
0.326300,-1.752956
0.326400,-1.753605
0.326500,-1.737052
0.326600,-1.750684
0.326700,-1.776326
0.326800,-1.741920
0.326900,-1.614035
0.327000,-1.474789
0.327100,-1.566646
0.327200,-1.676679
0.327300,-1.861691
0.327400,-1.856498
0.327500,-1.661749
0.327600,-1.512441
0.327700,-1.535161
0.327800,-1.729911
0.327900,-1.984059
0.328000,-2.093119
0.328100,-2.055143
0.328200,-1.960365
0.328300,-1.949329
0.328400,-2.049300
0.328500,-2.153492
0.328600,-2.242752
0.328700,-2.240480
0.328800,-2.239831
0.328900,-2.233339
0.329000,-2.255086
0.329100,-2.219706
0.329200,-2.126227
0.329300,-2.069749
0.329400,-2.091172
0.329500,-2.083057
0.329600,-2.098962
0.329700,-2.011324
0.329800,-1.855200
0.329900,-1.833128
0.330000,-1.588717
0.330100,-1.638054
0.330200,-1.590665
0.330300,-1.507572
0.330400,-1.394293
0.330500,-1.266083
0.330600,-1.119371
0.330700,-1.086589
0.330800,-1.025243
0.330900,-1.028813
0.331000,-0.969090
0.331100,-0.935982
0.331200,-0.856784
0.331300,-0.764279
0.331400,-0.745128
0.331500,-0.690923
0.331600,-0.708450
0.331700,-0.725004
0.331800,-0.676317
0.331900,-0.806150
0.332000,-0.570828
0.332100,-0.493253
0.332200,-0.229368
0.332300,-0.419573
0.332400,-0.791219
0.332500,-0.989863
0.332600,-0.962923
0.332700,-0.610102
0.332800,-0.596145
0.332900,-0.600365
0.333000,-0.815238
0.333100,-1.099247
0.333200,-1.127486
0.333300,-0.996679
0.333400,-0.866197
0.333500,-0.899305
0.333600,-0.912613
0.333700,-0.990188
0.333800,-1.015830
0.333900,-1.009013
0.334000,-0.992135
0.334100,-0.944746
0.334200,-0.941500
0.334300,-0.935982
0.334400,-0.965844
0.334500,-0.999276
0.334600,-1.052183
0.334700,-0.999601
0.334800,-0.979801
0.334900,-0.966493
0.335000,-0.864899
0.335100,-0.841529
0.335200,-0.857434
0.335300,-1.091133
0.335400,-1.142417
0.335500,-0.986293
0.335600,-0.768498
0.335700,-0.604260
0.335800,-0.703906
0.335900,-0.897033
0.336000,-1.037901
0.336100,-0.948317
0.336200,-0.732145
0.336300,-0.570179
0.336400,-0.628279
0.336500,-0.749672
0.336600,-0.782131
0.336700,-0.729873
0.336800,-0.711047
0.336900,-0.649701
0.337000,-0.710723
0.337100,-0.735066
0.337200,-0.774665
0.337300,-0.753892
0.337400,-0.758436
0.337500,-0.797710
0.337600,-0.825625
0.337700,-0.832441
0.337800,-0.811992
0.337900,-0.818484
0.338000,-0.855162
0.338100,-1.024918
0.338200,-1.016479
0.338300,-1.019400
0.338400,-0.900278
0.338500,-0.918130
0.338600,-1.015505
0.338700,-0.989863
0.338800,-0.975581
0.338900,-0.967467
0.339000,-0.964546
0.339100,-0.968765
0.339200,-0.933710
0.339300,-0.934360
0.339400,-0.961300
0.339500,-0.921052
0.339600,-0.950913
0.339700,-0.926570
0.339800,-0.960002
0.339900,-0.940527
0.340000,-0.987916
0.340100,-0.968765
0.340200,-1.059973
0.340300,-1.082044
0.340400,-1.298216
0.340500,-1.552364
0.340600,-1.577357
0.340700,-1.432918
0.340800,-1.210904
0.340900,-1.228431
0.341000,-1.473815
0.341100,-1.783792
0.341200,-1.859419
0.341300,-1.724718
0.341400,-1.610789
0.341500,-1.543600
0.341600,-1.654608
0.341700,-1.798398
0.341800,-1.914598
0.341900,-1.902589
0.342000,-1.820794
0.342100,-1.823715
0.342200,-1.845462
0.342300,-1.855524
0.342400,-1.874999
0.342500,-1.892851
0.342600,-1.904536
0.342700,-1.925959
0.342800,-1.994446
0.342900,-2.025606
0.343000,-2.064231
0.343100,-2.081110
0.343200,-2.122981
0.343300,-2.201530
0.343400,-2.269368
0.343500,-2.234962
0.343600,-2.102857
0.343700,-2.065530
0.343800,-2.210943
0.343900,-2.437177
0.344000,-2.603689
0.344100,-2.537474
0.344200,-2.329091
0.344300,-2.188222
0.344400,-2.272938
0.344500,-2.470285
0.344600,-2.656920
0.344700,-2.665035
0.344800,-2.517025
0.344900,-2.395631
0.345000,-2.348241
0.345100,-2.375506
0.345200,-2.415106
0.345300,-2.379401
0.345400,-2.359602
0.345500,-2.295984
0.345600,-2.243076
0.345700,-2.205425
0.345800,-2.066828
0.345900,-1.941214
0.346000,-1.883439
0.346100,-1.902264
0.346200,-1.900966
0.346300,-1.868183
0.346400,-1.753930
0.346500,-1.655906
0.346600,-1.545223
0.346700,-1.474464
0.346800,-1.512765
0.346900,-1.500431
0.347000,-1.414417
0.347100,-1.344307
0.347200,-1.216421
0.347300,-1.180068
0.347400,-1.134951
0.347500,-1.145662
0.347600,-1.117748
0.347700,-1.106713
0.347800,-1.108985
0.347900,-1.085615
0.348000,-1.070035
0.348100,-0.962274
0.348200,-1.056402
0.348300,-0.965519
0.348400,-1.062894
0.348500,-0.986617
0.348600,-1.006092
0.348700,-0.897033
0.348800,-0.619515
0.348900,-0.510131
0.349000,-0.765901
0.349100,-1.111906
0.349200,-1.061596
0.349300,-0.947018
0.349400,-0.763954
0.349500,-0.562713
0.349600,-0.735391
0.349700,-0.825300
0.349800,-0.995056
0.349900,-0.895734
0.350000,-0.712670
0.350100,-0.546160
0.350200,-0.504938
0.350300,-0.510456
0.350400,-0.537720
0.350500,-0.548756
0.350600,-0.548107
0.350700,-0.501692
0.350800,-0.458847
0.350900,-0.442293
0.351000,-0.428012
0.351100,-0.430608
0.351200,-0.480269
0.351300,-0.527334
0.351400,-0.571152
0.351500,-0.587381
0.351600,-0.503315
0.351700,-0.416327
0.351800,-0.425740
0.351900,-0.539992
0.352000,-0.773042
0.352100,-0.743181
0.352200,-0.662684
0.352300,-0.418599
0.352400,-0.443267
0.352500,-0.593873
0.352600,-0.830169
0.352700,-0.844775
0.352800,-0.717863
0.352900,-0.538045
0.353000,-0.514026
0.353100,-0.641587
0.353200,-0.765901
0.353300,-0.739286
0.353400,-0.750322
0.353500,-0.725329
0.353600,-0.756164
0.353700,-0.813290
0.353800,-0.834064
0.353900,-0.884049
0.354000,-0.846073
0.354100,-0.840231
0.354200,-0.873338
0.354300,-0.877233
0.354400,-0.867171
0.354500,-0.795438
0.354600,-0.734417
0.354700,-0.808746
0.354800,-0.961949
0.354900,-1.008040
0.355000,-1.036278
0.355100,-1.081395
0.355200,-1.038226
0.355300,-1.088861
0.355400,-1.093729
0.355500,-1.111581
0.355600,-1.143390
0.355700,-1.173577
0.355800,-1.153128
0.355900,-1.168708
0.356000,-1.157672
0.356100,-1.197596
0.356200,-1.196946
0.356300,-1.204736
0.356400,-1.204087
0.356500,-1.217071
0.356600,-1.201815
0.356700,-1.221290
0.356800,-1.238168
0.356900,-1.281338
0.357000,-1.343982
0.357100,-1.608192
0.357200,-1.734455
0.357300,-1.768212
0.357400,-1.483553
0.357500,-1.343333
0.357600,-1.414092
0.357700,-1.720173
0.357800,-1.906159
0.357900,-1.986331
0.358000,-1.827610
0.358100,-1.718875
0.358200,-1.715305
0.358300,-1.876947
0.358400,-2.030150
0.358500,-2.113243
0.358600,-2.118761
0.358700,-2.058064
0.358800,-2.060985
0.358900,-2.113892
0.359000,-2.151544
0.359100,-2.178484
0.359200,-2.187573
0.359300,-2.154141
0.359400,-2.236260
0.359500,-2.292089
0.359600,-2.288194
0.359700,-2.243076
0.359800,-2.228470
0.359900,-2.247945
0.360000,-2.303774
0.360100,-2.349864
0.360200,-2.235611
0.360300,-2.078837
0.360400,-2.111296
0.360500,-2.272614
0.360600,-2.476452
0.360700,-2.564089
0.360800,-2.405044
0.360900,-2.216785
0.361000,-2.182704
0.361100,-2.332986
0.361200,-2.564739
0.361300,-2.683861
0.361400,-2.661140
0.361500,-2.552404
0.361600,-2.493006
0.361700,-2.510858
0.361800,-2.577397
0.361900,-2.638419
0.362000,-2.626734
0.362100,-2.634524
0.362200,-2.607908
0.362300,-2.572853
0.362400,-2.528385
0.362500,-2.400175
0.362600,-2.319029
0.362700,-2.288843
0.362800,-2.258981
0.362900,-2.274886
0.363000,-2.205100
0.363100,-2.049300
0.363200,-1.982761
0.363300,-1.741271
0.363400,-1.791906
0.363500,-1.775677
0.363600,-1.746465
0.363700,-1.684145
0.363800,-1.597481
0.363900,-1.467648
0.364000,-1.447524
0.364100,-1.423830
0.364200,-1.436813
0.364300,-1.437462
0.364400,-1.405977
0.364500,-1.385853
0.364600,-1.355343
0.364700,-1.317691
0.364800,-1.321261
0.364900,-1.291725
0.365000,-1.367677
0.365100,-1.336192
0.365200,-1.356966
0.365300,-1.256994
0.365400,-1.091457
0.365500,-0.805500
0.365600,-0.877558
0.365700,-1.082694
0.365800,-1.422856
0.365900,-1.249529
0.366000,-1.076526
0.366100,-0.766551
0.366200,-0.766226
0.366300,-0.779209
0.366400,-0.997653
0.366500,-0.993433
0.366600,-0.822703
0.366700,-0.627630
0.366800,-0.464689
0.366900,-0.517272
0.367000,-0.515649
0.367100,-0.533825
0.367200,-0.488709
0.367300,-0.492604
0.367400,-0.426064
0.367500,-0.428012
0.367600,-0.453978
0.367700,-0.441320
0.367800,-0.452680
0.367900,-0.619840
0.368000,-0.606207
0.368100,-0.682484
0.368200,-0.719811
0.368300,-0.625033
0.368400,-0.587057
0.368500,-0.639964
0.368600,-0.901901
0.368700,-1.063868
0.368800,-0.974932
0.368900,-0.856784
0.369000,-0.652622
0.369100,-0.801605
0.369200,-0.979801
0.369300,-1.191429
0.369400,-1.146636
0.369500,-1.010312
0.369600,-0.844126
0.369700,-0.853539
0.369800,-0.972011
0.369900,-1.035629
0.370000,-0.965519
0.370100,-0.984994
0.370200,-0.903200
0.370300,-0.959028
0.370400,-0.987916
0.370500,-1.000899
0.370600,-1.010312
0.370700,-0.980775
0.370800,-0.997653
0.370900,-1.017777
0.371000,-1.034655
0.371100,-0.983696
0.371200,-0.960975
0.371300,-0.933386
0.371400,-1.066464
0.371500,-1.156374
0.371600,-1.092756
0.371700,-1.064517
0.371800,-1.068087
0.371900,-1.112880
0.372000,-1.113204
0.372100,-1.134951
0.372200,-1.150856
0.372300,-1.175524
0.372400,-1.182340
0.372500,-1.206359
0.372600,-1.258942
0.372700,-1.294970
0.372800,-1.300164
0.372900,-1.351772
0.373000,-1.370273
0.373100,-1.438760
0.373200,-1.450445
0.373300,-1.490044
0.373400,-1.541328
0.373500,-1.606245
0.373600,-1.644870
0.373700,-1.761720
0.373800,-2.042809
0.373900,-2.147000
0.374000,-2.039887
0.374100,-1.876622
0.374200,-1.746789
0.374300,-1.931477
0.374400,-2.184652
0.374500,-2.382323
0.374600,-2.339802
0.374700,-2.180432
0.374800,-2.069749
0.374900,-2.118761
0.375000,-2.317406
0.375100,-2.421922
0.375200,-2.483268
0.375300,-2.424194
0.375400,-2.423869
0.375500,-2.442046
0.375600,-2.509235
0.375700,-2.523192
0.375800,-2.537474
0.375900,-2.512156
0.376000,-2.559545
0.376100,-2.648481
0.376200,-2.716644
0.376300,-2.748453
0.376400,-2.727680
0.376500,-2.724434
0.376600,-2.814019
0.376700,-2.839986
0.376800,-2.850372
0.376900,-2.696844
0.377000,-2.628357
0.377100,-2.759489
0.377200,-2.950344
0.377300,-3.169114
0.377400,-3.159377
0.377500,-2.987671
0.377600,-2.854267
0.377700,-2.891919
0.377800,-3.091538
0.377900,-3.314528
0.378000,-3.391455
0.378100,-3.298623
0.378200,-3.201573
0.378300,-3.166193
0.378400,-3.221048
0.378500,-3.258375
0.378600,-3.243444
0.378700,-3.192809
0.378800,-3.114584
0.378900,-3.078555
0.379000,-3.012664
0.379100,-2.915938
0.379200,-2.721837
0.379300,-2.605636
0.379400,-2.553703
0.379500,-2.527087
0.379600,-2.507937
0.379700,-2.350189
0.379800,-2.176862
0.379900,-2.074293
0.380000,-1.858770
0.380100,-1.908107
0.380200,-1.834426
0.380300,-1.727639
0.380400,-1.609166
0.380500,-1.495887
0.380600,-1.390398
0.380700,-1.361185
0.380800,-1.340736
0.380900,-1.315419
0.381000,-1.270627
0.381100,-1.268355
0.381200,-1.263486
0.381300,-1.188183
0.381400,-1.185262
0.381500,-1.147285
0.381600,-1.106063
0.381700,-1.200517
0.381800,-1.104765
0.381900,-1.214474
0.382000,-0.961624
0.382100,-0.861004
0.382200,-0.596794
0.382300,-0.696441
0.382400,-1.051858
0.382500,-1.137548
0.382600,-1.104765
0.382700,-0.787973
0.382800,-0.697739
0.382900,-0.661061
0.383000,-0.838608
0.383100,-1.045691
0.383200,-1.000250
0.383300,-0.935333
0.383400,-0.746751
0.383500,-0.779209
0.383600,-0.796737
0.383700,-0.852565
0.383800,-0.891190
0.383900,-0.875610
0.384000,-0.853539
0.384100,-0.851591
0.384200,-0.862951
0.384300,-0.880154
0.384400,-0.926894
0.384500,-0.924947
0.384600,-0.988889
0.384700,-1.011610
0.384800,-1.074904
0.384900,-0.994083
0.385000,-0.896059
0.385100,-0.933386
0.385200,-0.947018
0.385300,-1.270302
0.385400,-1.201815
0.385500,-1.144689
0.385600,-0.912937
0.385700,-0.827247
0.385800,-0.982722
0.385900,-1.217071
0.386000,-1.317042
0.386100,-1.240441
0.386200,-1.045691
0.386300,-0.942474
0.386400,-1.074579
0.386500,-1.229405
0.386600,-1.293997
0.386700,-1.231352
0.386800,-1.227782
0.386900,-1.201815
0.387000,-1.302760
0.387100,-1.348526
0.387200,-1.341061
0.387300,-1.314770
0.387400,-1.297242
0.387500,-1.359562
0.387600,-1.408899
0.387700,-1.415715
0.387800,-1.404679
0.387900,-1.379362
0.388000,-1.421557
0.388100,-1.561452
0.388200,-1.598130
0.388300,-1.593262
0.388400,-1.586445
0.388500,-1.508870
0.388600,-1.573787
0.388700,-1.560803
0.388800,-1.564049
0.388900,-1.568593
0.389000,-1.573787
0.389100,-1.584173
0.389200,-1.579629
0.389300,-1.594235
0.389400,-1.578655
0.389500,-1.588717
0.389600,-1.559180
0.389700,-1.578655
0.389800,-1.517958
0.389900,-1.510493
0.390000,-1.480956
0.390100,-1.542951
0.390200,-1.539056
0.390300,-1.553013
0.390400,-1.719524
0.390500,-1.957119
0.390600,-1.978217
0.390700,-1.701348
0.390800,-1.614359
0.390900,-1.533214
0.391000,-1.850656
0.391100,-2.116489
0.391200,-2.219382
0.391300,-2.141157
0.391400,-1.961663
0.391500,-1.912651
0.391600,-2.021062
0.391700,-2.203153
0.391800,-2.307669
0.391900,-2.299879
0.392000,-2.233014
0.392100,-2.262227
0.392200,-2.287869
0.392300,-2.353110
0.392400,-2.387841
0.392500,-2.415755
0.392600,-2.424843
0.392700,-2.473855
0.392800,-2.502094
0.392900,-2.496901
0.393000,-2.526113
0.393100,-2.512156
0.393200,-2.524815
0.393300,-2.596223
0.393400,-2.598820
0.393500,-2.544939
0.393600,-2.407965
0.393700,-2.361225
0.393800,-2.502419
0.393900,-2.694248
0.394000,-2.835766
0.394100,-2.731899
0.394200,-2.496901
0.394300,-2.396929
0.394400,-2.483593
0.394500,-2.694897
0.394600,-2.884778
0.394700,-2.890621
0.394800,-2.759489
0.394900,-2.626085
0.395000,-2.617321
0.395100,-2.703660
0.395200,-2.771174
0.395300,-2.778315
0.395400,-2.741637
0.395500,-2.698143
0.395600,-2.652052
0.395700,-2.613102
0.395800,-2.556624
0.395900,-2.448862
0.396000,-2.406666
0.396100,-2.399526
0.396200,-2.384595
0.396300,-2.381674
0.396400,-2.243726
0.396500,-2.174914
0.396600,-2.022035
0.396700,-1.983085
0.396800,-2.009701
0.396900,-1.990875
0.397000,-1.899668
0.397100,-1.822092
0.397200,-1.690312
0.397300,-1.651686
0.397400,-1.612087
0.397500,-1.597806
0.397600,-1.575734
0.397700,-1.527371
0.397800,-1.535810
0.397900,-1.488746
0.398000,-1.462455
0.398100,-1.467648
0.398200,-1.411495
0.398300,-1.504001
0.398400,-1.422856
0.398500,-1.508870
0.398600,-1.321911
0.398700,-1.302760
0.398800,-0.972336
0.398900,-0.975581
0.399000,-1.139820
0.399100,-1.558856
0.399200,-1.460183
0.399300,-1.255371
0.399400,-1.099247
0.399500,-1.069061
0.399600,-1.103467
0.399700,-1.380335
0.399800,-1.414092
0.399900,-1.364431
0.400000,-1.157997
0.400100,-1.118722
0.400200,-1.108660
0.400300,-1.138846
0.400400,-1.151830
0.400500,-1.148908
0.400600,-1.130407
0.400700,-1.101195
0.400800,-1.083992
0.400900,-1.088211
0.401000,-1.087887
0.401100,-1.156374
0.401200,-1.139495
0.401300,-1.239467
0.401400,-1.234273
0.401500,-1.300164
0.401600,-1.221939
0.401700,-1.246932
0.401800,-1.221290
0.401900,-1.431295
0.402000,-1.572488
0.402100,-1.574760
0.402200,-1.481605
0.402300,-1.268355
0.402400,-1.343333
0.402500,-1.472192
0.402600,-1.742245
0.402700,-1.755228
0.402800,-1.674083
0.402900,-1.505624
0.403000,-1.513739
0.403100,-1.662722
0.403200,-1.766913
0.403300,-1.825014
0.403400,-1.846111
0.403500,-1.819820
0.403600,-1.831505
0.403700,-1.880842
0.403800,-1.935696
0.403900,-1.938618
0.404000,-1.912976
0.404100,-1.968479
0.404200,-1.987954
0.404300,-2.004183
0.404400,-1.974322
0.404500,-1.960040
0.404600,-1.935372
0.404700,-2.024632
0.404800,-2.118437
0.404900,-2.093119
0.405000,-2.038589
0.405100,-2.033071
0.405200,-1.974322
0.405300,-1.987954
0.405400,-1.928231
0.405500,-1.929529
0.405600,-1.921739
0.405700,-1.888632
0.405800,-1.918818
0.405900,-1.908431
0.406000,-1.911353
0.406100,-1.923687
0.406200,-1.913300
0.406300,-1.936995
0.406400,-1.913949
0.406500,-1.959715
0.406600,-1.957119
0.406700,-1.993148
0.406800,-2.009377
0.406900,-2.071697
0.407000,-2.117787
0.407100,-2.387191
0.407200,-2.556299
0.407300,-2.500796
0.407400,-2.307669
0.407500,-2.179134
0.407600,-2.327793
0.407700,-2.607908
0.407800,-2.834468
0.407900,-2.809799
0.408000,-2.660166
0.408100,-2.566037
0.408200,-2.609207
0.408300,-2.776043
0.408400,-2.943853
0.408500,-3.000979
0.408600,-2.975013
0.408700,-2.955862
0.408800,-2.988645
0.408900,-2.998058
0.409000,-3.051290
0.409100,-3.069791
0.409200,-3.049018
0.409300,-3.060703
0.409400,-3.139901
0.409500,-3.174632
0.409600,-3.135682
0.409700,-3.094784
0.409800,-3.116531
0.409900,-3.077581
0.410000,-3.111338
0.410100,-3.093161
0.410200,-2.981180
0.410300,-2.842582
0.410400,-2.876015
0.410500,-3.061027
0.410600,-3.237277
0.410700,-3.295702
0.410800,-3.102574
0.410900,-2.882506
0.411000,-2.829274
0.411100,-2.968196
0.411200,-3.139901
0.411300,-3.207090
0.411400,-3.115233
0.411500,-2.928273
0.411600,-2.860110
0.411700,-2.837064
0.411800,-2.887050
0.411900,-2.896139
0.412000,-2.862707
0.412100,-2.814019
0.412200,-2.785456
0.412300,-2.757217
0.412400,-2.687107
0.412500,-2.541369
0.412600,-2.468986
0.412700,-2.437826
0.412800,-2.442046
0.412900,-2.452108
0.413000,-2.381024
0.413100,-2.236585
0.413200,-2.183353
0.413300,-1.979840
0.413400,-2.038265
0.413500,-2.027229
0.413600,-2.006780
0.413700,-1.932126
0.413800,-1.883763
0.413900,-1.736403
0.414000,-1.700049
0.414100,-1.682522
0.414200,-1.695505
0.414300,-1.704918
0.414400,-1.664021
0.414500,-1.701023
0.414600,-1.605596
0.414700,-1.601052
0.414800,-1.552364
0.414900,-1.590989
0.415000,-1.531266
0.415100,-1.640651
0.415200,-1.632211
0.415300,-1.529968
0.415400,-1.342035
0.415500,-1.086589
0.415600,-1.145987
0.415700,-1.368975
0.415800,-1.687391
0.415900,-1.546522
0.416000,-1.279066
0.416100,-1.097949
0.416200,-1.024269
0.416300,-1.215772
0.416400,-1.296918
0.416500,-1.349500
0.416600,-1.188507
0.416700,-1.026216
0.416800,-0.951887
0.416900,-1.003820
0.417000,-1.023295
0.417100,-0.949290
0.417200,-0.940202
0.417300,-0.894111
0.417400,-0.885023
0.417500,-0.873014
0.417600,-0.914885
0.417700,-0.885023
0.417800,-0.919429
0.417900,-0.999601
0.418000,-1.073605
0.418100,-1.065815
0.418200,-1.104765
0.418300,-0.972336
0.418400,-1.043419
0.418500,-0.949290
0.418600,-1.268030
0.418700,-1.355992
0.418800,-1.288479
0.418900,-1.055753
0.419000,-0.948966
0.419100,-0.992460
0.419200,-1.265109
0.419300,-1.438111
0.419400,-1.450445
0.419500,-1.283935
0.419600,-1.182989
0.419700,-1.223887
0.419800,-1.412145
0.419900,-1.487448
0.420000,-1.454989
0.420100,-1.491992
0.420200,-1.466674
0.420300,-1.550417
0.420400,-1.597157
0.420500,-1.641949
0.420600,-1.620851
0.420700,-1.613710
0.420800,-1.665319
0.420900,-1.701672
0.421000,-1.700049
0.421100,-1.682522
0.421200,-1.663371
0.421300,-1.645844
0.421400,-1.752632
0.421500,-1.804889
0.421600,-1.790283
0.421700,-1.765290
0.421800,-1.661424
0.421900,-1.714006
0.422000,-1.701997
0.422100,-1.671811
0.422200,-1.683171
0.422300,-1.677653
0.422400,-1.646493
0.422500,-1.618254
0.422600,-1.653959
0.422700,-1.644870
0.422800,-1.670188
0.422900,-1.664021
0.423000,-1.649414
0.423100,-1.654283
0.423200,-1.616956
0.423300,-1.659152
0.423400,-1.656555
0.423500,-1.663696
0.423600,-1.776002
0.423700,-1.928880
0.423800,-2.210618
0.423900,-2.298905
0.424000,-2.152518
0.424100,-1.942837
0.424200,-1.937968
0.424300,-2.214838
0.424400,-2.585187
0.424500,-2.741312
0.424600,-2.703336
0.424700,-2.548185
0.424800,-2.504691
0.424900,-2.598171
0.425000,-2.769551
0.425100,-2.909122
0.425200,-2.975662
0.425300,-2.911070
0.425400,-2.870497
0.425500,-2.882831
0.425600,-2.935089
0.425700,-2.938335
0.425800,-2.936712
0.425900,-2.931518
0.426000,-2.935738
0.426100,-2.966249
0.426200,-3.032139
0.426300,-3.006497
0.426400,-2.948721
0.426500,-2.925351
0.426600,-2.963652
0.426700,-2.955538
0.426800,-2.958459
0.426900,-2.754620
0.427000,-2.715670
0.427100,-2.795193
0.427200,-2.960406
0.427300,-3.146718
0.427400,-3.088293
0.427500,-2.874392
0.427600,-2.737417
0.427700,-2.760787
0.427800,-2.914315
0.427900,-3.090240
0.428000,-3.098355
0.428100,-3.012015
0.428200,-2.861084
0.428300,-2.822783
0.428400,-2.833494
0.428500,-2.847451
0.428600,-2.850048
0.428700,-2.798114
0.428800,-2.777990
0.428900,-2.715021
0.429000,-2.666982
0.429100,-2.563440
0.429200,-2.444967
0.429300,-2.373559
0.429400,-2.345320
0.429500,-2.361874
0.429600,-2.371287
0.429700,-2.272938
0.429800,-2.171019
0.429900,-2.142456
0.430000,-1.924336
0.430100,-2.005806
0.430200,-2.002885
0.430300,-1.971076
0.430400,-1.874675
0.430500,-1.813329
0.430600,-1.724393
0.430700,-1.761395
0.430800,-1.738350
0.430900,-1.770159
0.431000,-1.726340
0.431100,-1.781195
0.431200,-1.764317
0.431300,-1.766264
0.431400,-1.740947
0.431500,-1.711734
0.431600,-1.772431
0.431700,-1.739973
0.431800,-1.879219
0.431900,-1.758799
0.432000,-1.737701
0.432100,-1.354693
0.432200,-1.284584
0.432300,-1.387476
0.432400,-1.715305
0.432500,-1.879868
0.432600,-1.657204
0.432700,-1.480631
0.432800,-1.280689
0.432900,-1.277443
0.433000,-1.463429
0.433100,-1.539705
0.433200,-1.555935
0.433300,-1.357939
0.433400,-1.300488
0.433500,-1.175524
0.433600,-1.325481
0.433700,-1.302111
0.433800,-1.378713
0.433900,-1.347877
0.434000,-1.282636
0.434100,-1.297892
0.434200,-1.292049
0.434300,-1.301787
0.434400,-1.282961
0.434500,-1.345930
0.434600,-1.394293
0.434700,-1.416040
0.434800,-1.438436
0.434900,-1.416364
0.435000,-1.300164
0.435100,-1.306980
0.435200,-1.410846
0.435300,-1.696803
0.435400,-1.685443
0.435500,-1.599104
0.435600,-1.407276
0.435700,-1.317367
0.435800,-1.535161
0.435900,-1.738675
0.436000,-1.821443
0.436100,-1.698426
0.436200,-1.521853
0.436300,-1.441357
0.436400,-1.526398
0.436500,-1.643896
0.436600,-1.636431
0.436700,-1.608842
0.436800,-1.578655
0.436900,-1.572488
0.437000,-1.605920
0.437100,-1.639352
0.437200,-1.667916
0.437300,-1.609815
0.437400,-1.604297
0.437500,-1.608192
0.437600,-1.617605
0.437700,-1.566321
0.437800,-1.514388
0.437900,-1.467648
0.438000,-1.522178
0.438100,-1.649090
0.438200,-1.647467
0.438300,-1.621825
0.438400,-1.454340
0.438500,-1.480307
0.438600,-1.517309
0.438700,-1.525748
0.438800,-1.555610
0.438900,-1.543600
0.439000,-1.528994
0.439100,-1.549118
0.439200,-1.527696
0.439300,-1.581577
0.439400,-1.561452
0.439500,-1.586445
0.439600,-1.561128
0.439700,-1.586770
0.439800,-1.621825
0.439900,-1.653959
0.440000,-1.653634
0.440100,-1.738999
0.440200,-1.762045
0.440300,-1.826312
0.440400,-1.999964
0.440500,-2.237234
0.440600,-2.231391
0.440700,-2.034694
0.440800,-1.871104
0.440900,-1.894474
0.441000,-2.183029
0.441100,-2.481970
0.441200,-2.548185
0.441300,-2.446590
0.441400,-2.299879
0.441500,-2.272938
0.441600,-2.424843
0.441700,-2.627059
0.441800,-2.754296
0.441900,-2.783508
0.442000,-2.775069
0.442100,-2.798764
0.442200,-2.852969
0.442300,-2.935738
0.442400,-2.975986
0.442500,-3.017533
0.442600,-3.023376
0.442700,-3.072713
0.442800,-3.147367
0.442900,-3.236952
0.443000,-3.205468
0.443100,-3.235005
0.443200,-3.284991
0.443300,-3.383989
0.443400,-3.421966
0.443500,-3.350232
0.443600,-3.151262
0.443700,-3.151262
0.443800,-3.284017
0.443900,-3.492400
0.444000,-3.621910
0.444100,-3.499217
0.444200,-3.295053
0.444300,-3.221048
0.444400,-3.326862
0.444500,-3.547904
0.444600,-3.689099
0.444700,-3.683581
0.444800,-3.565107
0.444900,-3.447283
0.445000,-3.395999
0.445100,-3.449555
0.445200,-3.471952
0.445300,-3.430729
0.445400,-3.368084
0.445500,-3.311607
0.445600,-3.272007
0.445700,-3.185668
0.445800,-3.078230
0.445900,-2.971442
0.446000,-2.892568
0.446100,-2.888349
0.446200,-2.876339
0.446300,-2.851022
0.446400,-2.693598
0.446500,-2.594600
0.446600,-2.401798
0.446700,-2.404394
0.446800,-2.409912
0.446900,-2.384595
0.447000,-2.290466
0.447100,-2.241454
0.447200,-2.071697
0.447300,-2.059687
0.447400,-2.031448
0.447500,-2.011000
0.447600,-1.999315
0.447700,-1.960040
0.447800,-1.992498
0.447900,-1.901615
0.448000,-1.949329
0.448100,-1.825987
0.448200,-1.879219
0.448300,-1.751658
0.448400,-1.882140
0.448500,-1.801644
0.448600,-1.665968
0.448700,-1.518932
0.448800,-1.209930
0.448900,-1.167409
0.449000,-1.298216
0.449100,-1.628641
0.449200,-1.527371
0.449300,-1.281013
0.449400,-1.028164
0.449500,-0.823028
0.449600,-0.979476
0.449700,-1.071982
0.449800,-1.218044
0.449900,-1.087238
0.450000,-0.969090
0.450100,-0.821730
0.450200,-0.789596
0.450300,-0.877558
0.450400,-0.879181
0.450500,-0.909042
0.450600,-0.853863
0.450700,-0.828870
0.450800,-0.807773
0.450900,-0.830493
0.451000,-0.822054
0.451100,-0.858407
0.451200,-0.910340
0.451300,-0.960326
0.451400,-0.968116
0.451500,-1.000574
0.451600,-0.983371
0.451700,-0.958379
0.451800,-0.979476
0.451900,-1.161242
0.452000,-1.331973
0.452100,-1.304708
0.452200,-1.215772
0.452300,-1.024593
0.452400,-1.074254
0.452500,-1.240765
0.452600,-1.461157
0.452700,-1.464078
0.452800,-1.331973
0.452900,-1.178121
0.453000,-1.195648
0.453100,-1.307304
0.453200,-1.342684
0.453300,-1.325156
0.453400,-1.325481
0.453500,-1.240765
0.453600,-1.258617
0.453700,-1.305682
0.453800,-1.386827
0.453900,-1.329376
0.454000,-1.291400
0.454100,-1.325481
0.454200,-1.401758
0.454300,-1.437787
0.454400,-1.426751
0.454500,-1.422207
0.454600,-1.431619
0.454700,-1.521853
0.454800,-1.635133
0.454900,-1.639028
0.455000,-1.628316
0.455100,-1.676030
0.455200,-1.624422
0.455300,-1.679276
0.455400,-1.671811
0.455500,-1.689987
0.455600,-1.720823
0.455700,-1.732832
0.455800,-1.748412
0.455900,-1.771133
0.456000,-1.794178
0.456100,-1.800345
0.456200,-1.829233
0.456300,-1.856174
0.456400,-1.873701
0.456500,-1.899018
0.456600,-1.859419
0.456700,-1.925634
0.456800,-1.919143
0.456900,-1.992174
0.457000,-2.039238
0.457100,-2.285921
0.457200,-2.414132
0.457300,-2.283974
0.457400,-2.108050
0.457500,-2.023009
0.457600,-2.139534
0.457700,-2.444967
0.457800,-2.592977
0.457900,-2.585837
0.458000,-2.432633
0.458100,-2.365120
0.458200,-2.409588
0.458300,-2.545264
0.458400,-2.698467
0.458500,-2.716644
0.458600,-2.709828
0.458700,-2.681589
0.458800,-2.767603
0.458900,-2.818563
0.459000,-2.846802
0.459100,-2.870821
0.459200,-2.878287
0.459300,-2.940931
0.459400,-2.981829
0.459500,-3.100627
0.459600,-3.108741
0.459700,-3.132436
0.459800,-3.169114
0.459900,-3.232083
0.460000,-3.282394
0.460100,-3.323292
0.460200,-3.229487
0.460300,-3.130164
0.460400,-3.224943
0.460500,-3.422615
0.460600,-3.613146
0.460700,-3.673519
0.460800,-3.530377
0.460900,-3.383015
0.461000,-3.381068
0.461100,-3.554396
0.461200,-3.726751
0.461300,-3.781930
0.461400,-3.698187
0.461500,-3.573871
0.461600,-3.485260
0.461700,-3.498243
0.461800,-3.511876
0.461900,-3.501164
0.462000,-3.476820
0.462100,-3.432028
0.462200,-3.392753
0.462300,-3.387884
0.462400,-3.330108
0.462500,-3.191186
0.462600,-3.114259
0.462700,-3.099328
0.462800,-3.082775
0.462900,-3.087968
0.463000,-3.000979
0.463100,-2.847127
0.463200,-2.789351
0.463300,-2.567984
0.463400,-2.657245
0.463500,-2.611154
0.463600,-2.548834
0.463700,-2.476776
0.463800,-2.445616
0.463900,-2.345645
0.464000,-2.312862
0.464100,-2.278131
0.464200,-2.265797
0.464300,-2.251516
0.464400,-2.196661
0.464500,-2.220356
0.464600,-2.095067
0.464700,-2.140508
0.464800,-2.059687
0.464900,-2.096365
0.465000,-2.101883
0.465100,-2.145702
0.465200,-2.131095
0.465300,-2.048327
0.465400,-1.786064
0.465500,-1.588393
0.465600,-1.623123
0.465700,-1.989577
0.465800,-2.148298
0.465900,-2.055792
0.466000,-1.790932
0.466100,-1.646169
0.466200,-1.506598
0.466300,-1.712059
0.466400,-1.839295
0.466500,-1.821119
0.466600,-1.705243
0.466700,-1.525424
0.466800,-1.489395
0.466900,-1.454665
0.467000,-1.570865
0.467100,-1.575085
0.467200,-1.514388
0.467300,-1.518283
0.467400,-1.550417
0.467500,-1.559505
0.467600,-1.563725
0.467700,-1.562751
0.467800,-1.688689
0.467900,-1.719200
0.468000,-1.738350
0.468100,-1.787687
0.468200,-1.747438
0.468300,-1.690636
0.468400,-1.677328
0.468500,-1.767238
0.468600,-1.945434
0.468700,-2.069100
0.468800,-1.967181
0.468900,-1.800021
0.469000,-1.627667
0.469100,-1.738999
0.469200,-1.970102
0.469300,-2.148623
0.469400,-2.032422
0.469500,-1.864288
0.469600,-1.766913
0.469700,-1.859095
0.469800,-2.024957
0.469900,-2.101883
0.470000,-2.046055
0.470100,-2.051572
0.470200,-2.014245
0.470300,-2.086952
0.470400,-2.122656
0.470500,-2.192442
0.470600,-2.179783
0.470700,-2.144728
0.470800,-2.162580
0.470900,-2.178160
0.471000,-2.170370
0.471100,-2.129148
0.471200,-2.117138
0.471300,-2.134341
0.471400,-2.261902
0.471500,-2.295010
0.471600,-2.279105
0.471700,-2.129797
0.471800,-2.133692
0.471900,-2.190494
0.472000,-2.172967
0.472100,-2.171019
0.472200,-2.132394
0.472300,-2.146675
0.472400,-2.154465
0.472500,-2.143754
0.472600,-2.129797
0.472700,-2.159983
0.472800,-2.152842
0.472900,-2.157387
0.473000,-2.155114
0.473100,-2.154790
0.473200,-2.167773
0.473300,-2.147649
0.473400,-2.208671
0.473500,-2.238857
0.473600,-2.268719
0.473700,-2.435230
0.473800,-2.659842
0.473900,-2.764358
0.474000,-2.533903
0.474100,-2.391411
0.474200,-2.353759
0.474300,-2.578047
0.474400,-2.853943
0.474500,-2.954564
0.474600,-2.877637
0.474700,-2.659842
0.474800,-2.627708
0.474900,-2.691326
0.475000,-2.889972
0.475100,-2.936063
0.475200,-2.976311
0.475300,-2.904902
0.475400,-2.848100
0.475500,-2.887050
0.475600,-2.951318
0.475700,-2.977285
0.475800,-2.986698
0.475900,-2.949046
0.476000,-2.989619
0.476100,-3.048693
0.476200,-3.074660
0.476300,-3.109066
0.476400,-3.100302
0.476500,-3.097706
0.476600,-3.147691
0.476700,-3.175930
0.476800,-3.153859
0.476900,-2.978583
0.477000,-2.936387
0.477100,-3.030841
0.477200,-3.237601
0.477300,-3.398595
0.477400,-3.322643
0.477500,-3.082775
0.477600,-2.948397
0.477700,-3.026297
0.477800,-3.222995
0.477900,-3.375874
0.478000,-3.402166
0.478100,-3.269411
0.478200,-3.133085
0.478300,-3.114908
0.478400,-3.186966
0.478500,-3.240523
0.478600,-3.223320
0.478700,-3.165868
0.478800,-3.131462
0.478900,-3.062975
0.479000,-3.014612
0.479100,-2.899709
0.479200,-2.758840
0.479300,-2.675422
0.479400,-2.637121
0.479500,-2.596872
0.479600,-2.576424
0.479700,-2.404394
0.479800,-2.280404
0.479900,-2.201854
0.480000,-2.012947
0.480100,-2.031124
0.480200,-2.013272
0.480300,-1.943486
0.480400,-1.819171
0.480500,-1.737701
0.480600,-1.673109
0.480700,-1.640326
0.480800,-1.654932
0.480900,-1.686092
0.481000,-1.639352
0.481100,-1.663047
0.481200,-1.608192
0.481300,-1.636756
0.481400,-1.610464
0.481500,-1.568593
0.481600,-1.599429
0.481700,-1.627018
0.481800,-1.677004
0.481900,-1.645519
0.482000,-1.509195
0.482100,-1.233300
0.482200,-1.132030
0.482300,-1.243686
0.482400,-1.606245
0.482500,-1.687715
0.482600,-1.524775
0.482700,-1.302111
0.482800,-1.151180
0.482900,-1.234923
0.483000,-1.349500
0.483100,-1.569242
0.483200,-1.425128
0.483300,-1.329376
0.483400,-1.181042
0.483500,-1.187858
0.483600,-1.206359
0.483700,-1.263486
0.483800,-1.236546
0.483900,-1.248230
0.484000,-1.229080
0.484100,-1.187209
0.484200,-1.213176
0.484300,-1.271276
0.484400,-1.273223
0.484500,-1.340736
0.484600,-1.472841
0.484700,-1.458884
0.484800,-1.512116
0.484900,-1.482904
0.485000,-1.434865
0.485100,-1.445901
0.485200,-1.605920
0.485300,-1.825987
0.485400,-1.827610
0.485500,-1.776002
0.485600,-1.578655
0.485700,-1.573787
0.485800,-1.751982
0.485900,-2.032097
0.486000,-2.152842
0.486100,-2.084031
0.486200,-1.920116
0.486300,-1.891878
0.486400,-2.029825
0.486500,-2.201530
0.486600,-2.277807
0.486700,-2.300203
0.486800,-2.310265
0.486900,-2.310914
0.487000,-2.394657
0.487100,-2.452433
0.487200,-2.516700
0.487300,-2.517025
0.487400,-2.502094
0.487500,-2.547536
0.487600,-2.544290
0.487700,-2.535526
0.487800,-2.532280
0.487900,-2.478075
0.488000,-2.556949
0.488100,-2.648806
0.488200,-2.656596
0.488300,-2.559221
0.488400,-2.406666
0.488500,-2.465091
0.488600,-2.486514
0.488700,-2.454380
0.488800,-2.463144
0.488900,-2.432633
0.489000,-2.403096
0.489100,-2.380375
0.489200,-2.371287
0.489300,-2.352461
0.489400,-2.323898
0.489500,-2.329416
0.489600,-2.300852
0.489700,-2.273587
0.489800,-2.307344
0.489900,-2.255086
0.490000,-2.313186
0.490100,-2.287869
0.490200,-2.363821
0.490300,-2.403096
0.490400,-2.625436
0.490500,-2.848749
0.490600,-2.764033
0.490700,-2.546237
0.490800,-2.350514
0.490900,-2.469636
0.491000,-2.683212
0.491100,-3.009419
0.491200,-3.058431
0.491300,-2.959108
0.491400,-2.841284
0.491500,-2.848100
0.491600,-3.014612
0.491700,-3.180150
0.491800,-3.314528
0.491900,-3.301220
0.492000,-3.304790
0.492100,-3.301545
0.492200,-3.351531
0.492300,-3.407035
0.492400,-3.429106
0.492500,-3.482338
0.492600,-3.481689
0.492700,-3.538491
0.492800,-3.625805
0.492900,-3.621910
0.493000,-3.642359
0.493100,-3.648526
0.493200,-3.738111
0.493300,-3.780632
0.493400,-3.862103
0.493500,-3.808871
0.493600,-3.629051
0.493700,-3.687476
0.493800,-3.824451
0.493900,-3.993236
0.494000,-4.099051
0.494100,-3.934486
0.494200,-3.727075
0.494300,-3.644955
0.494400,-3.706951
0.494500,-3.860805
0.494600,-3.944223
0.494700,-3.872814
0.494800,-3.703056
0.494900,-3.549527
0.495000,-3.488830
0.495100,-3.467083
0.495200,-3.445011
0.495300,-3.397297
0.495400,-3.315177
0.495500,-3.242795
0.495600,-3.149639
0.495700,-3.036359
0.495800,-2.886401
0.495900,-2.768902
0.496000,-2.742611
0.496100,-2.709503
0.496200,-2.696520
0.496300,-2.700090
0.496400,-2.551106
0.496500,-2.507937
0.496600,-2.348241
0.496700,-2.367716
0.496800,-2.384595
0.496900,-2.349864
0.497000,-2.295334
0.497100,-2.196337
0.497200,-2.088250
0.497300,-2.044756
0.497400,-2.001587
0.497500,-1.976594
0.497600,-1.946083
0.497700,-1.910703
0.497800,-1.931477
0.497900,-1.873376
0.498000,-1.816250
0.498100,-1.824689
0.498200,-1.790608
0.498300,-1.827286
0.498400,-1.874350
0.498500,-1.890579
0.498600,-1.835400
0.498700,-1.658178
0.498800,-1.523152
0.498900,-1.406951
0.499000,-1.841243
0.499100,-1.940241
0.499200,-2.048327
0.499300,-1.719849
0.499400,-1.566646
0.499500,-1.442655
0.499600,-1.574111
0.499700,-1.711410
0.499800,-1.783142
0.499900,-1.698426
0.500000,-1.552040
0.500100,-1.436488
0.500200,-1.433892
0.500300,-1.445577
0.500400,-1.420908
0.500500,-1.359887
0.500600,-1.339763
0.500700,-1.290751
0.500800,-1.271600
0.500900,-1.238168
0.501000,-1.258293
0.501100,-1.146312
0.501200,-1.229080
0.501300,-1.280040
0.501400,-1.316068
0.501500,-1.259591
0.501600,-1.201491
0.501700,-1.146636
0.501800,-1.204736
0.501900,-1.371896
0.502000,-1.565347
0.502100,-1.466674
0.502200,-1.333596
0.502300,-1.061271
0.502400,-1.169032
0.502500,-1.316717
0.502600,-1.569567
0.502700,-1.515037
0.502800,-1.420584
0.502900,-1.230703
0.503000,-1.241739
0.503100,-1.379362
0.503200,-1.452393
0.503300,-1.421882
0.503400,-1.432269
0.503500,-1.356966
0.503600,-1.385204
0.503700,-1.386178
0.503800,-1.440708
0.503900,-1.399161
0.504000,-1.357290
0.504100,-1.375467
0.504200,-1.417662
0.504300,-1.429023
0.504400,-1.373844
0.504500,-1.374818
0.504600,-1.359238
0.504700,-1.463104
0.504800,-1.581901
0.504900,-1.604297
0.505000,-1.634159
0.505100,-1.540030
0.505200,-1.613061
0.505300,-1.664994
0.505400,-1.638379
0.505500,-1.705243
0.505600,-1.699725
0.505700,-1.719849
0.505800,-1.751982
0.505900,-1.773730
0.506000,-1.819496
0.506100,-1.825014
0.506200,-1.841892
0.506300,-1.908431
0.506400,-1.927257
0.506500,-1.984384
0.506600,-1.975295
0.506700,-2.038914
0.506800,-2.100584
0.506900,-2.177511
0.507000,-2.350838
0.507100,-2.571555
0.507200,-2.778315
0.507300,-2.625111
0.507400,-2.475478
0.507500,-2.379077
0.507600,-2.579669
0.507700,-2.906201
0.507800,-3.087643
0.507900,-3.067844
0.508000,-2.911070
0.508100,-2.837389
0.508200,-2.866926
0.508300,-3.089915
0.508400,-3.213907
0.508500,-3.244418
0.508600,-3.204169
0.508700,-3.159052
0.508800,-3.197353
0.508900,-3.255129
0.509000,-3.282394
0.509100,-3.297325
0.509200,-3.316151
0.509300,-3.356075
0.509400,-3.392753
0.509500,-3.483312
0.509600,-3.414825
0.509700,-3.411254
0.509800,-3.423588
0.509900,-3.467732
0.510000,-3.525508
0.510100,-3.511551
0.510200,-3.373927
0.510300,-3.243769
0.510400,-3.328485
0.510500,-3.491427
0.510600,-3.660211
0.510700,-3.658263
0.510800,-3.444686
0.510900,-3.247664
0.511000,-3.205468
0.511100,-3.321993
0.511200,-3.483961
0.511300,-3.569002
0.511400,-3.494673
0.511500,-3.344714
0.511600,-3.257076
0.511700,-3.259998
0.511800,-3.310633
0.511900,-3.311931
0.512000,-3.300895
0.512100,-3.259024
0.512200,-3.196704
0.512300,-3.156780
0.512400,-3.107768
0.512500,-2.978908
0.512600,-2.866602
0.512700,-2.822783
0.512800,-2.784482
0.512900,-2.770849
0.513000,-2.674448
0.513100,-2.476452
0.513200,-2.338829
0.513300,-2.176537
0.513400,-2.226847
0.513500,-2.199907
0.513600,-2.131744
0.513700,-2.029176
0.513800,-1.940565
0.513900,-1.862990
0.514000,-1.825338
0.514100,-1.837672
0.514200,-1.818847
0.514300,-1.838646
0.514400,-1.836699
0.514500,-1.842541
0.514600,-1.817548
0.514700,-1.763992
0.514800,-1.817224
0.514900,-1.731209
0.515000,-1.824040
0.515100,-1.701997
0.515200,-1.778274
0.515300,-1.499782
0.515400,-1.429997
0.515500,-1.064517
0.515600,-1.172927
0.515700,-1.488421
0.515800,-1.555935
0.515900,-1.516336
0.516000,-1.300813
0.516100,-1.147935
0.516200,-1.141118
0.516300,-1.302111
0.516400,-1.485500
0.516500,-1.458560
0.516600,-1.378388
0.516700,-1.266732
0.516800,-1.248880
0.516900,-1.179094
0.517000,-1.293023
0.517100,-1.270951
0.517200,-1.290426
0.517300,-1.294321
0.517400,-1.287830
0.517500,-1.276794
0.517600,-1.302436
0.517700,-1.246932
0.517800,-1.330999
0.517900,-1.399161
0.518000,-1.452717
0.518100,-1.465051
0.518200,-1.461806
0.518300,-1.349825
0.518400,-1.351448
0.518500,-1.409548
0.518600,-1.698426
0.518700,-1.711410
0.518800,-1.672460
0.518900,-1.492316
0.519000,-1.417338
0.519100,-1.517958
0.519200,-1.782493
0.519300,-1.930178
0.519400,-1.854875
0.519500,-1.702970
0.519600,-1.595534
0.519700,-1.655257
0.519800,-1.798073
0.519900,-1.821443
0.520000,-1.803591
0.520100,-1.811706
0.520200,-1.788011
0.520300,-1.892202
0.520400,-1.932126
0.520500,-1.984384
0.520600,-1.943486
0.520700,-1.940565
0.520800,-2.011649
0.520900,-2.057740
0.521000,-2.042160
0.521100,-1.999639
0.521200,-1.940890
0.521300,-1.974322
0.521400,-2.071697
0.521500,-2.112594
0.521600,-2.061635
0.521700,-1.984059
0.521800,-1.918493
0.521900,-1.935372
0.522000,-1.929529
0.522100,-1.907458
0.522200,-1.892202
0.522300,-1.891553
0.522400,-1.867859
0.522500,-1.878570
0.522600,-1.850331
0.522700,-1.848708
0.522800,-1.855849
0.522900,-1.892527
0.523000,-1.926933
0.523100,-1.943162
0.523200,-1.963935
0.523300,-1.989253
0.523400,-2.042160
0.523500,-2.089549
0.523600,-2.186599
0.523700,-2.291439
0.523800,-2.681264
0.523900,-2.715345
0.524000,-2.590056
0.524100,-2.419650
0.524200,-2.412184
0.524300,-2.666333
0.524400,-2.932168
0.524500,-3.091538
0.524600,-3.016559
0.524700,-2.884778
0.524800,-2.866277
0.524900,-2.983452
0.525000,-3.187291
0.525100,-3.286289
0.525200,-3.289535
0.525300,-3.222671
0.525400,-3.268762
0.525500,-3.306413
0.525600,-3.342118
0.525700,-3.334652
0.525800,-3.322643
0.525900,-3.295377
0.526000,-3.318748
0.526100,-3.395350
0.526200,-3.383664
0.526300,-3.343091
0.526400,-3.312256
0.526500,-3.290184
0.526600,-3.321344
0.526700,-3.315177
0.526800,-3.281745
0.526900,-3.059729
0.527000,-3.039280
0.527100,-3.136331
0.527200,-3.289860
0.527300,-3.430080
0.527400,-3.336924
0.527500,-3.122698
0.527600,-2.973065
0.527700,-3.018182
0.527800,-3.190212
0.527900,-3.322643
0.528000,-3.325564
0.528100,-3.183720
0.528200,-3.070765
0.528300,-3.043825
0.528400,-3.114584
0.528500,-3.116856
0.528600,-3.093810
0.528700,-3.033113
0.528800,-3.022402
0.528900,-3.029218
0.529000,-2.987671
0.529100,-2.864005
0.529200,-2.758840
0.529300,-2.721513
0.529400,-2.715345
0.529500,-2.734821
0.529600,-2.727680
0.529700,-2.605961
0.529800,-2.505015
0.529900,-2.473531
0.530000,-2.350514
0.530100,-2.400499
0.530200,-2.369339
0.530300,-2.301826
0.530400,-2.231067
0.530500,-2.166150
0.530600,-2.113892
0.530700,-2.100909
0.530800,-2.105778
0.530900,-2.105453
0.531000,-2.062933
0.531100,-2.115191
0.531200,-2.016517
0.531300,-1.998665
0.531400,-1.984059
0.531500,-1.990875
0.531600,-1.919792
0.531700,-2.017167
0.531800,-2.001587
0.531900,-1.956470
0.532000,-1.793854
0.532100,-1.597157
0.532200,-1.476736
0.532300,-1.574436
0.532400,-1.934398
0.532500,-1.869481
0.532600,-1.679276
0.532700,-1.458884
0.532800,-1.315419
0.532900,-1.392994
0.533000,-1.496211
0.533100,-1.643896
0.533200,-1.402407
0.533300,-1.221290
0.533400,-1.045367
0.533500,-0.990188
0.533600,-0.972011
0.533700,-1.014856
0.533800,-0.963247
0.533900,-0.923973
0.534000,-0.873014
0.534100,-0.824651
0.534200,-0.827897
0.534300,-0.875610
0.534400,-0.779858
0.534500,-0.871391
0.534600,-0.910340
0.534700,-1.004469
0.534800,-1.002522
0.534900,-1.036603
0.535000,-0.972985
0.535100,-1.009663
0.535200,-1.124240
0.535300,-1.393319
0.535400,-1.410846
0.535500,-1.342684
0.535600,-1.168383
0.535700,-1.188183
0.535800,-1.373519
0.535900,-1.654283
0.536000,-1.682522
0.536100,-1.583524
0.536200,-1.373195
0.536300,-1.344631
0.536400,-1.485500
0.536500,-1.615009
0.536600,-1.632536
0.536700,-1.630589
0.536800,-1.585147
0.536900,-1.616956
0.537000,-1.711410
0.537100,-1.789634
0.537200,-1.856823
0.537300,-1.784116
0.537400,-1.787687
0.537500,-1.836374
0.537600,-1.845787
0.537700,-1.838321
0.537800,-1.821119
0.537900,-1.800345
0.538000,-1.877921
0.538100,-2.018465
0.538200,-2.055143
0.538300,-2.051572
0.538400,-1.944785
0.538500,-2.020737
0.538600,-2.079487
0.538700,-2.077539
0.538800,-2.150895
0.538900,-2.164527
0.539000,-2.218408
0.539100,-2.218408
0.539200,-2.278781
0.539300,-2.322924
0.539400,-2.352136
0.539500,-2.403096
0.539600,-2.427440
0.539700,-2.459898
0.539800,-2.487163
0.539900,-2.533903
0.540000,-2.582915
0.540100,-2.584214
0.540200,-2.638744
0.540300,-2.686133
0.540400,-2.980531
0.540500,-3.161649
0.540600,-3.193458
0.540700,-2.929895
0.540800,-2.824406
0.540900,-2.957161
0.541000,-3.257401
0.541100,-3.468057
0.541200,-3.498243
0.541300,-3.387560
0.541400,-3.265840
0.541500,-3.318748
0.541600,-3.496945
0.541700,-3.683256
0.541800,-3.767324
0.541900,-3.740059
0.542000,-3.723830
0.542100,-3.736164
0.542200,-3.772517
0.542300,-3.840356
0.542400,-3.864700
0.542500,-3.885798
0.542600,-3.866647
0.542700,-3.888394
0.542800,-3.968892
0.542900,-4.038353
0.543000,-4.015632
0.543100,-3.991937
0.543200,-3.986419
0.543300,-4.009790
0.543400,-4.014658
0.543500,-3.965646
0.543600,-3.799783
0.543700,-3.796537
0.543800,-3.937731
0.543900,-4.118850
0.544000,-4.213954
0.544100,-4.050687
0.544200,-3.860805
0.544300,-3.799133
0.544400,-3.901053
0.544500,-4.117877
0.544600,-4.234728
0.544700,-4.180197
0.544800,-4.028291
0.544900,-3.932863
0.545000,-3.924099
0.545100,-3.981875
0.545200,-3.993885
0.545300,-3.942276
0.545400,-3.869569
0.545500,-3.809520
0.545600,-3.740059
0.545700,-3.687151
0.545800,-3.558291
0.545900,-3.457345
0.546000,-3.427808
0.546100,-3.405412
0.546200,-3.380743
0.546300,-3.326862
0.546400,-3.151911
0.546500,-3.118154
0.546600,-2.896463
0.546700,-2.919833
0.546800,-2.913017
0.546900,-2.874067
0.547000,-2.781561
0.547100,-2.728653
0.547200,-2.655947
0.547300,-2.579669
0.547400,-2.571555
0.547500,-2.606610
0.547600,-2.600767
0.547700,-2.579669
0.547800,-2.587459
0.547900,-2.502743
0.548000,-2.530982
0.548100,-2.442695
0.548200,-2.466390
0.548300,-2.369664
0.548400,-2.471259
0.548500,-2.328442
0.548600,-2.365444
0.548700,-2.041835
0.548800,-1.904536
0.548900,-1.777625
0.549000,-2.115515
0.549100,-2.270017
0.549200,-2.117138
0.549300,-1.949978
0.549400,-1.704593
0.549500,-1.696803
0.549600,-1.858446
0.549700,-1.992823
0.549800,-2.020737
0.549900,-1.882789
0.550000,-1.745815
0.550100,-1.622474
0.550200,-1.641624
0.550300,-1.652985
0.550400,-1.667591
0.550500,-1.653959
0.550600,-1.610140
0.550700,-1.539056
0.550800,-1.508870
0.550900,-1.468622
0.551000,-1.431295
0.551100,-1.467324
0.551200,-1.572488
0.551300,-1.473166
0.551400,-1.507572
0.551500,-1.460832
0.551600,-1.363133
0.551700,-1.352421
0.551800,-1.357290
0.551900,-1.575734
0.552000,-1.679925
0.552100,-1.653634
0.552200,-1.474464
0.552300,-1.332622
0.552400,-1.371247
0.552500,-1.687066
0.552600,-1.819820
0.552700,-1.816574
0.552800,-1.708164
0.552900,-1.566321
0.553000,-1.640651
0.553100,-1.752307
0.553200,-1.872078
0.553300,-1.813004
0.553400,-1.832154
0.553500,-1.772431
0.553600,-1.839944
0.553700,-1.870455
0.553800,-1.900317
0.553900,-1.914598
0.554000,-1.870455
0.554100,-1.890579
0.554200,-1.909405
0.554300,-1.876947
0.554400,-1.817548
0.554500,-1.781844
0.554600,-1.776651
0.554700,-1.918493
0.554800,-2.002560
0.554900,-1.996393
0.555000,-1.910054
0.555100,-1.951925
0.555200,-2.044432
0.555300,-2.097988
0.555400,-2.122656
0.555500,-2.173291
0.555600,-2.191468
0.555700,-2.254112
0.555800,-2.270991
0.555900,-2.295334
0.556000,-2.314809
0.556100,-2.325845
0.556200,-2.323573
0.556300,-2.326170
0.556400,-2.321950
0.556500,-2.342724
0.556600,-2.340451
0.556700,-2.380700
0.556800,-2.435879
0.556900,-2.408614
0.557000,-2.556624
0.557100,-2.788052
0.557200,-2.918535
0.557300,-2.725732
0.557400,-2.565712
0.557500,-2.497550
0.557600,-2.678343
0.557700,-2.946449
0.557800,-3.090889
0.557900,-3.025323
0.558000,-2.875690
0.558100,-2.786429
0.558200,-2.885103
0.558300,-3.034412
0.558400,-3.147691
0.558500,-3.193133
0.558600,-3.131462
0.558700,-3.137629
0.558800,-3.151911
0.558900,-3.211310
0.559000,-3.249936
0.559100,-3.219425
0.559200,-3.222346
0.559300,-3.226890
0.559400,-3.307712
0.559500,-3.338872
0.559600,-3.307712
0.559700,-3.269411
0.559800,-3.269086
0.559900,-3.330757
0.560000,-3.368409
0.560100,-3.319397
0.560200,-3.174307
0.560300,-3.028244
0.560400,-3.115233
0.560500,-3.291482
0.560600,-3.419693
0.560700,-3.395674
0.560800,-3.169114
0.560900,-3.006497
0.561000,-3.022402
0.561100,-3.178202
0.561200,-3.357373
0.561300,-3.399245
0.561400,-3.289860
0.561500,-3.193458
0.561600,-3.142823
0.561700,-3.193133
0.561800,-3.231434
0.561900,-3.218775
0.562000,-3.172360
0.562100,-3.138928
0.562200,-3.096083
0.562300,-2.989619
0.562400,-2.876664
0.562500,-2.752997
0.562600,-2.673474
0.562700,-2.657570
0.562800,-2.620892
0.562900,-2.603040
0.563000,-2.499497
0.563100,-2.341101
0.563200,-2.311888
0.563300,-2.099286
0.563400,-2.182055
0.563500,-2.140508
0.563600,-2.093444
0.563700,-2.028527
0.563800,-1.925634
0.563900,-1.866236
0.564000,-1.896422
0.564100,-1.877596
0.564200,-1.958417
0.564300,-1.941539
0.564400,-1.973997
0.564500,-2.009377
0.564600,-1.988603
0.564700,-2.026255
0.564800,-2.046704
0.564900,-2.087277
0.565000,-2.183678
0.565100,-2.226198
0.565200,-2.323249
0.565300,-2.156088
0.565400,-2.058713
0.565500,-1.822092
0.565600,-2.036317
0.565700,-2.470934
0.565800,-2.625436
0.565900,-2.509884
0.566000,-2.311888
0.566100,-2.189845
0.566200,-2.200556
0.566300,-2.365444
0.566400,-2.555326
0.566500,-2.532280
0.566600,-2.350514
0.566700,-2.240155
0.566800,-2.261902
0.566900,-2.300528
0.567000,-2.326170
0.567100,-2.388490
0.567200,-2.375831
0.567300,-2.305721
0.567400,-2.285597
0.567500,-2.293062
0.567600,-2.299229
0.567700,-2.233664
0.567800,-2.349215
0.567900,-2.288518
0.568000,-2.390113
0.568100,-2.313511
0.568200,-2.364146
0.568300,-2.257034
0.568400,-2.296633
0.568500,-2.240480
0.568600,-2.583564
0.568700,-2.513130
0.568800,-2.419001
0.568900,-2.165826
0.569000,-2.083057
0.569100,-2.197310
0.569200,-2.420948
0.569300,-2.524815
0.569400,-2.408939
0.569500,-2.245024
0.569600,-2.127849
0.569700,-2.219706
0.569800,-2.310265
0.569900,-2.357330
0.570000,-2.295334
0.570100,-2.288843
0.570200,-2.215162
0.570300,-2.244699
0.570400,-2.253788
0.570500,-2.261902
0.570600,-2.177835
0.570700,-2.139534
0.570800,-2.154465
0.570900,-2.156088
0.571000,-2.119410
0.571100,-2.058713
0.571200,-2.015219
0.571300,-2.010026
0.571400,-2.137262
0.571500,-2.168747
0.571600,-2.126551
0.571700,-1.986007
0.571800,-2.005806
0.571900,-2.034370
0.572000,-2.029825
0.572100,-2.028852
0.572200,-2.061959
0.572300,-2.057415
0.572400,-2.084680
0.572500,-2.131420
0.572600,-2.177186
0.572700,-2.198609
0.572800,-2.246647
0.572900,-2.285921
0.573000,-2.372261
0.573100,-2.401798
0.573200,-2.463793
0.573300,-2.517349
0.573400,-2.565063
0.573500,-2.624787
0.573600,-2.650753
0.573700,-2.916912
0.573800,-3.128216
0.573900,-3.189238
0.574000,-3.012989
0.574100,-2.865952
0.574200,-2.876339
0.574300,-3.129515
0.574400,-3.379769
0.574500,-3.454424
0.574600,-3.337249
0.574700,-3.174957
0.574800,-3.111013
0.574900,-3.234031
0.575000,-3.458968
0.575100,-3.529403
0.575200,-3.488830
0.575300,-3.420667
0.575400,-3.391455
0.575500,-3.420667
0.575600,-3.465460
0.575700,-3.477794
0.575800,-3.478443
0.575900,-3.452476
0.576000,-3.491427
0.576100,-3.539141
0.576200,-3.552124
0.576300,-3.511551
0.576400,-3.510902
0.576500,-3.516420
0.576600,-3.560888
0.576700,-3.586205
0.576800,-3.481040
0.576900,-3.304466
0.577000,-3.248313
0.577100,-3.348609
0.577200,-3.526157
0.577300,-3.631323
0.577400,-3.487532
0.577500,-3.261621
0.577600,-3.082450
0.577700,-3.102250
0.577800,-3.244742
0.577900,-3.374252
0.578000,-3.360619
0.578100,-3.172684
0.578200,-3.030517
0.578300,-2.975013
0.578400,-2.982154
0.578500,-3.015586
0.578600,-2.993189
0.578700,-2.971442
0.578800,-2.942879
0.578900,-2.919509
0.579000,-2.874067
0.579100,-2.770525
0.579200,-2.713398
0.579300,-2.698143
0.579400,-2.722486
0.579500,-2.763384
0.579600,-2.775718
0.579700,-2.661789
0.579800,-2.585512
0.579900,-2.532605
0.580000,-2.454056
0.580100,-2.465741
0.580200,-2.479373
0.580300,-2.408289
0.580400,-2.344996
0.580500,-2.278131
0.580600,-2.218408
0.580700,-2.240155
0.580800,-2.234637
0.580900,-2.233339
0.581000,-2.224251
0.581100,-2.289167
0.581200,-2.240155
0.581300,-2.247621
0.581400,-2.146026
0.581500,-2.216136
0.581600,-2.103506
0.581700,-2.149597
0.581800,-2.153492
0.581900,-2.032422
0.582000,-1.880517
0.582100,-1.636756
0.582200,-1.479982
0.582300,-1.653959
0.582400,-1.949329
0.582500,-1.907458
0.582600,-1.683496
0.582700,-1.490694
0.582800,-1.395591
0.582900,-1.472192
0.583000,-1.609491
0.583100,-1.770484
0.583200,-1.636106
0.583300,-1.509844
0.583400,-1.379037
0.583500,-1.382932
0.583600,-1.418312
0.583700,-1.388125
0.583800,-1.438111
0.583900,-1.392994
0.584000,-1.421557
0.584100,-1.420584
0.584200,-1.500106
0.584300,-1.487448
0.584400,-1.540355
0.584500,-1.583849
0.584600,-1.725367
0.584700,-1.741596
0.584800,-1.755553
0.584900,-1.733481
0.585000,-1.688689
0.585100,-1.774703
0.585200,-1.859419
0.585300,-2.182055
0.585400,-2.102207
0.585500,-2.046704
0.585600,-1.809434
0.585700,-1.885061
0.585800,-2.073644
0.585900,-2.311564
0.586000,-2.343373
0.586100,-2.259306
0.586200,-2.118112
0.586300,-2.141807
0.586400,-2.275859
0.586500,-2.448538
0.586600,-2.449511
0.586700,-2.487163
0.586800,-2.505989
0.586900,-2.581942
0.587000,-2.701388
0.587100,-2.780911
0.587200,-2.859785
0.587300,-2.842258
0.587400,-2.895814
0.587500,-2.994812
0.587600,-3.051290
0.587700,-3.053237
0.587800,-3.032464
0.587900,-3.033438
0.588000,-3.180150
0.588100,-3.302194
0.588200,-3.364189
0.588300,-3.377822
0.588400,-3.269411
0.588500,-3.370681
0.588600,-3.395999
0.588700,-3.432352
0.588800,-3.442739
0.588900,-3.447932
0.589000,-3.469679
0.589100,-3.471627
0.589200,-3.505384
0.589300,-3.522262
0.589400,-3.560239
0.589500,-3.578740
0.589600,-3.602110
0.589700,-3.631323
0.589800,-3.609576
0.589900,-3.593671
0.590000,-3.646578
0.590100,-3.624182
0.590200,-3.677089
0.590300,-3.653719
0.590400,-3.927669
0.590500,-4.051012
0.590600,-3.970515
0.590700,-3.690397
0.590800,-3.601461
0.590900,-3.624831
0.591000,-3.930266
0.591100,-4.080225
0.591200,-4.055881
0.591300,-3.871516
0.591400,-3.703705
0.591500,-3.711171
0.591600,-3.862752
0.591700,-3.987718
0.591800,-3.978629
0.591900,-3.908194
0.592000,-3.826074
0.592100,-3.783229
0.592200,-3.793615
0.592300,-3.775439
0.592400,-3.724803
0.592500,-3.683581
0.592600,-3.633270
0.592700,-3.603409
0.592800,-3.616392
0.592900,-3.489155
0.593000,-3.463512
0.593100,-3.373927
0.593200,-3.357698
0.593300,-3.375225
0.593400,-3.354776
0.593500,-3.210012
0.593600,-3.019805
0.593700,-3.047070
0.593800,-3.157429
0.593900,-3.279797
0.594000,-3.311607
0.594100,-3.095433
0.594200,-2.893542
0.594300,-2.774420
0.594400,-2.832520
0.594500,-2.955538
0.594600,-3.017858
0.594700,-2.924378
0.594800,-2.752023
0.594900,-2.652052
0.595000,-2.676071
0.595100,-2.737417
0.595200,-2.766954
0.595300,-2.747155
0.595400,-2.737417
0.595500,-2.741312
0.595600,-2.732873
0.595700,-2.687107
0.595800,-2.567011
0.595900,-2.492032
0.596000,-2.478399
0.596100,-2.480347
0.596200,-2.503717
0.596300,-2.463144
0.596400,-2.315783
0.596500,-2.286246
0.596600,-2.117787
0.596700,-2.158685
0.596800,-2.125577
0.596900,-2.112594
0.597000,-2.028527
0.597100,-1.969453
0.597200,-1.886684
0.597300,-1.838971
0.597400,-1.812030
0.597500,-1.888307
0.597600,-1.847410
0.597700,-1.882789
0.597800,-1.892202
0.597900,-1.904861
0.598000,-1.917844
0.598100,-1.886035
0.598200,-1.894150
0.598300,-1.943162
0.598400,-1.929854
0.598500,-2.005482
0.598600,-1.873052
0.598700,-1.714655
0.598800,-1.353395
0.598900,-1.389099
0.599000,-1.592288
0.599100,-1.822092
0.599200,-1.768536
0.599300,-1.543600
0.599400,-1.312498
0.599500,-1.227782
0.599600,-1.387152
0.599700,-1.484851
0.599800,-1.573137
0.599900,-1.442655
0.600000,-1.312498
0.600100,-1.299190
0.600200,-1.299839
0.600300,-1.416689
0.600400,-1.384555
0.600500,-1.540355
0.600600,-1.517634
0.600700,-1.572164
0.600800,-1.638054
0.600900,-1.729262
0.601000,-1.753605
0.601100,-1.876947
0.601200,-2.077864
0.601300,-2.108374
0.601400,-2.295659
0.601500,-2.307993
0.601600,-2.372910
0.601700,-2.399201
0.601800,-2.487163
0.601900,-2.776367
0.602000,-2.964301
0.602100,-2.993189
0.602200,-2.849074
0.602300,-2.771498
0.602400,-2.873742
0.602500,-3.162622
0.602600,-3.385287
0.602700,-3.380094
0.602800,-3.281420
0.602900,-3.149314
0.603000,-3.240847
0.603100,-3.371330
0.603200,-3.477470
0.603300,-3.449555
0.603400,-3.457021
0.603500,-3.395999
0.603600,-3.463837
0.603700,-3.490778
0.603800,-3.537193
0.603900,-3.488181
0.604000,-3.422939
0.604100,-3.415798
0.604200,-3.415798
0.604300,-3.368734
0.604400,-3.267463
0.604500,-3.200923
0.604600,-3.155806
0.604700,-3.231759
0.604800,-3.211959
0.604900,-3.131462
0.605000,-3.005848
0.605100,-2.901981
0.605200,-2.916912
0.605300,-2.848749
0.605400,-2.787728
0.605500,-2.750076
0.605600,-2.651078
0.605700,-2.601741
0.605800,-2.526113
0.605900,-2.459574
0.606000,-2.412509
0.606100,-2.369015
0.606200,-2.356681
0.606300,-2.296633
0.606400,-2.245673
0.606500,-2.204127
0.606600,-2.143429
0.606700,-2.129472
0.606800,-2.118437
0.606900,-2.093119
0.607000,-2.216785
0.607100,-2.436853
0.607200,-2.479373
0.607300,-2.230418
0.607400,-1.958093
0.607500,-1.890579
0.607600,-1.981787
0.607700,-2.276184
0.607800,-2.312213
0.607900,-2.265797
0.608000,-2.088575
0.608100,-2.022035
0.608200,-2.081434
0.608300,-2.257034
0.608400,-2.340127
0.608500,-2.344346
0.608600,-2.319354
0.608700,-2.325196
0.608800,-2.372261
0.608900,-2.415430
0.609000,-2.468013
0.609100,-2.508586
0.609200,-2.548185
0.609300,-2.623488
0.609400,-2.719565
0.609500,-2.788052
0.609600,-2.798764
0.609700,-2.853294
0.609800,-2.840310
0.609900,-2.945800
0.610000,-3.011366
0.610100,-3.042202
0.610200,-2.910420
0.610300,-2.865628
0.610400,-2.985399
0.610500,-3.166193
0.610600,-3.330757
0.610700,-3.305764
0.610800,-3.144446
0.610900,-3.011042
0.611000,-3.051615
0.611100,-3.257726
0.611200,-3.479742
0.611300,-3.555045
0.611400,-3.490778
0.611500,-3.448581
0.611600,-3.451178
0.611700,-3.544334
0.611800,-3.632297
0.611900,-3.662158
0.612000,-3.719610
0.612100,-3.767649
0.612200,-3.819258
0.612300,-3.828671
0.612400,-3.805301
0.612500,-3.760832
0.612600,-3.771219
0.612700,-3.818933
0.612800,-3.843926
0.612900,-3.880604
0.613000,-3.827048
0.613100,-3.762131
0.613200,-3.744279
0.613300,-3.651772
0.613400,-3.733243
0.613500,-3.740059
0.613600,-3.721233
0.613700,-3.681634
0.613800,-3.624507
0.613900,-3.557967
0.614000,-3.572898
0.614100,-3.545957
0.614200,-3.574845
0.614300,-3.536544
0.614400,-3.573871
0.614500,-3.493374
0.614600,-3.440142
0.614700,-3.422615
0.614800,-3.318748
0.614900,-3.355750
0.615000,-3.238575
0.615100,-3.295377
0.615200,-3.079529
0.615300,-2.989619
0.615400,-2.550132
0.615500,-2.402447
0.615600,-2.359926
0.615700,-2.589082
0.615800,-2.601417
0.615900,-2.232041
0.616000,-1.968479
0.616100,-1.649414
0.616200,-1.631887
0.616300,-1.710760
0.616400,-1.717901
0.616500,-1.528020
0.616600,-1.265758
0.616700,-1.079772
0.616800,-0.927219
0.616900,-0.917157
0.617000,-0.859056
0.617100,-0.724355
0.617200,-0.647429
0.617300,-0.524088
0.617400,-0.415028
0.617500,-0.344594
0.617600,-0.251439
0.617700,-0.177759
0.617800,-0.159583
0.617900,-0.183277
0.618000,-0.089798
0.618100,-0.084280
0.618200,0.030298
0.618300,0.110145
0.618400,0.139682
0.618500,0.100083
0.618600,-0.188470
0.618700,-0.145950
0.618800,-0.096289
0.618900,0.114689
0.619000,0.085801
0.619100,-0.035268
0.619200,-0.333883
0.619300,-0.387114
0.619400,-0.325768
0.619500,-0.215086
0.619600,-0.240079
0.619700,-0.406589
0.619800,-0.574398
0.619900,-0.656842
0.620000,-0.648727
0.620100,-0.745128
0.620200,-0.805176
0.620300,-0.984345
0.620400,-1.096651
0.620500,-1.207333
0.620600,-1.192727
0.620700,-1.287830
0.620800,-1.450445
0.620900,-1.551715
0.621000,-1.622474
0.621100,-1.690312
0.621200,-1.773080
0.621300,-1.917195
0.621400,-2.134341
0.621500,-2.233339
0.621600,-2.301826
0.621700,-2.391411
0.621800,-2.403096
0.621900,-2.522543
0.622000,-2.589082
0.622100,-2.668605
0.622200,-2.786754
0.622300,-2.855566
0.622400,-2.940607
0.622500,-3.001629
0.622600,-3.088293
0.622700,-3.172035
0.622800,-3.201248
0.622900,-3.276227
0.623000,-3.324265
0.623100,-3.386261
0.623200,-3.407684
0.623300,-3.469030
0.623400,-3.474224
0.623500,-3.489479
0.623600,-3.504410
0.623700,-3.755964
0.623800,-3.954285
0.623900,-3.888070
0.624000,-3.632621
0.624100,-3.455073
0.624200,-3.421316
0.624300,-3.641060
0.624400,-3.772517
0.624500,-3.748174
0.624600,-3.520639
0.624700,-3.346013
0.624800,-3.280771
0.624900,-3.364189
0.625000,-3.511226
0.625100,-3.548229
0.625200,-3.468057
0.625300,-3.350881
0.625400,-3.297325
0.625500,-3.278174
0.625600,-3.258375
0.625700,-3.213907
0.625800,-3.115882
0.625900,-3.026946
0.626000,-2.988321
0.626100,-2.981829
0.626200,-2.937685
0.626300,-2.851022
0.626400,-2.748128
0.626500,-2.719240
0.626600,-2.739689
0.626700,-2.736119
0.626800,-2.610180
0.626900,-2.398876
0.627000,-2.358628
0.627100,-2.457301
0.627200,-2.648481
0.627300,-2.739040
0.627400,-2.574152
0.627500,-2.376480
0.627600,-2.297606
0.627700,-2.412834
0.627800,-2.613426
0.627900,-2.774095
0.628000,-2.783184
0.628100,-2.640042
0.628200,-2.550132
0.628300,-2.586486
0.628400,-2.692949
0.628500,-2.752348
0.628600,-2.777016
0.628700,-2.771174
0.628800,-2.747804
0.628900,-2.732548
0.629000,-2.735470
0.629100,-2.671202
0.629200,-2.600118
0.629300,-2.584214
0.629400,-2.616672
0.629500,-2.649130
0.629600,-2.703336
0.629700,-2.617321
0.629800,-2.585187
0.629900,-2.429712
0.630000,-2.519622
0.630100,-2.585512
0.630200,-2.680940
0.630300,-2.649780
0.630400,-2.663087
0.630500,-2.658868
0.630600,-2.677369
0.630700,-2.755594
0.630800,-2.906201
0.630900,-2.981180
0.631000,-3.070440
0.631100,-3.145095
0.631200,-3.240198
0.631300,-3.281745
0.631400,-3.382691
0.631500,-3.412877
0.631600,-3.510902
0.631700,-3.597241
0.631800,-3.687476
0.631900,-3.665080
0.632000,-3.570301
0.632100,-3.364514
0.632200,-3.297325
0.632300,-3.550826
0.632400,-3.810169
0.632500,-3.686178
0.632600,-3.484286
