LabVIEW Measurement	
Writer_Version	2
Reader_Version	2
Separator	Tab
Decimal_Separator	.
Multi_Headings	Yes
X_Columns	One
Time_Pref	Relative
Operator	as989
Description	Time Domain Data
Date	1903/12/31
Time	19:00:00
***End_of_Header***	
	
Channels	1	
Samples	15000	
Date	1903/12/31	
Time	19:00:00	
X_Dimension	Time	
X0	0.0000000000000000E+0	
Delta_X	0.000100	
***End_of_Header***		
X_Value	Untitled	Comment
0.000000	-2.431984	Tare Values:0.000000, 0.000000, 0.000000, 0.000000\0D\0A
0.000100	-2.373559
0.000200	-2.279430
0.000300	-2.183353
0.000400	-2.083706
0.000500	-2.009377
0.000600	-1.942188
0.000700	-1.878894
0.000800	-1.803267
0.000900	-1.707839
0.001000	-1.614359
0.001100	-1.525748
0.001200	-1.451094
0.001300	-1.398188
0.001400	-1.347228
0.001500	-1.310875
0.001600	-1.278417
0.001700	-1.235572
0.001800	-1.201491
0.001900	-1.165462
0.002000	-1.145987
0.002100	-1.123266
0.002200	-1.133004
0.002300	-1.122293
0.002400	-1.121968
0.002500	-1.004794
0.002600	-0.891515
0.002700	-0.827247
0.002800	-0.936956
0.002900	-1.061271
0.003000	-1.109634
0.003100	-1.032059
0.003200	-0.926894
0.003300	-0.884049
0.003400	-0.917157
0.003500	-1.008364
0.003600	-1.060947
0.003700	-1.037252
0.003800	-0.970064
0.003900	-0.919753
0.004000	-0.912613
0.004100	-0.918130
0.004200	-0.942474
0.004300	-0.960002
0.004400	-0.957405
0.004500	-0.942474
0.004600	-0.949615
0.004700	-0.967791
0.004800	-0.988565
0.004900	-1.018751
0.005000	-1.057376
0.005100	-1.091782
0.005200	-1.156698
0.005300	-1.194350
0.005400	-1.207658
0.005500	-1.202464
0.005600	-1.228756
0.005700	-1.342359
0.005800	-1.440059
0.005900	-1.452717
0.006000	-1.390722
0.006100	-1.337815
0.006200	-1.351448
0.006300	-1.448173
0.006400	-1.550741
0.006500	-1.570216
0.006600	-1.494264
0.006700	-1.399161
0.006800	-1.371896
0.006900	-1.403381
0.007000	-1.449147
0.007100	-1.445252
0.007200	-1.409548
0.007300	-1.357615
0.007400	-1.340087
0.007500	-1.337815
0.007600	-1.344307
0.007700	-1.328402
0.007800	-1.310875
0.007900	-1.305032
0.008000	-1.312498
0.008100	-1.309252
0.008200	-1.295944
0.008300	-1.276145
0.008400	-1.282312
0.008500	-1.324183
0.008600	-1.379037
0.008700	-1.401758
0.008800	-1.410197
0.008900	-1.398837
0.009000	-1.406302
0.009100	-1.421882
0.009200	-1.425128
0.009300	-1.426426
0.009400	-1.428049
0.009500	-1.426751
0.009600	-1.421882
0.009700	-1.416364
0.009800	-1.409872
0.009900	-1.413118
0.010000	-1.411495
0.010100	-1.411495
0.010200	-1.407276
0.010300	-1.410846
0.010400	-1.409548
0.010500	-1.419285
0.010600	-1.438436
0.010700	-1.465701
0.010800	-1.546197
0.010900	-1.689987
0.011000	-1.791906
0.011100	-1.788336
0.011200	-1.708488
0.011300	-1.660126
0.011400	-1.723744
0.011500	-1.874026
0.011600	-2.017167
0.011700	-2.067477
0.011800	-2.031448
0.011900	-1.993148
0.012000	-2.015544
0.012100	-2.116814
0.012200	-2.238857
0.012300	-2.321301
0.012400	-2.352136
0.012500	-2.360900
0.012600	-2.375506
0.012700	-2.419650
0.012800	-2.469311
0.012900	-2.511182
0.013000	-2.545913
0.013100	-2.572204
0.013200	-2.598495
0.013300	-2.650753
0.013400	-2.666009
0.013500	-2.665035
0.013600	-2.679641
0.013700	-2.713723
0.013800	-2.752997
0.013900	-2.754945
0.014000	-2.694897
0.014100	-2.640042
0.014200	-2.679966
0.014300	-2.799737
0.014400	-2.896788
0.014500	-2.934764
0.014600	-2.873742
0.014700	-2.799737
0.014800	-2.783833
0.014900	-2.860434
0.015000	-2.972416
0.015100	-3.035710
0.015200	-3.027595
0.015300	-2.967872
0.015400	-2.926650
0.015500	-2.918210
0.015600	-2.933466
0.015700	-2.947423
0.015800	-2.953915
0.015900	-2.950344
0.016000	-2.932492
0.016100	-2.910745
0.016200	-2.893217
0.016300	-2.844854
0.016400	-2.803957
0.016500	-2.782859
0.016600	-2.755918
0.016700	-2.727680
0.016800	-2.655297
0.016900	-2.563440
0.017000	-2.447889
0.017100	-2.358304
0.017200	-2.296633
0.017300	-2.228470
0.017400	-2.162580
0.017500	-2.088250
0.017600	-2.008403
0.017700	-1.927906
0.017800	-1.863314
0.017900	-1.821119
0.018000	-1.787362
0.018100	-1.758150
0.018200	-1.739324
0.018300	-1.717252
0.018400	-1.691286
0.018500	-1.660450
0.018600	-1.637080
0.018700	-1.611114
0.018800	-1.606569
0.018900	-1.597157
0.019000	-1.587744
0.019100	-1.520231
0.019200	-1.382283
0.019300	-1.248880
0.019400	-1.232001
0.019500	-1.338464
0.019600	-1.406627
0.019700	-1.377739
0.019800	-1.260240
0.019900	-1.134627
0.020000	-1.083667
0.020100	-1.115801
0.020200	-1.172603
0.020300	-1.173901
0.020400	-1.099572
0.020500	-1.006092
0.020600	-0.935658
0.020700	-0.899954
0.020800	-0.889243
0.020900	-0.888269
0.021000	-0.876584
0.021100	-0.864250
0.021200	-0.842827
0.021300	-0.824002
0.021400	-0.808746
0.021500	-0.804851
0.021600	-0.841204
0.021700	-0.864899
0.021800	-0.911963
0.021900	-0.946694
0.022000	-0.989214
0.022100	-0.997978
0.022200	-1.004145
0.022300	-1.061920
0.022400	-1.185586
0.022500	-1.269653
0.022600	-1.263810
0.022700	-1.197271
0.022800	-1.171304
0.022900	-1.238493
0.023000	-1.373844
0.023100	-1.472517
0.023200	-1.467648
0.023300	-1.396240
0.023400	-1.350149
0.023500	-1.384230
0.023600	-1.457262
0.023700	-1.501405
0.023800	-1.501080
0.023900	-1.493615
0.024000	-1.485176
0.024100	-1.504001
0.024200	-1.536460
0.024300	-1.553338
0.024400	-1.545873
0.024500	-1.539381
0.024600	-1.544250
0.024700	-1.553338
0.024800	-1.529968
0.024900	-1.497510
0.025000	-1.459209
0.025100	-1.462130
0.025200	-1.499782
0.025300	-1.514063
0.025400	-1.495562
0.025500	-1.458884
0.025600	-1.425777
0.025700	-1.421233
0.025800	-1.412145
0.025900	-1.403705
0.026000	-1.403705
0.026100	-1.409548
0.026200	-1.405977
0.026300	-1.418312
0.026400	-1.435190
0.026500	-1.456288
0.026600	-1.478359
0.026700	-1.503028
0.026800	-1.532565
0.026900	-1.557882
0.027000	-1.584498
0.027100	-1.610789
0.027200	-1.653634
0.027300	-1.698426
0.027400	-1.766264
0.027500	-1.895448
0.027600	-2.066828
0.027700	-2.147000
0.027800	-2.103830
0.027900	-2.012298
0.028000	-2.000613
0.028100	-2.110971
0.028200	-2.264499
0.028300	-2.363497
0.028400	-2.343697
0.028500	-2.262227
0.028600	-2.229119
0.028700	-2.266771
0.028800	-2.355707
0.028900	-2.428089
0.029000	-2.454380
0.029100	-2.439449
0.029200	-2.420624
0.029300	-2.432309
0.029400	-2.468337
0.029500	-2.505340
0.029600	-2.521569
0.029700	-2.529359
0.029800	-2.561493
0.029900	-2.604338
0.030000	-2.651727
0.030100	-2.674448
0.030200	-2.673150
0.030300	-2.690028
0.030400	-2.716319
0.030500	-2.742286
0.030600	-2.727355
0.030700	-2.657570
0.030800	-2.623813
0.030900	-2.671851
0.031000	-2.782210
0.031100	-2.881532
0.031200	-2.875690
0.031300	-2.772797
0.031400	-2.671202
0.031500	-2.655622
0.031600	-2.722811
0.031700	-2.812721
0.031800	-2.832196
0.031900	-2.759813
0.032000	-2.669904
0.032100	-2.601417
0.032200	-2.572204
0.032300	-2.561168
0.032400	-2.540395
0.032500	-2.495602
0.032600	-2.445616
0.032700	-2.401473
0.032800	-2.352461
0.032900	-2.294685
0.033000	-2.219382
0.033100	-2.163878
0.033200	-2.124604
0.033300	-2.098312
0.033400	-2.068775
0.033500	-1.986331
0.033600	-1.914923
0.033700	-1.826961
0.033800	-1.775352
0.033900	-1.748412
0.034000	-1.713682
0.034100	-1.669863
0.034200	-1.615982
0.034300	-1.543276
0.034400	-1.467648
0.034500	-1.411495
0.034600	-1.368975
0.034700	-1.331973
0.034800	-1.303734
0.034900	-1.267056
0.035000	-1.241739
0.035100	-1.193051
0.035200	-1.159944
0.035300	-1.109309
0.035400	-1.094054
0.035500	-1.064192
0.035600	-1.062245
0.035700	-1.030111
0.035800	-0.955133
0.035900	-0.783429
0.036000	-0.680861
0.036100	-0.700660
0.036200	-0.828221
0.036300	-0.879505
0.036400	-0.813615
0.036500	-0.653596
0.036600	-0.543238
0.036700	-0.533501
0.036800	-0.600365
0.036900	-0.658465
0.037000	-0.640937
0.037100	-0.556222
0.037200	-0.467286
0.037300	-0.419897
0.037400	-0.418599
0.037500	-0.435477
0.037600	-0.447487
0.037700	-0.450408
0.037800	-0.442618
0.037900	-0.428336
0.038000	-0.434828
0.038100	-0.432231
0.038200	-0.450083
0.038300	-0.467935
0.038400	-0.521816
0.038500	-0.565310
0.038600	-0.612050
0.038700	-0.627954
0.038800	-0.636069
0.038900	-0.650675
0.039000	-0.745777
0.039100	-0.851916
0.039200	-0.901252
0.039300	-0.886646
0.039400	-0.815238
0.039500	-0.820431
0.039600	-0.905472
0.039700	-1.048288
0.039800	-1.135925
0.039900	-1.143066
0.040000	-1.086589
0.040100	-1.068087
0.040200	-1.118722
0.040300	-1.213500
0.040400	-1.283610
0.040500	-1.330350
0.040600	-1.335219
0.040700	-1.362808
0.040800	-1.408899
0.040900	-1.479333
0.041000	-1.544574
0.041100	-1.585472
0.041200	-1.626044
0.041300	-1.670837
0.041400	-1.705243
0.041500	-1.713357
0.041600	-1.715954
0.041700	-1.716278
0.041800	-1.756202
0.041900	-1.808784
0.042000	-1.836049
0.042100	-1.816250
0.042200	-1.768536
0.042300	-1.747763
0.042400	-1.723744
0.042500	-1.696803
0.042600	-1.662073
0.042700	-1.635133
0.042800	-1.607543
0.042900	-1.585147
0.043000	-1.577032
0.043100	-1.566321
0.043200	-1.571839
0.043300	-1.569242
0.043400	-1.575085
0.043500	-1.580927
0.043600	-1.601701
0.043700	-1.623123
0.043800	-1.654608
0.043900	-1.696803
0.044000	-1.746140
0.044100	-1.830207
0.044200	-1.988279
0.044300	-2.150246
0.044400	-2.190819
0.044500	-2.124928
0.044600	-2.051572
0.044700	-2.073644
0.044800	-2.216461
0.044900	-2.370638
0.045000	-2.437502
0.045100	-2.386542
0.045200	-2.313186
0.045300	-2.286571
0.045400	-2.350514
0.045500	-2.436528
0.045600	-2.487163
0.045700	-2.506638
0.045800	-2.487163
0.045900	-2.472232
0.046000	-2.480672
0.046100	-2.488786
0.046200	-2.506963
0.046300	-2.505340
0.046400	-2.505340
0.046500	-2.506638
0.046600	-2.519297
0.046700	-2.526762
0.046800	-2.509559
0.046900	-2.502419
0.047000	-2.502419
0.047100	-2.508910
0.047200	-2.508910
0.047300	-2.443344
0.047400	-2.364471
0.047500	-2.354084
0.047600	-2.422571
0.047700	-2.515727
0.047800	-2.585512
0.047900	-2.540719
0.048000	-2.451134
0.048100	-2.397903
0.048200	-2.447239
0.048300	-2.537798
0.048400	-2.616672
0.048500	-2.631603
0.048600	-2.602066
0.048700	-2.563440
0.048800	-2.545264
0.048900	-2.545588
0.049000	-2.564739
0.049100	-2.576099
0.049200	-2.565388
0.049300	-2.546887
0.049400	-2.531307
0.049500	-2.502419
0.049600	-2.459574
0.049700	-2.409588
0.049800	-2.374857
0.049900	-2.346943
0.050000	-2.315783
0.050100	-2.256060
0.050200	-2.152518
0.050300	-2.042160
0.050400	-1.936346
0.050500	-1.858121
0.050600	-1.785090
0.050700	-1.709462
0.050800	-1.629290
0.050900	-1.538083
0.051000	-1.448173
0.051100	-1.358913
0.051200	-1.294970
0.051300	-1.239791
0.051400	-1.189157
0.051500	-1.158321
0.051600	-1.131705
0.051700	-1.111581
0.051800	-1.080097
0.051900	-1.052832
0.052000	-1.021672
0.052100	-1.011285
0.052200	-0.999601
0.052300	-0.982722
0.052400	-0.949615
0.052500	-0.811018
0.052600	-0.662035
0.052700	-0.592250
0.052800	-0.684431
0.052900	-0.818159
0.053000	-0.860030
0.053100	-0.788298
0.053200	-0.675668
0.053300	-0.637367
0.053400	-0.693195
0.053500	-0.807773
0.053600	-0.887944
0.053700	-0.892488
0.053800	-0.860679
0.053900	-0.821405
0.054000	-0.826274
0.054100	-0.853863
0.054200	-0.877233
0.054300	-0.891515
0.054400	-0.903849
0.054500	-0.906445
0.054600	-0.917157
0.054700	-0.926570
0.054800	-0.942149
0.054900	-0.982722
0.055000	-1.040822
0.055100	-1.101844
0.055200	-1.180068
0.055300	-1.236546
0.055400	-1.273223
0.055500	-1.297892
0.055600	-1.359887
0.055700	-1.490694
0.055800	-1.598779
0.055900	-1.617281
0.056000	-1.558856
0.056100	-1.497510
0.056200	-1.534188
0.056300	-1.656231
0.056400	-1.784765
0.056500	-1.813653
0.056600	-1.756202
0.056700	-1.697453
0.056800	-1.718226
0.056900	-1.806837
0.057000	-1.880517
0.057100	-1.917520
0.057200	-1.930178
0.057300	-1.937319
0.057400	-1.971076
0.057500	-2.004183
0.057600	-2.025281
0.057700	-2.018790
0.057800	-1.995744
0.057900	-1.967830
0.058000	-1.931801
0.058100	-1.876622
0.058200	-1.808784
0.058300	-1.743219
0.058400	-1.696154
0.058500	-1.683820
0.058600	-1.667591
0.058700	-1.629615
0.058800	-1.578655
0.058900	-1.504651
0.059000	-1.469271
0.059100	-1.437462
0.059200	-1.403705
0.059300	-1.372546
0.059400	-1.338464
0.059500	-1.311199
0.059600	-1.286207
0.059700	-1.259915
0.059800	-1.244660
0.059900	-1.232651
0.060000	-1.233949
0.060100	-1.240116
0.060200	-1.248230
0.060300	-1.258617
0.060400	-1.274197
0.060500	-1.295944
0.060600	-1.320937
0.060700	-1.357615
0.060800	-1.456288
0.060900	-1.615658
0.061000	-1.714980
0.061100	-1.702646
0.061200	-1.602999
0.061300	-1.547495
0.061400	-1.616307
0.061500	-1.773405
0.061600	-1.909081
0.061700	-1.932451
0.061800	-1.881166
0.061900	-1.823066
0.062000	-1.843515
0.062100	-1.926608
0.062200	-2.024957
0.062300	-2.068775
0.062400	-2.080136
0.062500	-2.076565
0.062600	-2.088250
0.062700	-2.126227
0.062800	-2.176212
0.062900	-2.208995
0.063000	-2.238208
0.063100	-2.262227
0.063200	-2.295984
0.063300	-2.330714
0.063400	-2.376805
0.063500	-2.394657
0.063600	-2.412834
0.063700	-2.443344
0.063800	-2.482944
0.063900	-2.488137
0.064000	-2.419650
0.064100	-2.358628
0.064200	-2.374857
0.064300	-2.496576
0.064400	-2.614400
0.064500	-2.662763
0.064600	-2.596872
0.064700	-2.513130
0.064800	-2.500147
0.064900	-2.593627
0.065000	-2.716644
0.065100	-2.790649
0.065200	-2.762086
0.065300	-2.704310
0.065400	-2.674123
0.065500	-2.688080
0.065600	-2.709503
0.065700	-2.695221
0.065800	-2.662114
0.065900	-2.621216
0.066000	-2.568309
0.066100	-2.505989
0.066200	-2.414456
0.066300	-2.296957
0.066400	-2.185950
0.066500	-2.109997
0.066600	-2.052222
0.066700	-2.004508
0.066800	-1.914598
0.066900	-1.815601
0.067000	-1.738350
0.067100	-1.649414
0.067200	-1.593911
0.067300	-1.551066
0.067400	-1.509195
0.067500	-1.466350
0.067600	-1.409548
0.067700	-1.361185
0.067800	-1.316068
0.067900	-1.302760
0.068000	-1.302436
0.068100	-1.307629
0.068200	-1.310875
0.068300	-1.317367
0.068400	-1.306331
0.068500	-1.306980
0.068600	-1.288479
0.068700	-1.303085
0.068800	-1.302760
0.068900	-1.319963
0.069000	-1.314121
0.069100	-1.261863
0.069200	-1.119696
0.069300	-0.986293
0.069400	-0.976555
0.069500	-1.078149
0.069600	-1.171629
0.069700	-1.143066
0.069800	-1.023620
0.069900	-0.896708
0.070000	-0.835362
0.070100	-0.875935
0.070200	-0.929815
0.070300	-0.937930
0.070400	-0.863276
0.070500	-0.769472
0.070600	-0.689625
0.070700	-0.661061
0.070800	-0.646131
0.070900	-0.631200
0.071000	-0.612374
0.071100	-0.567257
0.071200	-0.523114
0.071300	-0.491305
0.071400	-0.466312
0.071500	-0.461444
0.071600	-0.470532
0.071700	-0.467935
0.071800	-0.481243
0.071900	-0.498446
0.072000	-0.505911
0.072100	-0.490331
0.072200	-0.479296
0.072300	-0.515649
0.072400	-0.636393
0.072500	-0.704555
0.072600	-0.688976
0.072700	-0.617892
0.072800	-0.582837
0.072900	-0.648403
0.073000	-0.783104
0.073100	-0.878531
0.073200	-0.885023
0.073300	-0.815887
0.073400	-0.783104
0.073500	-0.826923
0.073600	-0.911639
0.073700	-0.970388
0.073800	-0.996679
0.073900	-1.001548
0.074000	-1.012259
0.074100	-1.047963
0.074200	-1.094379
0.074300	-1.132355
0.074400	-1.147935
0.074500	-1.164813
0.074600	-1.200192
0.074700	-1.230054
0.074800	-1.243686
0.074900	-1.246932
0.075000	-1.257643
0.075100	-1.296918
0.075200	-1.368651
0.075300	-1.420908
0.075400	-1.436488
0.075500	-1.416040
0.075600	-1.423830
0.075700	-1.445252
0.075800	-1.443304
0.075900	-1.447199
0.076000	-1.443629
0.076100	-1.429023
0.076200	-1.420584
0.076300	-1.414417
0.076400	-1.398188
0.076500	-1.391047
0.076600	-1.384555
0.076700	-1.381309
0.076800	-1.381634
0.076900	-1.396889
0.077000	-1.414741
0.077100	-1.432593
0.077200	-1.462455
0.077300	-1.482904
0.077400	-1.536784
0.077500	-1.660450
0.077600	-1.819496
0.077700	-1.866885
0.077800	-1.819496
0.077900	-1.725367
0.078000	-1.714331
0.078100	-1.813329
0.078200	-1.950303
0.078300	-2.040212
0.078400	-2.029501
0.078500	-1.975945
0.078600	-1.944785
0.078700	-1.982112
0.078800	-2.075592
0.078900	-2.159659
0.079000	-2.206399
0.079100	-2.214189
0.079200	-2.217110
0.079300	-2.234962
0.079400	-2.268394
0.079500	-2.320327
0.079600	-2.356681
0.079700	-2.396929
0.079800	-2.428738
0.079900	-2.461521
0.080000	-2.497225
0.080100	-2.518972
0.080200	-2.526762
0.080300	-2.550457
0.080400	-2.583564
0.080500	-2.618620
0.080600	-2.585512
0.080700	-2.508910
0.080800	-2.465416
0.080900	-2.518648
0.081000	-2.628032
0.081100	-2.699116
0.081200	-2.675746
0.081300	-2.565388
0.081400	-2.478399
0.081500	-2.481645
0.081600	-2.559545
0.081700	-2.643288
0.081800	-2.653675
0.081900	-2.591679
0.082000	-2.526113
0.082100	-2.500796
0.082200	-2.493330
0.082300	-2.488137
0.082400	-2.471259
0.082500	-2.451459
0.082600	-2.430686
0.082700	-2.407316
0.082800	-2.378103
0.082900	-2.324547
0.083000	-2.236585
0.083100	-2.159334
0.083200	-2.111620
0.083300	-2.078513
0.083400	-2.037940
0.083500	-1.964909
0.083600	-1.900317
0.083700	-1.849357
0.083800	-1.782169
0.083900	-1.728937
0.084000	-1.680899
0.084100	-1.624097
0.084200	-1.564698
0.084300	-1.485176
0.084400	-1.409548
0.084500	-1.355992
0.084600	-1.310226
0.084700	-1.290426
0.084800	-1.259915
0.084900	-1.247257
0.085000	-1.223238
0.085100	-1.204412
0.085200	-1.182989
0.085300	-1.165137
0.085400	-1.171304
0.085500	-1.168059
0.085600	-1.173252
0.085700	-1.154751
0.085800	-1.047963
0.085900	-0.902550
0.086000	-0.799333
0.086100	-0.840880
0.086200	-0.942474
0.086300	-0.985643
0.086400	-0.908393
0.086500	-0.772069
0.086600	-0.685405
0.086700	-0.677940
0.086800	-0.752594
0.086900	-0.795114
0.087000	-0.789596
0.087100	-0.719811
0.087200	-0.656842
0.087300	-0.624059
0.087400	-0.629252
0.087500	-0.655219
0.087600	-0.675668
0.087700	-0.686054
0.087800	-0.680861
0.087900	-0.687353
0.088000	-0.697739
0.088100	-0.718188
0.088200	-0.758761
0.088300	-0.795763
0.088400	-0.838283
0.088500	-0.891839
0.088600	-0.951562
0.088700	-0.967791
0.088800	-0.977204
0.088900	-0.975257
0.089000	-1.065166
0.089100	-1.172278
0.089200	-1.203114
0.089300	-1.146636
0.089400	-1.061271
0.089500	-1.053157
0.089600	-1.149233
0.089700	-1.271925
0.089800	-1.314770
0.089900	-1.274846
0.090000	-1.183963
0.090100	-1.158970
0.090200	-1.213825
0.090300	-1.282312
0.090400	-1.310226
0.090500	-1.300488
0.090600	-1.286207
0.090700	-1.301462
0.090800	-1.340412
0.090900	-1.381309
0.091000	-1.405977
0.091100	-1.412469
0.091200	-1.440383
0.091300	-1.470894
0.091400	-1.479009
0.091500	-1.479333
0.091600	-1.470569
0.091700	-1.476087
0.091800	-1.521853
0.091900	-1.588068
0.092000	-1.612412
0.092100	-1.617930
0.092200	-1.580603
0.092300	-1.590989
0.092400	-1.598455
0.092500	-1.597157
0.092600	-1.588068
0.092700	-1.581252
0.092800	-1.565347
0.092900	-1.555610
0.093000	-1.550417
0.093100	-1.538083
0.093200	-1.530293
0.093300	-1.525424
0.093400	-1.527696
0.093500	-1.532240
0.093600	-1.537433
0.093700	-1.541653
0.093800	-1.561777
0.093900	-1.584498
0.094000	-1.618579
0.094100	-1.693233
0.094200	-1.840269
0.094300	-1.974322
0.094400	-1.985682
0.094500	-1.917844
0.094600	-1.850656
0.094700	-1.884088
0.094800	-2.011649
0.094900	-2.139210
0.095000	-2.188222
0.095100	-2.145052
0.095200	-2.086303
0.095300	-2.083382
0.095400	-2.154141
0.095500	-2.244375
0.095600	-2.311888
0.095700	-2.331363
0.095800	-2.331363
0.095900	-2.325521
0.096000	-2.338504
0.096100	-2.372910
0.096200	-2.404394
0.096300	-2.426791
0.096400	-2.453082
0.096500	-2.473206
0.096600	-2.514428
0.096700	-2.560844
0.096800	-2.580643
0.096900	-2.595899
0.097000	-2.621865
0.097100	-2.653025
0.097200	-2.671527
0.097300	-2.634200
0.097400	-2.563440
0.097500	-2.556949
0.097600	-2.651078
0.097700	-2.757541
0.097800	-2.814668
0.097900	-2.765007
0.098000	-2.655947
0.098100	-2.600443
0.098200	-2.652376
0.098300	-2.765007
0.098400	-2.851346
0.098500	-2.844854
0.098600	-2.777341
0.098700	-2.726057
0.098800	-2.714047
0.098900	-2.722486
0.099000	-2.722486
0.099100	-2.698792
0.099200	-2.674773
0.099300	-2.646858
0.099400	-2.613751
0.099500	-2.549808
0.099600	-2.471583
0.099700	-2.404070
0.099800	-2.357005
0.099900	-2.326170
0.100000	-2.295984
0.100100	-2.242103
0.100200	-2.150895
0.100300	-2.088900
0.100400	-2.013596
0.100500	-1.949978
0.100600	-1.888956
0.100700	-1.829882
0.100800	-1.764966
0.100900	-1.691610
0.101000	-1.614359
0.101100	-1.541328
0.101200	-1.498159
0.101300	-1.465701
0.101400	-1.459858
0.101500	-1.445252
0.101600	-1.448173
0.101700	-1.435190
0.101800	-1.429672
0.101900	-1.417013
0.102000	-1.417662
0.102100	-1.425777
0.102200	-1.432269
0.102300	-1.447199
0.102400	-1.400135
0.102500	-1.292049
0.102600	-1.142741
0.102700	-1.114503
0.102800	-1.179744
0.102900	-1.283610
0.103000	-1.264135
0.103100	-1.133328
0.103200	-0.989538
0.103300	-0.885348
0.103400	-0.890866
0.103500	-0.928192
0.103600	-0.928842
0.103700	-0.848994
0.103800	-0.737338
0.103900	-0.629252
0.104000	-0.572775
0.104100	-0.545186
0.104200	-0.536422
0.104300	-0.529606
0.104400	-0.510456
0.104500	-0.490981
0.104600	-0.484814
0.104700	-0.484489
0.104800	-0.503315
0.104900	-0.548432
0.105000	-0.598742
0.105100	-0.645482
0.105200	-0.706828
0.105300	-0.775314
0.105400	-0.794140
0.105500	-0.834388
0.105600	-0.874961
0.105700	-1.019725
0.105800	-1.118073
0.105900	-1.136899
0.106000	-1.074579
0.106100	-1.043419
0.106200	-1.075228
0.106300	-1.196946
0.106400	-1.311199
0.106500	-1.336517
0.106600	-1.269977
0.106700	-1.206684
0.106800	-1.214474
0.106900	-1.290102
0.107000	-1.352421
0.107100	-1.380011
0.107200	-1.375142
0.107300	-1.368975
0.107400	-1.394293
0.107500	-1.431619
0.107600	-1.460507
0.107700	-1.473491
0.107800	-1.480956
0.107900	-1.495238
0.108000	-1.506273
0.108100	-1.494913
0.108200	-1.471219
0.108300	-1.441357
0.108400	-1.437137
0.108500	-1.477710
0.108600	-1.517309
0.108700	-1.523152
0.108800	-1.504001
0.108900	-1.476087
0.109000	-1.478684
0.109100	-1.475114
0.109200	-1.470894
0.109300	-1.464078
0.109400	-1.449796
0.109500	-1.430646
0.109600	-1.417338
0.109700	-1.401758
0.109800	-1.384880
0.109900	-1.368651
0.110000	-1.348851
0.110100	-1.338140
0.110200	-1.323858
0.110300	-1.326455
0.110400	-1.320612
0.110500	-1.318340
0.110600	-1.336841
0.110700	-1.366054
0.110800	-1.450121
0.110900	-1.601052
0.111000	-1.679276
0.111100	-1.652985
0.111200	-1.563400
0.111300	-1.518932
0.111400	-1.603324
0.111500	-1.752307
0.111600	-1.865586
0.111700	-1.883439
0.111800	-1.824689
0.111900	-1.776651
0.112000	-1.792231
0.112100	-1.872403
0.112200	-1.960689
0.112300	-2.012947
0.112400	-2.021062
0.112500	-2.019763
0.112600	-2.024957
0.112700	-2.051897
0.112800	-2.076565
0.112900	-2.096689
0.113000	-2.120384
0.113100	-2.144403
0.113200	-2.179458
0.113300	-2.226198
0.113400	-2.264174
0.113500	-2.279105
0.113600	-2.298256
0.113700	-2.321626
0.113800	-2.348891
0.113900	-2.348241
0.114000	-2.274236
0.114100	-2.225549
0.114200	-2.268394
0.114300	-2.398552
0.114400	-2.516376
0.114500	-2.564739
0.114600	-2.498524
0.114700	-2.413158
0.114800	-2.403745
0.114900	-2.496901
0.115000	-2.616347
0.115100	-2.674773
0.115200	-2.641990
0.115300	-2.586161
0.115400	-2.559221
0.115500	-2.569283
0.115600	-2.588433
0.115700	-2.596223
0.115800	-2.573502
0.115900	-2.559870
0.116000	-2.554352
0.116100	-2.541369
0.116200	-2.506963
0.116300	-2.444643
0.116400	-2.380700
0.116500	-2.340776
0.116600	-2.311239
0.116700	-2.278781
0.116800	-2.198933
0.116900	-2.091821
0.117000	-1.983735
0.117100	-1.897071
0.117200	-1.837023
0.117300	-1.777300
0.117400	-1.715305
0.117500	-1.646493
0.117600	-1.561128
0.117700	-1.474464
0.117800	-1.405328
0.117900	-1.343658
0.118000	-1.291075
0.118100	-1.246608
0.118200	-1.213825
0.118300	-1.177147
0.118400	-1.150531
0.118500	-1.113204
0.118600	-1.093080
0.118700	-1.073281
0.118800	-1.072307
0.118900	-1.074254
0.119000	-1.061596
0.119100	-1.007715
0.119200	-0.870741
0.119300	-0.738637
0.119400	-0.746102
0.119500	-0.856784
0.119600	-0.948641
0.119700	-0.918780
0.119800	-0.804851
0.119900	-0.687353
0.120000	-0.668202
0.120100	-0.725978
0.120200	-0.820431
0.120300	-0.835687
0.120400	-0.793816
0.120500	-0.712021
0.120600	-0.675992
0.120700	-0.668851
0.120800	-0.690274
0.120900	-0.695792
0.121000	-0.693195
0.121100	-0.669825
0.121200	-0.663009
0.121300	-0.658789
0.121400	-0.662684
0.121500	-0.669501
0.121600	-0.688326
0.121700	-0.694169
0.121800	-0.725653
0.121900	-0.768174
0.122000	-0.789271
0.122100	-0.801930
0.122200	-0.801605
0.122300	-0.860030
0.122400	-0.990512
0.122500	-1.063219
0.122600	-1.049586
0.122700	-0.989863
0.122800	-0.964221
0.122900	-1.037252
0.123000	-1.179744
0.123100	-1.283935
0.123200	-1.298216
0.123300	-1.233624
0.123400	-1.197920
0.123500	-1.247906
0.123600	-1.336841
0.123700	-1.400135
0.123800	-1.419935
0.123900	-1.423180
0.124000	-1.438436
0.124100	-1.477710
0.124200	-1.527371
0.124300	-1.570865
0.124400	-1.587419
0.124500	-1.608192
0.124600	-1.641949
0.124700	-1.664994
0.124800	-1.670512
0.124900	-1.665643
0.125000	-1.660126
0.125100	-1.684469
0.125200	-1.746789
0.125300	-1.783142
0.125400	-1.798073
0.125500	-1.766913
0.125600	-1.747763
0.125700	-1.745815
0.125800	-1.732183
0.125900	-1.717252
0.126000	-1.696154
0.126100	-1.669863
0.126200	-1.650388
0.126300	-1.615009
0.126400	-1.582875
0.126500	-1.557557
0.126600	-1.529319
0.126700	-1.502378
0.126800	-1.484202
0.126900	-1.467973
0.127000	-1.454665
0.127100	-1.439085
0.127200	-1.428049
0.127300	-1.422856
0.127400	-1.444278
0.127500	-1.542951
0.127600	-1.652660
0.127700	-1.677978
0.127800	-1.575085
0.127900	-1.443954
0.128000	-1.397214
0.128100	-1.457586
0.128200	-1.589042
0.128300	-1.652660
0.128400	-1.616956
0.128500	-1.518932
0.128600	-1.456937
0.128700	-1.462130
0.128800	-1.529319
0.128900	-1.591314
0.129000	-1.604622
0.129100	-1.585147
0.129200	-1.563400
0.129300	-1.562751
0.129400	-1.584822
0.129500	-1.620527
0.129600	-1.641949
0.129700	-1.651686
0.129800	-1.657854
0.129900	-1.681873
0.130000	-1.719849
0.130100	-1.745491
0.130200	-1.756527
0.130300	-1.778274
0.130400	-1.805539
0.130500	-1.833777
0.130600	-1.813653
0.130700	-1.740298
0.130800	-1.701672
0.130900	-1.764317
0.131000	-1.882465
0.131100	-1.983410
0.131200	-1.977568
0.131300	-1.888956
0.131400	-1.819496
0.131500	-1.837023
0.131600	-1.941539
0.131700	-2.048327
0.131800	-2.091172
0.131900	-2.065205
0.132000	-2.024632
0.132100	-2.018790
0.132200	-2.036642
0.132300	-2.053195
0.132400	-2.051248
0.132500	-2.045730
0.132600	-2.032097
0.132700	-2.020737
0.132800	-1.999639
0.132900	-1.950303
0.133000	-1.897071
0.133100	-1.857147
0.133200	-1.841892
0.133300	-1.834426
0.133400	-1.805863
0.133500	-1.743219
0.133600	-1.686741
0.133700	-1.617930
0.133800	-1.557557
0.133900	-1.509844
0.134000	-1.476736
0.134100	-1.438760
0.134200	-1.396889
0.134300	-1.346254
0.134400	-1.303734
0.134500	-1.265109
0.134600	-1.253748
0.134700	-1.248555
0.134800	-1.234923
0.134900	-1.243362
0.135000	-1.230054
0.135100	-1.230703
0.135200	-1.219018
0.135300	-1.215448
0.135400	-1.207333
0.135500	-1.222588
0.135600	-1.228756
0.135700	-1.200192
0.135800	-1.112555
0.135900	-0.962598
0.136000	-0.877882
0.136100	-0.928517
0.136200	-1.047639
0.136300	-1.103791
0.136400	-1.027190
0.136500	-0.914560
0.136600	-0.809395
0.136700	-0.815563
0.136800	-0.875610
0.136900	-0.938255
0.137000	-0.935009
0.137100	-0.894436
0.137200	-0.834064
0.137300	-0.796412
0.137400	-0.796412
0.137500	-0.811018
0.137600	-0.842178
0.137700	-0.846073
0.137800	-0.844775
0.137900	-0.840231
0.138000	-0.829844
0.138100	-0.829520
0.138200	-0.841204
0.138300	-0.872689
0.138400	-0.887944
0.138500	-0.924297
0.138600	-0.946369
0.138700	-0.927543
0.138800	-0.916183
0.138900	-0.910990
0.139000	-1.000899
0.139100	-1.097300
0.139200	-1.118073
0.139300	-1.037901
0.139400	-0.962598
0.139500	-0.946044
0.139600	-1.041472
0.139700	-1.156374
0.139800	-1.201166
0.139900	-1.160269
0.140000	-1.094379
0.140100	-1.080746
0.140200	-1.140145
0.140300	-1.209930
0.140400	-1.244660
0.140500	-1.260565
0.140600	-1.264135
0.140700	-1.299514
0.140800	-1.346254
0.140900	-1.398837
0.141000	-1.433892
0.141100	-1.453042
0.141200	-1.480631
0.141300	-1.507247
0.141400	-1.523152
0.141500	-1.516011
0.141600	-1.504651
0.141700	-1.501080
0.141800	-1.554961
0.141900	-1.620202
0.142000	-1.643572
0.142100	-1.626694
0.142200	-1.598779
0.142300	-1.609815
0.142400	-1.623123
0.142500	-1.635457
0.142600	-1.648116
0.142700	-1.658178
0.142800	-1.668565
0.142900	-1.677004
0.143000	-1.687066
0.143100	-1.701348
0.143200	-1.714331
0.143300	-1.736078
0.143400	-1.758150
0.143500	-1.784116
0.143600	-1.801319
0.143700	-1.820145
0.143800	-1.850980
0.143900	-1.891878
0.144000	-1.930178
0.144100	-2.021062
0.144200	-2.184002
0.144300	-2.324222
0.144400	-2.350838
0.144500	-2.273912
0.144600	-2.202179
0.144700	-2.228470
0.144800	-2.349215
0.144900	-2.475154
0.145000	-2.513454
0.145100	-2.446590
0.145200	-2.376480
0.145300	-2.345645
0.145400	-2.392385
0.145500	-2.466065
0.145600	-2.502743
0.145700	-2.506314
0.145800	-2.485540
0.145900	-2.477750
0.146000	-2.476776
0.146100	-2.483268
0.146200	-2.488462
0.146300	-2.489760
0.146400	-2.489111
0.146500	-2.492032
0.146600	-2.505015
0.146700	-2.522218
0.146800	-2.521244
0.146900	-2.523192
0.147000	-2.547860
0.147100	-2.577073
0.147200	-2.589082
0.147300	-2.531307
0.147400	-2.453731
0.147500	-2.453731
0.147600	-2.552080
0.147700	-2.656271
0.147800	-2.691651
0.147900	-2.635822
0.148000	-2.540719
0.148100	-2.499822
0.148200	-2.560194
0.148300	-2.670228
0.148400	-2.732224
0.148500	-2.709503
0.148600	-2.653025
0.148700	-2.618620
0.148800	-2.626085
0.148900	-2.646209
0.149000	-2.643612
0.149100	-2.627708
0.149200	-2.610180
0.149300	-2.592977
0.149400	-2.561168
0.149500	-2.513779
0.149600	-2.437502
0.149700	-2.366743
0.149800	-2.322924
0.149900	-2.293711
0.150000	-2.264174
0.150100	-2.202179
0.150200	-2.113892
0.150300	-2.035992
0.150400	-1.941214
0.150500	-1.872727
0.150600	-1.809434
0.150700	-1.743868
0.150800	-1.666293
0.150900	-1.590340
0.151000	-1.514388
0.151100	-1.445901
0.151200	-1.395266
0.151300	-1.361510
0.151400	-1.335219
0.151500	-1.317042
0.151600	-1.298216
0.151700	-1.282312
0.151800	-1.255371
0.151900	-1.230378
0.152000	-1.200517
0.152100	-1.182340
0.152200	-1.167409
0.152300	-1.146312
0.152400	-1.090159
0.152500	-0.942799
0.152600	-0.798035
0.152700	-0.727276
0.152800	-0.816212
0.152900	-0.911963
0.153000	-0.905147
0.153100	-0.806799
0.153200	-0.669176
0.153300	-0.618217
0.153400	-0.650350
0.153500	-0.733119
0.153600	-0.765252
0.153700	-0.723057
0.153800	-0.645482
0.153900	-0.591601
0.154000	-0.574074
0.154100	-0.587057
0.154200	-0.593224
0.154300	-0.587057
0.154400	-0.565959
0.154500	-0.557844
0.154600	-0.557520
0.154700	-0.556546
0.154800	-0.562064
0.154900	-0.590627
0.155000	-0.609128
0.155100	-0.646131
0.155200	-0.692221
0.155300	-0.732794
0.155400	-0.735391
0.155500	-0.732794
0.155600	-0.763629
0.155700	-0.889243
0.155800	-0.976555
0.155900	-0.975906
0.156000	-0.902550
0.156100	-0.855811
0.156200	-0.888593
0.156300	-1.015830
0.156400	-1.113204
0.156500	-1.120994
0.156600	-1.037252
0.156700	-0.973309
0.156800	-0.999276
0.156900	-1.079448
0.157000	-1.144364
0.157100	-1.148584
0.157200	-1.137223
0.157300	-1.140145
0.157400	-1.178445
0.157500	-1.231028
0.157600	-1.276145
0.157700	-1.299514
0.157800	-1.314445
0.157900	-1.343982
0.158000	-1.375142
0.158100	-1.392345
0.158200	-1.390398
0.158300	-1.382283
0.158400	-1.393319
0.158500	-1.454665
0.158600	-1.498159
0.158700	-1.514713
0.158800	-1.479333
0.158900	-1.472517
0.159000	-1.490044
0.159100	-1.499133
0.159200	-1.506598
0.159300	-1.512441
0.159400	-1.509519
0.159500	-1.507247
0.159600	-1.506273
0.159700	-1.508546
0.159800	-1.510818
0.159900	-1.514388
0.160000	-1.513414
0.160100	-1.519581
0.160200	-1.524450
0.160300	-1.526398
0.160400	-1.534837
0.160500	-1.546522
0.160600	-1.555285
0.160700	-1.581252
0.160800	-1.670837
0.160900	-1.813978
0.161000	-1.889930
0.161100	-1.853901
0.161200	-1.765290
0.161300	-1.727963
0.161400	-1.819820
0.161500	-1.964909
0.161600	-2.085978
0.161700	-2.104155
0.161800	-2.048327
0.161900	-2.007429
0.162000	-2.032097
0.162100	-2.127200
0.162200	-2.218408
0.162300	-2.262551
0.162400	-2.270991
0.162500	-2.255411
0.162600	-2.257358
0.162700	-2.277807
0.162800	-2.319354
0.162900	-2.347917
0.163000	-2.363497
0.163100	-2.368041
0.163200	-2.382323
0.163300	-2.411211
0.163400	-2.435230
0.163500	-2.429387
0.163600	-2.432633
0.163700	-2.445292
0.163800	-2.474180
0.163900	-2.462170
0.164000	-2.387841
0.164100	-2.324222
0.164200	-2.346294
0.164300	-2.441721
0.164400	-2.524490
0.164500	-2.527412
0.164600	-2.428089
0.164700	-2.325196
0.164800	-2.313511
0.164900	-2.394981
0.165000	-2.507287
0.165100	-2.551431
0.165200	-2.511832
0.165300	-2.444967
0.165400	-2.411860
0.165500	-2.416729
0.165600	-2.437177
0.165700	-2.434905
0.165800	-2.419001
0.165900	-2.389464
0.166000	-2.350838
0.166100	-2.313836
0.166200	-2.244050
0.166300	-2.168422
0.166400	-2.094417
0.166500	-2.049950
0.166600	-2.022035
0.166700	-1.980489
0.166800	-1.899018
0.166900	-1.815925
0.167000	-1.741271
0.167100	-1.652660
0.167200	-1.593911
0.167300	-1.542302
0.167400	-1.481605
0.167500	-1.415715
0.167600	-1.331324
0.167700	-1.260240
0.167800	-1.201491
0.167900	-1.164164
0.168000	-1.146636
0.168100	-1.121319
0.168200	-1.110608
0.168300	-1.086913
0.168400	-1.061920
0.168500	-1.041796
0.168600	-1.013233
0.168700	-1.010636
0.168800	-1.002846
0.168900	-1.017128
0.169000	-0.997328
0.169100	-0.943448
0.169200	-0.802255
0.169300	-0.711696
0.169400	-0.733119
0.169500	-0.860355
0.169600	-0.956107
0.169700	-0.914235
0.169800	-0.817835
0.169900	-0.727925
0.170000	-0.727925
0.170100	-0.789271
0.170200	-0.863925
0.170300	-0.852240
0.170400	-0.787324
0.170500	-0.694169
0.170600	-0.632498
0.170700	-0.611725
0.170800	-0.609778
0.170900	-0.608479
0.171000	-0.607181
0.171100	-0.588680
0.171200	-0.571801
0.171300	-0.565959
0.171400	-0.576346
0.171500	-0.621787
0.171600	-0.661711
0.171700	-0.712345
0.171800	-0.770121
0.171900	-0.823677
0.172000	-0.862302
0.172100	-0.878531
0.172200	-0.910340
0.172300	-0.994083
0.172400	-1.133004
0.172500	-1.197596
0.172600	-1.185586
0.172700	-1.134302
0.172800	-1.121319
0.172900	-1.198569
0.173000	-1.333920
0.173100	-1.410197
0.173200	-1.387476
0.173300	-1.305357
0.173400	-1.263486
0.173500	-1.294646
0.173600	-1.363457
0.173700	-1.388125
0.173800	-1.378063
0.173900	-1.351772
0.174000	-1.342359
0.174100	-1.363782
0.174200	-1.385529
0.174300	-1.410197
0.174400	-1.416364
0.174500	-1.423505
0.174600	-1.441682
0.174700	-1.456937
0.174800	-1.444278
0.174900	-1.430646
0.175000	-1.422531
0.175100	-1.456288
0.175200	-1.512116
0.175300	-1.535810
0.175400	-1.532889
0.175500	-1.496211
0.175600	-1.494913
0.175700	-1.507247
0.175800	-1.506598
0.175900	-1.512116
0.176000	-1.511791
0.176100	-1.513739
0.176200	-1.527047
0.176300	-1.541328
0.176400	-1.554636
0.176500	-1.561452
0.176600	-1.579305
0.176700	-1.585472
0.176800	-1.590016
0.176900	-1.595858
0.177000	-1.593586
0.177100	-1.599753
0.177200	-1.615333
0.177300	-1.638703
0.177400	-1.690636
0.177500	-1.811381
0.177600	-1.941539
0.177700	-1.961338
0.177800	-1.873376
0.177900	-1.759123
0.178000	-1.730235
0.178100	-1.824689
0.178200	-1.938618
0.178300	-1.982112
0.178400	-1.924011
0.178500	-1.836374
0.178600	-1.797099
0.178700	-1.819820
0.178800	-1.902264
0.178900	-1.950303
0.179000	-1.964260
0.179100	-1.944460
0.179200	-1.936995
0.179300	-1.936995
0.179400	-1.950627
0.179500	-1.971400
0.179600	-1.979190
0.179700	-1.986980
0.179800	-1.983735
0.179900	-1.998016
0.180000	-2.017167
0.180100	-2.013921
0.180200	-1.990875
0.180300	-1.987630
0.180400	-1.986331
0.180500	-1.967181
0.180600	-1.910054
0.180700	-1.804240
0.180800	-1.759772
0.180900	-1.807486
0.181000	-1.899992
0.181100	-1.948680
0.181200	-1.892202
0.181300	-1.759448
0.181400	-1.668565
0.181500	-1.673109
0.181600	-1.759123
0.181700	-1.824040
0.181800	-1.817873
0.181900	-1.734780
0.182000	-1.657204
0.182100	-1.623123
0.182200	-1.621825
0.182300	-1.613710
0.182400	-1.593586
0.182500	-1.555285
0.182600	-1.521529
0.182700	-1.490044
0.182800	-1.434216
0.182900	-1.353720
0.183000	-1.271925
0.183100	-1.209605
0.183200	-1.175524
0.183300	-1.144364
0.183400	-1.095352
0.183500	-1.011285
0.183600	-0.935658
0.183700	-0.859706
0.183800	-0.798684
0.183900	-0.749997
0.184000	-0.700985
0.184100	-0.639315
0.184200	-0.572775
0.184300	-0.502990
0.184400	-0.447811
0.184500	-0.409835
0.184600	-0.400422
0.184700	-0.394580
0.184800	-0.391983
0.184900	-0.394255
0.185000	-0.399124
0.185100	-0.398150
0.185200	-0.402045
0.185300	-0.414055
0.185400	-0.438723
0.185500	-0.475076
0.185600	-0.504613
0.185700	-0.530904
0.185800	-0.460470
0.185900	-0.372184
0.186000	-0.317979
0.186100	-0.440021
0.186200	-0.592250
0.186300	-0.685730
0.186400	-0.640288
0.186500	-0.540642
0.186600	-0.489358
0.186700	-0.528308
0.186800	-0.643859
0.186900	-0.724680
0.187000	-0.722083
0.187100	-0.668202
0.187200	-0.607830
0.187300	-0.590952
0.187400	-0.604584
0.187500	-0.644832
0.187600	-0.673720
0.187700	-0.698713
0.187800	-0.710398
0.187900	-0.728250
0.188000	-0.744479
0.188100	-0.765901
0.188200	-0.809720
0.188300	-0.838283
0.188400	-0.875935
0.188500	-0.907744
0.188600	-0.932737
0.188700	-0.944097
0.188800	-0.938579
0.188900	-0.950589
0.189000	-1.030111
0.189100	-1.129433
0.189200	-1.144040
0.189300	-1.072307
0.189400	-1.000899
0.189500	-0.997653
0.189600	-1.100546
0.189700	-1.220316
0.189800	-1.274522
0.189900	-1.237844
0.190000	-1.171629
0.190100	-1.160593
0.190200	-1.229729
0.190300	-1.311524
0.190400	-1.356316
0.190500	-1.368975
0.190600	-1.377090
0.190700	-1.403056
0.190800	-1.446226
0.190900	-1.486474
0.191000	-1.517309
0.191100	-1.540355
0.191200	-1.563400
0.191300	-1.587095
0.191400	-1.596832
0.191500	-1.586445
0.191600	-1.588068
0.191700	-1.597806
0.191800	-1.646493
0.191900	-1.697777
0.192000	-1.722445
0.192100	-1.717577
0.192200	-1.691610
0.192300	-1.695830
0.192400	-1.705892
0.192500	-1.704593
0.192600	-1.696803
0.192700	-1.682197
0.192800	-1.675056
0.192900	-1.661749
0.193000	-1.645195
0.193100	-1.635782
0.193200	-1.624746
0.193300	-1.617605
0.193400	-1.613061
0.193500	-1.619877
0.193600	-1.619553
0.193700	-1.628966
0.193800	-1.638054
0.193900	-1.657204
0.194000	-1.680574
0.194100	-1.753281
0.194200	-1.905186
0.194300	-2.022360
0.194400	-2.029825
0.194500	-1.948680
0.194600	-1.887658
0.194700	-1.929205
0.194800	-2.071372
0.194900	-2.229444
0.195000	-2.283974
0.195100	-2.247945
0.195200	-2.186924
0.195300	-2.187897
0.195400	-2.264824
0.195500	-2.363497
0.195600	-2.429063
0.195700	-2.447564
0.195800	-2.441721
0.195900	-2.439774
0.196000	-2.437177
0.196100	-2.460872
0.196200	-2.467688
0.196300	-2.468986
0.196400	-2.459898
0.196500	-2.454705
0.196600	-2.454056
0.196700	-2.471259
0.196800	-2.465091
0.196900	-2.453406
0.197000	-2.454705
0.197100	-2.461196
0.197200	-2.452757
0.197300	-2.374857
0.197400	-2.289492
0.197500	-2.281377
0.197600	-2.369664
0.197700	-2.461521
0.197800	-2.491707
0.197900	-2.406991
0.198000	-2.289492
0.198100	-2.239506
0.198200	-2.292413
0.198300	-2.390437
0.198400	-2.454705
0.198500	-2.437502
0.198600	-2.382323
0.198700	-2.331688
0.198800	-2.307669
0.198900	-2.309616
0.199000	-2.297931
0.199100	-2.270341
0.199200	-2.241778
0.199300	-2.196661
0.199400	-2.153816
0.199500	-2.095716
0.199600	-2.015219
0.199700	-1.939916
0.199800	-1.885061
0.199900	-1.841892
0.200000	-1.802942
0.200100	-1.722770
0.200200	-1.623123
0.200300	-1.505949
0.200400	-1.399810
0.200500	-1.321261
0.200600	-1.244985
0.200700	-1.172603
0.200800	-1.090159
0.200900	-1.003820
0.201000	-0.918780
0.201100	-0.844450
0.201200	-0.780183
0.201300	-0.725329
0.201400	-0.685081
0.201500	-0.649052
0.201600	-0.625682
0.201700	-0.580565
0.201800	-0.536747
0.201900	-0.503315
0.202000	-0.472804
0.202100	-0.478971
0.202200	-0.476050
0.202300	-0.494876
0.202400	-0.448136
0.202500	-0.358551
0.202600	-0.206647
0.202700	-0.196910
0.202800	-0.315057
0.202900	-0.443267
0.203000	-0.456900
0.203100	-0.361797
0.203200	-0.260528
0.203300	-0.221902
0.203400	-0.291038
0.203500	-0.382895
0.203600	-0.424117
0.203700	-0.401396
0.203800	-0.339401
0.203900	-0.295907
0.204000	-0.280976
0.204100	-0.296556
0.204200	-0.312461
0.204300	-0.336804
0.204400	-0.345243
0.204500	-0.358551
0.204600	-0.383219
0.204700	-0.399773
0.204800	-0.428336
0.204900	-0.493577
0.205000	-0.548107
0.205100	-0.619840
0.205200	-0.697090
0.205300	-0.755515
0.205400	-0.782455
0.205500	-0.835037
0.205600	-0.903200
0.205700	-1.059324
0.205800	-1.154751
0.205900	-1.169032
0.206000	-1.110283
0.206100	-1.091133
0.206200	-1.157023
0.206300	-1.305357
0.206400	-1.427400
0.206500	-1.451094
0.206600	-1.400784
0.206700	-1.357939
0.206800	-1.390398
0.206900	-1.469271
0.207000	-1.523476
0.207100	-1.516660
0.207200	-1.506598
0.207300	-1.497510
0.207400	-1.525424
0.207500	-1.557882
0.207600	-1.569892
0.207700	-1.555610
0.207800	-1.551390
0.207900	-1.564698
0.208000	-1.572813
0.208100	-1.559830
0.208200	-1.524125
0.208300	-1.494264
0.208400	-1.490369
0.208500	-1.531915
0.208600	-1.552689
0.208700	-1.539705
0.208800	-1.512116
0.208900	-1.477386
0.209000	-1.476736
0.209100	-1.465051
0.209200	-1.448822
0.209300	-1.432269
0.209400	-1.414741
0.209500	-1.393968
0.209600	-1.371896
0.209700	-1.345605
0.209800	-1.323858
0.209900	-1.305682
0.210000	-1.285882
0.210100	-1.278417
0.210200	-1.255047
0.210300	-1.246608
0.210400	-1.237519
0.210500	-1.236870
0.210600	-1.242388
0.210700	-1.257968
0.210800	-1.350798
0.210900	-1.486799
0.211000	-1.549443
0.211100	-1.498808
0.211200	-1.384230
0.211300	-1.323534
0.211400	-1.384230
0.211500	-1.526722
0.211600	-1.623123
0.211700	-1.612412
0.211800	-1.525748
0.211900	-1.472841
0.212000	-1.490044
0.212100	-1.583200
0.212200	-1.666617
0.212300	-1.701672
0.212400	-1.707515
0.212500	-1.714980
0.212600	-1.724068
0.212700	-1.754904
0.212800	-1.785090
0.212900	-1.802293
0.213000	-1.824689
0.213100	-1.840269
0.213200	-1.869806
0.213300	-1.916546
0.213400	-1.949329
0.213500	-1.962312
0.213600	-1.987954
0.213700	-2.033396
0.213800	-2.077864
0.213900	-2.069425
0.214000	-1.996069
0.214100	-1.940565
0.214200	-1.980164
0.214300	-2.102532
0.214400	-2.202828
0.214500	-2.223926
0.214600	-2.144079
0.214700	-2.066828
0.214800	-2.080136
0.214900	-2.196337
0.215000	-2.319354
0.215100	-2.372585
0.215200	-2.345645
0.215300	-2.313511
0.215400	-2.320327
0.215500	-2.367716
0.215600	-2.429387
0.215700	-2.456328
0.215800	-2.470609
0.215900	-2.477750
0.216000	-2.479698
0.216100	-2.481645
0.216200	-2.468337
0.216300	-2.421273
0.216400	-2.368690
0.216500	-2.342724
0.216600	-2.337206
0.216700	-2.324222
0.216800	-2.254761
0.216900	-2.173940
0.217000	-2.066503
0.217100	-2.002236
0.217200	-1.961338
0.217300	-1.924011
0.217400	-1.871104
0.217500	-1.807811
0.217600	-1.736403
0.217700	-1.664345
0.217800	-1.602350
0.217900	-1.573787
0.218000	-1.540030
0.218100	-1.517309
0.218200	-1.491992
0.218300	-1.471868
0.218400	-1.440383
0.218500	-1.405653
0.218600	-1.373519
0.218700	-1.358264
0.218800	-1.356316
0.218900	-1.359238
0.219000	-1.345281
0.219100	-1.287830
0.219200	-1.132355
0.219300	-1.046665
0.219400	-1.051209
0.219500	-1.200192
0.219600	-1.275820
0.219700	-1.250178
0.219800	-1.115476
0.219900	-1.014856
0.220000	-1.003820
0.220100	-1.074904
0.220200	-1.148908
0.220300	-1.154426
0.220400	-1.095028
0.220500	-1.004794
0.220600	-0.960975
0.220700	-0.948317
0.220800	-0.958703
0.220900	-0.953185
0.221000	-0.931438
0.221100	-0.876909
0.221200	-0.832116
0.221300	-0.792517
0.221400	-0.760384
0.221500	-0.740909
0.221600	-0.736689
0.221700	-0.723706
0.221800	-0.721434
0.221900	-0.721434
0.222000	-0.701634
0.222100	-0.652622
0.222200	-0.607505
0.222300	-0.623410
0.222400	-0.700985
0.222500	-0.707152
0.222600	-0.627630
0.222700	-0.505911
0.222800	-0.434179
0.222900	-0.463067
0.223000	-0.554274
0.223100	-0.592250
0.223200	-0.546484
0.223300	-0.448136
0.223400	-0.386790
0.223500	-0.413406
0.223600	-0.479296
0.223700	-0.515324
0.223800	-0.525062
0.223900	-0.517596
0.224000	-0.526035
0.224100	-0.560766
0.224200	-0.609453
0.224300	-0.647104
0.224400	-0.680212
0.224500	-0.725978
0.224600	-0.769472
0.224700	-0.800307
0.224800	-0.815238
0.224900	-0.824326
0.225000	-0.846073
0.225100	-0.901577
0.225200	-0.963247
0.225300	-0.997978
0.225400	-1.012259
0.225500	-0.994083
0.225600	-0.996355
0.225700	-1.003171
0.225800	-1.009987
0.225900	-1.010312
0.226000	-1.011610
0.226100	-1.017453
0.226200	-1.014856
0.226300	-1.020049
0.226400	-1.027839
0.226500	-1.039524
0.226600	-1.057052
0.226700	-1.076202
0.226800	-1.093080
0.226900	-1.114503
0.227000	-1.134627
0.227100	-1.159295
0.227200	-1.188183
0.227300	-1.227133
0.227400	-1.293347
0.227500	-1.430321
0.227600	-1.589691
0.227700	-1.639028
0.227800	-1.595858
0.227900	-1.507572
0.228000	-1.519906
0.228100	-1.634484
0.228200	-1.786388
0.228300	-1.861367
0.228400	-1.825663
0.228500	-1.743868
0.228600	-1.700374
0.228700	-1.749061
0.228800	-1.830207
0.228900	-1.886035
0.229000	-1.901291
0.229100	-1.878894
0.229200	-1.859419
0.229300	-1.848708
0.229400	-1.858121
0.229500	-1.880193
0.229600	-1.889930
0.229700	-1.892527
0.229800	-1.889606
0.229900	-1.894474
0.230000	-1.900317
0.230100	-1.899343
0.230200	-1.878894
0.230300	-1.891228
0.230400	-1.908756
0.230500	-1.924336
0.230600	-1.875649
0.230700	-1.780870
0.230800	-1.740298
0.230900	-1.807486
0.231000	-1.911677
0.231100	-1.980489
0.231200	-1.943811
0.231300	-1.837348
0.231400	-1.766913
0.231500	-1.802942
0.231600	-1.918818
0.231700	-2.009052
0.231800	-2.025606
0.231900	-1.976918
0.232000	-1.924985
0.232100	-1.917520
0.232200	-1.933100
0.232300	-1.948680
0.232400	-1.946408
0.232500	-1.943811
0.232600	-1.930178
0.232700	-1.903238
0.232800	-1.869157
0.232900	-1.819171
0.233000	-1.758150
0.233100	-1.702646
0.233200	-1.664345
0.233300	-1.632861
0.233400	-1.584173
0.233500	-1.488097
0.233600	-1.406951
0.233700	-1.309252
0.233800	-1.245309
0.233900	-1.191753
0.234000	-1.136899
0.234100	-1.080097
0.234200	-1.008040
0.234300	-0.928192
0.234400	-0.854837
0.234500	-0.802255
0.234600	-0.774990
0.234700	-0.740909
0.234800	-0.717214
0.234900	-0.690274
0.235000	-0.651324
0.235100	-0.620489
0.235200	-0.580241
0.235300	-0.541940
0.235400	-0.520518
0.235500	-0.502016
0.235600	-0.497797
0.235700	-0.446188
0.235800	-0.353358
0.235900	-0.175163
0.236000	-0.114141
0.236100	-0.154065
0.236200	-0.259878
0.236300	-0.263773
0.236400	-0.156986
0.236500	-0.011249
0.236600	0.103329
0.236700	0.097161
0.236800	0.047176
0.236900	0.023157
0.237000	0.074441
0.237100	0.170192
0.237200	0.243223
0.237300	0.286393
0.237400	0.284445
0.237500	0.287691
0.237600	0.281524
0.237700	0.284120
0.237800	0.289963
0.237900	0.296130
0.238000	0.310736
0.238100	0.315280
0.238200	0.300350
0.238300	0.258803
0.238400	0.217906
0.238500	0.160455
0.238600	0.110469
0.238700	0.093591
0.238800	0.062431
0.238900	0.023157
0.239000	-0.107974
0.239100	-0.250790
0.239200	-0.308241
0.239300	-0.287792
0.239400	-0.281301
0.239500	-0.348165
0.239600	-0.512403
0.239700	-0.686703
0.239800	-0.782780
0.239900	-0.786350
0.240000	-0.781157
0.240100	-0.840555
0.240200	-0.961624
0.240300	-1.083343
0.240400	-1.148908
0.240500	-1.201491
0.240600	-1.249529
0.240700	-1.324183
0.240800	-1.409548
0.240900	-1.478359
0.241000	-1.520555
0.241100	-1.563725
0.241200	-1.609815
0.241300	-1.663696
0.241400	-1.699076
0.241500	-1.704918
0.241600	-1.710760
0.241700	-1.734780
0.241800	-1.798398
0.241900	-1.865586
0.242000	-1.895123
0.242100	-1.917195
0.242200	-1.901291
0.242300	-1.922064
0.242400	-1.937319
0.242500	-1.936346
0.242600	-1.934723
0.242700	-1.934398
0.242800	-1.930503
0.242900	-1.922713
0.243000	-1.910703
0.243100	-1.901940
0.243200	-1.896422
0.243300	-1.884088
0.243400	-1.867859
0.243500	-1.854875
0.243600	-1.837348
0.243700	-1.826637
0.243800	-1.818522
0.243900	-1.825987
0.244000	-1.826637
0.244100	-1.883763
0.244200	-2.011649
0.244300	-2.096365
0.244400	-2.068126
0.244500	-1.953224
0.244600	-1.880517
0.244700	-1.913949
0.244800	-2.043458
0.244900	-2.146351
0.245000	-2.159334
0.245100	-2.084355
0.245200	-2.008403
0.245300	-2.010675
0.245400	-2.076890
0.245500	-2.154790
0.245600	-2.194389
0.245700	-2.189520
0.245800	-2.167124
0.245900	-2.154141
0.246000	-2.157711
0.246100	-2.169072
0.246200	-2.161282
0.246300	-2.158360
0.246400	-2.167124
0.246500	-2.173291
0.246600	-2.197310
0.246700	-2.215811
0.246800	-2.207048
0.246900	-2.200232
0.247000	-2.218408
0.247100	-2.246647
0.247200	-2.255086
0.247300	-2.198933
0.247400	-2.117787
0.247500	-2.117463
0.247600	-2.213215
0.247700	-2.302475
0.247800	-2.334934
0.247900	-2.247945
0.248000	-2.129148
0.248100	-2.091496
0.248200	-2.154141
0.248300	-2.263850
0.248400	-2.310914
0.248500	-2.261902
0.248600	-2.175563
0.248700	-2.117138
0.248800	-2.096689
0.248900	-2.089873
0.249000	-2.062608
0.249100	-2.014570
0.249200	-1.963935
0.249300	-1.914923
0.249400	-1.854551
0.249500	-1.781520
0.249600	-1.686092
0.249700	-1.587744
0.249800	-1.513739
0.249900	-1.463429
0.250000	-1.410197
0.250100	-1.319963
0.250200	-1.202464
0.250300	-1.065815
0.250400	-0.957729
0.250500	-0.878207
0.250600	-0.806474
0.250700	-0.730847
0.250800	-0.640613
0.250900	-0.543238
0.251000	-0.448785
0.251100	-0.371210
0.251200	-0.314733
0.251300	-0.284547
0.251400	-0.256957
0.251500	-0.236184
0.251600	-0.225473
0.251700	-0.208919
0.251800	-0.199182
0.251900	-0.190093
0.252000	-0.187821
0.252100	-0.208919
0.252200	-0.232289
0.252300	-0.248843
0.252400	-0.229368
0.252500	-0.130695
0.252600	-0.031048
0.252700	-0.039487
0.252800	-0.167048
0.252900	-0.294284
0.253000	-0.310838
0.253100	-0.209244
0.253200	-0.112518
0.253300	-0.081358
0.253400	-0.169320
0.253500	-0.280976
0.253600	-0.355955
0.253700	-0.348165
0.253800	-0.307267
0.253900	-0.288766
0.254000	-0.315382
0.254100	-0.357902
0.254200	-0.411783
0.254300	-0.458198
0.254400	-0.487410
0.254500	-0.506885
0.254600	-0.534799
0.254700	-0.547458
0.254800	-0.585434
0.254900	-0.627305
0.255000	-0.683782
0.255100	-0.723057
0.255200	-0.783429
0.255300	-0.807773
0.255400	-0.807448
0.255500	-0.805825
0.255600	-0.837309
0.255700	-0.962923
0.255800	-1.031085
0.255900	-1.016803
0.256000	-0.931438
0.256100	-0.874312
0.256200	-0.911963
0.256300	-1.025243
0.256400	-1.110932
0.256500	-1.113853
0.256600	-1.034331
0.256700	-0.977204
0.256800	-0.996355
0.256900	-1.086913
0.257000	-1.161242
0.257100	-1.188832
0.257200	-1.201166
0.257300	-1.217071
0.257400	-1.268355
0.257500	-1.318665
0.257600	-1.357939
0.257700	-1.384555
0.257800	-1.421882
0.257900	-1.459534
0.258000	-1.506273
0.258100	-1.530617
0.258200	-1.547820
0.258300	-1.558531
0.258400	-1.597481
0.258500	-1.673109
0.258600	-1.727639
0.258700	-1.751982
0.258800	-1.776002
0.258900	-1.784765
0.259000	-1.810083
0.259100	-1.816899
0.259200	-1.820469
0.259300	-1.825987
0.259400	-1.823066
0.259500	-1.828584
0.259600	-1.831830
0.259700	-1.837997
0.259800	-1.835400
0.259900	-1.848059
0.260000	-1.861042
0.260100	-1.881816
0.260200	-1.906484
0.260300	-1.929854
0.260400	-1.961988
0.260500	-2.001911
0.260600	-2.046055
0.260700	-2.109348
0.260800	-2.244050
0.260900	-2.423545
0.261000	-2.519946
0.261100	-2.504042
0.261200	-2.413483
0.261300	-2.406991
0.261400	-2.514753
0.261500	-2.677369
0.261600	-2.792272
0.261700	-2.791623
0.261800	-2.719890
0.261900	-2.661140
0.262000	-2.685808
0.262100	-2.769876
0.262200	-2.843556
0.262300	-2.874392
0.262400	-2.857838
0.262500	-2.821160
0.262600	-2.788052
0.262700	-2.764682
0.262800	-2.749751
0.262900	-2.724434
0.263000	-2.692949
0.263100	-2.652701
0.263200	-2.605636
0.263300	-2.565712
0.263400	-2.513779
0.263500	-2.446266
0.263600	-2.385244
0.263700	-2.334934
0.263800	-2.274886
0.263900	-2.176212
0.264000	-2.024957
0.264100	-1.912002
0.264200	-1.891553
0.264300	-1.942837
0.264400	-1.972050
0.264500	-1.913300
0.264600	-1.752632
0.264700	-1.605271
0.264800	-1.549118
0.264900	-1.592612
0.265000	-1.649414
0.265100	-1.635782
0.265200	-1.541004
0.265300	-1.430321
0.265400	-1.350149
0.265500	-1.299190
0.265600	-1.258942
0.265700	-1.201491
0.265800	-1.137548
0.265900	-1.074904
0.266000	-1.003820
0.266100	-0.939553
0.266200	-0.849319
0.266300	-0.751620
0.266400	-0.676966
0.266500	-0.626331
0.266600	-0.589329
0.266700	-0.540966
0.266800	-0.457549
0.266900	-0.380298
0.267000	-0.276757
0.267100	-0.210867
0.267200	-0.167697
0.267300	-0.131344
0.267400	-0.098561
0.267500	-0.067077
0.267600	-0.023583
0.267700	0.010823
0.267800	0.036140
0.267900	0.035816
0.268000	0.034517
0.268100	0.024455
0.268200	0.003033
0.268300	-0.026829
0.268400	-0.049874
0.268500	-0.075516
0.268600	-0.090447
0.268700	-0.138485
0.268800	-0.187497
0.268900	-0.247544
0.269000	-0.288766
0.269100	-0.271888
0.269200	-0.191392
0.269300	-0.115764
0.269400	-0.206647
0.269500	-0.371535
0.269600	-0.482217
0.269700	-0.483191
0.269800	-0.394580
0.269900	-0.325119
0.270000	-0.340050
0.270100	-0.445215
0.270200	-0.539668
0.270300	-0.566933
0.270400	-0.517272
0.270500	-0.452031
0.270600	-0.413730
0.270700	-0.415028
0.270800	-0.420546
0.270900	-0.426389
0.271000	-0.424441
0.271100	-0.399449
0.271200	-0.379324
0.271300	-0.355305
0.271400	-0.340699
0.271500	-0.341998
0.271600	-0.372184
0.271700	-0.389711
0.271800	-0.432556
0.271900	-0.462417
0.272000	-0.477997
0.272100	-0.471506
0.272200	-0.478971
0.272300	-0.541291
0.272400	-0.639639
0.272500	-0.661711
0.272600	-0.598742
0.272700	-0.492928
0.272800	-0.453329
0.272900	-0.513377
0.273000	-0.634121
0.273100	-0.688326
0.273200	-0.653272
0.273300	-0.570828
0.273400	-0.537720
0.273500	-0.582188
0.273600	-0.664632
0.273700	-0.700336
0.273800	-0.713968
0.273900	-0.716565
0.274000	-0.746427
0.274100	-0.802579
0.274200	-0.849644
0.274300	-0.880803
0.274400	-0.898006
0.274500	-0.933386
0.274600	-0.978827
0.274700	-1.001873
0.274800	-1.014531
0.274900	-1.019075
0.275000	-1.035954
0.275100	-1.088536
0.275200	-1.174875
0.275300	-1.238493
0.275400	-1.282961
0.275500	-1.309901
0.275600	-1.338464
0.275700	-1.388125
0.275800	-1.424803
0.275900	-1.450770
0.276000	-1.481605
0.276100	-1.501729
0.276200	-1.522503
0.276300	-1.545873
0.276400	-1.568918
0.276500	-1.591314
0.276600	-1.617605
0.276700	-1.637729
0.276800	-1.659476
0.276900	-1.678302
0.277000	-1.701023
0.277100	-1.728937
0.277200	-1.763992
0.277300	-1.797424
0.277400	-1.859095
0.277500	-2.001587
0.277600	-2.134017
0.277700	-2.160308
0.277800	-2.078837
0.277900	-1.984384
0.278000	-1.985033
0.278100	-2.100909
0.278200	-2.243726
0.278300	-2.302475
0.278400	-2.251840
0.278500	-2.149921
0.278600	-2.111296
0.278700	-2.149597
0.278800	-2.241129
0.278900	-2.297931
0.279000	-2.311564
0.279100	-2.303449
0.279200	-2.300852
0.279300	-2.314160
0.279400	-2.344346
0.279500	-2.361874
0.279600	-2.373234
0.279700	-2.370962
0.279800	-2.382323
0.279900	-2.405368
0.280000	-2.441721
0.280100	-2.465091
0.280200	-2.474504
0.280300	-2.486189
0.280400	-2.517674
0.280500	-2.540719
0.280600	-2.503717
0.280700	-2.422571
0.280800	-2.424843
0.280900	-2.530008
0.281000	-2.671202
0.281100	-2.769226
0.281200	-2.752997
0.281300	-2.676395
0.281400	-2.640367
0.281500	-2.701388
0.281600	-2.836740
0.281700	-2.945476
0.281800	-2.967872
0.281900	-2.926650
0.282000	-2.890296
0.282100	-2.891919
0.282200	-2.911719
0.282300	-2.924378
0.282400	-2.910096
0.282500	-2.883155
0.282600	-2.855890
0.282700	-2.817914
0.282800	-2.764358
0.282900	-2.676395
0.283000	-2.570257
0.283100	-2.470934
0.283200	-2.377779
0.283300	-2.295010
0.283400	-2.179458
0.283500	-2.021386
0.283600	-1.861691
0.283700	-1.685443
0.283800	-1.543925
0.283900	-1.411171
0.284000	-1.282312
0.284100	-1.133653
0.284200	-0.981749
0.284300	-0.823352
0.284400	-0.670474
0.284500	-0.548756
0.284600	-0.448136
0.284700	-0.359200
0.284800	-0.289415
0.284900	-0.215735
0.285000	-0.139459
0.285100	-0.065129
0.285200	-0.007678
0.285300	0.054966
0.285400	0.082555
0.285500	0.126049
0.285600	0.135138
0.285700	0.197457
0.285800	0.288015
0.285900	0.471404
0.286000	0.512301
0.286100	0.457447
0.286200	0.331185
0.286300	0.307490
0.286400	0.407137
0.286500	0.545733
0.286600	0.641809
0.286700	0.625580
0.286800	0.557094
0.286900	0.500616
0.287000	0.516521
0.287100	0.578516
0.287200	0.632396
0.287300	0.643108
0.287400	0.603184
0.287500	0.558067
0.287600	0.491853
0.287700	0.444139
0.287800	0.404216
0.287900	0.347089
0.288000	0.303920
0.288100	0.243548
0.288200	0.152016
0.288300	0.062431
0.288400	-0.028452
0.288500	-0.128423
0.288600	-0.214762
0.288700	-0.263773
0.288800	-0.312461
0.288900	-0.368613
0.289000	-0.528308
0.289100	-0.666579
0.289200	-0.708450
0.289300	-0.670474
0.289400	-0.633797
0.289500	-0.669176
0.289600	-0.798684
0.289700	-0.929815
0.289800	-0.973634
0.289900	-0.924622
0.290000	-0.858407
0.290100	-0.847372
0.290200	-0.895734
0.290300	-0.940527
0.290400	-0.950589
0.290500	-0.938255
0.290600	-0.914235
0.290700	-0.920402
0.290800	-0.919753
0.290900	-0.922350
0.291000	-0.910990
0.291100	-0.897682
0.291200	-0.864899
0.291300	-0.826923
0.291400	-0.778560
0.291500	-0.731496
0.291600	-0.678264
0.291700	-0.646131
0.291800	-0.656517
0.291900	-0.666904
0.292000	-0.651324
0.292100	-0.630551
0.292200	-0.603935
0.292300	-0.591926
0.292400	-0.581864
0.292500	-0.568880
0.292600	-0.558494
0.292700	-0.543887
0.292800	-0.535773
0.292900	-0.529930
0.293000	-0.535124
0.293100	-0.534150
0.293200	-0.546809
0.293300	-0.552327
0.293400	-0.567257
0.293500	-0.579591
0.293600	-0.599716
0.293700	-0.619515
0.293800	-0.656517
0.293900	-0.704231
0.294000	-0.764279
0.294100	-0.886321
0.294200	-1.083343
0.294300	-1.246283
0.294400	-1.292374
0.294500	-1.264784
0.294600	-1.266732
0.294700	-1.389748
0.294800	-1.598455
0.294900	-1.805539
0.295000	-1.908431
0.295100	-1.933424
0.295200	-1.956794
0.295300	-2.040861
0.295400	-2.193091
0.295500	-2.357330
0.295600	-2.471259
0.295700	-2.540719
0.295800	-2.596872
0.295900	-2.656271
0.296000	-2.731899
0.296100	-2.817589
0.296200	-2.890945
0.296300	-2.942230
0.296400	-3.000006
0.296500	-3.057457
0.296600	-3.110040
0.296700	-3.154508
0.296800	-3.176904
0.296900	-3.200923
0.297000	-3.245391
0.297100	-3.284342
0.297200	-3.283368
0.297300	-3.206766
0.297400	-3.113610
0.297500	-3.101601
0.297600	-3.167491
0.297700	-3.220074
0.297800	-3.214556
0.297900	-3.091214
0.298000	-2.951643
0.298100	-2.883805
0.298200	-2.925676
0.298300	-2.996111
0.298400	-3.022402
0.298500	-2.970793
0.298600	-2.897437
0.298700	-2.857513
0.298800	-2.853943
0.298900	-2.844530
0.299000	-2.820835
0.299100	-2.788052
0.299200	-2.755594
0.299300	-2.711126
0.299400	-2.647183
0.299500	-2.553054
0.299600	-2.435230
0.299700	-2.318380
0.299800	-2.231067
0.299900	-2.153167
0.300000	-2.065530
0.300100	-1.938618
0.300200	-1.801644
0.300300	-1.655906
0.300400	-1.513090
0.300500	-1.397863
0.300600	-1.291075
0.300700	-1.177796
0.300800	-1.061920
0.300900	-0.950264
0.301000	-0.843152
0.301100	-0.741558
0.301200	-0.668527
0.301300	-0.608479
0.301400	-0.549081
0.301500	-0.515000
0.301600	-0.474102
0.301700	-0.432556
0.301800	-0.384518
0.301900	-0.327716
0.302000	-0.288442
0.302100	-0.252088
0.302200	-0.242026
0.302300	-0.199182
0.302400	-0.140108
0.302500	0.019911
0.302600	0.144875
0.302700	0.176359
0.302800	0.072169
0.302900	-0.004757
0.303000	0.019586
0.303100	0.134164
0.303200	0.255882
0.303300	0.287366
0.303400	0.238354
0.303500	0.159157
0.303600	0.129944
0.303700	0.176684
0.303800	0.230240
0.303900	0.262373
0.304000	0.226670
0.304100	0.195834
0.304200	0.151042
0.304300	0.121505
0.304400	0.094565
0.304500	0.061782
0.304600	0.013419
0.304700	-0.028127
0.304800	-0.082657
0.304900	-0.141731
0.305000	-0.223850
0.305100	-0.280976
0.305200	-0.367640
0.305300	-0.415678
0.305400	-0.437749
0.305500	-0.442942
0.305600	-0.504288
0.305700	-0.642560
0.305800	-0.724030
0.305900	-0.711696
0.306000	-0.637042
0.306100	-0.594198
0.306200	-0.645157
0.306300	-0.770121
0.306400	-0.848345
0.306500	-0.839257
0.306600	-0.749672
0.306700	-0.704231
0.306800	-0.740259
0.306900	-0.824002
0.307000	-0.874312
0.307100	-0.880479
0.307200	-0.868469
0.307300	-0.877882
0.307400	-0.901901
0.307500	-0.940851
0.307600	-0.971686
0.307700	-0.979152
0.307800	-0.985319
0.307900	-1.005443
0.308000	-1.017128
0.308100	-0.991811
0.308200	-0.945071
0.308300	-0.926245
0.308400	-0.935009
0.308500	-0.985968
0.308600	-1.022970
0.308700	-1.027839
0.308800	-1.034655
0.308900	-1.027839
0.309000	-1.047314
0.309100	-1.057701
0.309200	-1.064517
0.309300	-1.070359
0.309400	-1.082044
0.309500	-1.091133
0.309600	-1.102168
0.309700	-1.119371
0.309800	-1.137223
0.309900	-1.156698
0.310000	-1.176173
0.310100	-1.196622
0.310200	-1.216097
0.310300	-1.236870
0.310400	-1.258617
0.310500	-1.288154
0.310600	-1.317691
0.310700	-1.371896
0.310800	-1.493290
0.310900	-1.669538
0.311000	-1.754904
0.311100	-1.724393
0.311200	-1.653309
0.311300	-1.648441
0.311400	-1.757825
0.311500	-1.930828
0.311600	-2.051897
0.311700	-2.066179
0.311800	-2.024632
0.311900	-2.011649
0.312000	-2.089549
0.312100	-2.208671
0.312200	-2.313511
0.312300	-2.357979
0.312400	-2.368690
0.312500	-2.355707
0.312600	-2.369664
0.312700	-2.396929
0.312800	-2.422246
0.312900	-2.431984
0.313000	-2.431335
0.313100	-2.419001
0.313200	-2.426466
0.313300	-2.446915
0.313400	-2.440748
0.313500	-2.416404
0.313600	-2.387841
0.313700	-2.388165
0.313800	-2.393359
0.313900	-2.350838
0.314000	-2.251191
0.314100	-2.185625
0.314200	-2.201530
0.314300	-2.282026
0.314400	-2.345320
0.314500	-2.307019
0.314600	-2.184652
0.314700	-2.074293
0.314800	-2.055143
0.314900	-2.128499
0.315000	-2.202828
0.315100	-2.190819
0.315200	-2.104804
0.315300	-2.002236
0.315400	-1.932775
0.315500	-1.902589
0.315600	-1.880517
0.315700	-1.833453
0.315800	-1.780546
0.315900	-1.730560
0.316000	-1.685443
0.316100	-1.638054
0.316200	-1.566646
0.316300	-1.491667
0.316400	-1.438436
0.316500	-1.415066
0.316600	-1.402732
0.316700	-1.381309
0.316800	-1.320612
0.316900	-1.271600
0.317000	-1.201491
0.317100	-1.158970
0.317200	-1.140469
0.317300	-1.128784
0.317400	-1.105739
0.317500	-1.072307
0.317600	-1.029462
0.317700	-0.981099
0.317800	-0.952536
0.317900	-0.949615
0.318000	-0.955133
0.318100	-0.961624
0.318200	-0.968765
0.318300	-0.978827
0.318400	-0.971362
0.318500	-0.978178
0.318600	-0.972660
0.318700	-0.988565
0.318800	-1.000899
0.318900	-1.022646
0.319000	-1.012259
0.319100	-0.949290
0.319200	-0.823028
0.319300	-0.749672
0.319400	-0.796737
0.319500	-0.944097
0.319600	-1.017128
0.319700	-0.960651
0.319800	-0.850293
0.319900	-0.774665
0.320000	-0.783104
0.320100	-0.867171
0.320200	-0.940202
0.320300	-0.939228
0.320400	-0.871066
0.320500	-0.786026
0.320600	-0.736040
0.320700	-0.722083
0.320800	-0.715267
0.320900	-0.714293
0.321000	-0.694493
0.321100	-0.658140
0.321200	-0.635095
0.321300	-0.603935
0.321400	-0.598742
0.321500	-0.621787
0.321600	-0.655219
0.321700	-0.681510
0.321800	-0.725978
0.321900	-0.765577
0.322000	-0.790894
0.322100	-0.801930
0.322200	-0.829520
0.322300	-0.914885
0.322400	-1.025892
0.322500	-1.053481
0.322600	-1.007715
0.322700	-0.928517
0.322800	-0.913262
0.322900	-0.978827
0.323000	-1.078799
0.323100	-1.112231
0.323200	-1.049262
0.323300	-0.936956
0.323400	-0.885672
0.323500	-0.911639
0.323600	-0.956756
0.323700	-0.968116
0.323800	-0.955133
0.323900	-0.940527
0.324000	-0.950589
0.324100	-0.976555
0.324200	-0.986293
0.324300	-0.985968
0.324400	-0.977529
0.324500	-0.995381
0.324600	-1.009663
0.324700	-1.001223
0.324800	-0.972660
0.324900	-0.942149
0.325000	-0.913586
0.325100	-0.934035
0.325200	-0.968116
0.325300	-0.975257
0.325400	-0.962923
0.325500	-0.950913
0.325600	-0.928517
0.325700	-0.928517
0.325800	-0.922025
0.325900	-0.918455
0.326000	-0.910016
0.326100	-0.907744
0.326200	-0.907095
0.326300	-0.913911
0.326400	-0.921701
0.326500	-0.923973
0.326600	-0.925920
0.326700	-0.930789
0.326800	-0.946369
0.326900	-0.957405
0.327000	-0.977529
0.327100	-1.002197
0.327200	-1.039849
0.327300	-1.085290
0.327400	-1.164164
0.327500	-1.323534
0.327600	-1.467648
0.327700	-1.510493
0.327800	-1.465376
0.327900	-1.422856
0.328000	-1.488746
0.328100	-1.662073
0.328200	-1.843515
0.328300	-1.931152
0.328400	-1.922713
0.328500	-1.887009
0.328600	-1.908756
0.328700	-1.996718
0.328800	-2.122332
0.328900	-2.212890
0.329000	-2.258656
0.329100	-2.269368
0.329200	-2.281702
0.329300	-2.295010
0.329400	-2.327468
0.329500	-2.346294
0.329600	-2.356681
0.329700	-2.368366
0.329800	-2.381998
0.329900	-2.398876
0.330000	-2.423545
0.330100	-2.413483
0.330200	-2.396604
0.330300	-2.394981
0.330400	-2.407965
0.330500	-2.411211
0.330600	-2.360576
0.330700	-2.263850
0.330800	-2.251191
0.330900	-2.332012
0.331000	-2.430036
0.331100	-2.475478
0.331200	-2.408614
0.331300	-2.298905
0.331400	-2.234313
0.331500	-2.278781
0.331600	-2.396280
0.331700	-2.477750
0.331800	-2.486514
0.331900	-2.437502
0.332000	-2.387841
0.332100	-2.374533
0.332200	-2.381674
0.332300	-2.389464
0.332400	-2.385893
0.332500	-2.383621
0.332600	-2.378752
0.332700	-2.354409
0.332800	-2.318380
0.332900	-2.250217
0.333000	-2.187573
0.333100	-2.145052
0.333200	-2.119735
0.333300	-2.102857
0.333400	-2.048651
0.333500	-1.957443
0.333600	-1.880193
0.333700	-1.775028
0.333800	-1.717252
0.333900	-1.664670
0.334000	-1.601052
0.334100	-1.527047
0.334200	-1.448822
0.334300	-1.356641
0.334400	-1.280040
0.334500	-1.202789
0.334600	-1.164813
0.334700	-1.127486
0.334800	-1.106713
0.334900	-1.092756
0.335000	-1.065491
0.335100	-1.040498
0.335200	-1.007066
0.335300	-0.990837
0.335400	-0.983047
0.335500	-0.983371
0.335600	-0.967791
0.335700	-0.922999
0.335800	-0.796412
0.335900	-0.628279
0.336000	-0.560117
0.336100	-0.632174
0.336200	-0.727925
0.336300	-0.712021
0.336400	-0.588355
0.336500	-0.439372
0.336600	-0.356279
0.336700	-0.379324
0.336800	-0.436775
0.336900	-0.461768
0.337000	-0.404966
0.337100	-0.309864
0.337200	-0.224824
0.337300	-0.183926
0.337400	-0.168022
0.337500	-0.161855
0.337600	-0.142055
0.337700	-0.120633
0.337800	-0.100184
0.337900	-0.094342
0.338000	-0.082981
0.338100	-0.080060
0.338200	-0.102456
0.338300	-0.124852
0.338400	-0.152442
0.338500	-0.196260
0.338600	-0.238781
0.338700	-0.251115
0.338800	-0.267344
0.338900	-0.313110
0.339000	-0.439372
0.339100	-0.553949
0.339200	-0.580565
0.339300	-0.544537
0.339400	-0.510131
0.339500	-0.569205
0.339600	-0.727276
0.339700	-0.883725
0.339800	-0.949939
0.339900	-0.926894
0.340000	-0.902226
0.340100	-0.948317
0.340200	-1.059973
0.340300	-1.164813
0.340400	-1.232651
0.340500	-1.269977
0.340600	-1.297567
0.340700	-1.358913
0.340800	-1.429023
0.340900	-1.497185
0.341000	-1.540030
0.341100	-1.572813
0.341200	-1.601376
0.341300	-1.631238
0.341400	-1.638379
0.341500	-1.619228
0.341600	-1.588068
0.341700	-1.576383
0.341800	-1.613061
0.341900	-1.652011
0.342000	-1.658503
0.342100	-1.626044
0.342200	-1.620202
0.342300	-1.652011
0.342400	-1.681548
0.342500	-1.710760
0.342600	-1.736078
0.342700	-1.766589
0.342800	-1.801644
0.342900	-1.839295
0.343000	-1.876622
0.343100	-1.917520
0.343200	-1.949653
0.343300	-1.980164
0.343400	-2.008403
0.343500	-2.031448
0.343600	-2.060985
0.343700	-2.087277
0.343800	-2.117138
0.343900	-2.157387
0.344000	-2.210943
0.344100	-2.321626
0.344200	-2.500147
0.344300	-2.617646
0.344400	-2.609531
0.344500	-2.531307
0.344600	-2.498199
0.344700	-2.581292
0.344800	-2.747479
0.344900	-2.875690
0.345000	-2.894840
0.345100	-2.843881
0.345200	-2.791947
0.345300	-2.818888
0.345400	-2.902306
0.345500	-2.987671
0.345600	-3.031490
0.345700	-3.034087
0.345800	-3.024025
0.345900	-3.002278
0.346000	-2.999032
0.346100	-2.997084
0.346200	-2.980855
0.346300	-2.954888
0.346400	-2.919833
0.346500	-2.905552
0.346600	-2.900358
0.346700	-2.891919
0.346800	-2.861408
0.346900	-2.824406
0.347000	-2.795518
0.347100	-2.755269
0.347200	-2.678343
0.347300	-2.534877
0.347400	-2.403745
0.347500	-2.351487
0.347600	-2.380700
0.347700	-2.406991
0.347800	-2.355382
0.347900	-2.205749
0.348000	-2.042160
0.348100	-1.958742
0.348200	-1.982436
0.348300	-2.040212
0.348400	-2.057415
0.348500	-1.993148
0.348600	-1.911028
0.348700	-1.848059
0.348800	-1.824040
0.348900	-1.795152
0.349000	-1.753605
0.349100	-1.701023
0.349200	-1.646818
0.349300	-1.584498
0.349400	-1.510493
0.349500	-1.421557
0.349600	-1.303085
0.349700	-1.198569
0.349800	-1.107686
0.349900	-1.031085
0.350000	-0.960651
0.350100	-0.847372
0.350200	-0.730522
0.350300	-0.599066
0.350400	-0.491305
0.350500	-0.404966
0.350600	-0.337778
0.350700	-0.265721
0.350800	-0.186198
0.350900	-0.099860
0.351000	-0.024881
0.351100	0.041333
0.351200	0.077687
0.351300	0.098460
0.351400	0.106574
0.351500	0.094565
0.351600	0.079634
0.351700	0.069247
0.351800	0.059185
0.351900	0.034193
0.352000	0.018937
0.352100	-0.036566
0.352200	-0.063506
0.352300	-0.117062
0.352400	-0.085578
0.352500	-0.010924
0.352600	0.072169
0.352700	0.016990
0.352800	-0.179058
0.352900	-0.340699
0.353000	-0.403668
0.353100	-0.378675
0.353200	-0.351735
0.353300	-0.424766
0.353400	-0.564985
0.353500	-0.747725
0.353600	-0.843152
0.353700	-0.886971
0.353800	-0.894761
0.353900	-0.934035
0.354000	-0.998627
0.354100	-1.070684
0.354200	-1.146636
0.354300	-1.200517
0.354400	-1.245309
0.354500	-1.292049
0.354600	-1.332297
0.354700	-1.367677
0.354800	-1.404679
0.354900	-1.470569
0.355000	-1.521204
0.355100	-1.595209
0.355200	-1.654608
0.355300	-1.703295
0.355400	-1.715629
0.355500	-1.742570
0.355600	-1.822742
0.355700	-1.971400
0.355800	-2.056117
0.355900	-2.044756
0.356000	-1.992823
0.356100	-1.974646
0.356200	-2.054169
0.356300	-2.180107
0.356400	-2.255411
0.356500	-2.235936
0.356600	-2.160632
0.356700	-2.119410
0.356800	-2.147324
0.356900	-2.206074
0.357000	-2.225874
0.357100	-2.221005
0.357200	-2.201530
0.357300	-2.203802
0.357400	-2.219706
0.357500	-2.238208
0.357600	-2.230742
0.357700	-2.214838
0.357800	-2.214838
0.357900	-2.223926
0.358000	-2.215162
0.358100	-2.196012
0.358200	-2.166150
0.358300	-2.145377
0.358400	-2.158360
0.358500	-2.197635
0.358600	-2.217434
0.358700	-2.208671
0.358800	-2.184652
0.358900	-2.167773
0.359000	-2.176862
0.359100	-2.176537
0.359200	-2.176862
0.359300	-2.176212
0.359400	-2.175563
0.359500	-2.172967
0.359600	-2.177186
0.359700	-2.174914
0.359800	-2.168422
0.359900	-2.161931
0.360000	-2.153816
0.360100	-2.142456
0.360200	-2.136613
0.360300	-2.131095
0.360400	-2.130122
0.360500	-2.134341
0.360600	-2.137587
0.360700	-2.168098
0.360800	-2.270666
0.360900	-2.403096
0.361000	-2.448213
0.361100	-2.381998
0.361200	-2.265473
0.361300	-2.235611
0.361400	-2.326819
0.361500	-2.476127
0.361600	-2.567011
0.361700	-2.547211
0.361800	-2.460872
0.361900	-2.413158
0.362000	-2.442695
0.362100	-2.524490
0.362200	-2.579994
0.362300	-2.598495
0.362400	-2.586810
0.362500	-2.585512
0.362600	-2.589407
0.362700	-2.611479
0.362800	-2.634200
0.362900	-2.643612
0.363000	-2.658543
0.363100	-2.671202
0.363200	-2.702038
0.363300	-2.733198
0.363400	-2.760138
0.363500	-2.773771
0.363600	-2.796816
0.363700	-2.838363
0.363800	-2.874716
0.363900	-2.854592
0.364000	-2.786754
0.364100	-2.765007
0.364200	-2.838038
0.364300	-2.972741
0.364400	-3.085047
0.364500	-3.088293
0.364600	-3.031490
0.364700	-2.996111
0.364800	-3.057782
0.364900	-3.198651
0.365000	-3.322967
0.365100	-3.364514
0.365200	-3.346013
0.365300	-3.327187
0.365400	-3.352829
0.365500	-3.396648
0.365600	-3.440467
0.365700	-3.452801
0.365800	-3.458644
0.365900	-3.452801
0.366000	-3.441765
0.366100	-3.405412
0.366200	-3.333354
0.366300	-3.251883
0.366400	-3.190861
0.366500	-3.148990
0.366600	-3.113935
0.366700	-3.055510
0.366800	-2.949371
0.366900	-2.863031
0.367000	-2.766630
0.367100	-2.661465
0.367200	-2.571555
0.367300	-2.480347
0.367400	-2.379726
0.367500	-2.280404
0.367600	-2.163554
0.367700	-2.048976
0.367800	-1.958742
0.367900	-1.874350
0.368000	-1.793529
0.368100	-1.717252
0.368200	-1.654608
0.368300	-1.597481
0.368400	-1.546522
0.368500	-1.500431
0.368600	-1.461806
0.368700	-1.435839
0.368800	-1.429997
0.368900	-1.416364
0.369000	-1.401433
0.369100	-1.300164
0.369200	-1.155075
0.369300	-1.048612
0.369400	-1.091133
0.369500	-1.226808
0.369600	-1.251476
0.369700	-1.185262
0.369800	-1.028813
0.369900	-0.929815
0.370000	-0.918130
0.370100	-0.988240
0.370200	-1.039524
0.370300	-1.015830
0.370400	-0.933386
0.370500	-0.849968
0.370600	-0.812966
0.370700	-0.818808
0.370800	-0.837634
0.370900	-0.842178
0.371000	-0.820756
0.371100	-0.804202
0.371200	-0.801605
0.371300	-0.819782
0.371400	-0.817835
0.371500	-0.841204
0.371600	-0.867820
0.371700	-0.901901
0.371800	-0.959677
0.371900	-1.005443
0.372000	-1.022646
0.372100	-1.027515
0.372200	-1.051209
0.372300	-1.165787
0.372400	-1.294646
0.372500	-1.361510
0.372600	-1.333920
0.372700	-1.282636
0.372800	-1.293347
0.372900	-1.409223
0.373000	-1.554312
0.373100	-1.622474
0.373200	-1.610464
0.373300	-1.553013
0.373400	-1.544250
0.373500	-1.607219
0.373600	-1.686092
0.373700	-1.726990
0.373800	-1.738350
0.373900	-1.713033
0.374000	-1.713033
0.374100	-1.744842
0.374200	-1.788985
0.374300	-1.815925
0.374400	-1.822417
0.374500	-1.825014
0.374600	-1.836374
0.374700	-1.842216
0.374800	-1.834102
0.374900	-1.812679
0.375000	-1.806837
0.375100	-1.839944
0.375200	-1.887333
0.375300	-1.900317
0.375400	-1.887333
0.375500	-1.854226
0.375600	-1.860718
0.375700	-1.862016
0.375800	-1.861042
0.375900	-1.858121
0.376000	-1.862990
0.376100	-1.857147
0.376200	-1.857472
0.376300	-1.862016
0.376400	-1.873052
0.376500	-1.883763
0.376600	-1.896746
0.376700	-1.917520
0.376800	-1.930178
0.376900	-1.949329
0.377000	-1.960689
0.377100	-1.988603
0.377200	-2.006131
0.377300	-2.033071
0.377400	-2.092470
0.377500	-2.234962
0.377600	-2.364146
0.377700	-2.383946
0.377800	-2.297606
0.377900	-2.207048
0.378000	-2.232690
0.378100	-2.368041
0.378200	-2.502419
0.378300	-2.551431
0.378400	-2.492681
0.378500	-2.408614
0.378600	-2.395631
0.378700	-2.472557
0.378800	-2.578047
0.378900	-2.640691
0.379000	-2.650429
0.379100	-2.633226
0.379200	-2.617646
0.379300	-2.633550
0.379400	-2.660166
0.379500	-2.677694
0.379600	-2.683212
0.379700	-2.676071
0.379800	-2.678668
0.379900	-2.694248
0.380000	-2.691651
0.380100	-2.673150
0.380200	-2.663412
0.380300	-2.661789
0.380400	-2.679641
0.380500	-2.664710
0.380600	-2.588433
0.380700	-2.493655
0.380800	-2.466390
0.380900	-2.510858
0.381000	-2.593951
0.381100	-2.622839
0.381200	-2.546237
0.381300	-2.433282
0.381400	-2.363821
0.381500	-2.386867
0.381600	-2.466065
0.381700	-2.525139
0.381800	-2.525464
0.381900	-2.468662
0.382000	-2.414781
0.382100	-2.402122
0.382200	-2.422571
0.382300	-2.444967
0.382400	-2.454056
0.382500	-2.453406
0.382600	-2.431010
0.382700	-2.410237
0.382800	-2.360576
0.382900	-2.299554
0.383000	-2.243726
0.383100	-2.214838
0.383200	-2.195687
0.383300	-2.170370
0.383400	-2.127200
0.383500	-2.052871
0.383600	-2.013272
0.383700	-1.951601
0.383800	-1.907133
0.383900	-1.867534
0.384000	-1.820469
0.384100	-1.773730
0.384200	-1.722445
0.384300	-1.652336
0.384400	-1.612412
0.384500	-1.595858
0.384600	-1.589367
0.384700	-1.597806
0.384800	-1.604947
0.384900	-1.623448
0.385000	-1.639028
0.385100	-1.648116
0.385200	-1.681548
0.385300	-1.694207
0.385400	-1.757825
0.385500	-1.784116
0.385600	-1.835076
0.385700	-1.830207
0.385800	-1.774379
0.385900	-1.652660
0.386000	-1.653634
0.386100	-1.784765
0.386200	-1.934073
0.386300	-1.977892
0.386400	-1.903887
0.386500	-1.789634
0.386600	-1.752632
0.386700	-1.806837
0.386800	-1.894474
0.386900	-1.924336
0.387000	-1.888632
0.387100	-1.794503
0.387200	-1.728613
0.387300	-1.695181
0.387400	-1.689987
0.387500	-1.685768
0.387600	-1.665643
0.387700	-1.639677
0.387800	-1.621825
0.387900	-1.600078
0.388000	-1.590016
0.388100	-1.568269
0.388200	-1.556908
0.388300	-1.586445
0.388400	-1.593911
0.388500	-1.609491
0.388600	-1.590989
0.388700	-1.554312
0.388800	-1.508870
0.388900	-1.502378
0.389000	-1.582875
0.389100	-1.614035
0.389200	-1.581901
0.389300	-1.470894
0.389400	-1.378388
0.389500	-1.378063
0.389600	-1.467973
0.389700	-1.529319
0.389800	-1.521853
0.389900	-1.444927
0.390000	-1.363782
0.390100	-1.357615
0.390200	-1.411495
0.390300	-1.463429
0.390400	-1.476412
0.390500	-1.466674
0.390600	-1.447199
0.390700	-1.454665
0.390800	-1.460507
0.390900	-1.471219
0.391000	-1.467648
0.391100	-1.455963
0.391200	-1.455314
0.391300	-1.447849
0.391400	-1.415390
0.391500	-1.376765
0.391600	-1.343333
0.391700	-1.345281
0.391800	-1.386503
0.391900	-1.429672
0.392000	-1.435190
0.392100	-1.405004
0.392200	-1.395591
0.392300	-1.407600
0.392400	-1.416689
0.392500	-1.421882
0.392600	-1.420584
0.392700	-1.420259
0.392800	-1.418961
0.392900	-1.426751
0.393000	-1.428374
0.393100	-1.434216
0.393200	-1.428698
0.393300	-1.431295
0.393400	-1.438111
0.393500	-1.439734
0.393600	-1.453367
0.393700	-1.457262
0.393800	-1.479333
0.393900	-1.497185
0.394000	-1.531591
0.394100	-1.620527
0.394200	-1.782818
0.394300	-1.880193
0.394400	-1.859095
0.394500	-1.788011
0.394600	-1.767238
0.394700	-1.886035
0.394800	-2.073644
0.394900	-2.227496
0.395000	-2.257034
0.395100	-2.221654
0.395200	-2.215811
0.395300	-2.280728
0.395400	-2.419325
0.395500	-2.535851
0.395600	-2.600443
0.395700	-2.624462
0.395800	-2.643288
0.395900	-2.677045
0.396000	-2.730926
0.396100	-2.776367
0.396200	-2.818888
0.396300	-2.848425
0.396400	-2.901007
0.396500	-2.957161
0.396600	-3.009094
0.396700	-3.024025
0.396800	-3.031490
0.396900	-3.045123
0.397000	-3.090565
0.397100	-3.133085
0.397200	-3.131462
0.397300	-3.058431
0.397400	-3.007471
0.397500	-3.049667
0.397600	-3.152560
0.397700	-3.261621
0.397800	-3.272332
0.397900	-3.195730
0.398000	-3.090240
0.398100	-3.062326
0.398200	-3.125295
0.398300	-3.229811
0.398400	-3.275253
0.398500	-3.232408
0.398600	-3.152560
0.398700	-3.102250
0.398800	-3.093486
0.398900	-3.098355
0.399000	-3.092512
0.399100	-3.059405
0.399200	-3.031815
0.399300	-2.987671
0.399400	-2.936712
0.399500	-2.864005
0.399600	-2.784806
0.399700	-2.719890
0.399800	-2.677045
0.399900	-2.650104
0.400000	-2.618620
0.400100	-2.554677
0.400200	-2.484567
0.400300	-2.423545
0.400400	-2.344022
0.400500	-2.299879
0.400600	-2.255735
0.400700	-2.208346
0.400800	-2.151869
0.400900	-2.088575
0.401000	-2.018465
0.401100	-1.968155
0.401200	-1.929529
0.401300	-1.908756
0.401400	-1.880842
0.401500	-1.867859
0.401600	-1.836049
0.401700	-1.821119
0.401800	-1.783467
0.401900	-1.761071
0.402000	-1.734455
0.402100	-1.729586
0.402200	-1.733481
0.402300	-1.707515
0.402400	-1.653309
0.402500	-1.487772
0.402600	-1.376116
0.402700	-1.381958
0.402800	-1.516011
0.402900	-1.622149
0.403000	-1.584822
0.403100	-1.482254
0.403200	-1.365080
0.403300	-1.373844
0.403400	-1.460507
0.403500	-1.571190
0.403600	-1.587744
0.403700	-1.541978
0.403800	-1.464402
0.403900	-1.433892
0.404000	-1.439734
0.404100	-1.464727
0.404200	-1.478035
0.404300	-1.464402
0.404400	-1.447524
0.404500	-1.433567
0.404600	-1.421882
0.404700	-1.405004
0.404800	-1.377090
0.404900	-1.372221
0.405000	-1.388125
0.405100	-1.401758
0.405200	-1.423830
0.405300	-1.401758
0.405400	-1.369300
0.405500	-1.347877
0.405600	-1.392020
0.405700	-1.484526
0.405800	-1.508870
0.405900	-1.461157
0.406000	-1.342684
0.406100	-1.285882
0.406200	-1.331324
0.406300	-1.435839
0.406400	-1.501729
0.406500	-1.482904
0.406600	-1.392670
0.406700	-1.334894
0.406800	-1.355018
0.406900	-1.430321
0.407000	-1.488097
0.407100	-1.511142
0.407200	-1.512765
0.407300	-1.511467
0.407400	-1.542302
0.407500	-1.588068
0.407600	-1.631238
0.407700	-1.646818
0.407800	-1.665968
0.407900	-1.694531
0.408000	-1.725691
0.408100	-1.728288
0.408200	-1.724718
0.408300	-1.725691
0.408400	-1.759772
0.408500	-1.828259
0.408600	-1.868508
0.408700	-1.878245
0.408800	-1.845462
0.408900	-1.850980
0.409000	-1.856498
0.409100	-1.857472
0.409200	-1.853901
0.409300	-1.838321
0.409400	-1.827610
0.409500	-1.813653
0.409600	-1.799372
0.409700	-1.783142
0.409800	-1.769835
0.409900	-1.760422
0.410000	-1.746140
0.410100	-1.731858
0.410200	-1.723419
0.410300	-1.723095
0.410400	-1.734455
0.410500	-1.747763
0.410600	-1.779897
0.410700	-1.832804
0.410800	-1.968155
0.410900	-2.124279
0.411000	-2.185950
0.411100	-2.125902
0.411200	-2.025281
0.411300	-2.039563
0.411400	-2.172642
0.411500	-2.354084
0.411600	-2.450161
0.411700	-2.436853
0.411800	-2.379726
0.411900	-2.355058
0.412000	-2.429712
0.412100	-2.536500
0.412200	-2.641340
0.412300	-2.671851
0.412400	-2.678343
0.412500	-2.680615
0.412600	-2.700090
0.412700	-2.739689
0.412800	-2.773771
0.412900	-2.807527
0.413000	-2.820511
0.413100	-2.860434
0.413200	-2.904902
0.413300	-2.939958
0.413400	-2.950344
0.413500	-2.948397
0.413600	-2.970144
0.413700	-3.009743
0.413800	-3.039605
0.413900	-3.012340
0.414000	-2.946449
0.414100	-2.947748
0.414200	-3.030192
0.414300	-3.170737
0.414400	-3.281745
0.414500	-3.284666
0.414600	-3.211635
0.414700	-3.152560
0.414800	-3.188914
0.414900	-3.299272
0.415000	-3.413526
0.415100	-3.459942
0.415200	-3.423913
0.415300	-3.391130
0.415400	-3.375225
0.415500	-3.390156
0.415600	-3.407035
0.415700	-3.422290
0.415800	-3.421966
0.415900	-3.409631
0.416000	-3.378147
0.416100	-3.323292
0.416200	-3.256103
0.416300	-3.178852
0.416400	-3.112961
0.416500	-3.071414
0.416600	-3.034412
0.416700	-2.975662
0.416800	-2.874392
0.416900	-2.777016
0.417000	-2.662438
0.417100	-2.561493
0.417200	-2.467039
0.417300	-2.376156
0.417400	-2.279105
0.417500	-2.175563
0.417600	-2.053520
0.417700	-1.941863
0.417800	-1.848384
0.417900	-1.769185
0.418000	-1.709787
0.418100	-1.643247
0.418200	-1.608517
0.418300	-1.544250
0.418400	-1.498159
0.418500	-1.430321
0.418600	-1.399486
0.418700	-1.361834
0.418800	-1.346579
0.418900	-1.342035
0.419000	-1.288479
0.419100	-1.192727
0.419200	-1.009987
0.419300	-0.916832
0.419400	-0.960975
0.419500	-1.096001
0.419600	-1.135600
0.419700	-1.043095
0.419800	-0.894436
0.419900	-0.800307
0.420000	-0.808422
0.420100	-0.873663
0.420200	-0.931438
0.420300	-0.902550
0.420400	-0.814589
0.420500	-0.732794
0.420600	-0.684431
0.420700	-0.677615
0.420800	-0.682808
0.420900	-0.679238
0.421000	-0.663983
0.421100	-0.649052
0.421200	-0.642236
0.421300	-0.643859
0.421400	-0.652622
0.421500	-0.681186
0.421600	-0.714293
0.421700	-0.774341
0.421800	-0.836011
0.421900	-0.881453
0.422000	-0.905147
0.422100	-0.924297
0.422200	-0.968116
0.422300	-1.081395
0.422400	-1.200841
0.422500	-1.247257
0.422600	-1.233949
0.422700	-1.172927
0.422800	-1.208307
0.422900	-1.318989
0.423000	-1.472517
0.423100	-1.555285
0.423200	-1.553987
0.423300	-1.521529
0.423400	-1.543925
0.423500	-1.643572
0.423600	-1.772756
0.423700	-1.856498
0.423800	-1.927257
0.423900	-1.981138
0.424000	-2.058713
0.424100	-2.147649
0.424200	-2.251840
0.424300	-2.344671
0.424400	-2.424194
0.424500	-2.496576
0.424600	-2.567984
0.424700	-2.625436
0.424800	-2.665360
0.424900	-2.694572
0.425000	-2.728978
0.425100	-2.802009
0.425200	-2.872444
0.425300	-2.912043
0.425400	-2.902306
0.425500	-2.871146
0.425600	-2.876988
0.425700	-2.878936
0.425800	-2.871470
0.425900	-2.868224
0.426000	-2.852320
0.426100	-2.830248
0.426200	-2.810449
0.426300	-2.795193
0.426400	-2.776043
0.426500	-2.761112
0.426600	-2.749751
0.426700	-2.739040
0.426800	-2.729952
0.426900	-2.726057
0.427000	-2.721837
0.427100	-2.726057
0.427200	-2.730601
0.427300	-2.745532
0.427400	-2.807527
0.427500	-2.955538
0.427600	-3.072063
0.427700	-3.074011
0.427800	-2.966249
0.427900	-2.879910
0.428000	-2.912368
0.428100	-3.060378
0.428200	-3.185343
0.428300	-3.217477
0.428400	-3.134708
0.428500	-3.035710
0.428600	-3.002278
0.428700	-3.057457
0.428800	-3.132761
0.428900	-3.168140
0.429000	-3.150288
0.429100	-3.111987
0.429200	-3.100951
0.429300	-3.100302
0.429400	-3.103223
0.429500	-3.106469
0.429600	-3.098355
0.429700	-3.080178
0.429800	-3.092837
0.429900	-3.111663
0.430000	-3.112636
0.430100	-3.105171
0.430200	-3.094784
0.430300	-3.090240
0.430400	-3.104197
0.430500	-3.084722
0.430600	-3.003901
0.430700	-2.908473
0.430800	-2.908798
0.430900	-2.973390
0.431000	-3.063300
0.431100	-3.085696
0.431200	-3.008445
0.431300	-2.887050
0.431400	-2.819861
0.431500	-2.846153
0.431600	-2.933141
0.431700	-2.986698
0.431800	-2.960406
0.431900	-2.880234
0.432000	-2.805255
0.432100	-2.771823
0.432200	-2.764682
0.432300	-2.764358
0.432400	-2.740338
0.432500	-2.703985
0.432600	-2.653675
0.432700	-2.602390
0.432800	-2.537474
0.432900	-2.465416
0.433000	-2.404070
0.433100	-2.359926
0.433200	-2.331363
0.433300	-2.308318
0.433400	-2.240155
0.433500	-2.158685
0.433600	-2.102857
0.433700	-2.015544
0.433800	-1.967505
0.433900	-1.914923
0.434000	-1.864288
0.434100	-1.812355
0.434200	-1.751658
0.434300	-1.678951
0.434400	-1.619877
0.434500	-1.585796
0.434600	-1.559180
0.434700	-1.539705
0.434800	-1.518283
0.434900	-1.509519
0.435000	-1.482254
0.435100	-1.466674
0.435200	-1.438436
0.435300	-1.427725
0.435400	-1.418961
0.435500	-1.406627
0.435600	-1.407600
0.435700	-1.351772
0.435800	-1.230378
0.435900	-1.076202
0.436000	-1.045367
0.436100	-1.150856
0.436200	-1.264784
0.436300	-1.279066
0.436400	-1.159620
0.436500	-1.038550
0.436600	-0.971686
0.436700	-1.015830
0.436800	-1.094054
0.436900	-1.134302
0.437000	-1.090159
0.437100	-1.000899
0.437200	-0.944422
0.437300	-0.922675
0.437400	-0.945720
0.437500	-0.962923
0.437600	-0.971686
0.437700	-0.979801
0.437800	-0.979801
0.437900	-0.985643
0.438000	-1.015505
0.438100	-1.050560
0.438200	-1.079448
0.438300	-1.154426
0.438400	-1.205710
0.438500	-1.268679
0.438600	-1.303409
0.438700	-1.320937
0.438800	-1.345605
0.438900	-1.420584
0.439000	-1.555935
0.439100	-1.646493
0.439200	-1.664994
0.439300	-1.606569
0.439400	-1.568269
0.439500	-1.613710
0.439600	-1.723419
0.439700	-1.820469
0.439800	-1.830532
0.439900	-1.762045
0.440000	-1.687391
0.440100	-1.681548
0.440200	-1.723095
0.440300	-1.765290
0.440400	-1.776975
0.440500	-1.760422
0.440600	-1.726665
0.440700	-1.719849
0.440800	-1.736727
0.440900	-1.762694
0.441000	-1.768536
0.441100	-1.763343
0.441200	-1.775028
0.441300	-1.780221
0.441400	-1.766264
0.441500	-1.742245
0.441600	-1.724068
0.441700	-1.730235
0.441800	-1.778598
0.441900	-1.821768
0.442000	-1.821119
0.442100	-1.789634
0.442200	-1.769185
0.442300	-1.779572
0.442400	-1.771782
0.442500	-1.770484
0.442600	-1.755877
0.442700	-1.743543
0.442800	-1.746789
0.442900	-1.736727
0.443000	-1.723419
0.443100	-1.724393
0.443200	-1.715629
0.443300	-1.708164
0.443400	-1.697777
0.443500	-1.700374
0.443600	-1.684145
0.443700	-1.679925
0.443800	-1.680250
0.443900	-1.688364
0.444000	-1.703295
0.444100	-1.777625
0.444200	-1.921090
0.444300	-1.998016
0.444400	-1.951925
0.444500	-1.835400
0.444600	-1.786388
0.444700	-1.866560
0.444800	-2.028527
0.444900	-2.145702
0.445000	-2.156088
0.445100	-2.097663
0.445200	-2.065854
0.445300	-2.120384
0.445400	-2.227496
0.445500	-2.317731
0.445600	-2.357979
0.445700	-2.358628
0.445800	-2.369989
0.445900	-2.392060
0.446000	-2.434581
0.446100	-2.473206
0.446200	-2.495927
0.446300	-2.518648
0.446400	-2.545588
0.446500	-2.586161
0.446600	-2.623164
0.446700	-2.637445
0.446800	-2.647507
0.446900	-2.696844
0.447000	-2.762086
0.447100	-2.829599
0.447200	-2.848749
0.447300	-2.808176
0.447400	-2.801685
0.447500	-2.873418
0.447600	-3.005199
0.447700	-3.136980
0.447800	-3.174307
0.447900	-3.133734
0.448000	-3.088293
0.448100	-3.112961
0.448200	-3.236303
0.448300	-3.377173
0.448400	-3.462214
0.448500	-3.464811
0.448600	-3.441116
0.448700	-3.436896
0.448800	-3.475522
0.448900	-3.532000
0.449000	-3.572573
0.449100	-3.589127
0.449200	-3.594320
0.449300	-3.584907
0.449400	-3.557967
0.449500	-3.508305
0.449600	-3.445985
0.449700	-3.389832
0.449800	-3.349583
0.449900	-3.317449
0.450000	-3.267139
0.450100	-3.181773
0.450200	-3.087319
0.450300	-2.998383
0.450400	-2.898411
0.450500	-2.820511
0.450600	-2.745532
0.450700	-2.659517
0.450800	-2.573502
0.450900	-2.474504
0.451000	-2.385569
0.451100	-2.312537
0.451200	-2.262876
0.451300	-2.229769
0.451400	-2.194389
0.451500	-2.169072
0.451600	-2.139210
0.451700	-2.113568
0.451800	-2.087277
0.451900	-2.053845
0.452000	-2.041835
0.452100	-2.023658
0.452200	-2.015868
0.452300	-1.993148
0.452400	-1.900641
0.452500	-1.744842
0.452600	-1.600727
0.452700	-1.615658
0.452800	-1.716603
0.452900	-1.782493
0.453000	-1.703620
0.453100	-1.568269
0.453200	-1.444278
0.453300	-1.420259
0.453400	-1.471868
0.453500	-1.517958
0.453600	-1.500106
0.453700	-1.408574
0.453800	-1.304059
0.453900	-1.244011
0.454000	-1.224861
0.454100	-1.213825
0.454200	-1.197271
0.454300	-1.163515
0.454400	-1.124565
0.454500	-1.092431
0.454600	-1.067763
0.454700	-1.042121
0.454800	-1.033357
0.454900	-1.034331
0.455000	-1.067114
0.455100	-1.103142
0.455200	-1.132679
0.455300	-1.137223
0.455400	-1.126837
0.455500	-1.136899
0.455600	-1.216421
0.455700	-1.341386
0.455800	-1.391047
0.455900	-1.378388
0.456000	-1.310226
0.456100	-1.307629
0.456200	-1.382608
0.456300	-1.511791
0.456400	-1.587744
0.456500	-1.576708
0.456600	-1.488097
0.456700	-1.441357
0.456800	-1.480307
0.456900	-1.559180
0.457000	-1.613386
0.457100	-1.637729
0.457200	-1.640975
0.457300	-1.656555
0.457400	-1.713357
0.457500	-1.772756
0.457600	-1.834751
0.457700	-1.863964
0.457800	-1.890904
0.457900	-1.931152
0.458000	-1.956794
0.458100	-1.958417
0.458200	-1.950627
0.458300	-1.943486
0.458400	-1.974646
0.458500	-2.031773
0.458600	-2.056441
0.458700	-2.035992
0.458800	-1.992174
0.458900	-1.982112
0.459000	-1.989902
0.459100	-1.980489
0.459200	-1.969778
0.459300	-1.950303
0.459400	-1.938293
0.459500	-1.927906
0.459600	-1.909730
0.459700	-1.904212
0.459800	-1.893176
0.459900	-1.887333
0.460000	-1.888307
0.460100	-1.889930
0.460200	-1.893501
0.460300	-1.900641
0.460400	-1.921739
0.460500	-1.944135
0.460600	-1.966532
0.460700	-2.025606
0.460800	-2.167449
0.460900	-2.329091
0.461000	-2.385244
0.461100	-2.332661
0.461200	-2.257358
0.461300	-2.285921
0.461400	-2.437502
0.461500	-2.613102
0.461600	-2.706906
0.461700	-2.673799
0.461800	-2.606610
0.461900	-2.591679
0.462000	-2.672176
0.462100	-2.794544
0.462200	-2.888349
0.462300	-2.914315
0.462400	-2.911070
0.462500	-2.910420
0.462600	-2.945151
0.462700	-2.993189
0.462800	-3.024674
0.462900	-3.037333
0.463000	-3.047395
0.463100	-3.068818
0.463200	-3.106145
0.463300	-3.128541
0.463400	-3.124321
0.463500	-3.109715
0.463600	-3.116531
0.463700	-3.140875
0.463800	-3.159052
0.463900	-3.122049
0.464000	-3.047720
0.464100	-3.032139
0.464200	-3.099328
0.464300	-3.214556
0.464400	-3.295377
0.464500	-3.275253
0.464600	-3.184045
0.464700	-3.110689
0.464800	-3.147042
0.464900	-3.268762
0.465000	-3.381717
0.465100	-3.401192
0.465200	-3.339196
0.465300	-3.275253
0.465400	-3.252857
0.465500	-3.276876
0.465600	-3.310958
0.465700	-3.325564
0.465800	-3.314528
0.465900	-3.290833
0.466000	-3.272657
0.466100	-3.236628
0.466200	-3.173334
0.466300	-3.106145
0.466400	-3.059729
0.466500	-3.026297
0.466600	-3.002278
0.466700	-2.951643
0.466800	-2.866926
0.466900	-2.800386
0.467000	-2.708205
0.467100	-2.645560
0.467200	-2.582266
0.467300	-2.526438
0.467400	-2.460223
0.467500	-2.389788
0.467600	-2.295984
0.467700	-2.214838
0.467800	-2.146026
0.467900	-2.105453
0.468000	-2.065530
0.468100	-2.025930
0.468200	-1.998341
0.468300	-1.964260
0.468400	-1.934073
0.468500	-1.902264
0.468600	-1.869806
0.468700	-1.859419
0.468800	-1.852928
0.468900	-1.862341
0.469000	-1.821768
0.469100	-1.739973
0.469200	-1.565997
0.469300	-1.506598
0.469400	-1.573137
0.469500	-1.714006
0.469600	-1.749710
0.469700	-1.653959
0.469800	-1.532240
0.469900	-1.453691
0.470000	-1.487448
0.470100	-1.583200
0.470200	-1.643896
0.470300	-1.620202
0.470400	-1.542627
0.470500	-1.461157
0.470600	-1.430321
0.470700	-1.438760
0.470800	-1.459858
0.470900	-1.459209
0.471000	-1.447849
0.471100	-1.429672
0.471200	-1.415390
0.471300	-1.417987
0.471400	-1.410846
0.471500	-1.424479
0.471600	-1.468622
0.471700	-1.506273
0.471800	-1.548145
0.471900	-1.575085
0.472000	-1.574111
0.472100	-1.570541
0.472200	-1.591314
0.472300	-1.691286
0.472400	-1.768536
0.472500	-1.778274
0.472600	-1.715954
0.472700	-1.630913
0.472800	-1.618579
0.472900	-1.712708
0.473000	-1.822417
0.473100	-1.854551
0.473200	-1.796450
0.473300	-1.703620
0.473400	-1.662398
0.473500	-1.706865
0.473600	-1.783142
0.473700	-1.819496
0.473800	-1.830207
0.473900	-1.804565
0.474000	-1.805863
0.474100	-1.828909
0.474200	-1.865911
0.474300	-1.880517
0.474400	-1.886684
0.474500	-1.910703
0.474600	-1.928880
0.474700	-1.935372
0.474800	-1.933100
0.474900	-1.919143
0.475000	-1.925959
0.475100	-1.981138
0.475200	-2.037615
0.475300	-2.061635
0.475400	-2.072670
0.475500	-2.066828
0.475600	-2.073969
0.475700	-2.079487
0.475800	-2.072670
0.475900	-2.071372
0.476000	-2.060661
0.476100	-2.057740
0.476200	-2.057090
0.476300	-2.054169
0.476400	-2.050274
0.476500	-2.055467
0.476600	-2.068126
0.476700	-2.079487
0.476800	-2.094742
0.476900	-2.120709
0.477000	-2.145377
0.477100	-2.189196
0.477200	-2.224900
0.477300	-2.272614
0.477400	-2.374533
0.477500	-2.539097
0.477600	-2.672176
0.477700	-2.677694
0.477800	-2.609531
0.477900	-2.555001
0.478000	-2.634200
0.478100	-2.805580
0.478200	-2.953266
0.478300	-2.998707
0.478400	-2.948721
0.478500	-2.893542
0.478600	-2.910420
0.478700	-2.996435
0.478800	-3.098679
0.478900	-3.171711
0.479000	-3.199625
0.479100	-3.208064
0.479200	-3.233706
0.479300	-3.277850
0.479400	-3.330433
0.479500	-3.364839
0.479600	-3.410930
0.479700	-3.460916
0.479800	-3.517393
0.479900	-3.579065
0.480000	-3.624831
0.480100	-3.649175
0.480200	-3.683906
0.480300	-3.737138
0.480400	-3.785176
0.480500	-3.808546
0.480600	-3.764078
0.480700	-3.735190
0.480800	-3.778360
0.480900	-3.894237
0.481000	-4.025694
0.481100	-4.084769
0.481200	-4.051986
0.481300	-3.985121
0.481400	-3.970515
0.481500	-4.055232
0.481600	-4.189610
0.481700	-4.288609
0.481800	-4.300943
0.481900	-4.258422
0.482000	-4.212331
0.482100	-4.183443
0.482200	-4.179873
0.482300	-4.164942
0.482400	-4.135080
0.482500	-4.081848
0.482600	-4.007842
0.482700	-3.923450
0.482800	-3.824127
0.482900	-3.700135
0.483000	-3.585232
0.483100	-3.494348
0.483200	-3.415149
0.483300	-3.339521
0.483400	-3.234680
0.483500	-3.103873
0.483600	-2.993189
0.483700	-2.868224
0.483800	-2.776692
0.483900	-2.681589
0.484000	-2.583889
0.484100	-2.472557
0.484200	-2.352461
0.484300	-2.229769
0.484400	-2.130771
0.484500	-2.042160
0.484600	-1.974646
0.484700	-1.908756
0.484800	-1.864613
0.484900	-1.815276
0.485000	-1.764966
0.485100	-1.715629
0.485200	-1.669863
0.485300	-1.643572
0.485400	-1.621176
0.485500	-1.617605
0.485600	-1.585796
0.485700	-1.529968
0.485800	-1.371572
0.485900	-1.213176
0.486000	-1.176173
0.486100	-1.288479
0.486200	-1.393643
0.486300	-1.374818
0.486400	-1.244335
0.486500	-1.107686
0.486600	-1.063219
0.486700	-1.117748
0.486800	-1.193051
0.486900	-1.224211
0.487000	-1.157023
0.487100	-1.071333
0.487200	-1.003171
0.487300	-0.994407
0.487400	-1.007715
0.487500	-1.011935
0.487600	-1.021348
0.487700	-1.016803
0.487800	-1.021348
0.487900	-1.028488
0.488000	-1.039524
0.488100	-1.051858
0.488200	-1.068087
0.488300	-1.130083
0.488400	-1.168708
0.488500	-1.231677
0.488600	-1.250503
0.488700	-1.268679
0.488800	-1.285557
0.488900	-1.350798
0.489000	-1.485176
0.489100	-1.560154
0.489200	-1.570865
0.489300	-1.501729
0.489400	-1.467324
0.489500	-1.511467
0.489600	-1.639028
0.489700	-1.744192
0.489800	-1.755553
0.489900	-1.698426
0.490000	-1.641624
0.490100	-1.654932
0.490200	-1.718226
0.490300	-1.775028
0.490400	-1.793854
0.490500	-1.803267
0.490600	-1.808784
0.490700	-1.838321
0.490800	-1.888307
0.490900	-1.942837
0.491000	-1.975945
0.491100	-2.008078
0.491200	-2.045081
0.491300	-2.060985
0.491400	-2.070074
0.491500	-2.080136
0.491600	-2.087926
0.491700	-2.128823
0.491800	-2.208995
0.491900	-2.275535
0.492000	-2.313186
0.492100	-2.335907
0.492200	-2.342724
0.492300	-2.352136
0.492400	-2.357330
0.492500	-2.353435
0.492600	-2.348566
0.492700	-2.349864
0.492800	-2.355058
0.492900	-2.358953
0.493000	-2.367392
0.493100	-2.376480
0.493200	-2.389139
0.493300	-2.406017
0.493400	-2.421922
0.493500	-2.436204
0.493600	-2.453082
0.493700	-2.474829
0.493800	-2.490084
0.493900	-2.519946
0.494000	-2.556299
0.494100	-2.671527
0.494200	-2.835766
0.494300	-2.925351
0.494400	-2.884454
0.494500	-2.791298
0.494600	-2.771174
0.494700	-2.876664
0.494800	-3.051290
0.494900	-3.177878
0.495000	-3.198976
0.495100	-3.140875
0.495200	-3.112312
0.495300	-3.174632
0.495400	-3.294728
0.495500	-3.406385
0.495600	-3.457670
0.495700	-3.479742
0.495800	-3.499866
0.495900	-3.530052
0.496000	-3.585556
0.496100	-3.630349
0.496200	-3.666378
0.496300	-3.690073
0.496400	-3.737462
0.496500	-3.785825
0.496600	-3.844900
0.496700	-3.878657
0.496800	-3.894237
0.496900	-3.914686
0.497000	-3.949741
0.497100	-3.980252
0.497200	-3.948118
0.497300	-3.854638
0.497400	-3.794589
0.497500	-3.814714
0.497600	-3.886772
0.497700	-3.955259
0.497800	-3.910466
0.497900	-3.787773
0.498000	-3.641385
0.498100	-3.576468
0.498200	-3.602759
0.498300	-3.643008
0.498400	-3.627103
0.498500	-3.527780
0.498600	-3.407035
0.498700	-3.313879
0.498800	-3.250909
0.498900	-3.205143
0.499000	-3.148016
0.499100	-3.084398
0.499200	-3.023376
0.499300	-2.970793
0.499400	-2.922105
0.499500	-2.857838
0.499600	-2.787728
0.499700	-2.736119
0.499800	-2.715021
0.499900	-2.707231
0.500000	-2.689703
0.500100	-2.632577
0.500200	-2.579669
0.500300	-2.503068
0.500400	-2.444643
0.500500	-2.400824
0.500600	-2.354409
0.500700	-2.302475
0.500800	-2.241454
0.500900	-2.170045
0.501000	-2.093119
0.501100	-2.033396
0.501200	-1.990551
0.501300	-1.956145
0.501400	-1.930503
0.501500	-1.907782
0.501600	-1.878570
0.501700	-1.845787
0.501800	-1.805863
0.501900	-1.771782
0.502000	-1.731858
0.502100	-1.721796
0.502200	-1.703295
0.502300	-1.682846
0.502400	-1.584822
0.502500	-1.438760
0.502600	-1.307304
0.502700	-1.343333
0.502800	-1.482904
0.502900	-1.573462
0.503000	-1.539705
0.503100	-1.411820
0.503200	-1.332622
0.503300	-1.348526
0.503400	-1.456937
0.503500	-1.558531
0.503600	-1.592612
0.503700	-1.563725
0.503800	-1.523152
0.503900	-1.516336
0.504000	-1.551715
0.504100	-1.592288
0.504200	-1.636431
0.504300	-1.664345
0.504400	-1.676355
0.504500	-1.681223
0.504600	-1.691286
0.504700	-1.694531
0.504800	-1.696154
0.504900	-1.723095
0.505000	-1.760422
0.505100	-1.796126
0.505200	-1.822092
0.505300	-1.817548
0.505400	-1.806837
0.505500	-1.819820
0.505600	-1.898045
0.505700	-2.020412
0.505800	-2.055467
0.505900	-2.039563
0.506000	-1.961988
0.506100	-1.954847
0.506200	-2.039238
0.506300	-2.170370
0.506400	-2.237559
0.506500	-2.242427
0.506600	-2.191792
0.506700	-2.172967
0.506800	-2.230093
0.506900	-2.322599
0.507000	-2.380375
0.507100	-2.407965
0.507200	-2.420948
0.507300	-2.451459
0.507400	-2.504042
0.507500	-2.559221
0.507600	-2.601741
0.507700	-2.613426
0.507800	-2.627383
0.507900	-2.641990
0.508000	-2.643937
0.508100	-2.618295
0.508200	-2.581617
0.508300	-2.532280
0.508400	-2.522218
0.508500	-2.527087
0.508600	-2.500147
0.508700	-2.453731
0.508800	-2.382323
0.508900	-2.320003
0.509000	-2.258332
0.509100	-2.202179
0.509200	-2.143105
0.509300	-2.089224
0.509400	-2.047677
0.509500	-2.000938
0.509600	-1.968155
0.509700	-1.941214
0.509800	-1.922064
0.509900	-1.911353
0.510000	-1.906159
0.510100	-1.908431
0.510200	-1.908756
0.510300	-1.912002
0.510400	-1.934398
0.510500	-1.953548
0.510600	-1.991525
0.510700	-2.047677
0.510800	-2.197959
0.510900	-2.350838
0.511000	-2.400499
0.511100	-2.330389
0.511200	-2.246647
0.511300	-2.269043
0.511400	-2.405368
0.511500	-2.569283
0.511600	-2.653675
0.511700	-2.617321
0.511800	-2.561168
0.511900	-2.552729
0.512000	-2.633226
0.512100	-2.743909
0.512200	-2.821484
0.512300	-2.845179
0.512400	-2.847127
0.512500	-2.864329
0.512600	-2.900358
0.512700	-2.950993
0.512800	-2.995137
0.512900	-3.023051
0.513000	-3.036684
0.513100	-3.089915
0.513200	-3.136656
0.513300	-3.176904
0.513400	-3.204494
0.513500	-3.234356
0.513600	-3.283692
0.513700	-3.342442
0.513800	-3.378796
0.513900	-3.346986
0.514000	-3.284342
0.514100	-3.295377
0.514200	-3.373927
0.514300	-3.492400
0.514400	-3.561862
0.514500	-3.519016
0.514600	-3.427483
0.514700	-3.366786
0.514800	-3.391779
0.514900	-3.487532
0.515000	-3.554072
0.515100	-3.537842
0.515200	-3.461240
0.515300	-3.386910
0.515400	-3.357049
0.515500	-3.358996
0.515600	-3.350232
0.515700	-3.332056
0.515800	-3.291482
0.515900	-3.251883
0.516000	-3.216503
0.516100	-3.171386
0.516200	-3.105171
0.516300	-3.030517
0.516400	-2.963003
0.516500	-2.896788
0.516600	-2.838038
0.516700	-2.754296
0.516800	-2.630305
0.516900	-2.496252
0.517000	-2.364795
0.517100	-2.270666
0.517200	-2.184652
0.517300	-2.108374
0.517400	-2.027553
0.517500	-1.950627
0.517600	-1.869806
0.517700	-1.809758
0.517800	-1.765615
0.517900	-1.739973
0.518000	-1.714331
0.518100	-1.702321
0.518200	-1.698102
0.518300	-1.678627
0.518400	-1.660775
0.518500	-1.633185
0.518600	-1.632861
0.518700	-1.609815
0.518800	-1.613061
0.518900	-1.584498
0.519000	-1.551715
0.519100	-1.418312
0.519200	-1.259266
0.519300	-1.158970
0.519400	-1.222264
0.519500	-1.331648
0.519600	-1.341710
0.519700	-1.236546
0.519800	-1.081071
0.519900	-0.983371
0.520000	-0.987591
0.520100	-1.051534
0.520200	-1.088211
0.520300	-1.032059
0.520400	-0.928517
0.520500	-0.839257
0.520600	-0.797386
0.520700	-0.783104
0.520800	-0.773042
0.520900	-0.748374
0.521000	-0.711372
0.521100	-0.676966
0.521200	-0.652622
0.521300	-0.642885
0.521400	-0.617568
0.521500	-0.617243
0.521600	-0.642236
0.521700	-0.675992
0.521800	-0.728575
0.521900	-0.773042
0.522000	-0.789921
0.522100	-0.808097
0.522200	-0.845099
0.522300	-0.984994
0.522400	-1.094054
0.522500	-1.149882
0.522600	-1.130407
0.522700	-1.108336
0.522800	-1.169357
0.522900	-1.309901
0.523000	-1.468622
0.523100	-1.548469
0.523200	-1.553338
0.523300	-1.520231
0.523400	-1.563400
0.523500	-1.678951
0.523600	-1.802293
0.523700	-1.883439
0.523800	-1.943811
0.523900	-1.977243
0.524000	-2.035343
0.524100	-2.112594
0.524200	-2.202179
0.524300	-2.273263
0.524400	-2.334284
0.524500	-2.397903
0.524600	-2.472232
0.524700	-2.514428
0.524800	-2.553054
0.524900	-2.589082
0.525000	-2.620892
0.525100	-2.702362
0.525200	-2.773771
0.525300	-2.822134
0.525400	-2.855241
0.525500	-2.865952
0.525600	-2.897112
0.525700	-2.920158
0.525800	-2.943203
0.525900	-2.968846
0.526000	-2.988321
0.526100	-3.010068
0.526200	-3.029543
0.526300	-3.050316
0.526400	-3.070765
0.526500	-3.085371
0.526600	-3.099653
0.526700	-3.111338
0.526800	-3.111338
0.526900	-3.116207
0.527000	-3.115558
0.527100	-3.126594
0.527200	-3.124321
0.527300	-3.136006
0.527400	-3.196379
0.527500	-3.330433
0.527600	-3.418070
0.527700	-3.393727
0.527800	-3.289860
0.527900	-3.215205
0.528000	-3.262919
0.528100	-3.398271
0.528200	-3.519341
0.528300	-3.537518
0.528400	-3.465460
0.528500	-3.400543
0.528600	-3.404113
0.528700	-3.482014
0.528800	-3.565432
0.528900	-3.618015
0.529000	-3.603733
0.529100	-3.581986
0.529200	-3.578740
0.529300	-3.599189
0.529400	-3.632946
0.529500	-3.642359
0.529600	-3.655342
0.529700	-3.667352
0.529800	-3.697538
0.529900	-3.715715
0.530000	-3.725453
0.530100	-3.710846
0.530200	-3.710846
0.530300	-3.726426
0.530400	-3.743305
0.530500	-3.734216
0.530600	-3.649824
0.530700	-3.574520
0.530800	-3.568029
0.530900	-3.630024
0.531000	-3.712469
0.531100	-3.719610
0.531200	-3.644631
0.531300	-3.534921
0.531400	-3.494997
0.531500	-3.560888
0.531600	-3.668001
0.531700	-3.745577
0.531800	-3.733567
0.531900	-3.675466
0.532000	-3.633920
0.532100	-3.619313
0.532200	-3.631323
0.532300	-3.633920
0.532400	-3.614769
0.532500	-3.583609
0.532600	-3.523236
0.532700	-3.453775
0.532800	-3.384314
0.532900	-3.300571
0.533000	-3.223320
0.533100	-3.164894
0.533200	-3.123348
0.533300	-3.074985
0.533400	-2.993514
0.533500	-2.900683
0.533600	-2.794869
0.533700	-2.726706
0.533800	-2.676395
0.533900	-2.627383
0.534000	-2.584214
0.534100	-2.526762
0.534200	-2.456003
0.534300	-2.389788
0.534400	-2.323573
0.534500	-2.288518
0.534600	-2.265797
0.534700	-2.248594
0.534800	-2.226847
0.534900	-2.213864
0.535000	-2.175239
0.535100	-2.156737
0.535200	-2.121033
0.535300	-2.117138
0.535400	-2.112919
0.535500	-2.111945
0.535600	-2.116164
0.535700	-2.043133
0.535800	-1.922388
0.535900	-1.792231
0.536000	-1.779572
0.536100	-1.906159
0.536200	-2.005806
0.536300	-2.002885
0.536400	-1.873052
0.536500	-1.776002
0.536600	-1.749386
0.536700	-1.828909
0.536800	-1.916546
0.536900	-1.944785
0.537000	-1.903887
0.537100	-1.828259
0.537200	-1.783792
0.537300	-1.782493
0.537400	-1.811057
0.537500	-1.826312
0.537600	-1.844489
0.537700	-1.841243
0.537800	-1.832479
0.537900	-1.840269
0.538000	-1.843839
0.538100	-1.843515
0.538200	-1.888307
0.538300	-1.927582
0.538400	-1.994121
0.538500	-2.046379
0.538600	-2.065530
0.538700	-2.071697
0.538800	-2.077215
0.538900	-2.139210
0.539000	-2.261902
0.539100	-2.320976
0.539200	-2.316432
0.539300	-2.241454
0.539400	-2.207048
0.539500	-2.266446
0.539600	-2.396929
0.539700	-2.493006
0.539800	-2.506963
0.539900	-2.445292
0.540000	-2.393683
0.540100	-2.430036
0.540200	-2.517674
0.540300	-2.597522
0.540400	-2.637445
0.540500	-2.661465
0.540600	-2.676720
0.540700	-2.723460
0.540800	-2.775393
0.540900	-2.832196
0.541000	-2.872444
0.541100	-2.915614
0.541200	-2.958134
0.541300	-2.987671
0.541400	-2.995461
0.541500	-2.987996
0.541600	-2.973714
0.541700	-2.981829
0.541800	-3.033113
0.541900	-3.058106
0.542000	-3.045123
0.542100	-2.971442
0.542200	-2.921456
0.542300	-2.879585
0.542400	-2.826029
0.542500	-2.759813
0.542600	-2.695221
0.542700	-2.625760
0.542800	-2.556624
0.542900	-2.499173
0.543000	-2.451784
0.543100	-2.406017
0.543200	-2.369989
0.543300	-2.332986
0.543400	-2.308967
0.543500	-2.289492
0.543600	-2.280079
0.543700	-2.276833
0.543800	-2.275210
0.543900	-2.279105
0.544000	-2.301501
0.544100	-2.392709
0.544200	-2.520271
0.544300	-2.565063
0.544400	-2.472557
0.544500	-2.365444
0.544600	-2.325521
0.544700	-2.429387
0.544800	-2.572529
0.544900	-2.661789
0.545000	-2.646534
0.545100	-2.574152
0.545200	-2.538447
0.545300	-2.586486
0.545400	-2.695221
0.545500	-2.782210
0.545600	-2.815966
0.545700	-2.808176
0.545800	-2.809150
0.545900	-2.836740
0.546000	-2.874392
0.546100	-2.909122
0.546200	-2.922430
0.546300	-2.934764
0.546400	-2.959757
0.546500	-3.001953
0.546600	-3.038307
0.546700	-3.038956
0.546800	-3.036684
0.546900	-3.049992
0.547000	-3.075958
0.547100	-3.110364
0.547200	-3.099653
0.547300	-3.024999
0.547400	-2.997734
0.547500	-3.048369
0.547600	-3.158727
0.547700	-3.246041
0.547800	-3.228513
0.547900	-3.135033
0.548000	-3.045447
0.548100	-3.040903
0.548200	-3.124971
0.548300	-3.222995
0.548400	-3.255129
0.548500	-3.200274
0.548600	-3.120426
0.548700	-3.069467
0.548800	-3.055185
0.548900	-3.062650
0.549000	-3.057457
0.549100	-3.045772
0.549200	-3.011691
0.549300	-2.968521
0.549400	-2.902955
0.549500	-2.823432
0.549600	-2.743909
0.549700	-2.679317
0.549800	-2.630629
0.549900	-2.595574
0.550000	-2.543641
0.550100	-2.452433
0.550200	-2.372585
0.550300	-2.308967
0.550400	-2.235611
0.550500	-2.174914
0.550600	-2.113892
0.550700	-2.053520
0.550800	-1.986331
0.550900	-1.906159
0.551000	-1.832804
0.551100	-1.769510
0.551200	-1.741920
0.551300	-1.717577
0.551400	-1.698751
0.551500	-1.693233
0.551600	-1.685768
0.551700	-1.664345
0.551800	-1.664021
0.551900	-1.648441
0.552000	-1.669863
0.552100	-1.671811
0.552200	-1.703295
0.552300	-1.693233
0.552400	-1.643247
0.552500	-1.488746
0.552600	-1.417338
0.552700	-1.479982
0.552800	-1.626369
0.552900	-1.711410
0.553000	-1.646493
0.553100	-1.517634
0.553200	-1.409548
0.553300	-1.420908
0.553400	-1.495238
0.553500	-1.566646
0.553600	-1.541004
0.553700	-1.463104
0.553800	-1.371896
0.553900	-1.329701
0.554000	-1.342684
0.554100	-1.371896
0.554200	-1.382608
0.554300	-1.377090
0.554400	-1.357939
0.554500	-1.341061
0.554600	-1.333271
0.554700	-1.324507
0.554800	-1.292049
0.554900	-1.297567
0.555000	-1.302111
0.555100	-1.330674
0.555200	-1.347553
0.555300	-1.352097
0.555400	-1.335868
0.555500	-1.355667
0.555600	-1.442980
0.555700	-1.570865
0.555800	-1.620851
0.555900	-1.611763
0.556000	-1.556584
0.556100	-1.584173
0.556200	-1.699076
0.556300	-1.860393
0.556400	-1.958417
0.556500	-1.973673
0.556600	-1.926933
0.556700	-1.918169
0.556800	-1.997367
0.556900	-2.106427
0.557000	-2.184976
0.557100	-2.226523
0.557200	-2.244699
0.557300	-2.279105
0.557400	-2.331688
0.557500	-2.400499
0.557600	-2.459898
0.557700	-2.496576
0.557800	-2.536824
0.557900	-2.585837
0.558000	-2.616672
0.558100	-2.633550
0.558200	-2.641340
0.558300	-2.656271
0.558400	-2.717618
0.558500	-2.792596
0.558600	-2.836415
0.558700	-2.851346
0.558800	-2.834468
0.558900	-2.850697
0.559000	-2.877962
0.559100	-2.903929
0.559200	-2.918535
0.559300	-2.939958
0.559400	-2.950669
0.559500	-2.968846
0.559600	-2.982803
0.559700	-2.994488
0.559800	-2.997409
0.559900	-3.007796
0.560000	-3.009743
0.560100	-3.015586
0.560200	-3.014287
0.560300	-3.011366
0.560400	-3.004550
0.560500	-3.018832
0.560600	-3.023700
0.560700	-3.071090
0.560800	-3.194432
0.560900	-3.305440
0.561000	-3.294404
0.561100	-3.168465
0.561200	-3.044798
0.561300	-3.021753
0.561400	-3.123672
0.561500	-3.229811
0.561600	-3.241496
0.561700	-3.142174
0.561800	-3.009094
0.561900	-2.941905
0.562000	-2.959108
0.562100	-3.017858
0.562200	-3.037333
0.562300	-3.023376
0.562400	-2.990268
0.562500	-2.969495
0.562600	-2.974688
0.562700	-2.993189
0.562800	-2.996760
0.562900	-3.000979
0.563000	-2.998058
0.563100	-3.009419
0.563200	-3.034412
0.563300	-3.048693
0.563400	-3.036359
0.563500	-3.035061
0.563600	-3.049667
0.563700	-3.081152
0.563800	-3.088293
0.563900	-3.032464
0.564000	-2.965600
0.564100	-2.975337
0.564200	-3.058755
0.564300	-3.177229
0.564400	-3.237926
0.564500	-3.200599
0.564600	-3.098355
0.564700	-3.033438
0.564800	-3.065247
0.564900	-3.178852
0.565000	-3.281420
0.565100	-3.304466
0.565200	-3.260322
0.565300	-3.221372
0.565400	-3.210661
0.565500	-3.230136
0.565600	-3.249286
0.565700	-3.247664
0.565800	-3.235654
0.565900	-3.207415
0.566000	-3.172684
0.566100	-3.137629
0.566200	-3.074011
0.566300	-3.000979
0.566400	-2.954888
0.566500	-2.926650
0.566600	-2.906201
0.566700	-2.850372
0.566800	-2.757217
0.566900	-2.689379
0.567000	-2.577397
0.567100	-2.505989
0.567200	-2.442695
0.567300	-2.378428
0.567400	-2.309291
0.567500	-2.241129
0.567600	-2.161606
0.567700	-2.093119
0.567800	-2.042484
0.567900	-2.010675
0.568000	-1.995095
0.568100	-1.983735
0.568200	-1.983735
0.568300	-1.973348
0.568400	-1.960040
0.568500	-1.949978
0.568600	-1.941539
0.568700	-1.953548
0.568800	-1.959066
0.568900	-1.976918
0.569000	-1.941539
0.569100	-1.830856
0.569200	-1.675706
0.569300	-1.597806
0.569400	-1.681873
0.569500	-1.807486
0.569600	-1.823715
0.569700	-1.715305
0.569800	-1.548794
0.569900	-1.469271
0.570000	-1.473815
0.570100	-1.546197
0.570200	-1.583849
0.570300	-1.534512
0.570400	-1.440383
0.570500	-1.357939
0.570600	-1.335868
0.570700	-1.344956
0.570800	-1.356641
0.570900	-1.354044
0.571000	-1.340087
0.571100	-1.321586
0.571200	-1.310550
0.571300	-1.309577
0.571400	-1.308927
0.571500	-1.309252
0.571600	-1.351772
0.571700	-1.390398
0.571800	-1.444927
0.571900	-1.469920
0.572000	-1.468622
0.572100	-1.462455
0.572200	-1.491018
0.572300	-1.604947
0.572400	-1.684145
0.572500	-1.695830
0.572600	-1.622799
0.572700	-1.561128
0.572800	-1.557557
0.572900	-1.675056
0.573000	-1.775677
0.573100	-1.805863
0.573200	-1.756851
0.573300	-1.688040
0.573400	-1.682197
0.573500	-1.740947
0.573600	-1.816899
0.573700	-1.844489
0.573800	-1.851954
0.573900	-1.835400
0.574000	-1.845462
0.574100	-1.877271
0.574200	-1.912651
0.574300	-1.931477
0.574400	-1.941863
0.574500	-1.953548
0.574600	-1.951276
0.574700	-1.936346
0.574800	-1.909081
0.574900	-1.880517
0.575000	-1.867859
0.575100	-1.894799
0.575200	-1.908431
0.575300	-1.905186
0.575400	-1.852928
0.575500	-1.808135
0.575600	-1.804565
0.575700	-1.804889
0.575800	-1.796126
0.575900	-1.790283
0.576000	-1.786388
0.576100	-1.778274
0.576200	-1.774054
0.576300	-1.775352
0.576400	-1.787037
0.576500	-1.793854
0.576600	-1.813004
0.576700	-1.833453
0.576800	-1.870131
0.576900	-1.899343
0.577000	-1.939267
0.577100	-1.977243
0.577200	-2.024632
0.577300	-2.086303
0.577400	-2.206074
0.577500	-2.397903
0.577600	-2.536500
0.577700	-2.558247
0.577800	-2.495927
0.577900	-2.480996
0.578000	-2.596548
0.578100	-2.810449
0.578200	-2.986698
0.578300	-3.052913
0.578400	-3.033438
0.578500	-3.015910
0.578600	-3.076932
0.578700	-3.202871
0.578800	-3.334003
0.578900	-3.413526
0.579000	-3.453450
0.579100	-3.477794
0.579200	-3.521288
0.579300	-3.567704
0.579400	-3.612172
0.579500	-3.647552
0.579600	-3.660536
0.579700	-3.673843
0.579800	-3.717663
0.579900	-3.751744
0.580000	-3.772842
0.580100	-3.778035
0.580200	-3.784852
0.580300	-3.816986
0.580400	-3.851067
0.580500	-3.836136
0.580600	-3.759534
0.580700	-3.698837
0.580800	-3.710522
0.580900	-3.791668
0.581000	-3.891965
0.581100	-3.916958
0.581200	-3.845225
0.581300	-3.747849
0.581400	-3.723505
0.581500	-3.789071
0.581600	-3.901702
0.581700	-3.977980
0.581800	-3.967593
0.581900	-3.912089
0.582000	-3.877683
0.582100	-3.887745
0.582200	-3.913388
0.582300	-3.929941
0.582400	-3.923125
0.582500	-3.904299
0.582600	-3.861778
0.582700	-3.828995
0.582800	-3.770570
0.582900	-3.694292
0.583000	-3.619962
0.583100	-3.554072
0.583200	-3.499217
0.583300	-3.442414
0.583400	-3.337249
0.583500	-3.217153
0.583600	-3.102250
0.583700	-2.977285
0.583800	-2.883480
0.583900	-2.789351
0.584000	-2.686782
0.584100	-2.594276
0.584200	-2.498524
0.584300	-2.411535
0.584400	-2.333960
0.584500	-2.283000
0.584600	-2.242752
0.584700	-2.208022
0.584800	-2.176212
0.584900	-2.152842
0.585000	-2.117138
0.585100	-2.081759
0.585200	-2.047677
0.585300	-2.029176
0.585400	-1.998665
0.585500	-2.006455
0.585600	-1.966532
0.585700	-1.914598
0.585800	-1.754904
0.585900	-1.623123
0.586000	-1.600727
0.586100	-1.723095
0.586200	-1.814952
0.586300	-1.801644
0.586400	-1.678951
0.586500	-1.572164
0.586600	-1.545223
0.586700	-1.606894
0.586800	-1.683496
0.586900	-1.710760
0.587000	-1.655581
0.587100	-1.584498
0.587200	-1.535810
0.587300	-1.534188
0.587400	-1.545873
0.587500	-1.551715
0.587600	-1.551066
0.587700	-1.533863
0.587800	-1.525424
0.587900	-1.524450
0.588000	-1.530942
0.588100	-1.524125
0.588200	-1.555285
0.588300	-1.584498
0.588400	-1.615658
0.588500	-1.659476
0.588600	-1.650388
0.588700	-1.644221
0.588800	-1.633510
0.588900	-1.680899
0.589000	-1.782493
0.589100	-1.828909
0.589200	-1.816250
0.589300	-1.728288
0.589400	-1.694856
0.589500	-1.746465
0.589600	-1.861367
0.589700	-1.954522
0.589800	-1.961988
0.589900	-1.902589
0.590000	-1.859744
0.590100	-1.894474
0.590200	-1.978541
0.590300	-2.046379
0.590400	-2.080785
0.590500	-2.085978
0.590600	-2.091172
0.590700	-2.114542
0.590800	-2.155439
0.590900	-2.182379
0.591000	-2.190169
0.591100	-2.191792
0.591200	-2.193740
0.591300	-2.185950
0.591400	-2.161931
0.591500	-2.135639
0.591600	-2.099286
0.591700	-2.093119
0.591800	-2.113243
0.591900	-2.112594
0.592000	-2.091821
0.592100	-2.058389
0.592200	-2.024307
0.592300	-2.006455
0.592400	-1.980164
0.592500	-1.967181
0.592600	-1.956145
0.592700	-1.948355
0.592800	-1.938942
0.592900	-1.934723
0.593000	-1.930828
0.593100	-1.934398
0.593200	-1.943811
0.593300	-1.943162
0.593400	-1.949978
0.593500	-1.949329
0.593600	-1.960689
0.593700	-1.975295
0.593800	-1.994770
0.593900	-2.021062
0.594000	-2.070074
0.594100	-2.195687
0.594200	-2.354409
0.594300	-2.431335
0.594400	-2.388165
0.594500	-2.313186
0.594600	-2.308967
0.594700	-2.438476
0.594800	-2.617321
0.594900	-2.737742
0.595000	-2.743909
0.595100	-2.708854
0.595200	-2.703336
0.595300	-2.787728
0.595400	-2.918860
0.595500	-3.033762
0.595600	-3.102574
0.595700	-3.130489
0.595800	-3.174632
0.595900	-3.240198
0.596000	-3.309010
0.596100	-3.370357
0.596200	-3.426834
0.596300	-3.476820
0.596400	-3.533298
0.596500	-3.594969
0.596600	-3.647877
0.596700	-3.672870
0.596800	-3.695266
0.596900	-3.726751
0.597000	-3.783229
0.597100	-3.826399
0.597200	-3.811143
0.597300	-3.735190
0.597400	-3.715390
0.597500	-3.766675
0.597600	-3.869569
0.597700	-3.964997
0.597800	-3.956233
0.597900	-3.887745
