LabVIEW Measurement	
Writer_Version	2
Reader_Version	2
Separator	Tab
Decimal_Separator	.
Multi_Headings	Yes
X_Columns	One
Time_Pref	Relative
Operator	as989
Description	Time Domain Data
Date	1903/12/31
Time	19:00:00
***End_of_Header***	
	
Channels	1	
Samples	15000	
Date	1903/12/31	
Time	19:00:00	
X_Dimension	Time	
X0	0.0000000000000000E+0	
Delta_X	0.000100	
***End_of_Header***		
X_Value	Untitled	Comment
0.000000	-2.095391	Tare Values:0.000000, 0.000000, 0.000000, 0.000000\0D\0A
0.000100	-2.270666
0.000200	-2.437177
0.000300	-2.393034
0.000400	-2.166799
0.000500	-1.990875
0.000600	-2.041835
0.000700	-2.224251
0.000800	-2.394657
0.000900	-2.424194
0.001000	-2.334284
0.001100	-2.226847
0.001200	-2.192766
0.001300	-2.260604
0.001400	-2.297606
0.001500	-2.298256
0.001600	-2.265797
0.001700	-2.245349
0.001800	-2.209644
0.001900	-2.182055
0.002000	-2.109673
0.002100	-2.007754
0.002200	-1.924985
0.002300	-1.925959
0.002400	-1.913300
0.002500	-1.915572
0.002600	-1.824689
0.002700	-1.682522
0.002800	-1.586770
0.002900	-1.456288
0.003000	-1.503677
0.003100	-1.530942
0.003200	-1.488097
0.003300	-1.411495
0.003400	-1.332946
0.003500	-1.274197
0.003600	-1.249853
0.003700	-1.277767
0.003800	-1.316068
0.003900	-1.303409
0.004000	-1.298865
0.004100	-1.296593
0.004200	-1.255047
0.004300	-1.199543
0.004400	-1.135276
0.004500	-1.169682
0.004600	-1.132679
0.004700	-1.231352
0.004800	-1.084966
0.004900	-1.021997
0.005000	-0.715591
0.005100	-0.566284
0.005200	-0.738312
0.005300	-1.034655
0.005400	-1.242713
0.005500	-0.908068
0.005600	-0.833415
0.005700	-0.574074
0.005800	-0.645482
0.005900	-0.803553
0.006000	-0.962923
0.006100	-1.019400
0.006200	-0.809395
0.006300	-0.749672
0.006400	-0.706503
0.006500	-0.743505
0.006600	-0.809071
0.006700	-0.787973
0.006800	-0.801930
0.006900	-0.747076
0.007000	-0.776613
0.007100	-0.775964
0.007200	-0.800307
0.007300	-0.781481
0.007400	-0.910340
0.007500	-0.938255
0.007600	-0.964546
0.007700	-0.995706
0.007800	-1.038550
0.007900	-0.934684
0.008000	-0.953510
0.008100	-1.056402
0.008200	-1.340736
0.008300	-1.415715
0.008400	-1.270627
0.008500	-1.050235
0.008600	-0.960651
0.008700	-1.105739
0.008800	-1.403705
0.008900	-1.504651
0.009000	-1.354693
0.009100	-1.204736
0.009200	-1.096651
0.009300	-1.202789
0.009400	-1.328078
0.009500	-1.419610
0.009600	-1.337166
0.009700	-1.313147
0.009800	-1.282636
0.009900	-1.392020
0.010000	-1.442006
0.010100	-1.454989
0.010200	-1.388775
0.010300	-1.377739
0.010400	-1.401758
0.010500	-1.428049
0.010600	-1.429997
0.010700	-1.402732
0.010800	-1.380985
0.010900	-1.390073
0.011000	-1.540030
0.011100	-1.597157
0.011200	-1.567620
0.011300	-1.547171
0.011400	-1.419285
0.011500	-1.498483
0.011600	-1.504975
0.011700	-1.492316
0.011800	-1.504326
0.011900	-1.469271
0.012000	-1.481605
0.012100	-1.493290
0.012200	-1.484851
0.012300	-1.536135
0.012400	-1.510168
0.012500	-1.546522
0.012600	-1.544250
0.012700	-1.577357
0.012800	-1.599104
0.012900	-1.583849
0.013000	-1.634159
0.013100	-1.625720
0.013200	-1.722121
0.013300	-1.867859
0.013400	-2.132069
0.013500	-2.107076
0.013600	-1.855849
0.013700	-1.657854
0.013800	-1.624097
0.013900	-1.874350
0.014000	-2.108050
0.014100	-2.201205
0.014200	-2.049625
0.014300	-1.880842
0.014400	-1.823391
0.014500	-1.926933
0.014600	-2.139210
0.014700	-2.215162
0.014800	-2.229119
0.014900	-2.156088
0.015000	-2.096689
0.015100	-2.112594
0.015200	-2.212566
0.015300	-2.235936
0.015400	-2.240804
0.015500	-2.204451
0.015600	-2.248270
0.015700	-2.257683
0.015800	-2.325521
0.015900	-2.287869
0.016000	-2.300852
0.016100	-2.320003
0.016200	-2.339153
0.016300	-2.410237
0.016400	-2.327144
0.016500	-2.193740
0.016600	-2.168747
0.016700	-2.295334
0.016800	-2.496576
0.016900	-2.647183
0.017000	-2.507937
0.017100	-2.276184
0.017200	-2.167124
0.017300	-2.282351
0.017400	-2.474504
0.017500	-2.634849
0.017600	-2.626085
0.017700	-2.479373
0.017800	-2.337206
0.017900	-2.316757
0.018000	-2.356031
0.018100	-2.421273
0.018200	-2.393359
0.018300	-2.330389
0.018400	-2.247621
0.018500	-2.167773
0.018600	-2.143754
0.018700	-2.020088
0.018800	-1.884088
0.018900	-1.792880
0.019000	-1.785415
0.019100	-1.776975
0.019200	-1.758474
0.019300	-1.609815
0.019400	-1.509195
0.019500	-1.332297
0.019600	-1.355667
0.019700	-1.393319
0.019800	-1.418312
0.019900	-1.377414
0.020000	-1.298541
0.020100	-1.197596
0.020200	-1.143715
0.020300	-1.165137
0.020400	-1.152479
0.020500	-1.163839
0.020600	-1.136250
0.020700	-1.186560
0.020800	-1.128784
0.020900	-1.132355
0.021000	-1.117099
0.021100	-1.132030
0.021200	-1.169357
0.021300	-1.163190
0.021400	-1.302111
0.021500	-1.122942
0.021600	-1.092106
0.021700	-0.737663
0.021800	-0.762006
0.021900	-0.847047
0.022000	-1.349825
0.022100	-1.259591
0.022200	-1.100546
0.022300	-0.826274
0.022400	-0.836660
0.022500	-0.802255
0.022600	-1.057376
0.022700	-1.122617
0.022800	-1.092106
0.022900	-0.934684
0.023000	-0.805176
0.023100	-0.851267
0.023200	-0.886321
0.023300	-0.977204
0.023400	-0.962923
0.023500	-0.975257
0.023600	-0.970713
0.023700	-0.939553
0.023800	-0.968116
0.023900	-0.976231
0.024000	-1.016154
0.024100	-1.096326
0.024200	-1.157023
0.024300	-1.125863
0.024400	-1.197596
0.024500	-1.030760
0.024600	-1.034331
0.024700	-0.968116
0.024800	-1.147285
0.024900	-1.357939
0.025000	-1.326779
0.025100	-1.198569
0.025200	-0.966169
0.025300	-1.024593
0.025400	-1.193051
0.025500	-1.398837
0.025600	-1.471868
0.025700	-1.386178
0.025800	-1.235896
0.025900	-1.186560
0.026000	-1.300164
0.026100	-1.433892
0.026200	-1.433567
0.026300	-1.454989
0.026400	-1.455639
0.026500	-1.455963
0.026600	-1.508870
0.026700	-1.522178
0.026800	-1.508870
0.026900	-1.500756
0.027000	-1.535161
0.027100	-1.593911
0.027200	-1.576059
0.027300	-1.562426
0.027400	-1.504975
0.027500	-1.475114
0.027600	-1.533538
0.027700	-1.646493
0.027800	-1.641949
0.027900	-1.602674
0.028000	-1.553013
0.028100	-1.453042
0.028200	-1.485500
0.028300	-1.454989
0.028400	-1.421233
0.028500	-1.415390
0.028600	-1.425777
0.028700	-1.409223
0.028800	-1.410522
0.028900	-1.417338
0.029000	-1.414741
0.029100	-1.439409
0.029200	-1.465376
0.029300	-1.491343
0.029400	-1.507247
0.029500	-1.500431
0.029600	-1.574111
0.029700	-1.583200
0.029800	-1.639677
0.029900	-1.717577
0.030000	-1.912976
0.030100	-2.117138
0.030200	-2.023009
0.030300	-1.844489
0.030400	-1.619877
0.030500	-1.747114
0.030600	-2.040861
0.030700	-2.241129
0.030800	-2.277482
0.030900	-2.059362
0.031000	-1.925634
0.031100	-1.910703
0.031200	-2.066503
0.031300	-2.187573
0.031400	-2.221654
0.031500	-2.148298
0.031600	-2.064231
0.031700	-2.071372
0.031800	-2.076241
0.031900	-2.100584
0.032000	-2.071697
0.032100	-2.043782
0.032200	-2.006455
0.032300	-2.016193
0.032400	-2.046704
0.032500	-2.003210
0.032600	-1.976269
0.032700	-1.925310
0.032800	-2.015219
0.032900	-2.049625
0.033000	-2.023334
0.033100	-1.945434
0.033200	-1.799696
0.033300	-1.846111
0.033400	-1.979515
0.033500	-2.162580
0.033600	-2.246647
0.033700	-2.058064
0.033800	-1.895448
0.033900	-1.830856
0.034000	-1.954198
0.034100	-2.157387
0.034200	-2.253788
0.034300	-2.215487
0.034400	-2.084031
0.034500	-1.994121
0.034600	-2.017167
0.034700	-2.050274
0.034800	-2.093444
0.034900	-2.084031
0.035000	-2.071697
0.035100	-2.053845
0.035200	-2.032097
0.035300	-2.010675
0.035400	-1.895773
0.035500	-1.763343
0.035600	-1.756527
0.035700	-1.793204
0.035800	-1.797749
0.035900	-1.762045
0.036000	-1.567944
0.036100	-1.509844
0.036200	-1.267056
0.036300	-1.345605
0.036400	-1.341386
0.036500	-1.330999
0.036600	-1.272899
0.036700	-1.223238
0.036800	-1.147935
0.036900	-1.111257
0.037000	-1.107362
0.037100	-1.117748
0.037200	-1.180393
0.037300	-1.134627
0.037400	-1.235572
0.037500	-1.163839
0.037600	-1.191753
0.037700	-1.135276
0.037800	-1.153777
0.037900	-1.209281
0.038000	-1.191429
0.038100	-1.302760
0.038200	-1.186884
0.038300	-1.050884
0.038400	-0.773367
0.038500	-0.736689
0.038600	-1.055429
0.038700	-1.341061
0.038800	-1.359562
0.038900	-0.999276
0.039000	-0.959352
0.039100	-0.784727
0.039200	-0.963247
0.039300	-1.162865
0.039400	-1.214799
0.039500	-1.127810
0.039600	-0.962598
0.039700	-0.935658
0.039800	-0.978827
0.039900	-0.982073
0.040000	-1.070359
0.040100	-1.005443
0.040200	-1.021023
0.040300	-1.030436
0.040400	-1.041472
0.040500	-1.022321
0.040600	-0.993109
0.040700	-1.049911
0.040800	-1.026541
0.040900	-1.128784
0.041000	-1.100546
0.041100	-1.203438
0.041200	-0.998302
0.041300	-1.019075
0.041400	-0.943772
0.041500	-1.159295
0.041600	-1.317367
0.041700	-1.208307
0.041800	-1.105090
0.041900	-0.838283
0.042000	-0.972336
0.042100	-1.134951
0.042200	-1.318016
0.042300	-1.254722
0.042400	-1.107686
0.042500	-0.933386
0.042600	-0.915858
0.042700	-1.093405
0.042800	-1.200192
0.042900	-1.133328
0.043000	-1.087562
0.043100	-1.056078
0.043200	-1.130732
0.043300	-1.198245
0.043400	-1.240116
0.043500	-1.200517
0.043600	-1.203438
0.043700	-1.251152
0.043800	-1.346903
0.043900	-1.366703
0.044000	-1.374818
0.044100	-1.374168
0.044200	-1.383257
0.044300	-1.520231
0.044400	-1.657854
0.044500	-1.667916
0.044600	-1.684469
0.044700	-1.679925
0.044800	-1.653634
0.044900	-1.665643
0.045000	-1.670837
0.045100	-1.679601
0.045200	-1.656880
0.045300	-1.667916
0.045400	-1.665319
0.045500	-1.659152
0.045600	-1.651037
0.045700	-1.622474
0.045800	-1.647791
0.045900	-1.592612
0.046000	-1.602350
0.046100	-1.586121
0.046200	-1.565997
0.046300	-1.558531
0.046400	-1.553013
0.046500	-1.604297
0.046600	-1.613061
0.046700	-1.861042
0.046800	-1.905510
0.046900	-1.788985
0.047000	-1.521529
0.047100	-1.385529
0.047200	-1.561777
0.047300	-1.790283
0.047400	-1.996393
0.047500	-1.912651
0.047600	-1.743219
0.047700	-1.626369
0.047800	-1.706216
0.047900	-1.892527
0.048000	-1.994121
0.048100	-2.032422
0.048200	-1.950952
0.048300	-1.930178
0.048400	-1.905510
0.048500	-1.946408
0.048600	-1.977892
0.048700	-1.950952
0.048800	-1.927582
0.048900	-1.926283
0.049000	-1.972699
0.049100	-1.980164
0.049200	-1.948680
0.049300	-1.953548
0.049400	-1.938942
0.049500	-1.983085
0.049600	-1.948030
0.049700	-1.958742
0.049800	-1.753281
0.049900	-1.699076
0.050000	-1.778274
0.050100	-1.935047
0.050200	-2.115191
0.050300	-2.085978
0.050400	-1.893825
0.050500	-1.696479
0.050600	-1.729586
0.050700	-1.889281
0.050800	-2.092470
0.050900	-2.127849
0.051000	-2.022685
0.051100	-1.893825
0.051200	-1.838971
0.051300	-1.879868
0.051400	-1.951925
0.051500	-1.961663
0.051600	-1.935047
0.051700	-1.929529
0.051800	-1.896746
0.051900	-1.880517
0.052000	-1.817873
0.052100	-1.703295
0.052200	-1.632861
0.052300	-1.634159
0.052400	-1.624422
0.052500	-1.637080
0.052600	-1.576708
0.052700	-1.452393
0.052800	-1.439734
0.052900	-1.210254
0.053000	-1.248230
0.053100	-1.252125
0.053200	-1.242713
0.053300	-1.184612
0.053400	-1.150531
0.053500	-1.024269
0.053600	-1.052832
0.053700	-1.036927
0.053800	-1.117424
0.053900	-1.087562
0.054000	-1.196622
0.054100	-1.164813
0.054200	-1.167734
0.054300	-1.151830
0.054400	-1.155725
0.054500	-1.199868
0.054600	-1.208956
0.054700	-1.335868
0.054800	-1.239142
0.054900	-1.184612
0.055000	-0.964546
0.055100	-0.727925
0.055200	-0.850617
0.055300	-1.224211
0.055400	-1.508221
0.055500	-1.181691
0.055600	-1.089510
0.055700	-0.834713
0.055800	-0.891515
0.055900	-1.009338
0.056000	-1.224536
0.056100	-1.191429
0.056200	-1.052507
0.056300	-0.865224
0.056400	-0.862302
0.056500	-0.940202
0.056600	-0.978503
0.056700	-0.998302
0.056800	-1.018426
0.056900	-0.952212
0.057000	-0.943772
0.057100	-0.943772
0.057200	-0.916832
0.057300	-0.917806
0.057400	-0.903524
0.057500	-1.050884
0.057600	-0.983371
0.057700	-0.978503
0.057800	-0.998302
0.057900	-0.839257
0.058000	-0.881777
0.058100	-0.803228
0.058200	-1.145662
0.058300	-1.107362
0.058400	-1.051209
0.058500	-0.817510
0.058600	-0.721109
0.058700	-0.827572
0.058800	-1.047639
0.058900	-1.148908
0.059000	-1.088861
0.059100	-0.922675
0.059200	-0.812317
0.059300	-0.928517
0.059400	-1.062245
0.059500	-1.145013
0.059600	-1.071009
0.059700	-1.098598
0.059800	-1.064842
0.059900	-1.138846
0.060000	-1.201491
0.060100	-1.194674
0.060200	-1.143390
0.060300	-1.129758
0.060400	-1.179744
0.060500	-1.213176
0.060600	-1.206035
0.060700	-1.182016
0.060800	-1.215123
0.060900	-1.244985
0.061000	-1.393643
0.061100	-1.449147
0.061200	-1.443629
0.061300	-1.448822
0.061400	-1.354044
0.061500	-1.424479
0.061600	-1.440708
0.061700	-1.442331
0.061800	-1.441357
0.061900	-1.470569
0.062000	-1.458560
0.062100	-1.484202
0.062200	-1.503677
0.062300	-1.523476
0.062400	-1.532240
0.062500	-1.538407
0.062600	-1.586770
0.062700	-1.587419
0.062800	-1.633510
0.062900	-1.671161
0.063000	-1.710436
0.063100	-1.758799
0.063200	-1.804565
0.063300	-2.011973
0.063400	-2.215487
0.063500	-2.307669
0.063600	-2.099935
0.063700	-1.875649
0.063800	-1.929529
0.063900	-2.125902
0.064000	-2.413483
0.064100	-2.475803
0.064200	-2.368041
0.064300	-2.204776
0.064400	-2.180757
0.064500	-2.268394
0.064600	-2.429387
0.064700	-2.507287
0.064800	-2.458924
0.064900	-2.363497
0.065000	-2.342074
0.065100	-2.361225
0.065200	-2.370313
0.065300	-2.358953
0.065400	-2.313511
0.065500	-2.292413
0.065600	-2.295334
0.065700	-2.348241
0.065800	-2.373234
0.065900	-2.282026
0.066000	-2.280404
0.066100	-2.249244
0.066200	-2.297282
0.066300	-2.311239
0.066400	-2.272614
0.066500	-2.091172
0.066600	-2.058064
0.066700	-2.163878
0.066800	-2.350189
0.066900	-2.471259
0.067000	-2.345320
0.067100	-2.104804
0.067200	-1.942837
0.067300	-2.006455
0.067400	-2.177835
0.067500	-2.334934
0.067600	-2.349215
0.067700	-2.184327
0.067800	-2.064556
0.067900	-2.032747
0.068000	-2.063257
0.068100	-2.099935
0.068200	-2.093768
0.068300	-2.055792
0.068400	-1.992823
0.068500	-1.963286
0.068600	-1.946083
0.068700	-1.868832
0.068800	-1.758799
0.068900	-1.685443
0.069000	-1.700374
0.069100	-1.688364
0.069200	-1.705243
0.069300	-1.599429
0.069400	-1.472517
0.069500	-1.329051
0.069600	-1.257643
0.069700	-1.315094
0.069800	-1.312822
0.069900	-1.234273
0.070000	-1.175199
0.070100	-1.088861
0.070200	-1.033032
0.070300	-1.055429
0.070400	-1.056727
0.070500	-1.075228
0.070600	-1.048612
0.070700	-1.102168
0.070800	-1.081071
0.070900	-1.059648
0.071000	-1.093405
0.071100	-1.067438
0.071200	-1.187209
0.071300	-1.108985
0.071400	-1.315094
0.071500	-1.118073
0.071600	-1.080746
0.071700	-0.747725
0.071800	-0.688976
0.071900	-0.752269
0.072000	-1.187858
0.072100	-1.237195
0.072200	-0.956431
0.072300	-0.793491
0.072400	-0.695792
0.072500	-0.727925
0.072600	-0.977854
0.072700	-1.078474
0.072800	-1.082369
0.072900	-0.890541
0.073000	-0.787324
0.073100	-0.828546
0.073200	-0.947667
0.073300	-1.014207
0.073400	-1.043419
0.073500	-1.042121
0.073600	-1.041147
0.073700	-1.081720
0.073800	-1.081071
0.073900	-1.120670
0.074000	-1.111581
0.074100	-1.221615
0.074200	-1.275171
0.074300	-1.312498
0.074400	-1.338789
0.074500	-1.295295
0.074600	-1.263161
0.074700	-1.230703
0.074800	-1.345930
0.074900	-1.606245
0.075000	-1.509844
0.075100	-1.421557
0.075200	-1.154751
0.075300	-1.158970
0.075400	-1.258617
0.075500	-1.494913
0.075600	-1.487123
0.075700	-1.357290
0.075800	-1.140145
0.075900	-1.036278
0.076000	-1.139171
0.076100	-1.234923
0.076200	-1.268679
0.076300	-1.209930
0.076400	-1.183639
0.076500	-1.144364
0.076600	-1.177147
0.076700	-1.188507
0.076800	-1.194999
0.076900	-1.161567
0.077000	-1.143715
0.077100	-1.170655
0.077200	-1.173577
0.077300	-1.161242
0.077400	-1.146312
0.077500	-1.136899
0.077600	-1.188832
0.077700	-1.307629
0.077800	-1.357290
0.077900	-1.315744
0.078000	-1.314445
0.078100	-1.219992
0.078200	-1.260240
0.078300	-1.262512
0.078400	-1.254398
0.078500	-1.258293
0.078600	-1.264135
0.078700	-1.270627
0.078800	-1.303734
0.078900	-1.323858
0.079000	-1.343009
0.079100	-1.358588
0.079200	-1.332297
0.079300	-1.409872
0.079400	-1.384230
0.079500	-1.435514
0.079600	-1.438111
0.079700	-1.475438
0.079800	-1.529319
0.079900	-1.548469
0.080000	-1.776326
0.080100	-1.975620
0.080200	-1.950627
0.080300	-1.643247
0.080400	-1.528020
0.080500	-1.644870
0.080600	-1.880517
0.080700	-2.132718
0.080800	-2.171993
0.080900	-2.009052
0.081000	-1.857796
0.081100	-1.847410
0.081200	-1.972374
0.081300	-2.128823
0.081400	-2.211592
0.081500	-2.200556
0.081600	-2.132718
0.081700	-2.097339
0.081800	-2.139210
0.081900	-2.194389
0.082000	-2.177511
0.082100	-2.156737
0.082200	-2.125577
0.082300	-2.148947
0.082400	-2.198284
0.082500	-2.207048
0.082600	-2.187573
0.082700	-2.151219
0.082800	-2.206074
0.082900	-2.198933
0.083000	-2.243726
0.083100	-2.120059
0.083200	-1.966532
0.083300	-2.023983
0.083400	-2.150570
0.083500	-2.322924
0.083600	-2.425492
0.083700	-2.258332
0.083800	-2.048651
0.083900	-1.978541
0.084000	-2.117787
0.084100	-2.296633
0.084200	-2.444318
0.084300	-2.432633
0.084400	-2.268719
0.084500	-2.186274
0.084600	-2.151869
0.084700	-2.188222
0.084800	-2.253788
0.084900	-2.242752
0.085000	-2.199258
0.085100	-2.135964
0.085200	-2.081759
0.085300	-2.023009
0.085400	-1.916221
0.085500	-1.839944
0.085600	-1.798398
0.085700	-1.806837
0.085800	-1.817224
0.085900	-1.779897
0.086000	-1.644870
0.086100	-1.592937
0.086200	-1.374818
0.086300	-1.431619
0.086400	-1.428698
0.086500	-1.442980
0.086600	-1.370273
0.086700	-1.305032
0.086800	-1.236221
0.086900	-1.212851
0.087000	-1.202789
0.087100	-1.215448
0.087200	-1.219992
0.087300	-1.188183
0.087400	-1.243037
0.087500	-1.171304
0.087600	-1.157997
0.087700	-1.158646
0.087800	-1.163839
0.087900	-1.252775
0.088000	-1.266083
0.088100	-1.286856
0.088200	-1.192402
0.088300	-0.987591
0.088400	-0.797386
0.088500	-0.665606
0.088600	-1.046016
0.088700	-1.216421
0.088800	-1.297567
0.088900	-0.975581
0.089000	-0.777911
0.089100	-0.745777
0.089200	-0.774665
0.089300	-1.008364
0.089400	-1.031734
0.089500	-0.971686
0.089600	-0.789271
0.089700	-0.701634
0.089800	-0.703257
0.089900	-0.738312
0.090000	-0.782455
0.090100	-0.717863
0.090200	-0.749672
0.090300	-0.709749
0.090400	-0.699687
0.090500	-0.694493
0.090600	-0.652298
0.090700	-0.673071
0.090800	-0.763305
0.090900	-0.856784
0.091000	-0.860030
0.091100	-0.934684
0.091200	-0.779209
0.091300	-0.823028
0.091400	-0.815563
0.091500	-1.057052
0.091600	-1.201815
0.091700	-1.154751
0.091800	-1.069386
0.091900	-0.871066
0.092000	-1.018751
0.092100	-1.208956
0.092200	-1.433242
0.092300	-1.440059
0.092400	-1.304708
0.092500	-1.173252
0.092600	-1.167085
0.092700	-1.336841
0.092800	-1.448498
0.092900	-1.432918
0.093000	-1.458560
0.093100	-1.431944
0.093200	-1.503028
0.093300	-1.569892
0.093400	-1.605271
0.093500	-1.622799
0.093600	-1.583524
0.093700	-1.625395
0.093800	-1.703295
0.093900	-1.703620
0.094000	-1.691286
0.094100	-1.664994
0.094200	-1.638379
0.094300	-1.747438
0.094400	-1.836699
0.094500	-1.791906
0.094600	-1.740298
0.094700	-1.596183
0.094800	-1.635782
0.094900	-1.616307
0.095000	-1.586121
0.095100	-1.578331
0.095200	-1.546846
0.095300	-1.557882
0.095400	-1.533538
0.095500	-1.561777
0.095600	-1.540679
0.095700	-1.555610
0.095800	-1.572164
0.095900	-1.577032
0.096000	-1.589367
0.096100	-1.583524
0.096200	-1.610140
0.096300	-1.616632
0.096400	-1.674407
0.096500	-1.700374
0.096600	-1.782818
0.096700	-1.977892
0.096800	-2.140833
0.096900	-1.990226
0.097000	-1.754255
0.097100	-1.616307
0.097200	-1.737376
0.097300	-2.050923
0.097400	-2.166150
0.097500	-2.109673
0.097600	-1.914923
0.097700	-1.731858
0.097800	-1.763018
0.097900	-1.924985
0.098000	-2.060012
0.098100	-2.052871
0.098200	-1.978866
0.098300	-1.913300
0.098400	-1.897720
0.098500	-1.940565
0.098600	-1.953873
0.098700	-1.931801
0.098800	-1.904212
0.098900	-1.881491
0.099000	-1.988603
0.099100	-1.982436
0.099200	-2.001262
0.099300	-1.940890
0.099400	-1.956794
0.099500	-2.017491
0.099600	-2.055143
0.099700	-1.995095
0.099800	-1.902913
0.099900	-1.732832
0.100000	-1.822092
0.100100	-2.003859
0.100200	-2.171019
0.100300	-2.218733
0.100400	-2.005482
0.100500	-1.830532
0.100600	-1.805539
0.100700	-1.959715
0.100800	-2.175239
0.100900	-2.232041
0.101000	-2.124928
0.101100	-1.953873
0.101200	-1.887658
0.101300	-1.909730
0.101400	-1.968804
0.101500	-1.990226
0.101600	-1.941539
0.101700	-1.901291
0.101800	-1.891553
0.101900	-1.880517
0.102000	-1.843839
0.102100	-1.757500
0.102200	-1.653309
0.102300	-1.653634
0.102400	-1.650388
0.102500	-1.632536
0.102600	-1.540679
0.102700	-1.380335
0.102800	-1.414092
0.102900	-1.353395
0.103000	-1.346903
0.103100	-1.364431
0.103200	-1.330025
0.103300	-1.264460
0.103400	-1.218044
0.103500	-1.103791
0.103600	-1.111257
0.103700	-1.112231
0.103800	-1.139495
0.103900	-1.164488
0.104000	-1.160269
0.104100	-1.205386
0.104200	-1.089510
0.104300	-1.169682
0.104400	-1.134302
0.104500	-1.133653
0.104600	-1.200841
0.104700	-1.163190
0.104800	-1.237844
0.104900	-1.103467
0.105000	-0.996030
0.105100	-0.681835
0.105200	-0.799333
0.105300	-1.164488
0.105400	-1.315419
0.105500	-1.342684
0.105600	-0.957080
0.105700	-0.897682
0.105800	-0.791219
0.105900	-1.032708
0.106000	-1.161242
0.106100	-1.226159
0.106200	-1.055429
0.106300	-0.886321
0.106400	-0.894761
0.106500	-0.975906
0.106600	-1.089185
0.106700	-1.065491
0.106800	-1.090484
0.106900	-1.094054
0.107000	-1.094054
0.107100	-1.111581
0.107200	-1.146312
0.107300	-1.220316
0.107400	-1.292698
0.107500	-1.497510
0.107600	-1.402732
0.107700	-1.512441
0.107800	-1.545873
0.107900	-1.444603
0.108000	-1.513414
0.108100	-1.477710
0.108200	-1.780870
0.108300	-1.885711
0.108400	-1.819496
0.108500	-1.628966
0.108600	-1.424479
0.108700	-1.540030
0.108800	-1.745815
0.108900	-1.911677
0.109000	-1.856823
0.109100	-1.662398
0.109200	-1.476736
0.109300	-1.486474
0.109400	-1.619228
0.109500	-1.677978
0.109600	-1.582550
0.109700	-1.514713
0.109800	-1.400460
0.109900	-1.429672
0.110000	-1.447524
0.110100	-1.479658
0.110200	-1.416040
0.110300	-1.369624
0.110400	-1.383581
0.110500	-1.400784
0.110600	-1.393968
0.110700	-1.336841
0.110800	-1.344307
0.110900	-1.332946
0.111000	-1.457262
0.111100	-1.516336
0.111200	-1.500756
0.111300	-1.477710
0.111400	-1.317042
0.111500	-1.361834
0.111600	-1.350474
0.111700	-1.286207
0.111800	-1.278417
0.111900	-1.278417
0.112000	-1.257319
0.112100	-1.228431
0.112200	-1.211228
0.112300	-1.207658
0.112400	-1.202140
0.112500	-1.202789
0.112600	-1.234923
0.112700	-1.256345
0.112800	-1.282312
0.112900	-1.280364
0.113000	-1.350798
0.113100	-1.363457
0.113200	-1.441032
0.113300	-1.568593
0.113400	-1.909081
0.113500	-1.926283
0.113600	-1.816250
0.113700	-1.575410
0.113800	-1.582550
0.113900	-1.776651
0.114000	-2.098637
0.114100	-2.237234
0.114200	-2.149921
0.114300	-1.977243
0.114400	-1.887658
0.114500	-1.974971
0.114600	-2.114866
0.114700	-2.238857
0.114800	-2.228146
0.114900	-2.142131
0.115000	-2.124928
0.115100	-2.128823
0.115200	-2.152193
0.115300	-2.179134
0.115400	-2.153167
0.115500	-2.168747
0.115600	-2.168422
0.115700	-2.175239
0.115800	-2.173616
0.115900	-2.181406
0.116000	-2.157387
0.116100	-2.141157
0.116200	-2.155114
0.116300	-2.153816
0.116400	-2.093768
0.116500	-1.920766
0.116600	-1.844813
0.116700	-1.874999
0.116800	-2.062933
0.116900	-2.209969
0.117000	-2.138885
0.117100	-1.902264
0.117200	-1.743868
0.117300	-1.766913
0.117400	-1.899343
0.117500	-2.080785
0.117600	-2.136289
0.117700	-2.040861
0.117800	-1.927906
0.117900	-1.877271
0.118000	-1.895123
0.118100	-1.952899
0.118200	-1.933749
0.118300	-1.931477
0.118400	-1.894799
0.118500	-1.847734
0.118600	-1.783467
0.118700	-1.710760
0.118800	-1.595209
0.118900	-1.546197
0.119000	-1.557557
0.119100	-1.551715
0.119200	-1.540030
0.119300	-1.443629
0.119400	-1.338140
0.119500	-1.221290
0.119600	-1.145662
0.119700	-1.200192
0.119800	-1.223562
0.119900	-1.183639
0.120000	-1.134302
0.120100	-1.074579
0.120200	-1.033682
0.120300	-1.047963
0.120400	-1.038875
0.120500	-1.116126
0.120600	-1.071009
0.120700	-1.175199
0.120800	-1.099896
0.120900	-1.158321
0.121000	-1.037901
0.121100	-1.115476
0.121200	-1.064842
0.121300	-1.138522
0.121400	-1.225510
0.121500	-1.169032
0.121600	-1.119047
0.121700	-0.822054
0.121800	-0.620813
0.121900	-0.890866
0.122000	-1.164164
0.122100	-1.370923
0.122200	-1.128460
0.122300	-1.045691
0.122400	-0.780183
0.122500	-0.895410
0.122600	-1.011285
0.122700	-1.177472
0.122800	-1.178445
0.122900	-1.043744
0.123000	-0.947018
0.123100	-0.920402
0.123200	-0.889567
0.123300	-0.961624
0.123400	-0.986617
0.123500	-1.055429
0.123600	-1.034655
0.123700	-1.034331
0.123800	-1.030111
0.123900	-1.048612
0.124000	-1.029137
0.124100	-1.087238
0.124200	-1.202464
0.124300	-1.242063
0.124400	-1.292374
0.124500	-1.246608
0.124600	-1.184937
0.124700	-1.226159
0.124800	-1.213176
0.124900	-1.535486
0.125000	-1.444927
0.125100	-1.405004
0.125200	-1.185586
0.125300	-1.209605
0.125400	-1.234273
0.125500	-1.570216
0.125600	-1.531915
0.125700	-1.491992
0.125800	-1.274197
0.125900	-1.249529
0.126000	-1.346254
0.126100	-1.446550
0.126200	-1.467648
0.126300	-1.385853
0.126400	-1.373519
0.126500	-1.368326
0.126600	-1.445252
0.126700	-1.444603
0.126800	-1.438760
0.126900	-1.375791
0.127000	-1.355343
0.127100	-1.388125
0.127200	-1.427725
0.127300	-1.422856
0.127400	-1.375467
0.127500	-1.373195
0.127600	-1.419610
0.127700	-1.565997
0.127800	-1.572813
0.127900	-1.552040
0.128000	-1.519257
0.128100	-1.415390
0.128200	-1.455963
0.128300	-1.433242
0.128400	-1.419285
0.128500	-1.424154
0.128600	-1.420259
0.128700	-1.418636
0.128800	-1.410846
0.128900	-1.403381
0.129000	-1.394617
0.129100	-1.379686
0.129200	-1.363457
0.129300	-1.372221
0.129400	-1.324507
0.129500	-1.345281
0.129600	-1.309901
0.129700	-1.393643
0.129800	-1.431295
0.129900	-1.479982
0.130000	-1.638379
0.130100	-1.859095
0.130200	-1.883763
0.130300	-1.562102
0.130400	-1.440059
0.130500	-1.487448
0.130600	-1.723419
0.130700	-1.985682
0.130800	-2.007429
0.130900	-1.912976
0.131000	-1.753605
0.131100	-1.739973
0.131200	-1.870455
0.131300	-2.049625
0.131400	-2.116814
0.131500	-2.097663
0.131600	-2.058713
0.131700	-2.055143
0.131800	-2.118112
0.131900	-2.143754
0.132000	-2.157387
0.132100	-2.146026
0.132200	-2.125253
0.132300	-2.149272
0.132400	-2.208346
0.132500	-2.220356
0.132600	-2.244050
0.132700	-2.178809
0.132800	-2.219057
0.132900	-2.212890
0.133000	-2.282676
0.133100	-2.174265
0.133200	-2.047677
0.133300	-1.995420
0.133400	-2.100260
0.133500	-2.321626
0.133600	-2.442046
0.133700	-2.317731
0.133800	-2.082083
0.133900	-1.996718
0.134000	-2.102207
0.134100	-2.306695
0.134200	-2.441397
0.134300	-2.411211
0.134400	-2.266122
0.134500	-2.168098
0.134600	-2.172642
0.134700	-2.223601
0.134800	-2.239181
0.134900	-2.202179
0.135000	-2.143754
0.135100	-2.082083
0.135200	-2.034694
0.135300	-1.965233
0.135400	-1.862341
0.135500	-1.735429
0.135600	-1.677653
0.135700	-1.643896
0.135800	-1.602350
0.135900	-1.573462
0.136000	-1.418312
0.136100	-1.302760
0.136200	-1.119047
0.136300	-1.142741
0.136400	-1.182340
0.136500	-1.174550
0.136600	-1.135600
0.136700	-1.055429
0.136800	-1.004794
0.136900	-1.009338
0.137000	-1.020374
0.137100	-1.074904
0.137200	-1.104765
0.137300	-1.120994
0.137400	-1.137223
0.137500	-1.125863
0.137600	-1.158321
0.137700	-1.133653
0.137800	-1.191753
0.137900	-1.164164
0.138000	-1.193376
0.138100	-1.250827
0.138200	-1.148584
0.138300	-1.121319
0.138400	-0.698713
0.138500	-0.838283
0.138600	-0.916508
0.138700	-1.341710
0.138800	-1.303734
0.138900	-1.106713
0.139000	-0.910990
0.139100	-0.774016
0.139200	-0.890866
0.139300	-1.090808
0.139400	-1.168708
0.139500	-1.158970
0.139600	-0.928517
0.139700	-0.894436
0.139800	-0.859381
0.139900	-1.016803
0.140000	-1.027190
0.140100	-1.057052
0.140200	-1.048288
0.140300	-1.007066
0.140400	-1.012908
0.140500	-1.040822
0.140600	-1.100870
0.140700	-1.059324
0.140800	-1.268679
0.140900	-1.220641
0.141000	-1.283610
0.141100	-1.280689
0.141200	-1.211877
0.141300	-1.238818
0.141400	-1.224861
0.141500	-1.446550
0.141600	-1.635782
0.141700	-1.599104
0.141800	-1.496861
0.141900	-1.275171
0.142000	-1.310226
0.142100	-1.460507
0.142200	-1.721472
0.142300	-1.709787
0.142400	-1.556908
0.142500	-1.383906
0.142600	-1.374493
0.142700	-1.502703
0.142800	-1.584173
0.142900	-1.559505
0.143000	-1.518608
0.143100	-1.467973
0.143200	-1.478684
0.143300	-1.538083
0.143400	-1.577357
0.143500	-1.569242
0.143600	-1.514063
0.143700	-1.527371
0.143800	-1.566970
0.143900	-1.576383
0.144000	-1.550741
0.144100	-1.532565
0.144200	-1.536784
0.144300	-1.624422
0.144400	-1.750684
0.144500	-1.761395
0.144600	-1.733481
0.144700	-1.691286
0.144800	-1.712383
0.144900	-1.721796
0.145000	-1.717252
0.145100	-1.713357
0.145200	-1.730235
0.145300	-1.719849
0.145400	-1.732183
0.145500	-1.764317
0.145600	-1.779897
0.145700	-1.782818
0.145800	-1.792555
0.145900	-1.802293
0.146000	-1.801968
0.146100	-1.830856
0.146200	-1.837997
0.146300	-1.842216
0.146400	-1.903563
0.146500	-1.889606
0.146600	-1.966856
0.146700	-2.169072
0.146800	-2.345645
0.146900	-2.220031
0.147000	-1.995095
0.147100	-1.839944
0.147200	-1.916221
0.147300	-2.269043
0.147400	-2.426791
0.147500	-2.433607
0.147600	-2.260604
0.147700	-2.093119
0.147800	-2.089549
0.147900	-2.225549
0.148000	-2.426141
0.148100	-2.434256
0.148200	-2.380375
0.148300	-2.302151
0.148400	-2.275210
0.148500	-2.296957
0.148600	-2.297606
0.148700	-2.280404
0.148800	-2.255411
0.148900	-2.227172
0.149000	-2.264499
0.149100	-2.300203
0.149200	-2.266122
0.149300	-2.251840
0.149400	-2.232365
0.149500	-2.244375
0.149600	-2.275859
0.149700	-2.261902
0.149800	-2.104804
0.149900	-1.954522
0.150000	-1.959715
0.150100	-2.119735
0.150200	-2.258332
0.150300	-2.260279
0.150400	-2.035992
0.150500	-1.817548
0.150600	-1.756851
0.150700	-1.864288
0.150800	-2.024632
0.150900	-2.085005
0.151000	-1.993148
0.151100	-1.848708
0.151200	-1.756527
0.151300	-1.759772
0.151400	-1.825338
0.151500	-1.836049
0.151600	-1.824364
0.151700	-1.815925
0.151800	-1.792555
0.151900	-1.772756
0.152000	-1.734455
0.152100	-1.652660
0.152200	-1.582875
0.152300	-1.584173
0.152400	-1.611114
0.152500	-1.610789
0.152600	-1.614684
0.152700	-1.491992
0.152800	-1.422207
0.152900	-1.272250
0.153000	-1.359238
0.153100	-1.390398
0.153200	-1.399161
0.153300	-1.353071
0.153400	-1.334894
0.153500	-1.239467
0.153600	-1.294970
0.153700	-1.293347
0.153800	-1.353720
0.153900	-1.339438
0.154000	-1.356966
0.154100	-1.373844
0.154200	-1.364431
0.154300	-1.354369
0.154400	-1.324507
0.154500	-1.367352
0.154600	-1.309901
0.154700	-1.337166
0.154800	-1.344956
0.154900	-1.199868
0.155000	-1.028813
0.155100	-0.739935
0.155200	-0.871066
0.155300	-1.028813
0.155400	-1.371896
0.155500	-1.199219
0.155600	-0.950264
0.155700	-0.799983
0.155800	-0.758761
0.155900	-0.940202
0.156000	-1.097300
0.156100	-1.115476
0.156200	-0.985643
0.156300	-0.807123
0.156400	-0.801930
0.156500	-0.814589
0.156600	-0.940202
0.156700	-0.923648
0.156800	-0.900928
0.156900	-0.877882
0.157000	-0.846073
0.157100	-0.848021
0.157200	-0.884374
0.157300	-0.916183
0.157400	-0.890866
0.157500	-1.085939
0.157600	-1.015505
0.157700	-1.156049
0.157800	-1.031085
0.157900	-0.948317
0.158000	-0.955457
0.158100	-0.962598
0.158200	-1.232975
0.158300	-1.347228
0.158400	-1.278092
0.158500	-1.091457
0.158600	-0.902226
0.158700	-0.991161
0.158800	-1.198569
0.158900	-1.388450
0.159000	-1.345605
0.159100	-1.167734
0.159200	-1.006092
0.159300	-1.028488
0.159400	-1.174226
0.159500	-1.269004
0.159600	-1.195973
0.159700	-1.152154
0.159800	-1.088211
0.159900	-1.139171
0.160000	-1.207009
0.160100	-1.245634
0.160200	-1.218044
0.160300	-1.166760
0.160400	-1.193051
0.160500	-1.248555
0.160600	-1.242713
0.160700	-1.203114
0.160800	-1.188507
0.160900	-1.189157
0.161000	-1.321586
0.161100	-1.393643
0.161200	-1.387152
0.161300	-1.366378
0.161400	-1.228756
0.161500	-1.294970
0.161600	-1.290426
0.161700	-1.268679
0.161800	-1.272250
0.161900	-1.256670
0.162000	-1.276469
0.162100	-1.251801
0.162200	-1.264784
0.162300	-1.261538
0.162400	-1.246932
0.162500	-1.297242
0.162600	-1.273223
0.162700	-1.354693
0.162800	-1.326130
0.162900	-1.357290
0.163000	-1.418636
0.163100	-1.453042
0.163200	-1.514063
0.163300	-1.602025
0.163400	-1.950952
0.163500	-2.041510
0.163600	-1.907458
0.163700	-1.669863
0.163800	-1.566970
0.163900	-1.771782
0.164000	-2.050923
0.164100	-2.280404
0.164200	-2.221329
0.164300	-2.036966
0.164400	-1.902913
0.164500	-1.997692
0.164600	-2.175888
0.164700	-2.291115
0.164800	-2.317406
0.164900	-2.227821
0.165000	-2.181730
0.165100	-2.188222
0.165200	-2.227496
0.165300	-2.254761
0.165400	-2.231716
0.165500	-2.231716
0.165600	-2.213864
0.165700	-2.257683
0.165800	-2.353110
0.165900	-2.310914
0.166000	-2.300528
0.166100	-2.243726
0.166200	-2.305396
0.166300	-2.300203
0.166400	-2.285921
0.166500	-2.192766
0.166600	-2.099611
0.166700	-2.179134
0.166800	-2.336232
0.166900	-2.483917
0.167000	-2.474180
0.167100	-2.218084
0.167200	-2.045405
0.167300	-2.019439
0.167400	-2.193740
0.167500	-2.398876
0.167600	-2.452433
0.167700	-2.347268
0.167800	-2.152193
0.167900	-2.078513
0.168000	-2.133043
0.168100	-2.187897
0.168200	-2.206723
0.168300	-2.181081
0.168400	-2.141157
0.168500	-2.111296
0.168600	-2.078837
0.168700	-2.036317
0.168800	-1.931801
0.168900	-1.839944
0.169000	-1.838321
0.169100	-1.826961
0.169200	-1.854226
0.169300	-1.772756
0.169400	-1.604622
0.169500	-1.462455
0.169600	-1.396889
0.169700	-1.455963
0.169800	-1.460832
0.169900	-1.418312
0.170000	-1.370923
0.170100	-1.334569
0.170200	-1.228756
0.170300	-1.257643
0.170400	-1.226159
0.170500	-1.306980
0.170600	-1.298541
0.170700	-1.319314
0.170800	-1.382932
0.170900	-1.304059
0.171000	-1.326779
0.171100	-1.254073
0.171200	-1.297242
0.171300	-1.346579
0.171400	-1.345281
0.171500	-1.475438
0.171600	-1.256994
0.171700	-1.089834
0.171800	-0.841854
0.171900	-0.890866
0.172000	-1.439734
0.172100	-1.409223
0.172200	-1.442655
0.172300	-1.029137
0.172400	-0.985643
0.172500	-0.911639
0.172600	-1.127486
0.172700	-1.339438
0.172800	-1.227133
0.172900	-1.115152
0.173000	-0.949290
0.173100	-0.878531
0.173200	-0.934360
0.173300	-0.975257
0.173400	-1.044068
0.173500	-0.992784
0.173600	-0.973634
0.173700	-0.939228
0.173800	-0.943448
0.173900	-0.936307
0.174000	-0.920078
0.174100	-1.016154
0.174200	-1.114827
0.174300	-1.120020
0.174400	-1.079772
0.174500	-1.095352
0.174600	-1.007390
0.174700	-0.988889
0.174800	-0.974932
0.174900	-1.220966
0.175000	-1.260240
0.175100	-1.190455
0.175200	-1.005768
0.175300	-0.876909
0.175400	-0.986942
0.175500	-1.213825
0.175600	-1.320288
0.175700	-1.216421
0.175800	-1.062245
0.175900	-0.926245
0.176000	-0.990512
0.176100	-1.093729
0.176200	-1.137873
0.176300	-1.104765
0.176400	-1.100546
0.176500	-1.021348
0.176600	-1.068412
0.176700	-1.099896
0.176800	-1.084966
0.176900	-1.040822
0.177000	-1.038875
0.177100	-1.093729
0.177200	-1.124565
0.177300	-1.108985
0.177400	-1.065491
0.177500	-1.042445
0.177600	-1.069386
0.177700	-1.215448
0.177800	-1.241090
0.177900	-1.217395
0.178000	-1.236221
0.178100	-1.122617
0.178200	-1.200192
0.178300	-1.204412
0.178400	-1.194674
0.178500	-1.210904
0.178600	-1.201815
0.178700	-1.213825
0.178800	-1.202789
0.178900	-1.227457
0.179000	-1.222913
0.179100	-1.241090
0.179200	-1.267056
0.179300	-1.262837
0.179400	-1.302760
0.179500	-1.320937
0.179600	-1.360861
0.179700	-1.434216
0.179800	-1.480956
0.179900	-1.529643
0.180000	-1.668889
0.180100	-1.999639
0.180200	-2.037291
0.180300	-1.810083
0.180400	-1.607543
0.180500	-1.608517
0.180600	-1.839944
0.180700	-2.066503
0.180800	-2.169721
0.180900	-2.036966
0.181000	-1.903563
0.181100	-1.839944
0.181200	-1.968155
0.181300	-2.131420
0.181400	-2.170694
0.181500	-2.184652
0.181600	-2.105129
0.181700	-2.115515
0.181800	-2.107076
0.181900	-2.101883
0.182000	-2.102532
0.182100	-2.105778
0.182200	-2.098312
0.182300	-2.107076
0.182400	-2.134990
0.182500	-2.135964
0.182600	-2.110322
0.182700	-2.118761
0.182800	-2.123630
0.182900	-2.138561
0.183000	-2.189520
0.183100	-2.113568
0.183200	-1.932126
0.183300	-1.923038
0.183400	-2.005157
0.183500	-2.218408
0.183600	-2.344996
0.183700	-2.246647
0.183800	-2.029825
0.183900	-1.923687
0.184000	-2.016842
0.184100	-2.199582
0.184200	-2.341101
0.184300	-2.315459
0.184400	-2.195363
0.184500	-2.115840
0.184600	-2.100909
0.184700	-2.136289
0.184800	-2.146675
0.184900	-2.115515
0.185000	-2.087277
0.185100	-2.072670
0.185200	-2.043782
0.185300	-1.967505
0.185400	-1.808784
0.185500	-1.714331
0.185600	-1.685443
0.185700	-1.712708
0.185800	-1.711734
0.185900	-1.716603
0.186000	-1.580603
0.186100	-1.481281
0.186200	-1.474140
0.186300	-1.287505
0.186400	-1.347228
0.186500	-1.348202
0.186600	-1.303409
0.186700	-1.262837
0.186800	-1.184612
0.186900	-1.145662
0.187000	-1.161242
0.187100	-1.190779
0.187200	-1.232651
0.187300	-1.210904
0.187400	-1.297892
0.187500	-1.280364
0.187600	-1.284584
0.187700	-1.294646
0.187800	-1.233949
0.187900	-1.338789
0.188000	-1.288154
0.188100	-1.483877
0.188200	-1.264135
0.188300	-1.320288
0.188400	-0.937281
0.188500	-0.930140
0.188600	-1.091782
0.188700	-1.436164
0.188800	-1.542627
0.188900	-1.239467
0.189000	-1.096651
0.189100	-0.906445
0.189200	-1.014856
0.189300	-1.232001
0.189400	-1.217071
0.189500	-1.215123
0.189600	-0.951562
0.189700	-0.979476
0.189800	-0.890541
0.189900	-0.961300
0.190000	-0.999925
0.190100	-0.969414
0.190200	-0.988565
0.190300	-0.983047
0.190400	-1.021023
0.190500	-1.041472
0.190600	-1.089185
0.190700	-1.050235
0.190800	-1.123591
0.190900	-1.232975
0.191000	-1.244660
0.191100	-1.286531
0.191200	-1.219667
0.191300	-1.195973
0.191400	-1.178770
0.191500	-1.290426
0.191600	-1.567620
0.191700	-1.518283
0.191800	-1.423830
0.191900	-1.171629
0.192000	-1.157672
0.192100	-1.295619
0.192200	-1.537433
0.192300	-1.518283
0.192400	-1.385204
0.192500	-1.207658
0.192600	-1.146312
0.192700	-1.277767
0.192800	-1.387152
0.192900	-1.355018
0.193000	-1.315744
0.193100	-1.288479
0.193200	-1.311199
0.193300	-1.378713
0.193400	-1.422856
0.193500	-1.457586
0.193600	-1.376440
0.193700	-1.358588
0.193800	-1.412145
0.193900	-1.434216
0.194000	-1.410522
0.194100	-1.380660
0.194200	-1.396240
0.194300	-1.457911
0.194400	-1.552689
0.194500	-1.578006
0.194600	-1.595534
0.194700	-1.438760
0.194800	-1.497834
0.194900	-1.516011
0.195000	-1.502054
0.195100	-1.488746
0.195200	-1.494264
0.195300	-1.461481
0.195400	-1.463429
0.195500	-1.454665
0.195600	-1.451419
0.195700	-1.442331
0.195800	-1.445577
0.195900	-1.456288
0.196000	-1.447849
0.196100	-1.443954
0.196200	-1.453367
0.196300	-1.463104
0.196400	-1.523476
0.196500	-1.546522
0.196600	-1.611114
0.196700	-1.822417
0.196800	-2.026255
0.196900	-1.945758
0.197000	-1.746789
0.197100	-1.596832
0.197200	-1.693233
0.197300	-1.995420
0.197400	-2.183029
0.197500	-2.220356
0.197600	-2.003534
0.197700	-1.885386
0.197800	-1.884088
0.197900	-2.025281
0.198000	-2.204776
0.198100	-2.215162
0.198200	-2.151544
0.198300	-2.064231
0.198400	-2.079162
0.198500	-2.112919
0.198600	-2.158685
0.198700	-2.167124
0.198800	-2.142131
0.198900	-2.100909
0.199000	-2.118761
0.199100	-2.165177
0.199200	-2.224575
0.199300	-2.211267
0.199400	-2.150895
0.199500	-2.172967
0.199600	-2.200232
0.199700	-2.258656
0.199800	-2.163878
0.199900	-1.988603
0.200000	-2.023334
0.200100	-2.116164
0.200200	-2.310265
0.200300	-2.402122
0.200400	-2.209969
0.200500	-1.992174
0.200600	-1.923362
0.200700	-2.033071
0.200800	-2.233339
0.200900	-2.318055
0.201000	-2.301501
0.201100	-2.128499
0.201200	-2.038914
0.201300	-2.045730
0.201400	-2.104804
0.201500	-2.119086
0.201600	-2.102857
0.201700	-2.064231
0.201800	-2.021062
0.201900	-1.975945
0.202000	-1.921090
0.202100	-1.801644
0.202200	-1.711085
0.202300	-1.708813
0.202400	-1.703295
0.202500	-1.732508
0.202600	-1.714655
0.202700	-1.576383
0.202800	-1.523152
0.202900	-1.437462
0.203000	-1.370273
0.203100	-1.335219
0.203200	-1.336517
0.203300	-1.245309
0.203400	-1.164813
0.203500	-1.071009
0.203600	-1.010636
0.203700	-1.018426
0.203800	-1.015830
0.203900	-1.023620
0.204000	-0.957080
0.204100	-0.938904
0.204200	-0.977204
0.204300	-0.905796
0.204400	-0.935658
0.204500	-0.873663
0.204600	-0.959028
0.204700	-0.977854
0.204800	-1.014856
0.204900	-1.045042
0.205000	-0.775639
0.205100	-0.658465
0.205200	-0.531229
0.205300	-0.908393
0.205400	-1.097300
0.205500	-1.096001
0.205600	-0.863276
0.205700	-0.690598
0.205800	-0.641911
0.205900	-0.731171
0.206000	-0.893138
0.206100	-0.882102
0.206200	-0.763629
0.206300	-0.677291
0.206400	-0.530255
0.206500	-0.500069
0.206600	-0.542589
0.206700	-0.593224
0.206800	-0.594522
0.206900	-0.548107
0.207000	-0.523763
0.207100	-0.520842
0.207200	-0.555897
0.207300	-0.520842
0.207400	-0.525386
0.207500	-0.670799
0.207600	-0.590303
0.207700	-0.648403
0.207800	-0.644832
0.207900	-0.562713
0.208000	-0.548756
0.208100	-0.538045
0.208200	-0.733119
0.208300	-0.883076
0.208400	-0.835687
0.208500	-0.688651
0.208600	-0.566284
0.208700	-0.605233
0.208800	-0.830169
0.208900	-1.055429
0.209000	-1.016479
0.209100	-0.870417
0.209200	-0.755839
0.209300	-0.806799
0.209400	-0.909367
0.209500	-0.976880
0.209600	-0.961949
0.209700	-0.966818
0.209800	-0.932737
0.209900	-0.988240
0.210000	-1.016154
0.210100	-1.094054
0.210200	-1.112880
0.210300	-1.077825
0.210400	-1.094703
0.210500	-1.134627
0.210600	-1.143390
0.210700	-1.147610
0.210800	-1.162541
0.210900	-1.157672
0.211000	-1.299839
0.211100	-1.408574
0.211200	-1.407276
0.211300	-1.404355
0.211400	-1.292374
0.211500	-1.361185
0.211600	-1.404679
0.211700	-1.396889
0.211800	-1.416040
0.211900	-1.439085
0.212000	-1.428698
0.212100	-1.454989
0.212200	-1.488746
0.212300	-1.491343
0.212400	-1.497510
0.212500	-1.514388
0.212600	-1.536135
0.212700	-1.529643
0.212800	-1.539705
0.212900	-1.557882
0.213000	-1.539705
0.213100	-1.602674
0.213200	-1.627992
0.213300	-1.714980
0.213400	-1.971400
0.213500	-2.118437
0.213600	-1.943486
0.213700	-1.743868
0.213800	-1.691286
0.213900	-1.811706
0.214000	-2.103506
0.214100	-2.264824
0.214200	-2.233339
0.214300	-2.086627
0.214400	-1.995744
0.214500	-2.049950
0.214600	-2.209644
0.214700	-2.364146
0.214800	-2.394657
0.214900	-2.322275
0.215000	-2.278456
0.215100	-2.278781
0.215200	-2.352136
0.215300	-2.344022
0.215400	-2.348891
0.215500	-2.324547
0.215600	-2.360900
0.215700	-2.376156
0.215800	-2.421922
0.215900	-2.447564
0.216000	-2.379401
0.216100	-2.371287
0.216200	-2.370962
0.216300	-2.409912
0.216400	-2.366094
0.216500	-2.228795
0.216600	-2.076241
0.216700	-2.102532
0.216800	-2.265473
0.216900	-2.361874
0.217000	-2.378103
0.217100	-2.121358
0.217200	-1.907133
0.217300	-1.892527
0.217400	-2.045730
0.217500	-2.202828
0.217600	-2.194064
0.217700	-2.047028
0.217800	-1.898369
0.217900	-1.865586
0.218000	-1.894150
0.218100	-1.911677
0.218200	-1.867859
0.218300	-1.818847
0.218400	-1.795152
0.218500	-1.780546
0.218600	-1.718226
0.218700	-1.634159
0.218800	-1.483877
0.218900	-1.404679
0.219000	-1.388450
0.219100	-1.387152
0.219200	-1.361834
0.219300	-1.297567
0.219400	-1.122942
0.219500	-1.103467
0.219600	-0.900928
0.219700	-0.954808
0.219800	-0.915209
0.219900	-0.877233
0.220000	-0.794140
0.220100	-0.729873
0.220200	-0.627630
0.220300	-0.624059
0.220400	-0.621787
0.220500	-0.666904
0.220600	-0.648078
0.220700	-0.640288
0.220800	-0.700336
0.220900	-0.635095
0.221000	-0.673071
0.221100	-0.613997
0.221200	-0.682159
0.221300	-0.648078
0.221400	-0.724355
0.221500	-0.631849
0.221600	-0.661386
0.221700	-0.310838
0.221800	-0.232614
0.221900	-0.220929
0.222000	-0.670474
0.222100	-0.850293
0.222200	-0.714293
0.222300	-0.515000
0.222400	-0.364718
0.222500	-0.322523
0.222600	-0.508183
0.222700	-0.628279
0.222800	-0.684756
0.222900	-0.537071
0.223000	-0.448136
0.223100	-0.409835
0.223200	-0.512728
0.223300	-0.524413
0.223400	-0.593548
0.223500	-0.538694
0.223600	-0.520842
0.223700	-0.532202
0.223800	-0.567257
0.223900	-0.575047
0.224000	-0.552976
0.224100	-0.685405
0.224200	-0.709749
0.224300	-0.812317
0.224400	-0.778885
0.224500	-0.864899
0.224600	-0.738312
0.224700	-0.750322
0.224800	-0.732145
0.224900	-0.972985
0.225000	-1.077500
0.225100	-1.041796
0.225200	-0.826598
0.225300	-0.750646
0.225400	-0.815238
0.225500	-1.100546
0.225600	-1.238818
0.225700	-1.180068
0.225800	-1.003171
0.225900	-0.903849
0.226000	-0.998951
0.226100	-1.122942
0.226200	-1.221290
0.226300	-1.168059
0.226400	-1.156698
0.226500	-1.073930
0.226600	-1.182989
0.226700	-1.232001
0.226800	-1.299190
0.226900	-1.271600
0.227000	-1.244011
0.227100	-1.266083
0.227200	-1.318340
0.227300	-1.312498
0.227400	-1.313796
0.227500	-1.308278
0.227600	-1.336517
0.227700	-1.478035
0.227800	-1.529643
0.227900	-1.520880
0.228000	-1.422207
0.228100	-1.394617
0.228200	-1.480631
0.228300	-1.504651
0.228400	-1.498808
0.228500	-1.518283
0.228600	-1.527696
0.228700	-1.559180
0.228800	-1.571515
0.228900	-1.577032
0.229000	-1.575085
0.229100	-1.595209
0.229200	-1.615982
0.229300	-1.646818
0.229400	-1.623448
0.229500	-1.677653
0.229600	-1.678302
0.229700	-1.746789
0.229800	-1.781520
0.229900	-1.800021
0.230000	-1.974322
0.230100	-2.192442
0.230200	-2.223926
0.230300	-1.937319
0.230400	-1.775028
0.230500	-1.763343
0.230600	-1.958093
0.230700	-2.242427
0.230800	-2.289816
0.230900	-2.200232
0.231000	-2.003210
0.231100	-1.932451
0.231200	-1.993148
0.231300	-2.203477
0.231400	-2.273912
0.231500	-2.279430
0.231600	-2.199582
0.231700	-2.137587
0.231800	-2.169396
0.231900	-2.223277
0.232000	-2.240155
0.232100	-2.220356
0.232200	-2.184327
0.232300	-2.191143
0.232400	-2.214838
0.232500	-2.231067
0.232600	-2.188222
0.232700	-2.199907
0.232800	-2.139859
0.232900	-2.205749
0.233000	-2.206399
0.233100	-2.211267
0.233200	-2.050599
0.233300	-1.972050
0.233400	-2.076241
0.233500	-2.247945
0.233600	-2.371287
0.233700	-2.366418
0.233800	-2.157387
0.233900	-2.046055
0.234000	-2.100584
0.234100	-2.296957
0.234200	-2.455354
0.234300	-2.481970
0.234400	-2.352136
0.234500	-2.230742
0.234600	-2.175563
0.234700	-2.213215
0.234800	-2.243726
0.234900	-2.225874
0.235000	-2.182704
0.235100	-2.125253
0.235200	-2.060336
0.235300	-1.989253
0.235400	-1.878894
0.235500	-1.751333
0.235600	-1.701023
0.235700	-1.708813
0.235800	-1.708164
0.235900	-1.725367
0.236000	-1.590016
0.236100	-1.454016
0.236200	-1.444603
0.236300	-1.219992
0.236400	-1.290751
0.236500	-1.231677
0.236600	-1.160269
0.236700	-1.096326
0.236800	-0.990188
0.236900	-0.888918
0.237000	-0.868794
0.237100	-0.864250
0.237200	-0.881453
0.237300	-0.849644
0.237400	-0.834713
0.237500	-0.785376
0.237600	-0.688002
0.237700	-0.686054
0.237800	-0.610102
0.237900	-0.665281
0.238000	-0.709749
0.238100	-0.696116
0.238200	-0.733119
0.238300	-0.461119
0.238400	-0.349788
0.238500	-0.049549
0.238600	-0.341673
0.238700	-0.574074
0.238800	-0.806150
0.238900	-0.529281
0.239000	-0.281950
0.239100	-0.190742
0.239200	-0.196260
0.239300	-0.473778
0.239400	-0.578618
0.239500	-0.585109
0.239600	-0.421520
0.239700	-0.254360
0.239800	-0.235859
0.239900	-0.295582
0.240000	-0.389386
0.240100	-0.357253
0.240200	-0.394255
0.240300	-0.346542
0.240400	-0.348165
0.240500	-0.350437
0.240600	-0.333558
0.240700	-0.287792
0.240800	-0.362771
0.240900	-0.543887
0.241000	-0.468909
0.241100	-0.461444
0.241200	-0.424117
0.241300	-0.282924
0.241400	-0.318952
0.241500	-0.310513
0.241600	-0.645806
0.241700	-0.635420
0.241800	-0.559792
0.241900	-0.304671
0.242000	-0.244298
0.242100	-0.366341
0.242200	-0.571152
0.242300	-0.625682
0.242400	-0.495849
0.242500	-0.279029
0.242600	-0.209568
0.242700	-0.286494
0.242800	-0.388413
0.242900	-0.391009
0.243000	-0.352709
0.243100	-0.319601
0.243200	-0.322523
0.243300	-0.391659
0.243400	-0.447811
0.243500	-0.477673
0.243600	-0.438074
0.243700	-0.472479
0.243800	-0.526360
0.243900	-0.578942
0.244000	-0.526360
0.244100	-0.540966
0.244200	-0.555248
0.244300	-0.625033
0.244400	-0.783753
0.244500	-0.835687
0.244600	-0.840555
0.244700	-0.736365
0.244800	-0.806799
0.244900	-0.888269
0.245000	-0.912288
0.245100	-0.936956
0.245200	-0.964221
0.245300	-1.010312
0.245400	-1.042445
0.245500	-1.099896
0.245600	-1.153128
0.245700	-1.229080
0.245800	-1.259915
0.245900	-1.334569
0.246000	-1.397538
0.246100	-1.416040
0.246200	-1.481605
0.246300	-1.514388
0.246400	-1.591639
0.246500	-1.636431
0.246600	-1.759448
0.246700	-2.035019
0.246800	-2.291439
0.246900	-2.268069
0.247000	-2.029176
0.247100	-1.831505
0.247200	-1.911028
0.247300	-2.221329
0.247400	-2.526113
0.247500	-2.579994
0.247600	-2.468662
0.247700	-2.314485
0.247800	-2.345320
0.247900	-2.487163
0.248000	-2.713398
0.248100	-2.748128
0.248200	-2.729303
0.248300	-2.680940
0.248400	-2.685159
0.248500	-2.750725
0.248600	-2.791947
0.248700	-2.803957
0.248800	-2.760138
0.248900	-2.762086
0.249000	-2.782534
0.249100	-2.846802
0.249200	-2.863031
0.249300	-2.798114
0.249400	-2.767603
0.249500	-2.747804
0.249600	-2.824406
0.249700	-2.822783
0.249800	-2.765981
0.249900	-2.582266
0.250000	-2.545913
0.250100	-2.663087
0.250200	-2.861733
0.250300	-2.963003
0.250400	-2.815966
0.250500	-2.556299
0.250600	-2.418351
0.250700	-2.500471
0.250800	-2.689379
0.250900	-2.803308
0.251000	-2.732873
0.251100	-2.536824
0.251200	-2.444967
0.251300	-2.426791
0.251400	-2.463469
0.251500	-2.444643
0.251600	-2.394332
0.251700	-2.339802
0.251800	-2.296308
0.251900	-2.221654
0.252000	-2.125253
0.252100	-1.967505
0.252200	-1.839295
0.252300	-1.778923
0.252400	-1.788011
0.252500	-1.795152
0.252600	-1.786388
0.252700	-1.622474
0.252800	-1.502054
0.252900	-1.476412
0.253000	-1.311524
0.253100	-1.347228
0.253200	-1.336841
0.253300	-1.258942
0.253400	-1.182340
0.253500	-1.049911
0.253600	-1.033357
0.253700	-1.034331
0.253800	-1.047314
0.253900	-1.082369
0.254000	-1.002846
0.254100	-1.089185
0.254200	-1.037577
0.254300	-1.067114
0.254400	-1.006741
0.254500	-1.016154
0.254600	-1.060297
0.254700	-1.099896
0.254800	-1.159944
0.254900	-1.078149
0.255000	-0.933710
0.255100	-0.710723
0.255200	-0.592250
0.255300	-0.947667
0.255400	-1.229729
0.255500	-1.321911
0.255600	-0.976231
0.255700	-0.892488
0.255800	-0.741558
0.255900	-0.827572
0.256000	-1.090808
0.256100	-1.149233
0.256200	-1.152803
0.256300	-0.969739
0.256400	-0.949615
0.256500	-0.970713
0.256600	-1.035305
0.256700	-1.115801
0.256800	-1.095028
0.256900	-1.091133
0.257000	-1.077825
0.257100	-1.112555
0.257200	-1.197920
0.257300	-1.235572
0.257400	-1.314770
0.257500	-1.391696
0.257600	-1.503352
0.257700	-1.527696
0.257800	-1.605271
0.257900	-1.559830
0.258000	-1.583200
0.258100	-1.582875
0.258200	-1.741271
0.258300	-2.012947
0.258400	-1.917520
0.258500	-1.829558
0.258600	-1.537758
0.258700	-1.618579
0.258800	-1.776326
0.258900	-2.066828
0.259000	-2.020412
0.259100	-1.874675
0.259200	-1.663371
0.259300	-1.585472
0.259400	-1.704918
0.259500	-1.808460
0.259600	-1.794503
0.259700	-1.749386
0.259800	-1.630264
0.259900	-1.623772
0.260000	-1.623123
0.260100	-1.677978
0.260200	-1.689338
0.260300	-1.601701
0.260400	-1.598779
0.260500	-1.620202
0.260600	-1.628966
0.260700	-1.613386
0.260800	-1.588393
0.260900	-1.586445
0.261000	-1.677004
0.261100	-1.762694
0.261200	-1.789634
0.261300	-1.782169
0.261400	-1.651686
0.261500	-1.717252
0.261600	-1.757500
0.261700	-1.762369
0.261800	-1.752307
0.261900	-1.747763
0.262000	-1.733481
0.262100	-1.712059
0.262200	-1.728937
0.262300	-1.686092
0.262400	-1.699400
0.262500	-1.664670
0.262600	-1.648765
0.262700	-1.631238
0.262800	-1.606245
0.262900	-1.597481
0.263000	-1.568593
0.263100	-1.623123
0.263200	-1.607868
0.263300	-1.700049
0.263400	-1.888956
0.263500	-2.085005
0.263600	-1.919467
0.263700	-1.663047
0.263800	-1.476412
0.263900	-1.627343
0.264000	-1.820469
0.264100	-2.065530
0.264200	-2.041510
0.264300	-1.877596
0.264400	-1.693558
0.264500	-1.738675
0.264600	-1.852928
0.264700	-2.057090
0.264800	-2.051572
0.264900	-2.035343
0.265000	-1.920441
0.265100	-1.935696
0.265200	-1.982112
0.265300	-2.036966
0.265400	-2.057740
0.265500	-2.030799
0.265600	-2.016517
0.265700	-2.052222
0.265800	-2.081759
0.265900	-2.075592
0.266000	-2.090847
0.266100	-2.065205
0.266200	-2.104155
0.266300	-2.121358
0.266400	-2.146675
0.266500	-2.012298
0.266600	-1.836049
0.266700	-1.893176
0.266800	-2.021711
0.266900	-2.172642
0.267000	-2.218408
0.267100	-2.015868
0.267200	-1.800994
0.267300	-1.711734
0.267400	-1.851954
0.267500	-2.051897
0.267600	-2.145052
0.267700	-2.067152
0.267800	-1.922064
0.267900	-1.856823
0.268000	-1.854875
0.268100	-1.907782
0.268200	-1.962637
0.268300	-1.968479
0.268400	-1.973997
0.268500	-1.917520
0.268600	-1.881166
0.268700	-1.823391
0.268800	-1.755553
0.268900	-1.687066
0.269000	-1.653309
0.269100	-1.675381
0.269200	-1.695830
0.269300	-1.691610
0.269400	-1.509519
0.269500	-1.418636
0.269600	-1.291075
0.269700	-1.378063
0.269800	-1.402407
0.269900	-1.425777
0.270000	-1.386827
0.270100	-1.372546
0.270200	-1.284259
0.270300	-1.303409
0.270400	-1.315419
0.270500	-1.389424
0.270600	-1.454665
0.270700	-1.465051
0.270800	-1.576059
0.270900	-1.561777
0.271000	-1.617930
0.271100	-1.579629
0.271200	-1.625720
0.271300	-1.706216
0.271400	-1.701672
0.271500	-1.830207
0.271600	-1.642923
0.271700	-1.621176
0.271800	-1.196297
0.271900	-1.400784
0.272000	-1.523476
0.272100	-1.959066
0.272200	-1.763667
0.272300	-1.496861
0.272400	-1.345930
0.272500	-1.207658
0.272600	-1.391047
0.272700	-1.503028
0.272800	-1.546522
0.272900	-1.415715
0.273000	-1.206359
0.273100	-1.210904
0.273200	-1.132030
0.273300	-1.244011
0.273400	-1.207333
0.273500	-1.240116
0.273600	-1.199543
0.273700	-1.211877
0.273800	-1.205710
0.273900	-1.214474
0.274000	-1.204412
0.274100	-1.143066
0.274200	-1.322560
0.274300	-1.280040
0.274400	-1.319639
0.274500	-1.288154
0.274600	-1.172927
0.274700	-1.213500
0.274800	-1.110608
0.274900	-1.435190
0.275000	-1.470894
0.275100	-1.425128
0.275200	-1.237844
0.275300	-1.087887
0.275400	-1.146961
0.275500	-1.350149
0.275600	-1.502703
0.275700	-1.441032
0.275800	-1.298216
0.275900	-1.160269
0.276000	-1.203114
0.276100	-1.320612
0.276200	-1.404355
0.276300	-1.370598
0.276400	-1.399486
0.276500	-1.371896
0.276600	-1.476412
0.276700	-1.532565
0.276800	-1.609491
0.276900	-1.577357
0.277000	-1.585472
0.277100	-1.629615
0.277200	-1.717252
0.277300	-1.704269
0.277400	-1.674083
0.277500	-1.668565
0.277600	-1.675056
0.277700	-1.811381
0.277800	-1.869806
0.277900	-1.840918
0.278000	-1.789959
0.278100	-1.633834
0.278200	-1.693233
0.278300	-1.669538
0.278400	-1.629290
0.278500	-1.613061
0.278600	-1.566970
0.278700	-1.546522
0.278800	-1.526073
0.278900	-1.510493
0.279000	-1.505300
0.279100	-1.486474
0.279200	-1.467648
0.279300	-1.467973
0.279400	-1.442331
0.279500	-1.449796
0.279600	-1.440059
0.279700	-1.418636
0.279800	-1.445252
0.279900	-1.439085
0.280000	-1.555935
0.280100	-1.714980
0.280200	-1.775677
0.280300	-1.548469
0.280400	-1.300813
0.280500	-1.169357
0.280600	-1.324507
0.280700	-1.573137
0.280800	-1.640975
0.280900	-1.547171
0.281000	-1.327104
0.281100	-1.228431
0.281200	-1.344631
0.281300	-1.531591
0.281400	-1.635133
0.281500	-1.618579
0.281600	-1.569242
0.281700	-1.506923
0.281800	-1.557557
0.281900	-1.569242
0.282000	-1.603973
0.282100	-1.566646
0.282200	-1.532889
0.282300	-1.524125
0.282400	-1.558531
0.282500	-1.650713
0.282600	-1.620851
0.282700	-1.601376
0.282800	-1.561777
0.282900	-1.650713
0.283000	-1.673433
0.283100	-1.632211
0.283200	-1.538732
0.283300	-1.465376
0.283400	-1.588068
0.283500	-1.769835
0.283600	-1.936021
0.283700	-1.924661
0.283800	-1.729586
0.283900	-1.619553
0.284000	-1.679601
0.284100	-1.877271
0.284200	-2.082408
0.284300	-2.134341
0.284400	-2.046704
0.284500	-1.934398
0.284600	-1.922388
0.284700	-2.008078
0.284800	-2.045081
0.284900	-2.053520
0.285000	-2.039238
0.285100	-2.017167
0.285200	-2.002885
0.285300	-2.018790
0.285400	-1.988279
0.285500	-1.857147
0.285600	-1.721472
0.285700	-1.712059
0.285800	-1.758799
0.285900	-1.783467
0.286000	-1.714980
0.286100	-1.616307
0.286200	-1.630913
0.286300	-1.499133
0.286400	-1.556584
0.286500	-1.543925
0.286600	-1.527371
0.286700	-1.477061
0.286800	-1.443304
0.286900	-1.366054
0.287000	-1.428698
0.287100	-1.436164
0.287200	-1.501080
0.287300	-1.491343
0.287400	-1.547495
0.287500	-1.549443
0.287600	-1.566970
0.287700	-1.545223
0.287800	-1.556908
0.287900	-1.600727
0.288000	-1.608842
0.288100	-1.556584
0.288200	-1.601376
0.288300	-1.437787
0.288400	-1.229080
0.288500	-1.072307
0.288600	-1.230703
0.288700	-1.504651
0.288800	-1.707515
0.288900	-1.516011
0.289000	-1.201166
0.289100	-1.018426
0.289200	-1.076526
0.289300	-1.222913
0.289400	-1.384880
0.289500	-1.310226
0.289600	-1.149882
0.289700	-0.984021
0.289800	-0.916183
0.289900	-1.036927
0.290000	-1.059973
0.290100	-1.094703
0.290200	-1.085615
0.290300	-1.045367
0.290400	-1.037577
0.290500	-1.063219
0.290600	-1.081071
0.290700	-1.097300
0.290800	-1.140794
0.290900	-1.219343
0.291000	-1.139171
0.291100	-1.248555
0.291200	-1.184288
0.291300	-1.060947
0.291400	-1.093080
0.291500	-1.058350
0.291600	-1.299514
0.291700	-1.286531
0.291800	-1.223238
0.291900	-0.942799
0.292000	-0.904498
0.292100	-0.976880
0.292200	-1.253424
0.292300	-1.291725
0.292400	-1.207333
0.292500	-1.018102
0.292600	-0.902226
0.292700	-1.007715
0.292800	-1.132679
0.292900	-1.162541
0.293000	-1.107686
0.293100	-1.073605
0.293200	-1.053157
0.293300	-1.112880
0.293400	-1.173577
0.293500	-1.209930
0.293600	-1.170331
0.293700	-1.153128
0.293800	-1.216421
0.293900	-1.268030
0.294000	-1.272250
0.294100	-1.239142
0.294200	-1.244985
0.294300	-1.265109
0.294400	-1.413118
0.294500	-1.445901
0.294600	-1.429023
0.294700	-1.392345
0.294800	-1.310875
0.294900	-1.369624
0.295000	-1.336192
0.295100	-1.302111
0.295200	-1.247581
0.295300	-1.211228
0.295400	-1.199219
0.295500	-1.171629
0.295600	-1.117099
0.295700	-1.090808
0.295800	-1.059324
0.295900	-1.049262
0.296000	-1.006741
0.296100	-0.988240
0.296200	-0.972336
0.296300	-0.947343
0.296400	-1.021348
0.296500	-1.010312
0.296600	-1.050884
0.296700	-1.202789
0.296800	-1.495238
0.296900	-1.458884
0.297000	-1.228756
0.297100	-1.044068
0.297200	-1.007066
0.297300	-1.265433
0.297400	-1.504326
0.297500	-1.577357
0.297600	-1.422207
0.297700	-1.200517
0.297800	-1.118722
0.297900	-1.205061
0.298000	-1.410522
0.298100	-1.457911
0.298200	-1.455963
0.298300	-1.375467
0.298400	-1.387152
0.298500	-1.409223
0.298600	-1.429997
0.298700	-1.467973
0.298800	-1.504651
0.298900	-1.488746
0.299000	-1.537433
0.299100	-1.607219
0.299200	-1.604297
0.299300	-1.587419
0.299400	-1.626044
0.299500	-1.647791
0.299600	-1.723419
0.299700	-1.763018
0.299800	-1.692908
0.299900	-1.543600
0.300000	-1.529319
0.300100	-1.707515
0.300200	-1.898045
0.300300	-2.058389
0.300400	-1.970751
0.300500	-1.787362
0.300600	-1.699725
0.300700	-1.801968
0.300800	-2.028527
0.300900	-2.244050
0.301000	-2.267745
0.301100	-2.145052
0.301200	-2.043782
0.301300	-2.054818
0.301400	-2.128174
0.301500	-2.184976
0.301600	-2.179134
0.301700	-2.148623
0.301800	-2.116489
0.301900	-2.046055
0.302000	-1.986007
0.302100	-1.897396
0.302200	-1.747438
0.302300	-1.647467
0.302400	-1.642923
0.302500	-1.632861
0.302600	-1.628966
0.302700	-1.470569
0.302800	-1.367352
0.302900	-1.178770
0.303000	-1.180393
0.303100	-1.202140
0.303200	-1.178121
0.303300	-1.105739
0.303400	-1.025892
0.303500	-0.923648
0.303600	-0.879505
0.303700	-0.875610
0.303800	-0.880154
0.303900	-0.907744
0.304000	-0.848345
0.304100	-0.943448
0.304200	-0.853539
0.304300	-0.883076
0.304400	-0.787973
0.304500	-0.850942
0.304600	-0.830169
0.304700	-0.877882
0.304800	-0.937281
0.304900	-0.879181
0.305000	-0.729548
0.305100	-0.525062
0.305200	-0.300127
0.305300	-0.652298
0.305400	-0.910665
0.305500	-1.087238
0.305600	-0.708775
0.305700	-0.656842
0.305800	-0.482541
0.305900	-0.547458
0.306000	-0.792193
0.306100	-0.889567
0.306200	-0.868145
0.306300	-0.692546
0.306400	-0.580890
0.306500	-0.558494
0.306600	-0.592575
0.306700	-0.651973
0.306800	-0.607505
0.306900	-0.677940
0.307000	-0.646780
0.307100	-0.674694
0.307200	-0.671124
0.307300	-0.703906
0.307400	-0.713644
0.307500	-0.729548
0.307600	-0.852565
0.307700	-0.773367
0.307800	-0.914560
0.307900	-0.837959
0.308000	-0.849644
0.308100	-0.779534
0.308200	-0.894761
0.308300	-1.179094
0.308400	-1.106063
0.308500	-1.079123
0.308600	-0.823028
0.308700	-0.909691
0.308800	-1.076202
0.308900	-1.355667
0.309000	-1.408574
0.309100	-1.326130
0.309200	-1.141118
0.309300	-1.118073
0.309400	-1.293023
0.309500	-1.450770
0.309600	-1.474464
0.309700	-1.485500
0.309800	-1.429997
0.309900	-1.486799
0.310000	-1.566970
0.310100	-1.646818
0.310200	-1.678302
0.310300	-1.661424
0.310400	-1.705567
0.310500	-1.758150
0.310600	-1.785090
0.310700	-1.767238
0.310800	-1.757825
0.310900	-1.767562
0.311000	-1.841892
0.311100	-1.982112
0.311200	-1.992823
0.311300	-1.962312
0.311400	-1.887333
0.311500	-1.871754
0.311600	-1.885061
0.311700	-1.860718
0.311800	-1.858121
0.311900	-1.857796
0.312000	-1.862341
0.312100	-1.844164
0.312200	-1.866560
0.312300	-1.863639
0.312400	-1.891553
0.312500	-1.888956
0.312600	-1.884737
0.312700	-1.879868
0.312800	-1.869157
0.312900	-1.909081
0.313000	-1.902589
0.313100	-1.924336
0.313200	-1.993797
0.313300	-2.020412
0.313400	-2.305721
0.313500	-2.463144
0.313600	-2.418027
0.313700	-2.131095
0.313800	-2.000613
0.313900	-2.133367
0.314000	-2.359926
0.314100	-2.599469
0.314200	-2.558247
0.314300	-2.382972
0.314400	-2.189196
0.314500	-2.196986
0.314600	-2.327793
0.314700	-2.497874
0.314800	-2.518323
0.314900	-2.416404
0.315000	-2.343697
0.315100	-2.286895
0.315200	-2.269692
0.315300	-2.338829
0.315400	-2.317081
0.315500	-2.312213
0.315600	-2.241454
0.315700	-2.289492
0.315800	-2.324871
0.315900	-2.362199
0.316000	-2.356356
0.316100	-2.305396
0.316200	-2.327468
0.316300	-2.331363
0.316400	-2.296633
0.316500	-2.174265
0.316600	-2.025606
0.316700	-2.047677
0.316800	-2.177186
0.316900	-2.375182
0.317000	-2.451784
0.317100	-2.285921
0.317200	-2.089549
0.317300	-1.980813
0.317400	-2.118437
0.317500	-2.325521
0.317600	-2.444643
0.317700	-2.347268
0.317800	-2.177511
0.317900	-2.069749
0.318000	-2.089549
0.318100	-2.123954
0.318200	-2.164527
0.318300	-2.129797
0.318400	-2.120709
0.318500	-2.062933
0.318600	-2.047353
0.318700	-1.986980
0.318800	-1.899018
0.318900	-1.818522
0.319000	-1.779897
0.319100	-1.809434
0.319200	-1.814952
0.319300	-1.780221
0.319400	-1.615982
0.319500	-1.514713
0.319600	-1.329701
0.319700	-1.375791
0.319800	-1.386503
0.319900	-1.397214
0.320000	-1.333271
0.320100	-1.279066
0.320200	-1.130083
0.320300	-1.101844
0.320400	-1.111257
0.320500	-1.122942
0.320600	-1.108336
0.320700	-1.095028
0.320800	-1.122293
0.320900	-1.061271
0.321000	-1.058025
0.321100	-0.985319
0.321200	-1.046990
0.321300	-1.025892
0.321400	-1.154102
0.321500	-1.146961
0.321600	-1.122617
0.321700	-0.925596
0.321800	-0.654245
0.321900	-0.688326
0.322000	-1.006092
0.322100	-1.351448
0.322200	-1.323858
0.322300	-1.040822
0.322400	-0.908393
0.322500	-0.818159
0.322600	-1.054455
0.322700	-1.258942
0.322800	-1.405328
0.322900	-1.295619
0.323000	-1.203438
0.323100	-1.091457
0.323200	-1.180717
0.323300	-1.301137
0.323400	-1.402083
0.323500	-1.409223
0.323600	-1.409223
0.323700	-1.387801
0.323800	-1.394942
0.323900	-1.435190
0.324000	-1.410197
0.324100	-1.465701
0.324200	-1.553013
0.324300	-1.547495
0.324400	-1.613710
0.324500	-1.645844
0.324600	-1.595534
0.324700	-1.552689
0.324800	-1.566970
0.324900	-1.744842
0.325000	-1.882789
0.325100	-1.868183
0.325200	-1.670837
0.325300	-1.482579
0.325400	-1.572488
0.325500	-1.767887
0.325600	-1.940565
0.325700	-1.896097
0.325800	-1.753281
0.325900	-1.549443
0.326000	-1.513739
0.326100	-1.620527
0.326200	-1.701672
0.326300	-1.658178
0.326400	-1.644221
0.326500	-1.565997
0.326600	-1.575410
0.326700	-1.571515
0.326800	-1.594235
0.326900	-1.565672
0.327000	-1.547820
0.327100	-1.552364
0.327200	-1.594235
0.327300	-1.571515
0.327400	-1.554961
0.327500	-1.540030
0.327600	-1.531266
0.327700	-1.613386
0.327800	-1.690312
0.327900	-1.684469
0.328000	-1.664021
0.328100	-1.601052
0.328200	-1.597157
0.328300	-1.593262
0.328400	-1.599104
0.328500	-1.614684
0.328600	-1.627343
0.328700	-1.616956
0.328800	-1.630589
0.328900	-1.645195
0.329000	-1.664994
0.329100	-1.649414
0.329200	-1.664345
0.329300	-1.664670
0.329400	-1.696479
0.329500	-1.722121
0.329600	-1.718550
0.329700	-1.742245
0.329800	-1.764641
0.329900	-1.761720
0.330000	-1.876947
0.330100	-2.095391
0.330200	-2.241129
0.330300	-2.061310
0.330400	-1.880517
0.330500	-1.753930
0.330600	-1.935047
0.330700	-2.211592
0.330800	-2.354733
0.330900	-2.292738
0.331000	-2.110322
0.331100	-1.955171
0.331200	-2.028527
0.331300	-2.178160
0.331400	-2.350514
0.331500	-2.323249
0.331600	-2.305721
0.331700	-2.244050
0.331800	-2.268069
0.331900	-2.308642
0.332000	-2.320003
0.332100	-2.349540
0.332200	-2.382647
0.332300	-2.366418
0.332400	-2.438476
0.332500	-2.466390
0.332600	-2.458600
0.332700	-2.407965
0.332800	-2.416729
0.332900	-2.430686
0.333000	-2.481321
0.333100	-2.381998
0.333200	-2.249244
0.333300	-2.109024
0.333400	-2.237883
0.333500	-2.390437
0.333600	-2.563765
0.333700	-2.535851
0.333800	-2.334609
0.333900	-2.198933
0.334000	-2.208995
0.334100	-2.387841
0.334200	-2.578696
0.334300	-2.647183
0.334400	-2.593627
0.334500	-2.475478
0.334600	-2.455029
0.334700	-2.475803
0.334800	-2.512805
0.334900	-2.559545
0.335000	-2.557922
0.335100	-2.566686
0.335200	-2.517999
0.335300	-2.481645
0.335400	-2.435554
0.335500	-2.321626
0.335600	-2.223277
0.335700	-2.225874
0.335800	-2.234313
0.335900	-2.272289
0.336000	-2.144728
0.336100	-1.984708
0.336200	-1.912002
0.336300	-1.730560
0.336400	-1.795477
0.336500	-1.770159
0.336600	-1.733806
0.336700	-1.669214
0.336800	-1.645844
0.336900	-1.555285
0.337000	-1.576708
0.337100	-1.548145
0.337200	-1.627343
0.337300	-1.604297
0.337400	-1.638379
0.337500	-1.674732
0.337600	-1.658178
0.337700	-1.657854
0.337800	-1.612412
0.337900	-1.663371
0.338000	-1.697128
0.338100	-1.757500
0.338200	-1.778274
0.338300	-1.670512
0.338400	-1.472192
0.338500	-1.238168
0.338600	-1.257643
0.338700	-1.666942
0.338800	-1.783792
0.338900	-1.714331
0.339000	-1.466350
0.339100	-1.367677
0.339200	-1.292049
0.339300	-1.489395
0.339400	-1.625720
0.339500	-1.580603
0.339600	-1.423505
0.339700	-1.300488
0.339800	-1.300488
0.339900	-1.386827
0.340000	-1.383581
0.340100	-1.378388
0.340200	-1.315744
0.340300	-1.299839
0.340400	-1.335868
0.340500	-1.336841
0.340600	-1.321911
0.340700	-1.273223
0.340800	-1.376765
0.340900	-1.469271
0.341000	-1.462779
0.341100	-1.474464
0.341200	-1.471543
0.341300	-1.285557
0.341400	-1.394942
0.341500	-1.320288
0.341600	-1.709138
0.341700	-1.701348
0.341800	-1.596183
0.341900	-1.425452
0.342000	-1.279066
0.342100	-1.442980
0.342200	-1.653959
0.342300	-1.799047
0.342400	-1.719200
0.342500	-1.556259
0.342600	-1.443629
0.342700	-1.517958
0.342800	-1.652985
0.342900	-1.740947
0.343000	-1.625720
0.343100	-1.610789
0.343200	-1.568918
0.343300	-1.670512
0.343400	-1.728613
0.343500	-1.695830
0.343600	-1.629290
0.343700	-1.614684
0.343800	-1.660775
0.343900	-1.709787
0.344000	-1.701672
0.344100	-1.658178
0.344200	-1.632536
0.344300	-1.659476
0.344400	-1.805214
0.344500	-1.843515
0.344600	-1.839295
0.344700	-1.836049
0.344800	-1.717252
0.344900	-1.798398
0.345000	-1.787037
0.345100	-1.789634
0.345200	-1.754579
0.345300	-1.779247
0.345400	-1.800021
0.345500	-1.815276
0.345600	-1.817548
0.345700	-1.824364
0.345800	-1.826312
0.345900	-1.840594
0.346000	-1.834751
0.346100	-1.841892
0.346200	-1.834426
0.346300	-1.851954
0.346400	-1.868183
0.346500	-1.959066
0.346600	-1.976269
0.346700	-2.159009
0.346800	-2.378103
0.346900	-2.439449
0.347000	-2.206074
0.347100	-1.993148
0.347200	-1.961663
0.347300	-2.186274
0.347400	-2.496901
0.347500	-2.604987
0.347600	-2.499173
0.347700	-2.285921
0.347800	-2.210618
0.347900	-2.331688
0.348000	-2.514428
0.348100	-2.617970
0.348200	-2.545913
0.348300	-2.484891
0.348400	-2.438800
0.348500	-2.477426
0.348600	-2.505989
0.348700	-2.529359
0.348800	-2.518323
0.348900	-2.521244
0.349000	-2.508586
0.349100	-2.609207
0.349200	-2.624462
0.349300	-2.592653
0.349400	-2.595250
0.349500	-2.603364
0.349600	-2.663087
0.349700	-2.670878
0.349800	-2.641990
0.349900	-2.490084
0.350000	-2.390437
0.350100	-2.522218
0.350200	-2.676071
0.350300	-2.829274
0.350400	-2.730926
0.350500	-2.510533
0.350600	-2.375831
0.350700	-2.444318
0.350800	-2.652701
0.350900	-2.845828
0.351000	-2.830573
0.351100	-2.706582
0.351200	-2.580319
0.351300	-2.562791
0.351400	-2.623813
0.351500	-2.673150
0.351600	-2.674773
0.351700	-2.619269
0.351800	-2.575450
0.351900	-2.527736
0.352000	-2.490734
0.352100	-2.427764
0.352200	-2.276833
0.352300	-2.195687
0.352400	-2.195363
0.352500	-2.195038
0.352600	-2.229444
0.352700	-2.084031
0.352800	-1.963935
0.352900	-1.784116
0.353000	-1.753930
0.353100	-1.788985
0.353200	-1.784441
0.353300	-1.737701
0.353400	-1.669214
0.353500	-1.593262
0.353600	-1.553338
0.353700	-1.504651
0.353800	-1.565997
0.353900	-1.598455
0.354000	-1.590016
0.354100	-1.636756
0.354200	-1.617605
0.354300	-1.613061
0.354400	-1.595858
0.354500	-1.612087
0.354600	-1.628641
0.354700	-1.659476
0.354800	-1.709787
0.354900	-1.654932
0.355000	-1.636756
0.355100	-1.297242
0.355200	-1.266732
0.355300	-1.319639
0.355400	-1.788660
0.355500	-1.715305
0.355600	-1.669863
0.355700	-1.414092
0.355800	-1.315094
0.355900	-1.374493
0.356000	-1.615009
0.356100	-1.685768
0.356200	-1.739324
0.356300	-1.520231
0.356400	-1.446550
0.356500	-1.453042
0.356600	-1.534837
0.356700	-1.609166
0.356800	-1.654283
0.356900	-1.657854
0.357000	-1.638379
0.357100	-1.670188
0.357200	-1.701023
0.357300	-1.730235
0.357400	-1.733481
0.357500	-1.804889
0.357600	-1.851305
0.357700	-1.788011
0.357800	-1.867209
0.357900	-1.828584
0.358000	-1.776651
0.358100	-1.828584
0.358200	-1.857796
0.358300	-2.146351
0.358400	-2.100260
0.358500	-2.023009
0.358600	-1.796775
0.358700	-1.811706
0.358800	-1.946408
0.358900	-2.220356
0.359000	-2.216461
0.359100	-2.137912
0.359200	-1.977568
0.359300	-1.936346
0.359400	-2.012622
0.359500	-2.124279
0.359600	-2.159334
0.359700	-2.085005
0.359800	-2.058389
0.359900	-2.055143
0.360000	-2.140184
0.360100	-2.193415
0.360200	-2.166150
0.360300	-2.097339
0.360400	-2.090847
0.360500	-2.147974
0.360600	-2.164203
0.360700	-2.122656
0.360800	-2.099286
0.360900	-2.087601
0.361000	-2.153167
0.361100	-2.295010
0.361200	-2.304423
0.361300	-2.289492
0.361400	-2.295659
0.361500	-2.197959
0.361600	-2.300203
0.361700	-2.298905
0.361800	-2.309616
0.361900	-2.319678
0.362000	-2.333635
0.362100	-2.345645
0.362200	-2.367067
0.362300	-2.360251
0.362400	-2.377454
0.362500	-2.360576
0.362600	-2.382972
0.362700	-2.379726
0.362800	-2.374208
0.362900	-2.399850
0.363000	-2.399201
0.363100	-2.424843
0.363200	-2.442046
0.363300	-2.465741
0.363400	-2.707231
0.363500	-2.874716
0.363600	-2.859136
0.363700	-2.593627
0.363800	-2.411860
0.363900	-2.508261
0.364000	-2.710152
0.364100	-2.990917
0.364200	-2.954239
0.364300	-2.812396
0.364400	-2.639068
0.364500	-2.629655
0.364600	-2.784482
0.364700	-2.911719
0.364800	-2.934764
0.364900	-2.866602
0.365000	-2.839986
0.365100	-2.774095
0.365200	-2.795193
0.365300	-2.833819
0.365400	-2.835117
0.365500	-2.851671
0.365600	-2.813370
0.365700	-2.833819
0.365800	-2.796167
0.365900	-2.827976
0.366000	-2.799737
0.366100	-2.793246
0.366200	-2.803957
0.366300	-2.810124
0.366400	-2.814019
0.366500	-2.644586
0.366600	-2.487488
0.366700	-2.480672
0.366800	-2.604338
0.366900	-2.787728
0.367000	-2.873418
0.367100	-2.717618
0.367200	-2.475803
0.367300	-2.373559
0.367400	-2.498199
0.367500	-2.658868
0.367600	-2.740338
0.367700	-2.655297
0.367800	-2.483593
0.367900	-2.379077
0.368000	-2.397578
0.368100	-2.427440
0.368200	-2.432958
0.368300	-2.374857
0.368400	-2.298256
0.368500	-2.219057
0.368600	-2.159334
0.368700	-2.092794
0.368800	-1.984384
0.368900	-1.834426
0.369000	-1.751982
0.369100	-1.776326
0.369200	-1.787037
0.369300	-1.771457
0.369400	-1.637405
0.369500	-1.569567
0.369600	-1.367352
0.369700	-1.418961
0.369800	-1.443629
0.369900	-1.461481
0.370000	-1.394617
0.370100	-1.350798
0.370200	-1.241739
0.370300	-1.245634
0.370400	-1.259915
0.370500	-1.320937
0.370600	-1.333920
0.370700	-1.330025
0.370800	-1.395591
0.370900	-1.344631
0.371000	-1.421882
0.371100	-1.346903
0.371200	-1.480307
0.371300	-1.386827
0.371400	-1.542951
0.371500	-1.487448
0.371600	-1.481605
0.371700	-1.393643
0.371800	-1.077825
0.371900	-1.144040
0.372000	-1.328078
0.372100	-1.700698
0.372200	-1.572164
0.372300	-1.330674
0.372400	-1.240441
0.372500	-1.141768
0.372600	-1.345281
0.372700	-1.449472
0.372800	-1.542627
0.372900	-1.417338
0.373000	-1.235572
0.373100	-1.177147
0.373200	-1.210579
0.373300	-1.255371
0.373400	-1.331648
0.373500	-1.362483
0.373600	-1.293023
0.373700	-1.295944
0.373800	-1.308927
0.373900	-1.316393
0.374000	-1.309252
0.374100	-1.320937
0.374200	-1.508546
0.374300	-1.487772
0.374400	-1.589367
0.374500	-1.556908
0.374600	-1.526398
0.374700	-1.503352
0.374800	-1.478359
0.374900	-1.685118
0.375000	-1.925634
0.375100	-1.889606
0.375200	-1.774379
0.375300	-1.565997
0.375400	-1.637405
0.375500	-1.846761
0.375600	-2.116164
0.375700	-2.081110
0.375800	-1.920766
0.375900	-1.782818
0.376000	-1.820469
0.376100	-1.969453
0.376200	-2.087277
0.376300	-2.071372
0.376400	-2.057740
0.376500	-2.017167
0.376600	-2.079162
0.376700	-2.141807
0.376800	-2.199582
0.376900	-2.181406
0.377000	-2.129797
0.377100	-2.136613
0.377200	-2.188547
0.377300	-2.167449
0.377400	-2.122981
0.377500	-2.108050
0.377600	-2.077539
0.377700	-2.171993
0.377800	-2.270991
0.377900	-2.262227
0.378000	-2.234313
0.378100	-2.129797
0.378200	-2.155764
0.378300	-2.165501
0.378400	-2.161931
0.378500	-2.172967
0.378600	-2.166150
0.378700	-2.172967
0.378800	-2.200556
0.378900	-2.182055
0.379000	-2.206399
0.379100	-2.218733
0.379200	-2.233988
0.379300	-2.219382
0.379400	-2.226523
0.379500	-2.249244
0.379600	-2.264174
0.379700	-2.310914
0.379800	-2.326819
0.379900	-2.389788
0.380000	-2.484567
0.380100	-2.737093
0.380200	-2.839012
0.380300	-2.712424
0.380400	-2.447889
0.380500	-2.349215
0.380600	-2.507937
0.380700	-2.778639
0.380800	-2.950669
0.380900	-2.928597
0.381000	-2.718267
0.381100	-2.599145
0.381200	-2.598820
0.381300	-2.772472
0.381400	-2.908798
0.381500	-2.927623
0.381600	-2.894840
0.381700	-2.807527
0.381800	-2.776043
0.381900	-2.796491
0.382000	-2.848425
0.382100	-2.866926
0.382200	-2.802659
0.382300	-2.776043
0.382400	-2.807203
0.382500	-2.837064
0.382600	-2.834143
0.382700	-2.806229
0.382800	-2.814993
0.382900	-2.814344
0.383000	-2.845504
0.383100	-2.882506
0.383200	-2.737093
0.383300	-2.646858
0.383400	-2.718916
0.383500	-2.866602
0.383600	-3.041877
0.383700	-3.100951
0.383800	-2.910745
0.383900	-2.688080
0.384000	-2.682563
0.384100	-2.881208
0.384200	-3.055834
0.384300	-3.117830
0.384400	-3.054211
0.384500	-2.925676
0.384600	-2.870821
0.384700	-2.873093
0.384800	-2.940607
0.384900	-2.976311
0.385000	-2.955213
0.385100	-2.940931
0.385200	-2.899709
0.385300	-2.872120
0.385400	-2.844205
0.385500	-2.742286
0.385600	-2.666333
0.385700	-2.653350
0.385800	-2.686782
0.385900	-2.728329
0.386000	-2.683536
0.386100	-2.544939
0.386200	-2.487488
0.386300	-2.365120
0.386400	-2.427440
0.386500	-2.448538
0.386600	-2.475803
0.386700	-2.428089
0.386800	-2.365444
0.386900	-2.259955
0.387000	-2.272289
0.387100	-2.272938
0.387200	-2.352786
0.387300	-2.345969
0.387400	-2.349864
0.387500	-2.383946
0.387600	-2.371936
0.387700	-2.313186
0.387800	-2.349215
0.387900	-2.296957
0.388000	-2.350514
0.388100	-2.314485
0.388200	-2.332986
0.388300	-2.188871
0.388400	-2.037291
0.388500	-1.782169
0.388600	-1.812679
0.388700	-2.168422
0.388800	-2.408939
0.388900	-2.190494
0.389000	-1.957443
0.389100	-1.800345
0.389200	-1.824040
0.389300	-1.988603
0.389400	-2.207372
0.389500	-2.224575
0.389600	-2.059362
0.389700	-1.846111
0.389800	-1.851629
0.389900	-1.837348
0.390000	-1.995420
0.390100	-2.037291
0.390200	-2.068451
0.390300	-2.004508
0.390400	-1.981463
0.390500	-2.007754
0.390600	-2.037940
0.390700	-2.029501
0.390800	-2.187248
0.390900	-2.293387
0.391000	-2.248270
0.391100	-2.315783
0.391200	-2.294361
0.391300	-2.231391
0.391400	-2.247945
0.391500	-2.284299
0.391600	-2.560844
0.391700	-2.621541
0.391800	-2.511832
0.391900	-2.246971
0.392000	-2.097339
0.392100	-2.190819
0.392200	-2.409912
0.392300	-2.558572
0.392400	-2.486189
0.392500	-2.351163
0.392600	-2.200232
0.392700	-2.268719
0.392800	-2.394981
0.392900	-2.513130
0.393000	-2.452108
0.393100	-2.467039
0.393200	-2.420299
0.393300	-2.517674
0.393400	-2.537474
0.393500	-2.552080
0.393600	-2.491707
0.393700	-2.442695
0.393800	-2.485216
0.393900	-2.481970
0.394000	-2.434581
0.394100	-2.394008
0.394200	-2.344346
0.394300	-2.327793
0.394400	-2.415106
0.394500	-2.474829
0.394600	-2.438151
0.394700	-2.391411
0.394800	-2.244375
0.394900	-2.276509
0.395000	-2.258981
0.395100	-2.229119
0.395200	-2.209320
0.395300	-2.200556
0.395400	-2.177511
0.395500	-2.181081
0.395600	-2.167124
0.395700	-2.161606
0.395800	-2.176862
0.395900	-2.150895
0.396000	-2.161282
0.396100	-2.134990
0.396200	-2.191468
0.396300	-2.207048
0.396400	-2.207697
0.396500	-2.253788
0.396600	-2.271315
0.396700	-2.436204
0.396800	-2.646209
0.396900	-2.750076
0.397000	-2.554352
0.397100	-2.321301
0.397200	-2.258332
0.397300	-2.386542
0.397400	-2.728653
0.397500	-2.837714
0.397600	-2.781236
0.397700	-2.581292
0.397800	-2.497550
0.397900	-2.575125
0.398000	-2.738066
0.398100	-2.860434
0.398200	-2.821484
0.398300	-2.785780
0.398400	-2.733847
0.398500	-2.754296
0.398600	-2.773446
0.398700	-2.770849
0.398800	-2.762410
0.398900	-2.710152
0.399000	-2.695546
0.399100	-2.728653
0.399200	-2.763708
0.399300	-2.766954
0.399400	-2.728653
0.399500	-2.741637
0.399600	-2.785780
0.399700	-2.825055
0.399800	-2.758515
0.399900	-2.632577
0.400000	-2.498524
0.400100	-2.628032
0.400200	-2.837064
0.400300	-3.012664
0.400400	-2.991242
0.400500	-2.782210
0.400600	-2.649455
0.400700	-2.684510
0.400800	-2.894840
0.400900	-3.088617
0.401000	-3.129515
0.401100	-3.002602
0.401200	-2.854592
0.401300	-2.853943
0.401400	-2.871470
0.401500	-2.918860
0.401600	-2.912368
0.401700	-2.864329
0.401800	-2.816940
0.401900	-2.754296
0.402000	-2.732548
0.402100	-2.670228
0.402200	-2.527087
0.402300	-2.436853
0.402400	-2.414456
0.402500	-2.416079
0.402600	-2.443669
0.402700	-2.322599
0.402800	-2.168422
0.402900	-1.998990
0.403000	-1.954522
0.403100	-2.033071
0.403200	-2.022360
0.403300	-1.993472
0.403400	-1.912976
0.403500	-1.844813
0.403600	-1.756527
0.403700	-1.788336
0.403800	-1.815276
0.403900	-1.843190
0.404000	-1.842216
0.404100	-1.850331
0.404200	-1.881491
0.404300	-1.850980
0.404400	-1.857472
0.404500	-1.869481
0.404600	-1.825014
0.404700	-1.886360
0.404800	-1.853252
0.404900	-1.861367
0.405000	-1.723095
0.405100	-1.578655
0.405200	-1.342035
0.405300	-1.480307
0.405400	-1.892202
0.405500	-1.979515
0.405600	-1.835725
0.405700	-1.601376
0.405800	-1.482904
0.405900	-1.494588
0.406000	-1.699400
0.406100	-1.945758
0.406200	-1.878570
0.406300	-1.759123
0.406400	-1.574111
0.406500	-1.600727
0.406600	-1.606569
0.406700	-1.747438
0.406800	-1.751982
0.406900	-1.740298
0.407000	-1.691610
0.407100	-1.709138
0.407200	-1.731209
0.407300	-1.727314
0.407400	-1.717252
0.407500	-1.835076
0.407600	-1.963610
0.407700	-1.880517
0.407800	-1.970102
0.407900	-1.861691
0.408000	-1.821443
0.408100	-1.827935
0.408200	-1.880517
0.408300	-2.214513
0.408400	-2.229769
0.408500	-2.145052
0.408600	-1.856823
0.408700	-1.880193
0.408800	-1.917520
0.408900	-2.293387
0.409000	-2.345320
0.409100	-2.309616
0.409200	-2.120384
0.409300	-2.011973
0.409400	-2.125902
0.409500	-2.266446
0.409600	-2.372910
0.409700	-2.314160
0.409800	-2.309291
0.409900	-2.258332
0.410000	-2.355382
0.410100	-2.425492
0.410200	-2.465741
0.410300	-2.384595
0.410400	-2.374857
0.410500	-2.415106
0.410600	-2.462495
0.410700	-2.441072
0.410800	-2.408614
0.410900	-2.361549
0.411000	-2.362199
0.411100	-2.491058
0.411200	-2.521569
0.411300	-2.505340
0.411400	-2.440099
0.411500	-2.316757
0.411600	-2.380700
0.411700	-2.385893
0.411800	-2.402447
0.411900	-2.404070
0.412000	-2.403421
0.412100	-2.427115
0.412200	-2.438151
0.412300	-2.456328
0.412400	-2.479049
0.412500	-2.458600
0.412600	-2.513454
0.412700	-2.503068
0.412800	-2.550457
0.412900	-2.570906
0.413000	-2.619918
0.413100	-2.701388
0.413200	-2.694248
0.413300	-2.765981
0.413400	-2.930869
0.413500	-3.223644
0.413600	-3.199950
0.413700	-2.968196
0.413800	-2.795518
0.413900	-2.758191
0.414000	-3.023700
0.414100	-3.249936
0.414200	-3.334652
0.414300	-3.180150
0.414400	-2.983127
0.414500	-2.917886
0.414600	-3.031815
0.414700	-3.203845
0.414800	-3.299922
0.414900	-3.287912
0.415000	-3.222995
0.415100	-3.219749
0.415200	-3.231759
0.415300	-3.273630
0.415400	-3.286614
0.415500	-3.302518
0.415600	-3.309335
0.415700	-3.334977
0.415800	-3.368409
0.415900	-3.405736
0.416000	-3.303492
0.416100	-3.283692
0.416200	-3.278174
0.416300	-3.303167
0.416400	-3.255129
0.416500	-3.168789
0.416600	-2.997084
0.416700	-2.958783
0.416800	-3.084073
0.416900	-3.272332
0.417000	-3.409307
0.417100	-3.322318
0.417200	-3.078230
0.417300	-2.968521
0.417400	-3.019481
0.417500	-3.235329
0.417600	-3.420018
0.417700	-3.408658
0.417800	-3.272332
0.417900	-3.151911
0.418000	-3.138603
0.418100	-3.193133
0.418200	-3.234031
0.418300	-3.251559
0.418400	-3.234356
0.418500	-3.183396
0.418600	-3.139252
0.418700	-3.086994
0.418800	-3.034736
0.418900	-2.903280
0.419000	-2.802659
0.419100	-2.808826
0.419200	-2.809150
0.419300	-2.792921
0.419400	-2.630954
0.419500	-2.507612
0.419600	-2.311888
0.419700	-2.308642
0.419800	-2.352786
0.419900	-2.342399
0.420000	-2.275210
0.420100	-2.237883
0.420200	-2.139534
0.420300	-2.090522
0.420400	-2.087277
0.420500	-2.074618
0.420600	-2.130771
0.420700	-2.067152
0.420800	-2.203802
0.420900	-2.062933
0.421000	-2.135639
0.421100	-2.026904
0.421200	-2.098312
0.421300	-2.108050
0.421400	-2.080136
0.421500	-2.174914
0.421600	-2.069100
0.421700	-2.046379
0.421800	-1.646818
0.421900	-1.737701
0.422000	-1.786388
0.422100	-2.263850
0.422200	-2.284948
0.422300	-2.047028
0.422400	-1.966207
0.422500	-1.712059
0.422600	-1.913949
0.422700	-2.090522
0.422800	-2.266771
0.422900	-2.184652
0.423000	-2.093768
0.423100	-2.018465
0.423200	-1.950303
0.423300	-2.023983
0.423400	-2.065854
0.423500	-2.129797
0.423600	-2.185301
0.423700	-2.176537
0.423800	-2.207372
0.423900	-2.225224
0.424000	-2.236909
0.424100	-2.292738
0.424200	-2.355707
0.424300	-2.457951
0.424400	-2.447889
0.424500	-2.503392
0.424600	-2.484567
0.424700	-2.506314
0.424800	-2.547536
0.424900	-2.713398
0.425000	-2.980531
0.425100	-2.947423
0.425200	-2.861733
0.425300	-2.645560
0.425400	-2.672825
0.425500	-2.834792
0.425600	-3.083424
0.425700	-3.075309
0.425800	-2.975662
0.425900	-2.802334
0.426000	-2.744233
0.426100	-2.837714
0.426200	-2.898411
0.426300	-2.876988
0.426400	-2.793570
0.426500	-2.713073
0.426600	-2.705283
0.426700	-2.745856
0.426800	-2.763708
0.426900	-2.715995
0.427000	-2.627383
0.427100	-2.639393
0.427200	-2.656920
0.427300	-2.690028
0.427400	-2.632901
0.427500	-2.609531
0.427600	-2.615049
0.427700	-2.673474
0.427800	-2.783184
0.427900	-2.775718
0.428000	-2.729952
0.428100	-2.616347
0.428200	-2.597522
0.428300	-2.614075
0.428400	-2.582915
0.428500	-2.562142
0.428600	-2.551755
0.428700	-2.537149
0.428800	-2.538447
0.428900	-2.513130
0.429000	-2.514753
0.429100	-2.513454
0.429200	-2.521894
0.429300	-2.520271
0.429400	-2.523517
0.429500	-2.547860
0.429600	-2.572529
0.429700	-2.596548
0.429800	-2.644262
0.429900	-2.685159
0.430000	-2.745532
0.430100	-2.986373
0.430200	-3.198976
0.430300	-3.048369
0.430400	-2.839986
0.430500	-2.626410
0.430600	-2.803957
0.430700	-3.007796
0.430800	-3.271683
0.430900	-3.294728
0.431000	-3.116207
0.431100	-2.950669
0.431200	-2.913991
0.431300	-3.068493
0.431400	-3.153859
0.431500	-3.187615
0.431600	-3.120426
0.431700	-3.079204
0.431800	-3.026297
0.431900	-3.043175
0.432000	-3.055510
0.432100	-3.054860
0.432200	-3.018832
0.432300	-3.003251
0.432400	-3.066545
0.432500	-3.107768
0.432600	-3.129839
0.432700	-3.088617
0.432800	-3.097381
0.432900	-3.126918
0.433000	-3.158403
0.433100	-3.173658
0.433200	-3.095109
0.433300	-2.919509
0.433400	-2.962354
0.433500	-3.103223
0.433600	-3.280122
0.433700	-3.349583
0.433800	-3.205143
0.433900	-2.972091
0.434000	-2.914965
0.434100	-3.066870
0.434200	-3.257401
0.434300	-3.344714
0.434400	-3.274929
0.434500	-3.132761
0.434600	-3.083748
0.434700	-3.122049
0.434800	-3.194756
0.434900	-3.197028
0.435000	-3.154508
0.435100	-3.134384
0.435200	-3.092512
0.435300	-3.098679
0.435400	-3.052913
0.435500	-2.971767
0.435600	-2.850372
0.435700	-2.791947
0.435800	-2.783184
0.435900	-2.726706
0.436000	-2.705283
0.436100	-2.522867
0.436200	-2.468662
0.436300	-2.276509
0.436400	-2.302475
0.436500	-2.289167
0.436600	-2.279754
0.436700	-2.193091
0.436800	-2.127849
0.436900	-2.014245
0.437000	-2.033720
0.437100	-2.030799
0.437200	-2.107401
0.437300	-2.103181
0.437400	-2.158036
0.437500	-2.130122
0.437600	-2.167773
0.437700	-2.095067
0.437800	-2.122656
0.437900	-2.146026
0.438000	-2.104804
0.438100	-2.267420
0.438200	-2.145052
0.438300	-2.170370
0.438400	-1.888307
0.438500	-1.699400
0.438600	-1.691935
0.438700	-1.951276
0.438800	-2.328766
0.438900	-2.089549
0.439000	-1.917195
0.439100	-1.646169
0.439200	-1.641300
0.439300	-1.828909
0.439400	-1.905835
0.439500	-2.040861
0.439600	-1.824364
0.439700	-1.724718
0.439800	-1.609166
0.439900	-1.669863
0.440000	-1.754255
0.440100	-1.776326
0.440200	-1.845138
0.440300	-1.802293
0.440400	-1.792880
0.440500	-1.808460
0.440600	-1.900641
0.440700	-1.925310
0.440800	-1.983085
0.440900	-2.091821
0.441000	-2.053195
0.441100	-2.154141
0.441200	-2.147000
0.441300	-2.166150
0.441400	-2.111620
0.441500	-2.174589
0.441600	-2.353435
0.441700	-2.556299
0.441800	-2.473855
0.441900	-2.302800
0.442000	-2.136289
0.442100	-2.227821
0.442200	-2.475154
0.442300	-2.648157
0.442400	-2.593302
0.442500	-2.411535
0.442600	-2.235936
0.442700	-2.254761
0.442800	-2.396280
0.442900	-2.467039
0.443000	-2.387841
0.443100	-2.360251
0.443200	-2.265473
0.443300	-2.355058
0.443400	-2.399526
0.443500	-2.420948
0.443600	-2.376480
0.443700	-2.340451
0.443800	-2.396280
0.443900	-2.461196
0.444000	-2.458275
0.444100	-2.454705
0.444200	-2.476452
0.444300	-2.488462
0.444400	-2.609207
0.444500	-2.686782
0.444600	-2.684835
0.444700	-2.639717
0.444800	-2.524166
0.444900	-2.603040
0.445000	-2.608233
0.445100	-2.588433
0.445200	-2.582591
0.445300	-2.602066
0.445400	-2.605312
0.445500	-2.636472
0.445600	-2.644586
0.445700	-2.673474
0.445800	-2.687107
0.445900	-2.720539
0.446000	-2.718916
0.446100	-2.701388
0.446200	-2.726706
0.446300	-2.723460
0.446400	-2.768577
0.446500	-2.723785
0.446600	-2.800386
0.446700	-2.880234
0.446800	-3.159377
0.446900	-3.230136
0.447000	-3.032464
0.447100	-2.812721
0.447200	-2.663737
0.447300	-2.877313
0.447400	-3.145744
0.447500	-3.313879
0.447600	-3.233706
0.447700	-3.062326
0.447800	-2.945151
0.447900	-2.968521
0.448000	-3.128541
0.448100	-3.221048
0.448200	-3.211959
0.448300	-3.133085
0.448400	-3.097056
0.448500	-3.056483
0.448600	-3.058755
0.448700	-3.083099
0.448800	-3.062975
0.448900	-3.008445
0.449000	-2.947748
0.449100	-2.996111
0.449200	-2.993839
0.449300	-2.995137
0.449400	-2.931843
0.449500	-2.892244
0.449600	-2.945800
0.449700	-2.907499
0.449800	-2.884454
0.449900	-2.683536
0.450000	-2.595899
0.450100	-2.677694
0.450200	-2.836740
0.450300	-2.997084
0.450400	-2.993839
0.450500	-2.746181
0.450600	-2.552080
0.450700	-2.595574
0.450800	-2.799088
0.450900	-3.005199
0.451000	-3.022077
0.451100	-2.917237
0.451200	-2.785780
0.451300	-2.758840
0.451400	-2.807203
0.451500	-2.870497
0.451600	-2.876339
0.451700	-2.828950
0.451800	-2.799737
0.451900	-2.757541
0.452000	-2.726706
0.452100	-2.684510
0.452200	-2.547211
0.452300	-2.485540
0.452400	-2.481321
0.452500	-2.472232
0.452600	-2.507937
0.452700	-2.427764
0.452800	-2.298905
0.452900	-2.221654
0.453000	-2.085005
0.453100	-2.168098
0.453200	-2.168098
0.453300	-2.146351
0.453400	-2.080460
0.453500	-2.033396
0.453600	-1.961014
0.453700	-1.990226
0.453800	-2.019763
0.453900	-2.047677
0.454000	-2.083057
0.454100	-2.075592
0.454200	-2.164527
0.454300	-2.080460
0.454400	-2.187248
0.454500	-2.107076
0.454600	-2.221005
0.454700	-2.227496
0.454800	-2.294685
0.454900	-2.326494
0.455000	-2.171019
0.455100	-1.962961
0.455200	-1.758150
0.455300	-1.848708
0.455400	-2.272289
0.455500	-2.394981
0.455600	-2.289816
0.455700	-1.927906
0.455800	-1.794827
0.455900	-1.710436
0.456000	-1.886360
0.456100	-2.014245
0.456200	-1.996718
0.456300	-1.862341
0.456400	-1.750684
0.456500	-1.677004
0.456600	-1.706865
0.456700	-1.819171
0.456800	-1.821768
0.456900	-1.817548
0.457000	-1.793204
0.457100	-1.794503
0.457200	-1.804240
0.457300	-1.857472
0.457400	-1.906484
0.457500	-1.966532
0.457600	-2.113892
0.457700	-2.057740
0.457800	-2.108374
0.457900	-2.095716
0.458000	-1.986656
0.458100	-2.022360
0.458200	-2.070398
0.458300	-2.363497
0.458400	-2.426466
0.458500	-2.332661
0.458600	-2.116814
0.458700	-2.034045
0.458800	-2.167449
0.458900	-2.418351
0.459000	-2.508586
0.459100	-2.399526
0.459200	-2.231391
0.459300	-2.172642
0.459400	-2.285272
0.459500	-2.409912
0.459600	-2.474829
0.459700	-2.395306
0.459800	-2.401149
0.459900	-2.362523
0.460000	-2.486839
0.460100	-2.530982
0.460200	-2.563765
0.460300	-2.506638
0.460400	-2.490084
0.460500	-2.554027
0.460600	-2.592653
0.460700	-2.593951
0.460800	-2.566686
0.460900	-2.562142
0.461000	-2.582266
0.461100	-2.718591
0.461200	-2.765331
0.461300	-2.766630
0.461400	-2.718591
0.461500	-2.611803
0.461600	-2.676395
0.461700	-2.680290
0.461800	-2.652701
0.461900	-2.637445
0.462000	-2.629980
0.462100	-2.617321
0.462200	-2.619593
0.462300	-2.595574
0.462400	-2.591679
0.462500	-2.582591
0.462600	-2.597846
0.462700	-2.596548
0.462800	-2.612777
0.462900	-2.619918
0.463000	-2.619269
0.463100	-2.671851
0.463200	-2.733198
0.463300	-2.781236
0.463400	-3.020779
0.463500	-3.207415
0.463600	-3.284017
0.463700	-2.987347
0.463800	-2.888024
0.463900	-2.819861
0.464000	-3.104522
0.464100	-3.353154
0.464200	-3.462863
0.464300	-3.310633
0.464400	-3.094784
0.464500	-3.028569
0.464600	-3.148341
0.464700	-3.315502
0.464800	-3.425861
0.464900	-3.444686
0.465000	-3.375225
0.465100	-3.335626
0.465200	-3.371330
0.465300	-3.414825
0.465400	-3.466434
0.465500	-3.463188
0.465600	-3.410280
0.465700	-3.433326
0.465800	-3.468706
0.465900	-3.481040
0.466000	-3.488505
0.466100	-3.470978
0.466200	-3.481689
0.466300	-3.524859
0.466400	-3.474873
0.466500	-3.404438
0.466600	-3.222671
0.466700	-3.176904
0.466800	-3.298623
0.466900	-3.455398
0.467000	-3.584907
0.467100	-3.458319
0.467200	-3.166842
0.467300	-3.004550
0.467400	-3.041228
0.467500	-3.203195
0.467600	-3.326213
0.467700	-3.298948
0.467800	-3.171386
0.467900	-3.049018
0.468000	-3.009743
0.468100	-3.048693
0.468200	-3.113286
0.468300	-3.124971
0.468400	-3.093161
0.468500	-3.052264
0.468600	-3.001304
0.468700	-2.937361
0.468800	-2.828950
0.468900	-2.719565
0.469000	-2.648157
0.469100	-2.671527
0.469200	-2.673474
0.469300	-2.681264
0.469400	-2.567011
0.469500	-2.460547
0.469600	-2.483593
0.469700	-2.269692
0.469800	-2.308967
0.469900	-2.322275
0.470000	-2.260604
0.470100	-2.171344
0.470200	-2.079162
0.470300	-2.014895
0.470400	-2.025281
0.470500	-2.054818
0.470600	-2.066828
0.470700	-2.043782
0.470800	-2.111296
0.470900	-2.038589
0.471000	-2.081759
0.471100	-1.984059
0.471200	-2.071372
0.471300	-2.027878
0.471400	-2.147000
0.471500	-2.117138
0.471600	-2.040212
0.471700	-1.971400
0.471800	-1.706865
0.471900	-1.568269
0.472000	-1.707515
0.472100	-2.126876
0.472200	-2.081759
0.472300	-1.916221
0.472400	-1.746465
0.472500	-1.604622
0.472600	-1.712383
0.472700	-1.869157
0.472800	-2.003210
0.472900	-1.945434
0.473000	-1.800994
0.473100	-1.661099
0.473200	-1.697128
0.473300	-1.694856
0.473400	-1.809109
0.473500	-1.840269
0.473600	-1.808460
0.473700	-1.747114
0.473800	-1.753281
0.473900	-1.738675
0.474000	-1.762045
0.474100	-1.759123
0.474200	-1.884088
0.474300	-1.943162
0.474400	-1.959715
0.474500	-1.954522
0.474600	-1.913300
0.474700	-1.917195
0.474800	-1.902913
0.474900	-2.056441
0.475000	-2.294685
0.475100	-2.298905
0.475200	-2.207697
0.475300	-2.032747
0.475400	-2.062608
0.475500	-2.205100
0.475600	-2.496576
0.475700	-2.513454
0.475800	-2.454056
0.475900	-2.287869
0.476000	-2.258007
0.476100	-2.359602
0.476200	-2.463793
0.476300	-2.502743
0.476400	-2.492357
0.476500	-2.456003
0.476600	-2.465416
0.476700	-2.519297
0.476800	-2.573502
0.476900	-2.599469
0.477000	-2.584214
0.477100	-2.604013
0.477200	-2.637445
0.477300	-2.650429
0.477400	-2.651727
0.477500	-2.620892
0.477600	-2.626734
0.477700	-2.686782
0.477800	-2.810449
0.477900	-2.828625
0.478000	-2.814668
0.478100	-2.690677
0.478200	-2.740988
0.478300	-2.781885
0.478400	-2.777016
0.478500	-2.788052
0.478600	-2.798114
0.478700	-2.830573
0.478800	-2.864979
0.478900	-2.882182
0.479000	-2.913017
0.479100	-2.967872
0.479200	-2.965275
0.479300	-3.013963
0.479400	-3.020454
0.479500	-3.049342
0.479600	-3.060378
0.479700	-3.103223
0.479800	-3.160026
0.479900	-3.244742
0.480000	-3.295377
0.480100	-3.524210
0.480200	-3.738436
0.480300	-3.684230
0.480400	-3.420667
0.480500	-3.284666
0.480600	-3.378147
0.480700	-3.643657
0.480800	-3.820881
0.480900	-3.861454
0.481000	-3.646578
0.481100	-3.519341
0.481200	-3.476820
0.481300	-3.599513
0.481400	-3.692994
0.481500	-3.696240
0.481600	-3.631647
0.481700	-3.610225
0.481800	-3.544983
0.481900	-3.561862
0.482000	-3.542387
0.482100	-3.533623
0.482200	-3.504085
0.482300	-3.470653
0.482400	-3.519341
0.482500	-3.526806
0.482600	-3.561537
0.482700	-3.547904
0.482800	-3.558291
0.482900	-3.597891
0.483000	-3.611523
0.483100	-3.595943
0.483200	-3.497918
0.483300	-3.333678
0.483400	-3.312580
0.483500	-3.441441
0.483600	-3.583609
0.483700	-3.660211
0.483800	-3.484286
0.483900	-3.241172
0.484000	-3.143796
0.484100	-3.290833
0.484200	-3.436896
0.484300	-3.530701
0.484400	-3.459293
0.484500	-3.355426
0.484600	-3.279473
0.484700	-3.282719
0.484800	-3.301869
0.484900	-3.326213
0.485000	-3.314203
0.485100	-3.271683
0.485200	-3.214880
0.485300	-3.199300
0.485400	-3.109066
0.485500	-2.967872
0.485600	-2.868549
0.485700	-2.829274
0.485800	-2.849074
0.485900	-2.833819
0.486000	-2.824730
0.486100	-2.648806
0.486200	-2.567011
0.486300	-2.531307
0.486400	-2.339478
0.486500	-2.343373
0.486600	-2.289492
0.486700	-2.213539
0.486800	-2.130771
0.486900	-2.006131
0.487000	-1.983085
0.487100	-1.973673
0.487200	-1.980164
0.487300	-2.006131
0.487400	-1.970751
0.487500	-2.045081
0.487600	-1.972374
0.487700	-2.019439
0.487800	-1.960365
0.487900	-2.049300
0.488000	-2.006131
0.488100	-2.133043
0.488200	-2.179783
0.488300	-2.122007
0.488400	-2.011649
0.488500	-1.728613
0.488600	-1.829882
0.488700	-1.986656
0.488800	-2.435554
0.488900	-2.246971
0.489000	-2.060985
0.489100	-1.909730
0.489200	-1.869481
0.489300	-2.039887
0.489400	-2.149272
0.489500	-2.244050
0.489600	-2.087926
0.489700	-1.915897
0.489800	-1.868183
0.489900	-1.899018
0.490000	-1.932451
0.490100	-2.034045
0.490200	-1.969778
0.490300	-1.989902
0.490400	-1.984708
0.490500	-1.986331
0.490600	-2.030799
0.490700	-2.020412
0.490800	-2.050274
0.490900	-2.173940
0.491000	-2.131420
0.491100	-2.150570
0.491200	-2.164203
0.491300	-2.082083
0.491400	-2.095391
0.491500	-2.056766
0.491600	-2.319678
0.491700	-2.457626
0.491800	-2.392709
0.491900	-2.214513
0.492000	-1.983085
0.492100	-2.066828
0.492200	-2.239181
0.492300	-2.475803
0.492400	-2.419325
0.492500	-2.270991
0.492600	-2.117138
0.492700	-2.151219
0.492800	-2.294685
0.492900	-2.389464
0.493000	-2.338179
0.493100	-2.342074
0.493200	-2.250866
0.493300	-2.338179
0.493400	-2.393683
0.493500	-2.470285
0.493600	-2.458600
0.493700	-2.406017
0.493800	-2.454380
0.493900	-2.513779
0.494000	-2.519946
0.494100	-2.490734
0.494200	-2.478724
0.494300	-2.469960
0.494400	-2.554677
0.494500	-2.631927
0.494600	-2.627383
0.494700	-2.585512
0.494800	-2.431659
0.494900	-2.506314
0.495000	-2.533579
0.495100	-2.522867
0.495200	-2.509884
0.495300	-2.533579
0.495400	-2.509884
0.495500	-2.542342
0.495600	-2.510858
0.495700	-2.491707
0.495800	-2.494304
0.495900	-2.474180
0.496000	-2.481970
0.496100	-2.436853
0.496200	-2.425168
0.496300	-2.450485
0.496400	-2.453406
0.496500	-2.512156
0.496600	-2.504042
0.496700	-2.615698
0.496800	-2.852644
0.496900	-2.940282
0.497000	-2.787079
0.497100	-2.527087
0.497200	-2.408289
0.497300	-2.552080
0.497400	-2.905552
0.497500	-3.094135
0.497600	-3.016884
0.497700	-2.860110
0.497800	-2.750725
0.497900	-2.783184
0.498000	-2.943203
0.498100	-3.101276
0.498200	-3.156131
0.498300	-3.117505
0.498400	-3.048693
0.498500	-3.030517
0.498600	-3.073686
0.498700	-3.083424
0.498800	-3.084398
0.498900	-3.037333
0.499000	-3.028244
0.499100	-3.030517
0.499200	-3.075958
0.499300	-3.041877
0.499400	-2.978583
0.499500	-2.975013
0.499600	-2.974363
0.499700	-2.976960
0.499800	-2.945800
0.499900	-2.803308
0.500000	-2.645235
0.500100	-2.703011
0.500200	-2.847451
0.500300	-3.001629
0.500400	-3.014287
0.500500	-2.803957
0.500600	-2.584863
0.500700	-2.583240
0.500800	-2.780587
0.500900	-2.920483
0.501000	-2.953915
0.501100	-2.845504
0.501200	-2.694572
0.501300	-2.636472
0.501400	-2.638095
0.501500	-2.679641
0.501600	-2.676071
0.501700	-2.622839
0.501800	-2.570906
0.501900	-2.489435
0.502000	-2.476127
0.502100	-2.389139
0.502200	-2.236585
0.502300	-2.156413
0.502400	-2.161282
0.502500	-2.181730
0.502600	-2.200232
0.502700	-2.172967
0.502800	-2.053520
0.502900	-2.031448
0.503000	-1.840918
0.503100	-1.873376
0.503200	-1.860069
0.503300	-1.868508
0.503400	-1.761720
0.503500	-1.704918
0.503600	-1.622149
0.503700	-1.581901
0.503800	-1.624746
0.503900	-1.616956
0.504000	-1.634159
0.504100	-1.595858
0.504200	-1.650713
0.504300	-1.625395
0.504400	-1.601376
0.504500	-1.601052
0.504600	-1.620202
0.504700	-1.625395
0.504800	-1.700049
0.504900	-1.704918
0.505000	-1.718226
0.505100	-1.423505
0.505200	-1.293672
0.505300	-1.346254
0.505400	-1.807486
0.505500	-1.983410
0.505600	-1.867859
0.505700	-1.737376
0.505800	-1.591963
0.505900	-1.610464
0.506000	-1.830532
0.506100	-1.970751
0.506200	-2.024632
0.506300	-1.883763
0.506400	-1.826961
0.506500	-1.698751
0.506600	-1.745491
0.506700	-1.865586
0.506800	-1.928231
0.506900	-1.937968
0.507000	-1.936670
0.507100	-1.927906
0.507200	-1.929529
0.507300	-1.932775
0.507400	-1.967505
0.507500	-2.066503
0.507600	-2.170370
0.507700	-2.095716
0.507800	-2.192117
0.507900	-2.204127
0.508000	-2.109024
0.508100	-2.138885
0.508200	-2.111945
0.508300	-2.405693
0.508400	-2.446590
0.508500	-2.397254
0.508600	-2.225224
0.508700	-2.049300
0.508800	-2.190819
0.508900	-2.426791
0.509000	-2.579994
0.509100	-2.446266
0.509200	-2.299879
0.509300	-2.208346
0.509400	-2.257358
0.509500	-2.408939
0.509600	-2.454705
0.509700	-2.381674
0.509800	-2.366418
0.509900	-2.305721
0.510000	-2.399201
0.510100	-2.439449
0.510200	-2.477101
0.510300	-2.426141
0.510400	-2.388165
0.510500	-2.417053
0.510600	-2.451784
0.510700	-2.444643
0.510800	-2.427764
0.510900	-2.394657
0.511000	-2.418027
0.511100	-2.531956
0.511200	-2.570581
0.511300	-2.566686
0.511400	-2.503717
0.511500	-2.414132
0.511600	-2.464118
0.511700	-2.449187
0.511800	-2.432958
0.511900	-2.427764
0.512000	-2.470934
0.512100	-2.464442
0.512200	-2.477750
0.512300	-2.493006
0.512400	-2.501445
0.512500	-2.513130
0.512600	-2.511507
0.512700	-2.480347
0.512800	-2.517025
0.512900	-2.477101
0.513000	-2.537149
0.513100	-2.506638
0.513200	-2.524815
0.513300	-2.555650
0.513400	-2.658219
0.513500	-2.949046
0.513600	-2.932168
0.513700	-2.776367
0.513800	-2.543641
0.513900	-2.553378
0.514000	-2.765331
0.514100	-2.996435
0.514200	-3.123997
0.514300	-3.002927
0.514400	-2.820835
0.514500	-2.757541
0.514600	-2.877313
0.514700	-3.029543
0.514800	-3.097706
0.514900	-3.141849
0.515000	-3.096732
0.515100	-3.067195
0.515200	-3.075958
0.515300	-3.167167
0.515400	-3.189887
0.515500	-3.190861
0.515600	-3.164245
0.515700	-3.178202
0.515800	-3.260322
0.515900	-3.292456
0.516000	-3.337573
0.516100	-3.250585
0.516200	-3.279473
0.516300	-3.318098
0.516400	-3.340170
0.516500	-3.334003
0.516600	-3.214231
0.516700	-3.163921
0.516800	-3.243444
0.516900	-3.424887
0.517000	-3.579065
0.517100	-3.530052
0.517200	-3.321020
0.517300	-3.227864
0.517400	-3.297650
0.517500	-3.514148
0.517600	-3.677414
0.517700	-3.697863
0.517800	-3.598215
0.517900	-3.503436
0.518000	-3.488505
0.518100	-3.516744
0.518200	-3.549527
0.518300	-3.555695
0.518400	-3.483312
0.518500	-3.456371
0.518600	-3.424238
0.518700	-3.368084
0.518800	-3.250909
0.518900	-3.144121
0.519000	-3.101925
0.519100	-3.116856
0.519200	-3.097056
0.519300	-3.129839
0.519400	-3.032139
0.519500	-2.926325
0.519600	-2.897112
0.519700	-2.633550
0.519800	-2.665035
0.519900	-2.587135
0.520000	-2.530333
0.520100	-2.401149
0.520200	-2.277158
0.520300	-2.217434
0.520400	-2.194064
0.520500	-2.167449
0.520600	-2.196661
0.520700	-2.121358
0.520800	-2.182055
0.520900	-2.105129
0.521000	-2.142131
0.521100	-2.035992
0.521200	-2.079162
0.521300	-2.025930
0.521400	-2.096689
0.521500	-2.100260
0.521600	-2.067152
0.521700	-2.066503
0.521800	-1.657204
0.521900	-1.628641
0.522000	-1.645195
0.522100	-2.068126
0.522200	-2.152518
0.522300	-1.870131
0.522400	-1.699076
0.522500	-1.570865
0.522600	-1.649739
0.522700	-1.788011
0.522800	-1.930828
0.522900	-1.898045
0.523000	-1.649414
0.523100	-1.546197
0.523200	-1.513414
0.523300	-1.676030
0.523400	-1.659801
0.523500	-1.712708
0.523600	-1.692259
0.523700	-1.637405
0.523800	-1.627018
0.523900	-1.663696
0.524000	-1.749386
0.524100	-1.691286
0.524200	-1.881491
0.524300	-1.865586
0.524400	-1.884088
0.524500	-1.881816
0.524600	-1.879868
0.524700	-1.811381
0.524800	-1.817548
0.524900	-1.899668
0.525000	-2.184652
0.525100	-2.144728
0.525200	-2.041510
0.525300	-1.852279
0.525400	-1.793854
0.525500	-1.929205
0.525600	-2.182379
0.525700	-2.219382
0.525800	-2.142780
0.525900	-1.959066
0.526000	-1.891878
0.526100	-2.005482
0.526200	-2.119735
0.526300	-2.157062
0.526400	-2.117787
0.526500	-2.113243
0.526600	-2.113243
0.526700	-2.190169
0.526800	-2.259306
0.526900	-2.301177
0.527000	-2.239831
0.527100	-2.245998
0.527200	-2.271640
0.527300	-2.285272
0.527400	-2.261578
0.527500	-2.230742
0.527600	-2.191468
0.527700	-2.210618
0.527800	-2.357654
0.527900	-2.361874
0.528000	-2.318380
0.528100	-2.156737
0.528200	-2.175239
0.528300	-2.235936
0.528400	-2.213864
0.528500	-2.197635
0.528600	-2.195038
0.528700	-2.187248
0.528800	-2.195687
0.528900	-2.229119
0.529000	-2.254437
0.529100	-2.272289
0.529200	-2.285921
0.529300	-2.314485
0.529400	-2.331039
0.529500	-2.353435
0.529600	-2.368690
0.529700	-2.372585
0.529800	-2.408614
0.529900	-2.452757
0.530000	-2.467688
0.530100	-2.726381
0.530200	-2.879260
0.530300	-2.863356
0.530400	-2.628682
0.530500	-2.464118
0.530600	-2.542342
0.530700	-2.769226
0.530800	-3.114584
0.530900	-3.136006
0.531000	-3.029543
0.531100	-2.899060
0.531200	-2.922105
0.531300	-3.119453
0.531400	-3.333678
0.531500	-3.472276
0.531600	-3.467407
0.531700	-3.449231
0.531800	-3.420018
0.531900	-3.489804
0.532000	-3.585881
0.532100	-3.633270
0.532200	-3.659886
0.532300	-3.654368
0.532400	-3.701758
0.532500	-3.768298
0.532600	-3.808222
0.532700	-3.806924
0.532800	-3.822828
0.532900	-3.869244
0.533000	-3.912738
0.533100	-3.964023
0.533200	-3.906571
0.533300	-3.778685
0.533400	-3.726751
0.533500	-3.870542
0.533600	-4.041599
0.533700	-4.157152
0.533800	-4.022773
0.533900	-3.755314
0.534000	-3.664755
0.534100	-3.752069
0.534200	-3.878332
0.534300	-3.972462
0.534400	-3.897158
0.534500	-3.738761
0.534600	-3.604707
0.534700	-3.530052
0.534800	-3.525833
0.534900	-3.525833
0.535000	-3.468706
0.535100	-3.378796
0.535200	-3.259673
0.535300	-3.199950
0.535400	-3.072713
0.535500	-2.903929
0.535600	-2.737417
0.535700	-2.647507
0.535800	-2.644911
0.535900	-2.588758
0.536000	-2.549159
0.536100	-2.368366
0.536200	-2.252489
0.536300	-2.171019
0.536400	-2.018140
0.536500	-2.005482
0.536600	-1.975620
0.536700	-1.888307
0.536800	-1.795477
0.536900	-1.710760
0.537000	-1.651686
0.537100	-1.661749
0.537200	-1.621176
0.537300	-1.636756
0.537400	-1.619553
0.537500	-1.625395
0.537600	-1.614035
0.537700	-1.533538
0.537800	-1.563725
0.537900	-1.500106
0.538000	-1.589367
0.538100	-1.566646
0.538200	-1.598455
0.538300	-1.512765
0.538400	-1.407276
0.538500	-1.128784
0.538600	-1.031410
0.538700	-1.307629
0.538800	-1.661749
0.538900	-1.599104
0.539000	-1.446226
0.539100	-1.148259
0.539200	-1.179094
0.539300	-1.176822
0.539400	-1.383257
0.539500	-1.492641
0.539600	-1.488097
0.539700	-1.315419
0.539800	-1.211228
0.539900	-1.246932
0.540000	-1.284259
0.540100	-1.393643
0.540200	-1.442006
0.540300	-1.465376
0.540400	-1.496211
0.540500	-1.522178
0.540600	-1.535486
0.540700	-1.519906
0.540800	-1.586445
0.540900	-1.721147
0.541000	-1.806188
0.541100	-1.789634
0.541200	-1.854875
0.541300	-1.736727
0.541400	-1.817873
0.541500	-1.802617
0.541600	-1.951276
0.541700	-2.180757
0.541800	-2.128174
0.541900	-1.992174
0.542000	-1.807486
0.542100	-1.826312
0.542200	-1.996393
0.542300	-2.249893
0.542400	-2.199907
0.542500	-2.076890
0.542600	-1.920766
0.542700	-1.907458
0.542800	-2.049300
0.542900	-2.156737
0.543000	-2.144079
0.543100	-2.138561
0.543200	-2.071697
0.543300	-2.099286
0.543400	-2.134666
0.543500	-2.175239
0.543600	-2.187897
0.543700	-2.112269
0.543800	-2.122981
0.543900	-2.161931
0.544000	-2.183678
0.544100	-2.146351
0.544200	-2.131744
0.544300	-2.130771
0.544400	-2.245998
0.544500	-2.372910
0.544600	-2.368366
0.544700	-2.344671
0.544800	-2.196012
0.544900	-2.276184
0.545000	-2.321301
0.545100	-2.327793
0.545200	-2.348241
0.545300	-2.373559
0.545400	-2.382647
0.545500	-2.404394
0.545600	-2.418027
0.545700	-2.434581
0.545800	-2.440748
0.545900	-2.443669
0.546000	-2.446590
0.546100	-2.456977
0.546200	-2.430361
0.546300	-2.438800
0.546400	-2.419650
0.546500	-2.480672
0.546600	-2.451784
0.546700	-2.572853
0.546800	-2.756243
0.546900	-2.933790
0.547000	-2.812721
0.547100	-2.574476
0.547200	-2.396929
0.547300	-2.492681
0.547400	-2.768253
0.547500	-2.995461
0.547600	-2.926325
0.547700	-2.742935
0.547800	-2.562467
0.547900	-2.563116
0.548000	-2.665360
0.548100	-2.795193
0.548200	-2.773446
0.548300	-2.791947
0.548400	-2.672500
0.548500	-2.705608
0.548600	-2.728329
0.548700	-2.749427
0.548800	-2.753971
0.548900	-2.739040
0.549000	-2.743584
0.549100	-2.791298
0.549200	-2.840310
0.549300	-2.849399
0.549400	-2.866277
0.549500	-2.900683
0.549600	-2.972741
0.549700	-3.024025
0.549800	-3.046746
0.549900	-2.948397
0.550000	-2.858487
0.550100	-2.905227
0.550200	-3.091214
0.550300	-3.297000
0.550400	-3.405736
0.550500	-3.259998
0.550600	-3.062326
0.550700	-3.053562
0.550800	-3.261945
0.550900	-3.433651
0.551000	-3.528429
0.551100	-3.464162
0.551200	-3.345688
0.551300	-3.289210
0.551400	-3.279473
0.551500	-3.332380
0.551600	-3.347311
0.551700	-3.295702
0.551800	-3.239873
0.551900	-3.193458
0.552000	-3.182422
0.552100	-3.112312
0.552200	-2.902630
0.552300	-2.776367
0.552400	-2.779288
0.552500	-2.811098
0.552600	-2.845504
0.552700	-2.802334
0.552800	-2.646209
0.552900	-2.616347
0.553000	-2.542342
0.553100	-2.456652
0.553200	-2.480996
0.553300	-2.443994
0.553400	-2.365444
0.553500	-2.307669
0.553600	-2.205749
0.553700	-2.151544
0.553800	-2.148298
0.553900	-2.200232
0.554000	-2.208995
0.554100	-2.227172
0.554200	-2.246322
0.554300	-2.204451
0.554400	-2.204127
0.554500	-2.156413
0.554600	-2.262551
0.554700	-2.184327
0.554800	-2.348241
0.554900	-2.220031
0.555000	-2.285921
0.555100	-1.924985
0.555200	-1.789634
0.555300	-1.706216
0.555400	-1.997367
0.555500	-2.303774
0.555600	-2.129472
0.555700	-2.013596
0.555800	-1.673433
0.555900	-1.788336
0.556000	-1.825014
0.556100	-2.024307
0.556200	-2.043782
0.556300	-1.897071
0.556400	-1.771782
0.556500	-1.656555
0.556600	-1.720498
0.556700	-1.815925
0.556800	-1.885711
0.556900	-1.919792
0.557000	-1.891878
0.557100	-1.869481
0.557200	-1.875324
0.557300	-1.917195
0.557400	-1.885711
0.557500	-2.007105
0.557600	-2.004183
0.557700	-2.084680
0.557800	-2.096689
0.557900	-2.168747
0.558000	-2.074618
0.558100	-2.059687
0.558200	-2.029501
0.558300	-2.310590
0.558400	-2.437502
0.558500	-2.390437
0.558600	-2.230093
0.558700	-2.047028
0.558800	-2.118437
0.558900	-2.334934
0.559000	-2.525464
0.559100	-2.469636
0.559200	-2.275859
0.559300	-2.122656
0.559400	-2.150246
0.559500	-2.275210
0.559600	-2.374208
0.559700	-2.329416
0.559800	-2.316108
0.559900	-2.220031
0.560000	-2.317731
0.560100	-2.354733
0.560200	-2.438800
0.560300	-2.408289
0.560400	-2.356031
0.560500	-2.391736
0.560600	-2.417702
0.560700	-2.437177
0.560800	-2.407316
0.560900	-2.385893
0.561000	-2.355382
0.561100	-2.486514
0.561200	-2.561168
0.561300	-2.537474
0.561400	-2.499497
0.561500	-2.378752
0.561600	-2.430361
0.561700	-2.423220
0.561800	-2.394981
0.561900	-2.379726
0.562000	-2.370638
0.562100	-2.359926
0.562200	-2.347592
0.562300	-2.336232
0.562400	-2.312537
0.562500	-2.319029
0.562600	-2.301826
0.562700	-2.300852
0.562800	-2.248270
0.562900	-2.235611
0.563000	-2.188222
0.563100	-2.201530
0.563200	-2.192766
0.563300	-2.181406
0.563400	-2.262551
0.563500	-2.422571
0.563600	-2.504042
0.563700	-2.228470
0.563800	-1.992823
0.563900	-1.807162
0.564000	-1.915572
0.564100	-2.151219
0.564200	-2.220680
0.564300	-2.151544
0.564400	-1.916871
0.564500	-1.795152
0.564600	-1.794178
0.564700	-1.947381
0.564800	-2.009052
0.564900	-2.002560
0.565000	-1.938293
0.565100	-1.823066
0.565200	-1.810732
0.565300	-1.830532
0.565400	-1.847085
0.565500	-1.846761
0.565600	-1.805863
0.565700	-1.817873
0.565800	-1.827610
0.565900	-1.828259
0.566000	-1.856498
0.566100	-1.830207
0.566200	-1.833777
0.566300	-1.854551
0.566400	-1.869157
0.566500	-1.855524
0.566600	-1.716278
0.566700	-1.649739
0.566800	-1.705243
0.566900	-1.872727
0.567000	-2.044107
0.567100	-2.048976
0.567200	-1.864937
0.567300	-1.752632
0.567400	-1.791582
0.567500	-1.996393
0.567600	-2.215162
0.567700	-2.291439
0.567800	-2.254437
0.567900	-2.157387
0.568000	-2.168098
0.568100	-2.188547
0.568200	-2.285272
0.568300	-2.317731
0.568400	-2.309616
0.568500	-2.319354
0.568600	-2.307019
0.568700	-2.339478
0.568800	-2.247296
0.568900	-2.189520
0.569000	-2.214513
0.569100	-2.244699
0.569200	-2.282026
0.569300	-2.344022
0.569400	-2.322599
0.569500	-2.262551
0.569600	-2.292089
0.569700	-2.161606
0.569800	-2.259955
0.569900	-2.255411
0.570000	-2.247945
0.570100	-2.218733
0.570200	-2.231716
0.570300	-2.169396
0.570400	-2.241778
0.570500	-2.244375
0.570600	-2.355058
0.570700	-2.352136
0.570800	-2.433607
0.570900	-2.445616
0.571000	-2.448538
0.571100	-2.480347
0.571200	-2.463793
0.571300	-2.537474
0.571400	-2.539421
0.571500	-2.658868
0.571600	-2.597846
0.571700	-2.606935
0.571800	-2.288843
0.571900	-2.210618
0.572000	-2.312537
0.572100	-2.690028
0.572200	-2.843556
0.572300	-2.585187
0.572400	-2.464118
0.572500	-2.215162
0.572600	-2.216461
0.572700	-2.390762
0.572800	-2.492681
0.572900	-2.454056
0.573000	-2.325196
0.573100	-2.123630
0.573200	-2.080136
0.573300	-2.023658
0.573400	-2.024307
0.573500	-2.023009
0.573600	-2.034694
0.573700	-1.996393
0.573800	-1.955820
0.573900	-1.907458
0.574000	-1.938293
0.574100	-1.885386
0.574200	-1.970427
0.574300	-1.952250
0.574400	-1.899992
0.574500	-1.888307
0.574600	-1.831505
0.574700	-1.734455
0.574800	-1.732832
0.574900	-1.708813
0.575000	-1.998990
0.575100	-1.945109
0.575200	-1.861042
0.575300	-1.617281
0.575400	-1.548145
0.575500	-1.587419
0.575600	-1.852928
0.575700	-1.899018
0.575800	-1.833128
0.575900	-1.677978
0.576000	-1.615009
0.576100	-1.693882
0.576200	-1.801968
0.576300	-1.832154
0.576400	-1.811057
0.576500	-1.809434
0.576600	-1.798073
0.576700	-1.874999
0.576800	-1.912002
0.576900	-1.954847
0.577000	-1.926283
0.577100	-1.881166
0.577200	-1.963286
0.577300	-1.979515
0.577400	-1.985358
0.577500	-1.991200
0.577600	-1.997367
0.577700	-2.049950
0.577800	-2.202179
0.577900	-2.243726
0.578000	-2.281702
0.578100	-2.220680
0.578200	-2.245024
0.578300	-2.335583
0.578400	-2.360576
0.578500	-2.407640
0.578600	-2.467364
0.578700	-2.510209
0.578800	-2.570257
0.578900	-2.630629
0.579000	-2.726706
0.579100	-2.769876
0.579200	-2.833819
0.579300	-2.881857
0.579400	-2.958134
0.579500	-3.018182
0.579600	-3.093161
0.579700	-3.108092
0.579800	-3.184370
0.579900	-3.231434
0.580000	-3.318098
0.580100	-3.550501
0.580200	-3.780307
0.580300	-3.796537
0.580400	-3.585556
0.580500	-3.429431
0.580600	-3.428782
0.580700	-3.652745
0.580800	-3.873788
0.580900	-3.919555
0.581000	-3.801730
0.581100	-3.656965
0.581200	-3.590425
0.581300	-3.634569
0.581400	-3.725777
0.581500	-3.766999
0.581600	-3.710846
0.581700	-3.632621
0.581800	-3.586205
0.581900	-3.558940
0.582000	-3.558616
0.582100	-3.489155
0.582200	-3.471302
0.582300	-3.388533
0.582400	-3.380094
0.582500	-3.388858
0.582600	-3.393727
0.582700	-3.334003
0.582800	-3.265840
0.582900	-3.204494
0.583000	-3.215205
0.583100	-3.148341
0.583200	-3.028569
0.583300	-2.797790
0.583400	-2.689379
0.583500	-2.719240
0.583600	-2.838687
0.583700	-2.936063
0.583800	-2.734171
0.583900	-2.453082
0.584000	-2.284623
0.584100	-2.335258
0.584200	-2.454380
0.584300	-2.511182
0.584400	-2.445292
0.584500	-2.317731
0.584600	-2.171019
0.584700	-2.145377
0.584800	-2.152193
0.584900	-2.145377
0.585000	-2.101234
0.585100	-2.024632
0.585200	-1.999639
0.585300	-1.979515
0.585400	-1.956794
0.585500	-1.855200
0.585600	-1.736403
0.585700	-1.730885
0.585800	-1.779897
0.585900	-1.825014
0.586000	-1.876947
0.586100	-1.800994
0.586200	-1.775352
0.586300	-1.804565
0.586400	-1.653309
0.586500	-1.753281
0.586600	-1.796450
0.586700	-1.768861
0.586800	-1.727639
0.586900	-1.710760
0.587000	-1.677328
0.587100	-1.745815
0.587200	-1.768212
0.587300	-1.810083
0.587400	-1.821119
0.587500	-1.896422
0.587600	-1.907782
0.587700	-1.907133
0.587800	-1.924661
0.587900	-1.914923
0.588000	-1.982436
0.588100	-2.082732
0.588200	-2.104479
0.588300	-2.119735
0.588400	-1.927582
0.588500	-1.712059
0.588600	-1.605271
0.588700	-1.808784
0.588800	-2.119735
0.588900	-2.153492
0.589000	-1.986980
0.589100	-1.748412
0.589200	-1.623772
0.589300	-1.710436
0.589400	-1.795801
0.589500	-1.952575
0.589600	-1.744842
0.589700	-1.733157
0.589800	-1.551066
0.589900	-1.563075
0.590000	-1.631887
0.590100	-1.662398
0.590200	-1.649414
0.590300	-1.567295
0.590400	-1.534188
0.590500	-1.498159
0.590600	-1.481930
0.590700	-1.473491
0.590800	-1.453042
0.590900	-1.463429
0.591000	-1.461157
0.591100	-1.436164
0.591200	-1.439085
0.591300	-1.402732
0.591400	-1.250503
0.591500	-1.272899
0.591600	-1.254073
0.591700	-1.529968
0.591800	-1.453042
0.591900	-1.295619
0.592000	-1.061271
0.592100	-1.003820
0.592200	-1.146961
0.592300	-1.379037
0.592400	-1.379686
0.592500	-1.229405
0.592600	-1.042770
0.592700	-1.007066
0.592800	-1.076851
0.592900	-1.134951
0.593000	-1.118722
0.593100	-1.060622
0.593200	-0.978503
0.593300	-0.928842
0.593400	-0.941825
0.593500	-0.965195
0.593600	-0.992460
0.593700	-0.920402
0.593800	-0.878207
0.593900	-0.884698
0.594000	-0.876584
0.594100	-0.859706
0.594200	-0.831792
0.594300	-0.808097
0.594400	-0.872040
0.594500	-1.010312
0.594600	-1.036927
0.594700	-1.042445
0.594800	-0.879830
0.594900	-0.941500
0.595000	-1.021023
0.595100	-1.019725
0.595200	-1.057376
0.595300	-1.077176
0.595400	-1.101195
0.595500	-1.145987
0.595600	-1.141768
0.595700	-1.193051
0.595800	-1.229729
0.595900	-1.265433
0.596000	-1.275495
0.596100	-1.332297
0.596200	-1.371572
0.596300	-1.405328
0.596400	-1.435839
0.596500	-1.539705
0.596600	-1.664670
0.596700	-1.724068
0.596800	-2.007429
0.596900	-2.207372
0.597000	-2.185950
0.597100	-2.002885
0.597200	-1.907133
0.597300	-2.093119
0.597400	-2.357979
