LabVIEW Measurement	
Writer_Version	2
Reader_Version	2
Separator	Tab
Decimal_Separator	.
Multi_Headings	Yes
X_Columns	One
Time_Pref	Relative
Operator	as989
Description	Time Domain Data
Date	1903/12/31
Time	19:00:00
***End_of_Header***	
	
Channels	1	
Samples	15000	
Date	1903/12/31	
Time	19:00:00	
X_Dimension	Time	
X0	0.0000000000000000E+0	
Delta_X	0.000100	
***End_of_Header***		
X_Value	Untitled	Comment
0.000000	-0.719486	Tare Values:0.000000, 0.000000, 0.000000, 0.000000\0D\0A
0.000100	-0.725329
0.000200	-0.690923
0.000300	-0.608479
0.000400	-0.604260
0.000500	-0.758436
0.000600	-0.932412
0.000700	-0.910016
0.000800	-0.739286
0.000900	-0.550704
0.001000	-0.548107
0.001100	-0.684431
0.001200	-0.959677
0.001300	-0.947667
0.001400	-0.815887
0.001500	-0.620813
0.001600	-0.607830
0.001700	-0.749348
0.001800	-0.832765
0.001900	-0.835037
0.002000	-0.835362
0.002100	-0.789271
0.002200	-0.854512
0.002300	-0.903524
0.002400	-0.963896
0.002500	-0.953510
0.002600	-0.908393
0.002700	-0.951562
0.002800	-0.995056
0.002900	-1.066464
0.003000	-1.030436
0.003100	-1.016154
0.003200	-0.991811
0.003300	-1.080421
0.003400	-1.211228
0.003500	-1.213500
0.003600	-1.204087
0.003700	-1.074904
0.003800	-1.121968
0.003900	-1.168383
0.004000	-1.139820
0.004100	-1.162541
0.004200	-1.147935
0.004300	-1.143390
0.004400	-1.167409
0.004500	-1.162216
0.004600	-1.186884
0.004700	-1.197596
0.004800	-1.202464
0.004900	-1.209930
0.005000	-1.222588
0.005100	-1.252775
0.005200	-1.265758
0.005300	-1.325156
0.005400	-1.338464
0.005500	-1.417013
0.005600	-1.458884
0.005700	-1.759772
0.005800	-1.971076
0.005900	-1.900317
0.006000	-1.700698
0.006100	-1.528020
0.006200	-1.644870
0.006300	-1.881491
0.006400	-2.143429
0.006500	-2.136289
0.006600	-2.000613
0.006700	-1.899018
0.006800	-1.890904
0.006900	-2.072021
0.007000	-2.200881
0.007100	-2.287220
0.007200	-2.243726
0.007300	-2.233664
0.007400	-2.242752
0.007500	-2.281053
0.007600	-2.321950
0.007700	-2.363497
0.007800	-2.341750
0.007900	-2.367716
0.008000	-2.390113
0.008100	-2.446915
0.008200	-2.464442
0.008300	-2.447889
0.008400	-2.482619
0.008500	-2.502743
0.008600	-2.545588
0.008700	-2.602390
0.008800	-2.534877
0.008900	-2.404070
0.009000	-2.429063
0.009100	-2.651078
0.009200	-2.850372
0.009300	-2.917886
0.009400	-2.779938
0.009500	-2.583564
0.009600	-2.559221
0.009700	-2.751050
0.009800	-2.970468
0.009900	-3.072063
0.010000	-2.989944
0.010100	-2.863356
0.010200	-2.838687
0.010300	-2.849074
0.010400	-2.863356
0.010500	-2.854917
0.010600	-2.821484
0.010700	-2.799737
0.010800	-2.778315
0.010900	-2.723460
0.011000	-2.612128
0.011100	-2.446266
0.011200	-2.353435
0.011300	-2.312213
0.011400	-2.280404
0.011500	-2.234313
0.011600	-2.151544
0.011700	-1.994770
0.011800	-1.925959
0.011900	-1.714655
0.012000	-1.714331
0.012100	-1.663371
0.012200	-1.619228
0.012300	-1.529319
0.012400	-1.476412
0.012500	-1.350798
0.012600	-1.306006
0.012700	-1.276469
0.012800	-1.293672
0.012900	-1.296593
0.013000	-1.262837
0.013100	-1.308278
0.013200	-1.217395
0.013300	-1.270627
0.013400	-1.226159
0.013500	-1.250827
0.013600	-1.192078
0.013700	-1.307954
0.013800	-1.222264
0.013900	-1.205386
0.014000	-0.971686
0.014100	-0.739610
0.014200	-0.764928
0.014300	-1.025243
0.014400	-1.208631
0.014500	-1.083018
0.014600	-0.874961
0.014700	-0.683133
0.014800	-0.594847
0.014900	-0.757787
0.015000	-0.896708
0.015100	-0.914560
0.015200	-0.762980
0.015300	-0.650350
0.015400	-0.496823
0.015500	-0.511429
0.015600	-0.537720
0.015700	-0.623085
0.015800	-0.576021
0.015900	-0.563038
0.016000	-0.532527
0.016100	-0.552651
0.016200	-0.582188
0.016300	-0.638341
0.016400	-0.594847
0.016500	-0.753243
0.016600	-0.715267
0.016700	-0.851267
0.016800	-0.811668
0.016900	-0.780832
0.017000	-0.749348
0.017100	-0.767200
0.017200	-0.997978
0.017300	-1.081071
0.017400	-1.062245
0.017500	-0.854188
0.017600	-0.716890
0.017700	-0.762656
0.017800	-1.008364
0.017900	-1.171629
0.018000	-1.104441
0.018100	-0.946369
0.018200	-0.835362
0.018300	-0.885023
0.018400	-0.981099
0.018500	-1.055753
0.018600	-1.020698
0.018700	-1.040173
0.018800	-0.981099
0.018900	-1.032059
0.019000	-1.064192
0.019100	-1.098923
0.019200	-1.087887
0.019300	-1.020374
0.019400	-1.054455
0.019500	-1.087238
0.019600	-1.082369
0.019700	-1.051209
0.019800	-1.035954
0.019900	-1.050235
0.020000	-1.167085
0.020100	-1.204736
0.020200	-1.195973
0.020300	-1.104441
0.020400	-1.098598
0.020500	-1.157347
0.020600	-1.154426
0.020700	-1.128460
0.020800	-1.130407
0.020900	-1.175524
0.021000	-1.189481
0.021100	-1.171304
0.021200	-1.208631
0.021300	-1.216097
0.021400	-1.241090
0.021500	-1.231677
0.021600	-1.234598
0.021700	-1.260240
0.021800	-1.256994
0.021900	-1.265758
0.022000	-1.274846
0.022100	-1.328402
0.022200	-1.325806
0.022300	-1.451419
0.022400	-1.713357
0.022500	-1.830207
0.022600	-1.644870
0.022700	-1.435190
0.022800	-1.367352
0.022900	-1.557882
0.023000	-1.860393
0.023100	-2.054818
0.023200	-1.973348
0.023300	-1.811706
0.023400	-1.741271
0.023500	-1.812679
0.023600	-1.934723
0.023700	-2.113243
0.023800	-2.116489
0.023900	-2.133692
0.024000	-2.063582
0.024100	-2.119735
0.024200	-2.212890
0.024300	-2.232365
0.024400	-2.228470
0.024500	-2.243401
0.024600	-2.274886
0.024700	-2.331363
0.024800	-2.424519
0.024900	-2.405044
0.025000	-2.405693
0.025100	-2.422571
0.025200	-2.435554
0.025300	-2.485865
0.025400	-2.460547
0.025500	-2.343373
0.025600	-2.227172
0.025700	-2.335258
0.025800	-2.514428
0.025900	-2.714372
0.026000	-2.681913
0.026100	-2.467688
0.026200	-2.328117
0.026300	-2.353435
0.026400	-2.532929
0.026500	-2.709178
0.026600	-2.743584
0.026700	-2.659842
0.026800	-2.526438
0.026900	-2.470609
0.027000	-2.516051
0.027100	-2.546887
0.027200	-2.515727
0.027300	-2.462495
0.027400	-2.423869
0.027500	-2.413807
0.027600	-2.364795
0.027700	-2.306046
0.027800	-2.170045
0.027900	-2.088575
0.028000	-2.085329
0.028100	-2.048002
0.028200	-2.045730
0.028300	-1.946408
0.028400	-1.820794
0.028500	-1.674732
0.028600	-1.566646
0.028700	-1.593586
0.028800	-1.569242
0.028900	-1.507896
0.029000	-1.431295
0.029100	-1.353071
0.029200	-1.259591
0.029300	-1.246283
0.029400	-1.262837
0.029500	-1.241090
0.029600	-1.230703
0.029700	-1.202464
0.029800	-1.223562
0.029900	-1.137548
0.030000	-1.155725
0.030100	-1.063868
0.030200	-1.148908
0.030300	-1.127161
0.030400	-1.154102
0.030500	-1.096001
0.030600	-0.979801
0.030700	-0.783753
0.030800	-0.503315
0.030900	-0.643534
0.031000	-0.940202
0.031100	-1.022646
0.031200	-0.913911
0.031300	-0.728250
0.031400	-0.525711
0.031500	-0.576021
0.031600	-0.677615
0.031700	-0.846398
0.031800	-0.764279
0.031900	-0.640613
0.032000	-0.502666
0.032100	-0.470857
0.032200	-0.479620
0.032300	-0.566933
0.032400	-0.570828
0.032500	-0.577644
0.032600	-0.518895
0.032700	-0.512728
0.032800	-0.529930
0.032900	-0.545510
0.033000	-0.476050
0.033100	-0.549081
0.033200	-0.497472
0.033300	-0.583486
0.033400	-0.596794
0.033500	-0.563038
0.033600	-0.517272
0.033700	-0.511754
0.033800	-0.586408
0.033900	-0.831792
0.034000	-0.865548
0.034100	-0.810045
0.034200	-0.594847
0.034300	-0.523439
0.034400	-0.642236
0.034500	-0.913262
0.034600	-1.011610
0.034700	-0.922675
0.034800	-0.774341
0.034900	-0.696441
0.035000	-0.792842
0.035100	-0.916183
0.035200	-0.989538
0.035300	-0.958703
0.035400	-0.938255
0.035500	-0.900928
0.035600	-0.956431
0.035700	-0.997328
0.035800	-1.034980
0.035900	-0.987266
0.036000	-0.970064
0.036100	-0.985643
0.036200	-1.003496
0.036300	-0.972985
0.036400	-0.963247
0.036500	-0.938579
0.036600	-0.979801
0.036700	-1.098273
0.036800	-1.133653
0.036900	-1.140145
0.037000	-1.087887
0.037100	-1.069710
0.037200	-1.126837
0.037300	-1.134951
0.037400	-1.153777
0.037500	-1.175524
0.037600	-1.179744
0.037700	-1.217720
0.037800	-1.222913
0.037900	-1.259915
0.038000	-1.259266
0.038100	-1.287180
0.038200	-1.277443
0.038300	-1.299514
0.038400	-1.297892
0.038500	-1.326455
0.038600	-1.314445
0.038700	-1.370598
0.038800	-1.381634
0.038900	-1.493615
0.039000	-1.632536
0.039100	-1.927582
0.039200	-1.947057
0.039300	-1.718875
0.039400	-1.575085
0.039500	-1.590340
0.039600	-1.864937
0.039700	-2.106427
0.039800	-2.193091
0.039900	-2.068126
0.040000	-1.877596
0.040100	-1.841567
0.040200	-1.949653
0.040300	-2.114217
0.040400	-2.226523
0.040500	-2.207372
0.040600	-2.163554
0.040700	-2.115515
0.040800	-2.130771
0.040900	-2.187573
0.041000	-2.203802
0.041100	-2.195363
0.041200	-2.152842
0.041300	-2.182379
0.041400	-2.189845
0.041500	-2.216136
0.041600	-2.162904
0.041700	-2.148947
0.041800	-2.154141
0.041900	-2.189520
0.042000	-2.209320
0.042100	-2.141807
0.042200	-2.021386
0.042300	-1.945109
0.042400	-2.078188
0.042500	-2.260279
0.042600	-2.401798
0.042700	-2.284623
0.042800	-2.093119
0.042900	-2.010026
0.043000	-2.081434
0.043100	-2.260929
0.043200	-2.429712
0.043300	-2.441072
0.043400	-2.347592
0.043500	-2.233988
0.043600	-2.229119
0.043700	-2.269043
0.043800	-2.318055
0.043900	-2.329740
0.044000	-2.309291
0.044100	-2.288518
0.044200	-2.262227
0.044300	-2.200232
0.044400	-2.108050
0.044500	-2.028852
0.044600	-2.018465
0.044700	-2.019439
0.044800	-2.012622
0.044900	-2.004183
0.045000	-1.846436
0.045100	-1.788660
0.045200	-1.715629
0.045300	-1.588717
0.045400	-1.568269
0.045500	-1.547495
0.045600	-1.444603
0.045700	-1.371896
0.045800	-1.254722
0.045900	-1.195324
0.046000	-1.196622
0.046100	-1.154426
0.046200	-1.182665
0.046300	-1.117099
0.046400	-1.183639
0.046500	-1.080421
0.046600	-1.081071
0.046700	-1.018426
0.046800	-1.014856
0.046900	-1.040173
0.047000	-1.021348
0.047100	-1.133978
0.047200	-0.984670
0.047300	-0.895734
0.047400	-0.594847
0.047500	-0.571152
0.047600	-0.783104
0.047700	-1.010312
0.047800	-1.121968
0.047900	-0.833415
0.048000	-0.702608
0.048100	-0.522790
0.048200	-0.603611
0.048300	-0.830493
0.048400	-0.862302
0.048500	-0.844126
0.048600	-0.627630
0.048700	-0.601014
0.048800	-0.535448
0.048900	-0.592575
0.049000	-0.602961
0.049100	-0.569205
0.049200	-0.596794
0.049300	-0.561739
0.049400	-0.577319
0.049500	-0.581214
0.049600	-0.606856
0.049700	-0.576021
0.049800	-0.655868
0.049900	-0.746427
0.050000	-0.735391
0.050100	-0.824975
0.050200	-0.693195
0.050300	-0.767849
0.050400	-0.691572
0.050500	-0.962274
0.050600	-1.104765
0.050700	-1.093405
0.050800	-0.959028
0.050900	-0.765577
0.051000	-0.807448
0.051100	-0.966818
0.051200	-1.222264
0.051300	-1.258293
0.051400	-1.163839
0.051500	-0.985319
0.051600	-0.979801
0.051700	-1.108336
0.051800	-1.227782
0.051900	-1.233624
0.052000	-1.226808
0.052100	-1.166436
0.052200	-1.181042
0.052300	-1.181042
0.052400	-1.242713
0.052500	-1.287505
0.052600	-1.267381
0.052700	-1.277118
0.052800	-1.330025
0.052900	-1.334245
0.053000	-1.279066
0.053100	-1.265433
0.053200	-1.263810
0.053300	-1.338140
0.053400	-1.436813
0.053500	-1.425777
0.053600	-1.383257
0.053700	-1.248880
0.053800	-1.301787
0.053900	-1.296269
0.054000	-1.261863
0.054100	-1.259591
0.054200	-1.246932
0.054300	-1.215123
0.054400	-1.221290
0.054500	-1.221615
0.054600	-1.219992
0.054700	-1.198894
0.054800	-1.183314
0.054900	-1.210904
0.055000	-1.172927
0.055100	-1.204087
0.055200	-1.168383
0.055300	-1.257968
0.055400	-1.274522
0.055500	-1.301462
0.055600	-1.389424
0.055700	-1.609491
0.055800	-1.828584
0.055900	-1.747438
0.056000	-1.581252
0.056100	-1.459209
0.056200	-1.546522
0.056300	-1.822417
0.056400	-2.080460
0.056500	-2.069100
0.056600	-1.947057
0.056700	-1.805214
0.056800	-1.832479
0.056900	-1.988279
0.057000	-2.169072
0.057100	-2.250542
0.057200	-2.223601
0.057300	-2.175239
0.057400	-2.211592
0.057500	-2.266446
0.057600	-2.311564
0.057700	-2.345969
0.057800	-2.347592
0.057900	-2.361549
0.058000	-2.410237
0.058100	-2.471259
0.058200	-2.494304
0.058300	-2.444967
0.058400	-2.432958
0.058500	-2.483917
0.058600	-2.525789
0.058700	-2.564089
0.058800	-2.410561
0.058900	-2.275535
0.059000	-2.288843
0.059100	-2.423220
0.059200	-2.614075
0.059300	-2.646534
0.059400	-2.473531
0.059500	-2.258007
0.059600	-2.181081
0.059700	-2.307669
0.059800	-2.486189
0.059900	-2.632577
0.060000	-2.560194
0.060100	-2.413483
0.060200	-2.313836
0.060300	-2.342399
0.060400	-2.410237
0.060500	-2.446590
0.060600	-2.425492
0.060700	-2.394981
0.060800	-2.356681
0.060900	-2.340451
0.061000	-2.278456
0.061100	-2.162904
0.061200	-2.048976
0.061300	-2.042484
0.061400	-2.020737
0.061500	-1.985682
0.061600	-1.933749
0.061700	-1.763343
0.061800	-1.686417
0.061900	-1.509519
0.062000	-1.522503
0.062100	-1.515686
0.062200	-1.449472
0.062300	-1.356316
0.062400	-1.301137
0.062500	-1.168383
0.062600	-1.138197
0.062700	-1.126837
0.062800	-1.107686
0.062900	-1.158321
0.063000	-1.109634
0.063100	-1.152154
0.063200	-1.071009
0.063300	-1.048612
0.063400	-1.019725
0.063500	-1.030111
0.063600	-1.059973
0.063700	-1.045042
0.063800	-1.081720
0.063900	-1.009987
0.064000	-0.799333
0.064100	-0.528308
0.064200	-0.523439
0.064300	-0.764603
0.064400	-1.008040
0.064500	-0.910016
0.064600	-0.702933
0.064700	-0.481243
0.064800	-0.487735
0.064900	-0.603611
0.065000	-0.789921
0.065100	-0.784403
0.065200	-0.667553
0.065300	-0.507859
0.065400	-0.434179
0.065500	-0.480594
0.065600	-0.543887
0.065700	-0.600040
0.065800	-0.551353
0.065900	-0.567257
0.066000	-0.551028
0.066100	-0.577969
0.066200	-0.569854
0.066300	-0.574074
0.066400	-0.552002
0.066500	-0.701310
0.066600	-0.667878
0.066700	-0.788947
0.066800	-0.739610
0.066900	-0.702608
0.067000	-0.687353
0.067100	-0.681835
0.067200	-0.942474
0.067300	-1.037577
0.067400	-1.030436
0.067500	-0.811343
0.067600	-0.686703
0.067700	-0.696766
0.067800	-0.958054
0.067900	-1.134951
0.068000	-1.102168
0.068100	-0.933710
0.068200	-0.761033
0.068300	-0.748374
0.068400	-0.908718
0.068500	-1.005443
0.068600	-1.008689
0.068700	-1.002846
0.068800	-0.933710
0.068900	-0.987591
0.069000	-1.007066
0.069100	-1.053806
0.069200	-1.048288
0.069300	-1.032383
0.069400	-1.080421
0.069500	-1.122293
0.069600	-1.134951
0.069700	-1.077176
0.069800	-1.041147
0.069900	-1.048288
0.070000	-1.140794
0.070100	-1.218369
0.070200	-1.175199
0.070300	-1.172927
0.070400	-1.161242
0.070500	-1.146636
0.070600	-1.129433
0.070700	-1.123591
0.070800	-1.105739
0.070900	-1.130083
0.071000	-1.133004
0.071100	-1.156374
0.071200	-1.154751
0.071300	-1.202140
0.071400	-1.231352
0.071500	-1.259591
0.071600	-1.276145
0.071700	-1.314770
0.071800	-1.324832
0.071900	-1.374493
0.072000	-1.433567
0.072100	-1.478035
0.072200	-1.521204
0.072300	-1.657204
0.072400	-1.940241
0.072500	-2.093119
0.072600	-1.929854
0.072700	-1.751009
0.072800	-1.723419
0.072900	-1.914598
0.073000	-2.198284
0.073100	-2.349540
0.073200	-2.330714
0.073300	-2.185625
0.073400	-2.138561
0.073500	-2.233339
0.073600	-2.457951
0.073700	-2.575125
0.073800	-2.577397
0.073900	-2.548509
0.074000	-2.482294
0.074100	-2.517674
0.074200	-2.566037
0.074300	-2.600767
0.074400	-2.634524
0.074500	-2.618295
0.074600	-2.653675
0.074700	-2.712749
0.074800	-2.719565
0.074900	-2.763384
0.075000	-2.771823
0.075100	-2.795193
0.075200	-2.846802
0.075300	-2.889322
0.075400	-2.865952
0.075500	-2.684185
0.075600	-2.556624
0.075700	-2.661140
0.075800	-2.819861
0.075900	-3.014612
0.076000	-2.958459
0.076100	-2.788701
0.076200	-2.609531
0.076300	-2.601741
0.076400	-2.786754
0.076500	-3.004550
0.076600	-3.073362
0.076700	-2.962354
0.076800	-2.861733
0.076900	-2.806229
0.077000	-2.835117
0.077100	-2.909447
0.077200	-2.912043
0.077300	-2.891919
0.077400	-2.850048
0.077500	-2.795842
0.077600	-2.747804
0.077700	-2.648806
0.077800	-2.547211
0.077900	-2.474504
0.078000	-2.443020
0.078100	-2.396604
0.078200	-2.410886
0.078300	-2.289816
0.078400	-2.148623
0.078500	-2.034694
0.078600	-1.873376
0.078700	-1.889606
0.078800	-1.852603
0.078900	-1.782169
0.079000	-1.717901
0.079100	-1.624422
0.079200	-1.513739
0.079300	-1.485825
0.079400	-1.469271
0.079500	-1.428698
0.079600	-1.430970
0.079700	-1.381634
0.079800	-1.333596
0.079900	-1.299514
0.080000	-1.231677
0.080100	-1.244335
0.080200	-1.160918
0.080300	-1.180068
0.080400	-1.178445
0.080500	-1.120670
0.080600	-1.053806
0.080700	-0.720785
0.080800	-0.711372
0.080900	-0.594847
0.081000	-1.034331
0.081100	-1.001873
0.081200	-0.929491
0.081300	-0.618217
0.081400	-0.551353
0.081500	-0.551353
0.081600	-0.715267
0.081700	-0.835037
0.081800	-0.781806
0.081900	-0.633797
0.082000	-0.536097
0.082100	-0.457549
0.082200	-0.450732
0.082300	-0.455277
0.082400	-0.437425
0.082500	-0.396203
0.082600	-0.377702
0.082700	-0.370885
0.082800	-0.344270
0.082900	-0.366341
0.083000	-0.351086
0.083100	-0.481568
0.083200	-0.507859
0.083300	-0.554923
0.083400	-0.594522
0.083500	-0.525386
0.083600	-0.489358
0.083700	-0.479945
0.083800	-0.566933
0.083900	-0.831792
0.084000	-0.878207
0.084100	-0.807448
0.084200	-0.576995
0.084300	-0.504613
0.084400	-0.602312
0.084500	-0.834064
0.084600	-0.947667
0.084700	-0.885672
0.084800	-0.697415
0.084900	-0.615945
0.085000	-0.681186
0.085100	-0.784078
0.085200	-0.850617
0.085300	-0.854188
0.085400	-0.845099
0.085500	-0.792517
0.085600	-0.885023
0.085700	-0.927219
0.085800	-0.997978
0.085900	-0.992460
0.086000	-1.002197
0.086100	-1.064842
0.086200	-1.102818
0.086300	-1.076202
0.086400	-1.043419
0.086500	-1.012584
0.086600	-1.062569
0.086700	-1.181691
0.086800	-1.192078
0.086900	-1.201815
0.087000	-1.040822
0.087100	-1.066464
0.087200	-1.075228
0.087300	-1.075228
0.087400	-1.088861
0.087500	-1.067763
0.087600	-1.071333
0.087700	-1.059973
0.087800	-1.067763
0.087900	-1.084316
0.088000	-1.089834
0.088100	-1.086264
0.088200	-1.079772
0.088300	-1.087562
0.088400	-1.110608
0.088500	-1.131381
0.088600	-1.190455
0.088700	-1.202464
0.088800	-1.261863
0.088900	-1.317042
0.089000	-1.506273
0.089100	-1.772756
0.089200	-1.770159
0.089300	-1.587095
0.089400	-1.425128
0.089500	-1.481605
0.089600	-1.717252
0.089700	-1.997043
0.089800	-2.090198
0.089900	-1.973673
0.090000	-1.790608
0.090100	-1.762694
0.090200	-1.899668
0.090300	-2.076241
0.090400	-2.199258
0.090500	-2.180757
0.090600	-2.117138
0.090700	-2.086952
0.090800	-2.124604
0.090900	-2.166475
0.091000	-2.185301
0.091100	-2.183678
0.091200	-2.174589
0.091300	-2.169072
0.091400	-2.190819
0.091500	-2.233014
0.091600	-2.196661
0.091700	-2.153492
0.091800	-2.187573
0.091900	-2.230093
0.092000	-2.283649
0.092100	-2.221329
0.092200	-2.079162
0.092300	-2.038265
0.092400	-2.176537
0.092500	-2.408939
0.092600	-2.546562
0.092700	-2.476452
0.092800	-2.287220
0.092900	-2.196986
0.093000	-2.252489
0.093100	-2.479373
0.093200	-2.635822
0.093300	-2.649130
0.093400	-2.541369
0.093500	-2.443344
0.093600	-2.416079
0.093700	-2.447564
0.093800	-2.488462
0.093900	-2.477750
0.094000	-2.454380
0.094100	-2.421597
0.094200	-2.382972
0.094300	-2.321950
0.094400	-2.222303
0.094500	-2.109997
0.094600	-2.063257
0.094700	-2.054169
0.094800	-2.012622
0.094900	-2.007429
0.095000	-1.849357
0.095100	-1.761720
0.095200	-1.628641
0.095300	-1.529643
0.095400	-1.531591
0.095500	-1.513414
0.095600	-1.454665
0.095700	-1.379686
0.095800	-1.247581
0.095900	-1.229080
0.096000	-1.185911
0.096100	-1.203438
0.096200	-1.165787
0.096300	-1.170655
0.096400	-1.161892
0.096500	-1.180717
0.096600	-1.101519
0.096700	-1.116775
0.096800	-1.069061
0.096900	-1.101195
0.097000	-1.125538
0.097100	-1.092756
0.097200	-1.033682
0.097300	-0.860679
0.097400	-0.598093
0.097500	-0.535448
0.097600	-0.625682
0.097700	-1.020049
0.097800	-0.836011
0.097900	-0.746751
0.098000	-0.417950
0.098100	-0.396527
0.098200	-0.450408
0.098300	-0.601663
0.098400	-0.702608
0.098500	-0.602637
0.098600	-0.454303
0.098700	-0.315382
0.098800	-0.354656
0.098900	-0.365043
0.099000	-0.440995
0.099100	-0.449434
0.099200	-0.436451
0.099300	-0.398799
0.099400	-0.413081
0.099500	-0.408537
0.099600	-0.379000
0.099700	-0.341998
0.099800	-0.508183
0.099900	-0.495849
0.100000	-0.574723
0.100100	-0.584460
0.100200	-0.554274
0.100300	-0.502666
0.100400	-0.509806
0.100500	-0.675343
0.100600	-0.839257
0.100700	-0.804202
0.100800	-0.693520
0.100900	-0.486761
0.101000	-0.535124
0.101100	-0.681186
0.101200	-0.924622
0.101300	-0.955133
0.101400	-0.866846
0.101500	-0.698064
0.101600	-0.683782
0.101700	-0.815238
0.101800	-0.928192
0.101900	-0.942799
0.102000	-0.946044
0.102100	-0.931763
0.102200	-0.967791
0.102300	-1.023620
0.102400	-1.095677
0.102500	-1.170980
0.102600	-1.146961
0.102700	-1.183639
0.102800	-1.232001
0.102900	-1.255696
0.103000	-1.232326
0.103100	-1.238168
0.103200	-1.236546
0.103300	-1.318665
0.103400	-1.439409
0.103500	-1.476087
0.103600	-1.442980
0.103700	-1.340412
0.103800	-1.406951
0.103900	-1.456288
0.104000	-1.465701
0.104100	-1.486149
0.104200	-1.489395
0.104300	-1.482579
0.104400	-1.506598
0.104500	-1.507572
0.104600	-1.515686
0.104700	-1.526722
0.104800	-1.518283
0.104900	-1.574436
0.105000	-1.582550
0.105100	-1.612087
0.105200	-1.629290
0.105300	-1.681873
0.105400	-1.731534
0.105500	-1.750360
0.105600	-1.852279
0.105700	-2.050923
0.105800	-2.293062
0.105900	-2.201205
0.106000	-1.982761
0.106100	-1.834426
0.106200	-1.925959
0.106300	-2.196986
0.106400	-2.392709
0.106500	-2.427115
0.106600	-2.302800
0.106700	-2.177835
0.106800	-2.208995
0.106900	-2.340451
0.107000	-2.518648
0.107100	-2.560519
0.107200	-2.516376
0.107300	-2.452757
0.107400	-2.495602
0.107500	-2.537798
0.107600	-2.543965
0.107700	-2.567011
0.107800	-2.550132
0.107900	-2.531307
0.108000	-2.548185
0.108100	-2.640042
0.108200	-2.656596
0.108300	-2.638744
0.108400	-2.648157
0.108500	-2.678343
0.108600	-2.746830
0.108700	-2.740988
0.108800	-2.673150
0.108900	-2.528385
0.109000	-2.590056
0.109100	-2.732873
0.109200	-2.899709
0.109300	-2.935413
0.109400	-2.754296
0.109500	-2.593302
0.109600	-2.546237
0.109700	-2.676071
0.109800	-2.818563
0.109900	-2.892893
0.110000	-2.805255
0.110100	-2.687756
0.110200	-2.636796
0.110300	-2.628357
0.110400	-2.655297
0.110500	-2.638419
0.110600	-2.622190
0.110700	-2.582915
0.110800	-2.529359
0.110900	-2.463469
0.111000	-2.381024
0.111100	-2.258007
0.111200	-2.154465
0.111300	-2.110322
0.111400	-2.109024
0.111500	-2.088250
0.111600	-2.032422
0.111700	-1.874999
0.111800	-1.805539
0.111900	-1.602999
0.112000	-1.615009
0.112100	-1.578655
0.112200	-1.500756
0.112300	-1.423830
0.112400	-1.346254
0.112500	-1.207658
0.112600	-1.188183
0.112700	-1.160269
0.112800	-1.133978
0.112900	-1.120020
0.113000	-1.081395
0.113100	-1.113529
0.113200	-1.064842
0.113300	-1.018426
0.113400	-1.008689
0.113500	-0.992784
0.113600	-1.027839
0.113700	-1.058025
0.113800	-1.044068
0.113900	-0.994083
0.114000	-0.729224
0.114100	-0.548432
0.114200	-0.450083
0.114300	-0.869768
0.114400	-0.960975
0.114500	-0.976555
0.114600	-0.682159
0.114700	-0.538370
0.114800	-0.378351
0.114900	-0.536097
0.115000	-0.655544
0.115100	-0.614646
0.115200	-0.506236
0.115300	-0.285845
0.115400	-0.259554
0.115500	-0.220929
0.115600	-0.319277
0.115700	-0.268318
0.115800	-0.262800
0.115900	-0.174513
0.116000	-0.157311
0.116100	-0.170618
0.116200	-0.166074
0.116300	-0.135239
0.116400	-0.136537
0.116500	-0.208919
0.116600	-0.255983
0.116700	-0.292337
0.116800	-0.368938
0.116900	-0.299477
0.117000	-0.271563
0.117100	-0.311162
0.117200	-0.530255
0.117300	-0.675992
0.117400	-0.642560
0.117500	-0.510456
0.117600	-0.372508
0.117700	-0.508183
0.117800	-0.746751
0.117900	-0.936632
0.118000	-0.894436
0.118100	-0.779858
0.118200	-0.672422
0.118300	-0.748374
0.118400	-0.896059
0.118500	-1.018426
0.118600	-0.973634
0.118700	-0.981749
0.118800	-0.943448
0.118900	-1.050560
0.119000	-1.116126
0.119100	-1.187209
0.119200	-1.204736
0.119300	-1.183314
0.119400	-1.233624
0.119500	-1.291725
0.119600	-1.304059
0.119700	-1.284584
0.119800	-1.277767
0.119900	-1.293347
0.120000	-1.417662
0.120100	-1.461157
0.120200	-1.471219
0.120300	-1.418312
0.120400	-1.401109
0.120500	-1.443954
0.120600	-1.469920
0.120700	-1.467973
0.120800	-1.492966
0.120900	-1.490044
0.121000	-1.508546
0.121100	-1.499133
0.121200	-1.504326
0.121300	-1.477710
0.121400	-1.469271
0.121500	-1.479009
0.121600	-1.468297
0.121700	-1.468622
0.121800	-1.462130
0.121900	-1.478359
0.122000	-1.510168
0.122100	-1.572164
0.122200	-1.603973
0.122300	-1.777625
0.122400	-2.038914
0.122500	-2.156737
0.122600	-1.999315
0.122700	-1.771457
0.122800	-1.753930
0.122900	-1.963286
0.123000	-2.267745
0.123100	-2.408289
0.123200	-2.363821
0.123300	-2.179783
0.123400	-2.077539
0.123500	-2.161931
0.123600	-2.317406
0.123700	-2.463144
0.123800	-2.457301
0.123900	-2.336556
0.124000	-2.219382
0.124100	-2.258332
0.124200	-2.304423
0.124300	-2.308642
0.124400	-2.277482
0.124500	-2.217110
0.124600	-2.230742
0.124700	-2.235936
0.124800	-2.300528
0.124900	-2.324547
0.125000	-2.290141
0.125100	-2.275210
0.125200	-2.304747
0.125300	-2.321950
0.125400	-2.335583
0.125500	-2.190169
0.125600	-2.118761
0.125700	-2.208346
0.125800	-2.400499
0.125900	-2.512156
0.126000	-2.529684
0.126100	-2.348566
0.126200	-2.183678
0.126300	-2.199907
0.126400	-2.409912
0.126500	-2.562467
0.126600	-2.606935
0.126700	-2.499173
0.126800	-2.394008
0.126900	-2.377454
0.127000	-2.449187
0.127100	-2.515077
0.127200	-2.525139
0.127300	-2.529359
0.127400	-2.503392
0.127500	-2.464442
0.127600	-2.430036
0.127700	-2.368366
0.127800	-2.274236
0.127900	-2.234962
0.128000	-2.208022
0.128100	-2.201530
0.128200	-2.210618
0.128300	-2.120059
0.128400	-2.002236
0.128500	-1.947706
0.128600	-1.806512
0.128700	-1.824040
0.128800	-1.812679
0.128900	-1.773405
0.129000	-1.656555
0.129100	-1.594235
0.129200	-1.488097
0.129300	-1.456937
0.129400	-1.428049
0.129500	-1.420584
0.129600	-1.401433
0.129700	-1.406951
0.129800	-1.371247
0.129900	-1.301787
0.130000	-1.320612
0.130100	-1.230378
0.130200	-1.326779
0.130300	-1.280364
0.130400	-1.349825
0.130500	-1.286207
0.130600	-1.172927
0.130700	-0.903200
0.130800	-0.730522
0.130900	-0.794465
0.131000	-1.082694
0.131100	-1.192727
0.131200	-1.041472
0.131300	-0.731171
0.131400	-0.613997
0.131500	-0.575696
0.131600	-0.717539
0.131700	-0.816861
0.131800	-0.783753
0.131900	-0.657491
0.132000	-0.474102
0.132100	-0.413081
0.132200	-0.405291
0.132300	-0.483840
0.132400	-0.426389
0.132500	-0.457549
0.132600	-0.405940
0.132700	-0.388737
0.132800	-0.410809
0.132900	-0.419573
0.133000	-0.419248
0.133100	-0.548432
0.133200	-0.578942
0.133300	-0.628279
0.133400	-0.621787
0.133500	-0.647429
0.133600	-0.611400
0.133700	-0.618541
0.133800	-0.643209
0.133900	-0.912937
0.134000	-0.924947
0.134100	-0.865873
0.134200	-0.655868
0.134300	-0.660412
0.134400	-0.738637
0.134500	-1.021023
0.134600	-1.095352
0.134700	-1.072631
0.134800	-0.859706
0.134900	-0.814589
0.135000	-0.918130
0.135100	-1.020374
0.135200	-1.083018
0.135300	-1.073281
0.135400	-1.081071
0.135500	-1.058999
0.135600	-1.135276
0.135700	-1.190779
0.135800	-1.234598
0.135900	-1.223238
0.136000	-1.259266
0.136100	-1.322884
0.136200	-1.317042
0.136300	-1.296269
0.136400	-1.276145
0.136500	-1.241739
0.136600	-1.293672
0.136700	-1.392994
0.136800	-1.417987
0.136900	-1.406951
0.137000	-1.286207
0.137100	-1.308603
0.137200	-1.335219
0.137300	-1.334894
0.137400	-1.308278
0.137500	-1.291075
0.137600	-1.292049
0.137700	-1.284908
0.137800	-1.284908
0.137900	-1.285233
0.138000	-1.260240
0.138100	-1.258293
0.138200	-1.264135
0.138300	-1.227782
0.138400	-1.212851
0.138500	-1.193376
0.138600	-1.243686
0.138700	-1.259591
0.138800	-1.277118
0.138900	-1.340087
0.139000	-1.524125
0.139100	-1.825338
0.139200	-1.780221
0.139300	-1.663371
0.139400	-1.526398
0.139500	-1.599104
0.139600	-1.860069
0.139700	-2.100909
0.139800	-2.182704
0.139900	-2.071372
0.140000	-1.973348
0.140100	-1.953873
0.140200	-2.109997
0.140300	-2.315134
0.140400	-2.397578
0.140500	-2.409912
0.140600	-2.396929
0.140700	-2.393034
0.140800	-2.404719
0.140900	-2.464767
0.141000	-2.472881
0.141100	-2.522867
0.141200	-2.544614
0.141300	-2.542342
0.141400	-2.594276
0.141500	-2.664386
0.141600	-2.644262
0.141700	-2.641340
0.141800	-2.645560
0.141900	-2.657245
0.142000	-2.693923
0.142100	-2.634524
0.142200	-2.460223
0.142300	-2.404719
0.142400	-2.534552
0.142500	-2.720214
0.142600	-2.763059
0.142700	-2.681589
0.142800	-2.446266
0.142900	-2.340776
0.143000	-2.402771
0.143100	-2.597522
0.143200	-2.720863
0.143300	-2.701388
0.143400	-2.567011
0.143500	-2.478075
0.143600	-2.476127
0.143700	-2.517025
0.143800	-2.525139
0.143900	-2.498524
0.144000	-2.438800
0.144100	-2.418351
0.144200	-2.383296
0.144300	-2.319678
0.144400	-2.195038
0.144500	-2.068451
0.144600	-2.031773
0.144700	-2.018140
0.144800	-2.005482
0.144900	-1.987305
0.145000	-1.814952
0.145100	-1.733806
0.145200	-1.531915
0.145300	-1.502703
0.145400	-1.492316
0.145500	-1.470894
0.145600	-1.402732
0.145700	-1.337166
0.145800	-1.212851
0.145900	-1.172603
0.146000	-1.142417
0.146100	-1.155075
0.146200	-1.169357
0.146300	-1.132679
0.146400	-1.181691
0.146500	-1.134951
0.146600	-1.103791
0.146700	-1.099572
0.146800	-1.112231
0.146900	-1.103142
0.147000	-1.151505
0.147100	-1.191104
0.147200	-1.076851
0.147300	-0.946694
0.147400	-0.649701
0.147500	-0.625357
0.147600	-0.853863
0.147700	-1.078474
0.147800	-1.141118
0.147900	-0.878856
0.148000	-0.710723
0.148100	-0.585109
0.148200	-0.651649
0.148300	-0.823352
0.148400	-0.911963
0.148500	-0.804851
0.148600	-0.684431
0.148700	-0.601663
0.148800	-0.496174
0.148900	-0.537396
0.149000	-0.502341
0.149100	-0.547133
0.149200	-0.512403
0.149300	-0.504613
0.149400	-0.469234
0.149500	-0.451057
0.149600	-0.444890
0.149700	-0.458198
0.149800	-0.475076
0.149900	-0.520518
0.150000	-0.509157
0.150100	-0.550054
0.150200	-0.479620
0.150300	-0.426064
0.150400	-0.396203
0.150500	-0.535448
0.150600	-0.780508
0.150700	-0.732794
0.150800	-0.572775
0.150900	-0.376728
0.151000	-0.434179
0.151100	-0.610751
0.151200	-0.865873
0.151300	-0.879830
0.151400	-0.773367
0.151500	-0.611725
0.151600	-0.628928
0.151700	-0.748699
0.151800	-0.868469
0.151900	-0.885023
0.152000	-0.870741
0.152100	-0.860355
0.152200	-0.890541
0.152300	-0.963896
0.152400	-1.012259
0.152500	-0.994732
0.152600	-0.992784
0.152700	-1.040822
0.152800	-1.135276
0.152900	-1.176498
0.153000	-1.147285
0.153100	-1.145338
0.153200	-1.127810
0.153300	-1.238168
0.153400	-1.338140
0.153500	-1.383581
0.153600	-1.405653
0.153700	-1.404355
0.153800	-1.329376
0.153900	-1.385204
0.154000	-1.374493
0.154100	-1.401433
0.154200	-1.394293
0.154300	-1.436164
0.154400	-1.441357
0.154500	-1.445252
0.154600	-1.481605
0.154700	-1.474140
0.154800	-1.501080
0.154900	-1.512765
0.155000	-1.514713
0.155100	-1.517309
0.155200	-1.507896
0.155300	-1.516985
0.155400	-1.534837
0.155500	-1.591639
0.155600	-1.672460
0.155700	-1.946083
0.155800	-2.127849
0.155900	-1.987630
0.156000	-1.800994
0.156100	-1.659801
0.156200	-1.756527
0.156300	-1.934723
0.156400	-2.158036
0.156500	-2.150246
0.156600	-2.042484
0.156700	-1.896097
0.156800	-1.905835
0.156900	-2.042484
0.157000	-2.191468
0.157100	-2.265473
0.157200	-2.220356
0.157300	-2.196012
0.157400	-2.133043
0.157500	-2.163878
0.157600	-2.216785
0.157700	-2.258656
0.157800	-2.283974
0.157900	-2.284299
0.158000	-2.306695
0.158100	-2.401149
0.158200	-2.449511
0.158300	-2.409912
0.158400	-2.393034
0.158500	-2.443020
0.158600	-2.507612
0.158700	-2.555975
0.158800	-2.455029
0.158900	-2.302800
0.159000	-2.344671
0.159100	-2.555975
0.159200	-2.748453
0.159300	-2.812071
0.159400	-2.657894
0.159500	-2.450485
0.159600	-2.425492
0.159700	-2.560844
0.159800	-2.769226
0.159900	-2.844205
0.160000	-2.783508
0.160100	-2.668605
0.160200	-2.586810
0.160300	-2.592328
0.160400	-2.627059
0.160500	-2.616997
0.160600	-2.560194
0.160700	-2.498199
0.160800	-2.464118
0.160900	-2.423545
0.161000	-2.362523
0.161100	-2.242103
0.161200	-2.131095
0.161300	-2.060336
0.161400	-2.061635
0.161500	-2.047677
0.161600	-2.008403
0.161700	-1.837023
0.161800	-1.771457
0.161900	-1.550417
0.162000	-1.557882
0.162100	-1.539056
0.162200	-1.516011
0.162300	-1.433567
0.162400	-1.403705
0.162500	-1.285557
0.162600	-1.275820
0.162700	-1.253748
0.162800	-1.254073
0.162900	-1.236221
0.163000	-1.258293
0.163100	-1.262188
0.163200	-1.242388
0.163300	-1.195648
0.163400	-1.200192
0.163500	-1.159295
0.163600	-1.202464
0.163700	-1.237519
0.163800	-1.127810
0.163900	-1.166111
0.164000	-0.819133
0.164100	-0.744804
0.164200	-0.605883
0.164300	-0.995706
0.164400	-1.094703
0.164500	-0.998627
0.164600	-0.795114
0.164700	-0.598742
0.164800	-0.583162
0.164900	-0.622436
0.165000	-0.858732
0.165100	-0.838932
0.165200	-0.793166
0.165300	-0.658465
0.165400	-0.525711
0.165500	-0.541615
0.165600	-0.560766
0.165700	-0.623735
0.165800	-0.661061
0.165900	-0.642885
0.166000	-0.606856
0.166100	-0.621138
0.166200	-0.612374
0.166300	-0.599716
0.166400	-0.722732
0.166500	-0.687028
0.166600	-0.777911
0.166700	-0.752918
0.166800	-0.892813
0.166900	-0.732794
0.167000	-0.723706
0.167100	-0.694169
0.167200	-0.875286
0.167300	-1.073281
0.167400	-0.974608
0.167500	-0.751295
0.167600	-0.689949
0.167700	-0.747076
0.167800	-0.986293
0.167900	-1.150207
0.168000	-1.081395
0.168100	-0.930789
0.168200	-0.816212
0.168300	-0.875610
0.168400	-0.977854
0.168500	-1.040173
0.168600	-1.002522
0.168700	-0.995706
0.168800	-0.935333
0.168900	-1.050884
0.169000	-1.102168
0.169100	-1.155725
0.169200	-1.127486
0.169300	-1.117099
0.169400	-1.144689
0.169500	-1.187858
0.169600	-1.206359
0.169700	-1.160269
0.169800	-1.157672
0.169900	-1.138522
0.170000	-1.267381
0.170100	-1.338140
0.170200	-1.353395
0.170300	-1.235896
0.170400	-1.206035
0.170500	-1.243686
0.170600	-1.264135
0.170700	-1.236221
0.170800	-1.240441
0.170900	-1.218044
0.171000	-1.233624
0.171100	-1.233624
0.171200	-1.217071
0.171300	-1.198569
0.171400	-1.181367
0.171500	-1.192402
0.171600	-1.199219
0.171700	-1.213500
0.171800	-1.202464
0.171900	-1.229080
0.172000	-1.209605
0.172100	-1.242063
0.172200	-1.265758
0.172300	-1.426426
0.172400	-1.698751
0.172500	-1.785090
0.172600	-1.660450
0.172700	-1.446875
0.172800	-1.419610
0.172900	-1.602674
0.173000	-1.896097
0.173100	-2.090198
0.173200	-2.064556
0.173300	-1.968155
0.173400	-1.866560
0.173500	-1.950952
0.173600	-2.141807
0.173700	-2.283325
0.173800	-2.329091
0.173900	-2.313511
0.174000	-2.336232
0.174100	-2.353759
0.174200	-2.375506
0.174300	-2.464442
0.174400	-2.456003
0.174500	-2.469311
0.174600	-2.482619
0.174700	-2.513779
0.174800	-2.592004
0.174900	-2.632252
0.175000	-2.624137
0.175100	-2.633550
0.175200	-2.670553
0.175300	-2.740338
0.175400	-2.719565
0.175500	-2.587784
0.175600	-2.470934
0.175700	-2.564089
0.175800	-2.769876
0.175900	-2.893217
0.176000	-2.890945
0.176100	-2.689703
0.176200	-2.502094
0.176300	-2.491383
0.176400	-2.673799
0.176500	-2.855566
0.176600	-2.887700
0.176700	-2.743909
0.176800	-2.649455
0.176900	-2.641665
0.177000	-2.718591
0.177100	-2.783184
0.177200	-2.722811
0.177300	-2.685159
0.177400	-2.655297
0.177500	-2.618620
0.177600	-2.595250
0.177700	-2.507612
0.177800	-2.371936
0.177900	-2.283974
0.178000	-2.244375
0.178100	-2.230418
0.178200	-2.215162
0.178300	-2.105129
0.178400	-1.941539
0.178500	-1.888956
0.178600	-1.687391
0.178700	-1.696479
0.178800	-1.640326
0.178900	-1.580603
0.179000	-1.484202
0.179100	-1.405977
0.179200	-1.276794
0.179300	-1.273223
0.179400	-1.248555
0.179500	-1.232326
0.179600	-1.202140
0.179700	-1.191429
0.179800	-1.170331
0.179900	-1.121968
0.180000	-1.082369
0.180100	-1.052183
0.180200	-1.089185
0.180300	-1.098273
0.180400	-1.140794
0.180500	-1.121968
0.180600	-1.037901
0.180700	-0.760708
0.180800	-0.645806
0.180900	-0.696116
0.181000	-1.012584
0.181100	-1.143066
0.181200	-1.015505
0.181300	-0.745128
0.181400	-0.596470
0.181500	-0.621463
0.181600	-0.697415
0.181700	-0.862302
0.181800	-0.839582
0.181900	-0.742532
0.182000	-0.564336
0.182100	-0.527983
0.182200	-0.549405
0.182300	-0.556222
0.182400	-0.614971
0.182500	-0.636069
0.182600	-0.597443
0.182700	-0.558169
0.182800	-0.583162
0.182900	-0.588680
0.183000	-0.592899
0.183100	-0.692221
0.183200	-0.637692
0.183300	-0.770770
0.183400	-0.766551
0.183500	-0.896708
0.183600	-0.787648
0.183700	-0.863601
0.183800	-0.789271
0.183900	-1.149882
0.184000	-1.169682
0.184100	-1.083992
0.184200	-0.847047
0.184300	-0.804202
0.184400	-0.896383
0.184500	-1.157347
0.184600	-1.268679
0.184700	-1.188183
0.184800	-0.976880
0.184900	-0.925920
0.185000	-0.959352
0.185100	-1.099247
0.185200	-1.145013
0.185300	-1.110283
0.185400	-1.063543
0.185500	-1.002197
0.185600	-1.082369
0.185700	-1.109958
0.185800	-1.151180
0.185900	-1.095028
0.186000	-1.074904
0.186100	-1.119371
0.186200	-1.149882
0.186300	-1.112555
0.186400	-1.093729
0.186500	-1.067438
0.186600	-1.103791
0.186700	-1.221615
0.186800	-1.276794
0.186900	-1.267381
0.187000	-1.114503
0.187100	-1.152154
0.187200	-1.218369
0.187300	-1.236870
0.187400	-1.245634
0.187500	-1.256994
0.187600	-1.276469
0.187700	-1.298216
0.187800	-1.317042
0.187900	-1.330025
0.188000	-1.316717
0.188100	-1.341710
0.188200	-1.331973
0.188300	-1.376440
0.188400	-1.373195
0.188500	-1.360861
0.188600	-1.409872
0.188700	-1.412794
0.188800	-1.484526
0.188900	-1.470569
0.189000	-1.721796
0.189100	-1.932451
0.189200	-2.004508
0.189300	-1.806188
0.189400	-1.639352
0.189500	-1.659476
0.189600	-1.850656
0.189700	-2.153167
0.189800	-2.228146
0.189900	-2.193415
0.190000	-2.037615
0.190100	-2.017816
0.190200	-2.114217
0.190300	-2.261253
0.190400	-2.361225
0.190500	-2.350514
0.190600	-2.319678
0.190700	-2.269043
0.190800	-2.284948
0.190900	-2.330714
0.191000	-2.361225
0.191100	-2.379401
0.191200	-2.363497
0.191300	-2.365120
0.191400	-2.375831
0.191500	-2.446266
0.191600	-2.440099
0.191700	-2.427764
0.191800	-2.417378
0.191900	-2.457626
0.192000	-2.459574
0.192100	-2.442046
0.192200	-2.257034
0.192300	-2.211592
0.192400	-2.331363
0.192500	-2.530008
0.192600	-2.611803
0.192700	-2.557598
0.192800	-2.310265
0.192900	-2.192117
0.193000	-2.262876
0.193100	-2.467364
0.193200	-2.607259
0.193300	-2.604013
0.193400	-2.457626
0.193500	-2.360900
0.193600	-2.343373
0.193700	-2.392385
0.193800	-2.427115
0.193900	-2.398227
0.194000	-2.331039
0.194100	-2.290141
0.194200	-2.240155
0.194300	-2.192442
0.194400	-2.059038
0.194500	-1.944135
0.194600	-1.882789
0.194700	-1.886684
0.194800	-1.890904
0.194900	-1.862990
0.195000	-1.717901
0.195100	-1.612737
0.195200	-1.480631
0.195300	-1.410846
0.195400	-1.395915
0.195500	-1.369624
0.195600	-1.270302
0.195700	-1.203763
0.195800	-1.096001
0.195900	-1.055753
0.196000	-1.058999
0.196100	-1.019075
0.196200	-1.069386
0.196300	-1.032708
0.196400	-1.093405
0.196500	-1.052507
0.196600	-1.021348
0.196700	-1.036927
0.196800	-1.008689
0.196900	-1.081395
0.197000	-1.091782
0.197100	-1.137223
0.197200	-1.103467
0.197300	-0.902550
0.197400	-0.741882
0.197500	-0.538045
0.197600	-0.868469
0.197700	-1.034331
0.197800	-1.160918
0.197900	-0.913586
0.198000	-0.715916
0.198100	-0.591926
0.198200	-0.626656
0.198300	-0.830818
0.198400	-0.875610
0.198500	-0.862951
0.198600	-0.739935
0.198700	-0.604260
0.198800	-0.580890
0.198900	-0.569854
0.199000	-0.650026
0.199100	-0.600040
0.199200	-0.635744
0.199300	-0.582837
0.199400	-0.571477
0.199500	-0.520193
0.199600	-0.531229
0.199700	-0.550054
0.199800	-0.592250
0.199900	-0.641587
0.200000	-0.655544
0.200100	-0.652622
0.200200	-0.625357
0.200300	-0.609778
0.200400	-0.613997
0.200500	-0.715591
0.200600	-0.948966
0.200700	-0.899305
0.200800	-0.721758
0.200900	-0.508833
0.201000	-0.530904
0.201100	-0.672097
0.201200	-0.912937
0.201300	-0.926570
0.201400	-0.810369
0.201500	-0.619840
0.201600	-0.590952
0.201700	-0.676966
0.201800	-0.799983
0.201900	-0.791543
0.202000	-0.780508
0.202100	-0.712995
0.202200	-0.736040
0.202300	-0.768823
0.202400	-0.848021
0.202500	-0.891515
0.202600	-0.881777
0.202700	-0.889892
0.202800	-0.934035
0.202900	-0.963896
0.203000	-0.937930
0.203100	-0.930140
0.203200	-0.941500
0.203300	-0.977854
0.203400	-1.062569
0.203500	-1.040822
0.203600	-1.064842
0.203700	-1.098923
0.203800	-1.049586
0.203900	-1.094379
0.204000	-1.073930
0.204100	-1.107686
0.204200	-1.107362
0.204300	-1.142741
0.204400	-1.152803
0.204500	-1.172278
0.204600	-1.177147
0.204700	-1.179094
0.204800	-1.228106
0.204900	-1.203763
0.205000	-1.250178
0.205100	-1.243362
0.205200	-1.296593
0.205300	-1.311524
0.205400	-1.373519
0.205500	-1.388775
0.205600	-1.476412
0.205700	-1.731209
0.205800	-1.885061
0.205900	-1.841892
0.206000	-1.620202
0.206100	-1.528345
0.206200	-1.602350
0.206300	-1.870131
0.206400	-2.066828
0.206500	-2.102207
0.206600	-2.001262
0.206700	-1.877596
0.206800	-1.916871
0.206900	-2.064880
0.207000	-2.223277
0.207100	-2.290790
0.207200	-2.287220
0.207300	-2.206723
0.207400	-2.226847
0.207500	-2.286895
0.207600	-2.315459
0.207700	-2.303774
0.207800	-2.307019
0.207900	-2.303774
0.208000	-2.317406
0.208100	-2.406991
0.208200	-2.420299
0.208300	-2.362199
0.208400	-2.308642
0.208500	-2.315783
0.208600	-2.350189
0.208700	-2.334284
0.208800	-2.193415
0.208900	-1.987305
0.209000	-2.022035
0.209100	-2.173291
0.209200	-2.364146
0.209300	-2.402447
0.209400	-2.264499
0.209500	-2.051897
0.209600	-1.988928
0.209700	-2.143429
0.209800	-2.366094
0.209900	-2.510858
0.210000	-2.438800
0.210100	-2.339153
0.210200	-2.266771
0.210300	-2.301177
0.210400	-2.375182
0.210500	-2.422896
0.210600	-2.417053
0.210700	-2.419650
0.210800	-2.389464
0.210900	-2.344671
0.211000	-2.302151
0.211100	-2.199582
0.211200	-2.136613
0.211300	-2.100260
0.211400	-2.109673
0.211500	-2.103181
0.211600	-2.076565
0.211700	-1.913625
0.211800	-1.862990
0.211900	-1.662073
0.212000	-1.692584
0.212100	-1.676679
0.212200	-1.652660
0.212300	-1.563400
0.212400	-1.514388
0.212500	-1.379686
0.212600	-1.343658
0.212700	-1.333271
0.212800	-1.335868
0.212900	-1.332946
0.213000	-1.336841
0.213100	-1.312822
0.213200	-1.353071
0.213300	-1.279390
0.213400	-1.352421
0.213500	-1.278741
0.213600	-1.382608
0.213700	-1.365405
0.213800	-1.403381
0.213900	-1.372546
0.214000	-1.136899
0.214100	-0.872364
0.214200	-0.854512
0.214300	-1.080421
0.214400	-1.388450
0.214500	-1.212202
0.214600	-1.109634
0.214700	-0.795763
0.214800	-0.693195
0.214900	-0.809720
0.215000	-0.859056
0.215100	-0.984994
0.215200	-0.797710
0.215300	-0.716890
0.215400	-0.511429
0.215500	-0.557195
0.215600	-0.550054
0.215700	-0.601663
0.215800	-0.566933
0.215900	-0.545186
0.216000	-0.528957
0.216100	-0.507210
0.216200	-0.540966
0.216300	-0.543887
0.216400	-0.564336
0.216500	-0.589004
0.216600	-0.619840
0.216700	-0.651973
0.216800	-0.636393
0.216900	-0.581864
0.217000	-0.546160
0.217100	-0.621463
0.217200	-0.852240
0.217300	-1.017128
0.217400	-0.946369
0.217500	-0.755190
0.217600	-0.633147
0.217700	-0.720785
0.217800	-0.947018
0.217900	-1.171304
0.218000	-1.169032
0.218100	-1.029137
0.218200	-0.867171
0.218300	-0.882426
0.218400	-1.021997
0.218500	-1.138197
0.218600	-1.135276
0.218700	-1.164488
0.218800	-1.100546
0.218900	-1.146961
0.219000	-1.202789
0.219100	-1.258617
0.219200	-1.286207
0.219300	-1.296918
0.219400	-1.335219
0.219500	-1.341061
0.219600	-1.318665
0.219700	-1.306655
0.219800	-1.294970
0.219900	-1.291725
0.220000	-1.392994
0.220100	-1.442980
0.220200	-1.451744
0.220300	-1.381958
0.220400	-1.329376
0.220500	-1.367352
0.220600	-1.383257
0.220700	-1.379686
0.220800	-1.388775
0.220900	-1.407925
0.221000	-1.396565
0.221100	-1.406951
0.221200	-1.396240
0.221300	-1.398512
0.221400	-1.412794
0.221500	-1.417662
0.221600	-1.440059
0.221700	-1.422856
0.221800	-1.450121
0.221900	-1.440059
0.222000	-1.509519
0.222100	-1.505624
0.222200	-1.552689
0.222300	-1.685118
0.222400	-1.990875
0.222500	-2.065854
0.222600	-1.936670
0.222700	-1.753281
0.222800	-1.699725
0.222900	-1.899668
0.223000	-2.144403
0.223100	-2.337530
0.223200	-2.343048
0.223300	-2.231391
0.223400	-2.102857
0.223500	-2.180432
0.223600	-2.328117
0.223700	-2.475154
0.223800	-2.565388
0.223900	-2.529684
0.224000	-2.536175
0.224100	-2.544290
0.224200	-2.541369
0.224300	-2.590705
0.224400	-2.658219
0.224500	-2.641016
0.224600	-2.602715
0.224700	-2.645560
0.224800	-2.733198
0.224900	-2.716319
0.225000	-2.685159
0.225100	-2.691651
0.225200	-2.734496
0.225300	-2.719240
0.225400	-2.670878
0.225500	-2.444643
0.225600	-2.381349
0.225700	-2.447239
0.225800	-2.652052
0.225900	-2.781236
0.226000	-2.719890
0.226100	-2.550782
0.226200	-2.376156
0.226300	-2.342074
0.226400	-2.473206
0.226500	-2.633550
0.226600	-2.726706
0.226700	-2.622190
0.226800	-2.491383
0.226900	-2.405044
0.227000	-2.402447
0.227100	-2.418676
0.227200	-2.430361
0.227300	-2.429387
0.227400	-2.388165
0.227500	-2.326819
0.227600	-2.276833
0.227700	-2.159659
0.227800	-2.021062
0.227900	-1.945758
0.228000	-1.920441
0.228100	-1.874350
0.228200	-1.863639
0.228300	-1.769185
0.228400	-1.599429
0.228500	-1.541978
0.228600	-1.314445
0.228700	-1.338789
0.228800	-1.324832
0.228900	-1.267381
0.229000	-1.177147
0.229100	-1.105739
0.229200	-0.972011
0.229300	-0.978827
0.229400	-0.941176
0.229500	-0.992784
0.229600	-0.936307
0.229700	-0.957080
0.229800	-0.981424
0.229900	-0.879830
0.230000	-0.900278
0.230100	-0.803228
0.230200	-0.879181
0.230300	-0.806799
0.230400	-0.925596
0.230500	-0.861978
0.230600	-0.793166
0.230700	-0.443592
0.230800	-0.328365
0.230900	-0.335181
0.231000	-0.634446
0.231100	-0.717214
0.231200	-0.607181
0.231300	-0.301749
0.231400	-0.174189
0.231500	-0.174189
0.231600	-0.212489
0.231700	-0.322198
0.231800	-0.317654
0.231900	-0.224824
0.232000	-0.107325
0.232100	-0.076490
0.232200	-0.059936
0.232300	-0.133616
0.232400	-0.094017
0.232500	-0.178084
0.232600	-0.146275
0.232700	-0.121607
0.232800	-0.113492
0.232900	-0.119659
0.233000	-0.142055
0.233100	-0.163153
0.233200	-0.313434
0.233300	-0.310838
0.233400	-0.321224
0.233500	-0.249816
0.233600	-0.206322
0.233700	-0.180356
0.233800	-0.280976
0.233900	-0.523763
0.234000	-0.553300
0.234100	-0.419248
0.234200	-0.157635
0.234300	-0.136537
0.234400	-0.199506
0.234500	-0.411783
0.234600	-0.504938
0.234700	-0.464365
0.234800	-0.324470
0.234900	-0.251439
0.235000	-0.278055
0.235100	-0.380947
0.235200	-0.461444
0.235300	-0.484489
0.235400	-0.501043
0.235500	-0.500718
0.235600	-0.575696
0.235700	-0.621138
0.235800	-0.700985
0.235900	-0.709424
0.236000	-0.746102
0.236100	-0.789921
0.236200	-0.824002
0.236300	-0.824651
0.236400	-0.801605
0.236500	-0.796088
0.236600	-0.834713
0.236700	-0.952536
0.236800	-1.015505
0.236900	-1.011935
0.237000	-0.872689
0.237100	-0.881777
0.237200	-0.942474
0.237300	-0.961624
0.237400	-0.962923
0.237500	-0.930789
0.237600	-0.931114
0.237700	-0.949615
0.237800	-0.979152
0.237900	-0.978503
0.238000	-0.991486
0.238100	-0.987916
0.238200	-0.990188
0.238300	-1.005768
0.238400	-1.016154
0.238500	-1.029462
0.238600	-1.070359
0.238700	-1.092756
0.238800	-1.169032
0.238900	-1.192727
0.239000	-1.430321
0.239100	-1.693558
0.239200	-1.730235
0.239300	-1.615982
0.239400	-1.486799
0.239500	-1.556259
0.239600	-1.758474
0.239700	-2.042484
0.239800	-2.197310
0.239900	-2.132718
0.240000	-2.038265
0.240100	-2.019439
0.240200	-2.147649
0.240300	-2.352461
0.240400	-2.490409
0.240500	-2.509559
0.240600	-2.512805
0.240700	-2.525139
0.240800	-2.613426
0.240900	-2.611803
0.241000	-2.645560
0.241100	-2.661789
0.241200	-2.642314
0.241300	-2.662763
0.241400	-2.746830
0.241500	-2.778639
0.241600	-2.760787
0.241700	-2.721837
0.241800	-2.765331
0.241900	-2.807203
0.242000	-2.827327
0.242100	-2.686782
0.242200	-2.554677
0.242300	-2.513130
0.242400	-2.591354
0.242500	-2.823756
0.242600	-2.873093
0.242700	-2.801685
0.242800	-2.619593
0.242900	-2.488462
0.243000	-2.547536
0.243100	-2.711126
0.243200	-2.842258
0.243300	-2.890945
0.243400	-2.776043
0.243500	-2.679641
0.243600	-2.630305
0.243700	-2.628682
0.243800	-2.672500
0.243900	-2.654648
0.244000	-2.627059
0.244100	-2.570906
0.244200	-2.495278
0.244300	-2.431335
0.244400	-2.263525
0.244500	-2.139210
0.244600	-2.016842
0.244700	-2.017816
0.244800	-1.984384
0.244900	-1.938293
0.245000	-1.771782
0.245100	-1.671161
0.245200	-1.538407
0.245300	-1.406951
0.245400	-1.386827
0.245500	-1.392020
0.245600	-1.301787
0.245700	-1.225510
0.245800	-1.151505
0.245900	-1.112555
0.246000	-1.092106
0.246100	-1.140794
0.246200	-1.122942
0.246300	-1.188832
0.246400	-1.198894
0.246500	-1.218044
0.246600	-1.167085
0.246700	-1.198569
0.246800	-1.196622
0.246900	-1.239467
0.247000	-1.296918
0.247100	-1.286856
0.247200	-1.288479
0.247300	-1.154751
0.247400	-0.951887
0.247500	-0.858407
0.247600	-1.146961
0.247700	-1.357615
0.247800	-1.440708
0.247900	-1.176822
0.248000	-1.025567
0.248100	-0.871391
0.248200	-0.891190
0.248300	-0.998951
0.248400	-1.089185
0.248500	-1.047314
0.248600	-0.907095
0.248700	-0.770121
0.248800	-0.722732
0.248900	-0.674045
0.249000	-0.708775
0.249100	-0.655868
0.249200	-0.645157
0.249300	-0.631200
0.249400	-0.564985
0.249500	-0.593873
0.249600	-0.555897
0.249700	-0.572775
0.249800	-0.551028
0.249900	-0.694818
0.250000	-0.735391
0.250100	-0.692871
0.250200	-0.657491
0.250300	-0.623410
0.250400	-0.620164
0.250500	-0.837634
0.250600	-0.970064
0.250700	-0.955457
0.250800	-0.798360
0.250900	-0.655219
0.251000	-0.726302
0.251100	-0.794140
0.251200	-0.983047
0.251300	-1.008689
0.251400	-0.934360
0.251500	-0.815238
0.251600	-0.739286
0.251700	-0.814589
0.251800	-0.917806
0.251900	-0.947667
0.252000	-0.985968
0.252100	-0.950589
0.252200	-0.983371
0.252300	-1.023620
0.252400	-1.063868
0.252500	-1.084316
0.252600	-1.060297
0.252700	-1.089834
0.252800	-1.150531
0.252900	-1.137873
0.253000	-1.106063
0.253100	-1.083018
0.253200	-1.055753
0.253300	-1.137548
0.253400	-1.214799
0.253500	-1.239791
0.253600	-1.202140
0.253700	-1.101519
0.253800	-1.159944
0.253900	-1.199219
0.254000	-1.178770
0.254100	-1.191104
0.254200	-1.182016
0.254300	-1.203763
0.254400	-1.182340
0.254500	-1.202464
0.254600	-1.183314
0.254700	-1.196297
0.254800	-1.206359
0.254900	-1.207658
0.255000	-1.188183
0.255100	-1.186560
0.255200	-1.185586
0.255300	-1.217395
0.255400	-1.223562
0.255500	-1.278417
0.255600	-1.319963
0.255700	-1.523152
0.255800	-1.689338
0.255900	-1.565023
0.256000	-1.393968
0.256100	-1.222264
0.256200	-1.361510
0.256300	-1.580603
0.256400	-1.823066
0.256500	-1.837997
0.256600	-1.738350
0.256700	-1.643247
0.256800	-1.671486
0.256900	-1.800994
0.257000	-1.967505
0.257100	-2.018790
0.257200	-2.041835
0.257300	-2.078188
0.257400	-2.084355
0.257500	-2.099286
0.257600	-2.120384
0.257700	-2.206399
0.257800	-2.245998
0.257900	-2.239506
0.258000	-2.279430
0.258100	-2.392385
0.258200	-2.356031
0.258300	-2.381674
0.258400	-2.423869
0.258500	-2.571879
0.258600	-2.647832
0.258700	-2.703336
0.258800	-2.597846
0.258900	-2.527412
0.259000	-2.647832
0.259100	-2.814993
0.259200	-3.104197
0.259300	-3.157429
0.259400	-3.073362
0.259500	-2.999356
0.259600	-2.976636
0.259700	-3.096732
0.259800	-3.294404
0.259900	-3.392753
0.260000	-3.408333
0.260100	-3.314528
0.260200	-3.216179
0.260300	-3.218451
0.260400	-3.229162
0.260500	-3.259349
0.260600	-3.204169
0.260700	-3.156131
0.260800	-3.126269
0.260900	-3.108417
0.261000	-3.043825
0.261100	-2.880559
0.261200	-2.762410
0.261300	-2.713073
0.261400	-2.675746
0.261500	-2.628357
0.261600	-2.546562
0.261700	-2.344996
0.261800	-2.261902
0.261900	-1.977568
0.262000	-1.998665
0.262100	-1.882789
0.262200	-1.817548
0.262300	-1.688040
0.262400	-1.589367
0.262500	-1.432269
0.262600	-1.347877
0.262700	-1.272574
0.262800	-1.263810
0.262900	-1.201166
0.263000	-1.162541
0.263100	-1.130407
0.263200	-1.067438
0.263300	-1.006417
0.263400	-0.943772
0.263500	-0.904173
0.263600	-0.907095
0.263700	-0.934360
0.263800	-0.920727
0.263900	-0.908718
0.264000	-0.620813
0.264100	-0.501043
0.264200	-0.389062
0.264300	-0.771095
0.264400	-0.904498
0.264500	-0.928517
0.264600	-0.680536
0.264700	-0.480594
0.264800	-0.453654
0.264900	-0.523763
0.265000	-0.707477
0.265100	-0.721109
0.265200	-0.676966
0.265300	-0.572775
0.265400	-0.539019
0.265500	-0.550054
0.265600	-0.621787
0.265700	-0.641587
0.265800	-0.692221
0.265900	-0.706503
0.266000	-0.696116
0.266100	-0.745128
0.266200	-0.783429
0.266300	-0.768823
0.266400	-0.751620
0.266500	-0.852889
0.266600	-0.945071
0.266700	-0.956431
0.266800	-0.921701
0.266900	-0.866197
0.267000	-0.828546
0.267100	-0.895085
0.267200	-1.069061
0.267300	-1.156049
0.267400	-1.040822
0.267500	-0.791219
0.267600	-0.678914
0.267700	-0.771095
0.267800	-0.940202
0.267900	-1.038226
0.268000	-1.021023
0.268100	-0.917157
0.268200	-0.813290
0.268300	-0.811668
0.268400	-0.853214
0.268500	-0.941825
0.268600	-0.919104
0.268700	-0.926245
0.268800	-0.825300
0.268900	-0.829520
0.269000	-0.875286
0.269100	-0.915209
0.269200	-0.868469
0.269300	-0.828870
0.269400	-0.811992
0.269500	-0.817510
0.269600	-0.764279
0.269700	-0.689625
0.269800	-0.646131
0.269900	-0.609778
0.270000	-0.670150
0.270100	-0.674694
0.270200	-0.617243
0.270300	-0.467611
0.270400	-0.431907
0.270500	-0.452031
0.270600	-0.469883
0.270700	-0.434179
0.270800	-0.416976
0.270900	-0.412756
0.271000	-0.443267
0.271100	-0.448785
0.271200	-0.454303
0.271300	-0.457549
0.271400	-0.463391
0.271500	-0.493253
0.271600	-0.521167
0.271700	-0.511429
0.271800	-0.570503
0.271900	-0.588031
0.272000	-0.660737
0.272100	-0.724680
0.272200	-0.788622
0.272300	-0.995056
0.272400	-1.284584
0.272500	-1.408250
0.272600	-1.286531
0.272700	-1.164164
0.272800	-1.041796
0.272900	-1.259266
0.273000	-1.565347
0.273100	-1.786713
0.273200	-1.819496
0.273300	-1.722770
0.273400	-1.642598
0.273500	-1.739648
0.273600	-1.987954
0.273700	-2.172317
0.273800	-2.263850
0.273900	-2.253463
0.274000	-2.258332
0.274100	-2.305396
0.274200	-2.409263
0.274300	-2.531631
0.274400	-2.568634
0.274500	-2.579669
0.274600	-2.635173
0.274700	-2.768577
0.274800	-2.832520
0.274900	-2.801036
0.275000	-2.808176
0.275100	-2.866602
0.275200	-2.951967
0.275300	-2.979881
0.275400	-2.963328
0.275500	-2.842258
0.275600	-2.776367
0.275700	-2.874716
0.275800	-3.043175
0.275900	-3.229487
0.276000	-3.178852
0.276100	-3.028569
0.276200	-2.952616
0.276300	-3.006173
0.276400	-3.139577
0.276500	-3.311607
0.276600	-3.385612
0.276700	-3.385937
0.276800	-3.325239
0.276900	-3.271683
0.277000	-3.272657
0.277100	-3.307063
0.277200	-3.364189
0.277300	-3.365163
0.277400	-3.330108
0.277500	-3.230785
0.277600	-3.204494
0.277700	-3.100627
0.277800	-3.012015
0.277900	-2.948721
0.278000	-2.925676
0.278100	-2.880234
0.278200	-2.856539
0.278300	-2.740338
0.278400	-2.609531
0.278500	-2.538447
0.278600	-2.300852
0.278700	-2.296633
0.278800	-2.258656
0.278900	-2.166799
0.279000	-2.030150
0.279100	-1.885061
0.279200	-1.761071
0.279300	-1.672784
0.279400	-1.645844
0.279500	-1.602999
0.279600	-1.533214
0.279700	-1.558207
0.279800	-1.460183
0.279900	-1.433242
0.280000	-1.335868
0.280100	-1.402407
0.280200	-1.327429
0.280300	-1.383257
0.280400	-1.335868
0.280500	-1.309901
0.280600	-1.174550
0.280700	-0.978827
0.280800	-0.776288
0.280900	-0.796737
0.281000	-1.149882
0.281100	-1.203114
0.281200	-1.047963
0.281300	-0.826274
0.281400	-0.639315
0.281500	-0.576995
0.281600	-0.721109
0.281700	-0.829195
0.281800	-0.835362
0.281900	-0.726302
0.282000	-0.586083
0.282100	-0.433530
0.282200	-0.431907
0.282300	-0.435477
0.282400	-0.461768
0.282500	-0.436451
0.282600	-0.373157
0.282700	-0.317654
0.282800	-0.345893
0.282900	-0.322198
0.283000	-0.260528
0.283100	-0.310838
0.283200	-0.463716
0.283300	-0.507534
0.283400	-0.509806
0.283500	-0.442293
0.283600	-0.372508
0.283700	-0.350761
0.283800	-0.475401
0.283900	-0.671448
0.284000	-0.706503
0.284100	-0.672097
0.284200	-0.406914
0.284300	-0.464040
0.284400	-0.598093
0.284500	-0.854512
0.284600	-0.952861
0.284700	-0.989214
0.284800	-0.961300
0.284900	-0.957405
0.285000	-1.032383
0.285100	-1.156049
0.285200	-1.303085
0.285300	-1.415066
0.285400	-1.500106
0.285500	-1.503028
0.285600	-1.565023
0.285700	-1.614035
0.285800	-1.713033
0.285900	-1.764641
0.286000	-1.803591
0.286100	-1.839295
0.286200	-1.849682
0.286300	-1.781195
0.286400	-1.803267
0.286500	-1.832804
0.286600	-1.891878
0.286700	-2.014245
0.286800	-2.088575
0.286900	-2.090198
0.287000	-1.986656
0.287100	-1.997043
0.287200	-2.046055
0.287300	-2.023983
0.287400	-2.023658
0.287500	-1.993472
0.287600	-1.985682
0.287700	-1.971076
0.287800	-2.006455
0.287900	-1.995095
0.288000	-1.988603
0.288100	-2.006131
0.288200	-2.012298
0.288300	-2.024957
0.288400	-2.043782
0.288500	-2.032422
0.288600	-2.082408
0.288700	-2.066828
0.288800	-2.103181
0.288900	-2.144079
0.289000	-2.353435
0.289100	-2.558896
0.289200	-2.587135
0.289300	-2.440423
0.289400	-2.270666
0.289500	-2.259630
0.289600	-2.480347
0.289700	-2.734821
0.289800	-2.844530
0.289900	-2.788377
0.290000	-2.671527
0.290100	-2.634524
0.290200	-2.737093
0.290300	-2.894516
0.290400	-2.995461
0.290500	-3.020454
0.290600	-3.001953
0.290700	-2.980531
0.290800	-3.000979
0.290900	-3.038307
0.291000	-3.127243
0.291100	-3.131138
0.291200	-3.122374
0.291300	-3.125295
0.291400	-3.234031
0.291500	-3.219100
0.291600	-3.182747
0.291700	-3.212284
0.291800	-3.257076
0.291900	-3.347311
0.292000	-3.346337
0.292100	-3.210336
0.292200	-3.017858
0.292300	-3.003251
0.292400	-3.092837
0.292500	-3.265840
0.292600	-3.283692
0.292700	-3.136656
0.292800	-2.948397
0.292900	-2.827976
0.293000	-2.824406
0.293100	-2.927299
0.293200	-3.021428
0.293300	-3.037008
0.293400	-2.960731
0.293500	-2.825379
0.293600	-2.742286
0.293700	-2.699116
0.293800	-2.703660
0.293900	-2.710801
0.294000	-2.659192
0.294100	-2.579345
0.294200	-2.463793
0.294300	-2.364795
0.294400	-2.225874
0.294500	-2.087601
0.294600	-2.000938
0.294700	-1.956470
0.294800	-1.915248
0.294900	-1.889281
0.295000	-1.710111
0.295100	-1.627018
0.295200	-1.536784
0.295300	-1.415066
0.295400	-1.378388
0.295500	-1.347228
0.295600	-1.269977
0.295700	-1.191429
0.295800	-1.079123
0.295900	-1.002846
0.296000	-0.993109
0.296100	-0.976231
0.296200	-1.017128
0.296300	-0.953510
0.296400	-1.027839
0.296500	-0.945395
0.296600	-0.953185
0.296700	-0.884698
0.296800	-0.886321
0.296900	-0.897682
0.297000	-0.937930
0.297100	-0.950264
0.297200	-0.828870
0.297300	-0.755515
0.297400	-0.412107
0.297500	-0.443916
0.297600	-0.632498
0.297700	-0.909042
0.297800	-0.898980
0.297900	-0.668851
0.298000	-0.508183
0.298100	-0.411133
0.298200	-0.469558
0.298300	-0.707801
0.298400	-0.794789
0.298500	-0.835687
0.298600	-0.697739
0.298700	-0.651973
0.298800	-0.605558
0.298900	-0.687353
0.299000	-0.712995
0.299100	-0.801605
0.299200	-0.839582
0.299300	-0.850942
0.299400	-0.889892
0.299500	-0.978827
0.299600	-1.024269
0.299700	-1.011285
0.299800	-1.124240
0.299900	-1.292374
0.300000	-1.318989
0.300100	-1.361185
0.300200	-1.253099
0.300300	-1.289777
0.300400	-1.242713
0.300500	-1.440383
0.300600	-1.608842
0.300700	-1.530293
0.300800	-1.348851
0.300900	-1.116450
0.301000	-1.167409
0.301100	-1.275495
0.301200	-1.432269
0.301300	-1.440059
0.301400	-1.345281
0.301500	-1.223887
0.301600	-1.154426
0.301700	-1.184288
0.301800	-1.277767
0.301900	-1.303085
0.302000	-1.331973
0.302100	-1.295944
0.302200	-1.290751
0.302300	-1.318989
0.302400	-1.374168
0.302500	-1.425128
0.302600	-1.368651
0.302700	-1.376765
0.302800	-1.398837
0.302900	-1.393968
0.303000	-1.323534
0.303100	-1.287180
0.303200	-1.245958
0.303300	-1.285233
0.303400	-1.380660
0.303500	-1.408574
0.303600	-1.388125
0.303700	-1.263810
0.303800	-1.279066
0.303900	-1.314770
0.304000	-1.302436
0.304100	-1.302436
0.304200	-1.281013
0.304300	-1.286207
0.304400	-1.271600
0.304500	-1.293023
0.304600	-1.308927
0.304700	-1.309577
0.304800	-1.303085
0.304900	-1.329701
0.305000	-1.304708
0.305100	-1.321261
0.305200	-1.299190
0.305300	-1.350149
0.305400	-1.346579
0.305500	-1.449796
0.305600	-1.506923
0.305700	-1.847085
0.305800	-2.017167
0.305900	-2.002885
0.306000	-1.814952
0.306100	-1.714006
0.306200	-1.838971
0.306300	-2.112919
0.306400	-2.356356
0.306500	-2.424843
0.306600	-2.309941
0.306700	-2.189845
0.306800	-2.231067
0.306900	-2.385569
0.307000	-2.566686
0.307100	-2.658219
0.307200	-2.670553
0.307300	-2.657894
0.307400	-2.640042
0.307500	-2.680290
0.307600	-2.717618
0.307700	-2.783184
0.307800	-2.790649
0.307900	-2.750725
0.308000	-2.786105
0.308100	-2.894191
0.308200	-2.886077
0.308300	-2.831222
0.308400	-2.845828
0.308500	-2.894516
0.308600	-2.944826
0.308700	-2.896788
0.308800	-2.778315
0.308900	-2.620892
0.309000	-2.676720
0.309100	-2.796816
0.309200	-2.992865
0.309300	-2.969170
0.309400	-2.789351
0.309500	-2.633550
0.309600	-2.542992
0.309700	-2.610505
0.309800	-2.733198
0.309900	-2.803632
0.310000	-2.826678
0.310100	-2.703011
0.310200	-2.598171
0.310300	-2.548834
0.310400	-2.561168
0.310500	-2.633226
0.310600	-2.618620
0.310700	-2.617321
0.310800	-2.573827
0.310900	-2.553703
0.311000	-2.490734
0.311100	-2.383946
0.311200	-2.324222
0.311300	-2.316108
0.311400	-2.336556
0.311500	-2.369989
0.311600	-2.362523
0.311700	-2.236260
0.311800	-2.200232
0.311900	-2.093444
0.312000	-2.049300
0.312100	-2.036642
0.312200	-2.031124
0.312300	-1.944785
0.312400	-1.895123
0.312500	-1.776975
0.312600	-1.764966
0.312700	-1.769835
0.312800	-1.794503
0.312900	-1.828584
0.313000	-1.813978
0.313100	-1.854551
0.313200	-1.803916
0.313300	-1.841567
0.313400	-1.793204
0.313500	-1.862341
0.313600	-1.915572
0.313700	-1.871104
0.313800	-1.943811
0.313900	-1.872078
0.314000	-1.734130
0.314100	-1.547171
0.314200	-1.489395
0.314300	-1.862990
0.314400	-1.975945
0.314500	-2.010026
0.314600	-1.678627
0.314700	-1.586445
0.314800	-1.476412
0.314900	-1.597157
0.315000	-1.720823
0.315100	-1.798398
0.315200	-1.662073
0.315300	-1.478359
0.315400	-1.366054
0.315500	-1.346903
0.315600	-1.315419
0.315700	-1.379686
0.315800	-1.353720
0.315900	-1.336517
0.316000	-1.290426
0.316100	-1.256994
0.316200	-1.238818
0.316300	-1.259591
0.316400	-1.234923
0.316500	-1.406302
0.316600	-1.418961
0.316700	-1.453691
0.316800	-1.374818
0.316900	-1.319639
0.317000	-1.332297
0.317100	-1.305682
0.317200	-1.586770
0.317300	-1.613710
0.317400	-1.583524
0.317500	-1.317042
0.317600	-1.291725
0.317700	-1.322560
0.317800	-1.504975
0.317900	-1.632861
0.318000	-1.628966
0.318100	-1.488746
0.318200	-1.387476
0.318300	-1.370923
0.318400	-1.473815
0.318500	-1.589042
0.318600	-1.560479
0.318700	-1.604297
0.318800	-1.586770
0.318900	-1.672135
0.319000	-1.726016
0.319100	-1.739973
0.319200	-1.736403
0.319300	-1.710760
0.319400	-1.784116
0.319500	-1.840594
0.319600	-1.822417
0.319700	-1.779572
0.319800	-1.758799
0.319900	-1.731534
0.320000	-1.839620
0.320100	-1.889930
0.320200	-1.887009
0.320300	-1.879868
0.320400	-1.753930
0.320500	-1.813329
0.320600	-1.828584
0.320700	-1.814627
0.320800	-1.795477
0.320900	-1.806512
0.321000	-1.816899
0.321100	-1.805539
0.321200	-1.814627
0.321300	-1.814302
0.321400	-1.831181
0.321500	-1.832479
0.321600	-1.823391
0.321700	-1.816899
0.321800	-1.827935
0.321900	-1.837023
0.322000	-1.859419
0.322100	-1.917844
0.322200	-1.946083
0.322300	-2.073320
0.322400	-2.313836
0.322500	-2.464442
0.322600	-2.325196
0.322700	-2.095716
0.322800	-2.055792
0.322900	-2.145052
0.323000	-2.505015
0.323100	-2.657570
0.323200	-2.668281
0.323300	-2.491707
0.323400	-2.396280
0.323500	-2.441721
0.323600	-2.616672
0.323700	-2.769876
0.323800	-2.775069
0.323900	-2.738716
0.324000	-2.684185
0.324100	-2.721837
0.324200	-2.747479
0.324300	-2.759813
0.324400	-2.755269
0.324500	-2.757217
0.324600	-2.771823
0.324700	-2.831547
0.324800	-2.913991
0.324900	-2.895814
0.325000	-2.864979
0.325100	-2.836415
0.325200	-2.916263
0.325300	-2.957161
0.325400	-2.941580
0.325500	-2.804931
0.325600	-2.716319
0.325700	-2.868224
0.325800	-3.068818
0.325900	-3.209038
0.326000	-3.207415
0.326100	-3.045447
0.326200	-2.893867
0.326300	-2.900683
0.326400	-3.076283
0.326500	-3.288237
0.326600	-3.359321
0.326700	-3.264542
0.326800	-3.182422
0.326900	-3.151262
0.327000	-3.171711
0.327100	-3.211959
0.327200	-3.250585
0.327300	-3.242146
0.327400	-3.241821
0.327500	-3.235654
0.327600	-3.217153
0.327700	-3.137954
0.327800	-3.047395
0.327900	-3.019156
0.328000	-3.051939
0.328100	-3.078230
0.328200	-3.100302
0.328300	-3.019805
0.328400	-2.910420
0.328500	-2.907824
0.328600	-2.717293
0.328700	-2.744233
0.328800	-2.718591
0.328900	-2.669255
0.329000	-2.598495
0.329100	-2.470609
0.329200	-2.373559
0.329300	-2.344671
0.329400	-2.330714
0.329500	-2.312862
0.329600	-2.280079
0.329700	-2.276509
0.329800	-2.245349
0.329900	-2.200556
0.330000	-2.206399
0.330100	-2.193091
0.330200	-2.222952
0.330300	-2.246647
0.330400	-2.232365
0.330500	-2.184327
0.330600	-2.162580
0.330700	-1.838971
0.330800	-1.709138
0.330900	-1.708488
0.331000	-2.118761
0.331100	-2.206723
0.331200	-2.159009
0.331300	-1.805863
0.331400	-1.716928
0.331500	-1.707515
0.331600	-1.774703
0.331700	-1.905835
0.331800	-1.870455
0.331900	-1.734780
0.332000	-1.553013
0.332100	-1.477061
0.332200	-1.509195
0.332300	-1.484851
0.332400	-1.485825
0.332500	-1.427725
0.332600	-1.373519
0.332700	-1.355018
0.332800	-1.339438
0.332900	-1.324183
0.333000	-1.375142
0.333100	-1.321261
0.333200	-1.425452
0.333300	-1.368975
0.333400	-1.494588
0.333500	-1.449796
0.333600	-1.426426
0.333700	-1.399810
0.333800	-1.418312
0.333900	-1.733157
0.334000	-1.775028
0.334100	-1.676355
0.334200	-1.479009
0.334300	-1.452717
0.334400	-1.545223
0.334500	-1.828259
0.334600	-1.947057
0.334700	-1.893825
0.334800	-1.716603
0.334900	-1.608192
0.335000	-1.729586
0.335100	-1.861042
0.335200	-1.972050
0.335300	-1.947057
0.335400	-1.947381
0.335500	-1.914598
0.335600	-1.966207
0.335700	-2.050274
0.335800	-2.120384
0.335900	-2.090847
0.336000	-2.085005
0.336100	-2.120709
0.336200	-2.147324
0.336300	-2.142780
0.336400	-2.131744
0.336500	-2.160308
0.336600	-2.160632
0.336700	-2.306370
0.336800	-2.338179
0.336900	-2.353759
0.337000	-2.267745
0.337100	-2.314485
0.337200	-2.383946
0.337300	-2.399201
0.337400	-2.415106
0.337500	-2.435879
0.337600	-2.434581
0.337700	-2.474829
0.337800	-2.482294
0.337900	-2.492032
0.338000	-2.518972
0.338100	-2.568634
0.338200	-2.577397
0.338300	-2.606610
0.338400	-2.606935
0.338500	-2.628032
0.338600	-2.665035
0.338700	-2.659517
0.338800	-2.698143
0.338900	-2.699116
0.339000	-2.914315
0.339100	-3.114584
0.339200	-3.179176
0.339300	-2.984101
0.339400	-2.764033
0.339500	-2.798114
0.339600	-2.964301
0.339700	-3.263893
0.339800	-3.326213
0.339900	-3.252208
0.340000	-3.087319
0.340100	-3.041552
0.340200	-3.147042
0.340300	-3.341144
0.340400	-3.425211
0.340500	-3.450529
0.340600	-3.434300
0.340700	-3.407684
0.340800	-3.424238
0.340900	-3.488830
0.341000	-3.540764
0.341100	-3.589127
0.341200	-3.594969
0.341300	-3.580038
0.341400	-3.661185
0.341500	-3.766675
0.341600	-3.787773
0.341700	-3.791343
0.341800	-3.784852
0.341900	-3.835812
0.342000	-3.899106
0.342100	-3.862428
0.342200	-3.692994
0.342300	-3.635218
0.342400	-3.742656
0.342500	-3.982849
0.342600	-4.044196
0.342700	-3.979278
0.342800	-3.745901
0.342900	-3.588802
0.343000	-3.616717
0.343100	-3.770245
0.343200	-3.936109
0.343300	-3.893912
0.343400	-3.755314
0.343500	-3.631972
0.343600	-3.579714
0.343700	-3.584258
0.343800	-3.622884
0.343900	-3.634893
0.344000	-3.638139
0.344100	-3.559265
0.344200	-3.495322
0.344300	-3.431378
0.344400	-3.317449
0.344500	-3.237277
0.344600	-3.189563
0.344700	-3.161324
0.344800	-3.121076
0.344900	-3.093161
0.345000	-2.932817
0.345100	-2.839012
0.345200	-2.797141
0.345300	-2.614725
0.345400	-2.580643
0.345500	-2.511507
0.345600	-2.422571
0.345700	-2.302800
0.345800	-2.148623
0.345900	-2.024957
0.346000	-1.983735
0.346100	-1.961014
0.346200	-1.963610
0.346300	-1.923362
0.346400	-1.934723
0.346500	-1.910054
0.346600	-1.831181
0.346700	-1.882465
0.346800	-1.819496
0.346900	-1.922713
0.347000	-1.847085
0.347100	-1.964584
0.347200	-1.852603
0.347300	-1.741920
0.347400	-1.428374
0.347500	-1.408899
0.347600	-1.550741
0.347700	-1.909405
0.347800	-1.886035
0.347900	-1.705892
0.348000	-1.504651
0.348100	-1.401758
0.348200	-1.453691
0.348300	-1.612412
0.348400	-1.680574
0.348500	-1.635457
0.348600	-1.567620
0.348700	-1.438111
0.348800	-1.363782
0.348900	-1.413767
0.349000	-1.473491
0.349100	-1.446875
0.349200	-1.467648
0.349300	-1.455963
0.349400	-1.454016
0.349500	-1.438760
0.349600	-1.469920
0.349700	-1.489395
0.349800	-1.566970
0.349900	-1.590665
0.350000	-1.689013
0.350100	-1.654932
0.350200	-1.625395
0.350300	-1.579954
0.350400	-1.638054
0.350500	-1.752956
0.350600	-2.037940
0.350700	-2.005482
0.350800	-1.841243
0.350900	-1.631238
0.351000	-1.702321
0.351100	-1.878570
0.351200	-2.126551
0.351300	-2.126876
0.351400	-2.038265
0.351500	-1.899018
0.351600	-1.868183
0.351700	-1.997692
0.351800	-2.120709
0.351900	-2.157387
0.352000	-2.173291
0.352100	-2.134666
0.352200	-2.158360
0.352300	-2.217110
0.352400	-2.268394
0.352500	-2.295984
0.352600	-2.270341
0.352700	-2.299229
0.352800	-2.350838
0.352900	-2.357979
0.353000	-2.326170
0.353100	-2.303124
0.353200	-2.278781
0.353300	-2.347268
0.353400	-2.431010
0.353500	-2.464118
0.353600	-2.466390
0.353700	-2.340127
0.353800	-2.384270
0.353900	-2.422246
0.354000	-2.416404
0.354100	-2.388814
0.354200	-2.415106
0.354300	-2.412834
0.354400	-2.414781
0.354500	-2.382972
0.354600	-2.397578
0.354700	-2.388165
0.354800	-2.389139
0.354900	-2.375506
0.355000	-2.360251
0.355100	-2.378103
0.355200	-2.430686
0.355300	-2.459249
0.355400	-2.514753
0.355500	-2.534552
0.355600	-2.641665
0.355700	-2.883480
0.355800	-3.151911
0.355900	-3.051290
0.356000	-2.925676
0.356100	-2.828625
0.356200	-2.948397
0.356300	-3.271034
0.356400	-3.505059
0.356500	-3.575819
0.356600	-3.469030
0.356700	-3.401192
0.356800	-3.453450
0.356900	-3.623533
0.357000	-3.795563
0.357100	-3.913388
0.357200	-3.960453
0.357300	-3.940004
0.357400	-3.970190
0.357500	-4.037704
0.357600	-4.103595
0.357700	-4.122421
0.357800	-4.163968
0.357900	-4.174679
0.358000	-4.185391
0.358100	-4.266537
0.358200	-4.338595
0.358300	-4.300943
0.358400	-4.252905
0.358500	-4.295750
0.358600	-4.374300
0.358700	-4.369756
0.358800	-4.264914
0.358900	-4.072110
0.359000	-4.101323
0.359100	-4.243492
0.359200	-4.459342
0.359300	-4.481738
0.359400	-4.292829
0.359500	-4.048740
0.359600	-3.972787
0.359700	-4.113008
0.359800	-4.298022
0.359900	-4.396696
0.360000	-4.311330
0.360100	-4.153257
0.360200	-4.032186
0.360300	-4.040301
0.360400	-4.065618
0.360500	-4.097752
0.360600	-4.069838
0.360700	-4.028940
0.360800	-3.953961
0.360900	-3.884175
0.361000	-3.820556
0.361100	-3.654044
0.361200	-3.533298
0.361300	-3.465135
0.361400	-3.412228
0.361500	-3.381068
0.361600	-3.320370
0.361700	-3.159052
0.361800	-3.104197
0.361900	-2.895490
0.362000	-2.884778
0.362100	-2.855890
0.362200	-2.809150
0.362300	-2.713723
0.362400	-2.596872
0.362500	-2.473531
0.362600	-2.426466
0.362700	-2.425168
0.362800	-2.408289
0.362900	-2.369989
0.363000	-2.354409
0.363100	-2.348891
0.363200	-2.294685
0.363300	-2.241129
0.363400	-2.209320
0.363500	-2.180107
0.363600	-2.225549
0.363700	-2.238208
0.363800	-2.236909
0.363900	-2.137262
0.364000	-1.981787
0.364100	-1.697128
0.364200	-1.727639
0.364300	-2.007429
0.364400	-2.296633
0.364500	-2.233664
0.364600	-2.114542
0.364700	-1.833777
0.364800	-1.881166
0.364900	-1.969128
0.365000	-2.181081
0.365100	-2.241454
0.365200	-2.122981
0.365300	-1.975295
0.365400	-1.920766
0.365500	-1.941863
0.365600	-1.988928
0.365700	-2.072995
0.365800	-2.053520
0.365900	-1.978866
0.366000	-1.959066
0.366100	-1.958093
0.366200	-1.960365
0.366300	-1.944460
0.366400	-1.913625
0.366500	-1.936021
0.366600	-1.899343
0.366700	-1.936021
0.366800	-1.964909
0.366900	-1.861042
0.367000	-1.792880
0.367100	-1.802942
0.367200	-1.930828
0.367300	-2.118112
0.367400	-1.994121
0.367500	-1.773405
0.367600	-1.606894
0.367700	-1.645519
0.367800	-1.829558
0.367900	-2.026904
0.368000	-1.956145
0.368100	-1.779897
0.368200	-1.562426
0.368300	-1.555935
0.368400	-1.676679
0.368500	-1.780546
0.368600	-1.768212
0.368700	-1.736727
0.368800	-1.643896
0.368900	-1.708488
0.369000	-1.786713
0.369100	-1.865586
0.369200	-1.880193
0.369300	-1.852603
0.369400	-1.907133
0.369500	-1.958742
0.369600	-1.984708
0.369700	-1.978866
0.369800	-1.993797
0.369900	-2.024632
0.370000	-2.147000
0.370100	-2.260604
0.370200	-2.301826
0.370300	-2.254437
0.370400	-2.210618
0.370500	-2.326494
0.370600	-2.379401
0.370700	-2.406991
0.370800	-2.446266
0.370900	-2.465091
0.371000	-2.487488
0.371100	-2.511832
0.371200	-2.542992
0.371300	-2.549159
0.371400	-2.589082
0.371500	-2.619593
0.371600	-2.636796
0.371700	-2.683212
0.371800	-2.716319
0.371900	-2.799413
0.372000	-2.816291
0.372100	-2.929895
0.372200	-2.999356
0.372300	-3.191186
0.372400	-3.511876
0.372500	-3.660860
0.372600	-3.566406
0.372700	-3.342442
0.372800	-3.367435
0.372900	-3.496945
0.373000	-3.892614
0.373100	-4.061399
0.373200	-4.085418
0.373300	-3.926371
0.373400	-3.821205
0.373500	-3.886447
0.373600	-4.061399
0.373700	-4.241219
0.373800	-4.297048
0.373900	-4.304189
0.374000	-4.235701
0.374100	-4.257124
0.374200	-4.326261
0.374300	-4.389880
0.374400	-4.404811
0.374500	-4.429480
0.374600	-4.421689
0.374700	-4.471027
0.374800	-4.534970
0.374900	-4.570999
0.375000	-4.526856
0.375100	-4.522961
0.375200	-4.541137
0.375300	-4.557691
0.375400	-4.527180
0.375500	-4.379493
0.375600	-4.270108
0.375700	-4.327559
0.375800	-4.533023
0.375900	-4.627802
0.376000	-4.620012
0.376100	-4.401565
0.376200	-4.183768
0.376300	-4.160397
0.376400	-4.326586
0.376500	-4.514846
0.376600	-4.537242
0.376700	-4.458368
0.376800	-4.344762
0.376900	-4.269134
0.377000	-4.258422
0.377100	-4.311005
0.377200	-4.339894
0.377300	-4.302566
0.377400	-4.261993
0.377500	-4.187987
0.377600	-4.140598
0.377700	-4.012711
0.377800	-3.872814
0.377900	-3.783229
0.378000	-3.734216
0.378100	-3.706302
0.378200	-3.695915
0.378300	-3.567055
0.378400	-3.401517
0.378500	-3.348285
0.378600	-3.129190
0.378700	-3.148990
0.378800	-3.105496
0.378900	-3.028894
0.379000	-2.938335
0.379100	-2.804281
0.379200	-2.699765
0.379300	-2.669255
0.379400	-2.662114
0.379500	-2.665035
0.379600	-2.656920
0.379700	-2.685808
0.379800	-2.683536
0.379900	-2.654973
0.380000	-2.663087
0.380100	-2.629006
0.380200	-2.707555
0.380300	-2.635498
0.380400	-2.714696
0.380500	-2.602066
0.380600	-2.576424
0.380700	-2.251516
0.380800	-2.112594
0.380900	-2.042809
0.381000	-2.497874
0.381100	-2.558896
0.381200	-2.409588
0.381300	-2.146026
0.381400	-1.985033
0.381500	-1.960689
0.381600	-2.036966
0.381700	-2.201205
0.381800	-2.111620
0.381900	-2.037615
0.382000	-1.870455
0.382100	-1.815276
0.382200	-1.791582
0.382300	-1.837997
0.382400	-1.763667
0.382500	-1.757176
0.382600	-1.712059
0.382700	-1.692908
0.382800	-1.681223
0.382900	-1.671161
0.383000	-1.646169
0.383100	-1.739648
0.383200	-1.798722
0.383300	-1.787687
0.383400	-1.819496
0.383500	-1.858446
0.383600	-1.743219
0.383700	-1.817224
0.383800	-1.810732
0.383900	-2.205100
0.384000	-2.252814
0.384100	-2.199907
0.384200	-1.980813
0.384300	-2.011973
0.384400	-2.130446
0.384500	-2.409263
0.384600	-2.562467
0.384700	-2.535202
0.384800	-2.386867
0.384900	-2.303774
0.385000	-2.392709
0.385100	-2.537474
0.385200	-2.630954
0.385300	-2.615698
0.385400	-2.655947
0.385500	-2.617321
0.385600	-2.707880
0.385700	-2.773771
0.385800	-2.842258
0.385900	-2.820835
0.386000	-2.838687
0.386100	-2.847451
0.386200	-2.892893
0.386300	-2.909447
0.386400	-2.926974
0.386500	-2.928273
0.386600	-2.962354
0.386700	-3.076608
0.386800	-3.147367
0.386900	-3.171062
0.387000	-3.175930
0.387100	-3.127567
0.387200	-3.148990
0.387300	-3.153859
0.387400	-3.152236
0.387500	-3.136006
0.387600	-3.136980
0.387700	-3.159701
0.387800	-3.165868
0.387900	-3.165219
0.388000	-3.167491
0.388100	-3.174632
0.388200	-3.198002
0.388300	-3.195081
0.388400	-3.235978
0.388500	-3.246041
0.388600	-3.312580
0.388700	-3.345688
0.388800	-3.369058
0.388900	-3.388858
0.389000	-3.618664
0.389100	-3.875086
0.389200	-3.919230
0.389300	-3.750121
0.389400	-3.582960
0.389500	-3.532974
0.389600	-3.762131
0.389700	-4.010763
0.389800	-4.114631
0.389900	-4.051986
0.390000	-3.904948
0.390100	-3.859506
0.390200	-3.973111
0.390300	-4.131509
0.390400	-4.251282
0.390500	-4.300619
0.390600	-4.313278
0.390700	-4.300294
0.390800	-4.332753
0.390900	-4.413575
0.391000	-4.452525
0.391100	-4.465184
0.391200	-4.481738
0.391300	-4.479466
0.391400	-4.517767
0.391500	-4.570026
0.391600	-4.501862
0.391700	-4.476545
0.391800	-4.447007
0.391900	-4.479141
0.392000	-4.463237
0.392100	-4.404811
0.392200	-4.172407
0.392300	-4.121123
0.392400	-4.245439
0.392500	-4.460315
0.392600	-4.519390
0.392700	-4.463886
0.392800	-4.227587
0.392900	-4.076005
0.393000	-4.143519
0.393100	-4.316523
0.393200	-4.493748
0.393300	-4.466807
0.393400	-4.319445
0.393500	-4.198699
0.393600	-4.147739
0.393700	-4.171433
0.393800	-4.202269
0.393900	-4.216226
0.394000	-4.196427
0.394100	-4.155204
0.394200	-4.120473
0.394300	-4.084120
0.394400	-4.010439
0.394500	-3.867621
0.394600	-3.793291
0.394700	-3.800107
0.394800	-3.783553
0.394900	-3.766675
0.395000	-3.611523
0.395100	-3.501164
0.395200	-3.355750
0.395300	-3.293430
0.395400	-3.282394
0.395500	-3.273955
0.395600	-3.194107
0.395700	-3.124971
0.395800	-3.041552
0.395900	-2.984750
0.396000	-2.973065
0.396100	-2.982478
0.396200	-3.002602
0.396300	-2.944826
0.396400	-2.993839
0.396500	-2.920158
0.396600	-2.894840
0.396700	-2.804281
0.396800	-2.846477
0.396900	-2.826029
0.397000	-2.842907
0.397100	-2.814344
0.397200	-2.719240
0.397300	-2.579020
0.397400	-2.197635
0.397500	-2.131095
0.397600	-2.261578
0.397700	-2.517999
0.397800	-2.539097
0.397900	-2.312537
0.398000	-2.130446
0.398100	-1.951925
0.398200	-1.994446
0.398300	-2.138561
0.398400	-2.243401
0.398500	-2.129797
0.398600	-1.995744
0.398700	-1.902913
0.398800	-1.845462
0.398900	-1.860069
0.399000	-1.956794
0.399100	-1.928231
0.399200	-1.938618
0.399300	-1.931152
0.399400	-1.987305
0.399500	-1.949004
0.399600	-1.996393
0.399700	-2.054169
0.399800	-2.149272
0.399900	-2.119410
0.400000	-2.205425
0.400100	-2.229444
0.400200	-2.228146
0.400300	-2.179783
0.400400	-2.171344
0.400500	-2.339478
0.400600	-2.517025
0.400700	-2.555001
0.400800	-2.363821
0.400900	-2.188547
0.401000	-2.195038
0.401100	-2.340451
0.401200	-2.625111
0.401300	-2.658543
0.401400	-2.609207
0.401500	-2.412184
0.401600	-2.428738
0.401700	-2.542667
0.401800	-2.710801
0.401900	-2.785780
0.402000	-2.799088
0.402100	-2.772797
0.402200	-2.805904
0.402300	-2.913666
0.402400	-2.965275
0.402500	-3.013638
0.402600	-2.973714
0.402700	-3.018507
0.402800	-3.061677
0.402900	-3.074335
0.403000	-3.046746
0.403100	-2.996760
0.403200	-2.973714
0.403300	-2.989944
0.403400	-3.078230
0.403500	-3.049667
0.403600	-3.016235
0.403700	-2.860110
0.403800	-2.858487
0.403900	-2.892893
0.404000	-2.847127
0.404100	-2.818888
0.404200	-2.779938
0.404300	-2.791623
0.404400	-2.789026
0.404500	-2.794544
0.404600	-2.770525
0.404700	-2.806554
0.404800	-2.802009
0.404900	-2.826678
0.405000	-2.845828
0.405100	-2.893542
0.405200	-2.916912
0.405300	-2.953915
0.405400	-3.000979
0.405500	-3.053887
0.405600	-3.082125
0.405700	-3.378147
0.405800	-3.601461
0.405900	-3.524859
0.406000	-3.297650
0.406100	-3.150613
0.406200	-3.230136
0.406300	-3.445660
0.406400	-3.727075
0.406500	-3.741357
0.406600	-3.658588
0.406700	-3.556344
0.406800	-3.609900
0.406900	-3.735839
0.407000	-3.888394
0.407100	-3.924423
0.407200	-3.937407
0.407300	-3.880929
0.407400	-3.882227
0.407500	-3.901053
0.407600	-3.935135
0.407700	-3.938381
0.407800	-3.958505
0.407900	-3.950066
0.408000	-3.960128
0.408100	-4.000701
0.408200	-4.092234
0.408300	-4.033484
0.408400	-3.985446
0.408500	-4.002324
0.408600	-4.060425
0.408700	-4.067241
0.408800	-3.969216
0.408900	-3.854313
0.409000	-3.873139
0.409100	-4.044196
0.409200	-4.238947
0.409300	-4.253878
0.409400	-4.144168
0.409500	-3.912738
0.409600	-3.847497
0.409700	-3.986419
0.409800	-4.150660
0.409900	-4.243816
0.410000	-4.174679
0.410100	-4.066592
0.410200	-4.024071
0.410300	-3.999727
0.410400	-4.050687
0.410500	-4.078926
0.410600	-4.071785
0.410700	-4.079251
0.410800	-4.049064
0.410900	-4.024720
0.411000	-3.935135
0.411100	-3.800756
0.411200	-3.738761
0.411300	-3.709872
0.411400	-3.724479
0.411500	-3.697863
0.411600	-3.673519
0.411700	-3.537193
0.411800	-3.473250
0.411900	-3.321993
0.412000	-3.274604
0.412100	-3.212933
0.412200	-3.212933
0.412300	-3.133734
0.412400	-3.035385
0.412500	-2.972416
0.412600	-2.917237
0.412700	-2.938010
0.412800	-2.895165
0.412900	-2.931843
0.413000	-2.901981
0.413100	-2.917237
0.413200	-2.897437
0.413300	-2.823432
0.413400	-2.852644
0.413500	-2.746830
0.413600	-2.846153
0.413700	-2.773121
0.413800	-2.802983
0.413900	-2.630954
0.414000	-2.522867
0.414100	-2.134341
0.414200	-2.159659
0.414300	-2.371287
0.414400	-2.568958
0.414500	-2.469960
0.414600	-2.293062
0.414700	-2.092794
0.414800	-1.996718
0.414900	-2.153167
0.415000	-2.322275
0.415100	-2.369989
0.415200	-2.311239
0.415300	-2.183029
0.415400	-2.168422
0.415500	-2.176537
0.415600	-2.283974
0.415700	-2.343697
0.415800	-2.333960
0.415900	-2.365444
0.416000	-2.405368
0.416100	-2.381024
0.416200	-2.418027
0.416300	-2.401473
0.416400	-2.468986
0.416500	-2.506638
0.416600	-2.588109
0.416700	-2.607259
0.416800	-2.659192
0.416900	-2.555975
0.417000	-2.527087
0.417100	-2.563765
0.417200	-2.783184
0.417300	-2.954239
0.417400	-2.861084
0.417500	-2.634524
0.417600	-2.572529
0.417700	-2.659842
0.417800	-2.870821
0.417900	-3.026946
0.418000	-2.974688
0.418100	-2.824081
0.418200	-2.686458
0.418300	-2.669255
0.418400	-2.790324
0.418500	-2.873418
0.418600	-2.802659
0.418700	-2.812721
0.418800	-2.758191
0.418900	-2.835442
0.419000	-2.881532
0.419100	-2.906850
0.419200	-2.925676
0.419300	-2.918860
0.419400	-2.948397
0.419500	-2.965275
0.419600	-2.967223
0.419700	-2.943528
0.419800	-2.913991
0.419900	-2.906525
0.420000	-3.001953
0.420100	-3.061027
0.420200	-3.095109
0.420300	-3.024674
0.420400	-2.979557
0.420500	-3.011366
0.420600	-3.029218
0.420700	-3.034087
0.420800	-3.062975
0.420900	-3.079853
0.421000	-3.103223
0.421100	-3.092188
0.421200	-3.115882
0.421300	-3.131138
0.421400	-3.180475
0.421500	-3.187291
0.421600	-3.229162
0.421700	-3.240847
0.421800	-3.286614
0.421900	-3.344390
0.422000	-3.400218
0.422100	-3.477470
0.422200	-3.559590
0.422300	-3.719285
0.422400	-4.008167
0.422500	-4.132808
0.422600	-3.992911
0.422700	-3.863401
0.422800	-3.814714
0.422900	-4.014983
0.423000	-4.264265
0.423100	-4.381441
0.423200	-4.347684
0.423300	-4.176302
0.423400	-4.072110
0.423500	-4.119824
0.423600	-4.260370
0.423700	-4.393775
0.423800	-4.373326
0.423900	-4.348333
0.424000	-4.242193
0.424100	-4.271731
0.424200	-4.288934
0.424300	-4.312304
0.424400	-4.329831
0.424500	-4.284714
0.424600	-4.261344
0.424700	-4.294776
0.424800	-4.363264
0.424900	-4.356123
0.425000	-4.272055
0.425100	-4.247387
0.425200	-4.315550
0.425300	-4.285039
0.425400	-4.269783
0.425500	-4.066917
0.425600	-3.963698
0.425700	-4.031212
0.425800	-4.198699
0.425900	-4.329831
0.426000	-4.259396
0.426100	-4.079576
0.426200	-3.907545
0.426300	-3.893912
0.426400	-4.050038
0.426500	-4.220446
0.426600	-4.301917
0.426700	-4.208112
0.426800	-4.107490
0.426900	-4.085743
0.427000	-4.108788
0.427100	-4.163319
0.427200	-4.226613
0.427300	-4.216551
0.427400	-4.218174
0.427500	-4.164617
0.427600	-4.140922
0.427700	-4.111385
0.427800	-4.003622
0.427900	-3.968567
0.428000	-3.952662
0.428100	-3.933836
0.428200	-3.936109
0.428300	-3.821205
0.428400	-3.667027
0.428500	-3.516744
0.428600	-3.393077
0.428700	-3.401841
0.428800	-3.362242
0.428900	-3.296676
0.429000	-3.172035
0.429100	-3.050316
0.429200	-2.963652
0.429300	-2.904253
0.429400	-2.903280
0.429500	-2.897112
0.429600	-2.887375
0.429700	-2.888349
0.429800	-2.914965
0.429900	-2.849399
0.430000	-2.832845
0.430100	-2.838038
0.430200	-2.866277
0.430300	-2.899709
0.430400	-2.934764
0.430500	-2.970144
0.430600	-2.902630
0.430700	-2.668281
0.430800	-2.474829
0.430900	-2.554677
0.431000	-2.839012
0.431100	-2.969170
0.431200	-2.813370
0.431300	-2.672500
0.431400	-2.516700
0.431500	-2.484242
0.431600	-2.605961
0.431700	-2.746181
0.431800	-2.721188
0.431900	-2.582591
0.432000	-2.448538
0.432100	-2.388814
0.432200	-2.391086
0.432300	-2.482619
0.432400	-2.477750
0.432500	-2.460547
0.432600	-2.416729
0.432700	-2.424519
0.432800	-2.382972
0.432900	-2.391411
0.433000	-2.424519
0.433100	-2.424519
0.433200	-2.489111
0.433300	-2.489760
0.433400	-2.521894
0.433500	-2.529359
0.433600	-2.459249
0.433700	-2.457951
0.433800	-2.484891
0.433900	-2.731899
0.434000	-2.736768
0.434100	-2.636472
0.434200	-2.394657
0.434300	-2.342074
0.434400	-2.415106
0.434500	-2.658219
0.434600	-2.758840
0.434700	-2.696195
0.434800	-2.538447
0.434900	-2.399201
0.435000	-2.481645
0.435100	-2.621541
0.435200	-2.739689
0.435300	-2.748453
0.435400	-2.777666
0.435500	-2.712424
0.435600	-2.759164
0.435700	-2.839337
0.435800	-2.893867
0.435900	-2.882182
0.436000	-2.874067
0.436100	-2.896139
0.436200	-2.915614
0.436300	-2.918210
0.436400	-2.923079
0.436500	-2.926974
0.436600	-2.943528
0.436700	-3.060054
0.436800	-3.089266
0.436900	-3.110364
0.437000	-3.091214
0.437100	-2.965275
0.437200	-3.027271
0.437300	-3.025323
0.437400	-3.004225
0.437500	-3.007471
0.437600	-2.975337
0.437700	-2.994163
0.437800	-2.961380
0.437900	-2.988970
0.438000	-2.992865
0.438100	-2.978259
0.438200	-2.992540
0.438300	-2.984750
0.438400	-3.006822
0.438500	-3.010068
0.438600	-3.028894
0.438700	-3.076932
0.438800	-3.113610
0.438900	-3.171062
0.439000	-3.300571
0.439100	-3.598540
0.439200	-3.586530
0.439300	-3.450529
0.439400	-3.250909
0.439500	-3.273630
0.439600	-3.471627
0.439700	-3.709548
0.439800	-3.860805
0.439900	-3.748174
0.440000	-3.592373
0.440100	-3.527780
0.440200	-3.654044
0.440300	-3.757587
0.440400	-3.874113
0.440500	-3.899755
0.440600	-3.897158
0.440700	-3.885798
0.440800	-3.880280
0.440900	-3.963049
0.441000	-4.003622
0.441100	-4.009790
0.441200	-4.042248
0.441300	-4.040301
0.441400	-4.063671
0.441500	-4.167214
0.441600	-4.133132
0.441700	-4.129237
0.441800	-4.140598
0.441900	-4.192207
0.442000	-4.222718
0.442100	-4.144817
0.442200	-4.059127
0.442300	-4.012711
0.442400	-4.143844
0.442500	-4.374624
0.442600	-4.463886
0.442700	-4.444411
0.442800	-4.216875
0.442900	-4.127939
0.443000	-4.226288
0.443100	-4.421040
0.443200	-4.604756
0.443300	-4.601186
0.443400	-4.518092
0.443500	-4.454473
0.443600	-4.452850
0.443700	-4.490826
0.443800	-4.526531
0.443900	-4.526856
0.444000	-4.530751
0.444100	-4.529777
0.444200	-4.510626
0.444300	-4.427532
0.444400	-4.309058
0.444500	-4.209410
0.444600	-4.179223
0.444700	-4.202269
0.444800	-4.226288
0.444900	-4.225964
0.445000	-4.094506
0.445100	-4.014658
0.445200	-4.008816
0.445300	-3.853988
0.445400	-3.850093
0.445500	-3.806274
0.445600	-3.712794
0.445700	-3.598215
0.445800	-3.488830
0.445900	-3.401192
0.446000	-3.351855
0.446100	-3.273630
0.446200	-3.234356
0.446300	-3.202546
0.446400	-3.216179
0.446500	-3.149639
0.446600	-3.071090
0.446700	-3.041228
0.446800	-2.993189
0.446900	-3.008769
0.447000	-3.009419
0.447100	-2.946774
0.447200	-2.870497
0.447300	-2.682887
0.447400	-2.466714
0.447500	-2.290141
0.447600	-2.489760
0.447700	-2.783833
0.447800	-2.758840
0.447900	-2.525464
0.448000	-2.339153
0.448100	-2.145377
0.448200	-2.204451
0.448300	-2.401798
0.448400	-2.504691
0.448500	-2.454705
0.448600	-2.320327
0.448700	-2.251840
0.448800	-2.193091
0.448900	-2.316757
0.449000	-2.291115
0.449100	-2.339802
0.449200	-2.366094
0.449300	-2.368366
0.449400	-2.381998
0.449500	-2.376480
0.449600	-2.356356
0.449700	-2.417053
0.449800	-2.457951
0.449900	-2.533254
0.450000	-2.488137
0.450100	-2.540395
0.450200	-2.500796
0.450300	-2.397903
0.450400	-2.448862
0.450500	-2.561168
0.450600	-2.772797
0.450700	-2.749102
0.450800	-2.615698
0.450900	-2.423220
0.451000	-2.461846
0.451100	-2.653675
0.451200	-2.949371
0.451300	-2.993514
0.451400	-2.908798
0.451500	-2.746830
0.451600	-2.730276
0.451700	-2.876664
0.451800	-3.012664
0.451900	-3.029867
0.452000	-3.009094
0.452100	-3.005524
0.452200	-3.053237
0.452300	-3.181773
0.452400	-3.199625
0.452500	-3.210661
0.452600	-3.171386
0.452700	-3.242146
0.452800	-3.300246
0.452900	-3.322643
0.453000	-3.303167
0.453100	-3.276876
0.453200	-3.257076
0.453300	-3.324915
0.453400	-3.445336
0.453500	-3.495971
0.453600	-3.465784
0.453700	-3.340170
0.453800	-3.360944
0.453900	-3.406385
0.454000	-3.392104
0.454100	-3.376199
0.454200	-3.342118
0.454300	-3.339846
0.454400	-3.354127
0.454500	-3.361268
0.454600	-3.360619
0.454700	-3.372629
0.454800	-3.410605
0.454900	-3.425536
0.455000	-3.446634
0.455100	-3.452152
0.455200	-3.474224
0.455300	-3.492076
0.455400	-3.507656
0.455500	-3.572898
0.455600	-3.621261
0.455700	-3.905598
0.455800	-4.135404
0.455900	-4.128588
0.456000	-3.965646
0.456100	-3.789071
0.456200	-3.900080
0.456300	-4.159424
0.456400	-4.450902
0.456500	-4.482387
0.456600	-4.365861
0.456700	-4.217525
0.456800	-4.229859
0.456900	-4.376247
0.457000	-4.537567
0.457100	-4.559314
0.457200	-4.561262
0.457300	-4.519066
0.457400	-4.515820
0.457500	-4.512574
0.457600	-4.565806
0.457700	-4.579114
0.457800	-4.560937
0.457900	-4.560937
0.458000	-4.579439
0.458100	-4.563209
0.458200	-4.591124
0.458300	-4.524259
0.458400	-4.508354
0.458500	-4.493423
0.458600	-4.492125
0.458700	-4.475571
0.458800	-4.336648
0.458900	-4.169486
0.459000	-4.091585
0.459100	-4.232456
0.459200	-4.418444
0.459300	-4.497643
0.459400	-4.316523
0.459500	-4.062697
0.459600	-3.940653
0.459700	-4.058153
0.459800	-4.274327
0.459900	-4.351579
0.460000	-4.265888
0.460100	-4.095480
0.460200	-4.002324
0.460300	-3.979603
0.460400	-4.001675
0.460500	-3.994859
0.460600	-3.966620
0.460700	-3.914037
0.460800	-3.844900
0.460900	-3.801730
0.461000	-3.689099
0.461100	-3.547255
0.461200	-3.464811
0.461300	-3.412228
0.461400	-3.388533
0.461500	-3.409307
0.461600	-3.353154
0.461700	-3.210985
0.461800	-3.168140
0.461900	-3.058431
0.462000	-2.988970
0.462100	-2.927299
0.462200	-2.926325
0.462300	-2.847776
0.462400	-2.757866
0.462500	-2.661140
0.462600	-2.592653
0.462700	-2.606285
0.462800	-2.595899
0.462900	-2.614400
0.463000	-2.616023
0.463100	-2.612128
0.463200	-2.580643
0.463300	-2.524166
0.463400	-2.555001
0.463500	-2.519297
0.463600	-2.576748
0.463700	-2.598171
0.463800	-2.663737
0.463900	-2.677694
0.464000	-2.531307
0.464100	-2.375506
0.464200	-2.322599
0.464300	-2.659192
0.464400	-2.957485
0.464500	-2.918860
0.464600	-2.746181
0.464700	-2.547860
0.464800	-2.542018
0.464900	-2.586810
0.465000	-2.830573
0.465100	-2.847776
0.465200	-2.747479
0.465300	-2.662438
0.465400	-2.555001
0.465500	-2.613426
0.465600	-2.649455
0.465700	-2.691651
0.465800	-2.677369
0.465900	-2.715670
0.466000	-2.704959
0.466100	-2.722162
0.466200	-2.718591
0.466300	-2.774744
0.466400	-2.811747
0.466500	-2.934115
0.466600	-2.874716
0.466700	-2.913017
0.466800	-2.964626
0.466900	-2.871146
0.467000	-2.858812
0.467100	-2.834792
0.467200	-3.015586
0.467300	-3.173334
0.467400	-3.125295
0.467500	-2.866277
0.467600	-2.751374
0.467700	-2.734171
0.467800	-2.996435
0.467900	-3.150613
0.468000	-3.115882
0.468100	-2.925351
0.468200	-2.785780
0.468300	-2.811422
0.468400	-2.956511
0.468500	-3.013638
0.468600	-2.950669
0.468700	-2.932817
0.468800	-2.882506
0.468900	-2.956187
0.469000	-2.991566
0.469100	-2.986049
0.469200	-2.957810
0.469300	-2.935738
0.469400	-3.018507
0.469500	-3.056483
0.469600	-3.044798
0.469700	-3.011042
0.469800	-2.980206
0.469900	-2.973390
0.470000	-3.061027
0.470100	-3.125944
0.470200	-3.122374
0.470300	-3.092188
0.470400	-2.970793
0.470500	-3.041228
0.470600	-3.087968
0.470700	-3.077906
0.470800	-3.115882
0.470900	-3.132761
0.471000	-3.175281
0.471100	-3.170737
0.471200	-3.175281
0.471300	-3.193782
0.471400	-3.176904
0.471500	-3.186642
0.471600	-3.196379
0.471700	-3.198002
0.471800	-3.202546
0.471900	-3.187940
0.472000	-3.235978
0.472100	-3.236952
0.472200	-3.295377
0.472300	-3.437221
0.472400	-3.703381
0.472500	-3.811143
0.472600	-3.664106
0.472700	-3.539790
0.472800	-3.403789
0.472900	-3.633595
0.473000	-3.898457
0.473100	-4.109437
0.473200	-4.062697
0.473300	-3.920853
0.473400	-3.839057
0.473500	-3.879955
0.473600	-4.031212
0.473700	-4.190909
0.473800	-4.201620
0.473900	-4.204541
0.474000	-4.159099
0.474100	-4.164292
0.474200	-4.196102
0.474300	-4.220446
0.474400	-4.266213
0.474500	-4.294452
0.474600	-4.333077
0.474700	-4.366185
0.474800	-4.450902
0.474900	-4.449279
0.475000	-4.463237
0.475100	-4.468430
0.475200	-4.556393
0.475300	-4.590799
0.475400	-4.621635
0.475500	-4.487905
0.475600	-4.392477
0.475700	-4.489853
0.475800	-4.707651
0.475900	-4.877085
0.476000	-4.889744
0.476100	-4.691097
0.476200	-4.525557
0.476300	-4.538865
0.476400	-4.724529
0.476500	-4.909544
0.476600	-4.931616
0.476700	-4.827099
0.476800	-4.682008
0.476900	-4.636566
0.477000	-4.634943
0.477100	-4.655392
0.477200	-4.606379
0.477300	-4.522961
0.477400	-4.490826
0.477500	-4.411952
0.477600	-4.351254
0.477700	-4.204217
0.477800	-4.024071
0.477900	-3.919555
0.478000	-3.883850
0.478100	-3.864051
0.478200	-3.830294
0.478300	-3.708574
0.478400	-3.525508
0.478500	-3.458968
0.478600	-3.229162
0.478700	-3.236628
0.478800	-3.205468
0.478900	-3.122049
0.479000	-3.024025
0.479100	-2.919184
0.479200	-2.799737
0.479300	-2.765007
0.479400	-2.728978
0.479500	-2.691002
0.479600	-2.614075
0.479700	-2.600767
0.479800	-2.562142
0.479900	-2.495927
0.480000	-2.494304
0.480100	-2.410886
0.480200	-2.450161
0.480300	-2.366743
0.480400	-2.409263
0.480500	-2.379726
0.480600	-2.299554
0.480700	-2.088250
0.480800	-1.864937
0.480900	-1.974322
0.481000	-2.293711
0.481100	-2.446590
0.481200	-2.323573
0.481300	-2.134341
0.481400	-2.032747
0.481500	-1.914274
0.481600	-2.103506
0.481700	-2.154790
0.481800	-2.180432
0.481900	-2.048651
0.482000	-1.984059
0.482100	-1.908431
0.482200	-1.957443
0.482300	-1.994121
0.482400	-2.007105
0.482500	-2.009377
0.482600	-1.995095
0.482700	-2.009377
0.482800	-2.019114
0.482900	-2.038589
0.483000	-2.065530
0.483100	-2.184652
0.483200	-2.187248
0.483300	-2.260279
0.483400	-2.295010
0.483500	-2.381349
0.483600	-2.292413
0.483700	-2.348566
0.483800	-2.367716
0.483900	-2.711126
0.484000	-2.764033
0.484100	-2.706906
0.484200	-2.445616
0.484300	-2.430036
0.484400	-2.550782
0.484500	-2.824730
0.484600	-2.947098
0.484700	-2.864654
0.484800	-2.660166
0.484900	-2.583889
0.485000	-2.627383
0.485100	-2.791298
0.485200	-2.825379
0.485300	-2.772472
0.485400	-2.725732
0.485500	-2.666658
0.485600	-2.773446
0.485700	-2.800711
0.485800	-2.842258
0.485900	-2.761436
0.486000	-2.711126
0.486100	-2.727030
0.486200	-2.734496
0.486300	-2.703660
0.486400	-2.660491
0.486500	-2.615698
0.486600	-2.639717
0.486700	-2.764358
0.486800	-2.814344
0.486900	-2.850372
0.487000	-2.727680
0.487100	-2.740663
0.487200	-2.811747
0.487300	-2.831222
0.487400	-2.849074
0.487500	-2.852320
0.487600	-2.896788
0.487700	-2.908148
0.487800	-2.937685
0.487900	-2.974363
0.488000	-2.989944
0.488100	-3.026946
0.488200	-3.008445
0.488300	-3.023051
0.488400	-3.016235
0.488500	-3.029218
0.488600	-2.992865
0.488700	-3.036034
0.488800	-3.042526
0.488900	-3.048044
0.489000	-3.251234
0.489100	-3.467083
0.489200	-3.511226
0.489300	-3.289860
0.489400	-3.143147
0.489500	-3.099653
0.489600	-3.330108
0.489700	-3.571275
0.489800	-3.681958
0.489900	-3.617366
0.490000	-3.438519
0.490100	-3.382691
0.490200	-3.484935
0.490300	-3.631972
0.490400	-3.732918
0.490500	-3.767649
0.490600	-3.766675
0.490700	-3.700784
0.490800	-3.729348
0.490900	-3.805301
0.491000	-3.835162
0.491100	-3.874437
0.491200	-3.887421
0.491300	-3.894886
0.491400	-3.954285
0.491500	-3.996157
0.491600	-4.051661
0.491700	-4.051012
0.491800	-4.076005
0.491900	-4.169810
0.492000	-4.196427
0.492100	-4.175653
0.492200	-4.053609
0.492300	-4.003298
0.492400	-4.114955
0.492500	-4.343789
0.492600	-4.474922
0.492700	-4.420067
0.492800	-4.188961
0.492900	-4.064645
0.493000	-4.144817
0.493100	-4.379818
0.493200	-4.537242
0.493300	-4.528154
0.493400	-4.402539
0.493500	-4.316523
0.493600	-4.303865
0.493700	-4.334700
0.493800	-4.361641
0.493900	-4.367808
0.494000	-4.336972
0.494100	-4.325287
0.494200	-4.278547
0.494300	-4.204541
0.494400	-4.077303
0.494500	-3.972787
0.494600	-3.938705
0.494700	-3.943249
0.494800	-3.925073
0.494900	-3.932214
0.495000	-3.792642
0.495100	-3.712469
0.495200	-3.705653
0.495300	-3.518043
0.495400	-3.542387
0.495500	-3.541413
0.495600	-3.478768
0.495700	-3.371979
0.495800	-3.267139
0.495900	-3.223969
0.496000	-3.205143
0.496100	-3.235005
0.496200	-3.197678
0.496300	-3.210661
0.496400	-3.206441
0.496500	-3.155157
0.496600	-3.103548
0.496700	-3.102250
0.496800	-3.110689
0.496900	-3.111013
0.497000	-3.169439
0.497100	-3.130813
0.497200	-3.125944
0.497300	-2.885752
0.497400	-2.818239
0.497500	-2.493006
0.497600	-2.811098
0.497700	-3.016559
0.497800	-3.032464
0.497900	-2.802659
0.498000	-2.572204
0.498100	-2.475478
0.498200	-2.510858
0.498300	-2.622839
0.498400	-2.739365
0.498500	-2.673799
0.498600	-2.543641
0.498700	-2.392060
0.498800	-2.375831
0.498900	-2.429387
0.499000	-2.463469
0.499100	-2.502094
0.499200	-2.533254
0.499300	-2.525789
0.499400	-2.552080
0.499500	-2.556949
0.499600	-2.562467
0.499700	-2.573827
0.499800	-2.738066
0.499900	-2.682563
0.500000	-2.755594
0.500100	-2.727030
0.500200	-2.741637
0.500300	-2.640042
0.500400	-2.644262
0.500500	-2.757866
0.500600	-2.938335
0.500700	-2.922430
0.500800	-2.795518
0.500900	-2.621216
0.501000	-2.616347
0.501100	-2.780262
0.501200	-3.007796
0.501300	-3.038307
0.501400	-2.919509
0.501500	-2.730276
0.501600	-2.732873
0.501700	-2.836415
0.501800	-2.914315
0.501900	-2.947423
0.502000	-2.913342
0.502100	-2.898411
0.502200	-2.891270
0.502300	-2.946774
0.502400	-3.021428
0.502500	-3.058106
0.502600	-3.055185
0.502700	-3.074660
0.502800	-3.131138
0.502900	-3.161649
0.503000	-3.150613
0.503100	-3.155157
0.503200	-3.120751
0.503300	-3.170737
0.503400	-3.320046
0.503500	-3.334652
0.503600	-3.338223
0.503700	-3.191510
0.503800	-3.246041
0.503900	-3.318423
0.504000	-3.282394
0.504100	-3.293430
0.504200	-3.320046
0.504300	-3.333354
0.504400	-3.348609
0.504500	-3.383015
0.504600	-3.398271
0.504700	-3.412553
0.504800	-3.438195
0.504900	-3.473250
0.505000	-3.486882
0.505100	-3.503761
0.505200	-3.513823
0.505300	-3.523561
0.505400	-3.543360
0.505500	-3.594969
0.505600	-3.706627
0.505700	-3.894237
0.505800	-4.151958
0.505900	-4.056205
0.506000	-3.862428
0.506100	-3.680660
0.506200	-3.775439
0.506300	-3.977980
0.506400	-4.273353
0.506500	-4.257449
0.506600	-4.106192
0.506700	-3.932214
0.506800	-3.912738
0.506900	-4.067890
0.507000	-4.162020
0.507100	-4.223043
0.507200	-4.151309
0.507300	-4.062372
0.507400	-4.035756
0.507500	-4.049064
0.507600	-4.068215
0.507700	-4.071461
0.507800	-4.057504
0.507900	-4.031861
0.508000	-4.102621
0.508100	-4.158450
0.508200	-4.158450
0.508300	-4.100998
0.508400	-4.146440
0.508500	-4.197076
0.508600	-4.261668
0.508700	-4.285363
0.508800	-4.187987
0.508900	-4.069189
0.509000	-4.112359
0.509100	-4.287311
0.509200	-4.480440
0.509300	-4.566131
0.509400	-4.435647
0.509500	-4.229534
0.509600	-4.216875
0.509700	-4.381441
0.509800	-4.581386
0.509900	-4.702457
0.510000	-4.654743
0.510100	-4.558341
0.510200	-4.518092
0.510300	-4.560288
0.510400	-4.636241
0.510500	-4.693044
0.510600	-4.692070
0.510700	-4.677139
0.510800	-4.651822
0.510900	-4.651497
0.511000	-4.582685
0.511100	-4.452525
0.511200	-4.340218
0.511300	-4.311655
0.511400	-4.337622
0.511500	-4.321717
0.511600	-4.279845
0.511700	-4.095805
0.511800	-4.014334
0.511900	-3.807897
0.512000	-3.808871
0.512100	-3.777711
0.512200	-3.698512
0.512300	-3.570301
0.512400	-3.467732
0.512500	-3.318423
0.512600	-3.244742
0.512700	-3.212608
0.512800	-3.194107
0.512900	-3.154832
0.513000	-3.111338
0.513100	-3.130489
0.513200	-3.048369
0.513300	-3.007796
0.513400	-2.993189
0.513500	-2.932817
0.513600	-2.976311
0.513700	-2.916588
0.513800	-2.976636
0.513900	-2.833169
0.514000	-2.792921
0.514100	-2.386867
0.514200	-2.449511
0.514300	-2.564414
0.514400	-2.886726
0.514500	-2.685808
0.514600	-2.509235
0.514700	-2.294036
0.514800	-2.190169
0.514900	-2.370313
0.515000	-2.478399
0.515100	-2.544290
0.515200	-2.394981
0.515300	-2.229119
0.515400	-2.096365
0.515500	-2.171019
0.515600	-2.212241
0.515700	-2.271964
0.515800	-2.203802
0.515900	-2.205749
0.516000	-2.193740
0.516100	-2.215811
0.516200	-2.233988
0.516300	-2.219382
0.516400	-2.269043
0.516500	-2.349540
0.516600	-2.400824
0.516700	-2.442695
0.516800	-2.484242
0.516900	-2.428414
0.517000	-2.384270
0.517100	-2.444318
0.517200	-2.669255
0.517300	-2.828301
0.517400	-2.772148
0.517500	-2.613751
0.517600	-2.434905
0.517700	-2.513779
0.517800	-2.715021
0.517900	-2.902306
0.518000	-2.873093
0.518100	-2.736443
0.518200	-2.569283
0.518300	-2.572204
0.518400	-2.727680
0.518500	-2.859136
0.518600	-2.850697
0.518700	-2.883480
0.518800	-2.851671
0.518900	-2.944177
0.519000	-3.021753
0.519100	-3.091863
0.519200	-3.125620
0.519300	-3.129190
0.519400	-3.169114
0.519500	-3.210985
0.519600	-3.226890
0.519700	-3.186642
0.519800	-3.160999
0.519900	-3.173983
0.520000	-3.305764
0.520100	-3.402490
0.520200	-3.402490
0.520300	-3.264542
0.520400	-3.254155
0.520500	-3.301220
0.520600	-3.320370
0.520700	-3.310958
0.520800	-3.263893
0.520900	-3.284017
0.521000	-3.290833
0.521100	-3.285965
0.521200	-3.283692
0.521300	-3.258699
0.521400	-3.292132
0.521500	-3.303167
0.521600	-3.315502
0.521700	-3.328161
0.521800	-3.329134
0.521900	-3.356399
0.522000	-3.376848
0.522100	-3.398595
0.522200	-3.405412
0.522300	-3.535570
0.522400	-3.775763
0.522500	-3.959479
0.522600	-3.832566
0.522700	-3.629051
0.522800	-3.519990
0.522900	-3.675142
0.523000	-3.979278
0.523100	-4.160722
0.523200	-4.133457
0.523300	-3.943574
0.523400	-3.861129
0.523500	-3.969541
0.523600	-4.157152
0.523700	-4.337622
0.523800	-4.359044
0.523900	-4.337622
0.524000	-4.271731
0.524100	-4.281144
0.524200	-4.336323
0.524300	-4.377870
0.524400	-4.400267
0.524500	-4.388582
0.524600	-4.394749
0.524700	-4.395723
0.524800	-4.461289
0.524900	-4.432725
0.525000	-4.424935
0.525100	-4.428506
0.525200	-4.497643
0.525300	-4.546331
0.525400	-4.530426
0.525500	-4.396047
0.525600	-4.319769
0.525700	-4.422988
0.525800	-4.578790
0.525900	-4.778411
0.526000	-4.801456
0.526100	-4.620661
0.526200	-4.452525
0.526300	-4.462587
0.526400	-4.637215
0.526500	-4.838459
0.526600	-4.932265
0.526700	-4.867672
0.526800	-4.727450
0.526900	-4.651497
0.527000	-4.682657
0.527100	-4.727126
0.527200	-4.761532
0.527300	-4.735565
0.527400	-4.699536
0.527500	-4.657340
0.527600	-4.611248
0.527700	-4.536918
0.527800	-4.388582
0.527900	-4.292504
0.528000	-4.249659
0.528100	-4.226288
0.528200	-4.200971
0.528300	-4.052310
0.528400	-3.899430
0.528500	-3.837759
0.528600	-3.610874
0.528700	-3.584583
0.528800	-3.514797
0.528900	-3.445336
0.529000	-3.321020
0.529100	-3.234680
0.529200	-3.108417
0.529300	-3.024025
0.529400	-3.000006
0.529500	-3.019481
0.529600	-2.974688
0.529700	-3.015261
0.529800	-2.923404
0.529900	-2.907175
0.530000	-2.808501
0.530100	-2.823432
0.530200	-2.775393
0.530300	-2.790000
0.530400	-2.776367
0.530500	-2.720863
0.530600	-2.648157
0.530700	-2.318704
0.530800	-2.148298
0.530900	-2.176862
0.531000	-2.514104
0.531100	-2.611154
0.531200	-2.436204
0.531300	-2.226847
0.531400	-2.010675
0.531500	-1.998990
0.531600	-2.142456
0.531700	-2.280079
0.531800	-2.299229
0.531900	-2.120384
0.532000	-1.936995
0.532100	-1.908107
0.532200	-1.943486
0.532300	-1.941863
0.532400	-1.964260
0.532500	-1.944460
0.532600	-1.939916
0.532700	-1.932451
0.532800	-1.926608
0.532900	-1.924661
0.533000	-1.934398
0.533100	-1.899992
0.533200	-2.088250
0.533300	-2.041510
0.533400	-2.141482
0.533500	-2.093119
0.533600	-2.086303
0.533700	-2.026580
0.533800	-2.131095
0.533900	-2.408614
0.534000	-2.464118
0.534100	-2.367716
0.534200	-2.197959
0.534300	-2.101234
0.534400	-2.206723
0.534500	-2.454380
0.534600	-2.592977
0.534700	-2.556299
0.534800	-2.408939
0.534900	-2.311239
0.535000	-2.378752
0.535100	-2.503068
0.535200	-2.614400
0.535300	-2.571230
0.535400	-2.606285
0.535500	-2.568958
0.535600	-2.654973
0.535700	-2.707555
0.535800	-2.735794
0.535900	-2.771174
0.536000	-2.793570
0.536100	-2.806229
0.536200	-2.842258
0.536300	-2.832845
0.536400	-2.814344
0.536500	-2.805255
0.536600	-2.852320
0.536700	-2.980855
0.536800	-3.034087
0.536900	-3.027271
0.537000	-2.924702
0.537100	-2.954564
0.537200	-3.025648
0.537300	-3.037982
0.537400	-3.035385
0.537500	-3.056808
0.537600	-3.072388
0.537700	-3.087968
0.537800	-3.083748
0.537900	-3.103873
0.538000	-3.139252
0.538100	-3.194107
0.538200	-3.220398
0.538300	-3.231110
0.538400	-3.252532
0.538500	-3.268762
0.538600	-3.272981
0.538700	-3.281096
0.538800	-3.340170
0.538900	-3.361917
0.539000	-3.559590
0.539100	-3.788098
0.539200	-3.858857
0.539300	-3.622234
0.539400	-3.397297
0.539500	-3.401841
0.539600	-3.652745
0.539700	-3.925073
0.539800	-4.049389
0.539900	-3.902027
0.540000	-3.737462
0.540100	-3.649500
0.540200	-3.775439
0.540300	-3.967918
0.540400	-4.084444
0.540500	-4.060425
0.540600	-4.032835
0.540700	-3.982524
0.540800	-3.973436
0.540900	-4.022773
0.541000	-4.013685
0.541100	-4.013035
0.541200	-4.005570
0.541300	-4.035107
0.541400	-4.104569
0.541500	-4.132158
0.541600	-4.122421
0.541700	-4.113982
0.541800	-4.135080
0.541900	-4.187987
0.542000	-4.225315
0.542100	-4.198374
0.542200	-4.043871
0.542300	-4.007193
0.542400	-4.118526
0.542500	-4.314251
0.542600	-4.468430
0.542700	-4.408057
0.542800	-4.217200
0.542900	-4.104569
0.543000	-4.171109
0.543100	-4.390205
0.543200	-4.565157
0.543300	-4.566780
0.543400	-4.459991
0.543500	-4.367808
0.543600	-4.355798
0.543700	-4.375923
0.543800	-4.384037
0.543900	-4.386959
0.544000	-4.348982
0.544100	-4.320094
0.544200	-4.284389
0.544300	-4.210384
0.544400	-4.059127
0.544500	-3.913388
0.544600	-3.844575
0.544700	-3.819907
0.544800	-3.780307
0.544900	-3.748174
0.545000	-3.610225
0.545100	-3.492076
0.545200	-3.381717
0.545300	-3.288561
0.545400	-3.285640
0.545500	-3.271358
0.545600	-3.200599
0.545700	-3.121725
0.545800	-3.010717
0.545900	-2.974039
0.546000	-2.951318
0.546100	-2.965924
0.546200	-2.956187
0.546300	-2.935413
0.546400	-2.990917
0.546500	-2.942230
0.546600	-2.925676
0.546700	-2.888673
0.546800	-2.919184
0.546900	-2.923404
0.547000	-2.957485
0.547100	-3.001304
0.547200	-2.994812
0.547300	-2.792596
0.547400	-2.613426
0.547500	-2.426141
0.547600	-2.693274
0.547700	-2.892244
0.547800	-3.073686
0.547900	-2.828625
0.548000	-2.587459
0.548100	-2.460872
0.548200	-2.505340
0.548300	-2.669904
0.548400	-2.774420
0.548500	-2.762735
0.548600	-2.605961
0.548700	-2.439449
0.548800	-2.431659
0.548900	-2.446266
0.549000	-2.465091
0.549100	-2.440748
0.549200	-2.472881
0.549300	-2.453731
0.549400	-2.429712
0.549500	-2.441721
0.549600	-2.445292
0.549700	-2.435230
0.549800	-2.484242
0.549900	-2.626410
0.550000	-2.615374
0.550100	-2.624787
0.550200	-2.602066
0.550300	-2.530008
0.550400	-2.549159
0.550500	-2.633875
0.550600	-2.834468
0.550700	-2.833819
0.550800	-2.721837
0.550900	-2.491707
0.551000	-2.530008
0.551100	-2.688080
0.551200	-2.917237
0.551300	-2.965600
0.551400	-2.891919
0.551500	-2.726057
0.551600	-2.678992
0.551700	-2.796491
0.551800	-2.914965
0.551900	-2.919509
0.552000	-2.878611
0.552100	-2.893542
0.552200	-2.891595
0.552300	-2.947423
0.552400	-2.975013
0.552500	-2.971442
0.552600	-2.955538
0.552700	-2.962354
0.552800	-3.035385
0.552900	-3.046097
0.553000	-3.051615
0.553100	-3.062001
0.553200	-3.036359
0.553300	-3.112961
0.553400	-3.228513
0.553500	-3.259673
0.553600	-3.270384
0.553700	-3.262594
0.553800	-3.223320
0.553900	-3.276876
0.554000	-3.270384
0.554100	-3.286938
0.554200	-3.282719
0.554300	-3.293430
0.554400	-3.290833
0.554500	-3.286938
0.554600	-3.310958
0.554700	-3.308036
0.554800	-3.305115
0.554900	-3.311282
0.555000	-3.349259
0.555100	-3.336924
0.555200	-3.342118
0.555300	-3.338223
0.555400	-3.387560
0.555500	-3.429106
0.555600	-3.522262
0.555700	-3.733567
0.555800	-3.957856
0.555900	-3.876385
0.556000	-3.673519
0.556100	-3.478119
0.556200	-3.583284
0.556300	-3.867296
0.556400	-4.116254
0.556500	-4.103270
0.556600	-3.962075
0.556700	-3.810169
0.556800	-3.802379
0.556900	-3.926371
0.557000	-4.074058
0.557100	-4.090611
0.557200	-4.055556
0.557300	-3.989990
0.557400	-3.975383
0.557500	-3.992262
0.557600	-4.010439
0.557700	-3.978305
0.557800	-3.951364
0.557900	-3.915011
0.558000	-3.936109
0.558100	-3.988367
0.558200	-3.955259
0.558300	-3.915335
0.558400	-3.878657
0.558500	-3.892614
0.558600	-3.887745
0.558700	-3.843602
0.558800	-3.736488
0.558900	-3.567380
0.559000	-3.570950
0.559100	-3.683906
0.559200	-3.874437
0.559300	-3.952987
0.559400	-3.774465
0.559500	-3.566730
0.559600	-3.513174
0.559700	-3.618015
0.559800	-3.826399
0.559900	-3.928968
0.560000	-3.895211
0.560100	-3.777386
0.560200	-3.705328
0.560300	-3.719610
0.560400	-3.756613
0.560500	-3.772842
0.560600	-3.799783
0.560700	-3.781930
0.560800	-3.757911
0.560900	-3.743629
0.561000	-3.672221
0.561100	-3.598540
0.561200	-3.508630
0.561300	-3.486233
0.561400	-3.488181
0.561500	-3.459617
0.561600	-3.412877
0.561700	-3.249611
0.561800	-3.212608
0.561900	-3.025323
0.562000	-3.041228
0.562100	-3.018832
0.562200	-2.981180
0.562300	-2.880234
0.562400	-2.801685
0.562500	-2.711775
0.562600	-2.682563
0.562700	-2.639068
0.562800	-2.678018
0.562900	-2.618295
0.563000	-2.653675
0.563100	-2.647832
0.563200	-2.608882
0.563300	-2.588758
0.563400	-2.571555
0.563500	-2.624787
0.563600	-2.589082
0.563700	-2.675422
0.563800	-2.682563
0.563900	-2.595574
0.564000	-2.421922
0.564100	-2.136613
0.564200	-2.161931
0.564300	-2.392385
0.564400	-2.749751
0.564500	-2.636472
0.564600	-2.508261
0.564700	-2.237559
0.564800	-2.246647
0.564900	-2.328117
0.565000	-2.484567
0.565100	-2.625111
0.565200	-2.496901
0.565300	-2.382972
0.565400	-2.332337
0.565500	-2.354084
0.565600	-2.426141
0.565700	-2.397254
0.565800	-2.379401
0.565900	-2.366743
0.566000	-2.357654
0.566100	-2.361549
0.566200	-2.368041
0.566300	-2.336232
0.566400	-2.360251
0.566500	-2.421273
0.566600	-2.478724
0.566700	-2.457951
0.566800	-2.455354
0.566900	-2.349215
0.567000	-2.348241
0.567100	-2.398876
0.567200	-2.566037
0.567300	-2.765656
0.567400	-2.619593
0.567500	-2.414132
0.567600	-2.259306
0.567700	-2.296308
0.567800	-2.525789
0.567900	-2.710477
0.568000	-2.646209
0.568100	-2.536175
0.568200	-2.352136
0.568300	-2.422896
0.568400	-2.572204
0.568500	-2.715670
0.568600	-2.696520
0.568700	-2.713073
0.568800	-2.681913
0.568900	-2.790324
0.569000	-2.881532
0.569100	-2.934115
0.569200	-2.957810
0.569300	-2.976960
0.569400	-3.050316
0.569500	-3.144121
0.569600	-3.230461
0.569700	-3.217477
0.569800	-3.244742
0.569900	-3.263568
0.570000	-3.427808
0.570100	-3.570301
0.570200	-3.594320
0.570300	-3.614769
0.570400	-3.546606
0.570500	-3.626779
0.570600	-3.645280
0.570700	-3.649824
0.570800	-3.680660
0.570900	-3.654368
0.571000	-3.648526
0.571100	-3.672545
0.571200	-3.644306
0.571300	-3.677414
0.571400	-3.677089
0.571500	-3.693968
0.571600	-3.672545
0.571700	-3.704679
0.571800	-3.692669
0.571900	-3.670598
0.572000	-3.688774
0.572100	-3.748174
0.572200	-3.776737
0.572300	-3.889368
0.572400	-4.155204
0.572500	-4.308409
0.572600	-4.208112
0.572700	-3.966295
0.572800	-3.861778
0.572900	-4.015308
0.573000	-4.263940
0.573100	-4.453824
0.573200	-4.354175
0.573300	-4.168188
0.573400	-4.032835
0.573500	-4.063995
0.573600	-4.259721
0.573700	-4.322366
0.573800	-4.319120
0.573900	-4.202594
0.574000	-4.136053
0.574100	-4.137352
0.574200	-4.154555
0.574300	-4.158450
0.574400	-4.127290
0.574500	-4.030888
0.574600	-4.037055
0.574700	-4.082172
0.574800	-4.140922
0.574900	-4.094182
0.575000	-4.053609
0.575100	-3.988042
0.575200	-4.051661
0.575300	-4.043871
0.575400	-4.038029
0.575500	-3.903975
0.575600	-3.780307
0.575700	-3.830618
0.575800	-3.959479
0.575900	-4.138975
0.576000	-4.134106
0.576100	-3.945846
0.576200	-3.773167
0.576300	-3.775763
0.576400	-3.941627
0.576500	-4.138001
0.576600	-4.218498
0.576700	-4.120149
0.576800	-3.998754
0.576900	-3.933836
0.577000	-3.971488
0.577100	-4.058802
0.577200	-4.097103
0.577300	-4.068864
0.577400	-4.043546
0.577500	-4.003298
0.577600	-4.008167
0.577700	-3.968567
0.577800	-3.862752
0.577900	-3.776088
0.578000	-3.756937
0.578100	-3.743305
0.578200	-3.760183
0.578300	-3.665404
0.578400	-3.525184
0.578500	-3.372629
0.578600	-3.285640
0.578700	-3.299272
0.578800	-3.306738
0.578900	-3.255129
0.579000	-3.178852
0.579100	-3.108417
0.579200	-3.004874
0.579300	-2.993514
0.579400	-2.987996
0.579500	-2.969170
0.579600	-3.011366
0.579700	-2.950993
0.579800	-2.968846
0.579900	-2.867251
0.580000	-2.829274
0.580100	-2.858487
0.580200	-2.828301
0.580300	-2.892568
0.580400	-2.881532
0.580500	-2.863031
0.580600	-2.768577
0.580700	-2.569607
0.580800	-2.365120
0.580900	-2.435879
0.581000	-2.794544
0.581100	-2.930869
0.581200	-2.758515
0.581300	-2.570906
0.581400	-2.353759
0.581500	-2.406666
0.581600	-2.557273
0.581700	-2.746181
0.581800	-2.703011
0.581900	-2.531307
0.582000	-2.428414
0.582100	-2.349215
0.582200	-2.411860
0.582300	-2.445941
0.582400	-2.468986
0.582500	-2.473531
0.582600	-2.464118
0.582700	-2.445292
0.582800	-2.476776
0.582900	-2.511507
0.583000	-2.497225
0.583100	-2.565388
0.583200	-2.612128
0.583300	-2.626410
0.583400	-2.685808
0.583500	-2.607259
0.583600	-2.645885
0.583700	-2.559221
0.583800	-2.657894
0.583900	-2.830897
0.584000	-2.873093
0.584100	-2.793895
0.584200	-2.615374
0.584300	-2.519297
0.584400	-2.614075
0.584500	-2.794219
0.584600	-2.889322
0.584700	-2.802334
0.584800	-2.588109
0.584900	-2.421597
0.585000	-2.432633
0.585100	-2.528385
0.585200	-2.555001
0.585300	-2.465741
0.585400	-2.438800
0.585500	-2.328442
0.585600	-2.350514
0.585700	-2.339802
0.585800	-2.318380
0.585900	-2.254112
0.586000	-2.216461
0.586100	-2.231391
0.586200	-2.235286
0.586300	-2.202504
0.586400	-2.142456
0.586500	-2.095716
0.586600	-2.083382
0.586700	-2.172317
0.586800	-2.197959
0.586900	-2.147649
0.587000	-2.102207
0.587100	-1.990551
0.587200	-2.038589
0.587300	-1.998665
0.587400	-1.982112
0.587500	-1.947706
0.587600	-1.961338
0.587700	-1.925634
0.587800	-1.942188
0.587900	-1.936021
0.588000	-1.930178
0.588100	-1.950627
0.588200	-1.963610
0.588300	-2.006780
0.588400	-2.019439
0.588500	-2.062284
0.588600	-2.132069
0.588700	-2.149921
0.588800	-2.253463
0.588900	-2.299229
0.589000	-2.567011
0.589100	-2.827976
0.589200	-2.962354
0.589300	-2.834792
0.589400	-2.642314
0.589500	-2.746181
0.589600	-3.026297
0.589700	-3.406710
0.589800	-3.559590
0.589900	-3.536869
0.590000	-3.433326
0.590100	-3.446634
0.590200	-3.618664
0.590300	-3.819907
0.590400	-3.984472
0.590500	-4.008167
0.590600	-4.033809
0.590700	-4.018229
0.590800	-4.068215
0.590900	-4.118526
0.591000	-4.154555
0.591100	-4.193181
0.591200	-4.201944
0.591300	-4.234403
0.591400	-4.272055
0.591500	-4.276924
0.591600	-4.282117
0.591700	-4.273353
0.591800	-4.366510
0.591900	-4.409031
0.592000	-4.414224
0.592100	-4.383388
0.592200	-4.255177
0.592300	-4.244141
0.592400	-4.362615
0.592500	-4.549252
0.592600	-4.715441
0.592700	-4.645005
0.592800	-4.472650
0.592900	-4.360992
0.593000	-4.448630
0.593100	-4.607353
0.593200	-4.776788
0.593300	-4.795614
0.593400	-4.683631
0.593500	-4.562560
0.593600	-4.542436
0.593700	-4.540488
0.593800	-4.572298
0.593900	-4.555419
0.594000	-4.512898
0.594100	-4.479466
0.594200	-4.416821
0.594300	-4.356123
0.594400	-4.246737
0.594500	-4.111385
0.594600	-4.081523
0.594700	-4.075680
0.594800	-4.064969
0.594900	-4.044845
0.595000	-3.896834
0.595100	-3.799133
0.595200	-3.601136
0.595300	-3.583933
0.595400	-3.520315
0.595500	-3.494348
0.595600	-3.401841
0.595700	-3.274929
0.595800	-3.153209
0.595900	-3.043500
0.596000	-2.957161
0.596100	-2.946774
0.596200	-2.881208
0.596300	-2.875690
0.596400	-2.846802
0.596500	-2.805580
0.596600	-2.687107
0.596700	-2.680940
0.596800	-2.688405
0.596900	-2.604987
0.597000	-2.632252
0.597100	-2.626410
0.597200	-2.543965
0.597300	-2.451134
0.597400	-2.075916
