LabVIEW Measurement	
Writer_Version	2
Reader_Version	2
Separator	Tab
Decimal_Separator	.
Multi_Headings	Yes
X_Columns	One
Time_Pref	Relative
Operator	as989
Description	Time Domain Data
Date	1903/12/31
Time	19:00:00
***End_of_Header***	
	
Channels	1	
Samples	15000	
Date	1903/12/31	
Time	19:00:00	
X_Dimension	Time	
X0	0.0000000000000000E+0	
Delta_X	0.000100	
***End_of_Header***		
X_Value	Untitled	Comment
0.000000	-2.062933	Tare Values:0.000000, 0.000000, 0.000000, 0.000000\0D\0A
0.000100	-1.948355
0.000200	-1.870131
0.000300	-1.885386
0.000400	-1.900317
0.000500	-1.881491
0.000600	-1.761395
0.000700	-1.616956
0.000800	-1.442331
0.000900	-1.395266
0.001000	-1.422207
0.001100	-1.442980
0.001200	-1.351772
0.001300	-1.235896
0.001400	-1.136899
0.001500	-1.034980
0.001600	-1.046990
0.001700	-1.006417
0.001800	-1.037577
0.001900	-0.983696
0.002000	-1.015505
0.002100	-0.996355
0.002200	-0.926894
0.002300	-0.922675
0.002400	-0.856460
0.002500	-0.963572
0.002600	-0.844450
0.002700	-1.026216
0.002800	-0.870092
0.002900	-0.838932
0.003000	-0.495200
0.003100	-0.451382
0.003200	-0.479296
0.003300	-0.882102
0.003400	-0.934684
0.003500	-0.718188
0.003600	-0.441969
0.003700	-0.337453
0.003800	-0.332909
0.003900	-0.538045
0.004000	-0.563362
0.004100	-0.627954
0.004200	-0.436126
0.004300	-0.366990
0.004400	-0.277730
0.004500	-0.368289
0.004600	-0.409511
0.004700	-0.405291
0.004800	-0.426713
0.004900	-0.393281
0.005000	-0.391334
0.005100	-0.423468
0.005200	-0.451382
0.005300	-0.472804
0.005400	-0.539668
0.005500	-0.595171
0.005600	-0.621787
0.005700	-0.648403
0.005800	-0.632823
0.005900	-0.578618
0.006000	-0.531878
0.006100	-0.705854
0.006200	-0.914235
0.006300	-0.982722
0.006400	-0.781806
0.006500	-0.567582
0.006600	-0.557195
0.006700	-0.721109
0.006800	-0.999601
0.006900	-1.056402
0.007000	-0.912937
0.007100	-0.694818
0.007200	-0.649377
0.007300	-0.807123
0.007400	-0.915209
0.007500	-0.947018
0.007600	-0.890866
0.007700	-0.845099
0.007800	-0.843477
0.007900	-0.929815
0.008000	-0.951562
0.008100	-0.962923
0.008200	-0.919753
0.008300	-0.934035
0.008400	-0.986617
0.008500	-0.978827
0.008600	-0.984021
0.008700	-0.948641
0.008800	-0.930789
0.008900	-0.983047
0.009000	-1.109309
0.009100	-1.117099
0.009200	-1.122293
0.009300	-1.032708
0.009400	-0.976231
0.009500	-1.017128
0.009600	-0.984345
0.009700	-1.016154
0.009800	-1.028488
0.009900	-1.039849
0.010000	-1.026216
0.010100	-1.042770
0.010200	-1.069710
0.010300	-1.085615
0.010400	-1.084316
0.010500	-1.112555
0.010600	-1.099247
0.010700	-1.141443
0.010800	-1.147935
0.010900	-1.219992
0.011000	-1.234598
0.011100	-1.327753
0.011200	-1.380011
0.011300	-1.602350
0.011400	-1.838646
0.011500	-1.827286
0.011600	-1.612087
0.011700	-1.459858
0.011800	-1.499133
0.011900	-1.841892
0.012000	-2.050923
0.012100	-2.134017
0.012200	-1.973673
0.012300	-1.843190
0.012400	-1.763343
0.012500	-1.940890
0.012600	-2.131095
0.012700	-2.246647
0.012800	-2.243726
0.012900	-2.221005
0.013000	-2.186274
0.013100	-2.229444
0.013200	-2.285272
0.013300	-2.332012
0.013400	-2.326170
0.013500	-2.306046
0.013600	-2.342724
0.013700	-2.379726
0.013800	-2.427440
0.013900	-2.481321
0.014000	-2.470934
0.014100	-2.482619
0.014200	-2.486839
0.014300	-2.505015
0.014400	-2.417053
0.014500	-2.276833
0.014600	-2.254761
0.014700	-2.411211
0.014800	-2.599794
0.014900	-2.688405
0.015000	-2.545264
0.015100	-2.307344
0.015200	-2.199582
0.015300	-2.306046
0.015400	-2.498199
0.015500	-2.598820
0.015600	-2.538123
0.015700	-2.389139
0.015800	-2.279105
0.015900	-2.264174
0.016000	-2.271315
0.016100	-2.350838
0.016200	-2.355707
0.016300	-2.311564
0.016400	-2.222628
0.016500	-2.184976
0.016600	-2.160632
0.016700	-2.093119
0.016800	-1.980813
0.016900	-1.941214
0.017000	-1.920116
0.017100	-1.891228
0.017200	-1.874026
0.017300	-1.717577
0.017400	-1.619228
0.017500	-1.363133
0.017600	-1.364106
0.017700	-1.365729
0.017800	-1.330999
0.017900	-1.240441
0.018000	-1.150207
0.018100	-1.003496
0.018200	-0.930140
0.018300	-0.915534
0.018400	-0.931114
0.018500	-0.909042
0.018600	-0.877882
0.018700	-0.926894
0.018800	-0.782131
0.018900	-0.801605
0.019000	-0.705854
0.019100	-0.811018
0.019200	-0.774665
0.019300	-0.828870
0.019400	-0.827247
0.019500	-0.684756
0.019600	-0.620164
0.019700	-0.284871
0.019800	-0.331286
0.019900	-0.530580
0.020000	-0.852889
0.020100	-0.737338
0.020200	-0.556222
0.020300	-0.357253
0.020400	-0.223201
0.020500	-0.389711
0.020600	-0.474752
0.020700	-0.628603
0.020800	-0.490007
0.020900	-0.361472
0.021000	-0.182953
0.021100	-0.184575
0.021200	-0.209568
0.021300	-0.260852
0.021400	-0.287468
0.021500	-0.213463
0.021600	-0.201454
0.021700	-0.171268
0.021800	-0.213463
0.021900	-0.171268
0.022000	-0.300451
0.022100	-0.285196
0.022200	-0.441644
0.022300	-0.382895
0.022400	-0.414379
0.022500	-0.338752
0.022600	-0.323821
0.022700	-0.359525
0.022800	-0.496174
0.022900	-0.777586
0.023000	-0.688002
0.023100	-0.598742
0.023200	-0.383544
0.023300	-0.464040
0.023400	-0.655544
0.023500	-0.861978
0.023600	-0.869443
0.023700	-0.763629
0.023800	-0.614646
0.023900	-0.635744
0.024000	-0.711696
0.024100	-0.806474
0.024200	-0.764603
0.024300	-0.800632
0.024400	-0.764928
0.024500	-0.812317
0.024600	-0.847047
0.024700	-0.891515
0.024800	-0.887620
0.024900	-0.856784
0.025000	-0.885348
0.025100	-0.947343
0.025200	-0.945720
0.025300	-0.905147
0.025400	-0.889567
0.025500	-0.853863
0.025600	-0.959028
0.025700	-1.079123
0.025800	-1.111581
0.025900	-1.114178
0.026000	-1.003496
0.026100	-1.054779
0.026200	-1.079448
0.026300	-1.068087
0.026400	-1.071333
0.026500	-1.063868
0.026600	-1.079448
0.026700	-1.080097
0.026800	-1.068087
0.026900	-1.104116
0.027000	-1.091457
0.027100	-1.095352
0.027200	-1.072307
0.027300	-1.100870
0.027400	-1.078474
0.027500	-1.107686
0.027600	-1.123591
0.027700	-1.179744
0.027800	-1.237195
0.027900	-1.303085
0.028000	-1.526398
0.028100	-1.668565
0.028200	-1.575085
0.028300	-1.364431
0.028400	-1.275171
0.028500	-1.387476
0.028600	-1.664021
0.028700	-1.861042
0.028800	-1.826961
0.028900	-1.689013
0.029000	-1.598779
0.029100	-1.701997
0.029200	-1.883114
0.029300	-2.032747
0.029400	-2.072346
0.029500	-2.049300
0.029600	-2.056117
0.029700	-2.038265
0.029800	-2.120709
0.029900	-2.173616
0.030000	-2.203153
0.030100	-2.204127
0.030200	-2.227496
0.030300	-2.278781
0.030400	-2.281702
0.030500	-2.314485
0.030600	-2.243726
0.030700	-2.288194
0.030800	-2.379726
0.030900	-2.426466
0.031000	-2.421273
0.031100	-2.257358
0.031200	-2.164852
0.031300	-2.227821
0.031400	-2.413807
0.031500	-2.582591
0.031600	-2.649130
0.031700	-2.460547
0.031800	-2.288518
0.031900	-2.304423
0.032000	-2.473855
0.032100	-2.633550
0.032200	-2.677369
0.032300	-2.616347
0.032400	-2.496576
0.032500	-2.445616
0.032600	-2.484242
0.032700	-2.515727
0.032800	-2.520595
0.032900	-2.486839
0.033000	-2.478075
0.033100	-2.444967
0.033200	-2.400824
0.033300	-2.275859
0.033400	-2.130122
0.033500	-2.051248
0.033600	-2.042809
0.033700	-2.056766
0.033800	-2.055467
0.033900	-1.953224
0.034000	-1.788011
0.034100	-1.757176
0.034200	-1.548469
0.034300	-1.576708
0.034400	-1.515686
0.034500	-1.451419
0.034600	-1.339114
0.034700	-1.238818
0.034800	-1.119696
0.034900	-1.104765
0.035000	-1.086589
0.035100	-1.079448
0.035200	-1.062245
0.035300	-1.080097
0.035400	-1.034006
0.035500	-0.950913
0.035600	-0.927219
0.035700	-0.838608
0.035800	-0.887620
0.035900	-0.818808
0.036000	-0.845099
0.036100	-0.759085
0.036200	-0.687353
0.036300	-0.527334
0.036400	-0.215411
0.036500	-0.294284
0.036600	-0.589978
0.036700	-0.775639
0.036800	-0.770121
0.036900	-0.410484
0.037000	-0.438398
0.037100	-0.313759
0.037200	-0.579591
0.037300	-0.727601
0.037400	-0.748699
0.037500	-0.686054
0.037600	-0.510780
0.037700	-0.567257
0.037800	-0.597443
0.037900	-0.707801
0.038000	-0.686379
0.038100	-0.669501
0.038200	-0.671448
0.038300	-0.647104
0.038400	-0.654245
0.038500	-0.652298
0.038600	-0.672097
0.038700	-0.646455
0.038800	-0.862951
0.038900	-0.724030
0.039000	-0.805825
0.039100	-0.740909
0.039200	-0.589329
0.039300	-0.638016
0.039400	-0.651324
0.039500	-0.977529
0.039600	-0.988889
0.039700	-0.933386
0.039800	-0.727925
0.039900	-0.614646
0.040000	-0.729224
0.040100	-0.915209
0.040200	-1.069710
0.040300	-0.940851
0.040400	-0.777586
0.040500	-0.643534
0.040600	-0.726952
0.040700	-0.820756
0.040800	-0.866197
0.040900	-0.759085
0.041000	-0.740259
0.041100	-0.662360
0.041200	-0.735715
0.041300	-0.749348
0.041400	-0.779534
0.041500	-0.717539
0.041600	-0.674045
0.041700	-0.699038
0.041800	-0.728250
0.041900	-0.712670
0.042000	-0.687677
0.042100	-0.658465
0.042200	-0.670474
0.042300	-0.834388
0.042400	-0.900603
0.042500	-0.904173
0.042600	-0.840555
0.042700	-0.832441
0.042800	-0.894111
0.042900	-0.917481
0.043000	-0.905472
0.043100	-0.932412
0.043200	-0.932087
0.043300	-0.947992
0.043400	-0.970388
0.043500	-0.967142
0.043600	-0.979801
0.043700	-1.002522
0.043800	-1.037252
0.043900	-1.036603
0.044000	-1.082694
0.044100	-1.077500
0.044200	-1.139495
0.044300	-1.164813
0.044400	-1.186560
0.044500	-1.254398
0.044600	-1.370923
0.044700	-1.704269
0.044800	-1.715305
0.044900	-1.641624
0.045000	-1.389099
0.045100	-1.398837
0.045200	-1.590989
0.045300	-1.863639
0.045400	-1.997692
0.045500	-1.875649
0.045600	-1.687391
0.045700	-1.619877
0.045800	-1.763343
0.045900	-1.909081
0.046000	-2.011000
0.046100	-1.967505
0.046200	-1.870131
0.046300	-1.828909
0.046400	-1.807486
0.046500	-1.864937
0.046600	-1.874999
0.046700	-1.849357
0.046800	-1.841892
0.046900	-1.856174
0.047000	-1.916871
0.047100	-1.964584
0.047200	-1.963610
0.047300	-1.932775
0.047400	-1.957768
0.047500	-1.998990
0.047600	-2.048327
0.047700	-2.036317
0.047800	-1.888956
0.047900	-1.855524
0.048000	-1.948355
0.048100	-2.159983
0.048200	-2.330065
0.048300	-2.261578
0.048400	-2.064231
0.048500	-1.957768
0.048600	-2.025606
0.048700	-2.216461
0.048800	-2.378428
0.048900	-2.400175
0.049000	-2.283649
0.049100	-2.165826
0.049200	-2.142780
0.049300	-2.185301
0.049400	-2.224575
0.049500	-2.239181
0.049600	-2.184976
0.049700	-2.165501
0.049800	-2.140833
0.049900	-2.073969
0.050000	-1.935047
0.050100	-1.786064
0.050200	-1.742894
0.050300	-1.760097
0.050400	-1.737701
0.050500	-1.735429
0.050600	-1.589367
0.050700	-1.479982
0.050800	-1.481281
0.050900	-1.259591
0.051000	-1.291400
0.051100	-1.283935
0.051200	-1.214799
0.051300	-1.145987
0.051400	-1.041147
0.051500	-0.944746
0.051600	-0.980126
0.051700	-0.949939
0.051800	-0.994732
0.051900	-0.925920
0.052000	-1.020698
0.052100	-0.886321
0.052200	-0.882426
0.052300	-0.821405
0.052400	-0.852565
0.052500	-0.842503
0.052600	-0.858083
0.052700	-0.919104
0.052800	-0.844126
0.052900	-0.710073
0.053000	-0.423143
0.053100	-0.239754
0.053200	-0.487086
0.053300	-0.719486
0.053400	-0.900278
0.053500	-0.652622
0.053600	-0.457873
0.053700	-0.259229
0.053800	-0.358551
0.053900	-0.508833
0.054000	-0.566284
0.054100	-0.596794
0.054200	-0.413730
0.054300	-0.300451
0.054400	-0.265721
0.054500	-0.322847
0.054600	-0.351086
0.054700	-0.301749
0.054800	-0.371859
0.054900	-0.302399
0.055000	-0.280327
0.055100	-0.246895
0.055200	-0.295258
0.055300	-0.294284
0.055400	-0.318303
0.055500	-0.424766
0.055600	-0.397176
0.055700	-0.442293
0.055800	-0.420871
0.055900	-0.376403
0.056000	-0.410160
0.056100	-0.468909
0.056200	-0.785052
0.056300	-0.699687
0.056400	-0.643859
0.056500	-0.396527
0.056600	-0.453329
0.056700	-0.590303
0.056800	-0.893787
0.056900	-0.919753
0.057000	-0.837634
0.057100	-0.645482
0.057200	-0.607830
0.057300	-0.738312
0.057400	-0.891190
0.057500	-0.923324
0.057600	-0.881128
0.057700	-0.872364
0.057800	-0.884698
0.057900	-0.941176
0.058000	-0.988240
0.058100	-1.043095
0.058200	-0.987916
0.058300	-1.009338
0.058400	-1.035629
0.058500	-1.056402
0.058600	-1.008689
0.058700	-0.950913
0.058800	-0.950589
0.058900	-1.010312
0.059000	-1.144364
0.059100	-1.162865
0.059200	-1.118722
0.059300	-0.974283
0.059400	-1.053806
0.059500	-1.109958
0.059600	-1.080421
0.059700	-1.087887
0.059800	-1.103467
0.059900	-1.109958
0.060000	-1.110932
0.060100	-1.102818
0.060200	-1.125214
0.060300	-1.162541
0.060400	-1.165787
0.060500	-1.163839
0.060600	-1.183314
0.060700	-1.199868
0.060800	-1.210254
0.060900	-1.212526
0.061000	-1.274522
0.061100	-1.299514
0.061200	-1.337166
0.061300	-1.608192
0.061400	-1.801319
0.061500	-1.757825
0.061600	-1.541978
0.061700	-1.373844
0.061800	-1.484851
0.061900	-1.764966
0.062000	-2.030150
0.062100	-2.054494
0.062200	-1.862016
0.062300	-1.776002
0.062400	-1.801644
0.062500	-1.965883
0.062600	-2.134990
0.062700	-2.214513
0.062800	-2.224251
0.062900	-2.170045
0.063000	-2.204127
0.063100	-2.277158
0.063200	-2.328117
0.063300	-2.360251
0.063400	-2.341750
0.063500	-2.357979
0.063600	-2.375831
0.063700	-2.443020
0.063800	-2.422246
0.063900	-2.385893
0.064000	-2.340127
0.064100	-2.349540
0.064200	-2.412184
0.064300	-2.415106
0.064400	-2.282026
0.064500	-2.087277
0.064600	-2.110647
0.064700	-2.210618
0.064800	-2.388814
0.064900	-2.443344
0.065000	-2.270991
0.065100	-2.047028
0.065200	-1.925310
0.065300	-2.039238
0.065400	-2.241778
0.065500	-2.375182
0.065600	-2.311888
0.065700	-2.144079
0.065800	-2.058713
0.065900	-2.040212
0.066000	-2.113243
0.066100	-2.152193
0.066200	-2.141482
0.066300	-2.108374
0.066400	-2.067152
0.066500	-2.026580
0.066600	-1.961988
0.066700	-1.783792
0.066800	-1.726990
0.066900	-1.680574
0.067000	-1.694856
0.067100	-1.657204
0.067200	-1.619228
0.067300	-1.441357
0.067400	-1.366054
0.067500	-1.300813
0.067600	-1.127810
0.067700	-1.122942
0.067800	-1.097624
0.067900	-0.981099
0.068000	-0.897033
0.068100	-0.792842
0.068200	-0.719486
0.068300	-0.744479
0.068400	-0.757462
0.068500	-0.756164
0.068600	-0.772393
0.068700	-0.766875
0.068800	-0.764928
0.068900	-0.727925
0.069000	-0.791219
0.069100	-0.768498
0.069200	-0.862951
0.069300	-0.878207
0.069400	-0.916508
0.069500	-0.889243
0.069600	-0.662035
0.069700	-0.518245
0.069800	-0.500718
0.069900	-0.941500
0.070000	-1.146312
0.070100	-1.148584
0.070200	-0.850293
0.070300	-0.718512
0.070400	-0.632823
0.070500	-0.788622
0.070600	-1.080421
0.070700	-1.101195
0.070800	-0.994732
0.070900	-0.775639
0.071000	-0.727601
0.071100	-0.686054
0.071200	-0.727601
0.071300	-0.760384
0.071400	-0.799333
0.071500	-0.739610
0.071600	-0.692221
0.071700	-0.675019
0.071800	-0.707477
0.071900	-0.652298
0.072000	-0.644508
0.072100	-0.670799
0.072200	-0.768174
0.072300	-0.659439
0.072400	-0.707801
0.072500	-0.538045
0.072600	-0.562064
0.072700	-0.470532
0.072800	-0.773367
0.072900	-0.837309
0.073000	-0.808746
0.073100	-0.624384
0.073200	-0.357902
0.073300	-0.502016
0.073400	-0.633472
0.073500	-0.907419
0.073600	-0.871066
0.073700	-0.730847
0.073800	-0.558169
0.073900	-0.537720
0.074000	-0.671124
0.074100	-0.785701
0.074200	-0.743181
0.074300	-0.777911
0.074400	-0.685405
0.074500	-0.732145
0.074600	-0.750322
0.074700	-0.827572
0.074800	-0.836336
0.074900	-0.804202
0.075000	-0.824002
0.075100	-0.878856
0.075200	-0.879181
0.075300	-0.875286
0.075400	-0.856460
0.075500	-0.841529
0.075600	-0.935658
0.075700	-1.024269
0.075800	-1.025567
0.075900	-0.998627
0.076000	-0.876909
0.076100	-0.941825
0.076200	-0.962274
0.076300	-0.934684
0.076400	-0.937281
0.076500	-0.957080
0.076600	-0.966493
0.076700	-0.958379
0.076800	-0.981424
0.076900	-1.000899
0.077000	-1.032059
0.077100	-1.020698
0.077200	-1.061920
0.077300	-1.099572
0.077400	-1.125214
0.077500	-1.119047
0.077600	-1.137548
0.077700	-1.195973
0.077800	-1.213825
0.077900	-1.353395
0.078000	-1.618254
0.078100	-1.767887
0.078200	-1.584173
0.078300	-1.419935
0.078400	-1.273872
0.078500	-1.473491
0.078600	-1.810732
0.078700	-1.975945
0.078800	-1.931152
0.078900	-1.759123
0.079000	-1.685443
0.079100	-1.713033
0.079200	-1.876947
0.079300	-2.088575
0.079400	-2.073644
0.079500	-2.040537
0.079600	-1.965233
0.079700	-1.977243
0.079800	-2.005482
0.079900	-2.058713
0.080000	-2.020088
0.080100	-2.018465
0.080200	-1.994121
0.080300	-2.019439
0.080400	-2.114542
0.080500	-2.091496
0.080600	-2.046055
0.080700	-2.021711
0.080800	-2.096689
0.080900	-2.109673
0.081000	-2.101883
0.081100	-1.967505
0.081200	-1.821768
0.081300	-1.974646
0.081400	-2.156413
0.081500	-2.382972
0.081600	-2.410886
0.081700	-2.251516
0.081800	-2.096689
0.081900	-2.086627
0.082000	-2.290466
0.082100	-2.525139
0.082200	-2.665035
0.082300	-2.622839
0.082400	-2.528061
0.082500	-2.502743
0.082600	-2.551106
0.082700	-2.618620
0.082800	-2.697493
0.082900	-2.696195
0.083000	-2.709178
0.083100	-2.630305
0.083200	-2.573502
0.083300	-2.462495
0.083400	-2.319678
0.083500	-2.272289
0.083600	-2.243401
0.083700	-2.223926
0.083800	-2.212566
0.083900	-2.085978
0.084000	-1.903563
0.084100	-1.857472
0.084200	-1.640651
0.084300	-1.659152
0.084400	-1.600078
0.084500	-1.521204
0.084600	-1.376440
0.084700	-1.271276
0.084800	-1.147285
0.084900	-1.074904
0.085000	-1.053806
0.085100	-1.021023
0.085200	-1.033682
0.085300	-1.028488
0.085400	-0.992784
0.085500	-0.938904
0.085600	-0.886971
0.085700	-0.898655
0.085800	-0.936632
0.085900	-0.978178
0.086000	-1.019400
0.086100	-0.944097
0.086200	-0.893138
0.086300	-0.528308
0.086400	-0.411133
0.086500	-0.398150
0.086600	-0.831792
0.086700	-0.808422
0.086800	-0.685081
0.086900	-0.466312
0.087000	-0.107325
0.087100	-0.230991
0.087200	-0.294284
0.087300	-0.503315
0.087400	-0.438074
0.087500	-0.302074
0.087600	-0.123229
0.087700	-0.086552
0.087800	-0.216709
0.087900	-0.186198
0.088000	-0.260528
0.088100	-0.242026
0.088200	-0.190742
0.088300	-0.203077
0.088400	-0.212165
0.088500	-0.227420
0.088600	-0.177759
0.088700	-0.251115
0.088800	-0.391983
0.088900	-0.369262
0.089000	-0.381921
0.089100	-0.335181
0.089200	-0.303372
0.089300	-0.290064
0.089400	-0.428661
0.089500	-0.662360
0.089600	-0.723057
0.089700	-0.629577
0.089800	-0.462742
0.089900	-0.393931
0.090000	-0.508508
0.090100	-0.753892
0.090200	-0.906445
0.090300	-0.864899
0.090400	-0.686054
0.090500	-0.606207
0.090600	-0.678914
0.090700	-0.783429
0.090800	-0.866197
0.090900	-0.836660
0.091000	-0.878531
0.091100	-0.813615
0.091200	-0.892813
0.091300	-0.930789
0.091400	-0.967467
0.091500	-0.920078
0.091600	-0.928517
0.091700	-0.956107
0.091800	-0.997004
0.091900	-0.973309
0.092000	-0.946694
0.092100	-0.916832
0.092200	-0.943772
0.092300	-1.086913
0.092400	-1.123591
0.092500	-1.118722
0.092600	-1.043744
0.092700	-1.002846
0.092800	-1.068087
0.092900	-1.050235
0.093000	-1.049911
0.093100	-1.066789
0.093200	-1.061271
0.093300	-1.079448
0.093400	-1.075228
0.093500	-1.067438
0.093600	-1.074579
0.093700	-1.067438
0.093800	-1.086913
0.093900	-1.068737
0.094000	-1.084316
0.094100	-1.112555
0.094200	-1.067114
0.094300	-1.152803
0.094400	-1.115801
0.094500	-1.195324
0.094600	-1.309577
0.094700	-1.648441
0.094800	-1.675056
0.094900	-1.500106
0.095000	-1.292049
0.095100	-1.280364
0.095200	-1.561777
0.095300	-1.826312
0.095400	-1.949004
0.095500	-1.836049
0.095600	-1.691610
0.095700	-1.643572
0.095800	-1.766264
0.095900	-1.958093
0.096000	-2.061959
0.096100	-2.017816
0.096200	-1.908431
0.096300	-1.926933
0.096400	-1.989253
0.096500	-2.022685
0.096600	-2.031124
0.096700	-2.045730
0.096800	-2.048002
0.096900	-2.094742
0.097000	-2.169072
0.097100	-2.146351
0.097200	-2.166475
0.097300	-2.175563
0.097400	-2.201854
0.097500	-2.259630
0.097600	-2.266446
0.097700	-2.202179
0.097800	-2.004508
0.097900	-1.987630
0.098000	-2.154465
0.098100	-2.361874
0.098200	-2.506314
0.098300	-2.400175
0.098400	-2.205425
0.098500	-2.088900
0.098600	-2.165501
0.098700	-2.389464
0.098800	-2.587784
0.098900	-2.575774
0.099000	-2.454056
0.099100	-2.333635
0.099200	-2.312213
0.099300	-2.360900
0.099400	-2.395631
0.099500	-2.394332
0.099600	-2.369664
0.099700	-2.335907
0.099800	-2.280728
0.099900	-2.240804
0.100000	-2.136938
0.100100	-2.003210
0.100200	-1.913949
0.100300	-1.913625
0.100400	-1.884088
0.100500	-1.900966
0.100600	-1.763343
0.100700	-1.636106
0.100800	-1.422531
0.100900	-1.428374
0.101000	-1.508870
0.101100	-1.504975
0.101200	-1.430970
0.101300	-1.343658
0.101400	-1.263486
0.101500	-1.191753
0.101600	-1.198569
0.101700	-1.214474
0.101800	-1.225834
0.101900	-1.222913
0.102000	-1.258617
0.102100	-1.229729
0.102200	-1.172927
0.102300	-1.188183
0.102400	-1.136250
0.102500	-1.181042
0.102600	-1.215448
0.102700	-1.168708
0.102800	-1.150207
0.102900	-0.984345
0.103000	-0.786350
0.103100	-0.533501
0.103200	-0.796737
0.103300	-1.045367
0.103400	-1.062569
0.103500	-0.941176
0.103600	-0.643209
0.103700	-0.549730
0.103800	-0.602637
0.103900	-0.736689
0.104000	-0.860355
0.104100	-0.762006
0.104200	-0.641262
0.104300	-0.510131
0.104400	-0.549405
0.104500	-0.577644
0.104600	-0.657491
0.104700	-0.611400
0.104800	-0.584785
0.104900	-0.575372
0.105000	-0.576346
0.105100	-0.587706
0.105200	-0.580565
0.105300	-0.650026
0.105400	-0.691572
0.105500	-0.685405
0.105600	-0.747076
0.105700	-0.713968
0.105800	-0.681510
0.105900	-0.615620
0.106000	-0.629252
0.106100	-0.695792
0.106200	-0.940202
0.106300	-0.839906
0.106400	-0.696116
0.106500	-0.416327
0.106600	-0.423468
0.106700	-0.534475
0.106800	-0.777262
0.106900	-0.787973
0.107000	-0.660737
0.107100	-0.445215
0.107200	-0.355630
0.107300	-0.504613
0.107400	-0.632823
0.107500	-0.676317
0.107600	-0.654245
0.107700	-0.634121
0.107800	-0.643534
0.107900	-0.709424
0.108000	-0.800632
0.108100	-0.839582
0.108200	-0.774990
0.108300	-0.760384
0.108400	-0.810694
0.108500	-0.855486
0.108600	-0.850617
0.108700	-0.829844
0.108800	-0.802255
0.108900	-0.877558
0.109000	-0.977854
0.109100	-0.974283
0.109200	-0.944097
0.109300	-0.836660
0.109400	-0.840880
0.109500	-0.855811
0.109600	-0.795763
0.109700	-0.797061
0.109800	-0.784727
0.109900	-0.782780
0.110000	-0.772069
0.110100	-0.775964
0.110200	-0.750322
0.110300	-0.742207
0.110400	-0.740584
0.110500	-0.764279
0.110600	-0.803228
0.110700	-0.812317
0.110800	-0.830169
0.110900	-0.837309
0.111000	-0.914885
0.111100	-0.894111
0.111200	-1.012908
0.111300	-1.293023
0.111400	-1.512441
0.111500	-1.488097
0.111600	-1.246608
0.111700	-1.148259
0.111800	-1.202140
0.111900	-1.535810
0.112000	-1.817873
0.112100	-1.876298
0.112200	-1.743219
0.112300	-1.620851
0.112400	-1.685443
0.112500	-1.858121
0.112600	-2.075592
0.112700	-2.171019
0.112800	-2.135639
0.112900	-2.066828
0.113000	-2.082408
0.113100	-2.166150
0.113200	-2.222952
0.113300	-2.242103
0.113400	-2.258656
0.113500	-2.266771
0.113600	-2.296957
0.113700	-2.307993
0.113800	-2.336232
0.113900	-2.303774
0.114000	-2.270666
0.114100	-2.309941
0.114200	-2.317731
0.114300	-2.259955
0.114400	-2.108050
0.114500	-1.950627
0.114600	-1.925310
0.114700	-2.037291
0.114800	-2.192117
0.114900	-2.249893
0.115000	-2.075592
0.115100	-1.885711
0.115200	-1.784116
0.115300	-1.902913
0.115400	-2.066179
0.115500	-2.195363
0.115600	-2.140184
0.115700	-2.001587
0.115800	-1.920766
0.115900	-1.933100
0.116000	-2.004508
0.116100	-2.052222
0.116200	-2.058064
0.116300	-2.071047
0.116400	-2.058064
0.116500	-2.048976
0.116600	-2.013921
0.116700	-1.916546
0.116800	-1.822417
0.116900	-1.796450
0.117000	-1.779247
0.117100	-1.763667
0.117200	-1.696479
0.117300	-1.527696
0.117400	-1.395591
0.117500	-1.232651
0.117600	-1.241090
0.117700	-1.196297
0.117800	-1.164488
0.117900	-1.054130
0.118000	-0.999601
0.118100	-0.888269
0.118200	-0.857434
0.118300	-0.800956
0.118400	-0.866197
0.118500	-0.817835
0.118600	-0.824651
0.118700	-0.786026
0.118800	-0.735715
0.118900	-0.662684
0.119000	-0.662035
0.119100	-0.671124
0.119200	-0.657816
0.119300	-0.740584
0.119400	-0.692871
0.119500	-0.674045
0.119600	-0.392957
0.119700	-0.246571
0.119800	-0.042084
0.119900	-0.537720
0.120000	-0.633797
0.120100	-0.676966
0.120200	-0.351410
0.120300	-0.195287
0.120400	-0.199506
0.120500	-0.304995
0.120600	-0.487410
0.120700	-0.545835
0.120800	-0.407563
0.120900	-0.266370
0.121000	-0.180356
0.121100	-0.229368
0.121200	-0.269616
0.121300	-0.308241
0.121400	-0.265072
0.121500	-0.287143
0.121600	-0.263124
0.121700	-0.266370
0.121800	-0.258580
0.121900	-0.290389
0.122000	-0.314733
0.122100	-0.479945
0.122200	-0.422494
0.122300	-0.503315
0.122400	-0.542589
0.122500	-0.446837
0.122600	-0.437425
0.122700	-0.465988
0.122800	-0.744154
0.122900	-0.817185
0.123000	-0.782131
0.123100	-0.645157
0.123200	-0.446188
0.123300	-0.521491
0.123400	-0.713644
0.123500	-0.926570
0.123600	-0.909042
0.123700	-0.778560
0.123800	-0.663009
0.123900	-0.718188
0.124000	-0.895410
0.124100	-1.031410
0.124200	-1.005118
0.124300	-1.033032
0.124400	-1.026541
0.124500	-1.084966
0.124600	-1.132679
0.124700	-1.191429
0.124800	-1.163839
0.124900	-1.156374
0.125000	-1.159944
0.125100	-1.202140
0.125200	-1.194025
0.125300	-1.180393
0.125400	-1.161242
0.125500	-1.177796
0.125600	-1.276469
0.125700	-1.337491
0.125800	-1.286207
0.125900	-1.281987
0.126000	-1.174875
0.126100	-1.237844
0.126200	-1.222913
0.126300	-1.192727
0.126400	-1.199219
0.126500	-1.187534
0.126600	-1.200192
0.126700	-1.200192
0.126800	-1.197920
0.126900	-1.172278
0.127000	-1.175524
0.127100	-1.164164
0.127200	-1.172603
0.127300	-1.161567
0.127400	-1.178770
0.127500	-1.224861
0.127600	-1.231028
0.127700	-1.318016
0.127800	-1.320937
0.127900	-1.442331
0.128000	-1.721796
0.128100	-1.830532
0.128200	-1.681223
0.128300	-1.498483
0.128400	-1.471868
0.128500	-1.703620
0.128600	-1.977568
0.128700	-2.145702
0.128800	-2.050274
0.128900	-1.876947
0.129000	-1.832479
0.129100	-1.961663
0.129200	-2.146351
0.129300	-2.287220
0.129400	-2.315459
0.129500	-2.267096
0.129600	-2.258007
0.129700	-2.332661
0.129800	-2.395955
0.129900	-2.443994
0.130000	-2.450485
0.130100	-2.464767
0.130200	-2.495278
0.130300	-2.583564
0.130400	-2.607259
0.130500	-2.605312
0.130600	-2.590381
0.130700	-2.550782
0.130800	-2.593951
0.130900	-2.612452
0.131000	-2.605961
0.131100	-2.437502
0.131200	-2.328117
0.131300	-2.398227
0.131400	-2.531631
0.131500	-2.691975
0.131600	-2.638744
0.131700	-2.422896
0.131800	-2.223601
0.131900	-2.215162
0.132000	-2.393683
0.132100	-2.582915
0.132200	-2.619593
0.132300	-2.477750
0.132400	-2.348241
0.132500	-2.299229
0.132600	-2.318055
0.132700	-2.364471
0.132800	-2.369015
0.132900	-2.299554
0.133000	-2.277158
0.133100	-2.209969
0.133200	-2.182704
0.133300	-2.123305
0.133400	-2.007105
0.133500	-1.919792
0.133600	-1.877596
0.133700	-1.839295
0.133800	-1.783142
0.133900	-1.668565
0.134000	-1.575410
0.134100	-1.555935
0.134200	-1.384230
0.134300	-1.421233
0.134400	-1.390073
0.134500	-1.322235
0.134600	-1.226483
0.134700	-1.148908
0.134800	-1.004469
0.134900	-1.020698
0.135000	-1.013882
0.135100	-1.081071
0.135200	-1.014207
0.135300	-1.124240
0.135400	-1.001548
0.135500	-1.041796
0.135600	-0.990512
0.135700	-0.991486
0.135800	-1.014856
0.135900	-0.992135
0.136000	-1.082369
0.136100	-0.986942
0.136200	-0.881777
0.136300	-0.619515
0.136400	-0.422169
0.136500	-0.596470
0.136600	-0.808422
0.136700	-1.003820
0.136800	-0.649052
0.136900	-0.517596
0.137000	-0.314084
0.137100	-0.311811
0.137200	-0.545186
0.137300	-0.572451
0.137400	-0.608804
0.137500	-0.337129
0.137600	-0.282924
0.137700	-0.221253
0.137800	-0.292986
0.137900	-0.318952
0.138000	-0.347191
0.138100	-0.345893
0.138200	-0.327391
0.138300	-0.299477
0.138400	-0.326093
0.138500	-0.357253
0.138600	-0.392957
0.138700	-0.388413
0.138800	-0.619190
0.138900	-0.525711
0.139000	-0.646455
0.139100	-0.577969
0.139200	-0.557520
0.139300	-0.515973
0.139400	-0.575372
0.139500	-0.888593
0.139600	-0.902226
0.139700	-0.861653
0.139800	-0.666255
0.139900	-0.635095
0.140000	-0.786999
0.140100	-1.053806
0.140200	-1.184612
0.140300	-1.119371
0.140400	-0.979801
0.140500	-0.871715
0.140600	-0.965195
0.140700	-1.104441
0.140800	-1.157347
0.140900	-1.159295
0.141000	-1.173577
0.141100	-1.129433
0.141200	-1.185911
0.141300	-1.206684
0.141400	-1.252125
0.141500	-1.204736
0.141600	-1.178770
0.141700	-1.232326
0.141800	-1.241090
0.141900	-1.216097
0.142000	-1.168059
0.142100	-1.131056
0.142200	-1.164164
0.142300	-1.266083
0.142400	-1.256670
0.142500	-1.221290
0.142600	-1.119696
0.142700	-1.078474
0.142800	-1.105414
0.142900	-1.074254
0.143000	-1.071009
0.143100	-1.045691
0.143200	-1.051534
0.143300	-1.025892
0.143400	-1.044068
0.143500	-1.050884
0.143600	-1.070035
0.143700	-1.062245
0.143800	-1.086589
0.143900	-1.039524
0.144000	-1.103791
0.144100	-1.091782
0.144200	-1.147285
0.144300	-1.164488
0.144400	-1.215448
0.144500	-1.242388
0.144600	-1.449147
0.144700	-1.678302
0.144800	-1.678627
0.144900	-1.456288
0.145000	-1.295295
0.145100	-1.312498
0.145200	-1.571839
0.145300	-1.793204
0.145400	-1.829882
0.145500	-1.755877
0.145600	-1.566321
0.145700	-1.539381
0.145800	-1.620527
0.145900	-1.806837
0.146000	-1.870780
0.146100	-1.892527
0.146200	-1.873052
0.146300	-1.852928
0.146400	-1.861691
0.146500	-1.877271
0.146600	-1.861691
0.146700	-1.880193
0.146800	-1.869481
0.146900	-1.913949
0.147000	-2.004833
0.147100	-2.027878
0.147200	-1.990875
0.147300	-2.024957
0.147400	-2.022685
0.147500	-2.130446
0.147600	-2.093119
0.147700	-2.073644
0.147800	-1.919792
0.147900	-1.908756
0.148000	-2.093768
0.148100	-2.274236
0.148200	-2.413158
0.148300	-2.309616
0.148400	-2.123630
0.148500	-2.048002
0.148600	-2.143105
0.148700	-2.340776
0.148800	-2.473531
0.148900	-2.467688
0.149000	-2.379726
0.149100	-2.296957
0.149200	-2.308967
0.149300	-2.322275
0.149400	-2.332986
0.149500	-2.296633
0.149600	-2.259630
0.149700	-2.252489
0.149800	-2.204776
0.149900	-2.137587
0.150000	-2.036317
0.150100	-1.878894
0.150200	-1.814952
0.150300	-1.794827
0.150400	-1.769835
0.150500	-1.759123
0.150600	-1.567295
0.150700	-1.476412
0.150800	-1.233624
0.150900	-1.249204
0.151000	-1.265109
0.151100	-1.259591
0.151200	-1.175199
0.151300	-1.089185
0.151400	-0.996679
0.151500	-0.922350
0.151600	-0.927868
0.151700	-0.901577
0.151800	-0.948641
0.151900	-0.873014
0.152000	-0.991486
0.152100	-0.906121
0.152200	-0.919104
0.152300	-0.848670
0.152400	-0.869443
0.152500	-0.900278
0.152600	-0.967467
0.152700	-0.978178
0.152800	-0.934684
0.152900	-0.675668
0.153000	-0.535773
0.153100	-0.352384
0.153200	-0.748699
0.153300	-0.942149
0.153400	-0.989538
0.153500	-0.776937
0.153600	-0.479945
0.153700	-0.397826
0.153800	-0.502341
0.153900	-0.662035
0.154000	-0.770770
0.154100	-0.629252
0.154200	-0.530580
0.154300	-0.348814
0.154400	-0.424766
0.154500	-0.418923
0.154600	-0.532202
0.154700	-0.520518
0.154800	-0.479296
0.154900	-0.454303
0.155000	-0.486112
0.155100	-0.531878
0.155200	-0.483191
0.155300	-0.524413
0.155400	-0.524737
0.155500	-0.714293
0.155600	-0.607181
0.155700	-0.727601
0.155800	-0.581864
0.155900	-0.568556
0.156000	-0.512078
0.156100	-0.766226
0.156200	-0.908393
0.156300	-0.899629
0.156400	-0.796412
0.156500	-0.578618
0.156600	-0.610751
0.156700	-0.759085
0.156800	-1.032059
0.156900	-1.020049
0.157000	-0.858732
0.157100	-0.717539
0.157200	-0.728899
0.157300	-0.849319
0.157400	-0.930465
0.157500	-0.928517
0.157600	-0.936956
0.157700	-0.887944
0.157800	-0.936956
0.157900	-1.002522
0.158000	-1.060297
0.158100	-1.083992
0.158200	-1.060297
0.158300	-1.059973
0.158400	-1.111906
0.158500	-1.155400
0.158600	-1.135600
0.158700	-1.107037
0.158800	-1.099896
0.158900	-1.195973
0.159000	-1.344307
0.159100	-1.334569
0.159200	-1.343658
0.159300	-1.196297
0.159400	-1.280364
0.159500	-1.327104
0.159600	-1.315744
0.159700	-1.338464
0.159800	-1.309577
0.159900	-1.321261
0.160000	-1.308603
0.160100	-1.303409
0.160200	-1.312822
0.160300	-1.311524
0.160400	-1.310226
0.160500	-1.307629
0.160600	-1.330999
0.160700	-1.320288
0.160800	-1.330999
0.160900	-1.341386
0.161000	-1.384230
0.161100	-1.414741
0.161200	-1.454989
0.161300	-1.725691
0.161400	-1.846436
0.161500	-1.813653
0.161600	-1.504975
0.161700	-1.429347
0.161800	-1.475763
0.161900	-1.784765
0.162000	-1.986331
0.162100	-1.967505
0.162200	-1.842541
0.162300	-1.714980
0.162400	-1.771457
0.162500	-1.930178
0.162600	-2.128499
0.162700	-2.157387
0.162800	-2.102207
0.162900	-2.091821
0.163000	-2.080785
0.163100	-2.117787
0.163200	-2.167773
0.163300	-2.149597
0.163400	-2.135315
0.163500	-2.112594
0.163600	-2.118437
0.163700	-2.165177
0.163800	-2.211592
0.163900	-2.161282
0.164000	-2.179458
0.164100	-2.210618
0.164200	-2.233014
0.164300	-2.243076
0.164400	-2.123630
0.164500	-1.981463
0.164600	-2.011324
0.164700	-2.213864
0.164800	-2.393359
0.164900	-2.448213
0.165000	-2.282351
0.165100	-2.061310
0.165200	-2.059362
0.165300	-2.203477
0.165400	-2.402122
0.165500	-2.490409
0.165600	-2.399850
0.165700	-2.259955
0.165800	-2.145702
0.165900	-2.168422
0.166000	-2.209969
0.166100	-2.207697
0.166200	-2.152518
0.166300	-2.091172
0.166400	-2.033071
0.166500	-2.004833
0.166600	-1.875324
0.166700	-1.728613
0.166800	-1.598779
0.166900	-1.531266
0.167000	-1.507896
0.167100	-1.482579
0.167200	-1.411171
0.167300	-1.223562
0.167400	-1.143715
0.167500	-0.942149
0.167600	-0.913911
0.167700	-0.902550
0.167800	-0.845099
0.167900	-0.760059
0.168000	-0.676966
0.168100	-0.522140
0.168200	-0.514026
0.168300	-0.479945
0.168400	-0.474752
0.168500	-0.465014
0.168600	-0.429310
0.168700	-0.403993
0.168800	-0.352709
0.168900	-0.307592
0.169000	-0.330637
0.169100	-0.292661
0.169200	-0.363095
0.169300	-0.275134
0.169400	-0.376403
0.169500	-0.182953
0.169600	-0.086876
0.169700	0.210440
0.169800	0.107223
0.169900	-0.145626
0.170000	-0.274809
0.170100	-0.312461
0.170200	-0.047602
0.170300	0.001410
0.170400	0.118584
0.170500	-0.069024
0.170600	-0.196910
0.170700	-0.223201
0.170800	-0.214112
0.170900	-0.107650
0.171000	-0.090447
0.171100	-0.123229
0.171200	-0.165425
0.171300	-0.237482
0.171400	-0.196910
0.171500	-0.236184
0.171600	-0.233263
0.171700	-0.267019
0.171800	-0.316356
0.171900	-0.376079
0.172000	-0.436126
0.172100	-0.527009
0.172200	-0.577969
0.172300	-0.638990
0.172400	-0.653272
0.172500	-0.522465
0.172600	-0.598742
0.172700	-0.589978
0.172800	-0.956756
0.172900	-1.006092
0.173000	-1.012259
0.173100	-0.776937
0.173200	-0.768498
0.173300	-0.770446
0.173400	-1.012908
0.173500	-1.197920
0.173600	-1.189806
0.173700	-1.041796
0.173800	-0.907744
0.173900	-0.932737
0.174000	-1.031410
0.174100	-1.086589
0.174200	-1.107362
0.174300	-1.145987
0.174400	-1.074904
0.174500	-1.123266
0.174600	-1.132030
0.174700	-1.220316
0.174800	-1.247581
0.174900	-1.242713
0.175000	-1.290426
0.175100	-1.317042
0.175200	-1.312498
0.175300	-1.291400
0.175400	-1.306006
0.175500	-1.315744
0.175600	-1.450445
0.175700	-1.506598
0.175800	-1.487123
0.175900	-1.411495
0.176000	-1.395915
0.176100	-1.434541
0.176200	-1.446550
0.176300	-1.455963
0.176400	-1.437787
0.176500	-1.472517
0.176600	-1.430646
0.176700	-1.445901
0.176800	-1.462779
0.176900	-1.459534
0.177000	-1.466025
0.177100	-1.457262
0.177200	-1.466350
0.177300	-1.468946
0.177400	-1.454016
0.177500	-1.489071
0.177600	-1.504975
0.177700	-1.539705
0.177800	-1.564049
0.177900	-1.725042
0.178000	-1.966207
0.178100	-2.045405
0.178200	-1.898694
0.178300	-1.661424
0.178400	-1.601052
0.178500	-1.778598
0.178600	-2.076565
0.178700	-2.207372
0.178800	-2.170694
0.178900	-2.006131
0.179000	-1.934073
0.179100	-1.966532
0.179200	-2.138561
0.179300	-2.237559
0.179400	-2.307669
0.179500	-2.229769
0.179600	-2.186274
0.179700	-2.206399
0.179800	-2.279754
0.179900	-2.267420
0.180000	-2.282351
0.180100	-2.277482
0.180200	-2.317406
0.180300	-2.332986
0.180400	-2.369339
0.180500	-2.386542
0.180600	-2.297606
0.180700	-2.328766
0.180800	-2.422896
0.180900	-2.405044
0.181000	-2.409588
0.181100	-2.206723
0.181200	-2.160957
0.181300	-2.261902
0.181400	-2.469636
0.181500	-2.576424
0.181600	-2.569607
0.181700	-2.397903
0.181800	-2.237883
0.181900	-2.259630
0.182000	-2.430686
0.182100	-2.639717
0.182200	-2.654648
0.182300	-2.555975
0.182400	-2.439449
0.182500	-2.412834
0.182600	-2.416079
0.182700	-2.468662
0.182800	-2.470609
0.182900	-2.465741
0.183000	-2.424843
0.183100	-2.360251
0.183200	-2.341101
0.183300	-2.238857
0.183400	-2.081434
0.183500	-2.003534
0.183600	-1.971076
0.183700	-1.930503
0.183800	-1.930828
0.183900	-1.781844
0.184000	-1.639352
0.184100	-1.544574
0.184200	-1.320612
0.184300	-1.347553
0.184400	-1.285233
0.184500	-1.197920
0.184600	-1.070684
0.184700	-0.992784
0.184800	-0.862951
0.184900	-0.829195
0.185000	-0.813940
0.185100	-0.773691
0.185200	-0.795438
0.185300	-0.736689
0.185400	-0.778560
0.185500	-0.676641
0.185600	-0.701310
0.185700	-0.641262
0.185800	-0.679887
0.185900	-0.699038
0.186000	-0.698713
0.186100	-0.705854
0.186200	-0.598417
0.186300	-0.293959
0.186400	-0.232938
0.186500	-0.302399
0.186600	-0.698388
0.186700	-0.754217
0.186800	-0.614971
0.186900	-0.384842
0.187000	-0.324470
0.187100	-0.277081
0.187200	-0.478646
0.187300	-0.556222
0.187400	-0.478971
0.187500	-0.392632
0.187600	-0.267344
0.187700	-0.206972
0.187800	-0.240079
0.187900	-0.239430
0.188000	-0.241377
0.188100	-0.256633
0.188200	-0.231964
0.188300	-0.239105
0.188400	-0.212814
0.188500	-0.198532
0.188600	-0.210542
0.188700	-0.263773
0.188800	-0.285196
0.188900	-0.221578
0.189000	-0.306618
0.189100	-0.172241
0.189200	-0.119335
0.189300	-0.046953
0.189400	-0.128098
0.189500	-0.359525
0.189600	-0.334532
0.189700	-0.201778
0.189800	0.066002
0.189900	0.124426
0.190000	0.041983
0.190100	-0.201129
0.190200	-0.237807
0.190300	-0.113817
0.190400	0.636291
0.190500	1.427297
0.190600	1.245856
0.190700	0.782353
0.190800	0.865121
0.190900	1.511688
0.191000	1.959611
0.191100	2.398446
0.191200	2.178704
0.191300	2.085873
0.191400	2.213759
0.191500	2.682780
0.191600	2.769119
0.191700	2.519515
0.191800	2.265692
0.191900	2.446160
0.192000	2.632145
0.192100	2.771066
0.192200	2.547754
0.192300	1.758370
0.192400	1.601922
0.192500	1.580499
0.192600	1.505846
0.192700	2.109568
0.192800	1.571736
0.192900	1.488318
0.193000	1.403278
0.193100	1.279288
0.193200	0.938477
0.193300	0.749570
0.193400	0.552874
0.193500	0.396750
0.193600	0.021859
0.193700	-0.181654
0.193800	-0.430933
0.193900	-0.510780
0.194000	-0.563038
0.194100	-0.580890
0.194200	-0.663009
0.194300	-0.726627
0.194400	-0.844450
0.194500	-0.899629
0.194600	-1.192078
0.194700	-1.481281
0.194800	-1.538083
0.194900	-1.360211
0.195000	-1.272574
0.195100	-1.373195
0.195200	-1.645195
0.195300	-1.965883
0.195400	-2.022360
0.195500	-2.016193
0.195600	-1.916221
0.195700	-1.971400
0.195800	-2.132394
0.195900	-2.353435
0.196000	-2.444318
0.196100	-2.465741
0.196200	-2.471583
0.196300	-2.470609
0.196400	-2.570906
0.196500	-2.685159
0.196600	-2.668281
0.196700	-2.737742
0.196800	-2.758840
0.196900	-2.822134
0.197000	-2.890945
0.197100	-3.046421
0.197200	-3.014612
0.197300	-2.990593
0.197400	-3.053237
0.197500	-3.137305
0.197600	-3.186642
0.197700	-3.136006
0.197800	-2.995786
0.197900	-2.963652
0.198000	-3.107118
0.198100	-3.334977
0.198200	-3.390481
0.198300	-3.304790
0.198400	-3.073362
0.198500	-2.935089
0.198600	-3.025972
0.198700	-3.191835
0.198800	-3.309659
0.198900	-3.230136
0.199000	-3.080503
0.199100	-2.934115
0.199200	-2.885752
0.199300	-2.891919
0.199400	-2.889972
0.199500	-2.813370
0.199600	-2.761761
0.199700	-2.674448
0.199800	-2.579345
0.199900	-2.456328
0.200000	-2.319354
0.200100	-2.165826
0.200200	-2.061635
0.200300	-1.983410
0.200400	-1.932775
0.200500	-1.862665
0.200600	-1.656231
0.200700	-1.563400
0.200800	-1.281013
0.200900	-1.257968
0.201000	-1.250827
0.201100	-1.210579
0.201200	-1.093080
0.201300	-0.990512
0.201400	-0.866197
0.201500	-0.793816
0.201600	-0.716240
0.201700	-0.749348
0.201800	-0.703257
0.201900	-0.695792
0.202000	-0.643859
0.202100	-0.607505
0.202200	-0.569854
0.202300	-0.564336
0.202400	-0.561739
0.202500	-0.567257
0.202600	-0.631525
0.202700	-0.678914
0.202800	-0.561090
0.202900	-0.434828
0.203000	-0.147898
0.203100	-0.274160
0.203200	-0.364394
0.203300	-0.825949
0.203400	-0.641587
0.203500	-0.547133
0.203600	-0.281301
0.203700	-0.187497
0.203800	-0.314084
0.203900	-0.512403
0.204000	-0.606532
0.204100	-0.518570
0.204200	-0.428985
0.204300	-0.326093
0.204400	-0.305969
0.204500	-0.379000
0.204600	-0.401721
0.204700	-0.390036
0.204800	-0.426713
0.204900	-0.447162
0.205000	-0.453329
0.205100	-0.470857
0.205200	-0.506236
0.205300	-0.543563
0.205400	-0.615945
0.205500	-0.676317
0.205600	-0.781806
0.205700	-0.772393
0.205800	-0.712995
0.205900	-0.658140
0.206000	-0.707152
0.206100	-0.879830
0.206200	-1.113853
0.206300	-1.046665
0.206400	-0.857434
0.206500	-0.750971
0.206600	-0.765901
0.206700	-0.941825
0.206800	-1.121643
0.206900	-1.097300
0.207000	-0.945071
0.207100	-0.786350
0.207200	-0.724030
0.207300	-0.836336
0.207400	-0.909691
0.207500	-0.919104
0.207600	-0.923648
0.207700	-0.883725
0.207800	-0.919104
0.207900	-0.931114
0.208000	-0.939228
0.208100	-0.929166
0.208200	-0.957405
0.208300	-0.997328
0.208400	-1.043095
0.208500	-1.042121
0.208600	-1.021348
0.208700	-1.012259
0.208800	-1.022646
0.208900	-1.129758
0.209000	-1.234923
0.209100	-1.236870
0.209200	-1.270302
0.209300	-1.281987
0.209400	-1.212202
0.209500	-1.219667
0.209600	-1.220966
0.209700	-1.257319
0.209800	-1.258942
0.209900	-1.269977
0.210000	-1.283610
0.210100	-1.306331
0.210200	-1.336192
0.210300	-1.338140
0.210400	-1.356316
0.210500	-1.339438
0.210600	-1.373844
0.210700	-1.390398
0.210800	-1.415390
0.210900	-1.453691
0.211000	-1.489071
0.211100	-1.524450
0.211200	-1.612737
0.211300	-1.917520
0.211400	-2.033720
0.211500	-1.832154
0.211600	-1.661424
0.211700	-1.581577
0.211800	-1.724393
0.211900	-1.954847
0.212000	-2.165177
0.212100	-2.087601
0.212200	-1.997692
0.212300	-1.919143
0.212400	-2.005157
0.212500	-2.095067
0.212600	-2.232365
0.212700	-2.300203
0.212800	-2.284948
0.212900	-2.214838
0.213000	-2.207697
0.213100	-2.211592
0.213200	-2.280079
0.213300	-2.344996
0.213400	-2.324222
0.213500	-2.344996
0.213600	-2.369989
0.213700	-2.440748
0.213800	-2.461846
0.213900	-2.399201
0.214000	-2.445941
0.214100	-2.479373
0.214200	-2.544939
0.214300	-2.493330
0.214400	-2.357005
0.214500	-2.234313
0.214600	-2.304747
0.214700	-2.466714
0.214800	-2.650753
0.214900	-2.602066
0.215000	-2.447239
0.215100	-2.239506
0.215200	-2.197310
0.215300	-2.306695
0.215400	-2.475803
0.215500	-2.557273
0.215600	-2.513779
0.215700	-2.355058
0.215800	-2.243726
0.215900	-2.211592
0.216000	-2.250217
0.216100	-2.249568
0.216200	-2.198609
0.216300	-2.143105
0.216400	-2.079811
0.216500	-2.023334
0.216600	-1.915572
0.216700	-1.787687
0.216800	-1.677653
0.216900	-1.652985
0.217000	-1.602674
0.217100	-1.591314
0.217200	-1.524450
0.217300	-1.367352
0.217400	-1.292374
0.217500	-1.038550
0.217600	-1.081720
0.217700	-1.064192
0.217800	-1.001873
0.217900	-0.904498
0.218000	-0.782455
0.218100	-0.660737
0.218200	-0.598742
0.218300	-0.556546
0.218400	-0.563038
0.218500	-0.561090
0.218600	-0.477997
0.218700	-0.502016
0.218800	-0.398799
0.218900	-0.358551
0.219000	-0.328365
0.219100	-0.262800
0.219200	-0.371210
0.219300	-0.264423
0.219400	-0.370561
0.219500	-0.088824
0.219600	-0.002810
0.219700	0.282822
0.219800	0.204273
0.219900	-0.123554
0.220000	-0.185225
0.220100	-0.160881
0.220200	0.114689
0.220300	0.295156
0.220400	0.308140
0.220500	0.250364
0.220600	0.064054
0.220700	0.104951
0.220800	0.217581
0.220900	0.416225
0.221000	0.527232
0.221100	0.508406
0.221200	0.460368
0.221300	0.427910
0.221400	0.472378
0.221500	0.500292
0.221600	0.579814
0.221700	0.540540
0.221800	0.498344
0.221900	0.520740
0.222000	0.485361
0.222100	0.411356
0.222200	0.319824
0.222300	0.329562
0.222400	0.314631
0.222500	0.407461
0.222600	0.697962
0.222700	0.257829
0.222800	0.024131
0.222900	-0.142380
0.223000	-0.037865
0.223100	0.124751
0.223200	0.377600
0.223300	0.006603
0.223400	-0.162504
0.223500	-0.337778
0.223600	-0.351410
0.223700	-0.277406
0.223800	-0.179707
0.223900	-0.198857
0.224000	-0.308566
0.224100	-0.415028
0.224200	-0.491630
0.224300	-0.524737
0.224400	-0.486112
0.224500	-0.536097
0.224600	-0.587381
0.224700	-0.700011
0.224800	-0.757138
0.224900	-0.760059
0.225000	-0.774341
0.225100	-0.807773
0.225200	-0.869443
0.225300	-0.858407
0.225400	-0.883725
0.225500	-0.925271
0.225600	-1.061596
0.225700	-1.143390
0.225800	-1.142092
0.225900	-1.084316
0.226000	-1.084966
0.226100	-1.171304
0.226200	-1.215123
0.226300	-1.223238
0.226400	-1.273223
0.226500	-1.309252
0.226600	-1.332946
0.226700	-1.385204
0.226800	-1.405004
0.226900	-1.431619
0.227000	-1.413443
0.227100	-1.453367
0.227200	-1.499457
0.227300	-1.517958
0.227400	-1.514388
0.227500	-1.549768
0.227600	-1.598455
0.227700	-1.608192
0.227800	-1.698102
0.227900	-1.865586
0.228000	-2.126551
0.228100	-2.151544
0.228200	-1.986331
0.228300	-1.809758
0.228400	-1.729586
0.228500	-1.933749
0.228600	-2.184976
0.228700	-2.301177
0.228800	-2.223601
0.228900	-2.035668
0.229000	-1.958417
0.229100	-1.992823
0.229200	-2.199258
0.229300	-2.299554
0.229400	-2.350189
0.229500	-2.292413
0.229600	-2.233014
0.229700	-2.241454
0.229800	-2.261253
0.229900	-2.308318
0.230000	-2.311888
0.230100	-2.269368
0.230200	-2.281702
0.230300	-2.355382
0.230400	-2.386218
0.230500	-2.311888
0.230600	-2.299554
0.230700	-2.324222
0.230800	-2.374208
0.230900	-2.375831
0.231000	-2.262227
0.231100	-2.147324
0.231200	-2.085978
0.231300	-2.215162
0.231400	-2.415755
0.231500	-2.506963
0.231600	-2.392709
0.231700	-2.268719
0.231800	-2.104479
0.231900	-2.136938
0.232000	-2.265797
0.232100	-2.405044
0.232200	-2.474180
0.232300	-2.406342
0.232400	-2.259630
0.232500	-2.189196
0.232600	-2.206074
0.232700	-2.248270
0.232800	-2.253463
0.232900	-2.243401
0.233000	-2.211592
0.233100	-2.160632
0.233200	-2.129472
0.233300	-2.071697
0.233400	-1.946732
0.233500	-1.883439
0.233600	-1.887333
0.233700	-1.891228
0.233800	-1.906808
0.233900	-1.793529
0.234000	-1.675056
0.234100	-1.507572
0.234200	-1.479658
0.234300	-1.528020
0.234400	-1.537433
0.234500	-1.460507
0.234600	-1.404030
0.234700	-1.331648
0.234800	-1.254073
0.234900	-1.219343
0.235000	-1.218044
0.235100	-1.237519
0.235200	-1.256994
0.235300	-1.265433
0.235400	-1.248880
0.235500	-1.147610
0.235600	-1.135600
0.235700	-1.109958
0.235800	-1.172603
0.235900	-1.107686
0.236000	-1.182989
0.236100	-1.081071
0.236200	-1.017777
0.236300	-0.682159
0.236400	-0.560441
0.236500	-0.652947
0.236600	-1.066140
0.236700	-0.969414
0.236800	-0.770121
0.236900	-0.543238
0.237000	-0.420222
0.237100	-0.386465
0.237200	-0.550379
0.237300	-0.649052
0.237400	-0.553949
0.237500	-0.346542
0.237600	-0.233912
0.237700	-0.082981
0.237800	-0.118036
0.237900	-0.123554
0.238000	-0.139783
0.238100	-0.131019
0.238200	-0.093043
0.238300	-0.006380
0.238400	0.018937
0.238500	0.038088
0.238600	0.064054
0.238700	-0.047277
0.238800	-0.079086
0.238900	-0.081034
0.239000	-0.065454
0.239100	0.083529
0.239200	0.105276
0.239300	0.192588
0.239400	-0.024232
0.239500	-0.129072
0.239600	-0.094017
0.239700	-0.004757
0.239800	0.564884
0.239900	0.520091
0.240000	0.003682
0.240100	-0.108948
0.240200	-0.181005
0.240300	-0.077463
0.240400	0.341896
0.240500	1.162438
0.240600	0.955680
0.240700	0.520416
0.240800	0.633370
0.240900	0.766773
0.241000	0.847594
0.241100	0.982620
0.241200	0.791441
0.241300	0.983269
0.241400	0.865771
0.241500	1.161464
0.241600	1.079670
0.241700	0.619089
0.241800	0.527881
0.241900	0.586306
0.242000	0.878105
0.242100	0.911537
0.242200	0.309762
0.242300	-0.451057
0.242400	-0.484164
0.242500	-0.512728
0.242600	-0.428985
0.242700	-0.524088
0.242800	-0.591276
0.242900	-0.650026
0.243000	-0.691572
0.243100	-0.737987
0.243200	-0.832441
0.243300	-0.862627
0.243400	-0.947343
0.243500	-0.991486
0.243600	-1.055429
0.243700	-1.080746
0.243800	-1.144040
0.243900	-1.189157
0.244000	-1.248555
0.244100	-1.319963
0.244200	-1.379362
0.244300	-1.452068
0.244400	-1.550092
0.244500	-1.606569
0.244600	-1.900317
0.244700	-2.068126
0.244800	-2.083382
0.244900	-1.887333
0.245000	-1.784765
0.245100	-1.864288
0.245200	-2.150570
0.245300	-2.398876
0.245400	-2.463469
0.245500	-2.349215
0.245600	-2.168098
0.245700	-2.197635
0.245800	-2.331363
0.245900	-2.497550
0.246000	-2.609531
0.246100	-2.567011
0.246200	-2.504042
0.246300	-2.522543
0.246400	-2.610505
0.246500	-2.611803
0.246600	-2.603364
0.246700	-2.629980
0.246800	-2.598495
0.246900	-2.610180
0.247000	-2.614725
0.247100	-2.682563
0.247200	-2.522543
0.247300	-2.495602
0.247400	-2.491058
0.247500	-2.546887
0.247600	-2.474829
0.247700	-2.386867
0.247800	-2.128823
0.247900	-2.110322
0.248000	-2.248919
0.248100	-2.459249
0.248200	-2.445616
0.248300	-2.329091
0.248400	-2.083057
0.248500	-1.977243
0.248600	-2.090847
0.248700	-2.270991
0.248800	-2.400499
0.248900	-2.325845
0.249000	-2.183678
0.249100	-2.060012
0.249200	-2.039238
0.249300	-2.070074
0.249400	-2.107076
0.249500	-2.076890
0.249600	-2.039887
0.249700	-1.985033
0.249800	-1.943162
0.249900	-1.850331
0.250000	-1.719524
0.250100	-1.622474
0.250200	-1.576059
0.250300	-1.568593
0.250400	-1.584822
0.250500	-1.555935
0.250600	-1.386178
0.250700	-1.308603
0.250800	-1.157672
0.250900	-1.133653
0.251000	-1.103142
0.251100	-1.085939
0.251200	-0.996030
0.251300	-0.916832
0.251400	-0.810369
0.251500	-0.771744
0.251600	-0.737014
0.251700	-0.797710
0.251800	-0.781806
0.251900	-0.828870
0.252000	-0.809720
0.252100	-0.793491
0.252200	-0.776613
0.252300	-0.793166
0.252400	-0.850942
0.252500	-0.859706
0.252600	-0.963896
0.252700	-0.955133
0.252800	-0.946694
0.252900	-0.772393
0.253000	-0.573749
0.253100	-0.614971
0.253200	-0.905796
0.253300	-1.217071
0.253400	-1.161242
0.253500	-0.965844
0.253600	-0.807773
0.253700	-0.639639
0.253800	-0.866846
0.253900	-0.976231
0.254000	-1.156698
0.254100	-0.991161
0.254200	-0.879505
0.254300	-0.747400
0.254400	-0.727925
0.254500	-0.868145
0.254600	-0.867820
0.254700	-0.888918
0.254800	-0.812317
0.254900	-0.785701
0.255000	-0.804202
0.255100	-0.810369
0.255200	-0.800956
0.255300	-0.813290
0.255400	-0.830169
0.255500	-0.861329
0.255600	-0.940851
0.255700	-0.973959
0.255800	-0.889567
0.255900	-0.850942
0.256000	-0.808097
0.256100	-0.996679
0.256200	-1.157997
0.256300	-1.132679
0.256400	-0.903524
0.256500	-0.694818
0.256600	-0.731171
0.256700	-0.960975
0.256800	-1.203114
0.256900	-1.180717
0.257000	-1.008040
0.257100	-0.793816
0.257200	-0.828870
0.257300	-0.942799
0.257400	-1.060622
0.257500	-1.051209
0.257600	-1.074254
0.257700	-1.007715
0.257800	-1.037901
0.257900	-1.084966
0.258000	-1.154426
0.258100	-1.136250
0.258200	-1.083667
0.258300	-1.079772
0.258400	-1.113853
0.258500	-1.122293
0.258600	-1.075228
0.258700	-1.066140
0.258800	-1.031410
0.258900	-1.140145
0.259000	-1.210254
0.259100	-1.178770
0.259200	-1.148259
0.259300	-1.026216
0.259400	-1.088861
0.259500	-1.076526
0.259600	-1.067438
0.259700	-1.077176
0.259800	-1.079448
0.259900	-1.075553
0.260000	-1.096001
0.260100	-1.098273
0.260200	-1.134627
0.260300	-1.121643
0.260400	-1.191753
0.260500	-1.172278
0.260600	-1.201815
0.260700	-1.177147
0.260800	-1.207658
0.260900	-1.217071
0.261000	-1.263161
0.261100	-1.261214
0.261200	-1.373844
0.261300	-1.582550
0.261400	-1.673109
0.261500	-1.471219
0.261600	-1.211877
0.261700	-1.110932
0.261800	-1.243362
0.261900	-1.547171
0.262000	-1.652660
0.262100	-1.599753
0.262200	-1.394293
0.262300	-1.295944
0.262400	-1.304383
0.262500	-1.492641
0.262600	-1.610789
0.262700	-1.618254
0.262800	-1.568918
0.262900	-1.465701
0.263000	-1.436488
0.263100	-1.460183
0.263200	-1.516985
0.263300	-1.522503
0.263400	-1.529643
0.263500	-1.514063
0.263600	-1.488746
0.263700	-1.560154
0.263800	-1.599104
0.263900	-1.576708
0.264000	-1.553987
0.264100	-1.560803
0.264200	-1.589042
0.264300	-1.561777
0.264400	-1.442331
0.264500	-1.307629
0.264600	-1.330350
0.264700	-1.554312
0.264800	-1.695181
0.264900	-1.705892
0.265000	-1.485825
0.265100	-1.284584
0.265200	-1.296918
0.265300	-1.453367
0.265400	-1.678627
0.265500	-1.707839
0.265600	-1.610140
0.265700	-1.466674
0.265800	-1.437787
0.265900	-1.500431
0.266000	-1.548145
0.266100	-1.547820
0.266200	-1.532565
0.266300	-1.519906
0.266400	-1.493290
0.266500	-1.458560
0.266600	-1.353720
0.266700	-1.236546
0.266800	-1.165787
0.266900	-1.192078
0.267000	-1.178445
0.267100	-1.185262
0.267200	-1.124240
0.267300	-0.994083
0.267400	-0.995706
0.267500	-0.760708
0.267600	-0.837634
0.267700	-0.862302
0.267800	-0.858732
0.267900	-0.811018
0.268000	-0.750322
0.268100	-0.730522
0.268200	-0.715267
0.268300	-0.771419
0.268400	-0.849644
0.268500	-0.844775
0.268600	-0.901901
0.268700	-0.908393
0.268800	-0.955457
0.268900	-0.934360
0.269000	-0.984670
0.269100	-0.977204
0.269200	-1.032383
0.269300	-1.135276
0.269400	-1.078799
0.269500	-1.034980
0.269600	-0.836336
0.269700	-0.685730
0.269800	-0.725978
0.269900	-1.067114
0.270000	-1.319314
0.270100	-1.021348
0.270200	-0.959028
0.270300	-0.695467
0.270400	-0.777586
0.270500	-0.893462
0.270600	-1.065166
0.270700	-1.094379
0.270800	-0.909367
0.270900	-0.771095
0.271000	-0.735066
0.271100	-0.744154
0.271200	-0.769796
0.271300	-0.742856
0.271400	-0.776937
0.271500	-0.709749
0.271600	-0.666579
0.271700	-0.670474
0.271800	-0.618866
0.271900	-0.637367
0.272000	-0.710723
0.272100	-0.862302
0.272200	-0.778885
0.272300	-0.869768
0.272400	-0.825300
0.272500	-0.786026
0.272600	-0.786026
0.272700	-0.835037
0.272800	-1.099896
0.272900	-1.213176
0.273000	-1.119696
0.273100	-0.900603
0.273200	-0.796088
0.273300	-0.921052
0.273400	-1.172927
0.273500	-1.318016
0.273600	-1.200192
0.273700	-1.003496
0.273800	-0.910665
0.273900	-0.998627
0.274000	-1.099572
0.274100	-1.121643
0.274200	-1.048612
0.274300	-1.063543
0.274400	-1.023944
0.274500	-1.096651
0.274600	-1.094703
0.274700	-1.161892
0.274800	-1.134302
0.274900	-1.146636
0.275000	-1.176822
0.275100	-1.163515
0.275200	-1.145662
0.275300	-1.119371
0.275400	-1.155075
0.275500	-1.209281
0.275600	-1.357939
0.275700	-1.380335
0.275800	-1.384555
0.275900	-1.388125
0.276000	-1.349825
0.276100	-1.377739
0.276200	-1.368975
0.276300	-1.370923
0.276400	-1.378713
0.276500	-1.371247
0.276600	-1.369624
0.276700	-1.393319
0.276800	-1.413443
0.276900	-1.414417
0.277000	-1.446550
0.277100	-1.431944
0.277200	-1.434865
0.277300	-1.460507
0.277400	-1.443629
0.277500	-1.495887
0.277600	-1.545873
0.277700	-1.614684
0.277800	-1.614359
0.277900	-1.810732
0.278000	-2.073969
0.278100	-2.113243
0.278200	-1.900641
0.278300	-1.808460
0.278400	-1.758799
0.278500	-2.026255
0.278600	-2.220680
0.278700	-2.324871
0.278800	-2.190494
0.278900	-2.026904
0.279000	-2.000288
0.279100	-2.098312
0.279200	-2.270341
0.279300	-2.332337
0.279400	-2.349215
0.279500	-2.258332
0.279600	-2.250217
0.279700	-2.275859
0.279800	-2.308642
0.279900	-2.314485
0.280000	-2.326494
0.280100	-2.308642
0.280200	-2.374857
0.280300	-2.395955
0.280400	-2.502743
0.280500	-2.450161
0.280600	-2.447239
0.280700	-2.374208
0.280800	-2.457301
0.280900	-2.444967
0.281000	-2.431010
0.281100	-2.252165
0.281200	-2.176537
0.281300	-2.291764
0.281400	-2.485865
0.281500	-2.580968
0.281600	-2.471259
0.281700	-2.206399
0.281800	-2.054169
0.281900	-2.135639
0.282000	-2.343697
0.282100	-2.482294
0.282200	-2.469636
0.282300	-2.340451
0.282400	-2.242103
0.282500	-2.220356
0.282600	-2.271640
0.282700	-2.344346
0.282800	-2.340776
0.282900	-2.314809
0.283000	-2.305072
0.283100	-2.296957
0.283200	-2.258007
0.283300	-2.219057
0.283400	-2.109673
0.283500	-2.078837
0.283600	-2.102532
0.283700	-2.119735
0.283800	-2.134666
0.283900	-2.026904
0.284000	-1.930828
0.284100	-1.806188
0.284200	-1.744517
0.284300	-1.798722
0.284400	-1.792880
0.284500	-1.725042
0.284600	-1.624097
0.284700	-1.506273
0.284800	-1.431619
0.284900	-1.428698
0.285000	-1.384555
0.285100	-1.412145
0.285200	-1.365080
0.285300	-1.319639
0.285400	-1.303085
0.285500	-1.210254
0.285600	-1.258293
0.285700	-1.159944
0.285800	-1.234273
0.285900	-1.167409
0.286000	-1.240116
0.286100	-1.121968
0.286200	-0.984670
0.286300	-0.697739
0.286400	-0.616594
0.286500	-0.747076
0.286600	-1.042445
0.286700	-1.017128
0.286800	-0.833090
0.286900	-0.495525
0.287000	-0.387114
0.287100	-0.445215
0.287200	-0.558494
0.287300	-0.671448
0.287400	-0.534150
0.287500	-0.326418
0.287600	-0.156337
0.287700	-0.107974
0.287800	-0.078762
0.287900	-0.138485
0.288000	-0.108299
0.288100	-0.046304
0.288200	0.035816
0.288300	0.047825
0.288400	0.046851
0.288500	0.053018
0.288600	0.078336
0.288700	-0.020986
0.288800	-0.057339
0.288900	-0.096614
0.289000	-0.160556
0.289100	-0.123554
0.289200	-0.067401
0.289300	-0.065454
0.289400	-0.171592
0.289500	-0.462742
0.289600	-0.423468
0.289700	-0.353358
0.289800	-0.108948
0.289900	-0.115764
0.290000	-0.305969
0.290100	-0.570503
0.290200	-0.627954
0.290300	-0.522790
0.290400	-0.390685
0.290500	-0.379000
0.290600	-0.504613
0.290700	-0.626331
0.290800	-0.649052
0.290900	-0.656193
0.291000	-0.655544
0.291100	-0.676966
0.291200	-0.743505
0.291300	-0.798684
0.291400	-0.802579
0.291500	-0.786350
0.291600	-0.840880
0.291700	-0.898655
0.291800	-0.918130
0.291900	-0.885023
0.292000	-0.860679
0.292100	-0.839257
0.292200	-0.925920
0.292300	-1.052832
0.292400	-1.062569
0.292500	-1.048612
0.292600	-1.056727
0.292700	-1.006417
0.292800	-1.068737
0.292900	-1.120020
0.293000	-1.170331
0.293100	-1.205710
0.293200	-1.242713
0.293300	-1.273548
0.293400	-1.347553
0.293500	-1.405328
0.293600	-1.413443
0.293700	-1.473815
0.293800	-1.488097
0.293900	-1.565023
0.294000	-1.584498
0.294100	-1.645195
0.294200	-1.700698
0.294300	-1.781520
0.294400	-1.867534
0.294500	-1.897720
0.294600	-2.202504
0.294700	-2.395955
0.294800	-2.420624
0.294900	-2.154141
0.295000	-2.046704
0.295100	-2.180432
0.295200	-2.493979
0.295300	-2.752997
0.295400	-2.772797
0.295500	-2.621541
0.295600	-2.441721
0.295700	-2.490409
0.295800	-2.685159
0.295900	-2.852320
0.296000	-2.948397
0.296100	-2.888998
0.296200	-2.863680
0.296300	-2.853294
0.296400	-2.918210
0.296500	-2.950020
0.296600	-2.954888
0.296700	-2.951967
0.296800	-2.937361
0.296900	-2.955538
0.297000	-2.926650
0.297100	-2.983776
0.297200	-2.888998
0.297300	-2.880559
0.297400	-2.842258
0.297500	-2.835766
0.297600	-2.802983
0.297700	-2.599145
0.297800	-2.450485
0.297900	-2.384919
0.298000	-2.479698
0.298100	-2.612452
0.298200	-2.584538
0.298300	-2.336881
0.298400	-2.058713
0.298500	-1.931477
0.298600	-1.960040
0.298700	-2.054169
0.298800	-2.086952
0.298900	-1.989902
0.299000	-1.798398
0.299100	-1.668565
0.299200	-1.642274
0.299300	-1.658827
0.299400	-1.649739
0.299500	-1.582875
0.299600	-1.558856
0.299700	-1.524450
0.299800	-1.486474
0.299900	-1.421882
0.300000	-1.324183
0.300100	-1.238493
0.300200	-1.215772
0.300300	-1.215123
0.300400	-1.265433
0.300500	-1.223562
0.300600	-1.072631
0.300700	-1.020049
0.300800	-0.787973
0.300900	-0.852889
0.301000	-0.828870
0.301100	-0.795438
0.301200	-0.696116
0.301300	-0.611076
0.301400	-0.500393
0.301500	-0.406914
0.301600	-0.349138
0.301700	-0.354981
0.301800	-0.278704
0.301900	-0.310189
0.302000	-0.244948
0.302100	-0.224824
0.302200	-0.113817
0.302300	-0.068375
0.302400	-0.046953
0.302500	-0.047602
0.302600	-0.099860
0.302700	-0.107000
0.302800	-0.033645
0.302900	0.155262
0.303000	0.463939
0.303100	0.392855
0.303200	0.250364
0.303300	-0.183926
0.303400	-0.052795
0.303500	0.011796
0.303600	0.318526
0.303700	0.356178
0.303800	0.150068
0.303900	0.018613
0.304000	-0.197234
0.304100	-0.026504
0.304200	-0.022609
0.304300	0.059185
0.304400	-0.045979
0.304500	-0.065129
0.304600	-0.085578
0.304700	-0.151144
0.304800	-0.125502
0.304900	-0.170618
0.305000	-0.215411
0.305100	-0.270265
0.305200	-0.272537
0.305300	-0.287792
0.305400	-0.475401
0.305500	-0.473778
0.305600	-0.598417
0.305700	-0.586732
0.305800	-0.582513
0.305900	-0.560117
0.306000	-0.698713
0.306100	-0.935009
0.306200	-1.174226
0.306300	-1.131381
0.306400	-1.067114
0.306500	-0.888918
0.306600	-1.056078
0.306700	-1.320288
0.306800	-1.574760
0.306900	-1.587419
0.307000	-1.487123
0.307100	-1.389099
0.307200	-1.439409
0.307300	-1.591639
0.307400	-1.731209
0.307500	-1.679601
0.307600	-1.691610
0.307700	-1.622799
0.307800	-1.698426
0.307900	-1.728613
0.308000	-1.707515
0.308100	-1.665643
0.308200	-1.615009
0.308300	-1.640651
0.308400	-1.679925
0.308500	-1.679925
0.308600	-1.598455
0.308700	-1.540030
0.308800	-1.525748
0.308900	-1.623772
0.309000	-1.656231
0.309100	-1.622149
0.309200	-1.579629
0.309300	-1.520555
0.309400	-1.470569
0.309500	-1.450445
0.309600	-1.399486
0.309700	-1.358913
0.309800	-1.302436
0.309900	-1.297242
0.310000	-1.230054
0.310100	-1.196946
0.310200	-1.168708
0.310300	-1.135925
0.310400	-1.154426
0.310500	-1.113853
0.310600	-1.101195
0.310700	-1.093405
0.310800	-1.049911
0.310900	-1.120020
0.311000	-1.102818
0.311100	-1.182340
0.311200	-1.295619
0.311300	-1.553338
0.311400	-1.740298
0.311500	-1.541978
0.311600	-1.354369
0.311700	-1.243037
0.311800	-1.512441
0.311900	-1.851629
0.312000	-2.016193
0.312100	-2.002236
0.312200	-1.790932
0.312300	-1.736727
0.312400	-1.848059
0.312500	-2.072021
0.312600	-2.249893
0.312700	-2.238532
0.312800	-2.196337
0.312900	-2.153167
0.313000	-2.233339
0.313100	-2.320976
0.313200	-2.371287
0.313300	-2.411860
0.313400	-2.406342
0.313500	-2.394981
0.313600	-2.422896
0.313700	-2.477426
0.313800	-2.473855
0.313900	-2.477101
0.314000	-2.476452
0.314100	-2.459574
0.314200	-2.544290
0.314300	-2.464442
0.314400	-2.380375
0.314500	-2.212241
0.314600	-2.331363
0.314700	-2.489760
0.314800	-2.650429
0.314900	-2.626734
0.315000	-2.387191
0.315100	-2.218408
0.315200	-2.214189
0.315300	-2.369339
0.315400	-2.553378
0.315500	-2.568958
0.315600	-2.461521
0.315700	-2.297282
0.315800	-2.238532
0.315900	-2.295010
0.316000	-2.348241
0.316100	-2.333311
0.316200	-2.261902
0.316300	-2.207048
0.316400	-2.169396
0.316500	-2.133692
0.316600	-2.059038
0.316700	-1.917520
0.316800	-1.822092
0.316900	-1.809758
0.317000	-1.767887
0.317100	-1.758799
0.317200	-1.614684
0.317300	-1.453691
0.317400	-1.363133
0.317500	-1.167085
0.317600	-1.179744
0.317700	-1.130407
0.317800	-1.046990
0.317900	-0.960651
0.318000	-0.834388
0.318100	-0.753567
0.318200	-0.682159
0.318300	-0.659114
0.318400	-0.636718
0.318500	-0.647104
0.318600	-0.610427
0.318700	-0.614322
0.318800	-0.509806
0.318900	-0.572775
0.319000	-0.515324
0.319100	-0.545835
0.319200	-0.604260
0.319300	-0.604260
0.319400	-0.662360
0.319500	-0.505587
0.319600	-0.306943
0.319700	-0.146924
0.319800	-0.178408
0.319900	-0.650999
0.320000	-0.683782
0.320100	-0.676966
0.320200	-0.285196
0.320300	-0.192690
0.320400	-0.219630
0.320500	-0.304021
0.320600	-0.515973
0.320700	-0.493577
0.320800	-0.395554
0.320900	-0.249816
0.321000	-0.146275
0.321100	-0.176785
0.321200	-0.203077
0.321300	-0.271563
0.321400	-0.246571
0.321500	-0.262150
0.321600	-0.189120
0.321700	-0.226122
0.321800	-0.201129
0.321900	-0.185874
0.322000	-0.305320
0.322100	-0.352709
0.322200	-0.399449
0.322300	-0.399773
0.322400	-0.463391
0.322500	-0.348165
0.322600	-0.409511
0.322700	-0.451706
0.322800	-0.700336
0.322900	-0.774016
0.323000	-0.694818
0.323100	-0.529930
0.323200	-0.428336
0.323300	-0.613348
0.323400	-0.851591
0.323500	-1.025567
0.323600	-0.947018
0.323700	-0.834064
0.323800	-0.739286
0.323900	-0.870417
0.324000	-0.965844
0.324100	-1.060297
0.324200	-1.039849
0.324300	-1.088211
0.324400	-1.034980
0.324500	-1.111906
0.324600	-1.182340
0.324700	-1.224861
0.324800	-1.202789
0.324900	-1.233300
0.325000	-1.285233
0.325100	-1.306655
0.325200	-1.279390
0.325300	-1.233949
0.325400	-1.229080
0.325500	-1.245634
0.325600	-1.373519
0.325700	-1.370923
0.325800	-1.319963
0.325900	-1.301137
0.326000	-1.186235
0.326100	-1.227782
0.326200	-1.187858
0.326300	-1.173577
0.326400	-1.180393
0.326500	-1.168059
0.326600	-1.182340
0.326700	-1.179744
0.326800	-1.164488
0.326900	-1.162541
0.327000	-1.167734
0.327100	-1.194025
0.327200	-1.176498
0.327300	-1.199219
0.327400	-1.194025
0.327500	-1.248880
0.327600	-1.230378
0.327700	-1.326130
0.327800	-1.321911
0.327900	-1.524450
0.328000	-1.776651
0.328100	-1.817224
0.328200	-1.600727
0.328300	-1.416689
0.328400	-1.506598
0.328500	-1.743868
0.328600	-2.035343
0.328700	-2.098962
0.328800	-2.011649
0.328900	-1.900966
0.329000	-1.825014
0.329100	-1.998665
0.329200	-2.196337
0.329300	-2.322275
0.329400	-2.363821
0.329500	-2.302800
0.329600	-2.273912
0.329700	-2.316108
0.329800	-2.381349
0.329900	-2.432309
0.330000	-2.435879
0.330100	-2.476452
0.330200	-2.529359
0.330300	-2.537149
0.330400	-2.561817
0.330500	-2.543316
0.330600	-2.578371
0.330700	-2.621865
0.330800	-2.673150
0.330900	-2.707555
0.331000	-2.664710
0.331100	-2.514428
0.331200	-2.502743
0.331300	-2.621216
0.331400	-2.803308
0.331500	-2.896788
0.331600	-2.793570
0.331700	-2.571555
0.331800	-2.427115
0.331900	-2.534228
0.332000	-2.695870
0.332100	-2.803957
0.332200	-2.741961
0.332300	-2.631927
0.332400	-2.534552
0.332500	-2.507937
0.332600	-2.528710
0.332700	-2.553703
0.332800	-2.522867
0.332900	-2.494304
0.333000	-2.477750
0.333100	-2.446590
0.333200	-2.366418
0.333300	-2.258981
0.333400	-2.147649
0.333500	-2.109348
0.333600	-2.101883
0.333700	-2.070398
0.333800	-2.055792
0.333900	-1.912976
0.334000	-1.772756
0.334100	-1.574760
0.334200	-1.538083
0.334300	-1.555935
0.334400	-1.491992
0.334500	-1.392994
0.334600	-1.294970
0.334700	-1.181691
0.334800	-1.129109
0.334900	-1.111581
0.335000	-1.090159
0.335100	-1.120994
0.335200	-1.025892
0.335300	-1.141443
0.335400	-1.030436
0.335500	-1.038550
0.335600	-0.997004
0.335700	-0.961949
0.335800	-0.994407
0.335900	-0.971362
0.336000	-1.076202
0.336100	-0.941176
0.336200	-0.819133
0.336300	-0.523439
0.336400	-0.477673
0.336500	-0.717863
0.336600	-0.976555
0.336700	-1.055753
0.336800	-0.806150
0.336900	-0.644508
0.337000	-0.564012
0.337100	-0.601338
0.337200	-0.830493
0.337300	-0.874961
0.337400	-0.828870
0.337500	-0.670150
0.337600	-0.688326
0.337700	-0.611725
0.337800	-0.664632
0.337900	-0.742207
0.338000	-0.715267
0.338100	-0.723057
0.338200	-0.705205
0.338300	-0.692221
0.338400	-0.725004
0.338500	-0.701634
0.338600	-0.740259
0.338700	-0.757787
0.338800	-0.865224
0.338900	-0.838932
0.339000	-0.945395
0.339100	-0.849644
0.339200	-0.814589
0.339300	-0.830169
0.339400	-0.944422
0.339500	-1.211228
0.339600	-1.187858
0.339700	-1.066464
0.339800	-0.832441
0.339900	-0.904173
0.340000	-1.058350
0.340100	-1.303734
0.340200	-1.277443
0.340300	-1.177796
0.340400	-1.020049
0.340500	-1.041472
0.340600	-1.198569
0.340700	-1.289128
0.340800	-1.261214
0.340900	-1.306980
0.341000	-1.291075
0.341100	-1.364431
0.341200	-1.422531
0.341300	-1.470569
0.341400	-1.457586
0.341500	-1.431944
0.341600	-1.485500
0.341700	-1.547495
0.341800	-1.565347
0.341900	-1.547495
0.342000	-1.540679
0.342100	-1.534512
0.342200	-1.602025
0.342300	-1.706541
0.342400	-1.699400
0.342500	-1.695181
0.342600	-1.656231
0.342700	-1.577357
0.342800	-1.567620
0.342900	-1.522178
0.343000	-1.512441
0.343100	-1.500431
0.343200	-1.478035
0.343300	-1.430321
0.343400	-1.444278
0.343500	-1.437137
0.343600	-1.451419
0.343700	-1.437137
0.343800	-1.440383
0.343900	-1.470894
0.344000	-1.451094
0.344100	-1.500756
0.344200	-1.556259
0.344300	-1.597806
0.344400	-1.640001
0.344500	-1.708164
0.344600	-2.020088
0.344700	-2.144728
0.344800	-2.123630
0.344900	-1.828584
0.345000	-1.822092
0.345100	-1.910703
0.345200	-2.246322
0.345300	-2.475478
0.345400	-2.474504
0.345500	-2.345645
0.345600	-2.245349
0.345700	-2.314160
0.345800	-2.453731
0.345900	-2.685484
0.346000	-2.727355
0.346100	-2.728004
0.346200	-2.720214
0.346300	-2.733847
0.346400	-2.808826
0.346500	-2.866277
0.346600	-2.895490
0.346700	-2.912368
0.346800	-2.905227
0.346900	-2.967547
0.347000	-3.063949
0.347100	-3.107443
0.347200	-3.054536
0.347300	-3.075309
0.347400	-3.119128
0.347500	-3.181124
0.347600	-3.195405
0.347700	-3.090565
0.347800	-2.943528
0.347900	-2.957161
0.348000	-3.081801
0.348100	-3.267463
0.348200	-3.310633
0.348300	-3.086345
0.348400	-2.900034
0.348500	-2.861408
0.348600	-3.008769
0.348700	-3.218126
0.348800	-3.322318
0.348900	-3.257076
0.349000	-3.103548
0.349100	-3.039930
0.349200	-3.086345
0.349300	-3.150288
0.349400	-3.179176
0.349500	-3.127892
0.349600	-3.114259
0.349700	-3.057782
0.349800	-3.016884
0.349900	-2.960082
0.350000	-2.807203
0.350100	-2.698792
0.350200	-2.624137
0.350300	-2.596223
0.350400	-2.561493
0.350500	-2.466714
0.350600	-2.281702
0.350700	-2.179783
0.350800	-1.910703
0.350900	-1.943162
0.351000	-1.905835
0.351100	-1.844164
0.351200	-1.708813
0.351300	-1.610789
0.351400	-1.496536
0.351500	-1.419285
0.351600	-1.386178
0.351700	-1.418636
0.351800	-1.392994
0.351900	-1.382608
0.352000	-1.388125
0.352100	-1.328402
0.352200	-1.310550
0.352300	-1.240765
0.352400	-1.279066
0.352500	-1.235896
0.352600	-1.281013
0.352700	-1.291075
0.352800	-1.156374
0.352900	-0.944422
0.353000	-0.655544
0.353100	-0.637692
0.353200	-0.899629
0.353300	-1.113204
0.353400	-0.939228
0.353500	-0.733768
0.353600	-0.501367
0.353700	-0.451382
0.353800	-0.636718
0.353900	-0.712995
0.354000	-0.776613
0.354100	-0.563687
0.354200	-0.453654
0.354300	-0.351086
0.354400	-0.372833
0.354500	-0.380298
0.354600	-0.424117
0.354700	-0.430608
0.354800	-0.384842
0.354900	-0.427363
0.355000	-0.404317
0.355100	-0.431582
0.355200	-0.457549
0.355300	-0.424441
0.355400	-0.529606
0.355500	-0.586083
0.355600	-0.677615
0.355700	-0.685081
0.355800	-0.592575
0.355900	-0.564985
0.356000	-0.633472
0.356100	-0.833415
0.356200	-0.975257
0.356300	-0.907419
0.356400	-0.739286
0.356500	-0.602312
0.356600	-0.717539
0.356700	-0.964221
0.356800	-1.146312
0.356900	-1.121643
0.357000	-1.010312
0.357100	-0.873338
0.357200	-0.953510
0.357300	-1.096326
0.357400	-1.201815
0.357500	-1.185262
0.357600	-1.249204
0.357700	-1.200192
0.357800	-1.285233
0.357900	-1.330025
0.358000	-1.389099
0.358100	-1.399161
0.358200	-1.401109
0.358300	-1.440708
0.358400	-1.481605
0.358500	-1.507896
0.358600	-1.485825
0.358700	-1.466999
0.358800	-1.488097
0.358900	-1.612087
0.359000	-1.657529
0.359100	-1.653634
0.359200	-1.634484
0.359300	-1.510168
0.359400	-1.569892
0.359500	-1.578655
0.359600	-1.572488
0.359700	-1.584173
0.359800	-1.570865
0.359900	-1.583849
0.360000	-1.619877
0.360100	-1.597806
0.360200	-1.636106
0.360300	-1.640651
0.360400	-1.656880
0.360500	-1.671811
0.360600	-1.693882
0.360700	-1.689338
0.360800	-1.690636
0.360900	-1.735429
0.361000	-1.763018
0.361100	-1.758150
0.361200	-1.914598
0.361300	-2.131420
0.361400	-2.296308
0.361500	-2.099611
0.361600	-1.899668
0.361700	-1.858446
0.361800	-2.032422
0.361900	-2.338829
0.362000	-2.440423
0.362100	-2.375831
0.362200	-2.157711
0.362300	-2.096365
0.362400	-2.167124
0.362500	-2.351812
0.362600	-2.468337
0.362700	-2.473855
0.362800	-2.426141
0.362900	-2.401473
0.363000	-2.392385
0.363100	-2.442371
0.363200	-2.454056
0.363300	-2.425817
0.363400	-2.413483
0.363500	-2.419325
0.363600	-2.475803
0.363700	-2.522218
0.363800	-2.496576
0.363900	-2.456003
0.364000	-2.480672
0.364100	-2.480347
0.364200	-2.542992
0.364300	-2.508586
0.364400	-2.322275
0.364500	-2.274561
0.364600	-2.376156
0.364700	-2.563765
0.364800	-2.740338
0.364900	-2.694572
0.365000	-2.465741
0.365100	-2.336232
0.365200	-2.355707
0.365300	-2.550132
0.365400	-2.755918
0.365500	-2.790649
0.365600	-2.678992
0.365700	-2.538447
0.365800	-2.482619
0.365900	-2.532280
0.366000	-2.568958
0.366100	-2.553703
0.366200	-2.486839
0.366300	-2.461846
0.366400	-2.437826
0.366500	-2.418676
0.366600	-2.371611
0.366700	-2.239506
0.366800	-2.173291
0.366900	-2.164527
0.367000	-2.149921
0.367100	-2.179458
0.367200	-2.077539
0.367300	-1.938293
0.367400	-1.754904
0.367500	-1.688689
0.367600	-1.729911
0.367700	-1.713682
0.367800	-1.634808
0.367900	-1.532240
0.368000	-1.458884
0.368100	-1.369624
0.368200	-1.335868
0.368300	-1.313147
0.368400	-1.355018
0.368500	-1.291075
0.368600	-1.366703
0.368700	-1.293672
0.368800	-1.317042
0.368900	-1.240765
0.369000	-1.284908
0.369100	-1.274522
0.369200	-1.317691
0.369300	-1.372546
0.369400	-1.337491
0.369500	-1.247581
0.369600	-0.980126
0.369700	-0.807448
0.369800	-0.922025
0.369900	-1.239142
0.370000	-1.353071
0.370100	-1.219018
0.370200	-1.085290
0.370300	-0.835362
0.370400	-0.941176
0.370500	-1.108660
0.370600	-1.223562
0.370700	-1.250178
0.370800	-1.100546
0.370900	-1.055753
0.371000	-1.005443
0.371100	-1.115801
0.371200	-1.117748
0.371300	-1.145987
0.371400	-1.184288
0.371500	-1.187534
0.371600	-1.202140
0.371700	-1.242063
0.371800	-1.276469
0.371900	-1.298216
0.372000	-1.363457
0.372100	-1.495887
0.372200	-1.448498
0.372300	-1.524775
0.372400	-1.541004
0.372500	-1.491667
0.372600	-1.473166
0.372700	-1.565023
0.372800	-1.839295
0.372900	-1.833777
0.373000	-1.797749
0.373100	-1.581577
0.373200	-1.558207
0.373300	-1.639677
0.373400	-1.952899
0.373500	-2.016842
0.373600	-1.972050
0.373700	-1.791582
0.373800	-1.741596
0.373900	-1.838646
0.374000	-1.978541
0.374100	-2.043782
0.374200	-2.057090
0.374300	-2.027553
0.374400	-1.996718
0.374500	-2.081110
0.374600	-2.157711
0.374700	-2.177186
0.374800	-2.156737
0.374900	-2.205425
0.375000	-2.248594
0.375100	-2.296633
0.375200	-2.294685
0.375300	-2.277158
0.375400	-2.265797
0.375500	-2.309291
0.375600	-2.449187
0.375700	-2.468337
0.375800	-2.421273
0.375900	-2.401798
0.376000	-2.294685
0.376100	-2.332337
0.376200	-2.295010
0.376300	-2.263201
0.376400	-2.242427
0.376500	-2.229444
0.376600	-2.228470
0.376700	-2.250217
0.376800	-2.240480
0.376900	-2.219382
0.377000	-2.222952
0.377100	-2.223601
0.377200	-2.249244
0.377300	-2.216461
0.377400	-2.249568
0.377500	-2.230418
0.377600	-2.305396
0.377700	-2.279430
0.377800	-2.283000
0.377900	-2.458924
0.378000	-2.665360
0.378100	-2.656596
0.378200	-2.365120
0.378300	-2.133692
0.378400	-2.106427
0.378500	-2.346619
0.378600	-2.621865
0.378700	-2.675746
0.378800	-2.536500
0.378900	-2.351812
0.379000	-2.287220
0.379100	-2.449187
0.379200	-2.599794
0.379300	-2.743584
0.379400	-2.677045
0.379500	-2.653350
0.379600	-2.624787
0.379700	-2.700090
0.379800	-2.768577
0.379900	-2.796816
0.380000	-2.822134
0.380100	-2.801036
0.380200	-2.830897
0.380300	-2.839661
0.380400	-2.864979
0.380500	-2.847451
0.380600	-2.833494
0.380700	-2.885103
0.380800	-2.867575
0.380900	-2.903280
0.381000	-2.763059
0.381100	-2.609531
0.381200	-2.588758
0.381300	-2.731899
0.381400	-2.930220
0.381500	-3.078230
0.381600	-2.926650
0.381700	-2.728653
0.381800	-2.614400
0.381900	-2.680615
0.382000	-2.854267
0.382100	-3.028244
0.382200	-3.019805
0.382300	-2.888998
0.382400	-2.784157
0.382500	-2.741312
0.382600	-2.782859
0.382700	-2.801360
0.382800	-2.800711
0.382900	-2.748128
0.383000	-2.695870
0.383100	-2.662114
0.383200	-2.599469
0.383300	-2.486189
0.383400	-2.383946
0.383500	-2.346294
0.383600	-2.350514
0.383700	-2.315134
0.383800	-2.289816
0.383900	-2.111620
0.384000	-2.052222
0.384100	-1.843190
0.384200	-1.870780
0.384300	-1.888307
0.384400	-1.876298
0.384500	-1.825987
0.384600	-1.771133
0.384700	-1.661099
0.384800	-1.628641
0.384900	-1.572813
0.385000	-1.614684
0.385100	-1.596832
0.385200	-1.586445
0.385300	-1.639677
0.385400	-1.559180
0.385500	-1.575734
0.385600	-1.514388
0.385700	-1.572488
0.385800	-1.541328
0.385900	-1.639028
0.386000	-1.648441
0.386100	-1.560479
0.386200	-1.432269
0.386300	-1.212202
0.386400	-1.151830
0.386500	-1.381634
0.386600	-1.675706
0.386700	-1.664994
0.386800	-1.308927
0.386900	-1.212202
0.387000	-1.038550
0.387100	-1.194025
0.387200	-1.367677
0.387300	-1.436164
0.387400	-1.379037
0.387500	-1.143390
0.387600	-1.119047
0.387700	-1.069386
0.387800	-1.155075
0.387900	-1.101195
0.388000	-1.173901
0.388100	-1.134627
0.388200	-1.095028
0.388300	-1.132355
0.388400	-1.102493
0.388500	-1.087562
0.388600	-1.107686
0.388700	-1.257643
0.388800	-1.290102
0.388900	-1.340087
0.389000	-1.374493
0.389100	-1.222264
0.389200	-1.323534
0.389300	-1.286856
0.389400	-1.567295
0.389500	-1.730885
0.389600	-1.721796
0.389700	-1.627667
0.389800	-1.377414
0.389900	-1.499782
0.390000	-1.653309
0.390100	-1.925310
0.390200	-1.916871
0.390300	-1.819496
0.390400	-1.664670
0.390500	-1.650713
0.390600	-1.799047
0.390700	-1.900966
0.390800	-1.899018
0.390900	-1.936670
0.391000	-1.890904
0.391100	-1.954847
0.391200	-1.957768
0.391300	-1.971076
0.391400	-1.917844
0.391500	-1.887333
0.391600	-1.914598
0.391700	-1.952899
0.391800	-1.950952
0.391900	-1.871754
0.392000	-1.832479
0.392100	-1.828909
0.392200	-1.919467
0.392300	-2.003210
0.392400	-1.977892
0.392500	-1.954847
0.392600	-1.943486
0.392700	-1.845138
0.392800	-1.865911
0.392900	-1.819496
0.393000	-1.808784
0.393100	-1.792231
0.393200	-1.772107
0.393300	-1.738025
0.393400	-1.708488
0.393500	-1.692584
0.393600	-1.658827
0.393700	-1.651362
0.393800	-1.656555
0.393900	-1.667266
0.394000	-1.630589
0.394100	-1.660775
0.394200	-1.677653
0.394300	-1.725042
0.394400	-1.766264
0.394500	-1.837348
0.394600	-2.122007
0.394700	-2.281702
0.394800	-2.178160
0.394900	-1.973673
0.395000	-1.818522
0.395100	-1.957443
0.395200	-2.220356
0.395300	-2.447889
0.395400	-2.403745
0.395500	-2.243076
0.395600	-2.176862
0.395700	-2.209644
0.395800	-2.427115
0.395900	-2.566037
0.396000	-2.610830
0.396100	-2.536824
0.396200	-2.510858
0.396300	-2.581942
0.396400	-2.656596
0.396500	-2.703011
0.396600	-2.731899
0.396700	-2.740338
0.396800	-2.768253
0.396900	-2.814019
0.397000	-2.858487
0.397100	-2.918535
0.397200	-2.868874
0.397300	-2.884454
0.397400	-2.941256
0.397500	-3.005199
0.397600	-3.030841
0.397700	-2.850048
0.397800	-2.741961
0.397900	-2.809150
0.398000	-2.976311
0.398100	-3.190537
0.398200	-3.232408
0.398300	-3.050965
0.398400	-2.874716
0.398500	-2.858812
0.398600	-3.020779
0.398700	-3.205468
0.398800	-3.307387
0.398900	-3.235005
0.399000	-3.085371
0.399100	-3.025972
0.399200	-3.064922
0.399300	-3.123997
0.399400	-3.130164
0.399500	-3.130813
0.399600	-3.135682
0.399700	-3.102250
0.399800	-3.086994
0.399900	-3.019805
0.400000	-2.877962
0.400100	-2.809150
0.400200	-2.758840
0.400300	-2.769226
0.400400	-2.775718
0.400500	-2.699441
0.400600	-2.538123
0.400700	-2.461846
0.400800	-2.246322
0.400900	-2.270341
0.401000	-2.237559
0.401100	-2.184327
0.401200	-2.038265
0.401300	-1.961988
0.401400	-1.831181
0.401500	-1.771457
0.401600	-1.731858
0.401700	-1.750035
0.401800	-1.701348
0.401900	-1.690636
0.402000	-1.659476
0.402100	-1.618579
0.402200	-1.625720
0.402300	-1.555935
0.402400	-1.625720
0.402500	-1.599104
0.402600	-1.698426
0.402700	-1.695181
0.402800	-1.615982
0.402900	-1.504001
0.403000	-1.157347
0.403100	-1.237519
0.403200	-1.593911
0.403300	-1.816574
0.403400	-1.657529
0.403500	-1.594235
0.403600	-1.352421
0.403700	-1.358588
0.403800	-1.516985
0.403900	-1.709787
0.404000	-1.726340
0.404100	-1.633510
0.404200	-1.479658
0.404300	-1.448822
0.404400	-1.564374
0.404500	-1.571515
0.404600	-1.644870
0.404700	-1.584822
0.404800	-1.576059
0.404900	-1.552040
0.405000	-1.549118
0.405100	-1.570865
0.405200	-1.570216
0.405300	-1.566646
0.405400	-1.661749
0.405500	-1.601701
0.405600	-1.670512
0.405700	-1.685768
0.405800	-1.562102
0.405900	-1.559180
0.406000	-1.496211
0.406100	-1.836374
0.406200	-1.864937
0.406300	-1.829233
0.406400	-1.576059
0.406500	-1.464078
0.406600	-1.537758
0.406700	-1.801644
0.406800	-1.985358
0.406900	-1.946083
0.407000	-1.778598
0.407100	-1.697777
0.407200	-1.764966
0.407300	-1.921090
0.407400	-2.029501
0.407500	-2.023658
0.407600	-2.044756
0.407700	-1.987630
0.407800	-2.077539
0.407900	-2.140833
0.408000	-2.177511
0.408100	-2.174914
0.408200	-2.161282
0.408300	-2.195363
0.408400	-2.229119
0.408500	-2.205100
0.408600	-2.187897
0.408700	-2.167449
0.408800	-2.190819
0.408900	-2.305396
0.409000	-2.339802
0.409100	-2.303449
0.409200	-2.141482
0.409300	-2.149272
0.409400	-2.180757
0.409500	-2.161931
0.409600	-2.159009
0.409700	-2.143429
0.409800	-2.121682
0.409900	-2.104155
0.410000	-2.097663
0.410100	-2.102857
0.410200	-2.065530
0.410300	-2.076241
0.410400	-2.051248
0.410500	-2.017491
0.410600	-2.035343
0.410700	-1.990551
0.410800	-2.036317
0.410900	-2.035992
0.411000	-2.072021
0.411100	-2.073644
0.411200	-2.233988
0.411300	-2.488462
0.411400	-2.499497
0.411500	-2.391086
0.411600	-2.158036
0.411700	-2.126551
0.411800	-2.304747
0.411900	-2.569283
0.412000	-2.639717
0.412100	-2.590705
0.412200	-2.446266
0.412300	-2.388814
0.412400	-2.472557
0.412500	-2.695546
0.412600	-2.825055
0.412700	-2.843232
0.412800	-2.829599
0.412900	-2.811098
0.413000	-2.827327
0.413100	-2.874716
0.413200	-2.892568
0.413300	-2.928922
0.413400	-2.898735
0.413500	-2.891919
0.413600	-2.922105
0.413700	-2.987996
0.413800	-2.916912
0.413900	-2.819212
0.414000	-2.826029
0.414100	-2.874392
0.414200	-2.901332
0.414300	-2.854592
0.414400	-2.707231
0.414500	-2.616347
0.414600	-2.736768
0.414700	-2.945151
0.414800	-3.124321
0.414900	-3.064922
0.415000	-2.877313
0.415100	-2.758515
0.415200	-2.813694
0.415300	-3.022077
0.415400	-3.232408
0.415500	-3.269411
0.415600	-3.175606
0.415700	-3.082450
0.415800	-3.046421
0.415900	-3.103548
0.416000	-3.175606
0.416100	-3.195730
0.416200	-3.156455
0.416300	-3.144770
0.416400	-3.102250
0.416500	-3.067844
0.416600	-3.015261
0.416700	-2.901981
0.416800	-2.832520
0.416900	-2.778964
0.417000	-2.751374
0.417100	-2.728004
0.417200	-2.587784
0.417300	-2.448862
0.417400	-2.201205
0.417500	-2.089873
0.417600	-2.071047
0.417700	-1.995744
0.417800	-1.878894
0.417900	-1.746140
0.418000	-1.614035
0.418100	-1.517634
0.418200	-1.499133
0.418300	-1.502378
0.418400	-1.514063
0.418500	-1.518283
0.418600	-1.537758
0.418700	-1.514388
0.418800	-1.461806
0.418900	-1.454989
0.419000	-1.479333
0.419100	-1.487772
0.419200	-1.625071
0.419300	-1.621825
0.419400	-1.636106
0.419500	-1.435839
0.419600	-1.250178
0.419700	-1.179419
0.419800	-1.242713
0.419900	-1.711410
0.420000	-1.622799
0.420100	-1.676355
0.420200	-1.261538
0.420300	-1.198569
0.420400	-1.246932
0.420500	-1.314121
0.420600	-1.462130
0.420700	-1.352421
0.420800	-1.238168
0.420900	-1.038875
0.421000	-0.961949
0.421100	-1.036603
0.421200	-0.967142
0.421300	-1.022970
0.421400	-0.974608
0.421500	-0.949290
0.421600	-0.916183
0.421700	-0.891190
0.421800	-0.941176
0.421900	-0.867496
0.422000	-0.950589
0.422100	-0.980775
0.422200	-1.077176
0.422300	-1.071333
0.422400	-1.049586
0.422500	-0.984994
0.422600	-0.993109
0.422700	-1.081720
0.422800	-1.361510
0.422900	-1.407600
0.423000	-1.317367
0.423100	-1.104765
0.423200	-1.091133
0.423300	-1.242388
0.423400	-1.510168
0.423500	-1.562102
0.423600	-1.453367
0.423700	-1.290426
0.423800	-1.242063
0.423900	-1.355343
0.424000	-1.445252
0.424100	-1.487123
0.424200	-1.491343
0.424300	-1.506273
0.424400	-1.490694
0.424500	-1.519906
0.424600	-1.585796
0.424700	-1.624746
0.424800	-1.579305
0.424900	-1.582226
0.425000	-1.615333
0.425100	-1.643896
0.425200	-1.595858
0.425300	-1.586770
0.425400	-1.548145
0.425500	-1.533863
0.425600	-1.705892
0.425700	-1.732183
0.425800	-1.755553
0.425900	-1.740622
0.426000	-1.648765
0.426100	-1.715954
0.426200	-1.698751
0.426300	-1.694856
0.426400	-1.679276
0.426500	-1.672784
0.426600	-1.660450
0.426700	-1.706216
0.426800	-1.711085
0.426900	-1.736727
0.427000	-1.719849
0.427100	-1.786064
0.427200	-1.796450
0.427300	-1.823391
0.427400	-1.817873
0.427500	-1.852928
0.427600	-1.918493
0.427700	-1.973997
0.427800	-1.996393
0.427900	-2.233988
0.428000	-2.447889
0.428100	-2.439125
0.428200	-2.217434
0.428300	-2.099935
0.428400	-2.158685
0.428500	-2.441072
0.428600	-2.682563
0.428700	-2.668930
0.428800	-2.542342
0.428900	-2.405368
0.429000	-2.375831
0.429100	-2.525139
0.429200	-2.728978
0.429300	-2.779938
0.429400	-2.706257
0.429500	-2.631603
0.429600	-2.638419
0.429700	-2.670553
0.429800	-2.732548
0.429900	-2.722486
0.430000	-2.711126
0.430100	-2.731899
0.430200	-2.757217
0.430300	-2.817914
0.430400	-2.843881
0.430500	-2.801360
0.430600	-2.733522
0.430700	-2.760787
0.430800	-2.811422
0.430900	-2.808826
0.431000	-2.727030
0.431100	-2.569932
0.431200	-2.607908
0.431300	-2.740663
0.431400	-2.910420
0.431500	-3.014937
0.431600	-2.894516
0.431700	-2.699765
0.431800	-2.618944
0.431900	-2.752673
0.432000	-2.950344
0.432100	-3.097706
0.432200	-3.080827
0.432300	-2.952941
0.432400	-2.860110
0.432500	-2.862707
0.432600	-2.926974
0.432700	-2.954564
0.432800	-2.962678
0.432900	-2.941905
0.433000	-2.912693
0.433100	-2.882831
0.433200	-2.849723
0.433300	-2.737417
0.433400	-2.652376
0.433500	-2.607259
0.433600	-2.598171
0.433700	-2.599145
0.433800	-2.590705
0.433900	-2.430361
0.434000	-2.348241
0.434100	-2.156088
0.434200	-2.162904
0.434300	-2.203802
0.434400	-2.194389
0.434500	-2.105778
0.434600	-2.053845
0.434700	-1.929529
0.434800	-1.884737
0.434900	-1.864937
0.435000	-1.884737
0.435100	-1.905835
0.435200	-1.853577
0.435300	-1.913949
0.435400	-1.852279
0.435500	-1.901615
0.435600	-1.829882
0.435700	-1.888307
0.435800	-1.925634
0.435900	-1.977892
0.436000	-2.048002
0.436100	-1.962312
0.436200	-1.886360
0.436300	-1.586770
0.436400	-1.593262
0.436500	-1.838971
0.436600	-2.119086
0.436700	-2.127200
0.436800	-1.916871
0.436900	-1.703620
0.437000	-1.602999
0.437100	-1.654283
0.437200	-1.902264
0.437300	-1.842216
0.437400	-1.809109
0.437500	-1.540355
0.437600	-1.436813
0.437700	-1.413118
0.437800	-1.361834
0.437900	-1.439409
0.438000	-1.364756
0.438100	-1.333920
0.438200	-1.252775
0.438300	-1.221615
0.438400	-1.174875
0.438500	-1.086913
0.438600	-1.115801
0.438700	-1.104116
0.438800	-1.201815
0.438900	-1.119371
0.439000	-1.157672
0.439100	-1.042445
0.439200	-1.032708
0.439300	-1.013233
0.439400	-1.177796
0.439500	-1.388450
0.439600	-1.306980
0.439700	-1.219343
0.439800	-1.020049
0.439900	-1.158970
0.440000	-1.328402
0.440100	-1.563725
0.440200	-1.546522
0.440300	-1.462779
0.440400	-1.301462
0.440500	-1.327104
0.440600	-1.445577
0.440700	-1.568269
0.440800	-1.553338
0.440900	-1.555935
0.441000	-1.495887
0.441100	-1.561128
0.441200	-1.591639
0.441300	-1.646818
0.441400	-1.628966
0.441500	-1.603973
0.441600	-1.656231
0.441700	-1.737701
0.441800	-1.784441
0.441900	-1.757500
0.442000	-1.745491
0.442100	-1.766264
0.442200	-1.912002
0.442300	-2.008078
0.442400	-2.019439
0.442500	-2.030150
0.442600	-2.078188
0.442700	-2.034045
0.442800	-2.080136
0.442900	-2.090522
0.443000	-2.139210
0.443100	-2.155764
0.443200	-2.205749
0.443300	-2.226847
0.443400	-2.259630
0.443500	-2.291115
0.443600	-2.312862
0.443700	-2.344671
0.443800	-2.354409
0.443900	-2.371936
0.444000	-2.359277
0.444100	-2.345645
0.444200	-2.357654
0.444300	-2.399526
0.444400	-2.467364
0.444500	-2.525464
0.444600	-2.813370
0.444700	-2.916263
0.444800	-2.786754
0.444900	-2.506963
0.445000	-2.391086
0.445100	-2.613102
0.445200	-2.880234
0.445300	-3.076932
0.445400	-3.001953
0.445500	-2.864654
0.445600	-2.716968
0.445700	-2.790974
0.445800	-2.985724
0.445900	-3.192484
0.446000	-3.192484
0.446100	-3.154508
0.446200	-3.127892
0.446300	-3.209687
0.446400	-3.255129
0.446500	-3.305115
0.446600	-3.336600
0.446700	-3.336600
0.446800	-3.371979
0.446900	-3.427808
0.447000	-3.443713
0.447100	-3.455073
0.447200	-3.453775
0.447300	-3.489155
0.447400	-3.529728
0.447500	-3.570625
0.447600	-3.539141
0.447700	-3.344065
0.447800	-3.251234
0.447900	-3.356075
0.448000	-3.510577
0.448100	-3.679361
0.448200	-3.686827
0.448300	-3.478443
0.448400	-3.300895
0.448500	-3.285965
0.448600	-3.461889
0.448700	-3.655342
0.448800	-3.720584
0.448900	-3.636841
0.449000	-3.498243
0.449100	-3.457994
0.449200	-3.464162
0.449300	-3.517069
0.449400	-3.508305
0.449500	-3.461240
0.449600	-3.434949
0.449700	-3.384314
0.449800	-3.347960
0.449900	-3.248962
0.450000	-3.120102
0.450100	-3.025972
0.450200	-2.976960
0.450300	-2.943853
0.450400	-2.943853
0.450500	-2.841284
0.450600	-2.664386
0.450700	-2.617321
0.450800	-2.419325
0.450900	-2.464118
0.451000	-2.425492
0.451100	-2.363497
0.451200	-2.240480
0.451300	-2.146675
0.451400	-2.050599
0.451500	-1.965558
0.451600	-1.949329
0.451700	-1.939916
0.451800	-1.917520
0.451900	-1.912976
0.452000	-1.869481
0.452100	-1.827286
0.452200	-1.753281
0.452300	-1.719200
0.452400	-1.733481
0.452500	-1.706216
0.452600	-1.853577
0.452700	-1.692908
0.452800	-1.695181
0.452900	-1.354369
0.453000	-1.175199
0.453100	-1.242713
0.453200	-1.604297
0.453300	-1.815601
0.453400	-1.664994
0.453500	-1.378713
0.453600	-1.245309
0.453700	-1.191429
0.453800	-1.441032
0.453900	-1.516336
0.454000	-1.572164
0.454100	-1.377090
0.454200	-1.257319
0.454300	-1.238818
0.454400	-1.290751
0.454500	-1.350798
0.454600	-1.313472
0.454700	-1.378063
0.454800	-1.320612
0.454900	-1.306980
0.455000	-1.347553
0.455100	-1.376765
0.455200	-1.362159
0.455300	-1.407925
0.455400	-1.593262
0.455500	-1.579305
0.455600	-1.673758
0.455700	-1.663696
0.455800	-1.641624
0.455900	-1.579954
0.456000	-1.636106
0.456100	-1.932775
0.456200	-1.997692
0.456300	-1.922388
0.456400	-1.684145
0.456500	-1.578655
0.456600	-1.675706
0.456700	-1.933100
0.456800	-2.071697
0.456900	-1.993472
0.457000	-1.794178
0.457100	-1.678627
0.457200	-1.734455
0.457300	-1.877921
0.457400	-1.910703
0.457500	-1.839944
0.457600	-1.804889
0.457700	-1.737376
0.457800	-1.799696
0.457900	-1.832479
0.458000	-1.848384
0.458100	-1.811381
0.458200	-1.781195
0.458300	-1.832804
0.458400	-1.785415
0.458500	-1.729586
0.458600	-1.709138
0.458700	-1.692584
0.458800	-1.721796
0.458900	-1.871104
0.459000	-1.930178
0.459100	-1.910379
0.459200	-1.899343
0.459300	-1.836374
0.459400	-1.866885
0.459500	-1.870455
0.459600	-1.838971
0.459700	-1.826312
0.459800	-1.835725
0.459900	-1.821119
0.460000	-1.841892
0.460100	-1.816250
0.460200	-1.802942
0.460300	-1.783142
0.460400	-1.806837
0.460500	-1.806837
0.460600	-1.813978
0.460700	-1.820469
0.460800	-1.847734
0.460900	-1.887658
0.461000	-1.892851
0.461100	-1.940565
0.461200	-2.139210
0.461300	-2.424194
0.461400	-2.516376
0.461500	-2.311239
0.461600	-2.116164
0.461700	-2.095716
0.461800	-2.321626
0.461900	-2.644911
0.462000	-2.778315
0.462100	-2.723460
0.462200	-2.560194
0.462300	-2.543965
0.462400	-2.641990
0.462500	-2.864329
0.462600	-2.965600
0.462700	-3.020454
0.462800	-2.969495
0.462900	-3.011366
0.463000	-3.043500
0.463100	-3.129190
0.463200	-3.195730
0.463300	-3.215205
0.463400	-3.209363
0.463500	-3.235329
0.463600	-3.274604
0.463700	-3.352180
0.463800	-3.317125
0.463900	-3.300895
0.464000	-3.316800
0.464100	-3.353478
0.464200	-3.420343
0.464300	-3.376848
0.464400	-3.177878
0.464500	-3.078555
0.464600	-3.206441
0.464700	-3.386586
0.464800	-3.528754
0.464900	-3.398271
0.465000	-3.165868
0.465100	-2.987671
0.465200	-2.987996
0.465300	-3.148990
0.465400	-3.309984
0.465500	-3.297974
0.465600	-3.141200
0.465700	-3.005524
0.465800	-2.967872
0.465900	-3.015261
0.466000	-3.053887
0.466100	-3.050965
0.466200	-3.005848
0.466300	-2.967547
0.466400	-2.909771
0.466500	-2.851671
0.466600	-2.767279
0.466700	-2.626410
0.466800	-2.561493
0.466900	-2.528385
0.467000	-2.498848
0.467100	-2.493330
0.467200	-2.339153
0.467300	-2.234962
0.467400	-2.053845
0.467500	-2.008403
0.467600	-2.027878
0.467700	-2.010026
0.467800	-1.950627
0.467900	-1.862665
0.468000	-1.759772
0.468100	-1.662073
0.468200	-1.650388
0.468300	-1.653634
0.468400	-1.662722
0.468500	-1.628966
0.468600	-1.669214
0.468700	-1.627018
0.468800	-1.579629
0.468900	-1.658178
0.469000	-1.562102
0.469100	-1.720173
0.469200	-1.621825
0.469300	-1.771133
0.469400	-1.575734
0.469500	-1.562102
0.469600	-1.270302
0.469700	-1.185262
0.469800	-1.416689
0.469900	-1.716278
0.470000	-1.813329
0.470100	-1.560479
0.470200	-1.397214
0.470300	-1.244985
0.470400	-1.285233
0.470500	-1.476736
0.470600	-1.565347
0.470700	-1.493290
0.470800	-1.431295
0.470900	-1.280364
0.471000	-1.277118
0.471100	-1.338140
0.471200	-1.393968
0.471300	-1.382608
0.471400	-1.442980
0.471500	-1.413118
0.471600	-1.395266
0.471700	-1.410197
0.471800	-1.437462
0.471900	-1.483228
0.472000	-1.588393
0.472100	-1.593586
0.472200	-1.658178
0.472300	-1.586770
0.472400	-1.578006
0.472500	-1.530942
0.472600	-1.541978
0.472700	-1.656880
0.472800	-1.904212
0.472900	-1.867534
0.473000	-1.796450
0.473100	-1.537109
0.473200	-1.597806
0.473300	-1.716278
0.473400	-1.970427
0.473500	-2.009052
0.473600	-1.918169
0.473700	-1.745491
0.473800	-1.725367
0.473900	-1.830207
0.474000	-1.921090
0.474100	-1.943486
0.474200	-1.949978
0.474300	-1.957768
0.474400	-1.981463
0.474500	-2.027229
0.474600	-2.040537
0.474700	-2.028527
0.474800	-1.998016
0.474900	-2.021711
0.475000	-2.093119
0.475100	-2.090198
0.475200	-2.056766
0.475300	-2.026904
0.475400	-2.002560
0.475500	-2.113892
0.475600	-2.221329
0.475700	-2.225224
0.475800	-2.255086
0.475900	-2.229769
0.476000	-2.193415
0.476100	-2.237559
0.476200	-2.238532
0.476300	-2.263850
0.476400	-2.265473
0.476500	-2.264824
0.476600	-2.281053
0.476700	-2.274886
0.476800	-2.315459
0.476900	-2.298256
0.477000	-2.302475
0.477100	-2.328117
0.477200	-2.333960
0.477300	-2.350514
0.477400	-2.386542
0.477500	-2.408614
0.477600	-2.499173
0.477700	-2.501120
0.477800	-2.578696
0.477900	-2.761761
0.478000	-3.001304
0.478100	-2.867575
0.478200	-2.640367
0.478300	-2.521244
0.478400	-2.549159
0.478500	-2.821809
0.478600	-3.002927
0.478700	-2.984101
0.478800	-2.812721
0.478900	-2.680290
0.479000	-2.678343
0.479100	-2.790649
0.479200	-2.981829
0.479300	-2.991242
0.479400	-2.953590
0.479500	-2.918210
0.479600	-2.886077
0.479700	-2.908798
0.479800	-2.928922
0.479900	-2.911719
0.480000	-2.914965
0.480100	-2.891270
0.480200	-2.890945
0.480300	-2.945151
0.480400	-2.894191
0.480500	-2.926325
0.480600	-2.880234
0.480700	-2.895814
0.480800	-2.921132
0.480900	-2.931843
0.481000	-2.774744
0.481100	-2.615698
0.481200	-2.673474
0.481300	-2.815317
0.481400	-2.963652
0.481500	-3.032789
0.481600	-2.863680
0.481700	-2.689703
0.481800	-2.667307
0.481900	-2.785780
0.482000	-2.941905
0.482100	-3.029218
0.482200	-2.982803
0.482300	-2.874067
0.482400	-2.795193
0.482500	-2.814344
0.482600	-2.831547
0.482700	-2.826353
0.482800	-2.828625
0.482900	-2.827327
0.483000	-2.818239
0.483100	-2.763384
0.483200	-2.692625
0.483300	-2.608557
0.483400	-2.505989
0.483500	-2.467688
0.483600	-2.457626
0.483700	-2.429712
0.483800	-2.402122
0.483900	-2.218408
0.484000	-2.140833
0.484100	-1.970751
0.484200	-1.987954
0.484300	-1.996393
0.484400	-1.954847
0.484500	-1.898369
0.484600	-1.813653
0.484700	-1.719524
0.484800	-1.687715
0.484900	-1.667916
0.485000	-1.698102
0.485100	-1.692584
0.485200	-1.706541
0.485300	-1.742894
0.485400	-1.738999
0.485500	-1.708488
0.485600	-1.700374
0.485700	-1.640651
0.485800	-1.812679
0.485900	-1.701997
0.486000	-1.921739
0.486100	-1.722445
0.486200	-1.630589
0.486300	-1.315744
0.486400	-1.342035
0.486500	-1.671811
0.486600	-1.877271
0.486700	-1.813653
0.486800	-1.541653
0.486900	-1.440059
0.487000	-1.313472
0.487100	-1.490044
0.487200	-1.669538
0.487300	-1.675381
0.487400	-1.545873
0.487500	-1.391696
0.487600	-1.349825
0.487700	-1.418636
0.487800	-1.467324
0.487900	-1.576383
0.488000	-1.568593
0.488100	-1.518932
0.488200	-1.511467
0.488300	-1.565347
0.488400	-1.600727
0.488500	-1.639352
0.488600	-1.601701
0.488700	-1.740622
0.488800	-1.736403
0.488900	-1.876622
0.489000	-1.819496
0.489100	-1.832804
0.489200	-1.727314
0.489300	-1.839620
0.489400	-2.022360
0.489500	-2.184002
0.489600	-2.122656
0.489700	-1.996718
0.489800	-1.803591
0.489900	-1.935047
0.490000	-2.131095
0.490100	-2.339153
0.490200	-2.262876
0.490300	-2.123630
0.490400	-1.977892
0.490500	-2.036966
0.490600	-2.133043
0.490700	-2.220031
0.490800	-2.179458
0.490900	-2.207372
0.491000	-2.130771
0.491100	-2.208995
0.491200	-2.239181
0.491300	-2.295984
0.491400	-2.234313
0.491500	-2.204127
0.491600	-2.228470
0.491700	-2.275210
0.491800	-2.266122
0.491900	-2.213864
0.492000	-2.181730
0.492100	-2.131744
0.492200	-2.243401
0.492300	-2.285921
0.492400	-2.249568
0.492500	-2.227821
0.492600	-2.060985
0.492700	-2.101883
0.492800	-2.092794
0.492900	-2.046379
0.493000	-2.041186
0.493100	-1.990226
0.493200	-1.926933
0.493300	-1.922713
0.493400	-1.892527
0.493500	-1.901291
0.493600	-1.840594
0.493700	-1.880193
0.493800	-1.864937
0.493900	-1.865262
0.494000	-1.826637
0.494100	-1.830207
0.494200	-1.849357
0.494300	-1.881816
0.494400	-1.920116
0.494500	-2.062933
0.494600	-2.290141
0.494700	-2.393683
0.494800	-2.170694
0.494900	-1.968155
0.495000	-1.914274
0.495100	-2.048002
0.495200	-2.407316
0.495300	-2.508586
0.495400	-2.448538
0.495500	-2.273263
0.495600	-2.189845
0.495700	-2.218733
0.495800	-2.452108
0.495900	-2.585187
0.496000	-2.579345
0.496100	-2.518323
0.496200	-2.455354
0.496300	-2.502743
0.496400	-2.539421
0.496500	-2.578696
0.496600	-2.569607
0.496700	-2.551106
0.496800	-2.584214
0.496900	-2.645885
0.497000	-2.711775
0.497100	-2.736119
0.497200	-2.684185
0.497300	-2.715670
0.497400	-2.761761
0.497500	-2.821809
0.497600	-2.811098
0.497700	-2.724109
0.497800	-2.637445
0.497900	-2.748778
0.498000	-2.947748
0.498100	-3.095758
0.498200	-3.037008
0.498300	-2.861084
0.498400	-2.719565
0.498500	-2.781561
0.498600	-2.976960
0.498700	-3.225916
0.498800	-3.321993
0.498900	-3.250260
0.499000	-3.147367
0.499100	-3.106794
0.499200	-3.166193
0.499300	-3.245391
0.499400	-3.303167
0.499500	-3.303492
0.499600	-3.326213
0.499700	-3.293105
0.499800	-3.278824
0.499900	-3.233706
0.500000	-3.162622
0.500100	-3.100951
0.500200	-3.090889
0.500300	-3.103873
0.500400	-3.124321
0.500500	-3.055834
0.500600	-2.896139
0.500700	-2.698143
0.500800	-2.684835
0.500900	-2.705933
0.501000	-2.671202
0.501100	-2.572204
0.501200	-2.451459
0.501300	-2.341425
0.501400	-2.203153
0.501500	-2.142780
0.501600	-2.077539
0.501700	-2.071047
0.501800	-1.975295
0.501900	-1.999639
0.502000	-1.940565
0.502100	-1.901291
0.502200	-1.882465
0.502300	-1.807811
0.502400	-1.827286
0.502500	-1.813978
0.502600	-1.812355
0.502700	-1.783792
0.502800	-1.663696
0.502900	-1.463753
0.503000	-1.254073
0.503100	-1.389099
0.503200	-1.631562
0.503300	-1.865911
0.503400	-1.697453
0.503500	-1.468946
0.503600	-1.305682
0.503700	-1.279390
0.503800	-1.516985
0.503900	-1.539056
0.504000	-1.523801
0.504100	-1.379362
0.504200	-1.230703
0.504300	-1.188507
0.504400	-1.145987
0.504500	-1.240116
0.504600	-1.263161
0.504700	-1.178121
0.504800	-1.188507
0.504900	-1.130732
0.505000	-1.123915
0.505100	-1.126837
0.505200	-1.146961
0.505300	-1.131705
0.505400	-1.298541
0.505500	-1.240765
0.505600	-1.245309
0.505700	-1.263486
0.505800	-1.191104
0.505900	-1.220966
0.506000	-1.273548
0.506100	-1.560803
0.506200	-1.538407
0.506300	-1.499133
0.506400	-1.257968
0.506500	-1.227133
0.506600	-1.308603
0.506700	-1.607868
0.506800	-1.668889
0.506900	-1.546522
0.507000	-1.403381
0.507100	-1.324183
0.507200	-1.401433
0.507300	-1.532889
0.507400	-1.579629
0.507500	-1.525424
0.507600	-1.524125
0.507700	-1.467973
0.507800	-1.546846
0.507900	-1.589367
0.508000	-1.627667
0.508100	-1.559830
0.508200	-1.536460
0.508300	-1.586770
0.508400	-1.604947
0.508500	-1.583849
0.508600	-1.541004
0.508700	-1.492316
0.508800	-1.524450
0.508900	-1.612737
0.509000	-1.621825
0.509100	-1.627992
0.509200	-1.611438
0.509300	-1.516336
0.509400	-1.564374
0.509500	-1.582875
0.509600	-1.609815
0.509700	-1.614359
0.509800	-1.661424
0.509900	-1.690961
0.510000	-1.737376
0.510100	-1.763992
0.510200	-1.790283
0.510300	-1.844813
0.510400	-1.884737
0.510500	-1.962961
0.510600	-1.983085
0.510700	-1.972699
0.510800	-2.071047
0.510900	-2.091496
0.511000	-2.186924
0.511100	-2.209644
0.511200	-2.468337
0.511300	-2.688080
0.511400	-2.722162
0.511500	-2.526762
0.511600	-2.348566
0.511700	-2.465741
0.511800	-2.677045
0.511900	-2.991891
0.512000	-3.092837
0.512100	-2.995461
0.512200	-2.805580
0.512300	-2.788052
0.512400	-2.919833
0.512500	-3.123997
0.512600	-3.244742
0.512700	-3.254155
0.512800	-3.146718
0.512900	-3.157429
0.513000	-3.158727
0.513100	-3.162622
0.513200	-3.148665
0.513300	-3.118803
0.513400	-3.118803
0.513500	-3.113610
0.513600	-3.096407
0.513700	-3.081801
0.513800	-3.120426
0.513900	-3.039280
0.514000	-3.048369
0.514100	-3.102250
0.514200	-3.070116
0.514300	-2.998383
0.514400	-2.829274
0.514500	-2.837714
0.514600	-2.906850
0.514700	-3.122698
0.514800	-3.226890
0.514900	-3.136656
0.515000	-2.925027
0.515100	-2.819537
0.515200	-2.931518
0.515300	-3.189238
0.515400	-3.323941
0.515500	-3.301545
0.515600	-3.169114
0.515700	-3.067844
0.515800	-3.096083
0.515900	-3.133734
0.516000	-3.157429
0.516100	-3.132111
0.516200	-3.091214
0.516300	-3.079529
0.516400	-3.033113
0.516500	-2.963003
0.516600	-2.848100
0.516700	-2.732224
0.516800	-2.653675
0.516900	-2.648157
0.517000	-2.619593
0.517100	-2.579669
0.517200	-2.399201
0.517300	-2.296633
0.517400	-2.262876
0.517500	-2.059362
0.517600	-2.052871
0.517700	-2.019114
0.517800	-1.924661
0.517900	-1.821768
0.518000	-1.712708
0.518100	-1.657529
0.518200	-1.601376
0.518300	-1.629939
0.518400	-1.607543
0.518500	-1.619228
0.518600	-1.616956
0.518700	-1.625395
0.518800	-1.567620
0.518900	-1.557557
0.519000	-1.554961
0.519100	-1.610464
0.519200	-1.615333
0.519300	-1.693558
0.519400	-1.507572
0.519500	-1.457262
0.519600	-1.028488
0.519700	-1.079123
0.519800	-1.260240
0.519900	-1.587095
0.520000	-1.539705
0.520100	-1.366054
0.520200	-1.123266
0.520300	-0.999925
0.520400	-1.006741
0.520500	-1.216097
0.520600	-1.249853
0.520700	-1.162865
0.520800	-0.995381
0.520900	-0.906770
0.521000	-0.866197
0.521100	-0.907095
0.521200	-0.897357
0.521300	-0.901901
0.521400	-0.865224
0.521500	-0.815563
0.521600	-0.823028
0.521700	-0.812641
0.521800	-0.780508
0.521900	-0.810694
0.522000	-0.860355
0.522100	-0.931763
0.522200	-0.899305
0.522300	-0.971686
0.522400	-0.932087
0.522500	-0.932737
0.522600	-0.895085
0.522700	-1.081395
0.522800	-1.295944
0.522900	-1.311849
0.523000	-1.229080
0.523100	-1.004794
0.523200	-1.053806
0.523300	-1.265109
0.523400	-1.583524
0.523500	-1.630264
0.523600	-1.521529
0.523700	-1.360536
0.523800	-1.371896
0.523900	-1.542302
0.524000	-1.708488
0.524100	-1.759448
0.524200	-1.774703
0.524300	-1.769835
0.524400	-1.819820
0.524500	-1.953548
0.524600	-2.023983
0.524700	-2.097663
0.524800	-2.102207
0.524900	-2.167124
0.525000	-2.259306
0.525100	-2.295984
0.525200	-2.320327
0.525300	-2.333311
0.525400	-2.376480
0.525500	-2.517349
0.525600	-2.667632
0.525700	-2.685808
0.525800	-2.732224
0.525900	-2.627708
0.526000	-2.717942
0.526100	-2.794219
0.526200	-2.823107
0.526300	-2.853294
0.526400	-2.847451
0.526500	-2.876664
0.526600	-2.850697
0.526700	-2.878936
0.526800	-2.851995
0.526900	-2.864329
0.527000	-2.864329
0.527100	-2.873742
0.527200	-2.830248
0.527300	-2.839661
0.527400	-2.811422
0.527500	-2.822134
0.527600	-2.879910
0.527700	-2.861733
0.527800	-2.977609
0.527900	-3.207415
0.528000	-3.374901
0.528100	-3.207415
0.528200	-2.996760
0.528300	-2.908148
0.528400	-2.990268
0.528500	-3.275578
0.528600	-3.496620
0.528700	-3.489479
0.528800	-3.332705
0.528900	-3.159377
0.529000	-3.175930
0.529100	-3.310308
0.529200	-3.480715
0.529300	-3.510253
0.529400	-3.477145
0.529500	-3.412228
0.529600	-3.360944
0.529700	-3.371979
0.529800	-3.406061
0.529900	-3.386910
0.530000	-3.360619
0.530100	-3.355426
0.530200	-3.322318
0.530300	-3.297650
0.530400	-3.355101
0.530500	-3.327187
0.530600	-3.278174
0.530700	-3.235005
0.530800	-3.266165
0.530900	-3.200274
0.531000	-3.089591
0.531100	-2.908798
0.531200	-2.883805
0.531300	-3.030841
0.531400	-3.163272
0.531500	-3.191186
0.531600	-2.980206
0.531700	-2.718916
0.531800	-2.642963
0.531900	-2.744558
0.532000	-2.974363
0.532100	-3.037333
0.532200	-2.939958
0.532300	-2.787403
0.532400	-2.713723
0.532500	-2.719565
0.532600	-2.713398
0.532700	-2.702362
0.532800	-2.654324
0.532900	-2.633550
0.533000	-2.592328
0.533100	-2.536175
0.533200	-2.381674
0.533300	-2.262551
0.533400	-2.205425
0.533500	-2.186274
0.533600	-2.182704
0.533700	-2.187897
0.533800	-2.152193
0.533900	-1.991849
0.534000	-1.954847
0.534100	-1.895123
0.534200	-1.791906
0.534300	-1.773080
0.534400	-1.741271
0.534500	-1.700374
0.534600	-1.642274
0.534700	-1.568269
0.534800	-1.526398
0.534900	-1.563075
0.535000	-1.602025
0.535100	-1.669538
0.535200	-1.639677
0.535300	-1.709787
0.535400	-1.624097
0.535500	-1.643896
0.535600	-1.619553
0.535700	-1.680899
0.535800	-1.726016
0.535900	-1.799047
0.536000	-1.828909
0.536100	-1.780870
0.536200	-1.576059
0.536300	-1.398837
0.536400	-1.386827
0.536500	-1.714331
0.536600	-1.965883
0.536700	-1.855524
0.536800	-1.668240
0.536900	-1.441357
0.537000	-1.417662
0.537100	-1.561128
0.537200	-1.662722
0.537300	-1.769510
0.537400	-1.608192
0.537500	-1.543925
0.537600	-1.379362
0.537700	-1.389748
0.537800	-1.373195
0.537900	-1.384880
0.538000	-1.435514
0.538100	-1.455639
0.538200	-1.398512
0.538300	-1.393319
0.538400	-1.371572
0.538500	-1.332946
0.538600	-1.385204
0.538700	-1.477061
0.538800	-1.430646
0.538900	-1.413118
0.539000	-1.411495
0.539100	-1.257643
0.539200	-1.316717
0.539300	-1.251476
0.539400	-1.503677
0.539500	-1.600402
0.539600	-1.526073
0.539700	-1.265758
0.539800	-1.155400
0.539900	-1.195648
0.540000	-1.425128
0.540100	-1.571515
0.540200	-1.485825
0.540300	-1.304708
0.540400	-1.159295
0.540500	-1.207333
0.540600	-1.313796
0.540700	-1.321586
0.540800	-1.216097
0.540900	-1.207658
0.541000	-1.139171
0.541100	-1.178445
0.541200	-1.134627
0.541300	-1.112231
0.541400	-1.014856
0.541500	-0.958703
0.541600	-0.991486
0.541700	-0.981099
0.541800	-0.894111
0.541900	-0.787648
0.542000	-0.749672
0.542100	-0.721434
0.542200	-0.804202
0.542300	-0.840880
0.542400	-0.800307
0.542500	-0.738637
0.542600	-0.601014
0.542700	-0.652622
0.542800	-0.642560
0.542900	-0.618217
0.543000	-0.612699
0.543100	-0.597119
0.543200	-0.607505
0.543300	-0.608479
0.543400	-0.615620
0.543500	-0.625033
0.543600	-0.656193
0.543700	-0.694169
0.543800	-0.709424
0.543900	-0.718837
0.544000	-0.728575
0.544100	-0.799983
0.544200	-0.896059
0.544300	-0.924297
0.544400	-1.017777
0.544500	-1.164813
0.544600	-1.496861
0.544700	-1.558856
0.544800	-1.451419
0.544900	-1.262512
0.545000	-1.264784
0.545100	-1.456288
0.545200	-1.863314
0.545300	-1.984708
0.545400	-1.973673
0.545500	-1.857147
0.545600	-1.850006
0.545700	-1.979840
0.545800	-2.236585
0.545900	-2.428089
0.546000	-2.445941
0.546100	-2.442695
0.546200	-2.456003
0.546300	-2.547860
0.546400	-2.589082
0.546500	-2.654973
0.546600	-2.691002
0.546700	-2.744883
0.546800	-2.829274
0.546900	-2.871146
0.547000	-2.954564
0.547100	-3.014612
0.547200	-2.991566
0.547300	-3.051615
0.547400	-3.112961
0.547500	-3.188914
0.547600	-3.201248
0.547700	-3.074011
0.547800	-2.970144
0.547900	-3.065572
0.548000	-3.332705
0.548100	-3.492076
0.548200	-3.493699
0.548300	-3.287263
0.548400	-3.111013
0.548500	-3.193782
0.548600	-3.417746
0.548700	-3.609251
0.548800	-3.605356
0.548900	-3.484935
0.549000	-3.381392
0.549100	-3.393402
0.549200	-3.423913
0.549300	-3.428133
0.549400	-3.414500
0.549500	-3.391455
0.549600	-3.366462
0.549700	-3.297000
0.549800	-3.236952
0.549900	-3.136980
0.550000	-3.009743
0.550100	-2.885103
0.550200	-2.872120
0.550300	-2.811422
0.550400	-2.816616
0.550500	-2.700415
0.550600	-2.531956
0.550700	-2.339478
0.550800	-2.233664
0.550900	-2.260604
0.551000	-2.232690
0.551100	-2.111296
0.551200	-2.009701
0.551300	-1.893176
0.551400	-1.777949
0.551500	-1.725691
0.551600	-1.735429
0.551700	-1.722770
0.551800	-1.664021
0.551900	-1.666293
0.552000	-1.647142
0.552100	-1.595534
0.552200	-1.572488
0.552300	-1.506273
0.552400	-1.528670
0.552500	-1.509844
0.552600	-1.612737
0.552700	-1.553338
0.552800	-1.495562
0.552900	-1.213176
0.553000	-1.044068
0.553100	-1.125214
0.553200	-1.488421
0.553300	-1.646493
0.553400	-1.580927
0.553500	-1.308278
0.553600	-1.238493
0.553700	-1.219992
0.553800	-1.469596
0.553900	-1.609815
0.554000	-1.640975
0.554100	-1.553013
0.554200	-1.454016
0.554300	-1.427075
0.554400	-1.479982
0.554500	-1.602999
0.554600	-1.655257
0.554700	-1.656555
0.554800	-1.696154
0.554900	-1.702321
0.555000	-1.790932
0.555100	-1.798722
0.555200	-1.788985
0.555300	-1.875324
0.555400	-1.986656
0.555500	-2.018465
0.555600	-2.178484
0.555700	-2.150246
0.555800	-2.096365
0.555900	-2.037940
0.556000	-2.165177
0.556100	-2.423869
0.556200	-2.482619
0.556300	-2.396604
0.556400	-2.171019
0.556500	-2.104804
0.556600	-2.237234
0.556700	-2.548185
0.556800	-2.602715
0.556900	-2.507937
0.557000	-2.326494
0.557100	-2.216785
0.557200	-2.332012
0.557300	-2.461521
0.557400	-2.527736
0.557500	-2.466065
0.557600	-2.450810
0.557700	-2.406666
0.557800	-2.500796
0.557900	-2.534877
0.558000	-2.549483
0.558100	-2.464118
0.558200	-2.462819
0.558300	-2.490734
0.558400	-2.535526
0.558500	-2.519622
0.558600	-2.486514
0.558700	-2.469311
0.558800	-2.519297
0.558900	-2.602715
0.559000	-2.634849
0.559100	-2.607584
0.559200	-2.588109
0.559300	-2.462819
0.559400	-2.478724
0.559500	-2.477101
0.559600	-2.462495
0.559700	-2.447889
0.559800	-2.428738
0.559900	-2.416079
0.560000	-2.437502
0.560100	-2.411860
0.560200	-2.459249
0.560300	-2.411860
0.560400	-2.439125
0.560500	-2.459574
0.560600	-2.451459
0.560700	-2.472881
0.560800	-2.468337
0.560900	-2.516376
0.561000	-2.523841
0.561100	-2.560519
0.561200	-2.841933
0.561300	-3.018507
0.561400	-3.084073
0.561500	-2.802983
0.561600	-2.748778
0.561700	-2.778964
0.561800	-3.044798
0.561900	-3.309984
0.562000	-3.412228
0.562100	-3.323292
0.562200	-3.160026
0.562300	-3.149964
0.562400	-3.289210
0.562500	-3.514797
0.562600	-3.608926
0.562700	-3.609900
0.562800	-3.581337
0.562900	-3.521288
0.563000	-3.552124
0.563100	-3.607304
0.563200	-3.649824
0.563300	-3.665729
0.563400	-3.625480
0.563500	-3.676765
0.563600	-3.703056
0.563700	-3.761806
0.563800	-3.743629
0.563900	-3.671896
0.564000	-3.654693
0.564100	-3.700135
0.564200	-3.741682
0.564300	-3.633270
0.564400	-3.514148
0.564500	-3.468057
0.564600	-3.566406
0.564700	-3.730971
0.564800	-3.831267
0.564900	-3.713767
0.565000	-3.496295
0.565100	-3.373927
0.565200	-3.450854
0.565300	-3.605681
0.565400	-3.732918
0.565500	-3.730321
0.565600	-3.569652
0.565700	-3.411903
0.565800	-3.375874
0.565900	-3.408658
0.566000	-3.450529
0.566100	-3.414500
0.566200	-3.392428
0.566300	-3.332056
0.566400	-3.264542
0.566500	-3.192160
0.566600	-3.105820
0.566700	-2.991566
0.566800	-2.918210
0.566900	-2.861733
0.567000	-2.822458
0.567100	-2.782534
0.567200	-2.588758
0.567300	-2.469960
0.567400	-2.232041
0.567500	-2.226847
0.567600	-2.188547
0.567700	-2.133692
0.567800	-2.016842
0.567900	-1.922713
0.568000	-1.781844
0.568100	-1.634159
0.568200	-1.638379
0.568300	-1.587744
0.568400	-1.625395
0.568500	-1.567295
0.568600	-1.625720
0.568700	-1.537109
0.568800	-1.509195
0.568900	-1.497834
0.569000	-1.478035
0.569100	-1.574760
0.569200	-1.589691
0.569300	-1.628641
0.569400	-1.646493
0.569500	-1.503352
0.569600	-1.355018
0.569700	-1.147285
0.569800	-1.576383
0.569900	-1.677328
0.570000	-1.740622
0.570100	-1.556584
0.570200	-1.378388
0.570300	-1.289128
0.570400	-1.392670
0.570500	-1.553338
0.570600	-1.550417
0.570700	-1.480956
0.570800	-1.311849
0.570900	-1.198245
0.571000	-1.289452
0.571100	-1.215772
0.571200	-1.251801
0.571300	-1.169357
0.571400	-1.141118
0.571500	-1.098923
0.571600	-1.081071
0.571700	-1.056078
0.571800	-1.021997
0.571900	-0.933386
0.572000	-0.936307
0.572100	-1.059648
0.572200	-0.993758
0.572300	-0.965844
0.572400	-0.854837
0.572500	-0.801930
0.572600	-0.756489
0.572700	-0.878207
0.572800	-1.051209
0.572900	-0.927868
0.573000	-0.830169
0.573100	-0.534475
0.573200	-0.621787
0.573300	-0.751620
0.573400	-0.933710
0.573500	-0.921701
0.573600	-0.791219
0.573700	-0.619190
0.573800	-0.616594
0.573900	-0.708450
0.574000	-0.793166
0.574100	-0.769472
0.574200	-0.801605
0.574300	-0.753892
0.574400	-0.816861
0.574500	-0.900928
0.574600	-0.953185
0.574700	-0.957729
0.574800	-0.950589
0.574900	-1.008364
0.575000	-1.099247
0.575100	-1.089834
0.575200	-1.050560
0.575300	-1.040498
0.575400	-1.021997
0.575500	-1.127486
0.575600	-1.232975
0.575700	-1.252775
0.575800	-1.227782
0.575900	-1.108985
0.576000	-1.207658
0.576100	-1.224861
0.576200	-1.238818
0.576300	-1.247257
0.576400	-1.243037
0.576500	-1.280040
0.576600	-1.295619
0.576700	-1.332946
0.576800	-1.328402
0.576900	-1.313796
0.577000	-1.351123
0.577100	-1.337491
0.577200	-1.356641
0.577300	-1.309252
0.577400	-1.319314
0.577500	-1.315419
0.577600	-1.320937
0.577700	-1.324832
0.577800	-1.343658
0.577900	-1.633834
0.578000	-1.732832
0.578100	-1.613710
0.578200	-1.270627
0.578300	-1.187858
0.578400	-1.269977
0.578500	-1.556259
0.578600	-1.695181
0.578700	-1.649090
0.578800	-1.442006
0.578900	-1.277118
0.579000	-1.318989
0.579100	-1.456612
0.579200	-1.583524
0.579300	-1.578655
0.579400	-1.472841
0.579500	-1.465701
0.579600	-1.439409
0.579700	-1.468622
0.579800	-1.451419
0.579900	-1.405653
0.580000	-1.364431
0.580100	-1.312173
0.580200	-1.349176
0.580300	-1.354369
0.580400	-1.356316
0.580500	-1.303734
0.580600	-1.254722
0.580700	-1.298541
0.580800	-1.327429
0.580900	-1.355018
0.581000	-1.222264
0.581100	-1.137223
0.581200	-1.193701
0.581300	-1.360211
0.581400	-1.553987
0.581500	-1.655581
0.581600	-1.525099
0.581700	-1.400460
0.581800	-1.394942
0.581900	-1.578331
0.582000	-1.860069
0.582100	-2.023658
0.582200	-2.016193
0.582300	-1.929205
0.582400	-1.922388
0.582500	-2.048002
0.582600	-2.158360
0.582700	-2.280079
0.582800	-2.350189
0.582900	-2.413158
0.583000	-2.477750
0.583100	-2.552404
0.583200	-2.585512
0.583300	-2.551755
0.583400	-2.569932
0.583500	-2.646858
0.583600	-2.737742
0.583700	-2.829924
0.583800	-2.842907
0.583900	-2.784482
0.584000	-2.840310
0.584100	-2.732873
0.584200	-2.879910
0.584300	-2.932817
0.584400	-2.955862
0.584500	-2.949371
0.584600	-2.960731
0.584700	-2.885427
0.584800	-2.940931
0.584900	-2.930545
0.585000	-3.071739
0.585100	-3.031166
0.585200	-3.135357
0.585300	-3.077906
0.585400	-3.055510
0.585500	-3.022727
0.585600	-3.000655
0.585700	-3.113935
0.585800	-3.058431
0.585900	-3.147691
0.586000	-3.049018
0.586100	-2.967547
0.586200	-2.776367
0.586300	-2.509559
0.586400	-2.656271
0.586500	-2.836415
0.586600	-3.108417
0.586700	-2.859461
0.586800	-2.544939
0.586900	-2.341101
0.587000	-2.308318
0.587100	-2.542992
0.587200	-2.606610
0.587300	-2.619918
0.587400	-2.383296
0.587500	-2.181081
0.587600	-2.144728
0.587700	-2.169721
0.587800	-2.256384
0.587900	-2.198933
0.588000	-2.098962
0.588100	-2.023009
0.588200	-1.996069
0.588300	-2.025930
0.588400	-1.968804
0.588500	-1.989902
0.588600	-1.910703
0.588700	-2.143429
0.588800	-2.020737
0.588900	-2.095716
0.589000	-2.027229
0.589100	-1.907133
0.589200	-1.934398
0.589300	-1.904861
0.589400	-2.243726
0.589500	-2.289492
0.589600	-2.265797
0.589700	-2.025606
0.589800	-1.914598
0.589900	-1.981787
0.590000	-2.216785
0.590100	-2.405693
0.590200	-2.375831
0.590300	-2.215162
0.590400	-2.061310
0.590500	-2.109997
0.590600	-2.251840
0.590700	-2.357979
0.590800	-2.322599
0.590900	-2.361225
0.591000	-2.303449
0.591100	-2.371936
0.591200	-2.420299
0.591300	-2.486189
0.591400	-2.504042
0.591500	-2.437502
0.591600	-2.423869
0.591700	-2.459898
0.591800	-2.452433
0.591900	-2.399850
0.592000	-2.388490
0.592100	-2.394332
0.592200	-2.496576
0.592300	-2.506963
0.592400	-2.467688
0.592500	-2.408614
0.592600	-2.357654
0.592700	-2.340127
0.592800	-2.306370
0.592900	-2.236909
0.593000	-2.186924
0.593100	-2.174589
0.593200	-2.132718
0.593300	-2.100584
0.593400	-2.074618
0.593500	-2.052222
0.593600	-2.020088
0.593700	-1.988279
0.593800	-1.982436
0.593900	-1.954198
0.594000	-1.970102
0.594100	-1.957443
0.594200	-1.993148
0.594300	-2.018465
0.594400	-2.011973
0.594500	-2.178160
0.594600	-2.436528
0.594700	-2.535851
0.594800	-2.325521
0.594900	-2.125577
0.595000	-2.136613
0.595100	-2.307993
0.595200	-2.669579
0.595300	-2.756568
0.595400	-2.693598
0.595500	-2.481321
0.595600	-2.420948
0.595700	-2.528710
0.595800	-2.711450
0.595900	-2.800711
0.596000	-2.798114
0.596100	-2.749427
0.596200	-2.704310
0.596300	-2.732873
0.596400	-2.726381
0.596500	-2.769876
0.596600	-2.756892
0.596700	-2.747804
0.596800	-2.785780
0.596900	-2.812721
0.597000	-2.864005
0.597100	-2.850372
0.597200	-2.810449
0.597300	-2.818239
0.597400	-2.863031
0.597500	-2.905552
0.597600	-2.860110
0.597700	-2.724109
0.597800	-2.669255
0.597900	-2.763708
0.598000	-2.951643
