LabVIEW Measurement	
Writer_Version	2
Reader_Version	2
Separator	Tab
Decimal_Separator	.
Multi_Headings	Yes
X_Columns	One
Time_Pref	Relative
Operator	as989
Description	Time Domain Data
Date	1903/12/31
Time	19:00:00
***End_of_Header***	
	
Channels	1	
Samples	15000	
Date	1903/12/31	
Time	19:00:00	
X_Dimension	Time	
X0	0.0000000000000000E+0	
Delta_X	0.000100	
***End_of_Header***		
X_Value	Untitled	Comment
0.000000	-1.307954	Tare Values:0.000000, 0.000000, 0.000000, 0.000000\0D\0A
0.000100	-1.206035
0.000200	-1.172927
0.000300	-1.105414
0.000400	-1.177796
0.000500	-1.204087
0.000600	-1.222588
0.000700	-1.184612
0.000800	-1.154751
0.000900	-1.211228
0.001000	-1.268030
0.001100	-1.261538
0.001200	-1.220966
0.001300	-1.207982
0.001400	-1.209605
0.001500	-1.330025
0.001600	-1.424154
0.001700	-1.403056
0.001800	-1.366054
0.001900	-1.251152
0.002000	-1.289452
0.002100	-1.306655
0.002200	-1.282961
0.002300	-1.294646
0.002400	-1.310226
0.002500	-1.318016
0.002600	-1.344307
0.002700	-1.325481
0.002800	-1.329051
0.002900	-1.369949
0.003000	-1.361185
0.003100	-1.375142
0.003200	-1.340736
0.003300	-1.385204
0.003400	-1.385853
0.003500	-1.460832
0.003600	-1.520880
0.003700	-1.536135
0.003800	-1.697128
0.003900	-1.960365
0.004000	-2.118437
0.004100	-1.967181
0.004200	-1.824689
0.004300	-1.803267
0.004400	-1.929205
0.004500	-2.192766
0.004600	-2.369015
0.004700	-2.334934
0.004800	-2.147000
0.004900	-2.063907
0.005000	-2.124928
0.005100	-2.314160
0.005200	-2.428089
0.005300	-2.456003
0.005400	-2.418676
0.005500	-2.341101
0.005600	-2.340776
0.005700	-2.366094
0.005800	-2.416404
0.005900	-2.410561
0.006000	-2.391411
0.006100	-2.357005
0.006200	-2.379726
0.006300	-2.422246
0.006400	-2.503392
0.006500	-2.453731
0.006600	-2.410886
0.006700	-2.384270
0.006800	-2.456977
0.006900	-2.453731
0.007000	-2.311888
0.007100	-2.219382
0.007200	-2.273912
0.007300	-2.485216
0.007400	-2.593951
0.007500	-2.609531
0.007600	-2.369664
0.007700	-2.147000
0.007800	-2.163878
0.007900	-2.366743
0.008000	-2.616672
0.008100	-2.649780
0.008200	-2.510209
0.008300	-2.395955
0.008400	-2.367716
0.008500	-2.438476
0.008600	-2.481970
0.008700	-2.467688
0.008800	-2.444318
0.008900	-2.425817
0.009000	-2.387841
0.009100	-2.363821
0.009200	-2.297606
0.009300	-2.167124
0.009400	-2.106102
0.009500	-2.094417
0.009600	-2.081434
0.009700	-2.089873
0.009800	-1.966532
0.009900	-1.806837
0.010000	-1.767887
0.010100	-1.553663
0.010200	-1.570216
0.010300	-1.552689
0.010400	-1.498483
0.010500	-1.399486
0.010600	-1.293997
0.010700	-1.173577
0.010800	-1.185586
0.010900	-1.146636
0.011000	-1.217720
0.011100	-1.159944
0.011200	-1.186884
0.011300	-1.095677
0.011400	-1.077176
0.011500	-1.060622
0.011600	-1.010312
0.011700	-1.071333
0.011800	-1.013882
0.011900	-1.089834
0.012000	-0.998951
0.012100	-0.944422
0.012200	-0.732794
0.012300	-0.488709
0.012400	-0.641262
0.012500	-0.899629
0.012600	-1.177147
0.012700	-0.851916
0.012800	-0.832765
0.012900	-0.543563
0.013000	-0.603611
0.013100	-0.756489
0.013200	-0.891839
0.013300	-0.901901
0.013400	-0.844775
0.013500	-0.679887
0.013600	-0.642236
0.013700	-0.633797
0.013800	-0.723706
0.013900	-0.726952
0.014000	-0.793491
0.014100	-0.795114
0.014200	-0.785376
0.014300	-0.757787
0.014400	-0.764603
0.014500	-0.772718
0.014600	-0.844126
0.014700	-0.912613
0.014800	-0.869768
0.014900	-0.962598
0.015000	-0.947018
0.015100	-0.967467
0.015200	-0.860679
0.015300	-0.989863
0.015400	-1.154426
0.015500	-1.293672
0.015600	-1.175849
0.015700	-0.992784
0.015800	-0.888593
0.015900	-1.048937
0.016000	-1.260889
0.016100	-1.442331
0.016200	-1.359887
0.016300	-1.204412
0.016400	-1.158646
0.016500	-1.267056
0.016600	-1.395591
0.016700	-1.452393
0.016800	-1.429672
0.016900	-1.478359
0.017000	-1.429347
0.017100	-1.529319
0.017200	-1.571839
0.017300	-1.622799
0.017400	-1.612737
0.017500	-1.628966
0.017600	-1.664345
0.017700	-1.643896
0.017800	-1.606569
0.017900	-1.553013
0.018000	-1.479658
0.018100	-1.477061
0.018200	-1.619553
0.018300	-1.666617
0.018400	-1.645195
0.018500	-1.617605
0.018600	-1.644546
0.018700	-1.600402
0.018800	-1.611114
0.018900	-1.648765
0.019000	-1.620527
0.019100	-1.642598
0.019200	-1.661749
0.019300	-1.682197
0.019400	-1.711734
0.019500	-1.710760
0.019600	-1.743868
0.019700	-1.775028
0.019800	-1.774054
0.019900	-1.800994
0.020000	-1.784441
0.020100	-1.831830
0.020200	-1.857796
0.020300	-1.880193
0.020400	-1.961014
0.020500	-2.115840
0.020600	-2.397254
0.020700	-2.424843
0.020800	-2.252165
0.020900	-2.066828
0.021000	-2.039238
0.021100	-2.308967
0.021200	-2.513130
0.021300	-2.592004
0.021400	-2.522218
0.021500	-2.330389
0.021600	-2.286246
0.021700	-2.405044
0.021800	-2.554352
0.021900	-2.628682
0.022000	-2.608882
0.022100	-2.540719
0.022200	-2.511832
0.022300	-2.521569
0.022400	-2.543965
0.022500	-2.545588
0.022600	-2.535526
0.022700	-2.480022
0.022800	-2.504042
0.022900	-2.548185
0.023000	-2.508910
0.023100	-2.476452
0.023200	-2.431335
0.023300	-2.437177
0.023400	-2.425817
0.023500	-2.424519
0.023600	-2.378752
0.023700	-2.231391
0.023800	-2.154465
0.023900	-2.245998
0.024000	-2.418676
0.024100	-2.532280
0.024200	-2.462819
0.024300	-2.256709
0.024400	-2.153816
0.024500	-2.229119
0.024600	-2.433931
0.024700	-2.573178
0.024800	-2.573827
0.024900	-2.503068
0.025000	-2.425168
0.025100	-2.432633
0.025200	-2.437826
0.025300	-2.473855
0.025400	-2.514104
0.025500	-2.493655
0.025600	-2.463469
0.025700	-2.434256
0.025800	-2.392709
0.025900	-2.299229
0.026000	-2.168747
0.026100	-2.136289
0.026200	-2.106102
0.026300	-2.081434
0.026400	-2.093768
0.026500	-1.921415
0.026600	-1.815276
0.026700	-1.665643
0.026800	-1.578980
0.026900	-1.609166
0.027000	-1.559180
0.027100	-1.513090
0.027200	-1.386503
0.027300	-1.294970
0.027400	-1.240116
0.027500	-1.209605
0.027600	-1.242713
0.027700	-1.229729
0.027800	-1.236870
0.027900	-1.246932
0.028000	-1.268355
0.028100	-1.208956
0.028200	-1.246283
0.028300	-1.213500
0.028400	-1.313472
0.028500	-1.279066
0.028600	-1.407276
0.028700	-1.333920
0.028800	-1.225510
0.028900	-1.016803
0.029000	-0.809720
0.029100	-1.043095
0.029200	-1.232975
0.029300	-1.378063
0.029400	-1.125538
0.029500	-0.909042
0.029600	-0.848670
0.029700	-0.867171
0.029800	-0.972660
0.029900	-1.103791
0.030000	-1.010636
0.030100	-0.863601
0.030200	-0.728899
0.030300	-0.643534
0.030400	-0.726627
0.030500	-0.694818
0.030600	-0.706178
0.030700	-0.674694
0.030800	-0.641587
0.030900	-0.626331
0.031000	-0.630551
0.031100	-0.644832
0.031200	-0.573100
0.031300	-0.672746
0.031400	-0.719486
0.031500	-0.771744
0.031600	-0.824326
0.031700	-0.788947
0.031800	-0.746102
0.031900	-0.726302
0.032000	-0.894761
0.032100	-1.093729
0.032200	-1.096975
0.032300	-1.007390
0.032400	-0.771419
0.032500	-0.780832
0.032600	-0.963247
0.032700	-1.196297
0.032800	-1.206359
0.032900	-1.109309
0.033000	-0.944746
0.033100	-0.898655
0.033200	-0.995381
0.033300	-1.101519
0.033400	-1.154751
0.033500	-1.110608
0.033600	-1.081720
0.033700	-1.101519
0.033800	-1.178445
0.033900	-1.205386
0.034000	-1.255696
0.034100	-1.187209
0.034200	-1.195648
0.034300	-1.203438
0.034400	-1.234923
0.034500	-1.210904
0.034600	-1.209930
0.034700	-1.198569
0.034800	-1.296269
0.034900	-1.396889
0.035000	-1.428698
0.035100	-1.411820
0.035200	-1.246608
0.035300	-1.296269
0.035400	-1.351123
0.035500	-1.326779
0.035600	-1.343009
0.035700	-1.312822
0.035800	-1.332946
0.035900	-1.349825
0.036000	-1.342684
0.036100	-1.372870
0.036200	-1.345281
0.036300	-1.361510
0.036400	-1.359887
0.036500	-1.373844
0.036600	-1.400460
0.036700	-1.409548
0.036800	-1.422207
0.036900	-1.469920
0.037000	-1.499457
0.037100	-1.594884
0.037200	-1.811381
0.037300	-2.094093
0.037400	-1.978866
0.037500	-1.830856
0.037600	-1.640651
0.037700	-1.775677
0.037800	-1.953224
0.037900	-2.279754
0.038000	-2.293711
0.038100	-2.155114
0.038200	-1.994770
0.038300	-2.016517
0.038400	-2.163554
0.038500	-2.336556
0.038600	-2.417378
0.038700	-2.406666
0.038800	-2.329091
0.038900	-2.331688
0.039000	-2.344671
0.039100	-2.435879
0.039200	-2.447564
0.039300	-2.467688
0.039400	-2.450161
0.039500	-2.518972
0.039600	-2.599794
0.039700	-2.640691
0.039800	-2.598495
0.039900	-2.607259
0.040000	-2.636147
0.040100	-2.727030
0.040200	-2.780587
0.040300	-2.684185
0.040400	-2.622515
0.040500	-2.664710
0.040600	-2.787079
0.040700	-2.965600
0.040800	-3.087968
0.040900	-2.962678
0.041000	-2.741961
0.041100	-2.698467
0.041200	-2.816291
0.041300	-2.993514
0.041400	-3.114259
0.041500	-3.072713
0.041600	-2.940931
0.041700	-2.859136
0.041800	-2.866926
0.041900	-2.944177
0.042000	-2.954564
0.042100	-2.952941
0.042200	-2.931194
0.042300	-2.906850
0.042400	-2.890621
0.042500	-2.836415
0.042600	-2.746181
0.042700	-2.666009
0.042800	-2.627059
0.042900	-2.657245
0.043000	-2.689379
0.043100	-2.657245
0.043200	-2.494304
0.043300	-2.471259
0.043400	-2.341750
0.043500	-2.322599
0.043600	-2.323249
0.043700	-2.308318
0.043800	-2.246322
0.043900	-2.168422
0.044000	-2.045081
0.044100	-2.033720
0.044200	-2.013596
0.044300	-2.022035
0.044400	-2.048002
0.044500	-2.019439
0.044600	-2.068126
0.044700	-1.970751
0.044800	-1.989902
0.044900	-1.883763
0.045000	-1.990226
0.045100	-1.875324
0.045200	-1.992498
0.045300	-1.875649
0.045400	-1.866236
0.045500	-1.655906
0.045600	-1.355992
0.045700	-1.364756
0.045800	-1.520231
0.045900	-1.916871
0.046000	-1.691286
0.046100	-1.589691
0.046200	-1.255047
0.046300	-1.212851
0.046400	-1.286531
0.046500	-1.395591
0.046600	-1.476412
0.046700	-1.321911
0.046800	-1.119371
0.046900	-1.037252
0.047000	-1.062569
0.047100	-1.071333
0.047200	-1.072631
0.047300	-1.009338
0.047400	-0.968765
0.047500	-0.919429
0.047600	-0.887944
0.047700	-0.898655
0.047800	-0.827247
0.047900	-0.887295
0.048000	-0.897682
0.048100	-1.036603
0.048200	-0.963247
0.048300	-1.078149
0.048400	-0.919753
0.048500	-0.968441
0.048600	-0.913262
0.048700	-1.144364
0.048800	-1.308927
0.048900	-1.256345
0.049000	-1.115476
0.049100	-0.957080
0.049200	-1.046016
0.049300	-1.239791
0.049400	-1.432593
0.049500	-1.422531
0.049600	-1.333920
0.049700	-1.169357
0.049800	-1.195973
0.049900	-1.304059
0.050000	-1.397214
0.050100	-1.390073
0.050200	-1.410197
0.050300	-1.371896
0.050400	-1.420584
0.050500	-1.458884
0.050600	-1.471868
0.050700	-1.477386
0.050800	-1.439734
0.050900	-1.469271
0.051000	-1.494264
0.051100	-1.484526
0.051200	-1.406302
0.051300	-1.369300
0.051400	-1.355343
0.051500	-1.473166
0.051600	-1.551066
0.051700	-1.546846
0.051800	-1.450770
0.051900	-1.387476
0.052000	-1.434541
0.052100	-1.462455
0.052200	-1.442006
0.052300	-1.434216
0.052400	-1.467324
0.052500	-1.459858
0.052600	-1.469920
0.052700	-1.451744
0.052800	-1.461481
0.052900	-1.456937
0.053000	-1.492316
0.053100	-1.496861
0.053200	-1.536784
0.053300	-1.533538
0.053400	-1.545548
0.053500	-1.559180
0.053600	-1.548469
0.053700	-1.636756
0.053800	-1.691935
0.053900	-1.995420
0.054000	-2.124279
0.054100	-2.032747
0.054200	-1.791906
0.054300	-1.646493
0.054400	-1.811381
0.054500	-2.068126
0.054600	-2.289816
0.054700	-2.247621
0.054800	-2.065530
0.054900	-1.942513
0.055000	-2.026255
0.055100	-2.190169
0.055200	-2.331363
0.055300	-2.346943
0.055400	-2.288518
0.055500	-2.243076
0.055600	-2.256060
0.055700	-2.242752
0.055800	-2.277482
0.055900	-2.264824
0.056000	-2.218084
0.056100	-2.188871
0.056200	-2.242103
0.056300	-2.274561
0.056400	-2.246322
0.056500	-2.203153
0.056600	-2.215811
0.056700	-2.254112
0.056800	-2.297931
0.056900	-2.301177
0.057000	-2.170370
0.057100	-2.078513
0.057200	-2.209969
0.057300	-2.365444
0.057400	-2.573178
0.057500	-2.619593
0.057600	-2.487488
0.057700	-2.342399
0.057800	-2.379401
0.057900	-2.587135
0.058000	-2.805580
0.058100	-2.869198
0.058200	-2.814344
0.058300	-2.695870
0.058400	-2.680290
0.058500	-2.707231
0.058600	-2.782210
0.058700	-2.783184
0.058800	-2.754945
0.058900	-2.742935
0.059000	-2.709503
0.059100	-2.692300
0.059200	-2.598820
0.059300	-2.437826
0.059400	-2.326494
0.059500	-2.298905
0.059600	-2.276509
0.059700	-2.256709
0.059800	-2.128174
0.059900	-1.941863
0.060000	-1.870780
0.060100	-1.639352
0.060200	-1.627992
0.060300	-1.548794
0.060400	-1.479333
0.060500	-1.323858
0.060600	-1.211877
0.060700	-1.002846
0.060800	-0.953185
0.060900	-0.869443
0.061000	-0.892164
0.061100	-0.792517
0.061200	-0.814913
0.061300	-0.736040
0.061400	-0.651973
0.061500	-0.590952
0.061600	-0.480594
0.061700	-0.563687
0.061800	-0.405291
0.061900	-0.524088
0.062000	-0.329014
0.062100	-0.302074
0.062200	0.009200
0.062300	0.293858
0.062400	0.155262
0.062500	-0.017091
0.062600	-0.237807
0.062700	0.001734
0.062800	0.224722
0.062900	0.426287
0.063000	0.509705
0.063100	0.252636
0.063200	0.232187
0.063300	0.166297
0.063400	0.410707
0.063500	0.536320
0.063600	0.567156
0.063700	0.580788
0.063800	0.467834
0.063900	0.503213
0.064000	0.437972
0.064100	0.459719
0.064200	0.404865
0.064300	0.411681
0.064400	0.342870
0.064500	0.341896
0.064600	0.310736
0.064700	0.134164
0.064800	0.148121
0.064900	0.033219
0.065000	0.075090
0.065100	0.053343
0.065200	0.126049
0.065300	0.045878
0.065400	-0.211191
0.065500	-0.320900
0.065600	-0.267344
0.065700	-0.125826
0.065800	-0.004433
0.065900	-0.168346
0.066000	-0.427038
0.066100	-0.614971
0.066200	-0.654245
0.066300	-0.570503
0.066400	-0.488384
0.066500	-0.591601
0.066600	-0.769472
0.066700	-0.901252
0.066800	-0.905147
0.066900	-0.980450
0.067000	-0.969739
0.067100	-1.081071
0.067200	-1.176173
0.067300	-1.243686
0.067400	-1.288154
0.067500	-1.302111
0.067600	-1.393643
0.067700	-1.465376
0.067800	-1.483553
0.067900	-1.505300
0.068000	-1.560479
0.068100	-1.606569
0.068200	-1.785415
0.068300	-1.864288
0.068400	-1.925959
0.068500	-1.947057
0.068600	-1.863639
0.068700	-1.982112
0.068800	-2.039887
0.068900	-2.042484
0.069000	-2.054494
0.069100	-2.107725
0.069200	-2.159009
0.069300	-2.170045
0.069400	-2.221979
0.069500	-2.257034
0.069600	-2.310914
0.069700	-2.324547
0.069800	-2.382972
0.069900	-2.378752
0.070000	-2.432633
0.070100	-2.455679
0.070200	-2.516051
0.070300	-2.567011
0.070400	-2.586486
0.070500	-2.782859
0.070600	-3.044474
0.070700	-3.119453
0.070800	-2.910745
0.070900	-2.705283
0.071000	-2.604987
0.071100	-2.824730
0.071200	-3.101601
0.071300	-3.256752
0.071400	-3.125295
0.071500	-2.957161
0.071600	-2.887700
0.071700	-2.959433
0.071800	-3.148016
0.071900	-3.247014
0.072000	-3.290833
0.072100	-3.241821
0.072200	-3.208389
0.072300	-3.196055
0.072400	-3.215530
0.072500	-3.249286
0.072600	-3.248637
0.072700	-3.221697
0.072800	-3.235005
0.072900	-3.279797
0.073000	-3.266489
0.073100	-3.301545
0.073200	-3.222021
0.073300	-3.194432
0.073400	-3.203195
0.073500	-3.194756
0.073600	-3.170737
0.073700	-2.964951
0.073800	-2.944177
0.073900	-2.985724
0.074000	-3.128866
0.074100	-3.292132
0.074200	-3.193782
0.074300	-2.956511
0.074400	-2.773771
0.074500	-2.790649
0.074600	-2.933141
0.074700	-3.089266
0.074800	-3.084073
0.074900	-2.978259
0.075000	-2.876988
0.075100	-2.852644
0.075200	-2.871795
0.075300	-2.901981
0.075400	-2.906525
0.075500	-2.913017
0.075600	-2.913991
0.075700	-2.886401
0.075800	-2.839986
0.075900	-2.778315
0.076000	-2.664710
0.076100	-2.601417
0.076200	-2.584863
0.076300	-2.589082
0.076400	-2.584863
0.076500	-2.430686
0.076600	-2.327468
0.076700	-2.134017
0.076800	-2.086303
0.076900	-2.099286
0.077000	-2.075592
0.077100	-2.019439
0.077200	-1.916871
0.077300	-1.813978
0.077400	-1.725367
0.077500	-1.675056
0.077600	-1.691935
0.077700	-1.667266
0.077800	-1.661099
0.077900	-1.640975
0.078000	-1.598455
0.078100	-1.557233
0.078200	-1.501080
0.078300	-1.545873
0.078400	-1.510168
0.078500	-1.620851
0.078600	-1.514713
0.078700	-1.658503
0.078800	-1.370923
0.078900	-1.212202
0.079000	-0.910665
0.079100	-1.170980
0.079200	-1.388125
0.079300	-1.532565
0.079400	-1.311199
0.079500	-1.087562
0.079600	-1.031410
0.079700	-1.031085
0.079800	-1.213176
0.079900	-1.358588
0.080000	-1.253099
0.080100	-1.153452
0.080200	-0.983696
0.080300	-0.998951
0.080400	-0.993758
0.080500	-1.098598
0.080600	-1.016479
0.080700	-1.030436
0.080800	-1.006092
0.080900	-1.000574
0.081000	-1.000574
0.081100	-0.989863
0.081200	-0.987591
0.081300	-1.047314
0.081400	-1.093080
0.081500	-1.055104
0.081600	-1.113204
0.081700	-1.060622
0.081800	-0.917806
0.081900	-0.963572
0.082000	-0.935982
0.082100	-1.255047
0.082200	-1.182016
0.082300	-1.114827
0.082400	-0.872040
0.082500	-0.853539
0.082600	-0.980450
0.082700	-1.219667
0.082800	-1.303734
0.082900	-1.236870
0.083000	-1.075228
0.083100	-1.031410
0.083200	-1.114178
0.083300	-1.210904
0.083400	-1.228106
0.083500	-1.202789
0.083600	-1.203114
0.083700	-1.192402
0.083800	-1.238168
0.083900	-1.246608
0.084000	-1.208307
0.084100	-1.194350
0.084200	-1.219992
0.084300	-1.267381
0.084400	-1.235247
0.084500	-1.197920
0.084600	-1.171304
0.084700	-1.157997
0.084800	-1.213500
0.084900	-1.343009
0.085000	-1.339114
0.085100	-1.350474
0.085200	-1.340087
0.085300	-1.265433
0.085400	-1.316393
0.085500	-1.314121
0.085600	-1.327104
0.085700	-1.341061
0.085800	-1.379686
0.085900	-1.394617
0.086000	-1.421233
0.086100	-1.428374
0.086200	-1.461481
0.086300	-1.483877
0.086400	-1.491992
0.086500	-1.490694
0.086600	-1.517634
0.086700	-1.536460
0.086800	-1.504001
0.086900	-1.561452
0.087000	-1.543925
0.087100	-1.644546
0.087200	-1.799047
0.087300	-2.007105
0.087400	-2.057415
0.087500	-1.751658
0.087600	-1.623448
0.087700	-1.563725
0.087800	-1.896746
0.087900	-2.076241
0.088000	-2.151219
0.088100	-2.016517
0.088200	-1.839295
0.088300	-1.809434
0.088400	-1.933100
0.088500	-2.061310
0.088600	-2.121358
0.088700	-2.051248
0.088800	-1.980813
0.088900	-1.980164
0.089000	-2.015868
0.089100	-2.063907
0.089200	-2.074942
0.089300	-2.053520
0.089400	-2.022360
0.089500	-2.072670
0.089600	-2.148298
0.089700	-2.151869
0.089800	-2.132394
0.089900	-2.106752
0.090000	-2.158685
0.090100	-2.205100
0.090200	-2.225549
0.090300	-2.154141
0.090400	-1.996069
0.090500	-1.972699
0.090600	-2.131744
0.090700	-2.311888
0.090800	-2.424843
0.090900	-2.309941
0.091000	-2.134341
0.091100	-2.072995
0.091200	-2.170694
0.091300	-2.385569
0.091400	-2.491707
0.091500	-2.443669
0.091600	-2.330389
0.091700	-2.251516
0.091800	-2.253788
0.091900	-2.277807
0.092000	-2.308318
0.092100	-2.301177
0.092200	-2.247296
0.092300	-2.226847
0.092400	-2.203477
0.092500	-2.151219
0.092600	-2.055467
0.092700	-1.926933
0.092800	-1.887333
0.092900	-1.880193
0.093000	-1.871429
0.093100	-1.852603
0.093200	-1.692584
0.093300	-1.614035
0.093400	-1.381958
0.093500	-1.363133
0.093600	-1.367028
0.093700	-1.336192
0.093800	-1.271276
0.093900	-1.153128
0.094000	-1.031410
0.094100	-0.997328
0.094200	-0.959352
0.094300	-0.974283
0.094400	-0.918780
0.094500	-0.928517
0.094600	-0.924297
0.094700	-0.901252
0.094800	-0.869119
0.094900	-0.910016
0.095000	-0.916508
0.095100	-0.943448
0.095200	-0.993109
0.095300	-1.016803
0.095400	-1.019725
0.095500	-0.788947
0.095600	-0.640288
0.095700	-0.517272
0.095800	-0.801930
0.095900	-1.126512
0.096000	-1.100221
0.096100	-0.950913
0.096200	-0.752269
0.096300	-0.693195
0.096400	-0.772069
0.096500	-0.947992
0.096600	-1.016803
0.096700	-0.831142
0.096800	-0.719162
0.096900	-0.594847
0.097000	-0.646455
0.097100	-0.761357
0.097200	-0.768823
0.097300	-0.752269
0.097400	-0.711696
0.097500	-0.707152
0.097600	-0.757462
0.097700	-0.799009
0.097800	-0.832441
0.097900	-0.833090
0.098000	-0.887944
0.098100	-1.036603
0.098200	-1.068737
0.098300	-1.161892
0.098400	-1.073930
0.098500	-1.025243
0.098600	-1.080746
0.098700	-1.226808
0.098800	-1.485176
0.098900	-1.419935
0.099000	-1.294970
0.099100	-1.052507
0.099200	-1.141443
0.099300	-1.303085
0.099400	-1.538083
0.099500	-1.537109
0.099600	-1.408899
0.099700	-1.208956
0.099800	-1.184288
0.099900	-1.292374
0.100000	-1.402732
0.100100	-1.417662
0.100200	-1.430970
0.100300	-1.339114
0.100400	-1.366054
0.100500	-1.399161
0.100600	-1.437137
0.100700	-1.391371
0.100800	-1.354693
0.100900	-1.335543
0.101000	-1.340412
0.101100	-1.326779
0.101200	-1.248230
0.101300	-1.219343
0.101400	-1.148584
0.101500	-1.198894
0.101600	-1.274846
0.101700	-1.218044
0.101800	-1.143066
0.101900	-1.076851
0.102000	-0.970064
0.102100	-0.937930
0.102200	-0.874961
0.102300	-0.820431
0.102400	-0.784727
0.102500	-0.749348
0.102600	-0.731496
0.102700	-0.681510
0.102800	-0.650675
0.102900	-0.626656
0.103000	-0.616594
0.103100	-0.600689
0.103200	-0.584785
0.103300	-0.540317
0.103400	-0.507534
0.103500	-0.485138
0.103600	-0.444890
0.103700	-0.428985
0.103800	-0.465339
0.103900	-0.692221
0.104000	-0.782455
0.104100	-0.751295
0.104200	-0.494876
0.104300	-0.367315
0.104400	-0.458198
0.104500	-0.737663
0.104600	-0.991161
0.104700	-0.947343
0.104800	-0.838283
0.104900	-0.686703
0.105000	-0.730522
0.105100	-0.906445
0.105200	-1.107362
0.105300	-1.146961
0.105400	-1.136574
0.105500	-1.143715
0.105600	-1.145987
0.105700	-1.221290
0.105800	-1.306006
0.105900	-1.352421
0.106000	-1.371247
0.106100	-1.406302
0.106200	-1.463753
0.106300	-1.567944
0.106400	-1.590665
0.106500	-1.602350
0.106600	-1.638703
0.106700	-1.685443
0.106800	-1.762369
0.106900	-1.844489
0.107000	-1.758799
0.107100	-1.724393
0.107200	-1.802942
0.107300	-1.975620
0.107400	-2.209644
0.107500	-2.324871
0.107600	-2.229769
0.107700	-2.066503
0.107800	-2.060012
0.107900	-2.257358
0.108000	-2.502094
0.108100	-2.692625
0.108200	-2.659192
0.108300	-2.565388
0.108400	-2.491707
0.108500	-2.532605
0.108600	-2.636472
0.108700	-2.727355
0.108800	-2.792596
0.108900	-2.796491
0.109000	-2.806878
0.109100	-2.835766
0.109200	-2.814344
0.109300	-2.736443
0.109400	-2.690353
0.109500	-2.722811
0.109600	-2.784157
0.109700	-2.794869
0.109800	-2.770849
0.109900	-2.621541
0.110000	-2.580643
0.110100	-2.382972
0.110200	-2.425492
0.110300	-2.420299
0.110400	-2.396604
0.110500	-2.284299
0.110600	-2.232041
0.110700	-2.078513
0.110800	-2.040861
0.110900	-2.007429
0.111000	-2.049625
0.111100	-2.020737
0.111200	-2.043133
0.111300	-2.029176
0.111400	-1.970102
0.111500	-1.871754
0.111600	-1.974322
0.111700	-1.892527
0.111800	-2.005482
0.111900	-1.949329
0.112000	-2.020737
0.112100	-1.881816
0.112200	-1.732183
0.112300	-1.403381
0.112400	-1.424803
0.112500	-1.717252
0.112600	-1.932451
0.112700	-1.777300
0.112800	-1.506273
0.112900	-1.304708
0.113000	-1.308603
0.113100	-1.367677
0.113200	-1.550741
0.113300	-1.546522
0.113400	-1.373844
0.113500	-1.140145
0.113600	-1.095677
0.113700	-1.056078
0.113800	-1.084641
0.113900	-1.059973
0.114000	-1.087238
0.114100	-1.033682
0.114200	-1.020698
0.114300	-0.978503
0.114400	-0.973309
0.114500	-0.885348
0.114600	-0.976880
0.114700	-1.023620
0.114800	-1.016154
0.114900	-1.007390
0.115000	-0.941825
0.115100	-0.914235
0.115200	-0.800956
0.115300	-0.888269
0.115400	-0.997328
0.115500	-1.173252
0.115600	-1.064517
0.115700	-0.884049
0.115800	-0.658789
0.115900	-0.763305
0.116000	-0.914235
0.116100	-1.129758
0.116200	-1.099247
0.116300	-0.937605
0.116400	-0.741558
0.116500	-0.755839
0.116600	-0.890866
0.116700	-0.994732
0.116800	-0.957080
0.116900	-0.968765
0.117000	-0.890541
0.117100	-0.966493
0.117200	-0.993433
0.117300	-1.052507
0.117400	-1.018426
0.117500	-0.982722
0.117600	-1.044717
0.117700	-1.087887
0.117800	-1.095028
0.117900	-1.053481
0.118000	-1.039524
0.118100	-1.034655
0.118200	-1.166760
0.118300	-1.261538
0.118400	-1.288479
0.118500	-1.273223
0.118600	-1.222264
0.118700	-1.242388
0.118800	-1.249853
0.118900	-1.213500
0.119000	-1.220966
0.119100	-1.233624
0.119200	-1.232001
0.119300	-1.230054
0.119400	-1.254398
0.119500	-1.249853
0.119600	-1.279066
0.119700	-1.279066
0.119800	-1.313796
0.119900	-1.292374
0.120000	-1.273223
0.120100	-1.287180
0.120200	-1.272899
0.120300	-1.283610
0.120400	-1.333271
0.120500	-1.397214
0.120600	-1.689338
0.120700	-1.735429
0.120800	-1.554312
0.120900	-1.212526
0.121000	-1.203438
0.121100	-1.290102
0.121200	-1.589691
0.121300	-1.719200
0.121400	-1.627018
0.121500	-1.358588
0.121600	-1.245309
0.121700	-1.291400
0.121800	-1.414417
0.121900	-1.521853
0.122000	-1.517309
0.122100	-1.451744
0.122200	-1.405328
0.122300	-1.409548
0.122400	-1.409872
0.122500	-1.400460
0.122600	-1.398512
0.122700	-1.376440
0.122800	-1.381309
0.122900	-1.405977
0.123000	-1.483228
0.123100	-1.469271
0.123200	-1.396889
0.123300	-1.396889
0.123400	-1.449147
0.123500	-1.457262
0.123600	-1.478684
0.123700	-1.297892
0.123800	-1.259915
0.123900	-1.379037
0.124000	-1.553338
0.124100	-1.769835
0.124200	-1.770484
0.124300	-1.615658
0.124400	-1.472841
0.124500	-1.499457
0.124600	-1.723095
0.124700	-1.938293
0.124800	-2.039238
0.124900	-1.997043
0.125000	-1.928880
0.125100	-1.931152
0.125200	-1.990226
0.125300	-2.082083
0.125400	-2.123630
0.125500	-2.140833
0.125600	-2.176212
0.125700	-2.165501
0.125800	-2.190169
0.125900	-2.149597
0.126000	-2.058389
0.126100	-2.025606
0.126200	-2.050923
0.126300	-2.099286
0.126400	-2.129797
0.126500	-2.048651
0.126600	-1.935047
0.126700	-1.851954
0.126800	-1.744192
0.126900	-1.828259
0.127000	-1.827286
0.127100	-1.816899
0.127200	-1.754579
0.127300	-1.713033
0.127400	-1.629615
0.127500	-1.634159
0.127600	-1.617605
0.127700	-1.646169
0.127800	-1.629615
0.127900	-1.656231
0.128000	-1.656231
0.128100	-1.646169
0.128200	-1.627018
0.128300	-1.663696
0.128400	-1.598130
0.128500	-1.688689
0.128600	-1.634484
0.128700	-1.688689
0.128800	-1.525424
0.128900	-1.346579
0.129000	-1.085290
0.129100	-1.258942
0.129200	-1.631238
0.129300	-1.688364
0.129400	-1.575085
0.129500	-1.274522
0.129600	-1.106388
0.129700	-1.111581
0.129800	-1.208956
0.129900	-1.403056
0.130000	-1.331324
0.130100	-1.148584
0.130200	-1.014207
0.130300	-1.020374
0.130400	-0.976880
0.130500	-1.055104
0.130600	-1.043419
0.130700	-0.991486
0.130800	-0.959028
0.130900	-0.975257
0.131000	-0.977854
0.131100	-1.006417
0.131200	-1.043095
0.131300	-1.029462
0.131400	-1.180717
0.131500	-1.106388
0.131600	-1.269977
0.131700	-1.196297
0.131800	-1.172278
0.131900	-1.113204
0.132000	-1.207982
0.132100	-1.486474
0.132200	-1.469271
0.132300	-1.445901
0.132400	-1.222264
0.132500	-1.158970
0.132600	-1.242713
0.132700	-1.525099
0.132800	-1.643247
0.132900	-1.610464
0.133000	-1.434865
0.133100	-1.351772
0.133200	-1.434216
0.133300	-1.554636
0.133400	-1.632211
0.133500	-1.610140
0.133600	-1.612412
0.133700	-1.601052
0.133800	-1.636106
0.133900	-1.673758
0.134000	-1.686741
0.134100	-1.655581
0.134200	-1.641949
0.134300	-1.653309
0.134400	-1.664670
0.134500	-1.650064
0.134600	-1.635782
0.134700	-1.598130
0.134800	-1.631238
0.134900	-1.739648
0.135000	-1.731858
0.135100	-1.712708
0.135200	-1.693233
0.135300	-1.586445
0.135400	-1.632861
0.135500	-1.611438
0.135600	-1.605920
0.135700	-1.564374
0.135800	-1.570541
0.135900	-1.569892
0.136000	-1.562751
0.136100	-1.542302
0.136200	-1.537758
0.136300	-1.522178
0.136400	-1.519257
0.136500	-1.482254
0.136600	-1.434216
0.136700	-1.451094
0.136800	-1.427400
0.136900	-1.468622
0.137000	-1.445577
0.137100	-1.487772
0.137200	-1.590989
0.137300	-1.821443
0.137400	-1.912326
0.137500	-1.600402
0.137600	-1.416364
0.137700	-1.383906
0.137800	-1.600402
0.137900	-1.777300
0.138000	-1.851629
0.138100	-1.725042
0.138200	-1.535810
0.138300	-1.481281
0.138400	-1.608192
0.138500	-1.759123
0.138600	-1.819820
0.138700	-1.800345
0.138800	-1.744842
0.138900	-1.687066
0.139000	-1.736727
0.139100	-1.795801
0.139200	-1.832804
0.139300	-1.835400
0.139400	-1.861691
0.139500	-1.880517
0.139600	-1.939267
0.139700	-1.967830
0.139800	-2.012947
0.139900	-1.965558
0.140000	-1.988603
0.140100	-2.032422
0.140200	-2.072670
0.140300	-2.047677
0.140400	-1.923362
0.140500	-1.898694
0.140600	-2.031124
0.140700	-2.240804
0.140800	-2.420624
0.140900	-2.353759
0.141000	-2.200556
0.141100	-2.130446
0.141200	-2.247945
0.141300	-2.488462
0.141400	-2.654973
0.141500	-2.695546
0.141600	-2.629980
0.141700	-2.588109
0.141800	-2.599145
0.141900	-2.684510
0.142000	-2.759489
0.142100	-2.820511
0.142200	-2.834468
0.142300	-2.883155
0.142400	-2.876664
0.142500	-2.853943
0.142600	-2.818888
0.142700	-2.756243
0.142800	-2.732873
0.142900	-2.765656
0.143000	-2.779288
0.143100	-2.809475
0.143200	-2.676720
0.143300	-2.629006
0.143400	-2.444967
0.143500	-2.443994
0.143600	-2.446915
0.143700	-2.452433
0.143800	-2.404719
0.143900	-2.313511
0.144000	-2.208346
0.144100	-2.173940
0.144200	-2.169721
0.144300	-2.147974
0.144400	-2.163554
0.144500	-2.101883
0.144600	-2.178160
0.144700	-2.069749
0.144800	-2.070723
0.144900	-1.948030
0.145000	-2.040537
0.145100	-1.954847
0.145200	-2.058064
0.145300	-2.035992
0.145400	-1.977568
0.145500	-1.816899
0.145600	-1.553987
0.145700	-1.357615
0.145800	-1.634808
0.145900	-1.942188
0.146000	-1.896422
0.146100	-1.795801
0.146200	-1.507896
0.146300	-1.384230
0.146400	-1.423180
0.146500	-1.577032
0.146600	-1.634484
0.146700	-1.576383
0.146800	-1.397214
0.146900	-1.253099
0.147000	-1.264784
0.147100	-1.354369
0.147200	-1.295619
0.147300	-1.328402
0.147400	-1.297892
0.147500	-1.276469
0.147600	-1.285233
0.147700	-1.317042
0.147800	-1.268030
0.147900	-1.296593
0.148000	-1.267705
0.148100	-1.417987
0.148200	-1.452068
0.148300	-1.440383
0.148400	-1.398188
0.148500	-1.295295
0.148600	-1.311199
0.148700	-1.405653
0.148800	-1.698426
0.148900	-1.638379
0.149000	-1.512765
0.149100	-1.254722
0.149200	-1.284259
0.149300	-1.433242
0.149400	-1.671161
0.149500	-1.701672
0.149600	-1.596507
0.149700	-1.405328
0.149800	-1.391371
0.149900	-1.520880
0.150000	-1.626369
0.150100	-1.611114
0.150200	-1.598130
0.150300	-1.601376
0.150400	-1.631887
0.150500	-1.697453
0.150600	-1.731209
0.150700	-1.698102
0.150800	-1.663696
0.150900	-1.676355
0.151000	-1.712383
0.151100	-1.713033
0.151200	-1.666617
0.151300	-1.630264
0.151400	-1.570865
0.151500	-1.612737
0.151600	-1.703620
0.151700	-1.683171
0.151800	-1.632211
0.151900	-1.620202
0.152000	-1.485825
0.152100	-1.508546
0.152200	-1.438760
0.152300	-1.424154
0.152400	-1.399810
0.152500	-1.367352
0.152600	-1.344307
0.152700	-1.328727
0.152800	-1.323209
0.152900	-1.303085
0.153000	-1.286207
0.153100	-1.242063
0.153200	-1.231677
0.153300	-1.210904
0.153400	-1.184288
0.153500	-1.184937
0.153600	-1.190130
0.153700	-1.241090
0.153800	-1.273872
0.153900	-1.480307
0.154000	-1.669538
0.154100	-1.620851
0.154200	-1.411171
0.154300	-1.219018
0.154400	-1.318340
0.154500	-1.563075
0.154600	-1.812679
0.154700	-1.793204
0.154800	-1.647467
0.154900	-1.465051
0.155000	-1.493615
0.155100	-1.674407
0.155200	-1.896422
0.155300	-1.928231
0.155400	-1.924011
0.155500	-1.860069
0.155600	-1.849357
0.155700	-1.942513
0.155800	-2.021711
0.155900	-2.040212
0.156000	-2.040861
0.156100	-2.012622
0.156200	-2.087277
0.156300	-2.121682
0.156400	-2.156413
0.156500	-2.097988
0.156600	-2.088900
0.156700	-2.090847
0.156800	-2.148623
0.156900	-2.162255
0.157000	-2.093119
0.157100	-1.941863
0.157200	-1.921739
0.157300	-2.079811
0.157400	-2.252165
0.157500	-2.352136
0.157600	-2.184002
0.157700	-1.977892
0.157800	-1.928231
0.157900	-2.049950
0.158000	-2.235286
0.158100	-2.357654
0.158200	-2.298256
0.158300	-2.160957
0.158400	-2.060336
0.158500	-2.063257
0.158600	-2.107076
0.158700	-2.137262
0.158800	-2.114866
0.158900	-2.085329
0.159000	-2.039563
0.159100	-2.020737
0.159200	-1.982112
0.159300	-1.863964
0.159400	-1.740298
0.159500	-1.683820
0.159600	-1.666617
0.159700	-1.639028
0.159800	-1.619228
0.159900	-1.436813
0.160000	-1.374168
0.160100	-1.108985
0.160200	-1.139171
0.160300	-1.115152
0.160400	-1.111581
0.160500	-0.993433
0.160600	-0.901252
0.160700	-0.727276
0.160800	-0.733119
0.160900	-0.674045
0.161000	-0.724680
0.161100	-0.667878
0.161200	-0.689949
0.161300	-0.740909
0.161400	-0.652298
0.161500	-0.704555
0.161600	-0.647429
0.161700	-0.774341
0.161800	-0.774341
0.161900	-0.911314
0.162000	-0.846073
0.162100	-0.934035
0.162200	-0.744804
0.162300	-0.581214
0.162400	-0.544537
0.162500	-0.921376
0.162600	-1.192402
0.162700	-1.141118
0.162800	-1.039524
0.162900	-0.924622
0.163000	-0.861653
0.163100	-1.085939
0.163200	-1.233949
0.163300	-1.404030
0.163400	-1.250503
0.163500	-1.257968
0.163600	-1.136250
0.163700	-1.253099
0.163800	-1.343333
0.163900	-1.361510
0.164000	-1.363133
0.164100	-1.339763
0.164200	-1.369300
0.164300	-1.387152
0.164400	-1.421882
0.164500	-1.480956
0.164600	-1.541653
0.164700	-1.606894
0.164800	-1.601701
0.164900	-1.667266
0.165000	-1.679601
0.165100	-1.623448
0.165200	-1.631562
0.165300	-1.623772
0.165400	-1.785415
0.165500	-1.947706
0.165600	-1.869481
0.165700	-1.716928
0.165800	-1.510168
0.165900	-1.525748
0.166000	-1.705892
0.166100	-1.874675
0.166200	-1.839620
0.166300	-1.630913
0.166400	-1.439409
0.166500	-1.398512
0.166600	-1.496536
0.166700	-1.537758
0.166800	-1.487772
0.166900	-1.496536
0.167000	-1.430321
0.167100	-1.449796
0.167200	-1.426751
0.167300	-1.465701
0.167400	-1.449796
0.167500	-1.440383
0.167600	-1.429347
0.167700	-1.444603
0.167800	-1.429023
0.167900	-1.384880
0.168000	-1.345605
0.168100	-1.327429
0.168200	-1.433567
0.168300	-1.510818
0.168400	-1.469920
0.168500	-1.364431
0.168600	-1.277767
0.168700	-1.313796
0.168800	-1.303409
0.168900	-1.263161
0.169000	-1.257643
0.169100	-1.231352
0.169200	-1.195973
0.169300	-1.162865
0.169400	-1.144040
0.169500	-1.102818
0.169600	-1.077176
0.169700	-1.025567
0.169800	-1.026541
0.169900	-0.970388
0.170000	-0.955133
0.170100	-0.888918
0.170200	-0.914235
0.170300	-0.922675
0.170400	-0.932087
0.170500	-1.025567
0.170600	-1.277767
0.170700	-1.399486
0.170800	-1.281662
0.170900	-1.151505
0.171000	-1.059973
0.171100	-1.263810
0.171200	-1.585147
0.171300	-1.825014
0.171400	-1.824689
0.171500	-1.678627
0.171600	-1.642274
0.171700	-1.722445
0.171800	-1.950952
0.171900	-2.156413
0.172000	-2.240155
0.172100	-2.207697
0.172200	-2.242752
0.172300	-2.317081
0.172400	-2.366743
0.172500	-2.460547
0.172600	-2.513454
0.172700	-2.570581
0.172800	-2.617321
0.172900	-2.645235
0.173000	-2.685484
0.173100	-2.767928
0.173200	-2.773446
0.173300	-2.794544
0.173400	-2.811422
0.173500	-2.846477
0.173600	-2.808826
0.173700	-2.716968
0.173800	-2.577722
0.173900	-2.614725
0.174000	-2.799413
0.174100	-2.904902
0.174200	-2.934764
0.174300	-2.719240
0.174400	-2.503068
0.174500	-2.472881
0.174600	-2.623488
0.174700	-2.765007
0.174800	-2.803632
0.174900	-2.663737
0.175000	-2.530657
0.175100	-2.452108
0.175200	-2.435230
0.175300	-2.431335
0.175400	-2.385569
0.175500	-2.326494
0.175600	-2.306370
0.175700	-2.232690
0.175800	-2.131095
0.175900	-2.016193
0.176000	-1.859744
0.176100	-1.733481
0.176200	-1.677004
0.176300	-1.650064
0.176400	-1.596832
0.176500	-1.439734
0.176600	-1.252125
0.176700	-1.179419
0.176800	-0.919104
0.176900	-0.951887
0.177000	-0.883076
0.177100	-0.836011
0.177200	-0.701959
0.177300	-0.632498
0.177400	-0.487410
0.177500	-0.462742
0.177600	-0.426713
0.177700	-0.430933
0.177800	-0.453329
0.177900	-0.436451
0.178000	-0.438074
0.178100	-0.407238
0.178200	-0.372184
0.178300	-0.400098
0.178400	-0.396527
0.178500	-0.467611
0.178600	-0.499744
0.178700	-0.533176
0.178800	-0.468584
0.178900	-0.215086
0.179000	-0.150494
0.179100	-0.154389
0.179200	-0.617568
0.179300	-0.835037
0.179400	-0.767524
0.179500	-0.618217
0.179600	-0.505587
0.179700	-0.556546
0.179800	-0.657491
0.179900	-0.970388
0.180000	-0.941500
0.180100	-0.933710
0.180200	-0.768823
0.180300	-0.799009
0.180400	-0.778560
0.180500	-0.849644
0.180600	-0.791219
0.180700	-0.758111
0.180800	-0.772393
0.180900	-0.740909
0.181000	-0.790570
0.181100	-0.748699
0.181200	-0.748049
0.181300	-0.784078
0.181400	-0.901901
0.181500	-0.925920
0.181600	-1.001548
0.181700	-1.030111
0.181800	-1.005768
0.181900	-0.976555
0.182000	-1.063543
0.182100	-1.345930
0.182200	-1.423505
0.182300	-1.425128
0.182400	-1.227457
0.182500	-1.143390
0.182600	-1.192727
0.182700	-1.483553
0.182800	-1.635133
0.182900	-1.563400
0.183000	-1.370598
0.183100	-1.230378
0.183200	-1.295295
0.183300	-1.402732
0.183400	-1.481281
0.183500	-1.417987
0.183600	-1.433567
0.183700	-1.334245
0.183800	-1.399810
0.183900	-1.433892
0.184000	-1.489395
0.184100	-1.477386
0.184200	-1.463753
0.184300	-1.483553
0.184400	-1.499133
0.184500	-1.497510
0.184600	-1.463753
0.184700	-1.429672
0.184800	-1.444278
0.184900	-1.561777
0.185000	-1.575734
0.185100	-1.533538
0.185200	-1.413767
0.185300	-1.395266
0.185400	-1.424803
0.185500	-1.372870
0.185600	-1.340087
0.185700	-1.295944
0.185800	-1.293023
0.185900	-1.274522
0.186000	-1.260565
0.186100	-1.234598
0.186200	-1.210254
0.186300	-1.208956
0.186400	-1.182016
0.186500	-1.160593
0.186600	-1.154426
0.186700	-1.126512
0.186800	-1.121968
0.186900	-1.150207
0.187000	-1.150207
0.187100	-1.177472
0.187200	-1.317042
0.187300	-1.632536
0.187400	-1.689987
0.187500	-1.515037
0.187600	-1.309901
0.187700	-1.262512
0.187800	-1.503677
0.187900	-1.816899
0.188000	-1.950627
0.188100	-1.918818
0.188200	-1.802293
0.188300	-1.777625
0.188400	-1.950303
0.188500	-2.157711
0.188600	-2.333311
0.188700	-2.370962
0.188800	-2.363497
0.188900	-2.335583
0.189000	-2.419974
0.189100	-2.513779
0.189200	-2.579020
0.189300	-2.637770
0.189400	-2.603040
0.189500	-2.654973
0.189600	-2.734171
0.189700	-2.831871
0.189800	-2.875041
0.189900	-2.856215
0.190000	-2.863356
0.190100	-2.901332
0.190200	-2.927623
0.190300	-2.918860
0.190400	-2.751050
0.190500	-2.686133
0.190600	-2.750725
0.190700	-2.914640
0.190800	-3.071739
0.190900	-2.986698
0.191000	-2.758515
0.191100	-2.596548
0.191200	-2.644586
0.191300	-2.828301
0.191400	-2.989294
0.191500	-3.024999
0.191600	-2.900683
0.191700	-2.798114
0.191800	-2.810449
0.191900	-2.871146
0.192000	-2.948721
0.192100	-2.965600
0.192200	-2.948072
0.192300	-2.946125
0.192400	-2.905552
0.192500	-2.884454
0.192600	-2.792596
0.192700	-2.705608
0.192800	-2.678992
0.192900	-2.703985
0.193000	-2.702362
0.193100	-2.716644
0.193200	-2.600118
0.193300	-2.504042
0.193400	-2.429387
0.193500	-2.301501
0.193600	-2.318055
0.193700	-2.300203
0.193800	-2.241778
0.193900	-2.169721
0.194000	-2.079487
0.194100	-1.975945
0.194200	-1.979515
0.194300	-1.994121
0.194400	-2.003534
0.194500	-1.985682
0.194600	-1.967181
0.194700	-1.901291
0.194800	-1.859744
0.194900	-1.799047
0.195000	-1.810732
0.195100	-1.765940
0.195200	-1.808784
0.195300	-1.727314
0.195400	-1.710760
0.195500	-1.457586
0.195600	-1.170006
0.195700	-0.857434
0.195800	-1.063868
0.195900	-1.231677
0.196000	-1.312173
0.196100	-0.923324
0.196200	-0.702283
0.196300	-0.398799
0.196400	-0.338427
0.196500	-0.434503
0.196600	-0.425740
0.196700	-0.205673
0.196800	0.047500
0.196900	0.217257
0.197000	0.351633
0.197100	0.332483
0.197200	0.368187
0.197300	0.401294
0.197400	0.480817
0.197500	0.551900
0.197600	0.633695
0.197700	0.687575
0.197800	0.713866
0.197900	0.804425
0.198000	0.722306
0.198100	0.722955
0.198200	0.630449
0.198300	0.715814
0.198400	0.695365
0.198500	0.815136
0.198600	0.712568
0.198700	0.705103
0.198800	0.350660
0.198900	0.443490
0.199000	0.511003
0.199100	0.774563
0.199200	0.776186
0.199300	0.621361
0.199400	0.411681
0.199500	0.339948
0.199600	0.406163
0.199700	0.566506
0.199800	0.589227
0.199900	0.479194
0.200000	0.328264
0.200100	0.295805
0.200200	0.325991
0.200300	0.271786
0.200400	0.295805
0.200500	0.219204
0.200600	0.177009
0.200700	0.118908
0.200800	0.102030
0.200900	0.051071
0.201000	-0.002485
0.201100	-0.065129
0.201200	-0.089148
0.201300	-0.149196
0.201400	-0.196910
0.201500	-0.347191
0.201600	-0.521491
0.201700	-0.529930
0.201800	-0.538045
0.201900	-0.616918
0.202000	-0.620813
0.202100	-0.715591
0.202200	-0.750322
0.202300	-0.799983
0.202400	-0.807448
0.202500	-0.896383
0.202600	-0.921376
0.202700	-1.006741
0.202800	-1.063868
0.202900	-1.127810
0.203000	-1.203438
0.203100	-1.243686
0.203200	-1.297892
0.203300	-1.360211
0.203400	-1.409548
0.203500	-1.451419
0.203600	-1.543925
0.203700	-1.567944
0.203800	-1.677978
0.203900	-1.892202
0.204000	-2.183029
0.204100	-2.162904
0.204200	-1.974322
0.204300	-1.863964
0.204400	-1.919792
0.204500	-2.289816
0.204600	-2.606285
0.204700	-2.715995
0.204800	-2.673150
0.204900	-2.580643
0.205000	-2.622515
0.205100	-2.811747
0.205200	-3.063949
0.205300	-3.179176
0.205400	-3.215205
0.205500	-3.180799
0.205600	-3.246041
0.205700	-3.294404
0.205800	-3.386910
0.205900	-3.408982
0.206000	-3.444686
0.206100	-3.461565
0.206200	-3.508305
0.206300	-3.576793
0.206400	-3.541737
0.206500	-3.597241
0.206600	-3.545308
0.206700	-3.579714
0.206800	-3.645929
0.206900	-3.662158
0.207000	-3.582960
0.207100	-3.411579
0.207200	-3.431054
0.207300	-3.532649
0.207400	-3.672545
0.207500	-3.753691
0.207600	-3.585881
0.207700	-3.350557
0.207800	-3.229162
0.207900	-3.297974
0.208000	-3.446309
0.208100	-3.579714
0.208200	-3.521613
0.208300	-3.387884
0.208400	-3.261621
0.208500	-3.245716
0.208600	-3.286614
0.208700	-3.321020
0.208800	-3.335301
0.208900	-3.318423
0.209000	-3.310633
0.209100	-3.280122
0.209200	-3.231110
0.209300	-3.140875
0.209400	-3.046746
0.209500	-3.029543
0.209600	-3.045772
0.209700	-3.040579
0.209800	-3.030841
0.209900	-2.850372
0.210000	-2.777341
0.210100	-2.551106
0.210200	-2.555001
0.210300	-2.531631
0.210400	-2.487812
0.210500	-2.408289
0.210600	-2.316432
0.210700	-2.156088
0.210800	-2.123630
0.210900	-2.097988
0.211000	-2.077539
0.211100	-2.105129
0.211200	-2.026255
0.211300	-2.082408
0.211400	-1.982761
0.211500	-2.006131
0.211600	-1.919792
0.211700	-1.902589
0.211800	-1.926933
0.211900	-1.878570
0.212000	-1.945109
0.212100	-1.760746
0.212200	-1.680574
0.212300	-1.258942
0.212400	-1.237519
0.212500	-1.499457
0.212600	-1.657854
0.212700	-1.689338
0.212800	-1.272250
0.212900	-1.241090
0.213000	-0.956107
0.213100	-1.141768
0.213200	-1.246283
0.213300	-1.325481
0.213400	-1.146312
0.213500	-0.947018
0.213600	-0.828221
0.213700	-0.727925
0.213800	-0.884374
0.213900	-0.845099
0.214000	-0.870741
0.214100	-0.804527
0.214200	-0.763954
0.214300	-0.754866
0.214400	-0.743830
0.214500	-0.737338
0.214600	-0.756489
0.214700	-0.798360
0.214800	-0.855486
0.214900	-0.888593
0.215000	-0.927543
0.215100	-0.858083
0.215200	-0.827572
0.215300	-0.904498
0.215400	-1.013233
0.215500	-1.339114
0.215600	-1.276469
0.215700	-1.226483
0.215800	-1.004794
0.215900	-1.139495
0.216000	-1.335219
0.216100	-1.650388
0.216200	-1.726016
0.216300	-1.664345
0.216400	-1.540030
0.216500	-1.546522
0.216600	-1.711734
0.216700	-1.822742
0.216800	-1.840594
0.216900	-1.815601
0.217000	-1.791582
0.217100	-1.810407
0.217200	-1.830207
0.217300	-1.828909
0.217400	-1.777625
0.217500	-1.720498
0.217600	-1.725691
0.217700	-1.724068
0.217800	-1.704269
0.217900	-1.658503
0.218000	-1.611114
0.218100	-1.548794
0.218200	-1.593911
0.218300	-1.647467
0.218400	-1.594235
0.218500	-1.543276
0.218600	-1.502703
0.218700	-1.371896
0.218800	-1.381634
0.218900	-1.321261
0.219000	-1.302111
0.219100	-1.261214
0.219200	-1.210579
0.219300	-1.187534
0.219400	-1.140794
0.219500	-1.120670
0.219600	-1.112231
0.219700	-1.060297
0.219800	-1.046340
0.219900	-0.967467
0.220000	-0.982398
0.220100	-0.928192
0.220200	-0.968116
0.220300	-0.943448
0.220400	-1.011935
0.220500	-1.049262
0.220600	-1.293347
0.220700	-1.479658
0.220800	-1.337815
0.220900	-1.075877
0.221000	-0.906445
0.221100	-1.062894
0.221200	-1.294970
0.221300	-1.530942
0.221400	-1.508221
0.221500	-1.339438
0.221600	-1.226159
0.221700	-1.243037
0.221800	-1.423180
0.221900	-1.575085
0.222000	-1.625720
0.222100	-1.530617
0.222200	-1.499457
0.222300	-1.488421
0.222400	-1.538407
0.222500	-1.578331
0.222600	-1.569892
0.222700	-1.551066
0.222800	-1.541653
0.222900	-1.599753
0.223000	-1.634484
0.223100	-1.674732
0.223200	-1.607543
0.223300	-1.634808
0.223400	-1.672135
0.223500	-1.748737
0.223600	-1.847085
0.223700	-1.724718
0.223800	-1.665319
0.223900	-1.710111
0.224000	-1.902264
0.224100	-2.126551
0.224200	-2.177835
0.224300	-2.068451
0.224400	-1.941863
0.224500	-1.948680
0.224600	-2.107401
0.224700	-2.326494
0.224800	-2.458275
0.224900	-2.428414
0.225000	-2.330714
0.225100	-2.279105
0.225200	-2.313186
0.225300	-2.375506
0.225400	-2.417378
0.225500	-2.429063
0.225600	-2.421273
0.225700	-2.393034
0.225800	-2.397903
0.225900	-2.336556
0.226000	-2.253788
0.226100	-2.173940
0.226200	-2.153167
0.226300	-2.150570
0.226400	-2.163554
0.226500	-2.131095
0.226600	-1.990875
0.226700	-1.950303
0.226800	-1.723744
0.226900	-1.784765
0.227000	-1.775677
0.227100	-1.755877
0.227200	-1.692584
0.227300	-1.638703
0.227400	-1.511467
0.227500	-1.492641
0.227600	-1.479658
0.227700	-1.477386
0.227800	-1.531591
0.227900	-1.516985
0.228000	-1.526073
0.228100	-1.484526
0.228200	-1.410522
0.228300	-1.440708
0.228400	-1.384555
0.228500	-1.513414
0.228600	-1.451094
0.228700	-1.515362
0.228800	-1.389748
0.228900	-1.199543
0.229000	-0.977204
0.229100	-1.034980
0.229200	-1.294970
0.229300	-1.607219
0.229400	-1.366054
0.229500	-1.212202
0.229600	-0.931114
0.229700	-0.927543
0.229800	-0.997328
0.229900	-1.196622
0.230000	-1.162216
0.230100	-1.012584
0.230200	-0.892813
0.230300	-0.750646
0.230400	-0.769147
0.230500	-0.824002
0.230600	-0.798035
0.230700	-0.739286
0.230800	-0.703582
0.230900	-0.662684
0.231000	-0.670474
0.231100	-0.704231
0.231200	-0.643859
0.231300	-0.733768
0.231400	-0.718188
0.231500	-0.806799
0.231600	-0.745453
0.231700	-0.758111
0.231800	-0.672097
0.231900	-0.599716
0.232000	-0.665930
0.232100	-0.840231
0.232200	-0.978827
0.232300	-0.841204
0.232400	-0.682808
0.232500	-0.487735
0.232600	-0.605883
0.232700	-0.755839
0.232800	-0.948317
0.232900	-0.906770
0.233000	-0.801605
0.233100	-0.699362
0.233200	-0.794465
0.233300	-0.939553
0.233400	-1.014207
0.233500	-1.013882
0.233600	-1.088536
0.233700	-1.067438
0.233800	-1.173901
0.233900	-1.231352
0.234000	-1.318340
0.234100	-1.373844
0.234200	-1.361510
0.234300	-1.445901
0.234400	-1.496211
0.234500	-1.540355
0.234600	-1.506923
0.234700	-1.520555
0.234800	-1.525424
0.234900	-1.671486
0.235000	-1.714655
0.235100	-1.714655
0.235200	-1.592612
0.235300	-1.576059
0.235400	-1.618579
0.235500	-1.633510
0.235600	-1.612737
0.235700	-1.597806
0.235800	-1.602674
0.235900	-1.576708
0.236000	-1.567944
0.236100	-1.564049
0.236200	-1.544899
0.236300	-1.511791
0.236400	-1.520555
0.236500	-1.535810
0.236600	-1.525748
0.236700	-1.519906
0.236800	-1.524450
0.236900	-1.523152
0.237000	-1.548145
0.237100	-1.560154
0.237200	-1.639352
0.237300	-1.897071
0.237400	-1.958093
0.237500	-1.809758
0.237600	-1.554312
0.237700	-1.523801
0.237800	-1.715954
0.237900	-2.013921
0.238000	-2.155439
0.238100	-2.068775
0.238200	-1.876622
0.238300	-1.786064
0.238400	-1.883439
0.238500	-2.076890
0.238600	-2.221979
0.238700	-2.261578
0.238800	-2.180107
0.238900	-2.169072
0.239000	-2.179458
0.239100	-2.261902
0.239200	-2.275210
0.239300	-2.263201
0.239400	-2.269043
0.239500	-2.271315
0.239600	-2.369015
0.239700	-2.444643
0.239800	-2.453731
0.239900	-2.403421
0.240000	-2.471583
0.240100	-2.505015
0.240200	-2.605636
0.240300	-2.594276
0.240400	-2.457626
0.240500	-2.412184
0.240600	-2.528710
0.240700	-2.691651
0.240800	-2.865303
0.240900	-2.818239
0.241000	-2.631278
0.241100	-2.522218
0.241200	-2.560844
0.241300	-2.725408
0.241400	-2.893867
0.241500	-2.933790
0.241600	-2.825055
0.241700	-2.707231
0.241800	-2.703660
0.241900	-2.758515
0.242000	-2.836415
0.242100	-2.847127
0.242200	-2.843232
0.242300	-2.846153
0.242400	-2.832196
0.242500	-2.840310
0.242600	-2.752997
0.242700	-2.635498
0.242800	-2.572529
0.242900	-2.573178
0.243000	-2.563440
0.243100	-2.564414
0.243200	-2.432958
0.243300	-2.299229
0.243400	-2.240804
0.243500	-2.039238
0.243600	-2.085005
0.243700	-2.039887
0.243800	-1.946083
0.243900	-1.844813
0.244000	-1.775352
0.244100	-1.688689
0.244200	-1.649739
0.244300	-1.661424
0.244400	-1.675706
0.244500	-1.640001
0.244600	-1.687715
0.244700	-1.647791
0.244800	-1.611114
0.244900	-1.601701
0.245000	-1.532565
0.245100	-1.570865
0.245200	-1.529319
0.245300	-1.541653
0.245400	-1.461806
0.245500	-1.403705
0.245600	-1.042121
0.245700	-0.899629
0.245800	-0.928517
0.245900	-1.346579
0.246000	-1.316717
0.246100	-1.286531
0.246200	-0.920078
0.246300	-0.758436
0.246400	-0.753892
0.246500	-0.949615
0.246600	-1.086264
0.246700	-1.012259
0.246800	-0.852565
0.246900	-0.658140
0.247000	-0.626980
0.247100	-0.665281
0.247200	-0.727925
0.247300	-0.699038
0.247400	-0.685730
0.247500	-0.626331
0.247600	-0.610751
0.247700	-0.612374
0.247800	-0.614322
0.247900	-0.565634
0.248000	-0.600365
0.248100	-0.787324
0.248200	-0.790894
0.248300	-0.821080
0.248400	-0.793816
0.248500	-0.725978
0.248600	-0.695467
0.248700	-0.789596
0.248800	-0.995056
0.248900	-1.111906
0.249000	-1.019075
0.249100	-0.853863
0.249200	-0.711047
0.249300	-0.876259
0.249400	-1.111906
0.249500	-1.246932
0.249600	-1.133653
0.249700	-0.949615
0.249800	-0.846398
0.249900	-0.928842
0.250000	-1.094054
0.250100	-1.155725
0.250200	-1.102493
0.250300	-1.093405
0.250400	-1.036927
0.250500	-1.122617
0.250600	-1.173252
0.250700	-1.260889
0.250800	-1.252775
0.250900	-1.269328
0.251000	-1.334894
0.251100	-1.390073
0.251200	-1.396889
0.251300	-1.394293
0.251400	-1.416040
0.251500	-1.482579
0.251600	-1.645519
0.251700	-1.688364
0.251800	-1.674732
0.251900	-1.585796
0.252000	-1.647142
0.252100	-1.718875
0.252200	-1.744842
0.252300	-1.759448
0.252400	-1.791582
0.252500	-1.817873
0.252600	-1.863639
0.252700	-1.896746
0.252800	-1.916221
0.252900	-1.944135
0.253000	-2.001911
0.253100	-2.015868
0.253200	-2.050923
0.253300	-2.076890
0.253400	-2.103181
0.253500	-2.171668
0.253600	-2.263201
0.253700	-2.290790
0.253800	-2.333635
0.253900	-2.588758
0.254000	-2.849074
0.254100	-2.919833
0.254200	-2.731575
0.254300	-2.532280
0.254400	-2.556299
0.254500	-2.787079
0.254600	-3.073686
0.254700	-3.153209
0.254800	-3.074011
0.254900	-2.929571
0.255000	-2.911719
0.255100	-3.069467
0.255200	-3.269735
0.255300	-3.363216
0.255400	-3.318748
0.255500	-3.284342
0.255600	-3.257401
0.255700	-3.334652
0.255800	-3.409956
0.255900	-3.449231
0.256000	-3.509279
0.256100	-3.507981
0.256200	-3.576143
0.256300	-3.645605
0.256400	-3.743629
0.256500	-3.738111
0.256600	-3.712145
0.256700	-3.729348
0.256800	-3.795888
0.256900	-3.840031
0.257000	-3.784203
0.257100	-3.642359
0.257200	-3.578740
0.257300	-3.704030
0.257400	-3.881578
0.257500	-4.048740
0.257600	-3.941302
0.257700	-3.732918
0.257800	-3.609576
0.257900	-3.703381
0.258000	-3.929617
0.258100	-4.126965
0.258200	-4.149362
0.258300	-4.028616
0.258400	-3.875086
0.258500	-3.856910
0.258600	-3.862428
0.258700	-3.914686
0.258800	-3.878981
0.258900	-3.832241
0.259000	-3.765701
0.259100	-3.669624
0.259200	-3.536869
0.259300	-3.393727
0.259400	-3.260322
0.259500	-3.204169
0.259600	-3.139577
0.259700	-3.086670
0.259800	-3.035385
0.259900	-2.857189
0.260000	-2.728978
0.260100	-2.649780
0.260200	-2.441397
0.260300	-2.423220
0.260400	-2.406991
0.260500	-2.318380
0.260600	-2.208671
0.260700	-2.094742
0.260800	-2.021386
0.260900	-1.972699
0.261000	-2.000938
0.261100	-2.000613
0.261200	-1.998990
0.261300	-2.038589
0.261400	-2.040212
0.261500	-1.979840
0.261600	-2.042809
0.261700	-1.974971
0.261800	-2.110647
0.261900	-2.028852
0.262000	-2.107076
0.262100	-1.959066
0.262200	-1.843190
0.262300	-1.480307
0.262400	-1.388450
0.262500	-1.681873
0.262600	-1.788660
0.262700	-1.916871
0.262800	-1.474464
0.262900	-1.273872
0.263000	-1.050560
0.263100	-1.087562
0.263200	-1.237519
0.263300	-1.346254
0.263400	-1.242063
0.263500	-1.072956
0.263600	-0.937605
0.263700	-0.886646
0.263800	-0.838932
0.263900	-0.941176
0.264000	-0.910340
0.264100	-0.886646
0.264200	-0.843801
0.264300	-0.832765
0.264400	-0.791219
0.264500	-0.805825
0.264600	-0.826923
0.264700	-0.860355
0.264800	-0.909042
0.264900	-0.932412
0.265000	-0.988240
0.265100	-0.933710
0.265200	-0.925596
0.265300	-0.888269
0.265400	-1.094379
0.265500	-1.299514
0.265600	-1.270627
0.265700	-1.207333
0.265800	-0.974608
0.265900	-1.003820
0.266000	-1.155075
0.266100	-1.425452
0.266200	-1.482579
0.266300	-1.363782
0.266400	-1.198569
0.266500	-1.153777
0.266600	-1.245309
0.266700	-1.354369
0.266800	-1.386178
0.266900	-1.387476
0.267000	-1.376440
0.267100	-1.370923
0.267200	-1.453691
0.267300	-1.483877
0.267400	-1.555935
0.267500	-1.523476
0.267600	-1.557557
0.267700	-1.635782
0.267800	-1.667591
0.267900	-1.639028
0.268000	-1.638054
0.268100	-1.623448
0.268200	-1.719200
0.268300	-1.845787
0.268400	-1.856823
0.268500	-1.850980
0.268600	-1.697128
0.268700	-1.796775
0.268800	-1.824040
0.268900	-1.819171
0.269000	-1.868183
0.269100	-1.857147
0.269200	-1.863314
0.269300	-1.895448
0.269400	-1.917195
0.269500	-1.939916
0.269600	-1.949329
0.269700	-1.964909
0.269800	-1.983410
0.269900	-2.020088
0.270000	-2.044107
0.270100	-2.073969
0.270200	-2.100260
0.270300	-2.169072
0.270400	-2.179783
0.270500	-2.260929
0.270600	-2.558572
0.270700	-2.764033
0.270800	-2.709178
0.270900	-2.472232
0.271000	-2.339153
0.271100	-2.417702
0.271200	-2.699441
0.271300	-2.969170
0.271400	-2.940931
0.271500	-2.824081
0.271600	-2.665360
0.271700	-2.661789
0.271800	-2.788052
0.271900	-2.996111
0.272000	-3.072388
0.272100	-2.974363
0.272200	-2.977934
0.272300	-2.951967
0.272400	-3.000979
0.272500	-3.031815
0.272600	-3.030192
0.272700	-3.050965
0.272800	-3.031815
0.272900	-3.088942
0.273000	-3.143796
0.273100	-3.193133
0.273200	-3.160026
0.273300	-3.155157
0.273400	-3.187940
0.273500	-3.233382
0.273600	-3.312256
0.273700	-3.173334
0.273800	-3.074660
0.273900	-3.115558
0.274000	-3.293105
0.274100	-3.493374
0.274200	-3.574196
0.274300	-3.441116
0.274400	-3.230461
0.274500	-3.163921
0.274600	-3.283692
0.274700	-3.508630
0.274800	-3.623208
0.274900	-3.554721
0.275000	-3.431054
0.275100	-3.323941
0.275200	-3.325564
0.275300	-3.348934
0.275400	-3.369058
0.275500	-3.344065
0.275600	-3.286938
0.275700	-3.265840
0.275800	-3.206117
0.275900	-3.113610
0.276000	-3.007471
0.276100	-2.916912
0.276200	-2.898735
0.276300	-2.873093
0.276400	-2.884778
0.276500	-2.858487
0.276600	-2.693274
0.276700	-2.644262
0.276800	-2.546237
0.276900	-2.457951
0.277000	-2.436853
0.277100	-2.425492
0.277200	-2.342399
0.277300	-2.242103
0.277400	-2.111945
0.277500	-2.099286
0.277600	-2.046704
0.277700	-2.051897
0.277800	-2.001262
0.277900	-1.979515
0.278000	-1.966532
0.278100	-1.921090
0.278200	-1.858446
0.278300	-1.811057
0.278400	-1.796775
0.278500	-1.824040
0.278600	-1.836049
0.278700	-1.822417
0.278800	-1.875649
0.278900	-1.633510
0.279000	-1.436813
0.279100	-1.351772
0.279200	-1.724718
0.279300	-2.005157
0.279400	-1.931152
0.279500	-1.712708
0.279600	-1.577682
0.279700	-1.461157
0.279800	-1.548145
0.279900	-1.772107
0.280000	-1.853252
0.280100	-1.715629
0.280200	-1.652985
0.280300	-1.600078
0.280400	-1.588717
0.280500	-1.639352
0.280600	-1.675056
0.280700	-1.707839
0.280800	-1.685118
0.280900	-1.683820
0.281000	-1.717252
0.281100	-1.735753
0.281200	-1.776651
0.281300	-1.801644
0.281400	-1.925634
0.281500	-1.936995
0.281600	-2.042484
0.281700	-1.988928
0.281800	-1.968804
0.281900	-1.967505
0.282000	-1.956470
0.282100	-2.206399
0.282200	-2.345320
0.282300	-2.337855
0.282400	-2.217110
0.282500	-2.012622
0.282600	-2.146675
0.282700	-2.329740
0.282800	-2.596548
0.282900	-2.645235
0.283000	-2.576424
0.283100	-2.441072
0.283200	-2.458924
0.283300	-2.598171
0.283400	-2.715021
0.283500	-2.722486
0.283600	-2.738391
0.283700	-2.666658
0.283800	-2.685159
0.283900	-2.670228
0.284000	-2.712424
0.284100	-2.694248
0.284200	-2.608557
0.284300	-2.568309
0.284400	-2.540070
0.284500	-2.497225
0.284600	-2.388490
0.284700	-2.321301
0.284800	-2.220031
0.284900	-2.289167
0.285000	-2.294361
0.285100	-2.231391
0.285200	-2.157387
0.285300	-1.985358
0.285400	-1.996069
0.285500	-1.970751
0.285600	-1.924011
0.285700	-1.897396
0.285800	-1.877271
0.285900	-1.795801
0.286000	-1.784441
0.286100	-1.726340
0.286200	-1.701023
0.286300	-1.635782
0.286400	-1.631238
0.286500	-1.607219
0.286600	-1.600402
0.286700	-1.556584
0.286800	-1.573462
0.286900	-1.544899
0.287000	-1.615982
0.287100	-1.628316
0.287200	-1.743219
0.287300	-2.015868
0.287400	-2.186924
0.287500	-2.068451
0.287600	-1.847085
0.287700	-1.802942
0.287800	-1.908107
0.287900	-2.253463
0.288000	-2.387191
0.288100	-2.410237
0.288200	-2.273912
0.288300	-2.191792
0.288400	-2.272614
0.288500	-2.468662
0.288600	-2.633875
0.288700	-2.670228
0.288800	-2.665684
0.288900	-2.693598
0.289000	-2.763059
0.289100	-2.843881
0.289200	-2.903604
0.289300	-2.940931
0.289400	-2.968846
0.289500	-3.019481
0.289600	-3.060703
0.289700	-3.171386
0.289800	-3.113286
0.289900	-3.122698
0.290000	-3.114908
0.290100	-3.162947
0.290200	-3.192484
0.290300	-3.154508
0.290400	-2.969819
0.290500	-2.901332
0.290600	-2.953266
0.290700	-3.100302
0.290800	-3.256103
0.290900	-3.252208
0.291000	-3.052913
0.291100	-2.868224
0.291200	-2.876339
0.291300	-3.016559
0.291400	-3.197028
0.291500	-3.238900
0.291600	-3.164245
0.291700	-3.035385
0.291800	-3.010068
0.291900	-3.032789
0.292000	-3.111013
0.292100	-3.126918
0.292200	-3.113286
0.292300	-3.110040
0.292400	-3.078555
0.292500	-3.080827
0.292600	-3.049018
0.292700	-2.974363
0.292800	-2.886726
0.292900	-2.849074
0.293000	-2.813045
0.293100	-2.812071
0.293200	-2.729627
0.293300	-2.552080
0.293400	-2.447564
0.293500	-2.284948
0.293600	-2.286571
0.293700	-2.265473
0.293800	-2.179134
0.293900	-2.070723
0.294000	-2.003859
0.294100	-1.855524
0.294200	-1.844813
0.294300	-1.788660
0.294400	-1.803591
0.294500	-1.767238
0.294600	-1.736078
0.294700	-1.729586
0.294800	-1.660450
0.294900	-1.686417
0.295000	-1.608842
0.295100	-1.682846
0.295200	-1.637405
0.295300	-1.697777
0.295400	-1.641300
0.295500	-1.557557
0.295600	-1.347877
0.295700	-1.134951
0.295800	-1.258293
0.295900	-1.600402
0.296000	-1.724718
0.296100	-1.573462
0.296200	-1.318989
0.296300	-1.229729
0.296400	-1.197271
0.296500	-1.437462
0.296600	-1.566321
0.296700	-1.617605
0.296800	-1.430321
0.296900	-1.278092
0.297000	-1.296269
0.297100	-1.314770
0.297200	-1.429347
0.297300	-1.490369
0.297400	-1.492641
0.297500	-1.464078
0.297600	-1.507896
0.297700	-1.515686
0.297800	-1.527047
0.297900	-1.506923
0.298000	-1.520555
0.298100	-1.588393
0.298200	-1.683171
0.298300	-1.747763
0.298400	-1.674407
0.298500	-1.591639
0.298600	-1.530617
0.298700	-1.625720
0.298800	-1.840594
0.298900	-1.939267
0.299000	-1.901940
0.299100	-1.755553
0.299200	-1.640651
0.299300	-1.797749
0.299400	-2.039238
0.299500	-2.204451
0.299600	-2.134666
0.299700	-2.027229
0.299800	-1.949653
0.299900	-2.049950
0.300000	-2.220356
0.300100	-2.302151
0.300200	-2.287220
0.300300	-2.308642
0.300400	-2.272938
0.300500	-2.374533
0.300600	-2.416729
0.300700	-2.461521
0.300800	-2.433282
0.300900	-2.420299
0.301000	-2.438151
0.301100	-2.432958
0.301200	-2.414781
0.301300	-2.341750
0.301400	-2.232365
0.301500	-2.208346
0.301600	-2.344022
0.301700	-2.390437
0.301800	-2.393034
0.301900	-2.387516
0.302000	-2.408614
0.302100	-2.380375
0.302200	-2.415106
0.302300	-2.422246
0.302400	-2.454705
0.302500	-2.479049
0.302600	-2.539097
0.302700	-2.568634
0.302800	-2.604013
0.302900	-2.634200
0.303000	-2.661465
0.303100	-2.693274
0.303200	-2.704634
0.303300	-2.738391
0.303400	-2.778639
0.303500	-2.789675
0.303600	-2.872444
0.303700	-2.916912
0.303800	-2.948072
0.303900	-3.088617
0.304000	-3.364839
0.304100	-3.431378
0.304200	-3.233057
0.304300	-3.052588
0.304400	-3.005848
0.304500	-3.250909
0.304600	-3.458968
0.304700	-3.613146
0.304800	-3.529079
0.304900	-3.331406
0.305000	-3.239549
0.305100	-3.375874
0.305200	-3.501489
0.305300	-3.602110
0.305400	-3.537193
0.305500	-3.434949
0.305600	-3.368734
0.305700	-3.362566
0.305800	-3.400218
0.305900	-3.405736
0.306000	-3.358996
0.306100	-3.306738
0.306200	-3.300895
0.306300	-3.340170
0.306400	-3.354776
0.306500	-3.334652
0.306600	-3.231434
0.306700	-3.203845
0.306800	-3.222995
0.306900	-3.234680
0.307000	-3.160675
0.307100	-2.974039
0.307200	-2.931518
0.307300	-2.950020
0.307400	-3.124971
0.307500	-3.262594
0.307600	-3.179176
0.307700	-2.965924
0.307800	-2.838038
0.307900	-2.913991
0.308000	-3.110689
0.308100	-3.306738
0.308200	-3.344065
0.308300	-3.222671
0.308400	-3.119128
0.308500	-3.116856
0.308600	-3.187940
0.308700	-3.253831
0.308800	-3.259349
0.308900	-3.229811
0.309000	-3.194756
0.309100	-3.152885
0.309200	-3.104522
0.309300	-3.043175
0.309400	-2.909771
0.309500	-2.865628
0.309600	-2.845828
0.309700	-2.885427
0.309800	-2.920483
0.309900	-2.817589
0.310000	-2.729952
0.310100	-2.683212
0.310200	-2.593302
0.310300	-2.640367
0.310400	-2.666333
0.310500	-2.649455
0.310600	-2.577073
0.310700	-2.527087
0.310800	-2.491707
0.310900	-2.505015
0.311000	-2.559221
0.311100	-2.594925
0.311200	-2.598820
0.311300	-2.637770
0.311400	-2.605961
0.311500	-2.589407
0.311600	-2.547536
0.311700	-2.568309
0.311800	-2.508586
0.311900	-2.602066
0.312000	-2.453731
0.312100	-2.520271
0.312200	-2.218408
0.312300	-2.028852
0.312400	-1.791257
0.312500	-1.950627
0.312600	-2.241778
0.312700	-2.234313
0.312800	-2.010350
0.312900	-1.775352
0.313000	-1.650064
0.313100	-1.578331
0.313200	-1.805863
0.313300	-1.894150
0.313400	-1.798073
0.313500	-1.639352
0.313600	-1.526073
0.313700	-1.499457
0.313800	-1.564374
0.313900	-1.610464
0.314000	-1.628966
0.314100	-1.630589
0.314200	-1.609815
0.314300	-1.609491
0.314400	-1.641300
0.314500	-1.680250
0.314600	-1.693233
0.314700	-1.774054
0.314800	-1.912651
0.314900	-1.853252
0.315000	-1.940241
0.315100	-1.938293
0.315200	-1.893825
0.315300	-1.903563
0.315400	-1.961988
0.315500	-2.189520
0.315600	-2.191143
0.315700	-2.089224
0.315800	-1.794178
0.315900	-1.728288
0.316000	-1.827610
0.316100	-2.049625
0.316200	-2.091496
0.316300	-1.961338
0.316400	-1.782818
0.316500	-1.680574
0.316600	-1.761720
0.316700	-1.853252
0.316800	-1.905510
0.316900	-1.858446
0.317000	-1.843839
0.317100	-1.784441
0.317200	-1.846111
0.317300	-1.905835
0.317400	-1.901615
0.317500	-1.857472
0.317600	-1.897396
0.317700	-1.972050
0.317800	-2.017491
0.317900	-2.017167
0.318000	-2.021386
0.318100	-2.045081
0.318200	-2.134990
0.318300	-2.303774
0.318400	-2.347917
0.318500	-2.374857
0.318600	-2.401149
0.318700	-2.359602
0.318800	-2.441721
0.318900	-2.468013
0.319000	-2.493655
0.319100	-2.527412
0.319200	-2.557273
0.319300	-2.611154
0.319400	-2.606935
0.319500	-2.658219
0.319600	-2.656271
0.319700	-2.674773
0.319800	-2.667956
0.319900	-2.689703
0.320000	-2.676071
0.320100	-2.685484
0.320200	-2.691651
0.320300	-2.674773
0.320400	-2.720214
0.320500	-2.767928
0.320600	-2.994163
0.320700	-3.249611
0.320800	-3.211635
0.320900	-2.985075
0.321000	-2.759813
0.321100	-2.870821
0.321200	-3.090889
0.321300	-3.323616
0.321400	-3.354127
0.321500	-3.149964
0.321600	-3.008769
0.321700	-2.963003
0.321800	-3.162947
0.321900	-3.315177
0.322000	-3.467083
0.322100	-3.410605
0.322200	-3.451827
0.322300	-3.440142
0.322400	-3.517718
0.322500	-3.589776
0.322600	-3.648850
0.322700	-3.671896
0.322800	-3.698512
0.322900	-3.752393
0.323000	-3.807248
0.323100	-3.879955
0.323200	-3.845549
0.323300	-3.793940
0.323400	-3.787448
0.323500	-3.789071
0.323600	-3.762780
0.323700	-3.606979
0.323800	-3.450204
0.323900	-3.409631
0.324000	-3.483312
0.324100	-3.638464
0.324200	-3.685853
0.324300	-3.507331
0.324400	-3.231110
0.324500	-3.102250
0.324600	-3.166517
0.324700	-3.321020
0.324800	-3.424562
0.324900	-3.400543
0.325000	-3.249286
0.325100	-3.159377
0.325200	-3.152236
0.325300	-3.216828
0.325400	-3.247664
0.325500	-3.261945
0.325600	-3.250585
0.325700	-3.271683
0.325800	-3.293430
0.325900	-3.293105
0.326000	-3.269086
0.326100	-3.206766
0.326200	-3.250585
0.326300	-3.321020
0.326400	-3.376199
0.326500	-3.401192
0.326600	-3.299597
0.326700	-3.272007
0.326800	-3.093486
0.326900	-3.163596
0.327000	-3.207415
0.327100	-3.223320
0.327200	-3.199950
0.327300	-3.149964
0.327400	-3.038631
0.327500	-3.003901
0.327600	-2.992865
0.327700	-3.000330
0.327800	-2.979557
0.327900	-2.946774
0.328000	-2.961056
0.328100	-2.868549
0.328200	-2.858162
0.328300	-2.730601
0.328400	-2.792921
0.328500	-2.636796
0.328600	-2.763708
0.328700	-2.635822
0.328800	-2.661789
0.328900	-2.326819
0.329000	-2.080136
0.329100	-1.893176
0.329200	-2.092470
0.329300	-2.387841
0.329400	-2.261578
0.329500	-2.023009
0.329600	-1.757500
0.329700	-1.664345
0.329800	-1.733157
0.329900	-1.824689
0.330000	-1.891878
0.330100	-1.703620
0.330200	-1.580278
0.330300	-1.416364
0.330400	-1.479009
0.330500	-1.451744
0.330600	-1.538732
0.330700	-1.488097
0.330800	-1.454989
0.330900	-1.445577
0.331000	-1.443954
0.331100	-1.482904
0.331200	-1.535486
0.331300	-1.506273
0.331400	-1.678951
0.331500	-1.673109
0.331600	-1.749061
0.331700	-1.699400
0.331800	-1.724393
0.331900	-1.688040
0.332000	-1.710436
0.332100	-1.935047
0.332200	-2.187248
0.332300	-2.155114
0.332400	-2.043782
0.332500	-1.817548
0.332600	-1.925959
0.332700	-2.094742
0.332800	-2.352786
0.332900	-2.326819
0.333000	-2.288518
0.333100	-2.094093
0.333200	-2.103181
0.333300	-2.236260
0.333400	-2.354733
0.333500	-2.340776
0.333600	-2.349540
0.333700	-2.315134
0.333800	-2.361874
0.333900	-2.398876
0.334000	-2.445616
0.334100	-2.401473
0.334200	-2.385569
0.334300	-2.403096
0.334400	-2.451784
0.334500	-2.439449
0.334600	-2.368041
0.334700	-2.358628
0.334800	-2.344346
0.334900	-2.430361
0.335000	-2.519622
0.335100	-2.526113
0.335200	-2.519622
0.335300	-2.440423
0.335400	-2.457301
0.335500	-2.505664
0.335600	-2.483593
0.335700	-2.505664
0.335800	-2.537149
0.335900	-2.539746
0.336000	-2.549483
0.336100	-2.560844
0.336200	-2.560194
0.336300	-2.575125
0.336400	-2.586486
0.336500	-2.557598
0.336600	-2.577397
0.336700	-2.528710
0.336800	-2.573178
0.336900	-2.529034
0.337000	-2.618620
0.337100	-2.579345
0.337200	-2.747155
0.337300	-2.932492
0.337400	-3.153534
0.337500	-3.029218
0.337600	-2.804281
0.337700	-2.696520
0.337800	-2.827651
0.337900	-3.150937
0.338000	-3.327187
0.338100	-3.273306
0.338200	-3.088617
0.338300	-2.917561
0.338400	-2.947098
0.338500	-3.085371
0.338600	-3.213907
0.338700	-3.236952
0.338800	-3.130164
0.338900	-3.083099
0.339000	-3.060703
0.339100	-3.108092
0.339200	-3.156780
0.339300	-3.167491
0.339400	-3.171386
0.339500	-3.198327
0.339600	-3.251883
0.339700	-3.369058
0.339800	-3.378471
0.339900	-3.332380
0.340000	-3.381717
0.340100	-3.435598
0.340200	-3.570625
0.340300	-3.599513
0.340400	-3.513174
0.340500	-3.437546
0.340600	-3.485260
0.340700	-3.680984
0.340800	-3.883201
0.340900	-3.980901
0.341000	-3.813740
0.341100	-3.666378
0.341200	-3.692345
0.341300	-3.819258
0.341400	-4.015632
0.341500	-4.088664
0.341600	-3.980252
0.341700	-3.816986
0.341800	-3.746875
0.341900	-3.754341
0.342000	-3.771544
0.342100	-3.775114
0.342200	-3.758885
0.342300	-3.720584
0.342400	-3.672870
0.342500	-3.601786
0.342600	-3.540764
0.342700	-3.422615
0.342800	-3.318748
0.342900	-3.267788
0.343000	-3.244742
0.343100	-3.232083
0.343200	-3.147691
0.343300	-2.942230
0.343400	-2.783833
0.343500	-2.584538
0.343600	-2.595250
0.343700	-2.533903
0.343800	-2.453082
0.343900	-2.357654
0.344000	-2.256060
0.344100	-2.087926
0.344200	-2.074942
0.344300	-2.046055
0.344400	-2.100584
0.344500	-2.055143
0.344600	-2.109024
0.344700	-2.041510
0.344800	-2.046055
0.344900	-1.947706
0.345000	-1.979190
0.345100	-1.906159
0.345200	-1.960040
0.345300	-2.037291
0.345400	-2.031124
0.345500	-2.049950
0.345600	-1.726340
0.345700	-1.645844
0.345800	-1.569567
0.345900	-1.998016
0.346000	-2.258332
0.346100	-2.177835
0.346200	-2.050599
0.346300	-1.829558
0.346400	-1.904212
0.346500	-2.057415
0.346600	-2.285921
0.346700	-2.411860
0.346800	-2.271640
0.346900	-2.260929
0.347000	-2.193740
0.347100	-2.222628
0.347200	-2.294685
0.347300	-2.285597
0.347400	-2.318380
0.347500	-2.281377
0.347600	-2.269368
0.347700	-2.270666
0.347800	-2.270017
0.347900	-2.244375
0.348000	-2.182055
0.348100	-2.369989
0.348200	-2.285597
0.348300	-2.430036
0.348400	-2.295010
0.348500	-2.256709
0.348600	-2.154141
0.348700	-2.132718
0.348800	-2.335258
0.348900	-2.347917
0.349000	-2.270991
0.349100	-1.995095
0.349200	-1.818847
0.349300	-1.827286
0.349400	-1.987305
0.349500	-2.099611
0.349600	-1.996069
0.349700	-1.811381
0.349800	-1.622149
0.349900	-1.614035
0.350000	-1.671486
0.350100	-1.699076
0.350200	-1.624097
0.350300	-1.600402
0.350400	-1.471868
0.350500	-1.480307
0.350600	-1.462779
0.350700	-1.479333
0.350800	-1.407276
0.350900	-1.409548
0.351000	-1.454989
0.351100	-1.490694
0.351200	-1.514063
0.351300	-1.482254
0.351400	-1.480307
0.351500	-1.499457
0.351600	-1.634484
0.351700	-1.706216
0.351800	-1.700698
0.351900	-1.705243
0.352000	-1.598130
0.352100	-1.666942
0.352200	-1.691610
0.352300	-1.697453
0.352400	-1.713682
0.352500	-1.726340
0.352600	-1.752307
0.352700	-1.798073
0.352800	-1.840918
0.352900	-1.892851
0.353000	-1.901940
0.353100	-1.954198
0.353200	-1.965883
0.353300	-2.004183
0.353400	-2.001262
0.353500	-2.045081
0.353600	-2.055467
0.353700	-2.142780
0.353800	-2.151869
0.353900	-2.321626
0.354000	-2.591354
0.354100	-2.646209
0.354200	-2.497550
0.354300	-2.275859
0.354400	-2.320327
0.354500	-2.482944
0.354600	-2.854592
0.354700	-2.983776
0.354800	-2.914315
0.354900	-2.736443
0.355000	-2.697818
0.355100	-2.834468
0.355200	-3.036684
0.355300	-3.181448
0.355400	-3.223644
0.355500	-3.147691
0.355600	-3.149964
0.355700	-3.249611
0.355800	-3.309335
0.355900	-3.379769
0.356000	-3.395350
0.356100	-3.393077
0.356200	-3.418395
0.356300	-3.473574
0.356400	-3.549203
0.356500	-3.499217
0.356600	-3.434300
0.356700	-3.463188
0.356800	-3.482338
0.356900	-3.518692
0.357000	-3.486882
0.357100	-3.334328
0.357200	-3.252857
0.357300	-3.350557
0.357400	-3.567055
0.357500	-3.731620
0.357600	-3.686178
0.357700	-3.518692
0.357800	-3.371979
0.357900	-3.403140
0.358000	-3.599189
0.358100	-3.773167
0.358200	-3.834513
0.358300	-3.712469
0.358400	-3.597241
0.358500	-3.558940
0.358600	-3.593671
0.358700	-3.633595
0.358800	-3.626454
0.358900	-3.603409
0.359000	-3.580363
0.359100	-3.528429
0.359200	-3.496620
0.359300	-3.379445
0.359400	-3.281096
0.359500	-3.222346
0.359600	-3.210985
0.359700	-3.227215
0.359800	-3.232408
0.359900	-3.126918
0.360000	-2.993839
0.360100	-2.991566
0.360200	-2.796816
0.360300	-2.865952
0.360400	-2.861733
0.360500	-2.779938
0.360600	-2.688080
0.360700	-2.664386
0.360800	-2.557273
0.360900	-2.599145
0.361000	-2.571555
0.361100	-2.631278
0.361200	-2.562467
0.361300	-2.649130
0.361400	-2.583889
0.361500	-2.596548
0.361600	-2.537149
0.361700	-2.543965
0.361800	-2.613426
0.361900	-2.574152
0.362000	-2.712749
0.362100	-2.550132
0.362200	-2.624462
0.362300	-2.199258
0.362400	-2.136938
0.362500	-2.192117
0.362600	-2.516051
0.362700	-2.632577
0.362800	-2.403421
0.362900	-2.274236
0.363000	-2.003859
0.363100	-2.046055
0.363200	-2.225224
0.363300	-2.238532
0.363400	-2.238857
0.363500	-1.965883
0.363600	-1.895123
0.363700	-1.725042
0.363800	-1.861691
0.363900	-1.860393
0.364000	-1.889606
0.364100	-1.842541
0.364200	-1.805214
0.364300	-1.817548
0.364400	-1.841892
0.364500	-1.851629
0.364600	-1.797424
0.364700	-1.881816
0.364800	-1.883439
0.364900	-1.919792
0.365000	-1.910054
0.365100	-1.859419
0.365200	-1.716928
0.365300	-1.693882
0.365400	-1.708164
0.365500	-1.956794
0.365600	-1.975945
0.365700	-1.907133
0.365800	-1.730560
0.365900	-1.583524
0.366000	-1.808784
0.366100	-2.001262
0.366200	-2.148623
0.366300	-2.061635
0.366400	-1.923687
0.366500	-1.823066
0.366600	-1.923687
0.366700	-2.063907
0.366800	-2.121682
0.366900	-2.116814
0.367000	-2.100260
0.367100	-2.078513
0.367200	-2.176212
0.367300	-2.271315
0.367400	-2.374208
0.367500	-2.352786
0.367600	-2.373234
0.367700	-2.462495
0.367800	-2.518972
0.367900	-2.543965
0.368000	-2.532280
0.368100	-2.510209
0.368200	-2.572204
0.368300	-2.693923
0.368400	-2.722486
0.368500	-2.670878
0.368600	-2.547536
0.368700	-2.515077
0.368800	-2.534877
0.368900	-2.510209
0.369000	-2.477101
0.369100	-2.423869
0.369200	-2.408289
0.369300	-2.381349
0.369400	-2.397254
0.369500	-2.365444
0.369600	-2.359277
0.369700	-2.350838
0.369800	-2.374208
0.369900	-2.379401
0.370000	-2.400499
0.370100	-2.426791
0.370200	-2.466714
0.370300	-2.546887
0.370400	-2.598820
0.370500	-2.601741
0.370600	-2.843556
0.370700	-3.047395
0.370800	-3.075634
0.370900	-2.800062
0.371000	-2.667307
0.371100	-2.613426
0.371200	-2.876988
0.371300	-3.155806
0.371400	-3.190212
0.371500	-3.127567
0.371600	-2.917237
0.371700	-2.935089
0.371800	-3.038956
0.371900	-3.280771
0.372000	-3.404438
0.372100	-3.381068
0.372200	-3.335951
0.372300	-3.311931
0.372400	-3.393402
0.372500	-3.436247
0.372600	-3.472601
0.372700	-3.499866
0.372800	-3.513174
0.372900	-3.570625
0.373000	-3.687151
0.373100	-3.758560
0.373200	-3.737462
0.373300	-3.749472
0.373400	-3.772842
0.373500	-3.891640
0.373600	-3.919879
0.373700	-3.936758
0.373800	-3.780632
0.373900	-3.807897
0.374000	-3.944223
0.374100	-4.127614
0.374200	-4.270432
0.374300	-4.189610
0.374400	-4.021799
0.374500	-3.903650
0.374600	-3.992911
0.374700	-4.174679
0.374800	-4.327559
0.374900	-4.315874
0.375000	-4.164942
0.375100	-4.051012
0.375200	-4.030888
0.375300	-4.073408
0.375400	-4.089313
0.375500	-4.078926
0.375600	-4.027317
0.375700	-3.991613
0.375800	-3.900404
0.375900	-3.843602
0.376000	-3.707925
0.376100	-3.593346
0.376200	-3.527456
0.376300	-3.496945
0.376400	-3.493050
0.376500	-3.454424
0.376600	-3.272657
0.376700	-3.176580
0.376800	-3.118479
0.376900	-2.917886
0.377000	-2.877637
0.377100	-2.790974
0.377200	-2.672825
0.377300	-2.510858
0.377400	-2.342724
0.377500	-2.184976
0.377600	-2.075916
0.377700	-2.004833
0.377800	-1.942837
0.377900	-1.898045
0.378000	-1.803267
0.378100	-1.764966
0.378200	-1.616956
0.378300	-1.645519
0.378400	-1.536460
0.378500	-1.609166
0.378600	-1.525748
0.378700	-1.616307
0.378800	-1.566970
0.378900	-1.385529
0.379000	-1.144040
0.379100	-1.082044
0.379200	-1.239791
0.379300	-1.475114
0.379400	-1.475763
0.379500	-1.316068
0.379600	-1.068737
0.379700	-0.977529
0.379800	-1.085290
0.379900	-1.216421
0.380000	-1.259591
0.380100	-1.146636
0.380200	-1.100221
0.380300	-0.997978
0.380400	-1.049911
0.380500	-1.059973
0.380600	-1.110608
0.380700	-1.079772
0.380800	-1.078474
0.380900	-1.099572
0.381000	-1.127486
0.381100	-1.128135
0.381200	-1.136899
0.381300	-1.201166
0.381400	-1.234923
0.381500	-1.398837
0.381600	-1.359238
0.381700	-1.488746
0.381800	-1.396565
0.381900	-1.395915
0.382000	-1.398512
0.382100	-1.570541
0.382200	-1.844489
0.382300	-1.814627
0.382400	-1.778274
0.382500	-1.547495
0.382600	-1.651686
0.382700	-1.818522
0.382800	-2.094093
0.382900	-2.130446
0.383000	-2.073320
0.383100	-1.912651
0.383200	-1.945109
0.383300	-2.048327
0.383400	-2.147649
0.383500	-2.148623
0.383600	-2.170694
0.383700	-2.150570
0.383800	-2.182055
0.383900	-2.215811
0.384000	-2.256709
0.384100	-2.297606
0.384200	-2.289816
0.384300	-2.351163
0.384400	-2.427764
0.384500	-2.464442
0.384600	-2.457301
0.384700	-2.493979
0.384800	-2.536824
0.384900	-2.713723
0.385000	-2.875365
0.385100	-2.908473
0.385200	-2.945476
0.385300	-2.865628
0.385400	-2.964626
0.385500	-3.022077
0.385600	-3.041228
0.385700	-3.093161
0.385800	-3.074985
0.385900	-3.114908
0.386000	-3.119777
0.386100	-3.163272
0.386200	-3.182097
0.386300	-3.218775
0.386400	-3.270060
0.386500	-3.330433
0.386600	-3.348934
0.386700	-3.392104
0.386800	-3.469679
0.386900	-3.527780
0.387000	-3.609576
0.387100	-3.670922
0.387200	-3.751744
0.387300	-4.018878
0.387400	-4.221095
0.387500	-4.222718
0.387600	-4.023747
0.387700	-3.883201
0.387800	-4.020501
0.387900	-4.262642
0.388000	-4.554445
0.388100	-4.501538
0.388200	-4.378519
0.388300	-4.220770
0.388400	-4.250632
0.388500	-4.435322
0.388600	-4.543410
0.388700	-4.566455
0.388800	-4.438568
0.388900	-4.371054
0.389000	-4.299645
0.389100	-4.303540
0.389200	-4.257449
0.389300	-4.204541
0.389400	-4.111710
0.389500	-4.017255
0.389600	-3.956233
0.389700	-3.891316
0.389800	-3.805950
0.389900	-3.730646
0.390000	-3.662808
0.390100	-3.609576
0.390200	-3.582310
0.390300	-3.554396
0.390400	-3.342767
0.390500	-3.165544
0.390600	-3.149639
0.390700	-3.297650
0.390800	-3.436247
0.390900	-3.494673
0.391000	-3.305764
0.391100	-3.099004
0.391200	-3.035710
0.391300	-3.140226
0.391400	-3.321669
0.391500	-3.411254
0.391600	-3.292781
0.391700	-3.103548
0.391800	-3.009094
0.391900	-3.001304
0.392000	-3.038307
0.392100	-3.017209
0.392200	-2.959757
0.392300	-2.887375
0.392400	-2.851671
0.392500	-2.786754
0.392600	-2.678018
0.392700	-2.513454
0.392800	-2.406017
0.392900	-2.362523
0.393000	-2.341101
0.393100	-2.319029
0.393200	-2.270017
0.393300	-2.080136
0.393400	-2.008078
0.393500	-1.873052
0.393600	-1.846761
0.393700	-1.824689
0.393800	-1.789959
0.393900	-1.725042
0.394000	-1.652336
0.394100	-1.531266
0.394200	-1.514063
0.394300	-1.510493
0.394400	-1.564049
0.394500	-1.596507
0.394600	-1.554312
0.394700	-1.616307
0.394800	-1.573462
0.394900	-1.560154
0.395000	-1.555935
0.395100	-1.577032
0.395200	-1.605271
0.395300	-1.638054
0.395400	-1.695505
0.395500	-1.615333
0.395600	-1.430970
0.395700	-1.089185
0.395800	-1.210904
0.395900	-1.461806
0.396000	-1.787362
0.396100	-1.721472
0.396200	-1.562751
0.396300	-1.264135
0.396400	-1.281662
0.396500	-1.411495
0.396600	-1.571515
0.396700	-1.615009
0.396800	-1.531591
0.396900	-1.376765
0.397000	-1.298541
0.397100	-1.422531
0.397200	-1.487448
0.397300	-1.516985
0.397400	-1.565023
0.397500	-1.592937
0.397600	-1.582550
0.397700	-1.634484
0.397800	-1.714980
0.397900	-1.725367
0.398000	-1.784765
0.398100	-1.832154
0.398200	-2.031448
0.398300	-2.055143
0.398400	-2.162580
0.398500	-2.061959
0.398600	-2.080460
0.398700	-2.056766
0.398800	-2.353435
0.398900	-2.510209
0.399000	-2.465416
0.399100	-2.311239
0.399200	-2.106427
0.399300	-2.263850
0.399400	-2.493006
0.399500	-2.750725
0.399600	-2.721837
0.399700	-2.596872
0.399800	-2.435879
0.399900	-2.487163
0.400000	-2.646858
0.400100	-2.771498
0.400200	-2.759489
0.400300	-2.790324
0.400400	-2.697169
0.400500	-2.734496
0.400600	-2.763384
0.400700	-2.817914
0.400800	-2.812396
0.400900	-2.765007
0.401000	-2.769226
0.401100	-2.787403
0.401200	-2.758515
0.401300	-2.702038
0.401400	-2.688080
0.401500	-2.662114
0.401600	-2.736443
0.401700	-2.787728
0.401800	-2.758191
0.401900	-2.706582
0.402000	-2.541369
0.402100	-2.555975
0.402200	-2.526113
0.402300	-2.483593
0.402400	-2.467364
0.402500	-2.411860
0.402600	-2.378428
0.402700	-2.321301
0.402800	-2.276833
0.402900	-2.237559
0.403000	-2.204127
0.403100	-2.175563
0.403200	-2.177835
0.403300	-2.103506
0.403400	-2.100909
0.403500	-2.053520
0.403600	-2.059687
0.403700	-2.004183
0.403800	-2.022685
0.403900	-2.080460
0.404000	-2.347592
0.404100	-2.355382
0.404200	-2.172967
0.404300	-1.943162
0.404400	-1.821119
0.404500	-1.953873
0.404600	-2.156413
0.404700	-2.307669
0.404800	-2.201530
0.404900	-2.009377
0.405000	-1.850331
0.405100	-1.910054
0.405200	-2.064556
0.405300	-2.145052
0.405400	-2.173940
0.405500	-2.070723
0.405600	-1.994446
0.405700	-1.976594
0.405800	-2.050923
0.405900	-2.070398
0.406000	-2.097663
0.406100	-2.112919
0.406200	-2.094417
0.406300	-2.108699
0.406400	-2.173616
0.406500	-2.240480
0.406600	-2.189196
0.406700	-2.184327
0.406800	-2.229769
0.406900	-2.305072
0.407000	-2.318380
0.407100	-2.179134
0.407200	-2.122007
0.407300	-2.231391
0.407400	-2.404070
0.407500	-2.603364
0.407600	-2.639717
0.407700	-2.502094
0.407800	-2.375831
0.407900	-2.414781
0.408000	-2.651402
0.408100	-2.936063
0.408200	-3.074660
0.408300	-3.031490
0.408400	-2.947423
0.408500	-2.931843
0.408600	-3.025972
0.408700	-3.100627
0.408800	-3.151587
0.408900	-3.232733
0.409000	-3.256427
0.409100	-3.248637
0.409200	-3.238900
0.409300	-3.205143
0.409400	-3.141524
0.409500	-3.143472
0.409600	-3.194432
0.409700	-3.270060
0.409800	-3.332380
0.409900	-3.293755
0.410000	-3.181773
0.410100	-3.214880
0.410200	-3.069142
0.410300	-3.188265
0.410400	-3.213258
0.410500	-3.234680
0.410600	-3.216828
0.410700	-3.183396
0.410800	-3.110040
0.410900	-3.152236
0.411000	-3.171386
0.411100	-3.268437
0.411200	-3.297000
0.411300	-3.273955
0.411400	-3.378471
0.411500	-3.284666
0.411600	-3.321993
0.411700	-3.267139
0.411800	-3.331731
0.411900	-3.366137
0.412000	-3.383664
0.412100	-3.382691
0.412200	-3.262919
0.412300	-2.999356
0.412400	-2.742935
0.412500	-2.864979
0.412600	-3.125620
0.412700	-3.267788
0.412800	-3.129190
0.412900	-2.831547
0.413000	-2.598171
0.413100	-2.566037
0.413200	-2.693274
0.413300	-2.804931
0.413400	-2.774420
0.413500	-2.570581
0.413600	-2.403745
0.413700	-2.304423
0.413800	-2.298256
0.413900	-2.352461
0.414000	-2.339802
0.414100	-2.325845
0.414200	-2.264499
0.414300	-2.255735
0.414400	-2.226198
0.414500	-2.239831
0.414600	-2.176537
0.414700	-2.270017
0.414800	-2.391411
0.414900	-2.446266
0.415000	-2.416404
0.415100	-2.503068
0.415200	-2.369015
0.415300	-2.465741
0.415400	-2.448538
0.415500	-2.819537
0.415600	-2.843556
0.415700	-2.754296
0.415800	-2.570906
0.415900	-2.446590
0.416000	-2.598171
0.416100	-2.803632
0.416200	-2.965275
0.416300	-2.894840
0.416400	-2.732873
0.416500	-2.585837
0.416600	-2.644911
0.416700	-2.738391
0.416800	-2.808826
0.416900	-2.797790
0.417000	-2.790649
0.417100	-2.723460
0.417200	-2.787403
0.417300	-2.781885
0.417400	-2.826353
0.417500	-2.772797
0.417600	-2.719565
0.417700	-2.731899
0.417800	-2.734171
0.417900	-2.709828
0.418000	-2.651402
0.418100	-2.599469
0.418200	-2.565712
0.418300	-2.665684
0.418400	-2.665360
0.418500	-2.602066
0.418600	-2.473206
0.418700	-2.397254
0.418800	-2.414456
0.418900	-2.413807
0.419000	-2.381024
0.419100	-2.380700
0.419200	-2.344996
0.419300	-2.366743
0.419400	-2.363172
0.419500	-2.374208
0.419600	-2.360251
0.419700	-2.363821
0.419800	-2.383621
0.419900	-2.397903
0.420000	-2.395631
0.420100	-2.433282
0.420200	-2.425168
0.420300	-2.472232
0.420400	-2.490734
0.420500	-2.517674
0.420600	-2.704310
0.420700	-3.011691
0.420800	-3.050316
0.420900	-2.879585
0.421000	-2.697818
0.421100	-2.688405
0.421200	-2.909122
0.421300	-3.187291
0.421400	-3.326213
0.421500	-3.212608
0.421600	-3.016559
0.421700	-2.898411
0.421800	-3.003576
0.421900	-3.125944
0.422000	-3.243769
0.422100	-3.228513
0.422200	-3.115233
0.422300	-3.065896
0.422400	-3.029218
0.422500	-3.002278
0.422600	-2.963652
0.422700	-2.919509
0.422800	-2.850372
0.422900	-2.812396
0.423000	-2.816291
0.423100	-2.820835
0.423200	-2.700415
0.423300	-2.618295
0.423400	-2.577722
0.423500	-2.570581
0.423600	-2.600118
0.423700	-2.538772
0.423800	-2.332337
0.423900	-2.286571
0.424000	-2.422896
0.424100	-2.597197
0.424200	-2.772148
0.424300	-2.747804
0.424400	-2.594276
0.424500	-2.472881
0.424600	-2.569607
0.424700	-2.824081
0.424800	-3.059080
0.424900	-3.156131
0.425000	-3.075634
0.425100	-3.011366
0.425200	-3.031166
0.425300	-3.093810
0.425400	-3.187291
0.425500	-3.205143
0.425600	-3.223644
0.425700	-3.214880
0.425800	-3.207740
0.425900	-3.215205
0.426000	-3.164894
0.426100	-3.061677
0.426200	-3.006173
0.426300	-2.993189
0.426400	-3.025323
0.426500	-3.042851
0.426600	-2.928273
0.426700	-2.817914
0.426800	-2.743909
0.426900	-2.607908
0.427000	-2.626085
0.427100	-2.627383
0.427200	-2.569283
0.427300	-2.468986
0.427400	-2.392385
0.427500	-2.300203
0.427600	-2.348566
0.427700	-2.293711
0.427800	-2.365120
0.427900	-2.306046
0.428000	-2.386542
0.428100	-2.291764
0.428200	-2.322275
0.428300	-2.244375
0.428400	-2.319029
0.428500	-2.287869
0.428600	-2.415106
0.428700	-2.420299
0.428800	-2.383296
0.428900	-2.366094
0.429000	-2.086303
0.429100	-1.996393
0.429200	-2.060661
0.429300	-2.442371
0.429400	-2.503068
0.429500	-2.399850
0.429600	-2.215811
0.429700	-2.080460
0.429800	-2.147000
0.429900	-2.336881
0.430000	-2.429063
0.430100	-2.403096
0.430200	-2.244050
0.430300	-2.065854
0.430400	-2.153816
0.430500	-2.106752
0.430600	-2.239831
0.430700	-2.175563
0.430800	-2.171344
0.430900	-2.140184
0.431000	-2.154790
0.431100	-2.184327
0.431200	-2.192117
0.431300	-2.190819
0.431400	-2.311239
0.431500	-2.317406
0.431600	-2.404394
0.431700	-2.386867
0.431800	-2.403421
0.431900	-2.304747
0.432000	-2.384595
0.432100	-2.447564
0.432200	-2.716968
0.432300	-2.705283
0.432400	-2.635822
0.432500	-2.386218
0.432600	-2.388490
0.432700	-2.500147
0.432800	-2.720214
0.432900	-2.796167
0.433000	-2.691326
0.433100	-2.493655
0.433200	-2.397254
0.433300	-2.486839
0.433400	-2.596548
0.433500	-2.631278
0.433600	-2.624137
0.433700	-2.553054
0.433800	-2.519946
0.433900	-2.572853
0.434000	-2.613426
0.434100	-2.637445
0.434200	-2.601741
0.434300	-2.585837
0.434400	-2.575774
0.434500	-2.494304
0.434600	-2.444967
0.434700	-2.416404
0.434800	-2.375506
0.434900	-2.436528
0.435000	-2.540719
0.435100	-2.493655
0.435200	-2.415430
0.435300	-2.399526
0.435400	-2.327468
0.435500	-2.335907
0.435600	-2.294685
0.435700	-2.275210
0.435800	-2.215487
0.435900	-2.206399
0.436000	-2.163554
0.436100	-2.162904
0.436200	-2.132394
0.436300	-2.090522
0.436400	-2.078837
0.436500	-2.055467
0.436600	-2.038589
0.436700	-1.980813
0.436800	-1.990226
0.436900	-1.961663
0.437000	-2.020412
0.437100	-1.969128
0.437200	-2.057090
0.437300	-2.199907
0.437400	-2.521569
0.437500	-2.405693
0.437600	-2.243726
0.437700	-2.073644
0.437800	-2.136613
0.437900	-2.447564
0.438000	-2.686133
0.438100	-2.803308
0.438200	-2.644262
0.438300	-2.560519
0.438400	-2.586161
0.438500	-2.722162
0.438600	-2.923404
0.438700	-2.986698
0.438800	-2.959757
0.438900	-2.924053
0.439000	-2.954888
0.439100	-2.984426
0.439200	-3.023376
0.439300	-3.051939
0.439400	-3.060054
0.439500	-3.040903
0.439600	-3.051615
0.439700	-3.117830
0.439800	-3.116207
0.439900	-3.071414
0.440000	-2.978908
0.440100	-3.037657
0.440200	-3.035061
0.440300	-3.050965
0.440400	-2.904253
0.440500	-2.749751
0.440600	-2.729952
0.440700	-2.800711
0.440800	-2.939308
0.440900	-3.014612
0.441000	-2.845828
0.441100	-2.653675
0.441200	-2.575450
0.441300	-2.633875
0.441400	-2.808501
0.441500	-2.909447
0.441600	-2.864005
0.441700	-2.730276
0.441800	-2.650104
0.441900	-2.661465
0.442000	-2.655622
0.442100	-2.689379
0.442200	-2.675097
0.442300	-2.633550
0.442400	-2.601741
0.442500	-2.545913
0.442600	-2.491383
0.442700	-2.369664
0.442800	-2.269692
0.442900	-2.242752
0.443000	-2.253788
0.443100	-2.245673
0.443200	-2.221654
0.443300	-2.063907
0.443400	-2.017491
0.443500	-1.831181
0.443600	-1.864937
0.443700	-1.822092
0.443800	-1.803916
0.443900	-1.734780
0.444000	-1.658827
0.444100	-1.602025
0.444200	-1.545873
0.444300	-1.533538
0.444400	-1.584498
0.444500	-1.555935
0.444600	-1.620527
0.444700	-1.613710
0.444800	-1.634159
0.444900	-1.566646
0.445000	-1.640001
0.445100	-1.614035
0.445200	-1.711410
0.445300	-1.659152
0.445400	-1.813978
0.445500	-1.762369
0.445600	-1.634484
0.445700	-1.417013
0.445800	-1.373195
0.445900	-1.653309
0.446000	-1.967181
0.446100	-1.898045
0.446200	-1.741596
0.446300	-1.583524
0.446400	-1.511467
0.446500	-1.707839
0.446600	-1.873376
0.446700	-1.886684
0.446800	-1.823715
0.446900	-1.648116
0.447000	-1.572488
0.447100	-1.637729
0.447200	-1.695505
0.447300	-1.739324
0.447400	-1.797099
0.447500	-1.800994
0.447600	-1.828909
0.447700	-1.871754
0.447800	-1.904212
0.447900	-1.938293
0.448000	-1.919792
0.448100	-2.098312
0.448200	-2.076890
0.448300	-2.196986
0.448400	-2.130771
0.448500	-2.111945
0.448600	-2.050599
0.448700	-2.012622
0.448800	-2.208022
0.448900	-2.385569
0.449000	-2.267745
0.449100	-2.126551
0.449200	-1.824689
0.449300	-1.923687
0.449400	-2.098312
0.449500	-2.241129
0.449600	-2.217759
0.449700	-2.032747
0.449800	-1.859744
0.449900	-1.840918
0.450000	-1.972374
0.450100	-2.048976
0.450200	-1.988279
0.450300	-1.931152
0.450400	-1.928556
0.450500	-1.915248
0.450600	-1.971400
0.450700	-1.988279
0.450800	-1.983085
0.450900	-1.949004
0.451000	-1.982761
0.451100	-2.041835
0.451200	-2.072670
0.451300	-2.032097
0.451400	-1.987305
0.451500	-1.983410
0.451600	-2.160632
0.451700	-2.300528
0.451800	-2.357330
0.451900	-2.412509
0.452000	-2.462819
0.452100	-2.444967
0.452200	-2.538772
0.452300	-2.573178
0.452400	-2.660491
0.452500	-2.705283
0.452600	-2.802659
0.452700	-2.828625
0.452800	-2.894840
0.452900	-2.957485
0.453000	-3.004874
0.453100	-3.078555
0.453200	-3.089266
0.453300	-3.158078
0.453400	-3.218451
0.453500	-3.272981
0.453600	-3.382042
0.453700	-3.424562
0.453800	-3.513174
0.453900	-3.624182
0.454000	-3.944872
0.454100	-4.063671
0.454200	-3.957856
0.454300	-3.739734
0.454400	-3.699161
0.454500	-3.792966
0.454600	-4.042573
0.454700	-4.243492
0.454800	-4.149362
0.454900	-4.003622
0.455000	-3.838408
0.455100	-3.912089
0.455200	-4.051012
0.455300	-4.209735
0.455400	-4.208436
0.455500	-4.121123
0.455600	-4.022448
0.455700	-4.032186
0.455800	-4.030888
0.455900	-4.081523
0.456000	-4.029589
0.456100	-3.990639
0.456200	-3.936433
0.456300	-3.966944
0.456400	-4.030888
0.456500	-4.009790
0.456600	-3.908519
0.456700	-3.865673
0.456800	-3.831592
0.456900	-3.852690
0.457000	-3.799783
0.457100	-3.646578
0.457200	-3.435923
0.457300	-3.421316
0.457400	-3.560563
0.457500	-3.686827
0.457600	-3.708250
0.457700	-3.480715
0.457800	-3.240523
0.457900	-3.162298
0.458000	-3.283043
0.458100	-3.462863
0.458200	-3.519341
0.458300	-3.388533
0.458400	-3.184045
0.458500	-3.061352
0.458600	-3.088293
0.458700	-3.115233
0.458800	-3.122049
0.458900	-3.073686
0.459000	-3.016559
0.459100	-2.957161
0.459200	-2.915289
0.459300	-2.822134
0.459400	-2.690353
0.459500	-2.565063
0.459600	-2.505340
0.459700	-2.504691
0.459800	-2.489760
0.459900	-2.427115
0.460000	-2.236260
0.460100	-2.202504
0.460200	-1.967830
0.460300	-2.019114
0.460400	-2.022685
0.460500	-1.977243
0.460600	-1.888632
0.460700	-1.785415
0.460800	-1.670188
0.460900	-1.636431
0.461000	-1.656231
0.461100	-1.700698
0.461200	-1.708164
0.461300	-1.677328
0.461400	-1.737701
0.461500	-1.698426
0.461600	-1.752632
0.461700	-1.731858
0.461800	-1.874350
0.461900	-1.910379
0.462000	-2.007105
0.462100	-2.087601
0.462200	-2.094742
0.462300	-1.927257
0.462400	-1.818847
0.462500	-1.875973
0.462600	-2.346619
0.462700	-2.528385
0.462800	-2.543965
0.462900	-2.309616
0.463000	-2.283649
0.463100	-2.270341
0.463200	-2.501769
0.463300	-2.659192
0.463400	-2.734496
0.463500	-2.627383
0.463600	-2.377779
0.463700	-2.343048
0.463800	-2.307019
0.463900	-2.358953
0.464000	-2.362848
0.464100	-2.362523
0.464200	-2.245998
0.464300	-2.181730
0.464400	-2.155439
0.464500	-2.153816
0.464600	-2.134666
0.464700	-2.086952
0.464800	-2.181406
0.464900	-2.210943
0.465000	-2.233988
0.465100	-2.285921
0.465200	-2.134341
0.465300	-2.220031
0.465400	-2.148623
0.465500	-2.530657
0.465600	-2.643288
0.465700	-2.668605
0.465800	-2.458600
0.465900	-2.372261
0.466000	-2.474829
0.466100	-2.774095
0.466200	-3.002278
0.466300	-3.006822
0.466400	-2.887700
0.466500	-2.740014
0.466600	-2.819212
0.466700	-2.960082
0.466800	-3.072063
0.466900	-3.061677
0.467000	-3.079529
0.467100	-3.019805
0.467200	-3.085047
0.467300	-3.081801
0.467400	-3.085371
0.467500	-3.039280
0.467600	-3.026297
0.467700	-3.054536
0.467800	-3.048369
0.467900	-3.008120
0.468000	-2.930220
0.468100	-2.888998
0.468200	-2.850697
0.468300	-2.933141
0.468400	-2.963652
0.468500	-2.930869
0.468600	-2.868224
0.468700	-2.795842
0.468800	-2.726381
0.468900	-2.704959
0.469000	-2.645885
0.469100	-2.613102
0.469200	-2.546562
0.469300	-2.479049
0.469400	-2.442695
0.469500	-2.365120
0.469600	-2.293062
0.469700	-2.260279
0.469800	-2.162904
0.469900	-2.107076
0.470000	-2.000613
0.470100	-2.006455
0.470200	-1.916546
0.470300	-1.928231
0.470400	-1.880193
0.470500	-1.859419
0.470600	-1.978217
0.470700	-2.190169
0.470800	-2.231716
0.470900	-2.044107
0.471000	-1.800021
0.471100	-1.759772
0.471200	-1.918493
0.471300	-2.193091
0.471400	-2.289816
0.471500	-2.193740
0.471600	-2.022685
0.471700	-1.934398
0.471800	-2.012947
0.471900	-2.208671
0.472000	-2.311239
0.472100	-2.315134
0.472200	-2.313836
0.472300	-2.245673
0.472400	-2.293387
0.472500	-2.332012
0.472600	-2.419974
0.472700	-2.446266
0.472800	-2.448538
0.472900	-2.490409
0.473000	-2.576424
0.473100	-2.583564
0.473200	-2.642314
0.473300	-2.588109
0.473400	-2.640367
0.473500	-2.691651
0.473600	-2.735794
0.473700	-2.715345
0.473800	-2.602715
0.473900	-2.579994
0.474000	-2.750076
0.474100	-2.989294
0.474200	-3.200599
0.474300	-3.217477
0.474400	-3.109715
0.474500	-3.021104
0.474600	-3.113286
0.474700	-3.374576
0.474800	-3.638788
0.474900	-3.774140
0.475000	-3.753367
0.475100	-3.720259
0.475200	-3.733243
0.475300	-3.798809
0.475400	-3.891316
0.475500	-3.976357
0.475600	-4.015632
0.475700	-4.066267
0.475800	-4.053609
0.475900	-4.053933
0.476000	-3.998104
0.476100	-3.890991
0.476200	-3.840680
0.476300	-3.832566
0.476400	-3.836461
0.476500	-3.825425
0.476600	-3.720908
0.476700	-3.559265
0.476800	-3.455073
0.476900	-3.307387
0.477000	-3.296351
0.477100	-3.259998
0.477200	-3.181448
0.477300	-3.079529
0.477400	-2.951967
0.477500	-2.824730
0.477600	-2.757866
0.477700	-2.724434
0.477800	-2.693923
0.477900	-2.620892
0.478000	-2.641990
0.478100	-2.552080
0.478200	-2.496901
0.478300	-2.453406
0.478400	-2.389464
0.478500	-2.448862
0.478600	-2.405368
0.478700	-2.475154
0.478800	-2.367067
0.478900	-2.285272
0.479000	-1.941214
0.479100	-1.838646
0.479200	-1.811057
0.479300	-2.235611
0.479400	-2.272289
0.479500	-2.094093
0.479600	-1.848059
0.479700	-1.683171
0.479800	-1.784441
0.479900	-1.912651
0.480000	-2.105129
0.480100	-1.965233
0.480200	-1.845462
0.480300	-1.613061
0.480400	-1.615982
0.480500	-1.629939
0.480600	-1.657204
0.480700	-1.680250
0.480800	-1.683171
0.480900	-1.677653
0.481000	-1.679276
0.481100	-1.675056
0.481200	-1.673109
0.481300	-1.617281
0.481400	-1.714331
0.481500	-1.785739
0.481600	-1.853252
0.481700	-1.830207
0.481800	-1.849682
0.481900	-1.722770
0.482000	-1.812030
0.482100	-1.812030
0.482200	-2.171019
0.482300	-2.135964
0.482400	-2.056117
0.482500	-1.841892
0.482600	-1.800021
0.482700	-1.925634
0.482800	-2.147000
0.482900	-2.241129
0.483000	-2.117463
0.483100	-1.983410
0.483200	-1.888307
0.483300	-1.963610
0.483400	-2.056441
0.483500	-2.090522
0.483600	-1.998665
0.483700	-2.006455
0.483800	-1.938942
0.483900	-2.022685
0.484000	-2.042484
0.484100	-2.049300
0.484200	-1.989253
0.484300	-1.961338
0.484400	-1.979515
0.484500	-1.960040
0.484600	-1.924336
0.484700	-1.870455
0.484800	-1.829558
0.484900	-1.824040
0.485000	-1.945758
0.485100	-1.949004
0.485200	-1.869157
0.485300	-1.818847
0.485400	-1.800994
0.485500	-1.850980
0.485600	-1.852603
0.485700	-1.835725
0.485800	-1.814952
0.485900	-1.797099
0.486000	-1.800994
0.486100	-1.828909
0.486200	-1.834426
0.486300	-1.871429
0.486400	-1.901615
0.486500	-1.937968
0.486600	-1.982436
0.486700	-2.005482
0.486800	-2.064880
0.486900	-2.109673
0.487000	-2.198933
0.487100	-2.216785
0.487200	-2.345320
0.487300	-2.564089
0.487400	-2.849074
0.487500	-2.935738
0.487600	-2.716319
0.487700	-2.598171
0.487800	-2.605312
0.487900	-2.922105
0.488000	-3.175930
0.488100	-3.271358
0.488200	-3.190212
0.488300	-3.051615
0.488400	-3.049342
0.488500	-3.248313
0.488600	-3.442739
0.488700	-3.587504
0.488800	-3.529079
0.488900	-3.473250
0.489000	-3.476496
0.489100	-3.558940
0.489200	-3.650149
0.489300	-3.665404
0.489400	-3.647228
0.489500	-3.642683
0.489600	-3.684879
0.489700	-3.704679
0.489800	-3.734866
0.489900	-3.719285
0.490000	-3.696564
0.490100	-3.713443
0.490200	-3.740059
0.490300	-3.735839
0.490400	-3.632297
0.490500	-3.489804
0.490600	-3.416448
0.490700	-3.520315
0.490800	-3.708574
0.490900	-3.820881
0.491000	-3.727075
0.491100	-3.494348
0.491200	-3.344714
0.491300	-3.403789
0.491400	-3.602435
0.491500	-3.713118
0.491600	-3.659237
0.491700	-3.511876
0.491800	-3.418070
0.491900	-3.408008
0.492000	-3.431378
0.492100	-3.454424
0.492200	-3.449231
0.492300	-3.425861
0.492400	-3.349908
0.492500	-3.292132
0.492600	-3.217477
0.492700	-3.095433
0.492800	-2.971118
0.492900	-2.889647
0.493000	-2.866602
0.493100	-2.855241
0.493200	-2.831547
0.493300	-2.649780
0.493400	-2.557922
0.493500	-2.409912
0.493600	-2.340127
0.493700	-2.305396
0.493800	-2.284299
0.493900	-2.189845
0.494000	-2.075267
0.494100	-1.973673
0.494200	-1.857472
0.494300	-1.872727
0.494400	-1.849682
0.494500	-1.899992
0.494600	-1.824040
0.494700	-1.927257
0.494800	-1.848384
0.494900	-1.851629
0.495000	-1.818847
0.495100	-1.869806
0.495200	-1.940890
0.495300	-1.925634
0.495400	-2.008403
0.495500	-1.986007
0.495600	-1.852279
0.495700	-1.597806
0.495800	-1.502378
0.495900	-1.838321
0.496000	-1.998665
0.496100	-2.092145
0.496200	-1.833128
0.496300	-1.737701
0.496400	-1.562102
0.496500	-1.702970
0.496600	-1.748412
0.496700	-1.883114
0.496800	-1.779897
0.496900	-1.598779
0.497000	-1.496536
0.497100	-1.458235
0.497200	-1.539381
0.497300	-1.535161
0.497400	-1.632536
0.497500	-1.585147
0.497600	-1.536784
0.497700	-1.566321
0.497800	-1.554961
0.497900	-1.554636
0.498000	-1.570541
0.498100	-1.695181
0.498200	-1.703295
0.498300	-1.754255
0.498400	-1.791906
0.498500	-1.712383
0.498600	-1.693558
0.498700	-1.638054
0.498800	-1.779572
0.498900	-2.033720
0.499000	-1.993148
0.499100	-1.833128
0.499200	-1.632536
0.499300	-1.653309
0.499400	-1.825663
0.499500	-2.049625
0.499600	-2.072346
0.499700	-1.938942
0.499800	-1.765940
0.499900	-1.729586
0.500000	-1.821443
0.500100	-1.946083
0.500200	-1.928556
0.500300	-1.903238
0.500400	-1.864937
0.500500	-1.850331
0.500600	-1.904536
0.500700	-1.941539
0.500800	-1.940565
0.500900	-1.885061
0.501000	-1.881816
0.501100	-1.941863
0.501200	-1.921739
0.501300	-1.831830
0.501400	-1.802293
0.501500	-1.788660
0.501600	-1.839620
0.501700	-1.944785
0.501800	-1.944460
0.501900	-1.919792
0.502000	-1.740298
0.502100	-1.774703
0.502200	-1.769835
0.502300	-1.756202
0.502400	-1.730235
0.502500	-1.707839
0.502600	-1.702321
0.502700	-1.690636
0.502800	-1.679925
0.502900	-1.661749
0.503000	-1.674732
0.503100	-1.672135
0.503200	-1.689663
0.503300	-1.685768
0.503400	-1.751009
0.503500	-1.763018
0.503600	-1.835725
0.503700	-1.893176
0.503800	-1.905510
0.503900	-2.027553
0.504000	-2.281377
0.504100	-2.564089
0.504200	-2.496576
0.504300	-2.355382
0.504400	-2.278781
0.504500	-2.382972
0.504600	-2.660491
0.504700	-2.908473
0.504800	-2.925351
0.504900	-2.776043
0.505000	-2.682887
0.505100	-2.693598
0.505200	-2.868874
0.505300	-3.027595
0.505400	-3.076932
0.505500	-3.104197
0.505600	-3.051290
0.505700	-3.014937
0.505800	-3.051939
0.505900	-3.095758
0.506000	-3.130813
0.506100	-3.129515
0.506200	-3.158727
0.506300	-3.189563
0.506400	-3.229811
0.506500	-3.289860
0.506600	-3.269086
0.506700	-3.250260
0.506800	-3.323941
0.506900	-3.372304
0.507000	-3.422615
0.507100	-3.271683
0.507200	-3.155806
0.507300	-3.166193
0.507400	-3.342442
0.507500	-3.527456
0.507600	-3.591723
0.507700	-3.459293
0.507800	-3.253831
0.507900	-3.193458
0.508000	-3.330108
0.508100	-3.538167
0.508200	-3.626129
0.508300	-3.577766
0.508400	-3.422615
0.508500	-3.363865
0.508600	-3.402166
0.508700	-3.445336
0.508800	-3.446309
0.508900	-3.388209
0.509000	-3.329783
0.509100	-3.317449
0.509200	-3.279797
0.509300	-3.203845
0.509400	-3.027920
0.509500	-2.896463
0.509600	-2.828950
0.509700	-2.819861
0.509800	-2.814668
0.509900	-2.742286
0.510000	-2.558572
0.510100	-2.493979
0.510200	-2.297282
0.510300	-2.266446
0.510400	-2.238208
0.510500	-2.216785
0.510600	-2.106427
0.510700	-2.007429
0.510800	-1.896097
0.510900	-1.843839
0.511000	-1.814627
0.511100	-1.850331
0.511200	-1.799696
0.511300	-1.802293
0.511400	-1.800345
0.511500	-1.762045
0.511600	-1.716603
0.511700	-1.702970
0.511800	-1.729586
0.511900	-1.708488
0.512000	-1.703944
0.512100	-1.746140
0.512200	-1.596183
0.512300	-1.458235
0.512400	-1.168383
0.512500	-1.237195
0.512600	-1.447199
0.512700	-1.792880
0.512800	-1.583524
0.512900	-1.482579
0.513000	-1.260889
0.513100	-1.326455
0.513200	-1.382932
0.513300	-1.613386
0.513400	-1.611763
0.513500	-1.619553
0.513600	-1.481281
0.513700	-1.460183
0.513800	-1.439409
0.513900	-1.590989
0.514000	-1.609491
0.514100	-1.682522
0.514200	-1.671811
0.514300	-1.676030
0.514400	-1.707839
0.514500	-1.718226
0.514600	-1.735753
0.514700	-1.826637
0.514800	-1.910054
0.514900	-1.887333
0.515000	-1.937319
0.515100	-1.981138
0.515200	-1.922388
0.515300	-1.902589
0.515400	-1.924985
0.515500	-2.090522
0.515600	-2.297282
0.515700	-2.237559
0.515800	-2.079811
0.515900	-1.913949
0.516000	-1.980489
0.516100	-2.195038
0.516200	-2.404394
0.516300	-2.361874
0.516400	-2.226847
0.516500	-2.048002
0.516600	-2.090198
0.516700	-2.217434
0.516800	-2.295984
0.516900	-2.209969
0.517000	-2.179458
0.517100	-2.103506
0.517200	-2.191143
0.517300	-2.217759
0.517400	-2.244375
0.517500	-2.192442
0.517600	-2.134666
0.517700	-2.141807
0.517800	-2.179458
0.517900	-2.143105
0.518000	-2.086627
0.518100	-2.059362
0.518200	-2.000938
0.518300	-2.090198
0.518400	-2.133367
0.518500	-2.116814
0.518600	-2.049950
0.518700	-1.926283
0.518800	-1.943811
0.518900	-1.935372
0.519000	-1.869157
0.519100	-1.841243
0.519200	-1.810407
0.519300	-1.823715
0.519400	-1.824040
0.519500	-1.820469
0.519600	-1.858446
0.519700	-1.882789
0.519800	-1.914274
0.519900	-1.892527
0.520000	-1.910703
0.520100	-1.968479
0.520200	-2.010675
0.520300	-2.047353
0.520400	-2.077539
0.520500	-2.132069
0.520600	-2.252814
0.520700	-2.572529
0.520800	-2.710801
0.520900	-2.598820
0.521000	-2.414781
0.521100	-2.442695
0.521200	-2.585512
0.521300	-2.897762
0.521400	-3.087643
0.521500	-3.069791
0.521600	-2.958134
0.521700	-2.909122
0.521800	-2.993189
0.521900	-3.185019
0.522000	-3.347960
0.522100	-3.420343
0.522200	-3.377173
0.522300	-3.435923
0.522400	-3.433326
0.522500	-3.485584
0.522600	-3.578740
0.522700	-3.618015
0.522800	-3.637165
0.522900	-3.631647
0.523000	-3.679037
0.523100	-3.765377
0.523200	-3.841979
0.523300	-3.826723
0.523400	-3.805950
0.523500	-3.840356
0.523600	-3.874762
0.523700	-3.894886
0.523800	-3.748174
0.523900	-3.662158
0.524000	-3.686178
0.524100	-3.895211
0.524200	-4.017904
0.524300	-4.046792
0.524400	-3.841005
0.524500	-3.642683
0.524600	-3.614769
0.524700	-3.766675
0.524800	-3.961751
0.524900	-3.978305
0.525000	-3.874762
0.525100	-3.739410
0.525200	-3.665080
0.525300	-3.656640
0.525400	-3.680011
0.525500	-3.676440
0.525600	-3.644955
0.525700	-3.541413
0.525800	-3.476496
0.525900	-3.424562
0.526000	-3.316800
0.526100	-3.194107
0.526200	-3.101601
0.526300	-3.059080
0.526400	-3.018832
0.526500	-3.012664
0.526600	-2.929571
0.526700	-2.762410
0.526800	-2.759489
0.526900	-2.520595
0.527000	-2.546237
0.527100	-2.506638
0.527200	-2.458275
0.527300	-2.350189
0.527400	-2.241129
0.527500	-2.132394
0.527600	-2.107401
0.527700	-2.083382
0.527800	-2.101883
0.527900	-2.049300
0.528000	-2.058713
0.528100	-2.047028
0.528200	-1.946408
0.528300	-1.933100
0.528400	-1.904536
0.528500	-1.897071
0.528600	-1.930828
0.528700	-1.863314
0.528800	-1.907782
0.528900	-1.723744
0.529000	-1.550417
0.529100	-1.208956
0.529200	-1.345930
0.529300	-1.661749
0.529400	-1.730885
0.529500	-1.594560
0.529600	-1.346903
0.529700	-1.323209
0.529800	-1.149233
0.529900	-1.352421
0.530000	-1.428374
0.530100	-1.427725
0.530200	-1.314445
0.530300	-1.215772
0.530400	-1.111257
0.530500	-1.191429
0.530600	-1.322560
0.530700	-1.326455
0.530800	-1.312498
0.530900	-1.287505
0.531000	-1.284908
0.531100	-1.298865
0.531200	-1.282961
0.531300	-1.282312
0.531400	-1.271600
0.531500	-1.457911
0.531600	-1.330674
0.531700	-1.409872
0.531800	-1.331324
0.531900	-1.312498
0.532000	-1.248555
0.532100	-1.417338
0.532200	-1.639028
0.532300	-1.757500
0.532400	-1.641624
0.532500	-1.439409
0.532600	-1.457262
0.532700	-1.573787
0.532800	-1.795152
0.532900	-1.972699
0.533000	-1.934073
0.533100	-1.833777
0.533200	-1.745166
0.533300	-1.825987
0.533400	-1.934073
0.533500	-2.020412
0.533600	-1.998016
0.533700	-2.051897
0.533800	-2.008078
0.533900	-2.090198
0.534000	-2.104479
0.534100	-2.177511
0.534200	-2.146675
0.534300	-2.185625
0.534400	-2.209969
0.534500	-2.231067
0.534600	-2.207372
0.534700	-2.193091
0.534800	-2.207372
0.534900	-2.229119
0.535000	-2.333635
0.535100	-2.407965
0.535200	-2.416404
0.535300	-2.310265
0.535400	-2.299879
0.535500	-2.347917
0.535600	-2.389788
0.535700	-2.368690
0.535800	-2.386867
0.535900	-2.389139
0.536000	-2.394981
0.536100	-2.430036
0.536200	-2.425817
0.536300	-2.446915
0.536400	-2.465416
0.536500	-2.459898
0.536600	-2.474504
0.536700	-2.466065
0.536800	-2.476776
0.536900	-2.508261
0.537000	-2.497874
0.537100	-2.569932
0.537200	-2.582266
0.537300	-2.808501
0.537400	-3.019805
0.537500	-3.043500
0.537600	-2.851346
0.537700	-2.648481
0.537800	-2.672176
0.537900	-2.888998
0.538000	-3.112636
0.538100	-3.247664
0.538200	-3.168465
0.538300	-3.020454
0.538400	-3.017533
0.538500	-3.076283
0.538600	-3.265191
0.538700	-3.356399
0.538800	-3.372304
0.538900	-3.380419
0.539000	-3.346662
0.539100	-3.392753
0.539200	-3.431378
0.539300	-3.510253
0.539400	-3.530052
0.539500	-3.497269
0.539600	-3.498243
0.539700	-3.604382
0.539800	-3.633920
0.539900	-3.622234
0.540000	-3.574520
0.540100	-3.669624
0.540200	-3.704355
0.540300	-3.709872
0.540400	-3.600163
0.540500	-3.434300
0.540600	-3.425211
0.540700	-3.478768
0.540800	-3.689748
0.540900	-3.715390
0.541000	-3.576793
0.541100	-3.396323
0.541200	-3.302194
0.541300	-3.338547
0.541400	-3.443064
0.541500	-3.502463
0.541600	-3.524210
0.541700	-3.433975
0.541800	-3.296351
0.541900	-3.209363
0.542000	-3.209687
0.542100	-3.245391
0.542200	-3.272007
0.542300	-3.255454
0.542400	-3.190861
0.542500	-3.100302
0.542600	-3.050965
0.542700	-2.981504
0.542800	-2.868224
0.542900	-2.800711
0.543000	-2.775069
0.543100	-2.771498
0.543200	-2.735145
0.543300	-2.620242
0.543400	-2.504042
0.543500	-2.303449
0.543600	-2.286246
0.543700	-2.300852
0.543800	-2.299554
0.543900	-2.251191
0.544000	-2.138885
0.544100	-2.077864
0.544200	-2.035668
0.544300	-2.044756
0.544400	-2.115840
0.544500	-2.096365
0.544600	-2.131420
0.544700	-2.175888
0.544800	-2.170370
0.544900	-2.171344
0.545000	-2.108374
0.545100	-2.219057
0.545200	-2.120384
0.545300	-2.302800
0.545400	-2.280404
0.545500	-2.361549
0.545600	-2.176537
0.545700	-2.028527
0.545800	-1.918169
0.545900	-2.113243
0.546000	-2.433282
0.546100	-2.424843
0.546200	-2.408289
0.546300	-2.240155
0.546400	-2.166475
0.546500	-2.273263
0.546600	-2.466065
0.546700	-2.639717
0.546800	-2.567660
0.546900	-2.481645
0.547000	-2.288518
0.547100	-2.346943
0.547200	-2.361874
0.547300	-2.526762
0.547400	-2.530333
0.547500	-2.463793
0.547600	-2.399201
0.547700	-2.389788
0.547800	-2.390437
0.547900	-2.384270
0.548000	-2.335258
0.548100	-2.342399
0.548200	-2.455029
0.548300	-2.484891
0.548400	-2.497550
0.548500	-2.381024
0.548600	-2.343048
0.548700	-2.274561
0.548800	-2.497550
0.548900	-2.659842
0.549000	-2.607584
0.549100	-2.529359
0.549200	-2.233664
0.549300	-2.324222
0.549400	-2.451459
0.549500	-2.643612
0.549600	-2.660815
0.549700	-2.578371
0.549800	-2.433607
0.549900	-2.369015
0.550000	-2.346943
0.550100	-2.452757
0.550200	-2.493330
0.550300	-2.482619
0.550400	-2.459574
0.550500	-2.400175
0.550600	-2.421922
0.550700	-2.471908
0.550800	-2.524166
0.550900	-2.466714
0.551000	-2.411860
0.551100	-2.428089
0.551200	-2.480022
0.551300	-2.463793
0.551400	-2.454705
0.551500	-2.426141
0.551600	-2.480022
0.551700	-2.592328
0.551800	-2.591030
0.551900	-2.555001
0.552000	-2.502094
0.552100	-2.397578
0.552200	-2.417053
0.552300	-2.358628
0.552400	-2.319678
0.552500	-2.240804
0.552600	-2.205749
0.552700	-2.162580
0.552800	-2.155114
0.552900	-2.088900
0.553000	-2.057415
0.553100	-2.013272
0.553200	-1.988603
0.553300	-1.971400
0.553400	-2.017167
0.553500	-1.994121
0.553600	-2.013596
0.553700	-2.027229
0.553800	-2.026904
0.553900	-2.087277
0.554000	-2.285921
0.554100	-2.423220
0.554200	-2.390437
0.554300	-2.172642
0.554400	-2.004183
0.554500	-1.992174
0.554600	-2.211592
0.554700	-2.431984
0.554800	-2.491383
0.554900	-2.354409
0.555000	-2.162255
0.555100	-2.148623
0.555200	-2.241454
0.555300	-2.410886
0.555400	-2.495602
0.555500	-2.508261
0.555600	-2.492357
0.555700	-2.414781
0.555800	-2.431984
0.555900	-2.452108
0.556000	-2.515402
0.556100	-2.535851
0.556200	-2.522867
0.556300	-2.574801
0.556400	-2.673799
0.556500	-2.673150
0.556600	-2.617646
0.556700	-2.652376
0.556800	-2.746506
0.556900	-2.853294
0.557000	-2.838038
0.557100	-2.724109
0.557200	-2.599145
0.557300	-2.637770
0.557400	-2.808501
0.557500	-3.043825
0.557600	-3.093486
0.557700	-2.997084
0.557800	-2.849399
0.557900	-2.745532
0.558000	-2.843556
0.558100	-3.050316
0.558200	-3.179825
0.558300	-3.257076
0.558400	-3.136006
0.558500	-3.031166
0.558600	-3.006497
0.558700	-3.070116
0.558800	-3.133734
0.558900	-3.159701
0.559000	-3.146393
0.559100	-3.117181
0.559200	-3.095433
0.559300	-3.077257
0.559400	-2.971118
0.559500	-2.873093
0.559600	-2.840310
0.559700	-2.857189
0.559800	-2.872444
0.559900	-2.856215
0.560000	-2.678992
0.560100	-2.622839
0.560200	-2.419974
0.560300	-2.447564
0.560400	-2.432958
0.560500	-2.431335
0.560600	-2.356681
0.560700	-2.240804
0.560800	-2.126551
0.560900	-2.050274
0.561000	-2.035343
0.561100	-2.006455
0.561200	-2.017491
0.561300	-1.975295
0.561400	-2.035992
0.561500	-1.909081
0.561600	-1.931152
0.561700	-1.882465
0.561800	-1.922388
0.561900	-1.946083
0.562000	-1.979515
0.562100	-1.939267
0.562200	-1.961663
0.562300	-1.714655
0.562400	-1.534837
0.562500	-1.407276
0.562600	-1.786064
0.562700	-1.943162
0.562800	-1.978866
0.562900	-1.673109
0.563000	-1.492966
0.563100	-1.403381
0.563200	-1.381634
0.563300	-1.524775
0.563400	-1.615658
0.563500	-1.492966
0.563600	-1.328078
0.563700	-1.289128
0.563800	-1.228756
0.563900	-1.332622
0.564000	-1.316393
0.564100	-1.346579
0.564200	-1.356316
0.564300	-1.394617
0.564400	-1.370273
0.564500	-1.378713
0.564600	-1.409872
0.564700	-1.494913
0.564800	-1.608517
0.564900	-1.751658
0.565000	-1.740298
0.565100	-1.834751
0.565200	-1.726340
0.565300	-1.808460
0.565400	-1.750684
0.565500	-2.085654
0.565600	-2.270017
0.565700	-2.211916
0.565800	-2.093444
0.565900	-1.937968
0.566000	-2.058064
0.566100	-2.226198
0.566200	-2.493330
0.566300	-2.528385
0.566400	-2.433607
0.566500	-2.278131
0.566600	-2.243076
0.566700	-2.348891
0.566800	-2.458275
0.566900	-2.466065
0.567000	-2.527087
0.567100	-2.474504
0.567200	-2.504366
0.567300	-2.566362
0.567400	-2.597197
0.567500	-2.580643
0.567600	-2.570581
0.567700	-2.616023
0.567800	-2.643937
0.567900	-2.610180
0.568000	-2.563440
0.568100	-2.523192
0.568200	-2.484242
0.568300	-2.563440
0.568400	-2.620892
0.568500	-2.594276
0.568600	-2.560519
0.568700	-2.453082
0.568800	-2.430686
0.568900	-2.421273
0.569000	-2.364795
0.569100	-2.364146
0.569200	-2.329416
0.569300	-2.331363
0.569400	-2.324222
0.569500	-2.328766
0.569600	-2.335258
0.569700	-2.332661
0.569800	-2.344022
0.569900	-2.378752
0.570000	-2.341750
0.570100	-2.379401
0.570200	-2.390437
0.570300	-2.415106
0.570400	-2.419974
0.570500	-2.493006
0.570600	-2.585187
0.570700	-2.872444
0.570800	-3.073037
0.570900	-2.971118
0.571000	-2.819212
0.571100	-2.682563
0.571200	-2.807852
0.571300	-3.123997
0.571400	-3.343416
0.571500	-3.360294
0.571600	-3.193458
0.571700	-3.071739
0.571800	-3.115882
0.571900	-3.267139
0.572000	-3.364514
0.572100	-3.460267
0.572200	-3.406061
0.572300	-3.349259
0.572400	-3.358347
0.572500	-3.392104
0.572600	-3.386910
0.572700	-3.368409
0.572800	-3.354127
0.572900	-3.313230
0.573000	-3.342118
0.573100	-3.381717
0.573200	-3.402490
0.573300	-3.355426
0.573400	-3.301220
0.573500	-3.303492
0.573600	-3.309010
0.573700	-3.267788
0.573800	-3.128216
0.573900	-2.979881
0.574000	-2.997084
0.574100	-3.131138
0.574200	-3.300571
0.574300	-3.263568
0.574400	-3.087643
0.574500	-2.838687
0.574600	-2.787403
0.574700	-2.934764
0.574800	-3.116531
0.574900	-3.173009
0.575000	-3.092512
0.575100	-2.984426
0.575200	-2.909771
0.575300	-2.940931
0.575400	-2.961705
0.575500	-2.987996
0.575600	-2.991242
0.575700	-2.968846
0.575800	-2.937361
0.575900	-2.923404
0.576000	-2.903280
0.576100	-2.798439
0.576200	-2.727680
0.576300	-2.712749
0.576400	-2.698792
0.576500	-2.716644
0.576600	-2.652701
0.576700	-2.489435
0.576800	-2.390437
0.576900	-2.206399
0.577000	-2.234637
0.577100	-2.210618
0.577200	-2.202828
0.577300	-2.109997
0.577400	-2.051572
0.577500	-1.947057
0.577600	-1.943486
0.577700	-1.959715
0.577800	-2.011649
0.577900	-2.030799
0.578000	-2.054818
0.578100	-2.109673
0.578200	-2.077215
0.578300	-2.098312
0.578400	-2.141157
0.578500	-2.141482
0.578600	-2.226198
0.578700	-2.160957
0.578800	-2.318380
0.578900	-2.100260
0.579000	-2.124604
0.579100	-1.709462
0.579200	-1.957443
0.579300	-2.226523
0.579400	-2.441072
0.579500	-2.384919
0.579600	-2.112594
0.579700	-1.999964
0.579800	-1.924011
0.579900	-2.099611
0.580000	-2.160632
0.580100	-2.202828
0.580200	-2.101558
0.580300	-1.897396
0.580400	-1.819820
0.580500	-1.795801
0.580600	-1.839295
0.580700	-1.783792
0.580800	-1.788985
0.580900	-1.747438
0.581000	-1.730885
0.581100	-1.715305
0.581200	-1.699725
0.581300	-1.766264
0.581400	-1.704593
0.581500	-1.819820
0.581600	-1.755877
0.581700	-1.809758
0.581800	-1.805539
0.581900	-1.716278
0.582000	-1.730560
0.582100	-1.753930
0.582200	-2.044107
0.582300	-2.107725
0.582400	-1.985682
0.582500	-1.751658
0.582600	-1.643247
0.582700	-1.743219
0.582800	-1.947057
0.582900	-2.126876
0.583000	-2.071697
0.583100	-1.932775
0.583200	-1.788336
0.583300	-1.885386
0.583400	-2.011973
0.583500	-2.138561
0.583600	-2.087926
0.583700	-2.118437
0.583800	-2.057415
0.583900	-2.148298
0.584000	-2.209644
0.584100	-2.277482
0.584200	-2.245673
0.584300	-2.221329
0.584400	-2.253788
0.584500	-2.310590
0.584600	-2.287869
0.584700	-2.284623
0.584800	-2.273912
0.584900	-2.283974
0.585000	-2.380700
0.585100	-2.442046
0.585200	-2.462170
0.585300	-2.443020
0.585400	-2.304423
0.585500	-2.371611
0.585600	-2.394008
0.585700	-2.371936
0.585800	-2.378428
0.585900	-2.381674
0.586000	-2.399850
0.586100	-2.386542
0.586200	-2.382972
0.586300	-2.384595
0.586400	-2.388814
0.586500	-2.373559
0.586600	-2.360251
0.586700	-2.314485
0.586800	-2.349540
0.586900	-2.317731
0.587000	-2.351163
0.587100	-2.355707
0.587200	-2.370638
0.587300	-2.483593
0.587400	-2.770525
0.587500	-2.816291
0.587600	-2.677369
0.587700	-2.485216
0.587800	-2.483593
0.587900	-2.623488
0.588000	-2.953266
0.588100	-3.026946
0.588200	-2.962029
0.588300	-2.811098
0.588400	-2.733847
0.588500	-2.821484
0.588600	-2.969495
0.588700	-3.070765
0.588800	-3.115233
0.588900	-3.084398
0.589000	-3.052913
0.589100	-3.046097
0.589200	-3.097056
0.589300	-3.153859
0.589400	-3.161324
0.589500	-3.185343
0.589600	-3.158078
0.589700	-3.181773
0.589800	-3.221048
0.589900	-3.263893
0.590000	-3.259349
0.590100	-3.254155
0.590200	-3.286938
0.590300	-3.353803
0.590400	-3.289535
0.590500	-3.209038
0.590600	-3.091538
0.590700	-3.192809
0.590800	-3.411254
0.590900	-3.519990
0.591000	-3.532324
0.591100	-3.308685
0.591200	-3.169114
0.591300	-3.246041
0.591400	-3.446309
0.591500	-3.629700
0.591600	-3.625480
0.591700	-3.512849
0.591800	-3.420992
0.591900	-3.392753
0.592000	-3.442414
0.592100	-3.472276
0.592200	-3.452801
0.592300	-3.408982
0.592400	-3.342767
0.592500	-3.275578
0.592600	-3.217477
0.592700	-3.138928
0.592800	-2.996760
0.592900	-2.865628
0.593000	-2.838363
0.593100	-2.769226
0.593200	-2.745856
0.593300	-2.578371
0.593400	-2.432958
0.593500	-2.211916
0.593600	-2.117138
0.593700	-2.109997
0.593800	-2.069100
0.593900	-1.968155
0.594000	-1.837023
0.594100	-1.739648
0.594200	-1.640651
0.594300	-1.595858
0.594400	-1.575085
0.594500	-1.567295
0.594600	-1.534188
0.594700	-1.576383
0.594800	-1.585796
0.594900	-1.515686
0.595000	-1.543925
0.595100	-1.510818
0.595200	-1.560803
0.595300	-1.581901
0.595400	-1.590989
0.595500	-1.672460
0.595600	-1.472192
0.595700	-1.316068
0.595800	-1.055429
0.595900	-1.231352
0.596000	-1.500431
0.596100	-1.609491
0.596200	-1.367352
0.596300	-1.223238
0.596400	-1.114178
0.596500	-1.115152
0.596600	-1.225185
0.596700	-1.437462
0.596800	-1.391696
0.596900	-1.313796
0.597000	-1.156698
0.597100	-1.195973
0.597200	-1.192078
0.597300	-1.282312
0.597400	-1.309577
0.597500	-1.309901
0.597600	-1.318016
0.597700	-1.358588
0.597800	-1.377739
