LabVIEW Measurement	
Writer_Version	2
Reader_Version	2
Separator	Tab
Decimal_Separator	.
Multi_Headings	Yes
X_Columns	One
Time_Pref	Relative
Operator	as989
Description	Time Domain Data
Date	1903/12/31
Time	19:00:00
***End_of_Header***	
	
Channels	1	
Samples	15000	
Date	1903/12/31	
Time	19:00:00	
X_Dimension	Time	
X0	0.0000000000000000E+0	
Delta_X	0.000100	
***End_of_Header***		
X_Value	Untitled	Comment
0.000000	-0.915858	Tare Values:0.000000, 0.000000, 0.000000, 0.000000\0D\0A
0.000100	-0.995056
0.000200	-0.604909
0.000300	-0.516298
0.000400	-0.325119
0.000500	-0.812641
0.000600	-0.871066
0.000700	-0.861004
0.000800	-0.626007
0.000900	-0.445539
0.001000	-0.421520
0.001100	-0.611400
0.001200	-0.728250
0.001300	-0.796412
0.001400	-0.624384
0.001500	-0.571477
0.001600	-0.428012
0.001700	-0.562389
0.001800	-0.533825
0.001900	-0.539019
0.002000	-0.553949
0.002100	-0.553949
0.002200	-0.585434
0.002300	-0.608804
0.002400	-0.615295
0.002500	-0.620164
0.002600	-0.723381
0.002700	-0.834713
0.002800	-0.822703
0.002900	-0.874636
0.003000	-0.868145
0.003100	-0.792193
0.003200	-0.798360
0.003300	-0.827897
0.003400	-1.077176
0.003500	-1.120670
0.003600	-1.034980
0.003700	-0.833415
0.003800	-0.715267
0.003900	-0.799658
0.004000	-1.050235
0.004100	-1.169682
0.004200	-1.086913
0.004300	-0.928192
0.004400	-0.824975
0.004500	-0.880803
0.004600	-1.020698
0.004700	-1.113204
0.004800	-1.045042
0.004900	-1.051209
0.005000	-1.001548
0.005100	-1.106713
0.005200	-1.158970
0.005300	-1.202464
0.005400	-1.184612
0.005500	-1.176173
0.005600	-1.212851
0.005700	-1.258617
0.005800	-1.253424
0.005900	-1.201815
0.006000	-1.208631
0.006100	-1.207658
0.006200	-1.355667
0.006300	-1.406302
0.006400	-1.390073
0.006500	-1.251476
0.006600	-1.240765
0.006700	-1.318665
0.006800	-1.322560
0.006900	-1.298541
0.007000	-1.286531
0.007100	-1.302436
0.007200	-1.309901
0.007300	-1.290751
0.007400	-1.295619
0.007500	-1.301137
0.007600	-1.296918
0.007700	-1.322560
0.007800	-1.301462
0.007900	-1.343009
0.008000	-1.361834
0.008100	-1.396889
0.008200	-1.433567
0.008300	-1.450445
0.008400	-1.495238
0.008500	-1.636756
0.008600	-1.916546
0.008700	-1.940565
0.008800	-1.834751
0.008900	-1.543276
0.009000	-1.560479
0.009100	-1.670188
0.009200	-2.052871
0.009300	-2.169072
0.009400	-2.069100
0.009500	-1.863964
0.009600	-1.741271
0.009700	-1.881491
0.009800	-2.048002
0.009900	-2.145052
0.010000	-2.147649
0.010100	-2.063582
0.010200	-1.973997
0.010300	-1.967505
0.010400	-2.037291
0.010500	-2.067802
0.010600	-2.055143
0.010700	-2.007429
0.010800	-2.035343
0.010900	-2.062933
0.011000	-2.119735
0.011100	-2.140833
0.011200	-2.077864
0.011300	-2.084680
0.011400	-2.097014
0.011500	-2.156737
0.011600	-2.131420
0.011700	-2.006780
0.011800	-1.949329
0.011900	-1.991525
0.012000	-2.173616
0.012100	-2.303449
0.012200	-2.264499
0.012300	-2.056117
0.012400	-1.870780
0.012500	-1.945758
0.012600	-2.141807
0.012700	-2.289167
0.012800	-2.306695
0.012900	-2.183678
0.013000	-2.049950
0.013100	-2.011649
0.013200	-2.020737
0.013300	-2.076565
0.013400	-2.072995
0.013500	-2.030150
0.013600	-1.986656
0.013700	-1.927906
0.013800	-1.892527
0.013900	-1.779247
0.014000	-1.691935
0.014100	-1.646169
0.014200	-1.643572
0.014300	-1.639352
0.014400	-1.632861
0.014500	-1.551715
0.014600	-1.431619
0.014700	-1.423180
0.014800	-1.215772
0.014900	-1.260565
0.015000	-1.252450
0.015100	-1.225185
0.015200	-1.132679
0.015300	-1.068087
0.015400	-0.988565
0.015500	-0.964221
0.015600	-1.009987
0.015700	-0.995381
0.015800	-1.001873
0.015900	-1.003496
0.016000	-0.990512
0.016100	-0.974932
0.016200	-0.898331
0.016300	-0.993433
0.016400	-0.887295
0.016500	-1.044393
0.016600	-0.956756
0.016700	-1.038875
0.016800	-0.858732
0.016900	-0.613673
0.017000	-0.461119
0.017100	-0.486436
0.017200	-0.947667
0.017300	-0.931763
0.017400	-0.862302
0.017500	-0.602312
0.017600	-0.431258
0.017700	-0.433854
0.017800	-0.582837
0.017900	-0.749672
0.018000	-0.696766
0.018100	-0.572451
0.018200	-0.427363
0.018300	-0.422169
0.018400	-0.408212
0.018500	-0.419897
0.018600	-0.479945
0.018700	-0.455277
0.018800	-0.401071
0.018900	-0.381597
0.019000	-0.380623
0.019100	-0.425415
0.019200	-0.442293
0.019300	-0.527009
0.019400	-0.514026
0.019500	-0.542589
0.019600	-0.490007
0.019700	-0.520842
0.019800	-0.476050
0.019900	-0.517921
0.020000	-0.508508
0.020100	-0.816536
0.020200	-0.799983
0.020300	-0.752269
0.020400	-0.508508
0.020500	-0.488709
0.020600	-0.579267
0.020700	-0.840555
0.020800	-0.907744
0.020900	-0.816536
0.021000	-0.661711
0.021100	-0.552976
0.021200	-0.647429
0.021300	-0.770446
0.021400	-0.843477
0.021500	-0.814589
0.021600	-0.824326
0.021700	-0.780508
0.021800	-0.865224
0.021900	-0.910990
0.022000	-0.995056
0.022100	-0.965844
0.022200	-0.996679
0.022300	-1.025243
0.022400	-1.063868
0.022500	-1.041796
0.022600	-1.034331
0.022700	-1.036603
0.022800	-1.091782
0.022900	-1.229405
0.023000	-1.241739
0.023100	-1.242388
0.023200	-1.129109
0.023300	-1.129433
0.023400	-1.181367
0.023500	-1.168059
0.023600	-1.154426
0.023700	-1.175524
0.023800	-1.194025
0.023900	-1.186235
0.024000	-1.207333
0.024100	-1.229405
0.024200	-1.259266
0.024300	-1.261538
0.024400	-1.228756
0.024500	-1.236870
0.024600	-1.209930
0.024700	-1.223238
0.024800	-1.248230
0.024900	-1.334894
0.025000	-1.316393
0.025100	-1.433892
0.025200	-1.585472
0.025300	-1.842216
0.025400	-1.881491
0.025500	-1.720173
0.025600	-1.524775
0.025700	-1.575734
0.025800	-1.799372
0.025900	-2.040212
0.026000	-2.133043
0.026100	-1.958093
0.026200	-1.808135
0.026300	-1.760746
0.026400	-1.895123
0.026500	-2.100584
0.026600	-2.230418
0.026700	-2.181730
0.026800	-2.142780
0.026900	-2.103181
0.027000	-2.161606
0.027100	-2.244375
0.027200	-2.280404
0.027300	-2.330065
0.027400	-2.316757
0.027500	-2.361874
0.027600	-2.412509
0.027700	-2.435554
0.027800	-2.423220
0.027900	-2.433607
0.028000	-2.450161
0.028100	-2.484891
0.028200	-2.507612
0.028300	-2.414456
0.028400	-2.296308
0.028500	-2.268394
0.028600	-2.352136
0.028700	-2.547211
0.028800	-2.670228
0.028900	-2.535526
0.029000	-2.291764
0.029100	-2.196337
0.029200	-2.273587
0.029300	-2.447564
0.029400	-2.592653
0.029500	-2.592653
0.029600	-2.470934
0.029700	-2.386542
0.029800	-2.356031
0.029900	-2.375506
0.030000	-2.410561
0.030100	-2.415106
0.030200	-2.406666
0.030300	-2.372910
0.030400	-2.322275
0.030500	-2.276833
0.030600	-2.142456
0.030700	-2.027878
0.030800	-1.988928
0.030900	-1.993797
0.031000	-1.975295
0.031100	-1.945434
0.031200	-1.773080
0.031300	-1.689013
0.031400	-1.549443
0.031500	-1.433892
0.031600	-1.452068
0.031700	-1.439409
0.031800	-1.357615
0.031900	-1.252775
0.032000	-1.146636
0.032100	-1.075877
0.032200	-1.063868
0.032300	-1.060947
0.032400	-1.058025
0.032500	-1.009338
0.032600	-1.071982
0.032700	-0.977529
0.032800	-1.000574
0.032900	-0.888918
0.033000	-0.948966
0.033100	-0.888269
0.033200	-0.935658
0.033300	-0.935658
0.033400	-0.862951
0.033500	-0.775964
0.033600	-0.364394
0.033700	-0.439697
0.033800	-0.441969
0.033900	-0.957405
0.034000	-0.889567
0.034100	-0.609128
0.034200	-0.422494
0.034300	-0.260528
0.034400	-0.360174
0.034500	-0.502341
0.034600	-0.673396
0.034700	-0.507859
0.034800	-0.343296
0.034900	-0.287468
0.035000	-0.248518
0.035100	-0.407238
0.035200	-0.361797
0.035300	-0.418274
0.035400	-0.400747
0.035500	-0.387114
0.035600	-0.379974
0.035700	-0.403668
0.035800	-0.402694
0.035900	-0.366666
0.036000	-0.540317
0.036100	-0.562064
0.036200	-0.601663
0.036300	-0.701634
0.036400	-0.602637
0.036500	-0.527658
0.036600	-0.550054
0.036700	-0.672422
0.036800	-0.943772
0.036900	-0.890216
0.037000	-0.764928
0.037100	-0.549081
0.037200	-0.570828
0.037300	-0.758436
0.037400	-0.984670
0.037500	-1.011935
0.037600	-0.881777
0.037700	-0.703257
0.037800	-0.654894
0.037900	-0.781806
0.038000	-0.868794
0.038100	-0.848994
0.038200	-0.816536
0.038300	-0.799009
0.038400	-0.831467
0.038500	-0.866846
0.038600	-0.879830
0.038700	-0.913911
0.038800	-0.870092
0.038900	-0.881128
0.039000	-0.914235
0.039100	-0.929815
0.039200	-0.909367
0.039300	-0.886321
0.039400	-0.873987
0.039500	-0.993433
0.039600	-1.151505
0.039700	-1.194999
0.039800	-1.173252
0.039900	-1.098923
0.040000	-1.166111
0.040100	-1.248555
0.040200	-1.248555
0.040300	-1.275171
0.040400	-1.262188
0.040500	-1.289777
0.040600	-1.278741
0.040700	-1.317367
0.040800	-1.338789
0.040900	-1.326130
0.041000	-1.353071
0.041100	-1.353071
0.041200	-1.387152
0.041300	-1.400784
0.041400	-1.406627
0.041500	-1.429672
0.041600	-1.440383
0.041700	-1.504975
0.041800	-1.543276
0.041900	-1.776651
0.042000	-1.970427
0.042100	-1.901940
0.042200	-1.651362
0.042300	-1.439085
0.042400	-1.613710
0.042500	-1.822417
0.042600	-2.088250
0.042700	-2.078188
0.042800	-1.867209
0.042900	-1.711410
0.043000	-1.678951
0.043100	-1.875649
0.043200	-2.037615
0.043300	-2.103181
0.043400	-2.032097
0.043500	-1.956470
0.043600	-1.958417
0.043700	-2.021062
0.043800	-2.070398
0.043900	-2.068451
0.044000	-2.049625
0.044100	-2.043782
0.044200	-2.116814
0.044300	-2.153816
0.044400	-2.182055
0.044500	-2.118761
0.044600	-2.095391
0.044700	-2.145052
0.044800	-2.178484
0.044900	-2.225224
0.045000	-2.088250
0.045100	-1.898045
0.045200	-1.944460
0.045300	-2.067802
0.045400	-2.270017
0.045500	-2.356031
0.045600	-2.168422
0.045700	-1.959715
0.045800	-1.914274
0.045900	-2.051897
0.046000	-2.244050
0.046100	-2.367392
0.046200	-2.321301
0.046300	-2.185301
0.046400	-2.109673
0.046500	-2.101558
0.046600	-2.159659
0.046700	-2.184327
0.046800	-2.167449
0.046900	-2.131420
0.047000	-2.092145
0.047100	-2.045730
0.047200	-1.991849
0.047300	-1.846761
0.047400	-1.757500
0.047500	-1.722445
0.047600	-1.723419
0.047700	-1.717901
0.047800	-1.695181
0.047900	-1.516011
0.048000	-1.464078
0.048100	-1.195973
0.048200	-1.271276
0.048300	-1.232651
0.048400	-1.230054
0.048500	-1.117099
0.048600	-1.039524
0.048700	-0.961949
0.048800	-0.921052
0.048900	-0.937930
0.049000	-0.940527
0.049100	-0.938904
0.049200	-0.959352
0.049300	-0.947018
0.049400	-0.904823
0.049500	-0.870092
0.049600	-0.833739
0.049700	-0.817185
0.049800	-0.873987
0.049900	-0.905147
0.050000	-0.872364
0.050100	-0.863925
0.050200	-0.542589
0.050300	-0.388737
0.050400	-0.308566
0.050500	-0.725978
0.050600	-0.885672
0.050700	-0.899954
0.050800	-0.627630
0.050900	-0.413730
0.051000	-0.300127
0.051100	-0.509157
0.051200	-0.651649
0.051300	-0.787648
0.051400	-0.562064
0.051500	-0.496498
0.051600	-0.286819
0.051700	-0.383869
0.051800	-0.415678
0.051900	-0.469883
0.052000	-0.449759
0.052100	-0.406914
0.052200	-0.412432
0.052300	-0.405940
0.052400	-0.432556
0.052500	-0.432231
0.052600	-0.506236
0.052700	-0.611400
0.052800	-0.578293
0.052900	-0.748049
0.053000	-0.687677
0.053100	-0.712345
0.053200	-0.641262
0.053300	-0.762331
0.053400	-0.887944
0.053500	-1.136250
0.053600	-1.052183
0.053700	-0.923324
0.053800	-0.710073
0.053900	-0.786350
0.054000	-1.016154
0.054100	-1.239142
0.054200	-1.241414
0.054300	-1.071982
0.054400	-0.924622
0.054500	-0.930465
0.054600	-1.066140
0.054700	-1.161567
0.054800	-1.128784
0.054900	-1.153777
0.055000	-1.078799
0.055100	-1.137548
0.055200	-1.224211
0.055300	-1.289452
0.055400	-1.355667
0.055500	-1.300813
0.055600	-1.335219
0.055700	-1.397538
0.055800	-1.395591
0.055900	-1.366703
0.056000	-1.310550
0.056100	-1.293672
0.056200	-1.439734
0.056300	-1.519906
0.056400	-1.502378
0.056500	-1.470569
0.056600	-1.343009
0.056700	-1.412794
0.056800	-1.414417
0.056900	-1.397214
0.057000	-1.376116
0.057100	-1.333596
0.057200	-1.335219
0.057300	-1.304059
0.057400	-1.290102
0.057500	-1.289777
0.057600	-1.257319
0.057700	-1.277767
0.057800	-1.276469
0.057900	-1.286207
0.058000	-1.266407
0.058100	-1.245634
0.058200	-1.307304
0.058300	-1.280689
0.058400	-1.368326
0.058500	-1.431619
0.058600	-1.711410
0.058700	-1.847410
0.058800	-1.627018
0.058900	-1.457262
0.059000	-1.301462
0.059100	-1.456288
0.059200	-1.699725
0.059300	-1.899343
0.059400	-1.853577
0.059500	-1.671486
0.059600	-1.556584
0.059700	-1.622799
0.059800	-1.858121
0.059900	-2.003534
0.060000	-2.068126
0.060100	-2.052546
0.060200	-2.071372
0.060300	-2.118761
0.060400	-2.171993
0.060500	-2.228795
0.060600	-2.248270
0.060700	-2.268719
0.060800	-2.281053
0.060900	-2.357654
0.061000	-2.378752
0.061100	-2.395955
0.061200	-2.400175
0.061300	-2.373234
0.061400	-2.396929
0.061500	-2.369989
0.061600	-2.363821
0.061700	-2.196012
0.061800	-2.059687
0.061900	-2.091821
0.062000	-2.215162
0.062100	-2.369015
0.062200	-2.358304
0.062300	-2.134990
0.062400	-1.876622
0.062500	-1.813978
0.062600	-1.954522
0.062700	-2.145377
0.062800	-2.187248
0.062900	-2.069425
0.063000	-1.887983
0.063100	-1.810083
0.063200	-1.860069
0.063300	-1.931152
0.063400	-1.980489
0.063500	-1.953548
0.063600	-1.934073
0.063700	-1.881816
0.063800	-1.877921
0.063900	-1.809434
0.064000	-1.716928
0.064100	-1.650388
0.064200	-1.646169
0.064300	-1.635133
0.064400	-1.626694
0.064500	-1.539705
0.064600	-1.377414
0.064700	-1.358588
0.064800	-1.109634
0.064900	-1.187209
0.065000	-1.144040
0.065100	-1.081720
0.065200	-1.013558
0.065300	-0.920078
0.065400	-0.809071
0.065500	-0.772393
0.065600	-0.762656
0.065700	-0.777262
0.065800	-0.800956
0.065900	-0.775639
0.066000	-0.802255
0.066100	-0.757138
0.066200	-0.767849
0.066300	-0.755515
0.066400	-0.736689
0.066500	-0.821405
0.066600	-0.701310
0.066700	-0.846722
0.066800	-0.640613
0.066900	-0.518245
0.067000	-0.136213
0.067100	-0.320251
0.067200	-0.593548
0.067300	-0.696766
0.067400	-0.613348
0.067500	-0.302723
0.067600	-0.127774
0.067700	-0.141731
0.067800	-0.233587
0.067900	-0.462417
0.068000	-0.372508
0.068100	-0.287143
0.068200	-0.089798
0.068300	-0.089798
0.068400	-0.085903
0.068500	-0.122256
0.068600	-0.139134
0.068700	-0.116413
0.068800	-0.163802
0.068900	-0.137186
0.069000	-0.183602
0.069100	-0.224499
0.069200	-0.232289
0.069300	-0.336804
0.069400	-0.417625
0.069500	-0.498446
0.069600	-0.550054
0.069700	-0.647429
0.069800	-0.494551
0.069900	-0.597119
0.070000	-0.574074
0.070100	-0.926245
0.070200	-0.986942
0.070300	-0.912288
0.070400	-0.711696
0.070500	-0.585434
0.070600	-0.647754
0.070700	-0.908718
0.070800	-1.007066
0.070900	-0.961624
0.071000	-0.735066
0.071100	-0.588031
0.071200	-0.657491
0.071300	-0.790245
0.071400	-0.851591
0.071500	-0.805176
0.071600	-0.788622
0.071700	-0.746427
0.071800	-0.797710
0.071900	-0.840880
0.072000	-0.871066
0.072100	-0.848670
0.072200	-0.858083
0.072300	-0.894761
0.072400	-0.926894
0.072500	-0.925271
0.072600	-0.879505
0.072700	-0.905147
0.072800	-0.924297
0.072900	-1.050560
0.073000	-1.084966
0.073100	-1.059648
0.073200	-1.045691
0.073300	-0.960002
0.073400	-1.029462
0.073500	-1.006741
0.073600	-0.991811
0.073700	-1.016154
0.073800	-1.012908
0.073900	-1.015505
0.074000	-1.040498
0.074100	-1.055429
0.074200	-1.094379
0.074300	-1.080746
0.074400	-1.113204
0.074500	-1.138197
0.074600	-1.141118
0.074700	-1.190455
0.074800	-1.190779
0.074900	-1.228756
0.075000	-1.289777
0.075100	-1.312822
0.075200	-1.555610
0.075300	-1.813004
0.075400	-1.911028
0.075500	-1.668240
0.075600	-1.481605
0.075700	-1.424154
0.075800	-1.619228
0.075900	-1.995095
0.076000	-2.017167
0.076100	-1.933424
0.076200	-1.732508
0.076300	-1.687715
0.076400	-1.766264
0.076500	-1.949004
0.076600	-2.102532
0.076700	-2.093444
0.076800	-2.029176
0.076900	-2.029825
0.077000	-2.086627
0.077100	-2.153167
0.077200	-2.200232
0.077300	-2.208995
0.077400	-2.221654
0.077500	-2.252489
0.077600	-2.322924
0.077700	-2.395306
0.077800	-2.403096
0.077900	-2.410561
0.078000	-2.404394
0.078100	-2.463469
0.078200	-2.509235
0.078300	-2.423869
0.078400	-2.327793
0.078500	-2.207697
0.078600	-2.340776
0.078700	-2.524815
0.078800	-2.687107
0.078900	-2.578371
0.079000	-2.358304
0.079100	-2.230742
0.079200	-2.299879
0.079300	-2.480996
0.079400	-2.698143
0.079500	-2.688405
0.079600	-2.551431
0.079700	-2.444643
0.079800	-2.392060
0.079900	-2.433607
0.080000	-2.445616
0.080100	-2.419325
0.080200	-2.391736
0.080300	-2.343048
0.080400	-2.272289
0.080500	-2.215811
0.080600	-2.120384
0.080700	-1.979190
0.080800	-1.895448
0.080900	-1.883763
0.081000	-1.831505
0.081100	-1.834751
0.081200	-1.690961
0.081300	-1.563725
0.081400	-1.368651
0.081500	-1.317367
0.081600	-1.315744
0.081700	-1.299839
0.081800	-1.206359
0.081900	-1.093080
0.082000	-0.969739
0.082100	-0.861653
0.082200	-0.828870
0.082300	-0.799009
0.082400	-0.788622
0.082500	-0.765901
0.082600	-0.690923
0.082700	-0.689300
0.082800	-0.586732
0.082900	-0.574074
0.083000	-0.574723
0.083100	-0.475076
0.083200	-0.639964
0.083300	-0.512403
0.083400	-0.707152
0.083500	-0.432880
0.083600	-0.281625
0.083700	-0.099535
0.083800	-0.273511
0.083900	-0.652622
0.084000	-0.734742
0.084100	-0.639639
0.084200	-0.470532
0.084300	-0.395229
0.084400	-0.491954
0.084500	-0.649052
0.084600	-0.854512
0.084700	-0.736689
0.084800	-0.672422
0.084900	-0.523763
0.085000	-0.544537
0.085100	-0.570503
0.085200	-0.613673
0.085300	-0.622761
0.085400	-0.578942
0.085500	-0.575696
0.085600	-0.563362
0.085700	-0.556546
0.085800	-0.535448
0.085900	-0.499420
0.086000	-0.608155
0.086100	-0.559467
0.086200	-0.668202
0.086300	-0.645806
0.086400	-0.592899
0.086500	-0.468909
0.086600	-0.455277
0.086700	-0.539019
0.086800	-0.785052
0.086900	-0.783429
0.087000	-0.710723
0.087100	-0.450732
0.087200	-0.446513
0.087300	-0.570503
0.087400	-0.832765
0.087500	-0.902226
0.087600	-0.799983
0.087700	-0.608804
0.087800	-0.527658
0.087900	-0.649701
0.088000	-0.755515
0.088100	-0.799658
0.088200	-0.790894
0.088300	-0.786675
0.088400	-0.780832
0.088500	-0.840231
0.088600	-0.922350
0.088700	-0.949290
0.088800	-0.946044
0.088900	-0.965844
0.089000	-1.053157
0.089100	-1.086264
0.089200	-1.097300
0.089300	-1.087562
0.089400	-1.125863
0.089500	-1.205386
0.089600	-1.357290
0.089700	-1.365080
0.089800	-1.369300
0.089900	-1.357615
0.090000	-1.264784
0.090100	-1.305357
0.090200	-1.300164
0.090300	-1.301787
0.090400	-1.291075
0.090500	-1.263810
0.090600	-1.252450
0.090700	-1.246283
0.090800	-1.219992
0.090900	-1.226159
0.091000	-1.185586
0.091100	-1.195648
0.091200	-1.179419
0.091300	-1.211877
0.091400	-1.203438
0.091500	-1.222264
0.091600	-1.270627
0.091700	-1.285233
0.091800	-1.352421
0.091900	-1.583524
0.092000	-1.884088
0.092100	-1.862016
0.092200	-1.674407
0.092300	-1.549118
0.092400	-1.582875
0.092500	-1.864937
0.092600	-2.093444
0.092700	-2.165177
0.092800	-2.003859
0.092900	-1.870780
0.093000	-1.887983
0.093100	-2.009052
0.093200	-2.211267
0.093300	-2.251516
0.093400	-2.259630
0.093500	-2.164852
0.093600	-2.175563
0.093700	-2.203477
0.093800	-2.240155
0.093900	-2.238857
0.094000	-2.233988
0.094100	-2.196661
0.094200	-2.243401
0.094300	-2.305072
0.094400	-2.309616
0.094500	-2.278781
0.094600	-2.241129
0.094700	-2.241778
0.094800	-2.311888
0.094900	-2.311888
0.095000	-2.229119
0.095100	-2.029501
0.095200	-2.029825
0.095300	-2.200881
0.095400	-2.399201
0.095500	-2.535526
0.095600	-2.370638
0.095700	-2.157711
0.095800	-2.081759
0.095900	-2.200556
0.096000	-2.394008
0.096100	-2.513130
0.096200	-2.476452
0.096300	-2.338504
0.096400	-2.230418
0.096500	-2.234637
0.096600	-2.260279
0.096700	-2.300203
0.096800	-2.238208
0.096900	-2.221654
0.097000	-2.186274
0.097100	-2.140833
0.097200	-2.094742
0.097300	-1.995420
0.097400	-1.894799
0.097500	-1.831830
0.097600	-1.851954
0.097700	-1.855200
0.097800	-1.858446
0.097900	-1.707190
0.098000	-1.648441
0.098100	-1.465051
0.098200	-1.531915
0.098300	-1.558856
0.098400	-1.561452
0.098500	-1.513414
0.098600	-1.429997
0.098700	-1.342684
0.098800	-1.299514
0.098900	-1.338464
0.099000	-1.334894
0.099100	-1.339438
0.099200	-1.336192
0.099300	-1.347228
0.099400	-1.279066
0.099500	-1.267705
0.099600	-1.190779
0.099700	-1.219667
0.099800	-1.210904
0.099900	-1.220316
0.100000	-1.260240
0.100100	-1.125863
0.100200	-0.945071
0.100300	-0.611725
0.100400	-0.604260
0.100500	-0.660737
0.100600	-1.087562
0.100700	-0.918130
0.100800	-0.722083
0.100900	-0.417301
0.101000	-0.343945
0.101100	-0.403993
0.101200	-0.584785
0.101300	-0.577969
0.101400	-0.392957
0.101500	-0.195611
0.101600	-0.008977
0.101700	-0.057664
0.101800	-0.042084
0.101900	-0.142380
0.102000	-0.099210
0.102100	-0.039487
0.102200	-0.020986
0.102300	0.016665
0.102400	-0.025530
0.102500	-0.021635
0.102600	-0.074867
0.102700	-0.040137
0.102800	-0.216060
0.102900	-0.214437
0.103000	-0.340050
0.103100	-0.232289
0.103200	-0.203726
0.103300	-0.255010
0.103400	-0.381921
0.103500	-0.644183
0.103600	-0.582188
0.103700	-0.501367
0.103800	-0.254360
0.103900	-0.312461
0.104000	-0.528957
0.104100	-0.752918
0.104200	-0.763629
0.104300	-0.623410
0.104400	-0.439372
0.104500	-0.396203
0.104600	-0.536747
0.104700	-0.645482
0.104800	-0.632174
0.104900	-0.607830
0.105000	-0.531878
0.105100	-0.561415
0.105200	-0.630875
0.105300	-0.685405
0.105400	-0.666255
0.105500	-0.646131
0.105600	-0.656193
0.105700	-0.723381
0.105800	-0.739286
0.105900	-0.742856
0.106000	-0.737338
0.106100	-0.738961
0.106200	-0.856135
0.106300	-0.992784
0.106400	-1.001223
0.106500	-1.011285
0.106600	-0.998951
0.106700	-0.952212
0.106800	-0.973959
0.106900	-0.967467
0.107000	-0.971362
0.107100	-0.963247
0.107200	-0.940202
0.107300	-0.942474
0.107400	-0.961949
0.107500	-0.967142
0.107600	-0.958703
0.107700	-0.964870
0.107800	-0.966169
0.107900	-0.988889
0.108000	-1.005118
0.108100	-1.056078
0.108200	-1.065815
0.108300	-1.135600
0.108400	-1.205386
0.108500	-1.257968
0.108600	-1.553338
0.108700	-1.741271
0.108800	-1.654608
0.108900	-1.466999
0.109000	-1.318665
0.109100	-1.487448
0.109200	-1.807811
0.109300	-2.029501
0.109400	-2.026580
0.109500	-1.876947
0.109600	-1.757176
0.109700	-1.775677
0.109800	-1.975945
0.109900	-2.160957
0.110000	-2.227172
0.110100	-2.116489
0.110200	-2.103506
0.110300	-2.107401
0.110400	-2.167124
0.110500	-2.233988
0.110600	-2.251191
0.110700	-2.245024
0.110800	-2.229119
0.110900	-2.237234
0.111000	-2.268069
0.111100	-2.258332
0.111200	-2.242427
0.111300	-2.261902
0.111400	-2.294361
0.111500	-2.324547
0.111600	-2.363172
0.111700	-2.179783
0.111800	-2.073644
0.111900	-2.099935
0.112000	-2.229119
0.112100	-2.429063
0.112200	-2.468986
0.112300	-2.276833
0.112400	-2.073644
0.112500	-2.007429
0.112600	-2.144403
0.112700	-2.354084
0.112800	-2.470285
0.112900	-2.427440
0.113000	-2.288843
0.113100	-2.215162
0.113200	-2.252165
0.113300	-2.315459
0.113400	-2.392060
0.113500	-2.407965
0.113600	-2.406342
0.113700	-2.381998
0.113800	-2.349864
0.113900	-2.306695
0.114000	-2.200232
0.114100	-2.117463
0.114200	-2.076241
0.114300	-2.046704
0.114400	-2.042484
0.114500	-1.973673
0.114600	-1.803267
0.114700	-1.726990
0.114800	-1.487772
0.114900	-1.541004
0.115000	-1.500106
0.115100	-1.448173
0.115200	-1.318016
0.115300	-1.257319
0.115400	-1.149882
0.115500	-1.085615
0.115600	-1.030111
0.115700	-1.048288
0.115800	-1.034331
0.115900	-1.025567
0.116000	-1.010636
0.116100	-0.934035
0.116200	-0.878856
0.116300	-0.865224
0.116400	-0.800307
0.116500	-0.869119
0.116600	-0.811343
0.116700	-0.885348
0.116800	-0.790570
0.116900	-0.582188
0.117000	-0.264747
0.117100	-0.295582
0.117200	-0.583162
0.117300	-0.856460
0.117400	-0.666904
0.117500	-0.517272
0.117600	-0.286494
0.117700	-0.343620
0.117800	-0.497797
0.117900	-0.678914
0.118000	-0.709749
0.118100	-0.638665
0.118200	-0.422494
0.118300	-0.399449
0.118400	-0.389062
0.118500	-0.484489
0.118600	-0.545186
0.118700	-0.586732
0.118800	-0.549081
0.118900	-0.564336
0.119000	-0.543887
0.119100	-0.530904
0.119200	-0.529281
0.119300	-0.521491
0.119400	-0.578942
0.119500	-0.661711
0.119600	-0.724030
0.119700	-0.691572
0.119800	-0.644832
0.119900	-0.631849
0.120000	-0.618541
0.120100	-0.852565
0.120200	-0.876259
0.120300	-0.863276
0.120400	-0.693195
0.120500	-0.516947
0.120600	-0.609128
0.120700	-0.781157
0.120800	-0.952536
0.120900	-0.930465
0.121000	-0.779209
0.121100	-0.637367
0.121200	-0.669501
0.121300	-0.807448
0.121400	-0.873014
0.121500	-0.865548
0.121600	-0.916183
0.121700	-0.841854
0.121800	-0.891515
0.121900	-0.916832
0.122000	-0.981749
0.122100	-0.989538
0.122200	-0.968765
0.122300	-1.002197
0.122400	-1.052183
0.122500	-1.029462
0.122600	-0.985319
0.122700	-0.890866
0.122800	-0.907419
0.122900	-1.074579
0.123000	-1.147610
0.123100	-1.145338
0.123200	-1.154751
0.123300	-1.156698
0.123400	-1.126837
0.123500	-1.147285
0.123600	-1.154102
0.123700	-1.175524
0.123800	-1.189806
0.123900	-1.221939
0.124000	-1.234598
0.124100	-1.266732
0.124200	-1.278092
0.124300	-1.258617
0.124400	-1.307629
0.124500	-1.296918
0.124600	-1.329376
0.124700	-1.317691
0.124800	-1.370598
0.124900	-1.380660
0.125000	-1.402083
0.125100	-1.446226
0.125200	-1.533538
0.125300	-1.846761
0.125400	-1.940890
0.125500	-1.790283
0.125600	-1.529319
0.125700	-1.483877
0.125800	-1.688364
0.125900	-1.983085
0.126000	-2.167773
0.126100	-2.063907
0.126200	-1.902913
0.126300	-1.798073
0.126400	-1.923038
0.126500	-2.101883
0.126600	-2.231716
0.126700	-2.233014
0.126800	-2.213215
0.126900	-2.216461
0.127000	-2.276509
0.127100	-2.319678
0.127200	-2.318055
0.127300	-2.321626
0.127400	-2.330065
0.127500	-2.347268
0.127600	-2.387516
0.127700	-2.481321
0.127800	-2.386867
0.127900	-2.386218
0.128000	-2.389788
0.128100	-2.456652
0.128200	-2.504366
0.128300	-2.450485
0.128400	-2.317406
0.128500	-2.213864
0.128600	-2.297606
0.128700	-2.469636
0.128800	-2.634200
0.128900	-2.575774
0.129000	-2.389788
0.129100	-2.254761
0.129200	-2.257034
0.129300	-2.396929
0.129400	-2.562142
0.129500	-2.600118
0.129600	-2.482294
0.129700	-2.363497
0.129800	-2.320652
0.129900	-2.342074
0.130000	-2.390437
0.130100	-2.380375
0.130200	-2.375831
0.130300	-2.355058
0.130400	-2.330714
0.130500	-2.278456
0.130600	-2.208671
0.130700	-2.047677
0.130800	-1.957443
0.130900	-1.954847
0.131000	-1.914598
0.131100	-1.922064
0.131200	-1.788336
0.131300	-1.641949
0.131400	-1.551715
0.131500	-1.402407
0.131600	-1.413443
0.131700	-1.362483
0.131800	-1.288154
0.131900	-1.203763
0.132000	-1.099572
0.132100	-1.019725
0.132200	-0.938255
0.132300	-0.953510
0.132400	-0.940851
0.132500	-0.932087
0.132600	-0.917481
0.132700	-0.902226
0.132800	-0.829520
0.132900	-0.814589
0.133000	-0.775314
0.133100	-0.769472
0.133200	-0.848670
0.133300	-0.704231
0.133400	-0.851591
0.133500	-0.594522
0.133600	-0.494876
0.133700	-0.105377
0.133800	-0.330637
0.133900	-0.675992
0.134000	-0.692546
0.134100	-0.677291
0.134200	-0.317005
0.134300	-0.240403
0.134400	-0.228069
0.134500	-0.402045
0.134600	-0.588355
0.134700	-0.472155
0.134800	-0.383544
0.134900	-0.181330
0.135000	-0.197234
0.135100	-0.232614
0.135200	-0.287143
0.135300	-0.249492
0.135400	-0.237482
0.135500	-0.231315
0.135600	-0.245921
0.135700	-0.278055
0.135800	-0.259878
0.135900	-0.290714
0.136000	-0.274160
0.136100	-0.473129
0.136200	-0.375105
0.136300	-0.517596
0.136400	-0.526035
0.136500	-0.454627
0.136600	-0.510456
0.136700	-0.574074
0.136800	-0.890216
0.136900	-0.900278
0.137000	-0.867496
0.137100	-0.654894
0.137200	-0.593224
0.137300	-0.731820
0.137400	-0.997978
0.137500	-1.109634
0.137600	-1.021672
0.137700	-0.844450
0.137800	-0.772069
0.137900	-0.882426
0.138000	-1.010636
0.138100	-1.069061
0.138200	-1.023944
0.138300	-1.007066
0.138400	-0.996679
0.138500	-1.082694
0.138600	-1.147285
0.138700	-1.146312
0.138800	-1.110932
0.138900	-1.128135
0.139000	-1.184288
0.139100	-1.229405
0.139200	-1.227133
0.139300	-1.182989
0.139400	-1.186884
0.139500	-1.226808
0.139600	-1.347228
0.139700	-1.350149
0.139800	-1.334894
0.139900	-1.350474
0.140000	-1.270302
0.140100	-1.328727
0.140200	-1.317367
0.140300	-1.341710
0.140400	-1.360861
0.140500	-1.343982
0.140600	-1.351448
0.140700	-1.386178
0.140800	-1.382932
0.140900	-1.438111
0.141000	-1.449147
0.141100	-1.494264
0.141200	-1.494264
0.141300	-1.502378
0.141400	-1.513090
0.141500	-1.539705
0.141600	-1.606894
0.141700	-1.605596
0.141800	-1.659476
0.141900	-1.853252
0.142000	-2.130446
0.142100	-2.069749
0.142200	-1.874026
0.142300	-1.648441
0.142400	-1.617930
0.142500	-1.844813
0.142600	-2.024632
0.142700	-2.123954
0.142800	-1.964909
0.142900	-1.763667
0.143000	-1.699076
0.143100	-1.797099
0.143200	-1.976594
0.143300	-2.031773
0.143400	-2.061635
0.143500	-1.957119
0.143600	-1.966856
0.143700	-1.974322
0.143800	-2.016193
0.143900	-2.085329
0.144000	-2.071047
0.144100	-2.057090
0.144200	-2.066503
0.144300	-2.099611
0.144400	-2.169721
0.144500	-2.111296
0.144600	-2.132394
0.144700	-2.115515
0.144800	-2.135315
0.144900	-2.149921
0.145000	-2.099611
0.145100	-1.924985
0.145200	-1.917195
0.145300	-1.999315
0.145400	-2.181730
0.145500	-2.272938
0.145600	-2.193740
0.145700	-1.949978
0.145800	-1.857147
0.145900	-1.981787
0.146000	-2.185950
0.146100	-2.309941
0.146200	-2.255735
0.146300	-2.135639
0.146400	-2.072346
0.146500	-2.085005
0.146600	-2.118437
0.146700	-2.136613
0.146800	-2.103830
0.146900	-2.075592
0.147000	-2.044107
0.147100	-2.000288
0.147200	-1.919792
0.147300	-1.838646
0.147400	-1.732183
0.147500	-1.663371
0.147600	-1.632861
0.147700	-1.621500
0.147800	-1.604622
0.147900	-1.454665
0.148000	-1.351772
0.148100	-1.153777
0.148200	-1.167409
0.148300	-1.179419
0.148400	-1.201491
0.148500	-1.142741
0.148600	-1.053481
0.148700	-0.953510
0.148800	-0.907419
0.148900	-0.912937
0.149000	-0.947018
0.149100	-0.969090
0.149200	-0.975906
0.149300	-0.989214
0.149400	-1.022321
0.149500	-0.933386
0.149600	-0.999601
0.149700	-0.891839
0.149800	-0.967791
0.149900	-0.960975
0.150000	-1.056402
0.150100	-1.033357
0.150200	-0.846398
0.150300	-0.655544
0.150400	-0.535124
0.150500	-0.739286
0.150600	-1.078474
0.150700	-0.981424
0.150800	-0.857109
0.150900	-0.559792
0.151000	-0.577969
0.151100	-0.638665
0.151200	-0.904823
0.151300	-0.871066
0.151400	-0.862302
0.151500	-0.669501
0.151600	-0.538045
0.151700	-0.534799
0.151800	-0.628279
0.151900	-0.641587
0.152000	-0.670799
0.152100	-0.659439
0.152200	-0.639639
0.152300	-0.654894
0.152400	-0.676966
0.152500	-0.645806
0.152600	-0.689625
0.152700	-0.683782
0.152800	-0.819782
0.152900	-0.794140
0.153000	-0.871391
0.153100	-0.766551
0.153200	-0.706828
0.153300	-0.653596
0.153400	-0.826923
0.153500	-0.999925
0.153600	-0.994083
0.153700	-0.810369
0.153800	-0.576021
0.153900	-0.596794
0.154000	-0.749023
0.154100	-1.044393
0.154200	-1.056727
0.154300	-0.888593
0.154400	-0.730847
0.154500	-0.697415
0.154600	-0.846398
0.154700	-0.932412
0.154800	-0.939877
0.154900	-0.930789
0.155000	-0.891839
0.155100	-0.888593
0.155200	-0.946694
0.155300	-1.010961
0.155400	-1.018751
0.155500	-0.965519
0.155600	-0.995706
0.155700	-1.040498
0.155800	-1.058999
0.155900	-1.071333
0.156000	-1.040498
0.156100	-1.046665
0.156200	-1.124889
0.156300	-1.222588
0.156400	-1.242388
0.156500	-1.227133
0.156600	-1.154751
0.156700	-1.173252
0.156800	-1.192727
0.156900	-1.208631
0.157000	-1.204736
0.157100	-1.230054
0.157200	-1.238493
0.157300	-1.242713
0.157400	-1.281987
0.157500	-1.302111
0.157600	-1.322235
0.157700	-1.343982
0.157800	-1.335868
0.157900	-1.397863
0.158000	-1.405653
0.158100	-1.451094
0.158200	-1.496536
0.158300	-1.530942
0.158400	-1.545223
0.158500	-1.641624
0.158600	-1.872403
0.158700	-2.036317
0.158800	-2.012298
0.158900	-1.780870
0.159000	-1.660775
0.159100	-1.765615
0.159200	-2.018790
0.159300	-2.236585
0.159400	-2.250217
0.159500	-2.106752
0.159600	-1.951276
0.159700	-1.998990
0.159800	-2.134990
0.159900	-2.375831
0.160000	-2.373234
0.160100	-2.341425
0.160200	-2.284299
0.160300	-2.303124
0.160400	-2.390762
0.160500	-2.431984
0.160600	-2.501769
0.160700	-2.506963
0.160800	-2.557922
0.160900	-2.573178
0.161000	-2.633550
0.161100	-2.759164
0.161200	-2.772148
0.161300	-2.763708
0.161400	-2.782859
0.161500	-2.834143
0.161600	-2.852320
0.161700	-2.767279
0.161800	-2.618620
0.161900	-2.658219
0.162000	-2.872769
0.162100	-3.065572
0.162200	-3.103873
0.162300	-2.940607
0.162400	-2.720214
0.162500	-2.661465
0.162600	-2.822458
0.162700	-3.050641
0.162800	-3.117181
0.162900	-3.039930
0.163000	-2.839012
0.163100	-2.777016
0.163200	-2.787728
0.163300	-2.825704
0.163400	-2.823756
0.163500	-2.740663
0.163600	-2.656920
0.163700	-2.577073
0.163800	-2.471908
0.163900	-2.367392
0.164000	-2.192442
0.164100	-2.026904
0.164200	-1.922713
0.164300	-1.849682
0.164400	-1.784441
0.164500	-1.667916
0.164600	-1.449147
0.164700	-1.253424
0.164800	-1.033357
0.164900	-1.022646
0.165000	-0.963896
0.165100	-0.867171
0.165200	-0.745453
0.165300	-0.576346
0.165400	-0.429959
0.165500	-0.339076
0.165600	-0.306943
0.165700	-0.262800
0.165800	-0.206972
0.165900	-0.130046
0.166000	-0.127124
0.166100	0.022508
0.166200	0.025429
0.166300	0.144875
0.166400	0.133839
0.166500	0.172140
0.166600	0.147796
0.166700	0.129944
0.166800	0.218880
0.166900	0.419146
0.167000	0.783652
0.167100	0.735613
0.167200	0.516196
0.167300	0.355853
0.167400	0.365915
0.167500	0.688874
0.167600	0.775212
0.167700	0.820329
0.167800	0.748597
0.167900	0.550927
0.168000	0.563261
0.168100	0.648626
0.168200	0.830391
0.168300	0.820978
0.168400	0.906019
0.168500	0.797933
0.168600	0.778458
0.168700	0.682382
0.168800	0.723279
0.168900	0.754115
0.169000	0.727499
0.169100	0.719060
0.169200	0.664205
0.169300	0.663881
0.169400	0.482440
0.169500	0.528855
0.169600	0.351309
0.169700	0.292884
0.169800	0.342870
0.169900	0.326965
0.170000	0.299051
0.170100	0.065352
0.170200	-0.144327
0.170300	-0.146924
0.170400	0.001410
0.170500	0.105925
0.170600	0.024131
0.170700	-0.278704
0.170800	-0.503639
0.170900	-0.535124
0.171000	-0.413081
0.171100	-0.292337
0.171200	-0.355305
0.171300	-0.515973
0.171400	-0.671773
0.171500	-0.695143
0.171600	-0.747725
0.171700	-0.711372
0.171800	-0.775964
0.171900	-0.883076
0.172000	-0.985968
0.172100	-1.014856
0.172200	-1.028813
0.172300	-1.101519
0.172400	-1.192078
0.172500	-1.256345
0.172600	-1.255371
0.172700	-1.281987
0.172800	-1.307954
0.172900	-1.467324
0.173000	-1.566970
0.173100	-1.598779
0.173200	-1.608842
0.173300	-1.543925
0.173400	-1.569892
0.173500	-1.589042
0.173600	-1.584498
0.173700	-1.571839
0.173800	-1.559505
0.173900	-1.600727
0.174000	-1.598779
0.174100	-1.608192
0.174200	-1.607219
0.174300	-1.606894
0.174400	-1.581252
0.174500	-1.616632
0.174600	-1.601052
0.174700	-1.622149
0.174800	-1.618579
0.174900	-1.626044
0.175000	-1.661099
0.175100	-1.659801
0.175200	-1.769510
0.175300	-1.974646
0.175400	-2.132718
0.175500	-1.908431
0.175600	-1.763343
0.175700	-1.663371
0.175800	-1.794178
0.175900	-2.058064
0.176000	-2.132718
0.176100	-2.123954
0.176200	-1.907133
0.176300	-1.804240
0.176400	-1.840594
0.176500	-1.974646
0.176600	-2.088575
0.176700	-2.114217
0.176800	-2.048651
0.176900	-1.999315
0.177000	-1.961014
0.177100	-2.013596
0.177200	-2.072670
0.177300	-2.087601
0.177400	-2.107076
0.177500	-2.101883
0.177600	-2.085005
0.177700	-2.136613
0.177800	-2.096689
0.177900	-2.059362
0.178000	-2.080785
0.178100	-2.133367
0.178200	-2.196986
0.178300	-2.148947
0.178400	-2.026580
0.178500	-1.874026
0.178600	-1.984708
0.178700	-2.193740
0.178800	-2.297931
0.178900	-2.322599
0.179000	-2.117787
0.179100	-1.945434
0.179200	-1.955820
0.179300	-2.133367
0.179400	-2.339153
0.179500	-2.381349
0.179600	-2.327144
0.179700	-2.177186
0.179800	-2.128174
0.179900	-2.150570
0.180000	-2.209644
0.180100	-2.219057
0.180200	-2.168747
0.180300	-2.127200
0.180400	-2.088900
0.180500	-2.044107
0.180600	-2.012622
0.180700	-1.888307
0.180800	-1.801319
0.180900	-1.751009
0.181000	-1.759448
0.181100	-1.800994
0.181200	-1.703944
0.181300	-1.532889
0.181400	-1.428698
0.181500	-1.296269
0.181600	-1.362483
0.181700	-1.325806
0.181800	-1.293023
0.181900	-1.187858
0.182000	-1.111257
0.182100	-1.040822
0.182200	-1.007066
0.182300	-1.019400
0.182400	-1.038226
0.182500	-1.071333
0.182600	-1.067114
0.182700	-1.082044
0.182800	-1.054130
0.182900	-1.058025
0.183000	-0.981424
0.183100	-1.083667
0.183200	-1.067438
0.183300	-1.165462
0.183400	-1.148259
0.183500	-1.134951
0.183600	-0.859381
0.183700	-0.735066
0.183800	-0.688002
0.183900	-1.083667
0.184000	-1.219018
0.184100	-1.146961
0.184200	-0.890541
0.184300	-0.781806
0.184400	-0.738312
0.184500	-0.954484
0.184600	-1.008040
0.184700	-1.061271
0.184800	-0.890216
0.184900	-0.749023
0.185000	-0.725004
0.185100	-0.723057
0.185200	-0.815563
0.185300	-0.810045
0.185400	-0.801281
0.185500	-0.772069
0.185600	-0.780183
0.185700	-0.784078
0.185800	-0.743830
0.185900	-0.802255
0.186000	-0.774341
0.186100	-0.933710
0.186200	-0.901901
0.186300	-0.957080
0.186400	-0.972011
0.186500	-0.844775
0.186600	-0.869119
0.186700	-0.910340
0.186800	-1.222264
0.186900	-1.259915
0.187000	-1.181367
0.187100	-0.962923
0.187200	-0.946694
0.187300	-1.033032
0.187400	-1.285233
0.187500	-1.448822
0.187600	-1.356641
0.187700	-1.222913
0.187800	-1.124240
0.187900	-1.246932
0.188000	-1.357615
0.188100	-1.430321
0.188200	-1.368001
0.188300	-1.404679
0.188400	-1.349500
0.188500	-1.482579
0.188600	-1.527047
0.188700	-1.557233
0.188800	-1.477710
0.188900	-1.504326
0.189000	-1.555285
0.189100	-1.637405
0.189200	-1.666942
0.189300	-1.626044
0.189400	-1.611438
0.189500	-1.615982
0.189600	-1.760097
0.189700	-1.775028
0.189800	-1.786713
0.189900	-1.768861
0.190000	-1.726340
0.190100	-1.679925
0.190200	-1.690312
0.190300	-1.661099
0.190400	-1.663371
0.190500	-1.606245
0.190600	-1.620202
0.190700	-1.598455
0.190800	-1.599753
0.190900	-1.533863
0.191000	-1.523152
0.191100	-1.512765
0.191200	-1.520231
0.191300	-1.475763
0.191400	-1.454340
0.191500	-1.423830
0.191600	-1.411495
0.191700	-1.434865
0.191800	-1.444603
0.191900	-1.625071
0.192000	-1.892527
0.192100	-1.966207
0.192200	-1.738675
0.192300	-1.524125
0.192400	-1.476412
0.192500	-1.655257
0.192600	-1.976594
0.192700	-2.087277
0.192800	-1.984708
0.192900	-1.824689
0.193000	-1.739973
0.193100	-1.834102
0.193200	-1.996069
0.193300	-2.104479
0.193400	-2.084355
0.193500	-2.049950
0.193600	-2.013596
0.193700	-2.029176
0.193800	-2.080460
0.193900	-2.105129
0.194000	-2.092470
0.194100	-2.049950
0.194200	-2.025281
0.194300	-2.083057
0.194400	-2.147649
0.194500	-2.117787
0.194600	-2.039887
0.194700	-2.047028
0.194800	-2.088250
0.194900	-2.142456
0.195000	-2.089873
0.195100	-1.835076
0.195200	-1.807811
0.195300	-1.888956
0.195400	-2.109024
0.195500	-2.164527
0.195600	-2.121682
0.195700	-1.905186
0.195800	-1.748412
0.195900	-1.782493
0.196000	-1.968479
0.196100	-2.158685
0.196200	-2.124928
0.196300	-1.993472
0.196400	-1.876298
0.196500	-1.858446
0.196600	-1.863314
0.196700	-1.896097
0.196800	-1.853577
0.196900	-1.813329
0.197000	-1.771457
0.197100	-1.741271
0.197200	-1.683820
0.197300	-1.573137
0.197400	-1.419610
0.197500	-1.336192
0.197600	-1.291725
0.197700	-1.285557
0.197800	-1.244335
0.197900	-1.067438
0.198000	-0.910340
0.198100	-0.767524
0.198200	-0.657167
0.198300	-0.651973
0.198400	-0.600040
0.198500	-0.538045
0.198600	-0.429635
0.198700	-0.335831
0.198800	-0.251764
0.198900	-0.236508
0.199000	-0.266695
0.199100	-0.234561
0.199200	-0.290064
0.199300	-0.251764
0.199400	-0.312785
0.199500	-0.234561
0.199600	-0.323821
0.199700	-0.281625
0.199800	-0.316680
0.199900	-0.362771
0.200000	-0.347840
0.200100	-0.450732
0.200200	-0.278380
0.200300	-0.183602
0.200400	0.108197
0.200500	-0.218007
0.200600	-0.494551
0.200700	-0.591926
0.200800	-0.445539
0.200900	-0.261826
0.201000	-0.188470
0.201100	-0.226771
0.201200	-0.433530
0.201300	-0.607505
0.201400	-0.529606
0.201500	-0.463716
0.201600	-0.351735
0.201700	-0.343296
0.201800	-0.374131
0.201900	-0.535773
0.202000	-0.562064
0.202100	-0.580565
0.202200	-0.606532
0.202300	-0.643534
0.202400	-0.661711
0.202500	-0.713644
0.202600	-0.753567
0.202700	-0.836660
0.202800	-0.983371
0.202900	-0.985968
0.203000	-1.054779
0.203100	-0.971037
0.203200	-0.951238
0.203300	-0.945071
0.203400	-1.028813
0.203500	-1.389748
0.203600	-1.299190
0.203700	-1.240116
0.203800	-1.005443
0.203900	-1.084966
0.204000	-1.205061
0.204100	-1.492316
0.204200	-1.585796
0.204300	-1.523152
0.204400	-1.392020
0.204500	-1.328727
0.204600	-1.453042
0.204700	-1.561777
0.204800	-1.650064
0.204900	-1.622474
0.205000	-1.674407
0.205100	-1.647142
0.205200	-1.733157
0.205300	-1.738350
0.205400	-1.726990
0.205500	-1.683171
0.205600	-1.724393
0.205700	-1.738350
0.205800	-1.760097
0.205900	-1.695830
0.206000	-1.659801
0.206100	-1.620202
0.206200	-1.632536
0.206300	-1.724393
0.206400	-1.716278
0.206500	-1.680574
0.206600	-1.672460
0.206700	-1.540030
0.206800	-1.563075
0.206900	-1.541004
0.207000	-1.524450
0.207100	-1.529319
0.207200	-1.495238
0.207300	-1.494913
0.207400	-1.496211
0.207500	-1.472192
0.207600	-1.472192
0.207700	-1.489395
0.207800	-1.503677
0.207900	-1.508546
0.208000	-1.508870
0.208100	-1.531915
0.208200	-1.550417
0.208300	-1.623772
0.208400	-1.646818
0.208500	-1.750360
0.208600	-1.970427
0.208700	-2.163878
0.208800	-2.138236
0.208900	-1.938293
0.209000	-1.775677
0.209100	-1.905186
0.209200	-2.111296
0.209300	-2.418676
0.209400	-2.442371
0.209500	-2.381998
0.209600	-2.186274
0.209700	-2.196986
0.209800	-2.298580
0.209900	-2.478399
0.210000	-2.555650
0.210100	-2.530982
0.210200	-2.468013
0.210300	-2.443669
0.210400	-2.482944
0.210500	-2.490084
0.210600	-2.493006
0.210700	-2.525139
0.210800	-2.494629
0.210900	-2.444643
0.211000	-2.456977
0.211100	-2.543641
0.211200	-2.417378
0.211300	-2.382323
0.211400	-2.426141
0.211500	-2.417378
0.211600	-2.405693
0.211700	-2.216136
0.211800	-2.076241
0.211900	-2.048976
0.212000	-2.118761
0.212100	-2.302475
0.212200	-2.270666
0.212300	-2.147000
0.212400	-1.893501
0.212500	-1.750684
0.212600	-1.804565
0.212700	-1.937319
0.212800	-2.010026
0.212900	-1.968479
0.213000	-1.788660
0.213100	-1.677978
0.213200	-1.624746
0.213300	-1.612087
0.213400	-1.566646
0.213500	-1.540355
0.213600	-1.503677
0.213700	-1.443304
0.213800	-1.349176
0.213900	-1.233300
0.214000	-1.089510
0.214100	-0.949615
0.214200	-0.894111
0.214300	-0.865873
0.214400	-0.843152
0.214500	-0.803228
0.214600	-0.657167
0.214700	-0.586083
0.214800	-0.362771
0.214900	-0.417301
0.215000	-0.401721
0.215100	-0.407238
0.215200	-0.346217
0.215300	-0.288117
0.215400	-0.193015
0.215500	-0.148871
0.215600	-0.182303
0.215700	-0.196260
0.215800	-0.245272
0.215900	-0.200480
0.216000	-0.259229
0.216100	-0.282924
0.216200	-0.245272
0.216300	-0.319601
0.216400	-0.281950
0.216500	-0.413730
0.216600	-0.421196
0.216700	-0.451057
0.216800	-0.444565
0.216900	-0.242026
0.217000	-0.076165
0.217100	-0.056041
0.217200	-0.385167
0.217300	-0.739286
0.217400	-0.645806
0.217500	-0.488384
0.217600	-0.236508
0.217700	-0.332260
0.217800	-0.379000
0.217900	-0.626007
0.218000	-0.681186
0.218100	-0.659439
0.218200	-0.537071
0.218300	-0.447811
0.218400	-0.482866
0.218500	-0.498771
0.218600	-0.641911
0.218700	-0.624708
0.218800	-0.681510
0.218900	-0.674369
0.219000	-0.614971
0.219100	-0.672097
0.219200	-0.626656
0.219300	-0.673396
0.219400	-0.693844
0.219500	-0.780508
0.219600	-0.772069
0.219700	-0.763305
0.219800	-0.586408
0.219900	-0.556222
0.220000	-0.479620
0.220100	-0.736040
0.220200	-0.849968
0.220300	-0.782455
0.220400	-0.600040
0.220500	-0.322198
0.220600	-0.447487
0.220700	-0.497797
0.220800	-0.709749
0.220900	-0.671773
0.221000	-0.523439
0.221100	-0.347515
0.221200	-0.266370
0.221300	-0.365692
0.221400	-0.455926
0.221500	-0.438074
0.221600	-0.415353
0.221700	-0.379974
0.221800	-0.428661
0.221900	-0.482217
0.222000	-0.508833
0.222100	-0.552651
0.222200	-0.492604
0.222300	-0.529606
0.222400	-0.577969
0.222500	-0.590627
0.222600	-0.509482
0.222700	-0.504288
0.222800	-0.553625
0.222900	-0.676966
0.223000	-0.786026
0.223100	-0.852565
0.223200	-0.846073
0.223300	-0.879181
0.223400	-0.799009
0.223500	-0.880803
0.223600	-0.885997
0.223700	-0.928192
0.223800	-0.959028
0.223900	-0.952861
0.224000	-0.985968
0.224100	-1.039200
0.224200	-1.058674
0.224300	-1.101519
0.224400	-1.111257
0.224500	-1.142092
0.224600	-1.177147
0.224700	-1.244011
0.224800	-1.297242
0.224900	-1.337815
0.225000	-1.401758
0.225100	-1.415715
0.225200	-1.546522
0.225300	-1.828259
0.225400	-1.993148
0.225500	-1.899018
0.225600	-1.753930
0.225700	-1.698751
0.225800	-1.815925
0.225900	-2.079811
0.226000	-2.269692
0.226100	-2.290790
0.226200	-2.220031
0.226300	-2.112919
0.226400	-2.161282
0.226500	-2.309291
0.226600	-2.493330
0.226700	-2.498199
0.226800	-2.493330
0.226900	-2.414456
0.227000	-2.455679
0.227100	-2.512481
0.227200	-2.538447
0.227300	-2.596872
0.227400	-2.595574
0.227500	-2.601092
0.227600	-2.667956
0.227700	-2.766305
0.227800	-2.750725
0.227900	-2.686782
0.228000	-2.691651
0.228100	-2.754945
0.228200	-2.784482
0.228300	-2.731575
0.228400	-2.587135
0.228500	-2.407640
0.228600	-2.503392
0.228700	-2.639393
0.228800	-2.793246
0.228900	-2.738391
0.229000	-2.577073
0.229100	-2.341750
0.229200	-2.269043
0.229300	-2.406991
0.229400	-2.554352
0.229500	-2.661140
0.229600	-2.567660
0.229700	-2.394008
0.229800	-2.337855
0.229900	-2.321950
0.230000	-2.346943
0.230100	-2.350838
0.230200	-2.298905
0.230300	-2.256384
0.230400	-2.158685
0.230500	-2.069100
0.230600	-1.988279
0.230700	-1.857796
0.230800	-1.776975
0.230900	-1.707515
0.231000	-1.702646
0.231100	-1.710760
0.231200	-1.634159
0.231300	-1.464402
0.231400	-1.406627
0.231500	-1.139495
0.231600	-1.211228
0.231700	-1.157672
0.231800	-1.112555
0.231900	-0.978827
0.232000	-0.898980
0.232100	-0.756164
0.232200	-0.704880
0.232300	-0.696441
0.232400	-0.722407
0.232500	-0.742856
0.232600	-0.705529
0.232700	-0.758436
0.232800	-0.612050
0.232900	-0.696116
0.233000	-0.567906
0.233100	-0.719486
0.233200	-0.638341
0.233300	-0.714293
0.233400	-0.666579
0.233500	-0.554923
0.233600	-0.388413
0.233700	-0.141406
0.233800	-0.179382
0.233900	-0.482866
0.234000	-0.614322
0.234100	-0.518245
0.234200	-0.181654
0.234300	-0.144003
0.234400	0.016990
0.234500	-0.184575
0.234600	-0.252413
0.234700	-0.318303
0.234800	-0.184251
0.234900	0.010174
0.235000	0.051720
0.235100	0.049448
0.235200	-0.063182
0.235300	-0.064156
0.235400	-0.155363
0.235500	-0.134914
0.235600	-0.182628
0.235700	-0.207945
0.235800	-0.294284
0.235900	-0.318628
0.236000	-0.389062
0.236100	-0.541291
0.236200	-0.590303
0.236300	-0.745777
0.236400	-0.744479
0.236500	-0.730522
0.236600	-0.765577
0.236700	-0.845424
0.236800	-1.043744
0.236900	-1.173252
0.237000	-1.145338
0.237100	-0.928192
0.237200	-0.936632
0.237300	-0.979152
0.237400	-1.276469
0.237500	-1.421557
0.237600	-1.425777
0.237700	-1.285557
0.237800	-1.149233
0.237900	-1.180393
0.238000	-1.289128
0.238100	-1.399486
0.238200	-1.360536
0.238300	-1.426426
0.238400	-1.359887
0.238500	-1.411171
0.238600	-1.432918
0.238700	-1.483877
0.238800	-1.476087
0.238900	-1.476087
0.239000	-1.506598
0.239100	-1.514713
0.239200	-1.497510
0.239300	-1.469596
0.239400	-1.433242
0.239500	-1.427400
0.239600	-1.566646
0.239700	-1.586770
0.239800	-1.589367
0.239900	-1.472841
0.240000	-1.425128
0.240100	-1.479658
0.240200	-1.479982
0.240300	-1.479658
0.240400	-1.487448
0.240500	-1.471868
0.240600	-1.459209
0.240700	-1.460832
0.240800	-1.462779
0.240900	-1.443954
0.241000	-1.449147
0.241100	-1.482904
0.241200	-1.516660
0.241300	-1.495238
0.241400	-1.559830
0.241500	-1.558531
0.241600	-1.630913
0.241700	-1.650713
0.241800	-1.724393
0.241900	-1.846436
0.242000	-2.147974
0.242100	-2.175563
0.242200	-1.998016
0.242300	-1.813329
0.242400	-1.782493
0.242500	-1.959391
0.242600	-2.235611
0.242700	-2.329740
0.242800	-2.289816
0.242900	-2.103181
0.243000	-2.063582
0.243100	-2.122656
0.243200	-2.293387
0.243300	-2.447564
0.243400	-2.424843
0.243500	-2.373884
0.243600	-2.319029
0.243700	-2.368366
0.243800	-2.348241
0.243900	-2.357330
0.244000	-2.377129
0.244100	-2.402771
0.244200	-2.367716
0.244300	-2.403096
0.244400	-2.498524
0.244500	-2.408939
0.244600	-2.369989
0.244700	-2.377129
0.244800	-2.473855
0.244900	-2.498848
0.245000	-2.422246
0.245100	-2.303774
0.245200	-2.251516
0.245300	-2.369015
0.245400	-2.583564
0.245500	-2.708205
0.245600	-2.634200
0.245700	-2.498524
0.245800	-2.355058
0.245900	-2.370638
0.246000	-2.560194
0.246100	-2.729303
0.246200	-2.798764
0.246300	-2.704959
0.246400	-2.588433
0.246500	-2.530333
0.246600	-2.559870
0.246700	-2.598820
0.246800	-2.616997
0.246900	-2.583564
0.247000	-2.564739
0.247100	-2.509235
0.247200	-2.468986
0.247300	-2.344671
0.247400	-2.198933
0.247500	-2.130771
0.247600	-2.097339
0.247700	-2.075592
0.247800	-2.059362
0.247900	-1.926283
0.248000	-1.779897
0.248100	-1.745491
0.248200	-1.497185
0.248300	-1.561128
0.248400	-1.496536
0.248500	-1.445901
0.248600	-1.311849
0.248700	-1.238493
0.248800	-1.104441
0.248900	-1.090808
0.249000	-1.051858
0.249100	-1.074579
0.249200	-1.004794
0.249300	-1.025243
0.249400	-0.992135
0.249500	-0.972336
0.249600	-0.911639
0.249700	-0.931763
0.249800	-0.902875
0.249900	-0.931438
0.250000	-0.857434
0.250100	-0.947018
0.250200	-0.774990
0.250300	-0.534799
0.250400	-0.358227
0.250500	-0.496498
0.250600	-0.830169
0.250700	-0.933710
0.250800	-0.708775
0.250900	-0.514026
0.251000	-0.366017
0.251100	-0.381272
0.251200	-0.540966
0.251300	-0.652622
0.251400	-0.705205
0.251500	-0.539992
0.251600	-0.440670
0.251700	-0.359525
0.251800	-0.404966
0.251900	-0.486761
0.252000	-0.539992
0.252100	-0.538694
0.252200	-0.565959
0.252300	-0.536097
0.252400	-0.564661
0.252500	-0.573424
0.252600	-0.654570
0.252700	-0.593224
0.252800	-0.782780
0.252900	-0.802255
0.253000	-0.878531
0.253100	-0.829195
0.253200	-0.788298
0.253300	-0.777586
0.253400	-0.938255
0.253500	-1.197596
0.253600	-1.239142
0.253700	-1.157347
0.253800	-0.858083
0.253900	-0.866522
0.254000	-0.953185
0.254100	-1.194025
0.254200	-1.343009
0.254300	-1.277767
0.254400	-1.110608
0.254500	-0.999276
0.254600	-1.082044
0.254700	-1.230378
0.254800	-1.342684
0.254900	-1.320612
0.255000	-1.363782
0.255100	-1.340736
0.255200	-1.465051
0.255300	-1.548794
0.255400	-1.626044
0.255500	-1.613386
0.255600	-1.644870
0.255700	-1.692259
0.255800	-1.760097
0.255900	-1.761395
0.256000	-1.759448
0.256100	-1.775028
0.256200	-1.838646
0.256300	-1.989253
0.256400	-2.036642
0.256500	-2.007105
0.256600	-1.844164
0.256700	-1.852928
0.256800	-1.908756
0.256900	-1.885061
0.257000	-1.852279
0.257100	-1.816899
0.257200	-1.780221
0.257300	-1.754579
0.257400	-1.738025
0.257500	-1.682197
0.257600	-1.655257
0.257700	-1.620527
0.257800	-1.603324
0.257900	-1.574760
0.258000	-1.515037
0.258100	-1.548794
0.258200	-1.523152
0.258300	-1.525099
0.258400	-1.553987
0.258500	-1.538407
0.258600	-1.715629
0.258700	-1.893825
0.258800	-1.890904
0.258900	-1.572164
0.259000	-1.441032
0.259100	-1.384230
0.259200	-1.614684
0.259300	-1.814302
0.259400	-1.821768
0.259500	-1.622149
0.259600	-1.395591
0.259700	-1.294321
0.259800	-1.314121
0.259900	-1.443954
0.260000	-1.471219
0.260100	-1.352421
0.260200	-1.272250
0.260300	-1.156698
0.260400	-1.075228
0.260500	-1.033357
0.260600	-1.041472
0.260700	-0.989538
0.260800	-0.883725
0.260900	-0.842178
0.261000	-0.894761
0.261100	-0.861978
0.261200	-0.745128
0.261300	-0.692871
0.261400	-0.693844
0.261500	-0.714942
0.261600	-0.691248
0.261700	-0.576346
0.261800	-0.401071
0.261900	-0.350112
0.262000	-0.460145
0.262100	-0.673396
0.262200	-0.718837
0.262300	-0.614971
0.262400	-0.469883
0.262500	-0.335506
0.262600	-0.379324
0.262700	-0.568556
0.262800	-0.723381
0.262900	-0.793166
0.263000	-0.696441
0.263100	-0.588031
0.263200	-0.544212
0.263300	-0.590952
0.263400	-0.674369
0.263500	-0.709749
0.263600	-0.703906
0.263700	-0.695467
0.263800	-0.672097
0.263900	-0.637042
0.264000	-0.542914
0.264100	-0.505911
0.264200	-0.471830
0.264300	-0.512078
0.264400	-0.544861
0.264500	-0.569205
0.264600	-0.453978
0.264700	-0.395878
0.264800	-0.365367
0.264900	-0.280002
0.265000	-0.299153
0.265100	-0.339725
0.265200	-0.311487
0.265300	-0.257606
0.265400	-0.176785
0.265500	-0.128747
0.265600	-0.141731
0.265700	-0.234561
0.265800	-0.274485
0.265900	-0.338103
0.266000	-0.382246
0.266100	-0.427038
0.266200	-0.396527
0.266300	-0.473129
0.266400	-0.535448
0.266500	-0.584460
0.266600	-0.778885
0.266700	-0.758436
0.266800	-0.782780
0.266900	-0.677940
0.267000	-0.456250
0.267100	-0.410160
0.267200	-0.622761
0.267300	-1.014531
0.267400	-1.031085
0.267500	-1.016479
0.267600	-0.678589
0.267700	-0.660088
0.267800	-0.702933
0.267900	-0.848670
0.268000	-1.020698
0.268100	-1.005768
0.268200	-0.924622
0.268300	-0.877233
0.268400	-0.806150
0.268500	-0.945395
0.268600	-0.997328
0.268700	-1.121968
0.268800	-1.106713
0.268900	-1.142417
0.269000	-1.155725
0.269100	-1.232001
0.269200	-1.229405
0.269300	-1.193701
0.269400	-1.392345
0.269500	-1.521204
0.269600	-1.498483
0.269700	-1.497834
0.269800	-1.401433
0.269900	-1.379362
0.270000	-1.418636
0.270100	-1.579954
0.270200	-1.814952
0.270300	-1.776326
0.270400	-1.636106
0.270500	-1.403705
0.270600	-1.492641
0.270700	-1.637405
0.270800	-1.770484
0.270900	-1.776326
0.271000	-1.699725
0.271100	-1.578655
0.271200	-1.555610
0.271300	-1.577682
0.271400	-1.652660
0.271500	-1.667591
0.271600	-1.716603
0.271700	-1.700049
0.271800	-1.691935
0.271900	-1.700698
0.272000	-1.710760
0.272100	-1.769510
0.272200	-1.739324
0.272300	-1.765940
0.272400	-1.785415
0.272500	-1.769185
0.272600	-1.728937
0.272700	-1.720173
0.272800	-1.740947
0.272900	-1.839295
0.273000	-1.928880
0.273100	-1.926608
0.273200	-1.925634
0.273300	-1.817224
0.273400	-1.894799
0.273500	-1.933749
0.273600	-1.940241
0.273700	-1.978217
0.273800	-1.990875
0.273900	-2.019114
0.274000	-2.032747
0.274100	-2.044756
0.274200	-2.073969
0.274300	-2.059038
0.274400	-2.097339
0.274500	-2.094417
0.274600	-2.117463
0.274700	-2.115191
0.274800	-2.136613
0.274900	-2.115191
0.275000	-2.128174
0.275100	-2.157387
0.275200	-2.221005
0.275300	-2.542667
0.275400	-2.717618
0.275500	-2.628357
0.275600	-2.394657
0.275700	-2.192117
0.275800	-2.296957
0.275900	-2.483917
0.276000	-2.733522
0.276100	-2.778964
0.276200	-2.633550
0.276300	-2.486839
0.276400	-2.457301
0.276500	-2.572853
0.276600	-2.711775
0.276700	-2.782859
0.276800	-2.710477
0.276900	-2.656271
0.277000	-2.597846
0.277100	-2.571230
0.277200	-2.588758
0.277300	-2.589732
0.277400	-2.500147
0.277500	-2.453406
0.277600	-2.453731
0.277700	-2.484567
0.277800	-2.388165
0.277900	-2.249568
0.278000	-2.185625
0.278100	-2.179458
0.278200	-2.135639
0.278300	-2.048976
0.278400	-1.839295
0.278500	-1.659801
0.278600	-1.624746
0.278700	-1.658827
0.278800	-1.805539
0.278900	-1.761395
0.279000	-1.539056
0.279100	-1.392994
0.279200	-1.344631
0.279300	-1.409548
0.279400	-1.488746
0.279500	-1.563075
0.279600	-1.516660
0.279700	-1.457586
0.279800	-1.351772
0.279900	-1.268030
0.280000	-1.225834
0.280100	-1.236546
0.280200	-1.260240
0.280300	-1.242388
0.280400	-1.170006
0.280500	-1.092106
0.280600	-1.026541
0.280700	-0.901252
0.280800	-0.831792
0.280900	-0.805176
0.281000	-0.801930
0.281100	-0.813940
0.281200	-0.812641
0.281300	-0.720135
0.281400	-0.720135
0.281500	-0.544212
0.281600	-0.614646
0.281700	-0.618866
0.281800	-0.696766
0.281900	-0.653921
0.282000	-0.650675
0.282100	-0.597119
0.282200	-0.627954
0.282300	-0.685730
0.282400	-0.751620
0.282500	-0.801281
0.282600	-0.800307
0.282700	-0.865548
0.282800	-0.863601
0.282900	-0.802579
0.283000	-0.856784
0.283100	-0.820431
0.283200	-0.941500
0.283300	-0.895734
0.283400	-1.015180
0.283500	-0.884374
0.283600	-0.734417
0.283700	-0.403344
0.283800	-0.452031
0.283900	-0.737663
0.284000	-0.973634
0.284100	-0.900603
0.284200	-0.781157
0.284300	-0.569854
0.284400	-0.528308
0.284500	-0.642885
0.284600	-0.875286
0.284700	-0.861329
0.284800	-0.816536
0.284900	-0.620489
0.285000	-0.605233
0.285100	-0.507859
0.285200	-0.664956
0.285300	-0.713968
0.285400	-0.756164
0.285500	-0.707477
0.285600	-0.669501
0.285700	-0.709100
0.285800	-0.759734
0.285900	-0.717214
0.286000	-0.744479
0.286100	-0.838932
0.286200	-0.887944
0.286300	-0.901252
0.286400	-0.839257
0.286500	-0.721109
0.286600	-0.740259
0.286700	-0.738312
0.286800	-0.995056
0.286900	-1.094703
0.287000	-0.947018
0.287100	-0.735715
0.287200	-0.555897
0.287300	-0.680536
0.287400	-0.793166
0.287500	-0.934360
0.287600	-0.895410
0.287700	-0.786675
0.287800	-0.684431
0.287900	-0.690923
0.288000	-0.738637
0.288100	-0.825949
0.288200	-0.811343
0.288300	-0.869443
0.288400	-0.796088
0.288500	-0.849319
0.288600	-0.874636
0.288700	-0.973959
0.288800	-0.985643
0.288900	-0.956107
0.289000	-0.977854
0.289100	-1.012259
0.289200	-0.939553
0.289300	-0.885348
0.289400	-0.903849
0.289500	-0.918455
0.289600	-1.016154
0.289700	-1.061271
0.289800	-1.047314
0.289900	-1.034655
0.290000	-1.013233
0.290100	-0.922350
0.290200	-0.931763
0.290300	-0.928192
0.290400	-0.921701
0.290500	-0.912288
0.290600	-0.909042
0.290700	-0.894111
0.290800	-0.888918
0.290900	-0.891190
0.291000	-0.886321
0.291100	-0.883400
0.291200	-0.910016
0.291300	-0.905796
0.291400	-0.944097
0.291500	-0.961624
0.291600	-1.010961
0.291700	-1.068087
0.291800	-1.078474
0.291900	-1.247257
0.292000	-1.522827
0.292100	-1.704593
0.292200	-1.575085
0.292300	-1.408899
0.292400	-1.403056
0.292500	-1.587419
0.292600	-1.903238
0.292700	-2.093119
0.292800	-2.090847
0.292900	-1.918493
0.293000	-1.883114
0.293100	-1.976594
0.293200	-2.200556
0.293300	-2.392709
0.293400	-2.476127
0.293500	-2.489111
0.293600	-2.445941
0.293700	-2.463469
0.293800	-2.555975
0.293900	-2.612128
0.294000	-2.693923
0.294100	-2.695546
0.294200	-2.682238
0.294300	-2.714696
0.294400	-2.821484
0.294500	-2.820186
0.294600	-2.789675
0.294700	-2.837064
0.294800	-2.876339
0.294900	-2.906850
0.295000	-2.830573
0.295100	-2.672500
0.295200	-2.582915
0.295300	-2.696195
0.295400	-2.884778
0.295500	-3.026297
0.295600	-2.963003
0.295700	-2.779938
0.295800	-2.636796
0.295900	-2.586161
0.296000	-2.748128
0.296100	-2.895814
0.296200	-2.962029
0.296300	-2.915614
0.296400	-2.783184
0.296500	-2.723135
0.296600	-2.727030
0.296700	-2.748778
0.296800	-2.748453
0.296900	-2.722162
0.297000	-2.697169
0.297100	-2.608882
0.297200	-2.579345
0.297300	-2.539097
0.297400	-2.412184
0.297500	-2.320327
0.297600	-2.279754
0.297700	-2.258332
0.297800	-2.259630
0.297900	-2.140184
0.298000	-1.972699
0.298100	-1.903563
0.298200	-1.676355
0.298300	-1.746465
0.298400	-1.732508
0.298500	-1.675056
0.298600	-1.576059
0.298700	-1.485176
0.298800	-1.399810
0.298900	-1.340412
0.299000	-1.386503
0.299100	-1.368651
0.299200	-1.408250
0.299300	-1.374818
0.299400	-1.407276
0.299500	-1.344956
0.299600	-1.331324
0.299700	-1.311524
0.299800	-1.286531
0.299900	-1.376765
0.300000	-1.371896
0.300100	-1.343982
0.300200	-1.227457
0.300300	-1.056402
0.300400	-0.850617
0.300500	-0.857109
0.300600	-1.376440
0.300700	-1.415066
0.300800	-1.404030
0.300900	-1.104116
0.301000	-1.043744
0.301100	-0.989863
0.301200	-1.131056
0.301300	-1.325156
0.301400	-1.327753
0.301500	-1.190455
0.301600	-1.110283
0.301700	-1.047314
0.301800	-1.063543
0.301900	-1.078474
0.302000	-1.197596
0.302100	-1.149233
0.302200	-1.183639
0.302300	-1.159295
0.302400	-1.176173
0.302500	-1.199868
0.302600	-1.183639
0.302700	-1.258293
0.302800	-1.351448
0.302900	-1.330674
0.303000	-1.361185
0.303100	-1.327753
0.303200	-1.241090
0.303300	-1.291400
0.303400	-1.358913
0.303500	-1.596832
0.303600	-1.662722
0.303700	-1.569567
0.303800	-1.349825
0.303900	-1.337166
0.304000	-1.468946
0.304100	-1.647467
0.304200	-1.789634
0.304300	-1.734455
0.304400	-1.598455
0.304500	-1.501080
0.304600	-1.535161
0.304700	-1.646169
0.304800	-1.768212
0.304900	-1.716928
0.305000	-1.744192
0.305100	-1.697777
0.305200	-1.787687
0.305300	-1.803267
0.305400	-1.803267
0.305500	-1.756527
0.305600	-1.775352
0.305700	-1.834102
0.305800	-1.861691
0.305900	-1.828259
0.306000	-1.793529
0.306100	-1.747114
0.306200	-1.760746
0.306300	-1.877921
0.306400	-1.896097
0.306500	-1.885061
0.306600	-1.899668
0.306700	-1.794827
0.306800	-1.859744
0.306900	-1.862990
0.307000	-1.872078
0.307100	-1.878245
0.307200	-1.899668
0.307300	-1.920441
0.307400	-1.950303
0.307500	-1.929529
0.307600	-1.922064
0.307700	-1.953224
0.307800	-1.972374
0.307900	-1.930828
0.308000	-1.921090
0.308100	-1.934398
0.308200	-1.948680
0.308300	-1.988928
0.308400	-2.004183
0.308500	-2.017816
0.308600	-2.133043
0.308700	-2.385244
0.308800	-2.403421
0.308900	-2.195363
0.309000	-2.044432
0.309100	-2.039563
0.309200	-2.215811
0.309300	-2.484567
0.309400	-2.566037
0.309500	-2.464118
0.309600	-2.305396
0.309700	-2.222303
0.309800	-2.308967
0.309900	-2.500471
0.310000	-2.630954
0.310100	-2.573502
0.310200	-2.534552
0.310300	-2.527412
0.310400	-2.551755
0.310500	-2.603364
0.310600	-2.614725
0.310700	-2.626734
0.310800	-2.632252
0.310900	-2.637770
0.311000	-2.718591
0.311100	-2.814344
0.311200	-2.748778
0.311300	-2.748778
0.311400	-2.765007
0.311500	-2.839012
0.311600	-2.857838
0.311700	-2.766305
0.311800	-2.641990
0.311900	-2.618620
0.312000	-2.737417
0.312100	-2.943203
0.312200	-3.022077
0.312300	-2.975662
0.312400	-2.807527
0.312500	-2.687431
0.312600	-2.733198
0.312700	-2.936387
0.312800	-3.113610
0.312900	-3.133410
0.313000	-3.007471
0.313100	-2.902955
0.313200	-2.843881
0.313300	-2.904902
0.313400	-2.957810
0.313500	-2.991242
0.313600	-2.968196
0.313700	-2.947098
0.313800	-2.884454
0.313900	-2.816291
0.314000	-2.754296
0.314100	-2.624137
0.314200	-2.551431
0.314300	-2.579020
0.314400	-2.548185
0.314500	-2.560194
0.314600	-2.401149
0.314700	-2.271964
0.314800	-2.112269
0.314900	-2.061310
0.315000	-2.071047
0.315100	-2.047353
0.315200	-1.976269
0.315300	-1.891878
0.315400	-1.778598
0.315500	-1.709462
0.315600	-1.675706
0.315700	-1.695181
0.315800	-1.708164
0.315900	-1.682846
0.316000	-1.687391
0.316100	-1.689987
0.316200	-1.623123
0.316300	-1.660450
0.316400	-1.605271
0.316500	-1.680899
0.316600	-1.725691
0.316700	-1.779572
0.316800	-1.736727
0.316900	-1.649090
0.317000	-1.429023
0.317100	-1.159295
0.317200	-1.343982
0.317300	-1.762045
0.317400	-1.657854
0.317500	-1.582875
0.317600	-1.178770
0.317700	-1.135925
0.317800	-1.143715
0.317900	-1.389748
0.318000	-1.405977
0.318100	-1.396889
0.318200	-1.183314
0.318300	-1.060947
0.318400	-0.977529
0.318500	-1.041147
0.318600	-1.065815
0.318700	-1.109309
0.318800	-1.120994
0.318900	-1.070035
0.319000	-1.064842
0.319100	-1.055753
0.319200	-1.059648
0.319300	-1.064517
0.319400	-1.103467
0.319500	-1.225185
0.319600	-1.260565
0.319700	-1.282636
0.319800	-1.363133
0.319900	-1.268030
0.320000	-1.273872
0.320100	-1.290751
0.320200	-1.603648
0.320300	-1.614359
0.320400	-1.482904
0.320500	-1.264135
0.320600	-1.222913
0.320700	-1.398512
0.320800	-1.722121
0.320900	-1.774379
0.321000	-1.698102
0.321100	-1.492966
0.321200	-1.425128
0.321300	-1.580278
0.321400	-1.715954
0.321500	-1.802617
0.321600	-1.752307
0.321700	-1.741596
0.321800	-1.744517
0.321900	-1.853577
0.322000	-1.930503
0.322100	-1.987305
0.322200	-1.959391
0.322300	-1.936346
0.322400	-1.943811
0.322500	-2.004183
0.322600	-1.996069
0.322700	-2.011973
0.322800	-2.030799
0.322900	-2.099286
0.323000	-2.233988
0.323100	-2.251516
0.323200	-2.265148
0.323300	-2.289167
0.323400	-2.206074
0.323500	-2.247945
0.323600	-2.228146
0.323700	-2.230742
0.323800	-2.225874
0.323900	-2.217434
0.324000	-2.223277
0.324100	-2.200232
0.324200	-2.177511
0.324300	-2.186274
0.324400	-2.166150
0.324500	-2.170694
0.324600	-2.151219
0.324700	-2.136613
0.324800	-2.165501
0.324900	-2.179783
0.325000	-2.258332
0.325100	-2.257358
0.325200	-2.315783
0.325300	-2.487163
0.325400	-2.736443
0.325500	-2.729952
0.325600	-2.477426
0.325700	-2.317081
0.325800	-2.327468
0.325900	-2.639717
0.326000	-2.872120
0.326100	-2.941580
0.326200	-2.801036
0.326300	-2.639068
0.326400	-2.629980
0.326500	-2.833819
0.326600	-3.031815
0.326700	-3.116856
0.326800	-3.103873
0.326900	-3.081801
0.327000	-3.091214
0.327100	-3.157754
0.327200	-3.201248
0.327300	-3.283368
0.327400	-3.342442
0.327500	-3.357049
0.327600	-3.373927
0.327700	-3.423913
0.327800	-3.429431
0.327900	-3.458319
0.328000	-3.493050
0.328100	-3.498892
0.328200	-3.521613
0.328300	-3.505708
0.328400	-3.452801
0.328500	-3.303817
0.328600	-3.325239
0.328700	-3.474873
0.328800	-3.633920
0.328900	-3.710197
0.329000	-3.607628
0.329100	-3.351206
0.329200	-3.222671
0.329300	-3.318748
0.329400	-3.510253
0.329500	-3.638464
0.329600	-3.569976
0.329700	-3.442414
0.329800	-3.376848
0.329900	-3.353154
0.330000	-3.362242
0.330100	-3.372629
0.330200	-3.365488
0.330300	-3.364514
0.330400	-3.311282
0.330500	-3.248313
0.330600	-3.169763
0.330700	-3.024349
0.330800	-2.928597
0.330900	-2.877313
0.331000	-2.861733
0.331100	-2.824730
0.331200	-2.784806
0.331300	-2.617970
0.331400	-2.557598
0.331500	-2.370638
0.331600	-2.385244
0.331700	-2.370313
0.331800	-2.378752
0.331900	-2.336232
0.332000	-2.287869
0.332100	-2.195687
0.332200	-2.130446
0.332300	-2.156088
0.332400	-2.195363
0.332500	-2.190169
0.332600	-2.238857
0.332700	-2.213864
0.332800	-2.265473
0.332900	-2.184976
0.333000	-2.260604
0.333100	-2.227821
0.333200	-2.308642
0.333300	-2.361549
0.333400	-2.367392
0.333500	-2.322599
0.333600	-2.155764
0.333700	-1.860069
0.333800	-1.850006
0.333900	-2.057740
0.334000	-2.426141
0.334100	-2.205100
0.334200	-2.106427
0.334300	-1.814627
0.334400	-1.823066
0.334500	-1.912326
0.334600	-2.039563
0.334700	-2.084680
0.334800	-1.961663
0.334900	-1.834751
0.335000	-1.712059
0.335100	-1.747438
0.335200	-1.745491
0.335300	-1.807162
0.335400	-1.741920
0.335500	-1.744192
0.335600	-1.737376
0.335700	-1.736403
0.335800	-1.751982
0.335900	-1.734130
0.336000	-1.784441
0.336100	-1.892202
0.336200	-1.902589
0.336300	-1.961988
0.336400	-1.888632
0.336500	-1.892851
0.336600	-1.806188
0.336700	-1.862016
0.336800	-2.053195
0.336900	-2.302151
0.337000	-2.242427
0.337100	-2.108699
0.337200	-1.897396
0.337300	-1.972374
0.337400	-2.144079
0.337500	-2.408614
0.337600	-2.364146
0.337700	-2.233339
0.337800	-2.102857
0.337900	-2.111945
0.338000	-2.250542
0.338100	-2.327144
0.338200	-2.293062
0.338300	-2.322275
0.338400	-2.311888
0.338500	-2.393034
0.338600	-2.451459
0.338700	-2.523192
0.338800	-2.560519
0.338900	-2.514428
0.339000	-2.572204
0.339100	-2.646534
0.339200	-2.664061
0.339300	-2.647507
0.339400	-2.644911
0.339500	-2.627383
0.339600	-2.724758
0.339700	-2.834468
0.339800	-2.851346
0.339900	-2.832520
0.340000	-2.694897
0.340100	-2.759489
0.340200	-2.791947
0.340300	-2.813045
0.340400	-2.829924
0.340500	-2.821160
0.340600	-2.855566
0.340700	-2.829274
0.340800	-2.853943
0.340900	-2.867900
0.341000	-2.876664
0.341100	-2.918535
0.341200	-2.897437
0.341300	-2.943528
0.341400	-2.918210
0.341500	-2.987022
0.341600	-2.951967
0.341700	-3.009419
0.341800	-3.036684
0.341900	-3.098679
0.342000	-3.359970
0.342100	-3.511551
0.342200	-3.467407
0.342300	-3.203195
0.342400	-3.132436
0.342500	-3.275902
0.342600	-3.581986
0.342700	-3.785176
0.342800	-3.760183
0.342900	-3.603084
0.343000	-3.475522
0.343100	-3.564458
0.343200	-3.729023
0.343300	-3.921502
0.343400	-3.981875
0.343500	-3.965321
0.343600	-3.935784
0.343700	-3.898781
0.343800	-3.986744
0.343900	-4.026668
0.344000	-4.044196
0.344100	-4.018878
0.344200	-4.033484
0.344300	-4.070487
0.344400	-4.125991
0.344500	-4.172732
0.344600	-4.103919
0.344700	-4.089962
0.344800	-4.106841
0.344900	-4.154879
0.345000	-4.121123
0.345100	-3.997131
0.345200	-3.802704
0.345300	-3.893912
0.345400	-4.040301
0.345500	-4.190909
0.345600	-4.230183
0.345700	-3.997455
0.345800	-3.782580
0.345900	-3.745901
0.346000	-3.911115
0.346100	-4.074707
0.346200	-4.104893
0.346300	-3.997780
0.346400	-3.841979
0.346500	-3.800756
0.346600	-3.818284
0.346700	-3.855611
0.346800	-3.846198
0.346900	-3.786475
0.347000	-3.762131
0.347100	-3.730971
0.347200	-3.699810
0.347300	-3.670598
0.347400	-3.534921
0.347500	-3.421641
0.347600	-3.401192
0.347700	-3.398920
0.347800	-3.430080
0.347900	-3.358671
0.348000	-3.206766
0.348100	-3.172360
0.348200	-2.935089
0.348300	-2.990593
0.348400	-2.969170
0.348500	-2.959757
0.348600	-2.847451
0.348700	-2.771823
0.348800	-2.686458
0.348900	-2.646209
0.349000	-2.644911
0.349100	-2.676720
0.349200	-2.662114
0.349300	-2.640691
0.349400	-2.656596
0.349500	-2.632901
0.349600	-2.680940
0.349700	-2.616347
0.349800	-2.624787
0.349900	-2.663087
0.350000	-2.697169
0.350100	-2.744558
0.350200	-2.686458
0.350300	-2.603040
0.350400	-2.229119
0.350500	-2.306046
0.350600	-2.667956
0.350700	-2.819212
0.350800	-2.829924
0.350900	-2.472232
0.351000	-2.372585
0.351100	-2.261902
0.351200	-2.404394
0.351300	-2.621216
0.351400	-2.606935
0.351500	-2.488786
0.351600	-2.313836
0.351700	-2.228795
0.351800	-2.276509
0.351900	-2.325521
0.352000	-2.320652
0.352100	-2.282676
0.352200	-2.206723
0.352300	-2.168422
0.352400	-2.159334
0.352500	-2.187248
0.352600	-2.170045
0.352700	-2.207697
0.352800	-2.280079
0.352900	-2.286246
0.353000	-2.226198
0.353100	-2.298256
0.353200	-2.139534
0.353300	-2.093768
0.353400	-2.059038
0.353500	-2.374857
0.353600	-2.426141
0.353700	-2.371936
0.353800	-2.126551
0.353900	-1.998016
0.354000	-2.033396
0.354100	-2.263201
0.354200	-2.403421
0.354300	-2.350838
0.354400	-2.230093
0.354500	-2.115840
0.354600	-2.170694
0.354700	-2.293062
0.354800	-2.406666
0.354900	-2.382647
0.355000	-2.425817
0.355100	-2.382972
0.355200	-2.474180
0.355300	-2.560844
0.355400	-2.619269
0.355500	-2.640367
0.355600	-2.632577
0.355700	-2.663412
0.355800	-2.713723
0.355900	-2.739365
0.356000	-2.740014
0.356100	-2.754620
0.356200	-2.743584
0.356300	-2.905876
0.356400	-2.960406
0.356500	-2.980855
0.356600	-2.874067
0.356700	-2.900358
0.356800	-2.966249
0.356900	-2.997734
0.357000	-3.009419
0.357100	-3.033113
0.357200	-3.016884
0.357300	-3.055834
0.357400	-3.095109
0.357500	-3.103873
0.357600	-3.120102
0.357700	-3.132111
0.357800	-3.134059
0.357900	-3.151587
0.358000	-3.160675
0.358100	-3.185668
0.358200	-3.181124
0.358300	-3.194107
0.358400	-3.259673
0.358500	-3.281420
0.358600	-3.435273
0.358700	-3.627428
0.358800	-3.805950
0.358900	-3.616067
0.359000	-3.473250
0.359100	-3.383989
0.359200	-3.576793
0.359300	-3.905922
0.359400	-4.102297
0.359500	-4.056205
0.359600	-3.895211
0.359700	-3.787124
0.359800	-3.883850
0.359900	-4.094506
0.360000	-4.219148
0.360100	-4.259721
0.360200	-4.218823
0.360300	-4.156502
0.360400	-4.167863
0.360500	-4.233754
0.360600	-4.265239
0.360700	-4.273029
0.360800	-4.198699
0.360900	-4.194479
0.361000	-4.223367
0.361100	-4.231482
0.361200	-4.258422
0.361300	-4.153906
0.361400	-4.187338
0.361500	-4.183768
0.361600	-4.214603
0.361700	-4.162345
0.361800	-4.012386
0.361900	-3.937082
0.362000	-3.957856
0.362100	-4.116578
0.362200	-4.260045
0.362300	-4.261019
0.362400	-4.071461
0.362500	-3.904948
0.362600	-3.930591
0.362700	-4.117552
0.362800	-4.263616
0.362900	-4.279845
0.363000	-4.208436
0.363100	-4.105542
0.363200	-4.067566
0.363300	-4.076654
0.363400	-4.120798
0.363500	-4.141896
0.363600	-4.124368
0.363700	-4.088664
0.363800	-4.044196
0.363900	-4.001675
0.364000	-3.909168
0.364100	-3.778685
0.364200	-3.719610
0.364300	-3.713118
0.364400	-3.703381
0.364500	-3.731944
0.364600	-3.632621
0.364700	-3.489155
0.364800	-3.485909
0.364900	-3.271034
0.365000	-3.321993
0.365100	-3.272007
0.365200	-3.241496
0.365300	-3.146069
0.365400	-3.060054
0.365500	-2.991891
0.365600	-2.972741
0.365700	-2.963003
0.365800	-2.996760
0.365900	-2.942554
0.366000	-3.003901
0.366100	-2.936712
0.366200	-2.963652
0.366300	-2.884778
0.366400	-2.906525
0.366500	-2.891270
0.366600	-2.902955
0.366700	-2.894191
0.366800	-2.966898
0.366900	-2.852644
0.367000	-2.619593
0.367100	-2.388165
0.367200	-2.504691
0.367300	-2.776043
0.367400	-2.938335
0.367500	-2.708854
0.367600	-2.533579
0.367700	-2.338504
0.367800	-2.359602
0.367900	-2.522543
0.368000	-2.614400
0.368100	-2.601092
0.368200	-2.476127
0.368300	-2.314485
0.368400	-2.284948
0.368500	-2.236260
0.368600	-2.365769
0.368700	-2.290141
0.368800	-2.325196
0.368900	-2.282026
0.369000	-2.315134
0.369100	-2.294361
0.369200	-2.261578
0.369300	-2.229119
0.369400	-2.293387
0.369500	-2.468986
0.369600	-2.406017
0.369700	-2.495278
0.369800	-2.418676
0.369900	-2.375506
0.370000	-2.364795
0.370100	-2.382323
0.370200	-2.724758
0.370300	-2.696195
0.370400	-2.627708
0.370500	-2.401798
0.370600	-2.363821
0.370700	-2.509235
0.370800	-2.791298
0.370900	-2.889322
0.371000	-2.784157
0.371100	-2.635498
0.371200	-2.578047
0.371300	-2.717293
0.371400	-2.839012
0.371500	-2.904902
0.371600	-2.845179
0.371700	-2.848425
0.371800	-2.801685
0.371900	-2.903929
0.372000	-2.968196
0.372100	-3.038307
0.372200	-3.006173
0.372300	-2.986373
0.372400	-3.020454
0.372500	-3.073362
0.372600	-3.071090
0.372700	-3.049018
0.372800	-3.059080
0.372900	-3.089266
0.373000	-3.247664
0.373100	-3.292781
0.373200	-3.288886
0.373300	-3.102574
0.373400	-3.158727
0.373500	-3.230136
0.373600	-3.234031
0.373700	-3.222671
0.373800	-3.226890
0.373900	-3.235978
0.374000	-3.273630
0.374100	-3.271358
0.374200	-3.294728
0.374300	-3.268112
0.374400	-3.290833
0.374500	-3.272981
0.374600	-3.290509
0.374700	-3.225916
0.374800	-3.244418
0.374900	-3.251559
0.375000	-3.285315
0.375100	-3.297974
0.375200	-3.279148
0.375300	-3.495322
0.375400	-3.687151
0.375500	-3.728049
0.375600	-3.506682
0.375700	-3.340170
0.375800	-3.331406
0.375900	-3.549527
0.376000	-3.865998
0.376100	-3.912414
0.376200	-3.748498
0.376300	-3.560888
0.376400	-3.545957
0.376500	-3.658913
0.376600	-3.863401
0.376700	-3.957207
0.376800	-3.927345
0.376900	-3.866647
0.377000	-3.846848
0.377100	-3.866323
0.377200	-3.926696
0.377300	-3.945197
0.377400	-3.940328
0.377500	-3.926696
0.377600	-3.943574
0.377700	-4.042248
0.377800	-4.063671
0.377900	-4.035756
0.378000	-4.018878
0.378100	-4.051337
0.378200	-4.107165
0.378300	-4.141571
0.378400	-4.081523
0.378500	-3.929617
0.378600	-3.922151
0.378700	-4.006219
0.378800	-4.178899
0.378900	-4.309383
0.379000	-4.210708
0.379100	-3.986095
0.379200	-3.902027
0.379300	-4.008167
0.379400	-4.209085
0.379500	-4.350280
0.379600	-4.323015
0.379700	-4.227911
0.379800	-4.172407
0.379900	-4.170784
0.380000	-4.239921
0.380100	-4.286012
0.380200	-4.276275
0.380300	-4.231806
0.380400	-4.193505
0.380500	-4.162345
0.380600	-4.122096
0.380700	-4.021799
0.380800	-3.881254
0.380900	-3.833215
0.381000	-3.810494
0.381100	-3.814064
0.381200	-3.790045
0.381300	-3.617041
0.381400	-3.527780
0.381500	-3.482663
0.381600	-3.325239
0.381700	-3.327836
0.381800	-3.312905
0.381900	-3.218451
0.382000	-3.097706
0.382100	-3.020130
0.382200	-2.948072
0.382300	-2.897762
0.382400	-2.947098
0.382500	-2.940607
0.382600	-2.906525
0.382700	-2.950344
0.382800	-2.947098
0.382900	-2.875041
0.383000	-2.927299
0.383100	-2.856864
0.383200	-2.961056
0.383300	-2.912693
0.383400	-3.030517
0.383500	-2.950669
0.383600	-2.865628
0.383700	-2.580319
0.383800	-2.519297
0.383900	-2.703336
0.384000	-3.076283
0.384100	-3.103548
0.384200	-2.862382
0.384300	-2.598171
0.384400	-2.520271
0.384500	-2.574801
0.384600	-2.862707
0.384700	-2.880234
0.384800	-2.842582
0.384900	-2.589082
0.385000	-2.607908
0.385100	-2.566362
0.385200	-2.655297
0.385300	-2.734171
0.385400	-2.692949
0.385500	-2.700739
0.385600	-2.677369
0.385700	-2.692300
0.385800	-2.705608
0.385900	-2.760787
0.386000	-2.839012
0.386100	-2.892568
0.386200	-2.953266
0.386300	-2.925676
0.386400	-3.050965
0.386500	-2.975986
0.386600	-3.000330
0.386700	-3.046097
0.386800	-3.166842
0.386900	-3.388858
0.387000	-3.354127
0.387100	-3.247988
0.387200	-3.002278
0.387300	-3.017533
0.387400	-3.168789
0.387500	-3.382691
0.387600	-3.354776
0.387700	-3.221372
0.387800	-3.044149
0.387900	-2.979232
0.388000	-3.087319
0.388100	-3.147367
0.388200	-3.162947
0.388300	-3.120426
0.388400	-3.077257
0.388500	-3.098679
0.388600	-3.159052
0.388700	-3.186966
0.388800	-3.225592
0.388900	-3.199950
0.389000	-3.248637
0.389100	-3.273955
0.389200	-3.284991
0.389300	-3.217802
0.389400	-3.186966
0.389500	-3.181448
0.389600	-3.281745
0.389700	-3.375550
0.389800	-3.360294
0.389900	-3.329459
0.390000	-3.212933
0.390100	-3.262594
0.390200	-3.284017
0.390300	-3.261296
0.390400	-3.259673
0.390500	-3.252532
0.390600	-3.248637
0.390700	-3.248313
0.390800	-3.200274
0.390900	-3.185668
0.391000	-3.215530
0.391100	-3.219749
0.391200	-3.243444
0.391300	-3.247339
0.391400	-3.265516
0.391500	-3.316475
0.391600	-3.330433
0.391700	-3.395350
0.391800	-3.411254
0.391900	-3.521938
0.392000	-3.755964
0.392100	-4.009790
0.392200	-3.919879
0.392300	-3.730971
0.392400	-3.524534
0.392500	-3.629375
0.392600	-3.926696
0.392700	-4.148388
0.392800	-4.163968
0.392900	-3.982200
0.393000	-3.811792
0.393100	-3.793615
0.393200	-3.994534
0.393300	-4.145791
0.393400	-4.206489
0.393500	-4.172407
0.393600	-4.111710
0.393700	-4.059776
0.393800	-4.081848
0.393900	-4.132158
0.394000	-4.163319
0.394100	-4.150011
0.394200	-4.130536
0.394300	-4.171109
0.394400	-4.225639
0.394500	-4.249334
0.394600	-4.208112
0.394700	-4.173056
0.394800	-4.232456
0.394900	-4.270108
0.395000	-4.302242
0.395100	-4.157152
0.395200	-4.083146
0.395300	-4.093208
0.395400	-4.216551
0.395500	-4.403513
0.395600	-4.476220
0.395700	-4.322041
0.395800	-4.095480
0.395900	-4.034783
0.396000	-4.166889
0.396100	-4.355474
0.396200	-4.444086
0.396300	-4.362290
0.396400	-4.225639
0.396500	-4.167214
0.396600	-4.168512
0.396700	-4.207462
0.396800	-4.232131
0.396900	-4.228885
0.397000	-4.224666
0.397100	-4.196102
0.397200	-4.174355
0.397300	-4.054582
0.397400	-3.937082
0.397500	-3.879955
0.397600	-3.839382
0.397700	-3.890667
0.397800	-3.883201
0.397900	-3.847172
0.398000	-3.673194
0.398100	-3.618989
0.398200	-3.583933
0.398300	-3.469355
0.398400	-3.438195
0.398500	-3.434300
0.398600	-3.355101
0.398700	-3.242470
0.398800	-3.139901
0.398900	-3.065247
0.399000	-3.094784
0.399100	-3.071739
0.399200	-3.081476
0.399300	-3.024025
0.399400	-3.107118
0.399500	-2.978583
0.399600	-3.030841
0.399700	-2.918860
0.399800	-2.991242
0.399900	-2.939308
0.400000	-2.966249
0.400100	-3.022727
0.400200	-2.925676
0.400300	-2.774744
0.400400	-2.439774
0.400500	-2.453406
0.400600	-2.739689
0.400700	-3.040903
0.400800	-2.904578
0.400900	-2.641340
0.401000	-2.498524
0.401100	-2.374533
0.401200	-2.611154
0.401300	-2.667632
0.401400	-2.833169
0.401500	-2.629006
0.401600	-2.508261
0.401700	-2.367067
0.401800	-2.417702
0.401900	-2.359277
0.402000	-2.443669
0.402100	-2.421922
0.402200	-2.361225
0.402300	-2.348891
0.402400	-2.341425
0.402500	-2.352136
0.402600	-2.320976
0.402700	-2.307669
0.402800	-2.368366
0.402900	-2.406017
0.403000	-2.534552
0.403100	-2.541369
0.403200	-2.455029
0.403300	-2.455354
0.403400	-2.414456
0.403500	-2.719565
0.403600	-2.874392
0.403700	-2.828950
0.403800	-2.666333
0.403900	-2.416729
0.404000	-2.565063
0.404100	-2.743909
0.404200	-2.990917
0.404300	-2.969495
0.404400	-2.796816
0.404500	-2.629655
0.404600	-2.609856
0.404700	-2.781236
0.404800	-2.874067
0.404900	-2.843556
0.405000	-2.833494
0.405100	-2.753971
0.405200	-2.808501
0.405300	-2.835766
0.405400	-2.889972
0.405500	-2.878611
0.405600	-2.857189
0.405700	-2.885103
0.405800	-2.894191
0.405900	-2.922430
0.406000	-2.897112
0.406100	-2.887050
0.406200	-2.880234
0.406300	-2.991891
0.406400	-3.088293
0.406500	-3.093810
0.406600	-3.047720
0.406700	-2.941256
0.406800	-2.994163
0.406900	-3.010392
0.407000	-3.020454
0.407100	-3.038956
0.407200	-3.050965
0.407300	-3.056159
0.407400	-3.055834
0.407500	-3.078230
0.407600	-3.087968
0.407700	-3.123997
0.407800	-3.158078
0.407900	-3.154183
0.408000	-3.175606
0.408100	-3.214231
0.408200	-3.263244
0.408300	-3.299922
0.408400	-3.353478
0.408500	-3.454424
0.408600	-3.542062
0.408700	-3.860156
0.408800	-3.969865
0.408900	-3.881254
0.409000	-3.645605
0.409100	-3.617690
0.409200	-3.755314
0.409300	-4.121772
0.409400	-4.323664
0.409500	-4.313927
0.409600	-4.100998
0.409700	-4.008816
0.409800	-4.056205
0.409900	-4.252255
0.410000	-4.492125
0.410100	-4.486607
0.410200	-4.465833
0.410300	-4.431427
0.410400	-4.452525
0.410500	-4.515170
0.410600	-4.591448
0.410700	-4.611248
0.410800	-4.598589
0.410900	-4.567429
0.411000	-4.642084
0.411100	-4.704080
0.411200	-4.712844
0.411300	-4.708624
0.411400	-4.723231
0.411500	-4.801132
0.411600	-4.847548
0.411700	-4.849820
0.411800	-4.710247
0.411900	-4.608002
0.412000	-4.734591
0.412100	-4.884875
0.412200	-5.075733
0.412300	-5.052038
0.412400	-4.844626
0.412500	-4.642733
0.412600	-4.601835
0.412700	-4.767375
0.412800	-4.951740
0.412900	-4.986147
0.413000	-4.877085
0.413100	-4.699536
0.413200	-4.623583
0.413300	-4.603458
0.413400	-4.606055
0.413500	-4.631697
0.413600	-4.585281
0.413700	-4.523610
0.413800	-4.442138
0.413900	-4.382090
0.414000	-4.241219
0.414100	-4.076005
0.414200	-3.980901
0.414300	-3.938381
0.414400	-3.926046
0.414500	-3.932214
0.414600	-3.785825
0.414700	-3.604707
0.414800	-3.548229
0.414900	-3.328485
0.415000	-3.350557
0.415100	-3.303492
0.415200	-3.275578
0.415300	-3.183396
0.415400	-3.102899
0.415500	-3.011366
0.415600	-2.978259
0.415700	-2.982803
0.415800	-3.008120
0.415900	-2.985075
0.416000	-3.015586
0.416100	-3.010392
0.416200	-2.993189
0.416300	-2.914315
0.416400	-2.943203
0.416500	-2.937036
0.416600	-3.009743
0.416700	-3.012340
0.416800	-2.995137
0.416900	-2.908148
0.417000	-2.647832
0.417100	-2.532280
0.417200	-2.446266
0.417300	-2.963003
0.417400	-3.064598
0.417500	-2.955862
0.417600	-2.751050
0.417700	-2.547536
0.417800	-2.610505
0.417900	-2.711775
0.418000	-2.991242
0.418100	-2.923079
0.418200	-2.851346
0.418300	-2.635173
0.418400	-2.554677
0.418500	-2.640042
0.418600	-2.666009
0.418700	-2.731250
0.418800	-2.750725
0.418900	-2.722162
0.419000	-2.727355
0.419100	-2.704959
0.419200	-2.743909
0.419300	-2.709178
0.419400	-2.804281
0.419500	-2.881857
0.419600	-2.894840
0.419700	-2.958134
0.419800	-2.912693
0.419900	-2.857838
0.420000	-2.814019
0.420100	-2.887050
0.420200	-3.178852
0.420300	-3.194107
0.420400	-3.133085
0.420500	-2.957485
0.420600	-2.813045
0.420700	-2.957485
0.420800	-3.136006
0.420900	-3.261945
0.421000	-3.229811
0.421100	-3.072388
0.421200	-2.945800
0.421300	-2.987671
0.421400	-3.079529
0.421500	-3.141524
0.421600	-3.110364
0.421700	-3.128866
0.421800	-3.078880
0.421900	-3.143796
0.422000	-3.160350
0.422100	-3.213258
0.422200	-3.210012
0.422300	-3.203520
0.422400	-3.242470
0.422500	-3.262594
0.422600	-3.269735
0.422700	-3.265516
0.422800	-3.283043
0.422900	-3.317125
0.423000	-3.465135
0.423100	-3.495322
0.423200	-3.511226
0.423300	-3.430080
0.423400	-3.361917
0.423500	-3.427808
0.423600	-3.436572
0.423700	-3.414825
0.423800	-3.414500
0.423900	-3.420343
0.424000	-3.409956
0.424100	-3.399245
0.424200	-3.395999
0.424300	-3.397946
0.424400	-3.386910
0.424500	-3.412228
0.424600	-3.414500
0.424700	-3.441441
0.424800	-3.424887
0.424900	-3.455398
0.425000	-3.449231
0.425100	-3.484935
0.425200	-3.533947
0.425300	-3.670922
0.425400	-3.959803
0.425500	-3.964672
0.425600	-3.830943
0.425700	-3.592697
0.425800	-3.582960
0.425900	-3.790045
0.426000	-4.127939
0.426100	-4.187014
0.426200	-4.118201
0.426300	-3.918581
0.426400	-3.828022
0.426500	-3.988042
0.426600	-4.118526
0.426700	-4.283091
0.426800	-4.257124
0.426900	-4.174355
0.427000	-4.130211
0.427100	-4.156502
0.427200	-4.200971
0.427300	-4.211033
0.427400	-4.204541
0.427500	-4.201620
0.427600	-4.233754
0.427700	-4.313602
0.427800	-4.323664
0.427900	-4.320094
0.428000	-4.307435
0.428100	-4.364562
0.428200	-4.470702
0.428300	-4.477518
0.428400	-4.404162
0.428500	-4.230833
0.428600	-4.198049
0.428700	-4.327559
0.428800	-4.519066
0.428900	-4.662208
0.429000	-4.599888
0.429100	-4.360992
0.429200	-4.238298
0.429300	-4.293153
0.429400	-4.458368
0.429500	-4.630074
0.429600	-4.631373
0.429700	-4.542111
0.429800	-4.457719
0.429900	-4.437594
0.430000	-4.455771
0.430100	-4.484984
0.430200	-4.491800
0.430300	-4.497318
0.430400	-4.490502
0.430500	-4.462912
0.430600	-4.431752
0.430700	-4.320418
0.430800	-4.206489
0.430900	-4.181820
0.431000	-4.218823
0.431100	-4.235377
0.431200	-4.265563
0.431300	-4.132483
0.431400	-4.023098
0.431500	-4.029265
0.431600	-3.835162
0.431700	-3.874113
0.431800	-3.823802
0.431900	-3.743954
0.432000	-3.643657
0.432100	-3.550177
0.432200	-3.472925
0.432300	-3.418395
0.432400	-3.371979
0.432500	-3.337573
0.432600	-3.303492
0.432700	-3.310958
0.432800	-3.300571
0.432900	-3.182422
0.433000	-3.220074
0.433100	-3.070116
0.433200	-3.171711
0.433300	-3.060378
0.433400	-3.158078
0.433500	-2.987996
0.433600	-2.959108
0.433700	-2.534228
0.433800	-2.476776
0.433900	-2.555975
0.434000	-2.921132
0.434100	-2.959433
0.434200	-2.725083
0.434300	-2.547211
0.434400	-2.340127
0.434500	-2.473855
0.434600	-2.630305
0.434700	-2.748453
0.434800	-2.638095
0.434900	-2.475154
0.435000	-2.389788
0.435100	-2.367392
0.435200	-2.479049
0.435300	-2.567335
0.435400	-2.460223
0.435500	-2.451784
0.435600	-2.404719
0.435700	-2.417378
0.435800	-2.405368
0.435900	-2.381024
0.436000	-2.356031
0.436100	-2.516700
0.436200	-2.462170
0.436300	-2.516700
0.436400	-2.515402
0.436500	-2.503392
0.436600	-2.345320
0.436700	-2.414781
0.436800	-2.446266
0.436900	-2.770525
0.437000	-2.670878
0.437100	-2.581942
0.437200	-2.307993
0.437300	-2.277158
0.437400	-2.408939
0.437500	-2.691326
0.437600	-2.754296
0.437700	-2.672176
0.437800	-2.472557
0.437900	-2.405044
0.438000	-2.540070
0.438100	-2.669255
0.438200	-2.690677
0.438300	-2.674123
0.438400	-2.593302
0.438500	-2.618620
0.438600	-2.702687
0.438700	-2.766305
0.438800	-2.772148
0.438900	-2.706906
0.439000	-2.695546
0.439100	-2.737742
0.439200	-2.767603
0.439300	-2.779288
0.439400	-2.767603
0.439500	-2.778315
0.439600	-2.839012
0.439700	-3.001304
0.439800	-3.023700
0.439900	-3.034087
0.440000	-2.910420
0.440100	-2.972091
0.440200	-3.045447
0.440300	-3.040254
0.440400	-3.049018
0.440500	-3.069467
0.440600	-3.094135
0.440700	-3.086994
0.440800	-3.109715
0.440900	-3.072063
0.441000	-3.105496
0.441100	-3.117505
0.441200	-3.120426
0.441300	-3.123348
0.441400	-3.135357
0.441500	-3.171062
0.441600	-3.185992
0.441700	-3.222995
0.441800	-3.265840
0.441900	-3.290509
0.442000	-3.526157
0.442100	-3.721882
0.442200	-3.764403
0.442300	-3.457670
0.442400	-3.320370
0.442500	-3.309010
0.442600	-3.634244
0.442700	-3.871841
0.442800	-3.904299
0.442900	-3.753691
0.443000	-3.556019
0.443100	-3.560239
0.443200	-3.723180
0.443300	-3.951689
0.443400	-3.997780
0.443500	-3.961102
0.443600	-3.923125
0.443700	-3.898132
0.443800	-3.972138
0.443900	-4.051012
0.444000	-4.095805
0.444100	-4.066917
0.444200	-4.060425
0.444300	-4.089962
0.444400	-4.183768
0.444500	-4.246413
0.444600	-4.202269
0.444700	-4.222069
0.444800	-4.261993
0.444900	-4.361641
0.445000	-4.342166
0.445100	-4.287635
0.445200	-4.132483
0.445300	-4.153906
0.445400	-4.300619
0.445500	-4.541137
0.445600	-4.686877
0.445700	-4.576842
0.445800	-4.391828
0.445900	-4.315225
0.446000	-4.455447
0.446100	-4.705054
0.446200	-4.872541
0.446300	-4.870269
0.446400	-4.748549
0.446500	-4.665454
0.446600	-4.691097
0.446700	-4.761532
0.446800	-4.791070
0.446900	-4.780358
0.447000	-4.742057
0.447100	-4.707326
0.447200	-4.659287
0.447300	-4.573596
0.447400	-4.428506
0.447500	-4.327559
0.447600	-4.289583
0.447700	-4.278871
0.447800	-4.274652
0.447900	-4.251931
0.448000	-4.068864
0.448100	-4.011088
0.448200	-3.932538
0.448300	-3.803678
0.448400	-3.793615
0.448500	-3.784203
0.448600	-3.712794
0.448700	-3.605356
0.448800	-3.485909
0.448900	-3.419693
0.449000	-3.407684
0.449100	-3.382366
0.449200	-3.393402
0.449300	-3.312256
0.449400	-3.345039
0.449500	-3.264867
0.449600	-3.197678
0.449700	-3.222995
0.449800	-3.111663
0.449900	-3.222995
0.450000	-3.077581
0.450100	-3.161324
0.450200	-2.972416
0.450300	-2.870172
0.450400	-2.482619
0.450500	-2.397254
0.450600	-2.686782
0.450700	-2.944502
0.450800	-2.888998
0.450900	-2.531956
0.451000	-2.372585
0.451100	-2.225549
0.451200	-2.326494
0.451300	-2.603040
0.451400	-2.568958
0.451500	-2.536500
0.451600	-2.364471
0.451700	-2.324222
0.451800	-2.312862
0.451900	-2.502094
0.452000	-2.475154
0.452100	-2.538447
0.452200	-2.533903
0.452300	-2.526762
0.452400	-2.555326
0.452500	-2.588109
0.452600	-2.618295
0.452700	-2.646858
0.452800	-2.728004
0.452900	-2.806878
0.453000	-2.873418
0.453100	-2.934115
0.453200	-2.835766
0.453300	-2.814019
0.453400	-2.784806
0.453500	-3.001629
0.453600	-3.209363
0.453700	-3.132436
0.453800	-3.034412
0.453900	-2.754620
0.454000	-2.877637
0.454100	-3.009419
0.454200	-3.246690
0.454300	-3.234680
0.454400	-3.140551
0.454500	-2.953266
0.454600	-2.973714
0.454700	-3.120102
0.454800	-3.268112
0.454900	-3.268112
0.455000	-3.256752
0.455100	-3.224293
0.455200	-3.303492
0.455300	-3.339196
0.455400	-3.398595
0.455500	-3.413526
0.455600	-3.364189
0.455700	-3.388533
0.455800	-3.433975
0.455900	-3.404113
0.456000	-3.357049
0.456100	-3.331406
0.456200	-3.325564
0.456300	-3.426510
0.456400	-3.532000
0.456500	-3.499217
0.456600	-3.452152
0.456700	-3.316800
0.456800	-3.417097
0.456900	-3.448906
0.457000	-3.424887
0.457100	-3.434624
0.457200	-3.438844
0.457300	-3.474873
0.457400	-3.469679
0.457500	-3.469355
0.457600	-3.487532
0.457700	-3.500840
0.457800	-3.498892
0.457900	-3.522262
0.458000	-3.498892
0.458100	-3.496945
0.458200	-3.531026
0.458300	-3.528105
0.458400	-3.590101
0.458500	-3.583284
0.458600	-3.694617
0.458700	-3.926696
0.458800	-4.113982
0.458900	-4.018229
0.459000	-3.730321
0.459100	-3.679361
0.459200	-3.768298
0.459300	-4.076330
0.459400	-4.240246
0.459500	-4.214279
0.459600	-3.973436
0.459700	-3.863726
0.459800	-3.891640
0.459900	-4.032511
0.460000	-4.177276
0.460100	-4.167214
0.460200	-4.106841
0.460300	-3.984147
0.460400	-4.002649
0.460500	-3.996482
0.460600	-4.008816
0.460700	-4.005570
0.460800	-3.977656
0.460900	-3.936433
0.461000	-3.937731
0.461100	-3.975708
0.461200	-3.961102
0.461300	-3.962075
0.461400	-3.929941
0.461500	-3.959479
0.461600	-3.933187
0.461700	-3.950066
0.461800	-3.857559
0.461900	-3.759534
0.462000	-3.851067
0.462100	-4.012711
0.462200	-4.203892
0.462300	-4.258098
0.462400	-4.050687
0.462500	-3.872490
0.462600	-3.838408
0.462700	-3.983174
0.462800	-4.184417
0.462900	-4.279845
0.463000	-4.198049
0.463100	-4.031212
0.463200	-3.979278
0.463300	-3.988367
0.463400	-4.041599
0.463500	-4.083146
0.463600	-4.057179
0.463700	-4.028616
0.463800	-3.988367
0.463900	-3.952338
0.464000	-3.866972
0.464100	-3.721882
0.464200	-3.654044
0.464300	-3.637165
0.464400	-3.668326
0.464500	-3.654693
0.464600	-3.581012
0.464700	-3.397946
0.464800	-3.369707
0.464900	-3.163596
0.465000	-3.188265
0.465100	-3.149964
0.465200	-3.123997
0.465300	-3.000006
0.465400	-2.933790
0.465500	-2.867575
0.465600	-2.823756
0.465700	-2.884778
0.465800	-2.922430
0.465900	-2.950993
0.466000	-2.968521
0.466100	-2.978908
0.466200	-3.008445
0.466300	-2.963003
0.466400	-3.026297
0.466500	-3.034087
0.466600	-3.057782
0.466700	-3.113610
0.466800	-3.084398
0.466900	-3.154183
0.467000	-2.849723
0.467100	-2.743584
0.467200	-2.715670
0.467300	-3.179501
0.467400	-3.379120
0.467500	-3.268762
0.467600	-3.022727
0.467700	-2.768577
0.467800	-2.874392
0.467900	-2.950020
0.468000	-3.252208
0.468100	-3.229487
0.468200	-3.168465
0.468300	-2.966898
0.468400	-2.935738
0.468500	-2.942230
0.468600	-2.998058
0.468700	-3.044474
0.468800	-2.950344
0.468900	-2.958783
0.469000	-2.926974
0.469100	-2.893217
0.469200	-2.897762
0.469300	-2.930545
0.469400	-2.962678
0.469500	-3.016559
0.469600	-3.025648
0.469700	-3.087319
0.469800	-3.069791
0.469900	-2.915938
0.470000	-2.903280
0.470100	-2.870497
0.470200	-3.205468
0.470300	-3.266165
0.470400	-3.255778
0.470500	-2.980206
0.470600	-2.896788
0.470700	-2.951318
0.470800	-3.226566
0.470900	-3.376199
0.471000	-3.341468
0.471100	-3.184045
0.471200	-3.043175
0.471300	-3.065572
0.471400	-3.233057
0.471500	-3.348285
0.471600	-3.301545
0.471700	-3.347636
0.471800	-3.289860
0.471900	-3.378147
0.472000	-3.407684
0.472100	-3.464811
0.472200	-3.491751
0.472300	-3.469355
0.472400	-3.491102
0.472500	-3.504410
0.472600	-3.485584
0.472700	-3.471952
0.472800	-3.443388
0.472900	-3.457994
0.473000	-3.599513
0.473100	-3.651447
0.473200	-3.667676
0.473300	-3.582960
0.473400	-3.539790
0.473500	-3.631647
0.473600	-3.642034
0.473700	-3.667676
0.473800	-3.680660
0.473900	-3.707276
0.474000	-3.739734
0.474100	-3.732918
0.474200	-3.767324
0.474300	-3.774790
0.474400	-3.812766
0.474500	-3.788098
0.474600	-3.746551
0.474700	-3.796212
0.474800	-3.748823
0.474900	-3.800432
0.475000	-3.747200
0.475100	-3.787773
0.475200	-3.770245
0.475300	-3.889368
0.475400	-4.137676
0.475500	-4.130211
0.475600	-3.910791
0.475700	-3.593346
0.475800	-3.514148
0.475900	-3.597566
0.476000	-3.873464
0.476100	-3.971488
0.476200	-3.836136
0.476300	-3.586205
0.476400	-3.425211
0.476500	-3.496620
0.476600	-3.608926
0.476700	-3.744603
0.476800	-3.691696
0.476900	-3.654693
0.477000	-3.577766
0.477100	-3.584907
0.477200	-3.655667
0.477300	-3.659562
0.477400	-3.701433
0.477500	-3.666703
0.477600	-3.663457
0.477700	-3.733892
0.477800	-3.745577
0.477900	-3.797511
0.478000	-3.786150
0.478100	-3.825749
0.478200	-3.869893
0.478300	-3.961102
0.478400	-3.965646
0.478500	-3.847821
0.478600	-3.778685
0.478700	-3.916309
0.478800	-4.103919
0.478900	-4.294127
0.479000	-4.251282
0.479100	-4.037704
0.479200	-3.901053
0.479300	-3.949417
0.479400	-4.141247
0.479500	-4.344762
0.479600	-4.396372
0.479700	-4.324638
0.479800	-4.187663
0.479900	-4.147414
0.480000	-4.177601
0.480100	-4.237974
0.480200	-4.278222
0.480300	-4.255177
0.480400	-4.247711
0.480500	-4.190259
0.480600	-4.130860
0.480700	-4.042573
0.480800	-3.920528
0.480900	-3.869893
0.481000	-3.871516
0.481100	-3.860156
0.481200	-3.885798
0.481300	-3.727725
0.481400	-3.603733
0.481500	-3.564134
0.481600	-3.336275
0.481700	-3.387884
0.481800	-3.318748
0.481900	-3.259024
0.482000	-3.136656
0.482100	-3.016235
0.482200	-2.913017
0.482300	-2.873418
0.482400	-2.852644
0.482500	-2.866277
0.482600	-2.863680
0.482700	-2.896463
0.482800	-2.905227
0.482900	-2.824081
0.483000	-2.819212
0.483100	-2.777016
0.483200	-2.800386
0.483300	-2.833169
0.483400	-2.876339
0.483500	-2.825704
0.483600	-2.685484
0.483700	-2.435554
0.483800	-2.270991
0.483900	-2.309616
0.484000	-2.723135
0.484100	-2.757217
0.484200	-2.698467
0.484300	-2.339478
0.484400	-2.353110
0.484500	-2.221654
0.484600	-2.447239
0.484700	-2.539746
0.484800	-2.507287
0.484900	-2.349540
0.485000	-2.152518
0.485100	-2.179783
0.485200	-2.200232
0.485300	-2.252489
0.485400	-2.296957
0.485500	-2.299229
0.485600	-2.266446
0.485700	-2.270341
0.485800	-2.253139
0.485900	-2.245673
0.486000	-2.241454
0.486100	-2.252165
0.486200	-2.464118
0.486300	-2.407965
0.486400	-2.521894
0.486500	-2.441072
0.486600	-2.379401
0.486700	-2.364471
0.486800	-2.464118
0.486900	-2.766630
0.487000	-2.737417
0.487100	-2.663737
0.487200	-2.466714
0.487300	-2.409263
0.487400	-2.549159
0.487500	-2.804606
0.487600	-2.916263
0.487700	-2.850697
0.487800	-2.697169
0.487900	-2.638419
0.488000	-2.714047
0.488100	-2.848425
0.488200	-2.910420
0.488300	-2.835442
0.488400	-2.891270
0.488500	-2.871795
0.488600	-2.980531
0.488700	-3.026297
0.488800	-3.060378
0.488900	-3.025972
0.489000	-3.046097
0.489100	-3.104522
0.489200	-3.157429
0.489300	-3.149314
0.489400	-3.149639
0.489500	-3.128866
0.489600	-3.174307
0.489700	-3.369058
0.489800	-3.408008
0.489900	-3.387235
0.490000	-3.219425
0.490100	-3.248637
0.490200	-3.346013
0.490300	-3.323941
0.490400	-3.309010
0.490500	-3.300571
0.490600	-3.274929
0.490700	-3.288237
0.490800	-3.293430
0.490900	-3.293105
0.491000	-3.303817
0.491100	-3.315502
0.491200	-3.362891
0.491300	-3.389507
0.491400	-3.441116
0.491500	-3.467083
0.491600	-3.496945
0.491700	-3.569002
0.491800	-3.629051
0.491900	-3.705328
0.492000	-3.952338
0.492100	-4.243492
0.492200	-4.230508
0.492300	-4.074707
0.492400	-3.847497
0.492500	-3.864051
0.492600	-4.123070
0.492700	-4.413575
0.492800	-4.502512
0.492900	-4.325287
0.493000	-4.126316
0.493100	-4.024396
0.493200	-4.161047
0.493300	-4.332428
0.493400	-4.452850
0.493500	-4.393126
0.493600	-4.327235
0.493700	-4.287311
0.493800	-4.263291
0.493900	-4.333077
0.494000	-4.330481
0.494100	-4.313927
0.494200	-4.258422
0.494300	-4.267511
0.494400	-4.338920
0.494500	-4.301592
0.494600	-4.234403
0.494700	-4.213630
0.494800	-4.200322
0.494900	-4.246413
0.495000	-4.275626
0.495100	-4.175978
0.495200	-4.013685
0.495300	-3.938705
0.495400	-4.037379
0.495500	-4.218174
0.495600	-4.334700
0.495700	-4.194804
0.495800	-3.931564
0.495900	-3.824127
0.496000	-3.904299
0.496100	-4.101323
0.496200	-4.260045
0.496300	-4.252255
0.496400	-4.121447
0.496500	-4.026993
0.496600	-4.024396
0.496700	-4.078926
0.496800	-4.092884
0.496900	-4.084769
0.497000	-4.033809
0.497100	-3.988042
0.497200	-3.980901
0.497300	-3.927020
0.497400	-3.757262
0.497500	-3.618989
0.497600	-3.547580
0.497700	-3.556344
0.497800	-3.557967
0.497900	-3.546282
0.498000	-3.361593
0.498100	-3.279148
0.498200	-3.224943
0.498300	-3.069791
0.498400	-3.092512
0.498500	-3.081801
0.498600	-3.016235
0.498700	-2.938659
0.498800	-2.817589
0.498900	-2.792596
0.499000	-2.820835
0.499100	-2.811747
0.499200	-2.854917
0.499300	-2.793246
0.499400	-2.928597
0.499500	-2.851022
0.499600	-2.847776
0.499700	-2.826353
0.499800	-2.862707
0.499900	-2.894191
0.500000	-2.917237
0.500100	-2.976960
0.500200	-2.936387
0.500300	-2.763708
0.500400	-2.559221
0.500500	-2.419650
0.500600	-2.694572
0.500700	-2.989944
0.500800	-3.117181
0.500900	-2.899060
0.501000	-2.573827
0.501100	-2.520271
0.501200	-2.576748
0.501300	-2.771174
0.501400	-2.893542
0.501500	-2.873742
0.501600	-2.715995
0.501700	-2.583240
0.501800	-2.636472
0.501900	-2.699441
0.502000	-2.767928
0.502100	-2.795193
0.502200	-2.765007
0.502300	-2.734171
0.502400	-2.741637
0.502500	-2.765331
0.502600	-2.752348
0.502700	-2.816940
0.502800	-2.745207
0.502900	-3.006173
0.503000	-2.878936
0.503100	-3.040903
0.503200	-2.903604
0.503300	-2.806554
0.503400	-2.819537
0.503500	-2.932817
0.503600	-3.228838
0.503700	-3.110689
0.503800	-3.055834
0.503900	-2.787403
0.504000	-2.846802
0.504100	-2.967872
0.504200	-3.216503
0.504300	-3.237277
0.504400	-3.139901
0.504500	-2.949371
0.504600	-2.908798
0.504700	-3.038956
0.504800	-3.173983
0.504900	-3.182747
0.505000	-3.111338
0.505100	-3.099978
0.505200	-3.144770
0.505300	-3.222021
0.505400	-3.264542
0.505500	-3.273955
0.505600	-3.213582
0.505700	-3.218775
0.505800	-3.257726
0.505900	-3.266165
0.506000	-3.218126
0.506100	-3.194432
0.506200	-3.160350
0.506300	-3.263893
0.506400	-3.412553
0.506500	-3.437546
0.506600	-3.409307
0.506700	-3.279473
0.506800	-3.345363
0.506900	-3.426510
0.507000	-3.432677
0.507100	-3.458319
0.507200	-3.491102
0.507300	-3.508954
0.507400	-3.508954
0.507500	-3.504410
0.507600	-3.547255
0.507700	-3.545308
0.507800	-3.570950
0.507900	-3.578740
0.508000	-3.592048
0.508100	-3.562835
0.508200	-3.554072
0.508300	-3.556019
0.508400	-3.555370
0.508500	-3.585881
0.508600	-3.628726
0.508700	-3.883201
0.508800	-4.121123
0.508900	-4.007193
0.509000	-3.780957
0.509100	-3.573871
0.509200	-3.672545
0.509300	-3.919879
0.509400	-4.230183
0.509500	-4.229534
0.509600	-4.091585
0.509700	-3.890667
0.509800	-3.943249
0.509900	-4.076330
0.510000	-4.240246
0.510100	-4.279845
0.510200	-4.207462
0.510300	-4.154879
0.510400	-4.109762
0.510500	-4.152932
0.510600	-4.197725
0.510700	-4.197076
0.510800	-4.184092
0.510900	-4.142870
0.511000	-4.157476
0.511100	-4.208761
0.511200	-4.237324
0.511300	-4.188636
0.511400	-4.209410
0.511500	-4.238623
0.511600	-4.303215
0.511700	-4.288284
0.511800	-4.190909
0.511900	-4.096454
0.512000	-4.102621
0.512100	-4.214279
0.512200	-4.379493
0.512300	-4.468430
0.512400	-4.311005
0.512500	-4.104893
0.512600	-4.049714
0.512700	-4.184092
0.512800	-4.363264
0.512900	-4.482387
0.513000	-4.450902
0.513100	-4.299320
0.513200	-4.206164
0.513300	-4.203567
0.513400	-4.256800
0.513500	-4.265563
0.513600	-4.225315
0.513700	-4.170460
0.513800	-4.116254
0.513900	-4.060750
0.514000	-3.979603
0.514100	-3.820232
0.514200	-3.713118
0.514300	-3.665080
0.514400	-3.645605
0.514500	-3.619638
0.514600	-3.544659
0.514700	-3.358671
0.514800	-3.317125
0.514900	-3.074660
0.515000	-3.110040
0.515100	-3.041877
0.515200	-3.012989
0.515300	-2.887375
0.515400	-2.796167
0.515500	-2.691002
0.515600	-2.608882
0.515700	-2.525789
0.515800	-2.580643
0.515900	-2.521244
0.516000	-2.510209
0.516100	-2.498848
0.516200	-2.406666
0.516300	-2.361225
0.516400	-2.309291
0.516500	-2.316108
0.516600	-2.301501
0.516700	-2.338829
0.516800	-2.361225
0.516900	-2.254437
0.517000	-2.067477
0.517100	-1.653959
0.517200	-1.776002
0.517300	-1.973023
0.517400	-2.295010
0.517500	-2.079811
0.517600	-1.962637
0.517700	-1.673433
0.517800	-1.708164
0.517900	-1.848059
0.518000	-1.985358
0.518100	-1.994770
0.518200	-1.850006
0.518300	-1.725691
0.518400	-1.618254
0.518500	-1.692584
0.518600	-1.700698
0.518700	-1.735429
0.518800	-1.722121
0.518900	-1.667591
0.519000	-1.662722
0.519100	-1.650388
0.519200	-1.668565
0.519300	-1.633510
0.519400	-1.745166
0.519500	-1.764641
0.519600	-1.896746
0.519700	-1.975295
0.519800	-1.986980
0.519900	-1.941539
0.520000	-1.937644
0.520100	-1.954522
0.520200	-2.236909
0.520300	-2.405044
0.520400	-2.371287
0.520500	-2.247621
0.520600	-2.089224
0.520700	-2.217110
0.520800	-2.467364
0.520900	-2.661140
0.521000	-2.645885
0.521100	-2.517025
0.521200	-2.406666
0.521300	-2.451459
0.521400	-2.615049
0.521500	-2.699116
0.521600	-2.649130
0.521700	-2.634849
0.521800	-2.627383
0.521900	-2.712100
0.522000	-2.752997
0.522100	-2.748453
0.522200	-2.725083
0.522300	-2.721513
0.522400	-2.791947
0.522500	-2.858487
0.522600	-2.892568
0.522700	-2.884454
0.522800	-2.861084
0.522900	-2.877313
0.523000	-3.042851
0.523100	-3.135682
0.523200	-3.131138
0.523300	-3.117505
0.523400	-3.125620
0.523500	-3.088293
0.523600	-3.085047
0.523700	-3.067195
0.523800	-3.083748
0.523900	-3.082125
0.524000	-3.084073
0.524100	-3.071739
0.524200	-3.073362
0.524300	-3.099328
0.524400	-3.112636
0.524500	-3.123348
0.524600	-3.129190
0.524700	-3.120426
0.524800	-3.146069
0.524900	-3.167816
0.525000	-3.184370
0.525100	-3.264217
0.525200	-3.339521
0.525300	-3.481040
0.525400	-3.762455
0.525500	-3.944872
0.525600	-3.763104
0.525700	-3.606330
0.525800	-3.510577
0.525900	-3.694292
0.526000	-4.017255
0.526100	-4.185391
0.526200	-4.129886
0.526300	-3.949417
0.526400	-3.863726
0.526500	-3.963049
0.526600	-4.138975
0.526700	-4.289583
0.526800	-4.275301
0.526900	-4.241219
0.527000	-4.172407
0.527100	-4.199023
0.527200	-4.278222
0.527300	-4.313602
0.527400	-4.304189
0.527500	-4.297373
0.527600	-4.313602
0.527700	-4.383388
0.527800	-4.455771
0.527900	-4.434348
0.528000	-4.392801
0.528100	-4.389555
0.528200	-4.434348
0.528300	-4.484010
0.528400	-4.434024
0.528500	-4.306461
0.528600	-4.161696
0.528700	-4.241544
0.528800	-4.395723
0.528900	-4.569701
0.529000	-4.527505
0.529100	-4.298671
0.529200	-4.111385
0.529300	-4.105867
0.529400	-4.273353
0.529500	-4.449929
0.529600	-4.450253
0.529700	-4.329507
0.529800	-4.179223
0.529900	-4.135080
0.530000	-4.148388
0.530100	-4.164617
0.530200	-4.163319
0.530300	-4.096129
0.530400	-4.039002
0.530500	-3.980577
0.530600	-3.960128
0.530700	-3.880280
0.530800	-3.725128
0.530900	-3.647877
0.531000	-3.622234
0.531100	-3.609900
0.531200	-3.613471
0.531300	-3.506033
0.531400	-3.350232
0.531500	-3.280447
0.531600	-3.074011
0.531700	-3.142498
0.531800	-3.118154
0.531900	-3.083099
0.532000	-2.960406
0.532100	-2.885427
0.532200	-2.773121
0.532300	-2.793895
0.532400	-2.801036
0.532500	-2.834468
0.532600	-2.853943
0.532700	-2.925027
0.532800	-2.910420
0.532900	-2.916912
0.533000	-2.879910
0.533100	-2.910745
0.533200	-2.900358
0.533300	-2.997084
0.533400	-3.007146
0.533500	-3.014612
0.533600	-3.018832
0.533700	-2.637770
0.533800	-2.546237
0.533900	-2.559870
0.534000	-3.024349
0.534100	-3.116207
0.534200	-3.017858
0.534300	-2.749751
0.534400	-2.605636
0.534500	-2.592653
0.534600	-2.820835
0.534700	-2.963977
0.534800	-2.969170
0.534900	-2.731250
0.535000	-2.592004
0.535100	-2.549159
0.535200	-2.650753
0.535300	-2.658543
0.535400	-2.646209
0.535500	-2.647832
0.535600	-2.550782
0.535700	-2.522218
0.535800	-2.541044
0.535900	-2.531956
0.536000	-2.486189
0.536100	-2.472557
0.536200	-2.524815
0.536300	-2.435554
0.536400	-2.488137
0.536500	-2.379077
0.536600	-2.319354
0.536700	-2.231067
0.536800	-2.284299
0.536900	-2.522218
0.537000	-2.596872
0.537100	-2.452757
0.537200	-2.240804
0.537300	-2.084031
0.537400	-2.189520
0.537500	-2.398876
0.537600	-2.514428
0.537700	-2.407965
0.537800	-2.204451
0.537900	-2.073320
0.538000	-2.115191
0.538100	-2.251516
0.538200	-2.296633
0.538300	-2.209320
0.538400	-2.237883
0.538500	-2.162255
0.538600	-2.257683
0.538700	-2.278131
0.538800	-2.324871
0.538900	-2.325196
0.539000	-2.317731
0.539100	-2.358953
0.539200	-2.406342
0.539300	-2.426791
0.539400	-2.433282
0.539500	-2.484242
0.539600	-2.518648
0.539700	-2.711126
0.539800	-2.763384
0.539900	-2.778315
0.540000	-2.615374
0.540100	-2.673150
0.540200	-2.774744
0.540300	-2.786754
0.540400	-2.788701
0.540500	-2.827002
0.540600	-2.862057
0.540700	-2.890945
0.540800	-2.893867
0.540900	-2.938010
0.541000	-2.987671
0.541100	-2.992865
0.541200	-3.054860
0.541300	-3.074660
0.541400	-3.144121
0.541500	-3.160999
0.541600	-3.256427
0.541700	-3.284991
0.541800	-3.399569
0.541900	-3.468706
0.542000	-3.680011
0.542100	-3.989016
0.542200	-4.043871
0.542300	-3.905273
0.542400	-3.717663
0.542500	-3.730321
0.542600	-3.957856
0.542700	-4.314901
0.542800	-4.392152
0.542900	-4.266537
0.543000	-4.076979
0.543100	-4.039651
0.543200	-4.148712
0.543300	-4.383064
0.543400	-4.468755
0.543500	-4.444735
0.543600	-4.374300
0.543700	-4.351254
0.543800	-4.406434
0.543900	-4.465184
0.544000	-4.495695
0.544100	-4.494397
0.544200	-4.488554
0.544300	-4.507056
0.544400	-4.583009
0.544500	-4.606379
0.544600	-4.624881
0.544700	-4.583658
0.544800	-4.592747
0.544900	-4.647277
0.545000	-4.648576
0.545100	-4.632346
0.545200	-4.449929
0.545300	-4.400591
0.545400	-4.518092
0.545500	-4.697913
0.545600	-4.844302
0.545700	-4.726477
0.545800	-4.536269
0.545900	-4.410978
0.546000	-4.476545
0.546100	-4.644681
0.546200	-4.816712
0.546300	-4.821905
0.546400	-4.693693
0.546500	-4.570350
0.546600	-4.547305
0.546700	-4.551524
0.546800	-4.589176
0.546900	-4.592422
0.547000	-4.559314
0.547100	-4.517443
0.547200	-4.462912
0.547300	-4.389555
0.547400	-4.266213
0.547500	-4.122096
0.547600	-4.074382
0.547700	-4.076330
0.547800	-4.059776
0.547900	-4.050038
0.548000	-3.912089
0.548100	-3.801730
0.548200	-3.726751
0.548300	-3.565107
0.548400	-3.590101
0.548500	-3.539141
0.548600	-3.456047
0.548700	-3.327187
0.548800	-3.226241
0.548900	-3.147042
0.549000	-3.087643
0.549100	-3.107443
0.549200	-3.060378
0.549300	-3.051939
0.549400	-3.052913
0.549500	-3.031815
0.549600	-2.931843
0.549700	-2.934440
0.549800	-2.896463
0.549900	-2.938010
0.550000	-2.922755
0.550100	-3.018182
0.550200	-2.932492
0.550300	-2.869523
0.550400	-2.493979
0.550500	-2.466714
0.550600	-2.528061
0.550700	-3.058755
0.550800	-2.914965
0.550900	-2.868224
0.551000	-2.559221
0.551100	-2.472232
0.551200	-2.513779
0.551300	-2.740338
0.551400	-2.876664
0.551500	-2.736443
0.551600	-2.535202
0.551700	-2.451784
0.551800	-2.331039
0.551900	-2.416729
0.552000	-2.474180
0.552100	-2.492357
0.552200	-2.421597
0.552300	-2.398552
0.552400	-2.391736
0.552500	-2.366743
0.552600	-2.378752
0.552700	-2.377454
0.552800	-2.440099
0.552900	-2.471259
0.553000	-2.503392
0.553100	-2.563440
0.553200	-2.485540
0.553300	-2.389139
0.553400	-2.424843
0.553500	-2.581617
0.553600	-2.808826
0.553700	-2.822134
0.553800	-2.738066
0.553900	-2.480347
0.554000	-2.483917
0.554100	-2.657894
0.554200	-2.896463
0.554300	-2.955862
0.554400	-2.869198
0.554500	-2.678018
0.554600	-2.620242
0.554700	-2.719890
0.554800	-2.855566
0.554900	-2.884454
0.555000	-2.818888
0.555100	-2.824730
0.555200	-2.802659
0.555300	-2.869198
0.555400	-2.903280
0.555500	-2.956187
0.555600	-2.895490
0.555700	-2.801685
0.555800	-2.798114
0.555900	-2.839986
0.556000	-2.796816
0.556100	-2.743584
0.556200	-2.707555
0.556300	-2.714372
0.556400	-2.827651
0.556500	-2.795518
0.556600	-2.749427
0.556700	-2.688080
0.556800	-2.595250
0.556900	-2.606610
0.557000	-2.549483
0.557100	-2.513454
0.557200	-2.468013
0.557300	-2.419974
0.557400	-2.394332
0.557500	-2.328117
0.557600	-2.316432
0.557700	-2.258656
0.557800	-2.238208
0.557900	-2.193740
0.558000	-2.151869
0.558100	-2.108050
0.558200	-2.042160
0.558300	-2.008403
0.558400	-1.981138
0.558500	-1.945434
0.558600	-1.956794
0.558700	-2.131744
0.558800	-2.364146
0.558900	-2.284623
0.559000	-2.053845
0.559100	-1.795477
0.559200	-1.820469
0.559300	-2.041186
0.559400	-2.388490
0.559500	-2.339802
0.559600	-2.236909
0.559700	-2.040861
0.559800	-2.059038
0.559900	-2.226523
0.560000	-2.496576
0.560100	-2.593302
0.560200	-2.589082
0.560300	-2.566686
0.560400	-2.546237
0.560500	-2.635498
0.560600	-2.737742
0.560700	-2.785456
0.560800	-2.798114
0.560900	-2.805255
0.561000	-2.858162
0.561100	-2.958134
0.561200	-3.037657
0.561300	-3.058755
0.561400	-3.107768
0.561500	-3.144121
0.561600	-3.253506
0.561700	-3.285965
0.561800	-3.222346
0.561900	-3.180150
0.562000	-3.195405
0.562100	-3.385287
0.562200	-3.609576
0.562300	-3.776088
0.562400	-3.710197
0.562500	-3.507331
0.562600	-3.470329
0.562700	-3.616717
0.562800	-3.846848
0.562900	-4.052635
0.563000	-4.061074
0.563100	-3.939030
0.563200	-3.827372
0.563300	-3.834838
0.563400	-3.933512
0.563500	-3.974085
0.563600	-3.990639
0.563700	-3.983174
0.563800	-3.972138
0.563900	-3.974410
0.564000	-3.930266
0.564100	-3.856910
0.564200	-3.766999
0.564300	-3.720908
0.564400	-3.747200
0.564500	-3.750446
0.564600	-3.736813
0.564700	-3.573871
0.564800	-3.511226
0.564900	-3.301545
0.565000	-3.306089
0.565100	-3.284017
0.565200	-3.255778
0.565300	-3.146069
0.565400	-3.045123
0.565500	-2.878611
0.565600	-2.842907
0.565700	-2.780262
0.565800	-2.740988
0.565900	-2.720214
0.566000	-2.634524
0.566100	-2.643937
0.566200	-2.537474
0.566300	-2.485540
0.566400	-2.451459
0.566500	-2.416404
0.566600	-2.413158
0.566700	-2.419325
0.566800	-2.407640
0.566900	-2.380700
0.567000	-2.132394
0.567100	-1.839620
0.567200	-1.769185
0.567300	-1.987954
0.567400	-2.280404
0.567500	-2.252489
0.567600	-2.107076
0.567700	-1.771457
0.567800	-1.782818
0.567900	-1.872727
0.568000	-2.004508
0.568100	-2.151219
0.568200	-1.987630
0.568300	-1.849357
0.568400	-1.804889
0.568500	-1.871754
0.568600	-1.927257
0.568700	-1.991200
0.568800	-2.028852
0.568900	-2.068451
0.569000	-2.071697
0.569100	-2.116814
0.569200	-2.149597
0.569300	-2.176862
0.569400	-2.327144
0.569500	-2.358628
0.569600	-2.498524
0.569700	-2.495278
0.569800	-2.557922
0.569900	-2.507612
0.570000	-2.471583
0.570100	-2.540719
0.570200	-2.752348
0.570300	-2.947098
0.570400	-2.911070
0.570500	-2.811747
0.570600	-2.564089
0.570700	-2.651078
0.570800	-2.771823
0.570900	-3.029218
0.571000	-3.038631
0.571100	-2.931518
0.571200	-2.763708
0.571300	-2.740338
0.571400	-2.900358
0.571500	-2.965600
0.571600	-2.967547
0.571700	-2.986373
0.571800	-2.953915
0.571900	-2.993514
0.572000	-3.024674
0.572100	-3.060378
0.572200	-3.078555
0.572300	-3.034087
0.572400	-3.071739
0.572500	-3.112961
0.572600	-3.131138
0.572700	-3.102574
0.572800	-3.093486
0.572900	-3.122049
0.573000	-3.254804
0.573100	-3.378471
0.573200	-3.363865
0.573300	-3.380419
0.573400	-3.296027
0.573500	-3.398595
0.573600	-3.454749
0.573700	-3.468057
0.573800	-3.489479
0.573900	-3.543685
0.574000	-3.559914
0.574100	-3.593996
0.574200	-3.633920
0.574300	-3.663781
0.574400	-3.712145
0.574500	-3.756288
0.574600	-3.791993
0.574700	-3.825100
0.574800	-3.862752
0.574900	-3.897807
0.575000	-3.909817
0.575100	-3.944872
0.575200	-4.011412
0.575300	-4.095156
0.575400	-4.402214
0.575500	-4.551849
0.575600	-4.449279
0.575700	-4.150660
0.575800	-4.022448
0.575900	-4.120473
0.576000	-4.442138
0.576100	-4.651822
0.576200	-4.604107
0.576300	-4.394749
0.576400	-4.253878
0.576500	-4.254852
0.576600	-4.453499
0.576700	-4.544708
0.576800	-4.556068
0.576900	-4.497643
0.577000	-4.442788
0.577100	-4.445709
0.577200	-4.481413
0.577300	-4.484010
0.577400	-4.497318
0.577500	-4.459991
0.577600	-4.445384
0.577700	-4.456420
0.577800	-4.493748
0.577900	-4.472000
0.578000	-4.431427
0.578100	-4.447981
0.578200	-4.433699
0.578300	-4.419417
0.578400	-4.380792
0.578500	-4.222393
0.578600	-4.055881
0.578700	-4.090936
0.578800	-4.215577
0.578900	-4.341517
0.579000	-4.327884
0.579100	-4.101972
0.579200	-3.900404
0.579300	-3.831592
0.579400	-3.951364
0.579500	-4.098726
0.579600	-4.162345
0.579700	-4.079900
0.579800	-3.941951
0.579900	-3.901053
0.580000	-3.890342
0.580100	-3.920528
0.580200	-3.903325
0.580300	-3.870867
0.580400	-3.868270
0.580500	-3.853664
0.580600	-3.841005
0.580700	-3.745252
0.580800	-3.592373
0.580900	-3.544983
0.581000	-3.544659
0.581100	-3.556993
0.581200	-3.561537
0.581300	-3.488181
0.581400	-3.348609
0.581500	-3.300246
0.581600	-3.078555
0.581700	-3.129515
0.581800	-3.070765
0.581900	-3.050641
0.582000	-2.948397
0.582100	-2.896463
0.582200	-2.802009
0.582300	-2.768253
0.582400	-2.733522
0.582500	-2.779288
0.582600	-2.737093
0.582700	-2.772797
0.582800	-2.745207
0.582900	-2.768902
0.583000	-2.688405
0.583100	-2.735794
0.583200	-2.709828
0.583300	-2.738066
0.583400	-2.782534
0.583500	-2.787403
0.583600	-2.723785
0.583700	-2.435230
0.583800	-2.237559
0.583900	-2.247621
0.584000	-2.542992
0.584100	-2.753971
0.584200	-2.556299
0.584300	-2.378428
0.584400	-2.098962
0.584500	-2.067152
0.584600	-2.225224
0.584700	-2.386542
0.584800	-2.303774
0.584900	-2.199582
0.585000	-2.084680
0.585100	-1.993797
0.585200	-2.091496
0.585300	-2.129472
0.585400	-2.168098
0.585500	-2.116814
0.585600	-2.130122
0.585700	-2.147974
0.585800	-2.161931
0.585900	-2.201530
0.586000	-2.205749
0.586100	-2.130446
0.586200	-2.250217
0.586300	-2.272614
0.586400	-2.399526
0.586500	-2.334284
0.586600	-2.247296
0.586700	-2.178160
0.586800	-2.183353
0.586900	-2.346943
0.587000	-2.456652
0.587100	-2.352786
0.587200	-2.102857
0.587300	-1.913625
0.587400	-1.970427
0.587500	-2.144079
0.587600	-2.257034
0.587700	-2.171344
0.587800	-1.978217
0.587900	-1.842216
0.588000	-1.879219
0.588100	-2.019439
0.588200	-2.042160
0.588300	-1.939591
0.588400	-1.971076
0.588500	-1.929529
0.588600	-2.041186
0.588700	-2.090522
0.588800	-2.129797
0.588900	-2.101558
0.589000	-2.059687
0.589100	-2.095716
0.589200	-2.138561
0.589300	-2.135315
0.589400	-2.076241
0.589500	-2.046379
0.589600	-2.035992
0.589700	-2.146026
0.589800	-2.176537
0.589900	-2.130122
0.590000	-1.989902
0.590100	-1.972374
0.590200	-2.005157
0.590300	-2.017167
0.590400	-1.989902
0.590500	-1.990226
0.590600	-1.993472
0.590700	-1.987305
0.590800	-1.961663
0.590900	-1.965883
0.591000	-1.984059
0.591100	-1.973348
0.591200	-1.966856
0.591300	-1.943811
0.591400	-1.984384
0.591500	-1.970427
0.591600	-2.036317
0.591700	-2.043782
0.591800	-2.073320
0.591900	-2.111620
0.592000	-2.303774
0.592100	-2.564739
0.592200	-2.754620
0.592300	-2.573178
0.592400	-2.378103
0.592500	-2.310590
0.592600	-2.569283
0.592700	-2.910745
0.592800	-3.136656
0.592900	-3.089915
0.593000	-2.987671
0.593100	-2.947748
0.593200	-3.128541
0.593300	-3.337573
0.593400	-3.576793
0.593500	-3.609251
0.593600	-3.644306
0.593700	-3.679361
0.593800	-3.792642
0.593900	-3.936758
0.594000	-4.023098
0.594100	-4.076979
0.594200	-4.117552
0.594300	-4.149037
0.594400	-4.252255
0.594500	-4.338595
0.594600	-4.362615
0.594700	-4.382415
0.594800	-4.402863
0.594900	-4.467132
0.595000	-4.536593
0.595100	-4.509328
0.595200	-4.383713
0.595300	-4.314251
0.595400	-4.398644
0.595500	-4.602809
0.595600	-4.766401
0.595700	-4.716090
0.595800	-4.462912
0.595900	-4.316199
0.596000	-4.317173
0.596100	-4.462587
0.596200	-4.603458
0.596300	-4.593071
0.596400	-4.439866
0.596500	-4.269458
0.596600	-4.202269
0.596700	-4.213954
0.596800	-4.198699
0.596900	-4.149362
0.597000	-4.065618
0.597100	-4.010114
0.597200	-3.899430
0.597300	-3.841979
0.597400	-3.763429
0.597500	-3.605356
0.597600	-3.533298
0.597700	-3.490453
