LabVIEW Measurement	
Writer_Version	2
Reader_Version	2
Separator	Tab
Decimal_Separator	.
Multi_Headings	Yes
X_Columns	One
Time_Pref	Relative
Operator	as989
Description	Time Domain Data
Date	1903/12/31
Time	19:00:00
***End_of_Header***	
	
Channels	1	
Samples	15000	
Date	1903/12/31	
Time	19:00:00	
X_Dimension	Time	
X0	0.0000000000000000E+0	
Delta_X	0.000100	
***End_of_Header***		
X_Value	Untitled	Comment
0.000000	-0.406265	Tare Values:0.000000, 0.000000, 0.000000, 0.000000\0D\0A
0.000100	-0.490981
0.000200	-0.488059
0.000300	-0.574398
0.000400	-0.643209
0.000500	-0.651973
0.000600	-0.567257
0.000700	-0.582188
0.000800	-0.593873
0.000900	-0.895085
0.001000	-1.019725
0.001100	-0.889243
0.001200	-0.694493
0.001300	-0.543887
0.001400	-0.672097
0.001500	-0.847372
0.001600	-1.051534
0.001700	-1.023295
0.001800	-0.885672
0.001900	-0.721434
0.002000	-0.773691
0.002100	-0.940851
0.002200	-1.018751
0.002300	-0.981424
0.002400	-1.014207
0.002500	-0.983047
0.002600	-1.090808
0.002700	-1.141443
0.002800	-1.219018
0.002900	-1.264135
0.003000	-1.202464
0.003100	-1.226808
0.003200	-1.319963
0.003300	-1.355343
0.003400	-1.369949
0.003500	-1.374168
0.003600	-1.395266
0.003700	-1.509519
0.003800	-1.623448
0.003900	-1.628316
0.004000	-1.628316
0.004100	-1.635457
0.004200	-1.611438
0.004300	-1.667591
0.004400	-1.662722
0.004500	-1.677004
0.004600	-1.714655
0.004700	-1.710111
0.004800	-1.730560
0.004900	-1.729911
0.005000	-1.717252
0.005100	-1.719200
0.005200	-1.695830
0.005300	-1.698102
0.005400	-1.681873
0.005500	-1.688040
0.005600	-1.691610
0.005700	-1.721472
0.005800	-1.728288
0.005900	-1.756527
0.006000	-1.877921
0.006100	-2.140833
0.006200	-2.191143
0.006300	-2.070074
0.006400	-1.848708
0.006500	-1.803591
0.006600	-1.934073
0.006700	-2.189845
0.006800	-2.369664
0.006900	-2.302800
0.007000	-2.188222
0.007100	-2.084355
0.007200	-2.148623
0.007300	-2.309291
0.007400	-2.451134
0.007500	-2.463144
0.007600	-2.448862
0.007700	-2.386867
0.007800	-2.339802
0.007900	-2.360900
0.008000	-2.356356
0.008100	-2.401149
0.008200	-2.338829
0.008300	-2.310914
0.008400	-2.326494
0.008500	-2.417053
0.008600	-2.405368
0.008700	-2.315134
0.008800	-2.362523
0.008900	-2.369664
0.009000	-2.409263
0.009100	-2.347268
0.009200	-2.157062
0.009300	-2.101234
0.009400	-2.142780
0.009500	-2.310590
0.009600	-2.436528
0.009700	-2.350514
0.009800	-2.208022
0.009900	-2.003534
0.010000	-1.965883
0.010100	-2.108050
0.010200	-2.266771
0.010300	-2.335907
0.010400	-2.227821
0.010500	-2.058064
0.010600	-1.989902
0.010700	-2.011649
0.010800	-2.036966
0.010900	-2.062608
0.011000	-2.012298
0.011100	-1.957443
0.011200	-1.878570
0.011300	-1.843190
0.011400	-1.769510
0.011500	-1.652985
0.011600	-1.554961
0.011700	-1.542951
0.011800	-1.529643
0.011900	-1.522178
0.012000	-1.422856
0.012100	-1.309901
0.012200	-1.270627
0.012300	-1.083018
0.012400	-1.157997
0.012500	-1.136574
0.012600	-1.131705
0.012700	-1.022970
0.012800	-0.972660
0.012900	-0.859056
0.013000	-0.844450
0.013100	-0.880154
0.013200	-0.877558
0.013300	-0.878531
0.013400	-0.884049
0.013500	-0.869768
0.013600	-0.820431
0.013700	-0.776613
0.013800	-0.808746
0.013900	-0.780508
0.014000	-0.835037
0.014100	-0.756813
0.014200	-0.748049
0.014300	-0.711047
0.014400	-0.345243
0.014500	-0.318952
0.014600	-0.373482
0.014700	-0.746751
0.014800	-0.834388
0.014900	-0.658140
0.015000	-0.575372
0.015100	-0.308241
0.015200	-0.462093
0.015300	-0.515649
0.015400	-0.764279
0.015500	-0.707152
0.015600	-0.689625
0.015700	-0.569854
0.015800	-0.495525
0.015900	-0.585109
0.016000	-0.623735
0.016100	-0.695467
0.016200	-0.710723
0.016300	-0.744154
0.016400	-0.672422
0.016500	-0.661061
0.016600	-0.714942
0.016700	-0.697090
0.016800	-0.821730
0.016900	-0.783104
0.017000	-0.882751
0.017100	-0.811668
0.017200	-0.819457
0.017300	-0.727925
0.017400	-0.695467
0.017500	-0.786675
0.017600	-1.031085
0.017700	-1.086589
0.017800	-0.978503
0.017900	-0.759085
0.018000	-0.751295
0.018100	-0.835037
0.018200	-1.010961
0.018300	-1.127486
0.018400	-1.098923
0.018500	-0.947667
0.018600	-0.870417
0.018700	-0.841204
0.018800	-0.968441
0.018900	-1.036927
0.019000	-1.020698
0.019100	-1.028813
0.019200	-0.978503
0.019300	-1.072956
0.019400	-1.098923
0.019500	-1.124565
0.019600	-1.153128
0.019700	-1.170655
0.019800	-1.220316
0.019900	-1.246283
0.020000	-1.230054
0.020100	-1.234273
0.020200	-1.223887
0.020300	-1.260240
0.020400	-1.357939
0.020500	-1.378713
0.020600	-1.358913
0.020700	-1.332297
0.020800	-1.232651
0.020900	-1.265433
0.021000	-1.244985
0.021100	-1.244335
0.021200	-1.193376
0.021300	-1.212526
0.021400	-1.198245
0.021500	-1.158970
0.021600	-1.153128
0.021700	-1.161892
0.021800	-1.176822
0.021900	-1.182665
0.022000	-1.171954
0.022100	-1.197596
0.022200	-1.213176
0.022300	-1.290102
0.022400	-1.347877
0.022500	-1.385529
0.022600	-1.480631
0.022700	-1.683496
0.022800	-2.003534
0.022900	-2.002560
0.023000	-1.940890
0.023100	-1.832804
0.023200	-1.876298
0.023300	-2.140184
0.023400	-2.360576
0.023500	-2.514104
0.023600	-2.424519
0.023700	-2.336556
0.023800	-2.308967
0.023900	-2.403096
0.024000	-2.552729
0.024100	-2.616023
0.024200	-2.623813
0.024300	-2.561817
0.024400	-2.522543
0.024500	-2.475154
0.024600	-2.487163
0.024700	-2.519622
0.024800	-2.507937
0.024900	-2.434256
0.025000	-2.414132
0.025100	-2.514753
0.025200	-2.459898
0.025300	-2.438476
0.025400	-2.353110
0.025500	-2.393034
0.025600	-2.446915
0.025700	-2.395631
0.025800	-2.304098
0.025900	-2.122656
0.026000	-2.103181
0.026100	-2.229119
0.026200	-2.418027
0.026300	-2.481645
0.026400	-2.343373
0.026500	-2.174589
0.026600	-2.104155
0.026700	-2.159659
0.026800	-2.305396
0.026900	-2.404394
0.027000	-2.446590
0.027100	-2.431010
0.027200	-2.343048
0.027300	-2.293711
0.027400	-2.298580
0.027500	-2.372261
0.027600	-2.411535
0.027700	-2.399201
0.027800	-2.381349
0.027900	-2.330065
0.028000	-2.294361
0.028100	-2.218733
0.028200	-2.099286
0.028300	-2.050274
0.028400	-2.037615
0.028500	-2.022035
0.028600	-2.029176
0.028700	-1.855200
0.028800	-1.730235
0.028900	-1.520231
0.029000	-1.478684
0.029100	-1.486474
0.029200	-1.451744
0.029300	-1.399486
0.029400	-1.234273
0.029500	-1.091782
0.029600	-1.034331
0.029700	-1.015180
0.029800	-1.000899
0.029900	-0.984670
0.030000	-0.987916
0.030100	-0.999925
0.030200	-0.925920
0.030300	-0.937605
0.030400	-0.861978
0.030500	-0.878207
0.030600	-0.922999
0.030700	-0.917806
0.030800	-1.013558
0.030900	-0.872689
0.031000	-0.845099
0.031100	-0.449759
0.031200	-0.517921
0.031300	-0.525062
0.031400	-1.060297
0.031500	-0.971362
0.031600	-0.875610
0.031700	-0.559143
0.031800	-0.481568
0.031900	-0.477024
0.032000	-0.603611
0.032100	-0.743505
0.032200	-0.645806
0.032300	-0.560117
0.032400	-0.398150
0.032500	-0.435153
0.032600	-0.396203
0.032700	-0.439372
0.032800	-0.443267
0.032900	-0.452031
0.033000	-0.438074
0.033100	-0.391334
0.033200	-0.406914
0.033300	-0.451706
0.033400	-0.405940
0.033500	-0.490981
0.033600	-0.608479
0.033700	-0.594847
0.033800	-0.645806
0.033900	-0.529606
0.034000	-0.552976
0.034100	-0.542265
0.034200	-0.707152
0.034300	-1.008040
0.034400	-0.897682
0.034500	-0.822379
0.034600	-0.618541
0.034700	-0.699362
0.034800	-0.821730
0.034900	-1.048612
0.035000	-1.144040
0.035100	-1.083018
0.035200	-0.946369
0.035300	-0.892488
0.035400	-0.990188
0.035500	-1.116450
0.035600	-1.219018
0.035700	-1.197271
0.035800	-1.202789
0.035900	-1.181691
0.036000	-1.255371
0.036100	-1.334569
0.036200	-1.320937
0.036300	-1.250178
0.036400	-1.274846
0.036500	-1.350474
0.036600	-1.359238
0.036700	-1.345930
0.036800	-1.331648
0.036900	-1.267056
0.037000	-1.311524
0.037100	-1.444927
0.037200	-1.448822
0.037300	-1.434216
0.037400	-1.390073
0.037500	-1.277767
0.037600	-1.343982
0.037700	-1.314445
0.037800	-1.331648
0.037900	-1.307304
0.038000	-1.322884
0.038100	-1.345605
0.038200	-1.333271
0.038300	-1.332622
0.038400	-1.307304
0.038500	-1.334245
0.038600	-1.336192
0.038700	-1.355992
0.038800	-1.370923
0.038900	-1.412469
0.039000	-1.410522
0.039100	-1.447199
0.039200	-1.521853
0.039300	-1.539056
0.039400	-1.830207
0.039500	-1.951601
0.039600	-1.991525
0.039700	-1.785090
0.039800	-1.689663
0.039900	-1.739973
0.040000	-1.950303
0.040100	-2.231391
0.040200	-2.211916
0.040300	-2.142456
0.040400	-1.948355
0.040500	-1.954198
0.040600	-2.056117
0.040700	-2.209969
0.040800	-2.274886
0.040900	-2.211267
0.041000	-2.152193
0.041100	-2.109673
0.041200	-2.133043
0.041300	-2.161606
0.041400	-2.139534
0.041500	-2.137912
0.041600	-2.088900
0.041700	-2.096365
0.041800	-2.150570
0.041900	-2.174265
0.042000	-2.121682
0.042100	-2.111620
0.042200	-2.145702
0.042300	-2.196661
0.042400	-2.200881
0.042500	-2.067802
0.042600	-1.948030
0.042700	-1.964909
0.042800	-2.107725
0.042900	-2.355382
0.043000	-2.368690
0.043100	-2.285921
0.043200	-2.070398
0.043300	-1.968804
0.043400	-2.072021
0.043500	-2.234637
0.043600	-2.369339
0.043700	-2.320652
0.043800	-2.217110
0.043900	-2.120059
0.044000	-2.060336
0.044100	-2.061959
0.044200	-2.099611
0.044300	-2.083706
0.044400	-2.056117
0.044500	-2.003534
0.044600	-1.973673
0.044700	-1.900317
0.044800	-1.796126
0.044900	-1.692908
0.045000	-1.666293
0.045100	-1.661099
0.045200	-1.616307
0.045300	-1.589367
0.045400	-1.390722
0.045500	-1.346254
0.045600	-1.094379
0.045700	-1.119047
0.045800	-1.061920
0.045900	-1.052507
0.046000	-0.972336
0.046100	-0.894111
0.046200	-0.749997
0.046300	-0.703582
0.046400	-0.646131
0.046500	-0.662360
0.046600	-0.626656
0.046700	-0.680861
0.046800	-0.627305
0.046900	-0.656517
0.047000	-0.563038
0.047100	-0.586083
0.047200	-0.556871
0.047300	-0.553949
0.047400	-0.614646
0.047500	-0.626980
0.047600	-0.602312
0.047700	-0.387439
0.047800	-0.113167
0.047900	-0.077788
0.048000	-0.270265
0.048100	-0.586732
0.048200	-0.520193
0.048300	-0.407238
0.048400	-0.111545
0.048500	-0.109272
0.048600	-0.187821
0.048700	-0.352060
0.048800	-0.502666
0.048900	-0.417625
0.049000	-0.320900
0.049100	-0.171592
0.049200	-0.249167
0.049300	-0.357253
0.049400	-0.402045
0.049500	-0.423468
0.049600	-0.408537
0.049700	-0.451706
0.049800	-0.438723
0.049900	-0.467286
0.050000	-0.478322
0.050100	-0.563362
0.050200	-0.482217
0.050300	-0.632498
0.050400	-0.573749
0.050500	-0.669825
0.050600	-0.551028
0.050700	-0.503964
0.050800	-0.545186
0.050900	-0.733119
0.051000	-0.959352
0.051100	-0.878531
0.051200	-0.738961
0.051300	-0.562713
0.051400	-0.628279
0.051500	-0.817835
0.051600	-1.045691
0.051700	-1.082694
0.051800	-0.991811
0.051900	-0.857758
0.052000	-0.848021
0.052100	-1.003171
0.052200	-1.096651
0.052300	-1.106713
0.052400	-1.150531
0.052500	-1.120994
0.052600	-1.162541
0.052700	-1.181691
0.052800	-1.201815
0.052900	-1.206359
0.053000	-1.172278
0.053100	-1.233949
0.053200	-1.260240
0.053300	-1.278741
0.053400	-1.235572
0.053500	-1.203763
0.053600	-1.179419
0.053700	-1.277443
0.053800	-1.355343
0.053900	-1.334894
0.054000	-1.296593
0.054100	-1.159944
0.054200	-1.224536
0.054300	-1.238493
0.054400	-1.217395
0.054500	-1.195648
0.054600	-1.197920
0.054700	-1.211877
0.054800	-1.195324
0.054900	-1.218693
0.055000	-1.198569
0.055100	-1.248555
0.055200	-1.235896
0.055300	-1.254073
0.055400	-1.284584
0.055500	-1.281987
0.055600	-1.332297
0.055700	-1.326779
0.055800	-1.413443
0.055900	-1.404030
0.056000	-1.540679
0.056100	-1.791582
0.056200	-1.996393
0.056300	-1.877596
0.056400	-1.655257
0.056500	-1.600727
0.056600	-1.715629
0.056700	-2.051897
0.056800	-2.253139
0.056900	-2.283325
0.057000	-2.130446
0.057100	-2.026255
0.057200	-2.084680
0.057300	-2.243076
0.057400	-2.396929
0.057500	-2.442695
0.057600	-2.439125
0.057700	-2.363821
0.057800	-2.395306
0.057900	-2.475803
0.058000	-2.488786
0.058100	-2.495602
0.058200	-2.494953
0.058300	-2.492357
0.058400	-2.523841
0.058500	-2.618944
0.058600	-2.599145
0.058700	-2.576748
0.058800	-2.588109
0.058900	-2.626734
0.059000	-2.644586
0.059100	-2.629655
0.059200	-2.497225
0.059300	-2.343048
0.059400	-2.401149
0.059500	-2.575125
0.059600	-2.721513
0.059700	-2.690028
0.059800	-2.546887
0.059900	-2.337530
0.060000	-2.314485
0.060100	-2.467364
0.060200	-2.610505
0.060300	-2.690353
0.060400	-2.611479
0.060500	-2.495278
0.060600	-2.429387
0.060700	-2.444967
0.060800	-2.484891
0.060900	-2.484891
0.061000	-2.452108
0.061100	-2.449836
0.061200	-2.394008
0.061300	-2.358628
0.061400	-2.283974
0.061500	-2.173291
0.061600	-2.077539
0.061700	-2.022360
0.061800	-2.008403
0.061900	-1.985033
0.062000	-1.871429
0.062100	-1.711734
0.062200	-1.513090
0.062300	-1.370923
0.062400	-1.381958
0.062500	-1.325806
0.062600	-1.280364
0.062700	-1.136899
0.062800	-1.041796
0.062900	-0.870417
0.063000	-0.830169
0.063100	-0.787648
0.063200	-0.800632
0.063300	-0.747400
0.063400	-0.775639
0.063500	-0.732794
0.063600	-0.687353
0.063700	-0.640288
0.063800	-0.614646
0.063900	-0.605233
0.064000	-0.626656
0.064100	-0.626331
0.064200	-0.631200
0.064300	-0.591926
0.064400	-0.374131
0.064500	-0.086552
0.064600	-0.132967
0.064700	-0.394255
0.064800	-0.623410
0.064900	-0.535448
0.065000	-0.354332
0.065100	-0.199831
0.065200	-0.186847
0.065300	-0.263773
0.065400	-0.467611
0.065500	-0.449434
0.065600	-0.315706
0.065700	-0.191392
0.065800	-0.136213
0.065900	-0.167697
0.066000	-0.283248
0.066100	-0.308566
0.066200	-0.278704
0.066300	-0.273186
0.066400	-0.265072
0.066500	-0.289740
0.066600	-0.336155
0.066700	-0.372508
0.066800	-0.461768
0.066900	-0.520842
0.067000	-0.570179
0.067100	-0.657167
0.067200	-0.724355
0.067300	-0.620164
0.067400	-0.594847
0.067500	-0.632823
0.067600	-0.900928
0.067700	-0.988889
0.067800	-0.933061
0.067900	-0.702283
0.068000	-0.697739
0.068100	-0.717214
0.068200	-0.945395
0.068300	-1.061271
0.068400	-1.021348
0.068500	-0.815887
0.068600	-0.665930
0.068700	-0.669501
0.068800	-0.775964
0.068900	-0.815563
0.069000	-0.760384
0.069100	-0.760384
0.069200	-0.689625
0.069300	-0.750646
0.069400	-0.757138
0.069500	-0.775639
0.069600	-0.754217
0.069700	-0.765577
0.069800	-0.814264
0.069900	-0.828546
0.070000	-0.800632
0.070100	-0.800307
0.070200	-0.799658
0.070300	-0.815887
0.070400	-0.960326
0.070500	-0.976231
0.070600	-0.980126
0.070700	-0.976555
0.070800	-0.884374
0.070900	-0.955457
0.071000	-0.982073
0.071100	-0.973959
0.071200	-0.977854
0.071300	-1.006741
0.071400	-0.993758
0.071500	-1.007066
0.071600	-1.006417
0.071700	-1.032383
0.071800	-1.044717
0.071900	-1.071009
0.072000	-1.085290
0.072100	-1.105739
0.072200	-1.140145
0.072300	-1.165787
0.072400	-1.200841
0.072500	-1.257968
0.072600	-1.267705
0.072700	-1.475438
0.072800	-1.694531
0.072900	-1.834426
0.073000	-1.601376
0.073100	-1.472517
0.073200	-1.371896
0.073300	-1.632536
0.073400	-1.918818
0.073500	-2.036317
0.073600	-1.988928
0.073700	-1.821119
0.073800	-1.760097
0.073900	-1.858770
0.074000	-2.020737
0.074100	-2.180107
0.074200	-2.201530
0.074300	-2.208995
0.074400	-2.145702
0.074500	-2.210294
0.074600	-2.302151
0.074700	-2.335583
0.074800	-2.365120
0.074900	-2.364471
0.075000	-2.373559
0.075100	-2.441397
0.075200	-2.518972
0.075300	-2.583889
0.075400	-2.577722
0.075500	-2.626734
0.075600	-2.672176
0.075700	-2.749102
0.075800	-2.748778
0.075900	-2.605961
0.076000	-2.532605
0.076100	-2.673150
0.076200	-2.906201
0.076300	-3.015261
0.076400	-3.003251
0.076500	-2.803957
0.076600	-2.655947
0.076700	-2.700415
0.076800	-2.891270
0.076900	-3.057132
0.077000	-2.994488
0.077100	-2.907824
0.077200	-2.790324
0.077300	-2.717293
0.077400	-2.701713
0.077500	-2.712100
0.077600	-2.714047
0.077700	-2.665035
0.077800	-2.604338
0.077900	-2.545588
0.078000	-2.484567
0.078100	-2.409263
0.078200	-2.275535
0.078300	-2.196337
0.078400	-2.153492
0.078500	-2.124604
0.078600	-2.089224
0.078700	-1.967181
0.078800	-1.821119
0.078900	-1.610140
0.079000	-1.534188
0.079100	-1.533863
0.079200	-1.480956
0.079300	-1.397863
0.079400	-1.289777
0.079500	-1.172603
0.079600	-1.114503
0.079700	-1.090159
0.079800	-1.069710
0.079900	-1.047314
0.080000	-1.003496
0.080100	-1.024593
0.080200	-0.944422
0.080300	-0.899305
0.080400	-0.866846
0.080500	-0.831142
0.080600	-0.880154
0.080700	-0.831792
0.080800	-0.905147
0.080900	-0.783753
0.081000	-0.737338
0.081100	-0.369587
0.081200	-0.267993
0.081300	-0.330313
0.081400	-0.755839
0.081500	-0.709100
0.081600	-0.536422
0.081700	-0.238781
0.081800	-0.215086
0.081900	-0.148222
0.082000	-0.316680
0.082100	-0.446188
0.082200	-0.412756
0.082300	-0.274160
0.082400	-0.171268
0.082500	-0.120957
0.082600	-0.107325
0.082700	-0.167373
0.082800	-0.156661
0.082900	-0.244948
0.083000	-0.227420
0.083100	-0.220604
0.083200	-0.233587
0.083300	-0.281950
0.083400	-0.278704
0.083500	-0.326418
0.083600	-0.452355
0.083700	-0.391983
0.083800	-0.504613
0.083900	-0.430608
0.084000	-0.402045
0.084100	-0.367315
0.084200	-0.492279
0.084300	-0.775964
0.084400	-0.739610
0.084500	-0.637367
0.084600	-0.398799
0.084700	-0.440346
0.084800	-0.551353
0.084900	-0.843801
0.085000	-0.919429
0.085100	-0.861653
0.085200	-0.686054
0.085300	-0.711047
0.085400	-0.846073
0.085500	-1.019075
0.085600	-1.061920
0.085700	-1.072307
0.085800	-1.088536
0.085900	-1.126188
0.086000	-1.235572
0.086100	-1.322884
0.086200	-1.360861
0.086300	-1.354369
0.086400	-1.398512
0.086500	-1.486474
0.086600	-1.551390
0.086700	-1.589367
0.086800	-1.594560
0.086900	-1.612737
0.087000	-1.653309
0.087100	-1.774379
0.087200	-1.822742
0.087300	-1.820794
0.087400	-1.777300
0.087500	-1.709138
0.087600	-1.746140
0.087700	-1.731534
0.087800	-1.708164
0.087900	-1.701023
0.088000	-1.719200
0.088100	-1.726340
0.088200	-1.705567
0.088300	-1.733481
0.088400	-1.706541
0.088500	-1.689338
0.088600	-1.687066
0.088700	-1.704269
0.088800	-1.710436
0.088900	-1.706541
0.089000	-1.733157
0.089100	-1.729911
0.089200	-1.722770
0.089300	-1.755228
0.089400	-1.919143
0.089500	-2.162580
0.089600	-2.118437
0.089700	-1.910054
0.089800	-1.732508
0.089900	-1.696803
0.090000	-1.952899
0.090100	-2.187897
0.090200	-2.200232
0.090300	-2.046055
0.090400	-1.942837
0.090500	-1.922388
0.090600	-2.034045
0.090700	-2.168098
0.090800	-2.258981
0.090900	-2.215162
0.091000	-2.134990
0.091100	-2.114217
0.091200	-2.138885
0.091300	-2.204776
0.091400	-2.200556
0.091500	-2.182704
0.091600	-2.161606
0.091700	-2.162904
0.091800	-2.164527
0.091900	-2.179134
0.092000	-2.145702
0.092100	-2.109673
0.092200	-2.075916
0.092300	-2.099611
0.092400	-2.129472
0.092500	-2.037291
0.092600	-1.854226
0.092700	-1.860069
0.092800	-1.984708
0.092900	-2.241454
0.093000	-2.322924
0.093100	-2.223601
0.093200	-1.991849
0.093300	-1.930178
0.093400	-2.080136
0.093500	-2.314485
0.093600	-2.471908
0.093700	-2.468337
0.093800	-2.341101
0.093900	-2.257683
0.094000	-2.308642
0.094100	-2.380375
0.094200	-2.416729
0.094300	-2.381349
0.094400	-2.328442
0.094500	-2.300852
0.094600	-2.276184
0.094700	-2.235286
0.094800	-2.145702
0.094900	-1.990226
0.095000	-1.912002
0.095100	-1.889281
0.095200	-1.871429
0.095300	-1.857472
0.095400	-1.678951
0.095500	-1.584173
0.095600	-1.341386
0.095700	-1.343009
0.095800	-1.368001
0.095900	-1.364106
0.096000	-1.271600
0.096100	-1.140794
0.096200	-1.023944
0.096300	-1.009013
0.096400	-0.976555
0.096500	-0.992784
0.096600	-0.994083
0.096700	-1.029137
0.096800	-1.005443
0.096900	-1.056727
0.097000	-0.989214
0.097100	-1.103791
0.097200	-1.116126
0.097300	-1.193376
0.097400	-1.286856
0.097500	-1.298216
0.097600	-1.344956
0.097700	-1.113529
0.097800	-1.018751
0.097900	-0.899305
0.098000	-1.210579
0.098100	-1.512765
0.098200	-1.416040
0.098300	-1.278741
0.098400	-0.987591
0.098500	-1.033032
0.098600	-1.042445
0.098700	-1.300164
0.098800	-1.367028
0.098900	-1.274846
0.099000	-1.064842
0.099100	-0.892813
0.099200	-0.925271
0.099300	-0.988889
0.099400	-1.053806
0.099500	-1.048937
0.099600	-1.015505
0.099700	-0.922675
0.099800	-0.899629
0.099900	-0.882751
0.100000	-0.831467
0.100100	-0.881453
0.100200	-0.908718
0.100300	-0.877233
0.100400	-0.853863
0.100500	-0.836985
0.100600	-0.792517
0.100700	-0.675992
0.100800	-0.633797
0.100900	-0.743830
0.101000	-0.904173
0.101100	-0.779209
0.101200	-0.582513
0.101300	-0.289740
0.101400	-0.282924
0.101500	-0.366990
0.101600	-0.625682
0.101700	-0.528308
0.101800	-0.354332
0.101900	-0.089798
0.102000	-0.013196
0.102100	-0.111545
0.102200	-0.160881
0.102300	-0.103755
0.102400	-0.044356
0.102500	0.090345
0.102600	0.276980
0.102700	0.437972
0.102800	0.444788
0.102900	0.623308
0.103000	1.153675
0.103100	1.492862
0.103200	1.646065
0.103300	1.788232
0.103400	2.276078
0.103500	2.569825
0.103600	3.093052
0.103700	2.709396
0.103800	2.173511
0.103900	2.467257
0.104000	2.963868
0.104100	3.740920
0.104200	3.520853
0.104300	3.356614
0.104400	3.424776
0.104500	3.373492
0.104600	3.304031
0.104700	3.346876
0.104800	3.060919
0.104900	3.014179
0.105000	2.760355
0.105100	2.532498
0.105200	2.342618
0.105300	1.944680
0.105400	1.855096
0.105500	1.463975
0.105600	1.367574
0.105700	0.922897
0.105800	0.389609
0.105900	0.017314
0.106000	-0.260852
0.106100	-0.519868
0.106200	-0.772718
0.106300	-0.667553
0.106400	-0.580890
0.106500	-0.453005
0.106600	-0.682159
0.106700	-0.997978
0.106800	-1.267705
0.106900	-1.355343
0.107000	-1.266732
0.107100	-1.153128
0.107200	-1.223887
0.107300	-1.466999
0.107400	-1.712383
0.107500	-1.851954
0.107600	-1.860069
0.107700	-1.843515
0.107800	-1.908107
0.107900	-2.010675
0.108000	-2.118437
0.108100	-2.179134
0.108200	-2.239181
0.108300	-2.310265
0.108400	-2.401149
0.108500	-2.464442
0.108600	-2.500471
0.108700	-2.573827
0.108800	-2.632577
0.108900	-2.689379
0.109000	-2.737742
0.109100	-2.798114
0.109200	-2.701064
0.109300	-2.588109
0.109400	-2.685808
0.109500	-2.836740
0.109600	-2.987996
0.109700	-3.087319
0.109800	-2.956187
0.109900	-2.738716
0.110000	-2.711126
0.110100	-2.872769
0.110200	-3.034412
0.110300	-3.139901
0.110400	-3.075634
0.110500	-2.969495
0.110600	-2.873418
0.110700	-2.851995
0.110800	-2.899385
0.110900	-2.921781
0.111000	-2.894516
0.111100	-2.839012
0.111200	-2.786105
0.111300	-2.750076
0.111400	-2.627708
0.111500	-2.471583
0.111600	-2.385569
0.111700	-2.322599
0.111800	-2.318704
0.111900	-2.270341
0.112000	-2.210294
0.112100	-2.033071
0.112200	-1.992174
0.112300	-1.812679
0.112400	-1.805214
0.112500	-1.763018
0.112600	-1.758150
0.112700	-1.645519
0.112800	-1.594884
0.112900	-1.412145
0.113000	-1.422207
0.113100	-1.333920
0.113200	-1.399486
0.113300	-1.355018
0.113400	-1.326779
0.113500	-1.308603
0.113600	-1.205710
0.113700	-1.135600
0.113800	-1.162865
0.113900	-1.122942
0.114000	-1.140469
0.114100	-1.115152
0.114200	-1.107686
0.114300	-0.958703
0.114400	-0.892813
0.114500	-0.457549
0.114600	-0.592575
0.114700	-0.798035
0.114800	-1.024593
0.114900	-0.945720
0.115000	-0.764279
0.115100	-0.557844
0.115200	-0.574398
0.115300	-0.781157
0.115400	-0.968116
0.115500	-0.993109
0.115600	-0.942474
0.115700	-0.702933
0.115800	-0.762980
0.115900	-0.768498
0.116000	-0.890541
0.116100	-0.976231
0.116200	-0.937930
0.116300	-0.920402
0.116400	-0.892164
0.116500	-0.899629
0.116600	-0.899305
0.116700	-0.892813
0.116800	-0.977854
0.116900	-1.031734
0.117000	-1.059973
0.117100	-1.085615
0.117200	-1.098923
0.117300	-1.005443
0.117400	-0.953834
0.117500	-0.879181
0.117600	-1.138197
0.117700	-1.226483
0.117800	-1.159620
0.117900	-0.993433
0.118000	-0.818808
0.118100	-0.850617
0.118200	-1.028813
0.118300	-1.245958
0.118400	-1.173577
0.118500	-0.996679
0.118600	-0.875286
0.118700	-0.908393
0.118800	-1.050884
0.118900	-1.097624
0.119000	-1.053806
0.119100	-1.083018
0.119200	-1.000250
0.119300	-1.048612
0.119400	-1.077825
0.119500	-1.133978
0.119600	-1.110932
0.119700	-1.066464
0.119800	-1.083018
0.119900	-1.118722
0.120000	-1.088861
0.120100	-0.994083
0.120200	-0.989214
0.120300	-1.009663
0.120400	-1.135925
0.120500	-1.210904
0.120600	-1.217395
0.120700	-1.216746
0.120800	-1.203763
0.120900	-1.160269
0.121000	-1.173901
0.121100	-1.161567
0.121200	-1.171304
0.121300	-1.208307
0.121400	-1.206359
0.121500	-1.213176
0.121600	-1.210254
0.121700	-1.212851
0.121800	-1.229080
0.121900	-1.236221
0.122000	-1.239142
0.122100	-1.239467
0.122200	-1.255371
0.122300	-1.282961
0.122400	-1.301137
0.122500	-1.375142
0.122600	-1.406627
0.122700	-1.569892
0.122800	-1.838321
0.122900	-2.001911
0.123000	-1.838646
0.123100	-1.613386
0.123200	-1.627018
0.123300	-1.794503
0.123400	-2.109024
0.123500	-2.238857
0.123600	-2.220031
0.123700	-2.025281
0.123800	-1.974322
0.123900	-2.043782
0.124000	-2.224575
0.124100	-2.377129
0.124200	-2.403096
0.124300	-2.340451
0.124400	-2.248270
0.124500	-2.298905
0.124600	-2.341750
0.124700	-2.361874
0.124800	-2.359926
0.124900	-2.324222
0.125000	-2.361874
0.125100	-2.371611
0.125200	-2.397903
0.125300	-2.399526
0.125400	-2.350514
0.125500	-2.296633
0.125600	-2.337530
0.125700	-2.351812
0.125800	-2.362199
0.125900	-2.214838
0.126000	-2.132069
0.126100	-2.186924
0.126200	-2.345969
0.126300	-2.505015
0.126400	-2.519297
0.126500	-2.329091
0.126600	-2.147000
0.126700	-2.162255
0.126800	-2.365769
0.126900	-2.545264
0.127000	-2.589082
0.127100	-2.514428
0.127200	-2.394657
0.127300	-2.339478
0.127400	-2.346619
0.127500	-2.382647
0.127600	-2.355058
0.127700	-2.277482
0.127800	-2.229444
0.127900	-2.179458
0.128000	-2.145052
0.128100	-2.054818
0.128200	-1.887983
0.128300	-1.775677
0.128400	-1.740622
0.128500	-1.733806
0.128600	-1.727963
0.128700	-1.597157
0.128800	-1.453691
0.128900	-1.362159
0.129000	-1.171954
0.129100	-1.224861
0.129200	-1.185262
0.129300	-1.150856
0.129400	-1.047639
0.129500	-0.976231
0.129600	-0.847372
0.129700	-0.848994
0.129800	-0.818808
0.129900	-0.828546
0.130000	-0.818484
0.130100	-0.801605
0.130200	-0.789596
0.130300	-0.722732
0.130400	-0.714618
0.130500	-0.688326
0.130600	-0.684756
0.130700	-0.763629
0.130800	-0.666579
0.130900	-0.786350
0.131000	-0.504613
0.131100	-0.493253
0.131200	0.027376
0.131300	-0.283248
0.131400	-0.486761
0.131500	-0.582513
0.131600	-0.484814
0.131700	-0.164127
0.131800	-0.052146
0.131900	0.018288
0.132000	-0.200805
0.132100	-0.364394
0.132200	-0.262150
0.132300	-0.177110
0.132400	0.054966
0.132500	0.033543
0.132600	0.074441
0.132700	-0.047927
0.132800	0.008875
0.132900	-0.027802
0.133000	-0.002161
0.133100	0.045878
0.133200	0.022832
0.133300	-0.000862
0.133400	-0.013521
0.133500	0.047825
0.133600	-0.193339
0.133700	-0.142055
0.133800	-0.246246
0.133900	-0.206647
0.134000	-0.169969
0.134100	-0.154714
0.134200	-0.208919
0.134300	-0.498446
0.134400	-0.565959
0.134500	-0.497148
0.134600	-0.317979
0.134700	-0.218981
0.134800	-0.391334
0.134900	-0.630875
0.135000	-0.775964
0.135100	-0.687677
0.135200	-0.551028
0.135300	-0.494226
0.135400	-0.547458
0.135500	-0.681835
0.135600	-0.723057
0.135700	-0.717863
0.135800	-0.729873
0.135900	-0.713644
0.136000	-0.792842
0.136100	-0.846073
0.136200	-0.851267
0.136300	-0.812641
0.136400	-0.786026
0.136500	-0.840231
0.136600	-0.873663
0.136700	-0.828546
0.136800	-0.772393
0.136900	-0.716565
0.137000	-0.735391
0.137100	-0.846398
0.137200	-0.836011
0.137300	-0.813290
0.137400	-0.740584
0.137500	-0.650999
0.137600	-0.691572
0.137700	-0.676641
0.137800	-0.677291
0.137900	-0.697415
0.138000	-0.733119
0.138100	-0.737987
0.138200	-0.765577
0.138300	-0.799658
0.138400	-0.808746
0.138500	-0.815563
0.138600	-0.844775
0.138700	-0.831792
0.138800	-0.880803
0.138900	-0.853539
0.139000	-0.923648
0.139100	-0.898006
0.139200	-0.950589
0.139300	-0.953185
0.139400	-1.087887
0.139500	-1.375791
0.139600	-1.444603
0.139700	-1.213825
0.139800	-0.975906
0.139900	-0.940202
0.140000	-1.152479
0.140100	-1.391371
0.140200	-1.557557
0.140300	-1.454016
0.140400	-1.269004
0.140500	-1.228756
0.140600	-1.345605
0.140700	-1.514063
0.140800	-1.607868
0.140900	-1.666942
0.141000	-1.613710
0.141100	-1.591314
0.141200	-1.606245
0.141300	-1.635457
0.141400	-1.618254
0.141500	-1.628641
0.141600	-1.597157
0.141700	-1.599753
0.141800	-1.635457
0.141900	-1.663696
0.142000	-1.629290
0.142100	-1.580278
0.142200	-1.495562
0.142300	-1.552689
0.142400	-1.527371
0.142500	-1.460832
0.142600	-1.268679
0.142700	-1.193376
0.142800	-1.293347
0.142900	-1.427725
0.143000	-1.586445
0.143100	-1.413767
0.143200	-1.183314
0.143300	-1.058674
0.143400	-1.143390
0.143500	-1.311199
0.143600	-1.489071
0.143700	-1.473815
0.143800	-1.388775
0.143900	-1.304059
0.144000	-1.350798
0.144100	-1.441032
0.144200	-1.495887
0.144300	-1.521853
0.144400	-1.528020
0.144500	-1.598455
0.144600	-1.645195
0.144700	-1.634808
0.144800	-1.636756
0.144900	-1.550417
0.145000	-1.531915
0.145100	-1.582875
0.145200	-1.569242
0.145300	-1.615982
0.145400	-1.516336
0.145500	-1.490694
0.145600	-1.335868
0.145700	-1.365729
0.145800	-1.430646
0.145900	-1.460507
0.146000	-1.422531
0.146100	-1.374493
0.146200	-1.308927
0.146300	-1.353720
0.146400	-1.371896
0.146500	-1.419935
0.146600	-1.510818
0.146700	-1.510818
0.146800	-1.608517
0.146900	-1.641624
0.147000	-1.690636
0.147100	-1.689338
0.147200	-1.788336
0.147300	-1.762694
0.147400	-1.867534
0.147500	-1.857147
0.147600	-1.955496
0.147700	-1.754255
0.147800	-1.601376
0.147900	-1.433567
0.148000	-1.752956
0.148100	-2.021711
0.148200	-2.058389
0.148300	-1.982112
0.148400	-1.614359
0.148500	-1.533538
0.148600	-1.651362
0.148700	-1.725042
0.148800	-1.864937
0.148900	-1.715305
0.149000	-1.567295
0.149100	-1.329051
0.149200	-1.383906
0.149300	-1.376116
0.149400	-1.373844
0.149500	-1.338789
0.149600	-1.240116
0.149700	-1.189157
0.149800	-1.148259
0.149900	-1.150856
0.150000	-1.093405
0.150100	-1.074904
0.150200	-1.099572
0.150300	-1.012259
0.150400	-0.978503
0.150500	-0.987591
0.150600	-0.901252
0.150700	-0.731171
0.150800	-0.724680
0.150900	-0.689949
0.151000	-0.940202
0.151100	-0.770770
0.151200	-0.565634
0.151300	-0.210542
0.151400	-0.109597
0.151500	-0.198208
0.151600	-0.359850
0.151700	-0.336804
0.151800	-0.163153
0.151900	0.093591
0.152000	0.169868
0.152100	0.113715
0.152200	0.059510
0.152300	0.091319
0.152400	0.239977
0.152500	0.831365
0.152600	1.066687
0.152700	0.945293
0.152800	0.785274
0.152900	1.043966
0.153000	1.401006
0.153100	1.458457
0.153200	1.134849
0.153300	1.027088
0.153400	1.228004
0.153500	1.423726
0.153600	1.434762
0.153700	0.973856
0.153800	0.039386
0.153900	0.048150
0.154000	-0.044032
0.154100	-0.093693
0.154200	0.051720
0.154300	-0.182953
0.154400	-0.210217
0.154500	-0.270590
0.154600	-0.321549
0.154700	-0.347515
0.154800	-0.430284
0.154900	-0.493577
0.155000	-0.558494
0.155100	-0.623085
0.155200	-0.648727
0.155300	-0.731820
0.155400	-0.768823
0.155500	-0.856784
0.155600	-0.916832
0.155700	-0.956431
0.155800	-1.067763
0.155900	-1.091457
0.156000	-1.221290
0.156100	-1.447199
0.156200	-1.780870
0.156300	-1.752632
0.156400	-1.583849
0.156500	-1.478684
0.156600	-1.589367
0.156700	-1.926933
0.156800	-2.166799
0.156900	-2.301177
0.157000	-2.174265
0.157100	-2.093119
0.157200	-2.119086
0.157300	-2.320003
0.157400	-2.586161
0.157500	-2.738716
0.157600	-2.741961
0.157700	-2.704634
0.157800	-2.726706
0.157900	-2.802009
0.158000	-2.952292
0.158100	-2.988645
0.158200	-3.005199
0.158300	-3.027595
0.158400	-3.103873
0.158500	-3.173009
0.158600	-3.230785
0.158700	-3.224943
0.158800	-3.252532
0.158900	-3.315177
0.159000	-3.342118
0.159100	-3.397946
0.159200	-3.264217
0.159300	-3.137629
0.159400	-3.116207
0.159500	-3.273306
0.159600	-3.460916
0.159700	-3.554072
0.159800	-3.382691
0.159900	-3.164894
0.160000	-3.075309
0.160100	-3.165544
0.160200	-3.343416
0.160300	-3.465135
0.160400	-3.408658
0.160500	-3.246041
0.160600	-3.143472
0.160700	-3.102250
0.160800	-3.124971
0.160900	-3.139901
0.161000	-3.087968
0.161100	-3.017533
0.161200	-2.928597
0.161300	-2.858812
0.161400	-2.748778
0.161500	-2.651402
0.161600	-2.505015
0.161700	-2.453406
0.161800	-2.381024
0.161900	-2.359926
0.162000	-2.294361
0.162100	-2.098962
0.162200	-2.009052
0.162300	-1.764966
0.162400	-1.793529
0.162500	-1.731534
0.162600	-1.705243
0.162700	-1.583200
0.162800	-1.472517
0.162900	-1.302760
0.163000	-1.242388
0.163100	-1.189481
0.163200	-1.225510
0.163300	-1.189806
0.163400	-1.163515
0.163500	-1.182340
0.163600	-1.103467
0.163700	-1.083343
0.163800	-1.028813
0.163900	-1.035305
0.164000	-1.034655
0.164100	-1.088536
0.164200	-1.073930
0.164300	-1.024269
0.164400	-0.820756
0.164500	-0.542589
0.164600	-0.573749
0.164700	-0.791543
0.164800	-1.193701
0.164900	-0.978503
0.165000	-0.863276
0.165100	-0.574074
0.165200	-0.569205
0.165300	-0.699362
0.165400	-0.820107
0.165500	-0.923648
0.165600	-0.752918
0.165700	-0.620813
0.165800	-0.464365
0.165900	-0.468260
0.166000	-0.572451
0.166100	-0.505262
0.166200	-0.553625
0.166300	-0.477024
0.166400	-0.447487
0.166500	-0.437425
0.166600	-0.443916
0.166700	-0.414379
0.166800	-0.404642
0.166900	-0.517596
0.167000	-0.541615
0.167100	-0.591276
0.167200	-0.529930
0.167300	-0.495525
0.167400	-0.447487
0.167500	-0.504938
0.167600	-0.662035
0.167700	-0.850617
0.167800	-0.796088
0.167900	-0.622436
0.168000	-0.461444
0.168100	-0.517921
0.168200	-0.725653
0.168300	-0.926245
0.168400	-0.899954
0.168500	-0.744154
0.168600	-0.577969
0.168700	-0.581864
0.168800	-0.708450
0.168900	-0.788622
0.169000	-0.782780
0.169100	-0.767849
0.169200	-0.723706
0.169300	-0.719811
0.169400	-0.757138
0.169500	-0.782131
0.169600	-0.758761
0.169700	-0.719811
0.169800	-0.743505
0.169900	-0.787648
0.170000	-0.759085
0.170100	-0.701310
0.170200	-0.650675
0.170300	-0.628928
0.170400	-0.726627
0.170500	-0.782455
0.170600	-0.735391
0.170700	-0.670474
0.170800	-0.529606
0.170900	-0.549405
0.171000	-0.512403
0.171100	-0.451382
0.171200	-0.431907
0.171300	-0.392957
0.171400	-0.329663
0.171500	-0.312461
0.171600	-0.257931
0.171700	-0.267668
0.171800	-0.212165
0.171900	-0.155038
0.172000	-0.053120
0.172100	0.161104
0.172200	0.327290
0.172300	0.528206
0.172400	0.642783
0.172500	0.487958
0.172600	0.573323
0.172700	-0.543238
0.172800	-0.413730
0.172900	-0.608479
0.173000	-0.436451
0.173100	-0.208919
0.173200	-0.100833
0.173300	-0.282275
0.173400	-0.529930
0.173500	-0.750646
0.173600	-0.714942
0.173700	-0.567257
0.173800	-0.462417
0.173900	-0.569529
0.174000	-0.740909
0.174100	-0.927868
0.174200	-0.970713
0.174300	-0.896708
0.174400	-0.883725
0.174500	-0.950589
0.174600	-1.067114
0.174700	-1.109634
0.174800	-1.165462
0.174900	-1.179094
0.175000	-1.244011
0.175100	-1.314121
0.175200	-1.417987
0.175300	-1.437462
0.175400	-1.467648
0.175500	-1.538083
0.175600	-1.609491
0.175700	-1.738675
0.175800	-1.746465
0.175900	-1.649414
0.176000	-1.571839
0.176100	-1.692259
0.176200	-1.889930
0.176300	-2.114217
0.176400	-2.133692
0.176500	-1.986980
0.176600	-1.849033
0.176700	-1.876298
0.176800	-2.051248
0.176900	-2.300203
0.177000	-2.437826
0.177100	-2.413483
0.177200	-2.338829
0.177300	-2.332986
0.177400	-2.409263
0.177500	-2.489111
0.177600	-2.557922
0.177700	-2.581942
0.177800	-2.579020
0.177900	-2.542018
0.178000	-2.550782
0.178100	-2.529034
0.178200	-2.415106
0.178300	-2.349215
0.178400	-2.332337
0.178500	-2.342074
0.178600	-2.345969
0.178700	-2.240480
0.178800	-2.051897
0.178900	-1.899992
0.179000	-1.788985
0.179100	-1.859744
0.179200	-1.797424
0.179300	-1.745815
0.179400	-1.632211
0.179500	-1.559830
0.179600	-1.391696
0.179700	-1.351123
0.179800	-1.315744
0.179900	-1.307629
0.180000	-1.229729
0.180100	-1.236221
0.180200	-1.129758
0.180300	-1.082044
0.180400	-0.973634
0.180500	-0.999276
0.180600	-0.947667
0.180700	-0.979152
0.180800	-0.997653
0.180900	-0.891515
0.181000	-0.865548
0.181100	-0.568556
0.181200	-0.355305
0.181300	-0.448460
0.181400	-0.749997
0.181500	-1.002846
0.181600	-0.745128
0.181700	-0.469234
0.181800	-0.248193
0.181900	-0.288442
0.182000	-0.369587
0.182100	-0.608155
0.182200	-0.541940
0.182300	-0.429310
0.182400	-0.165425
0.182500	-0.184251
0.182600	-0.101807
0.182700	-0.204699
0.182800	-0.143678
0.182900	-0.144003
0.183000	-0.081683
0.183100	-0.066428
0.183200	-0.065129
0.183300	-0.051172
0.183400	0.000761
0.183500	-0.016767
0.183600	-0.210867
0.183700	-0.141081
0.183800	-0.273835
0.183900	-0.185549
0.184000	-0.187497
0.184100	-0.128098
0.184200	-0.186198
0.184300	-0.511105
0.184400	-0.540966
0.184500	-0.554923
0.184600	-0.372508
0.184700	-0.311162
0.184800	-0.442942
0.184900	-0.704880
0.185000	-0.906770
0.185100	-0.887620
0.185200	-0.765577
0.185300	-0.665606
0.185400	-0.740259
0.185500	-0.926894
0.185600	-1.025243
0.185700	-1.020698
0.185800	-1.053481
0.185900	-1.019075
0.186000	-1.147610
0.186100	-1.203114
0.186200	-1.289128
0.186300	-1.258617
0.186400	-1.263810
0.186500	-1.334245
0.186600	-1.372221
0.186700	-1.389424
0.186800	-1.344631
0.186900	-1.345281
0.187000	-1.361510
0.187100	-1.490044
0.187200	-1.512765
0.187300	-1.477061
0.187400	-1.460832
0.187500	-1.332946
0.187600	-1.384555
0.187700	-1.367352
0.187800	-1.332946
0.187900	-1.309577
0.188000	-1.338140
0.188100	-1.299514
0.188200	-1.301462
0.188300	-1.241739
0.188400	-1.212202
0.188500	-1.214149
0.188600	-1.194350
0.188700	-1.191429
0.188800	-1.178445
0.188900	-1.173901
0.189000	-1.162541
0.189100	-1.198894
0.189200	-1.194674
0.189300	-1.214799
0.189400	-1.334894
0.189500	-1.622474
0.189600	-1.698102
0.189700	-1.455314
0.189800	-1.287180
0.189900	-1.230703
0.190000	-1.478359
0.190100	-1.696479
0.190200	-1.822092
0.190300	-1.708164
0.190400	-1.537109
0.190500	-1.479982
0.190600	-1.567295
0.190700	-1.784765
0.190800	-1.873376
0.190900	-1.901615
0.191000	-1.810083
0.191100	-1.855200
0.191200	-1.916871
0.191300	-1.959391
0.191400	-1.991849
0.191500	-2.028527
0.191600	-2.031773
0.191700	-2.086303
0.191800	-2.183353
0.191900	-2.230742
0.192000	-2.300528
0.192100	-2.287220
0.192200	-2.341425
0.192300	-2.457301
0.192400	-2.483917
0.192500	-2.524815
0.192600	-2.327144
0.192700	-2.341425
0.192800	-2.417053
0.192900	-2.623488
0.193000	-2.819537
0.193100	-2.761761
0.193200	-2.595899
0.193300	-2.441721
0.193400	-2.509235
0.193500	-2.699441
0.193600	-2.887050
0.193700	-2.942879
0.193800	-2.821160
0.193900	-2.693274
0.194000	-2.682238
0.194100	-2.709828
0.194200	-2.765007
0.194300	-2.764682
0.194400	-2.758840
0.194500	-2.746506
0.194600	-2.691002
0.194700	-2.624787
0.194800	-2.574801
0.194900	-2.446915
0.195000	-2.347592
0.195100	-2.267096
0.195200	-2.266122
0.195300	-2.272938
0.195400	-2.171993
0.195500	-2.048327
0.195600	-2.019439
0.195700	-1.809109
0.195800	-1.861367
0.195900	-1.826637
0.196000	-1.790283
0.196100	-1.659801
0.196200	-1.582226
0.196300	-1.494264
0.196400	-1.443629
0.196500	-1.478359
0.196600	-1.453042
0.196700	-1.505624
0.196800	-1.444603
0.196900	-1.503028
0.197000	-1.412794
0.197100	-1.418312
0.197200	-1.379362
0.197300	-1.418636
0.197400	-1.489720
0.197500	-1.492641
0.197600	-1.550417
0.197700	-1.329051
0.197800	-1.094703
0.197900	-0.903849
0.198000	-1.016803
0.198100	-1.478035
0.198200	-1.433892
0.198300	-1.390722
0.198400	-0.983047
0.198500	-0.995381
0.198600	-0.866197
0.198700	-1.135600
0.198800	-1.168383
0.198900	-1.090159
0.199000	-0.942799
0.199100	-0.759734
0.199200	-0.763954
0.199300	-0.767524
0.199400	-0.844450
0.199500	-0.817185
0.199600	-0.809071
0.199700	-0.781157
0.199800	-0.789596
0.199900	-0.778236
0.200000	-0.799333
0.200100	-0.819133
0.200200	-0.836336
0.200300	-0.976880
0.200400	-0.980450
0.200500	-1.026216
0.200600	-1.016803
0.200700	-0.899629
0.200800	-0.986617
0.200900	-1.008689
0.201000	-1.429347
0.201100	-1.337491
0.201200	-1.330350
0.201300	-1.064517
0.201400	-1.095028
0.201500	-1.232001
0.201600	-1.503028
0.201700	-1.598455
0.201800	-1.512116
0.201900	-1.341061
0.202000	-1.281013
0.202100	-1.404679
0.202200	-1.486474
0.202300	-1.525099
0.202400	-1.453367
0.202500	-1.492966
0.202600	-1.421882
0.202700	-1.517634
0.202800	-1.522178
0.202900	-1.541653
0.203000	-1.477386
0.203100	-1.466025
0.203200	-1.524125
0.203300	-1.542627
0.203400	-1.491018
0.203500	-1.459858
0.203600	-1.410197
0.203700	-1.436488
0.203800	-1.549443
0.203900	-1.544899
0.204000	-1.522503
0.204100	-1.399161
0.204200	-1.398837
0.204300	-1.437462
0.204400	-1.422856
0.204500	-1.432918
0.204600	-1.424479
0.204700	-1.434216
0.204800	-1.433567
0.204900	-1.432918
0.205000	-1.476736
0.205100	-1.451094
0.205200	-1.464078
0.205300	-1.467648
0.205400	-1.486474
0.205500	-1.483877
0.205600	-1.546197
0.205700	-1.535810
0.205800	-1.626694
0.205900	-1.629939
0.206000	-1.705892
0.206100	-1.922713
0.206200	-2.180107
0.206300	-2.170370
0.206400	-1.964584
0.206500	-1.836049
0.206600	-1.945109
0.206700	-2.236909
0.206800	-2.530657
0.206900	-2.548185
0.207000	-2.471259
0.207100	-2.273263
0.207200	-2.303774
0.207300	-2.434581
0.207400	-2.656920
0.207500	-2.750401
0.207600	-2.738391
0.207700	-2.704634
0.207800	-2.742935
0.207900	-2.820835
0.208000	-2.905876
0.208100	-2.916588
0.208200	-2.982478
0.208300	-2.958783
0.208400	-2.998058
0.208500	-3.084398
0.208600	-3.110689
0.208700	-3.111338
0.208800	-3.120751
0.208900	-3.109066
0.209000	-3.185019
0.209100	-3.157429
0.209200	-3.105171
0.209300	-2.884129
0.209400	-2.912368
0.209500	-3.014937
0.209600	-3.183720
0.209700	-3.277525
0.209800	-3.135033
0.209900	-2.931843
0.210000	-2.829599
0.210100	-2.881857
0.210200	-3.074985
0.210300	-3.191186
0.210400	-3.148341
0.210500	-3.011042
0.210600	-2.947098
0.210700	-2.957161
0.210800	-2.983452
0.210900	-3.004550
0.211000	-2.997084
0.211100	-2.977934
0.211200	-2.956187
0.211300	-2.926650
0.211400	-2.871146
0.211500	-2.780262
0.211600	-2.677369
0.211700	-2.672176
0.211800	-2.677369
0.211900	-2.691975
0.212000	-2.716644
0.212100	-2.580319
0.212200	-2.515727
0.212300	-2.482944
0.212400	-2.328442
0.212500	-2.358304
0.212600	-2.326819
0.212700	-2.279430
0.212800	-2.189845
0.212900	-2.087926
0.213000	-2.020737
0.213100	-1.996069
0.213200	-1.998665
0.213300	-1.973673
0.213400	-1.953548
0.213500	-1.955496
0.213600	-1.905510
0.213700	-1.846761
0.213800	-1.841243
0.213900	-1.810407
0.214000	-1.851954
0.214100	-1.893501
0.214200	-1.863964
0.214300	-1.862341
0.214400	-1.609166
0.214500	-1.355343
0.214600	-1.230703
0.214700	-1.476087
0.214800	-1.823391
0.214900	-1.753605
0.215000	-1.543600
0.215100	-1.308603
0.215200	-1.226159
0.215300	-1.336841
0.215400	-1.424803
0.215500	-1.534837
0.215600	-1.379362
0.215700	-1.293672
0.215800	-1.165787
0.215900	-1.247257
0.216000	-1.224211
0.216100	-1.330999
0.216200	-1.286856
0.216300	-1.248555
0.216400	-1.241090
0.216500	-1.268679
0.216600	-1.297242
0.216700	-1.298865
0.216800	-1.364431
0.216900	-1.337815
0.217000	-1.482904
0.217100	-1.537758
0.217200	-1.631238
0.217300	-1.527047
0.217400	-1.553013
0.217500	-1.503352
0.217600	-1.724393
0.217700	-1.950627
0.217800	-1.920116
0.217900	-1.782818
0.218000	-1.587744
0.218100	-1.694856
0.218200	-1.816250
0.218300	-2.097988
0.218400	-2.058064
0.218500	-2.003534
0.218600	-1.772431
0.218700	-1.790932
0.218800	-1.930828
0.218900	-2.021711
0.219000	-2.011324
0.219100	-1.989253
0.219200	-1.951925
0.219300	-1.967505
0.219400	-2.016193
0.219500	-2.052546
0.219600	-2.097014
0.219700	-1.996718
0.219800	-2.002560
0.219900	-2.031773
0.220000	-2.036966
0.220100	-1.981463
0.220200	-1.981138
0.220300	-1.970427
0.220400	-2.068451
0.220500	-2.151869
0.220600	-2.168098
0.220700	-2.154465
0.220800	-2.005482
0.220900	-2.051248
0.221000	-2.096365
0.221100	-2.072346
0.221200	-2.083057
0.221300	-2.070074
0.221400	-2.100260
0.221500	-2.100909
0.221600	-2.132718
0.221700	-2.159334
0.221800	-2.185950
0.221900	-2.190819
0.222000	-2.247296
0.222100	-2.266771
0.222200	-2.255735
0.222300	-2.297606
0.222400	-2.309941
0.222500	-2.376480
0.222600	-2.400175
0.222700	-2.503717
0.222800	-2.757217
0.222900	-2.914315
0.223000	-2.835117
0.223100	-2.576748
0.223200	-2.445616
0.223300	-2.588109
0.223400	-2.818563
0.223500	-3.056808
0.223600	-2.985724
0.223700	-2.837064
0.223800	-2.719890
0.223900	-2.730926
0.224000	-2.909122
0.224100	-3.039280
0.224200	-3.102250
0.224300	-3.057457
0.224400	-3.012664
0.224500	-3.023376
0.224600	-3.042526
0.224700	-3.062326
0.224800	-3.106145
0.224900	-3.075958
0.225000	-3.078555
0.225100	-3.097706
0.225200	-3.172035
0.225300	-3.179176
0.225400	-3.152560
0.225500	-3.115882
0.225600	-3.146069
0.225700	-3.149639
0.225800	-3.148341
0.225900	-2.981180
0.226000	-2.876015
0.226100	-2.917886
0.226200	-3.034736
0.226300	-3.200923
0.226400	-3.216503
0.226500	-3.034412
0.226600	-2.816616
0.226700	-2.747804
0.226800	-2.851995
0.226900	-2.996760
0.227000	-3.066545
0.227100	-2.986373
0.227200	-2.818563
0.227300	-2.738716
0.227400	-2.707555
0.227500	-2.756243
0.227600	-2.736119
0.227700	-2.754945
0.227800	-2.734821
0.227900	-2.695546
0.228000	-2.653350
0.228100	-2.580643
0.228200	-2.490734
0.228300	-2.378752
0.228400	-2.324222
0.228500	-2.321950
0.228600	-2.306695
0.228700	-2.244050
0.228800	-2.064231
0.228900	-1.921090
0.229000	-1.789634
0.229100	-1.846761
0.229200	-1.811381
0.229300	-1.793854
0.229400	-1.720173
0.229500	-1.670837
0.229600	-1.589042
0.229700	-1.586770
0.229800	-1.594884
0.229900	-1.638054
0.230000	-1.673758
0.230100	-1.653634
0.230200	-1.752956
0.230300	-1.681548
0.230400	-1.748412
0.230500	-1.710436
0.230600	-1.767238
0.230700	-1.723744
0.230800	-1.801319
0.230900	-1.766589
0.231000	-1.727314
0.231100	-1.536135
0.231200	-1.341061
0.231300	-1.348526
0.231400	-1.671161
0.231500	-1.845138
0.231600	-1.667916
0.231700	-1.347553
0.231800	-1.274522
0.231900	-1.263486
0.232000	-1.383581
0.232100	-1.532889
0.232200	-1.454665
0.232300	-1.348526
0.232400	-1.129758
0.232500	-1.145987
0.232600	-1.119371
0.232700	-1.280040
0.232800	-1.252125
0.232900	-1.223887
0.233000	-1.196297
0.233100	-1.190779
0.233200	-1.241414
0.233300	-1.258293
0.233400	-1.237519
0.233500	-1.349176
0.233600	-1.398837
0.233700	-1.469920
0.233800	-1.423505
0.233900	-1.463429
0.234000	-1.338789
0.234100	-1.378063
0.234200	-1.406302
0.234300	-1.713033
0.234400	-1.787362
0.234500	-1.769510
0.234600	-1.561452
0.234700	-1.529968
0.234800	-1.549768
0.234900	-1.829233
0.235000	-2.028852
0.235100	-1.988603
0.235200	-1.879868
0.235300	-1.749061
0.235400	-1.853252
0.235500	-1.995744
0.235600	-2.100584
0.235700	-2.041186
0.235800	-2.074618
0.235900	-2.018140
0.236000	-2.127200
0.236100	-2.181730
0.236200	-2.249244
0.236300	-2.242752
0.236400	-2.253139
0.236500	-2.322924
0.236600	-2.403745
0.236700	-2.427440
0.236800	-2.391411
0.236900	-2.396929
0.237000	-2.407965
0.237100	-2.567660
0.237200	-2.591354
0.237300	-2.563765
0.237400	-2.528385
0.237500	-2.403745
0.237600	-2.450485
0.237700	-2.436204
0.237800	-2.398227
0.237900	-2.397254
0.238000	-2.353759
0.238100	-2.357654
0.238200	-2.358953
0.238300	-2.351487
0.238400	-2.335907
0.238500	-2.329091
0.238600	-2.309291
0.238700	-2.345645
0.238800	-2.314809
0.238900	-2.319678
0.239000	-2.301826
0.239100	-2.316757
0.239200	-2.345645
0.239300	-2.338504
0.239400	-2.517025
0.239500	-2.715995
0.239600	-2.918535
0.239700	-2.673150
0.239800	-2.502094
0.239900	-2.414132
0.240000	-2.634524
0.240100	-2.876988
0.240200	-2.993514
0.240300	-2.939633
0.240400	-2.737093
0.240500	-2.688080
0.240600	-2.820186
0.240700	-3.037008
0.240800	-3.204494
0.240900	-3.174957
0.241000	-3.136331
0.241100	-3.072063
0.241200	-3.139252
0.241300	-3.255129
0.241400	-3.295702
0.241500	-3.304466
0.241600	-3.297000
0.241700	-3.312256
0.241800	-3.341468
0.241900	-3.406385
0.242000	-3.383340
0.242100	-3.368734
0.242200	-3.380094
0.242300	-3.434624
0.242400	-3.434624
0.242500	-3.397622
0.242600	-3.217802
0.242700	-3.114908
0.242800	-3.266165
0.242900	-3.436247
0.243000	-3.594969
0.243100	-3.555370
0.243200	-3.366137
0.243300	-3.203195
0.243400	-3.202222
0.243500	-3.410280
0.243600	-3.597891
0.243700	-3.631972
0.243800	-3.513174
0.243900	-3.381068
0.244000	-3.357698
0.244100	-3.410605
0.244200	-3.477794
0.244300	-3.484286
0.244400	-3.433326
0.244500	-3.383015
0.244600	-3.331082
0.244700	-3.295053
0.244800	-3.239224
0.244900	-3.110040
0.245000	-3.041228
0.245100	-2.996435
0.245200	-3.013963
0.245300	-3.001953
0.245400	-2.858487
0.245500	-2.746506
0.245600	-2.777666
0.245700	-2.649780
0.245800	-2.716319
0.245900	-2.710477
0.246000	-2.681589
0.246100	-2.586161
0.246200	-2.537474
0.246300	-2.486189
0.246400	-2.484242
0.246500	-2.489760
0.246600	-2.577073
0.246700	-2.617970
0.246800	-2.624137
0.246900	-2.653350
0.247000	-2.583564
0.247100	-2.631278
0.247200	-2.573502
0.247300	-2.662763
0.247400	-2.623164
0.247500	-2.769551
0.247600	-2.632901
0.247700	-2.695870
0.247800	-2.302475
0.247900	-2.288843
0.248000	-2.307344
0.248100	-2.781885
0.248200	-2.861084
0.248300	-2.707880
0.248400	-2.407640
0.248500	-2.270991
0.248600	-2.250866
0.248700	-2.471908
0.248800	-2.601092
0.248900	-2.590056
0.249000	-2.381998
0.249100	-2.177511
0.249200	-2.153492
0.249300	-2.155764
0.249400	-2.208995
0.249500	-2.178484
0.249600	-2.205425
0.249700	-2.110971
0.249800	-2.101234
0.249900	-2.087926
0.250000	-2.103830
0.250100	-2.093768
0.250200	-2.240155
0.250300	-2.143429
0.250400	-2.182704
0.250500	-2.150895
0.250600	-2.181730
0.250700	-2.111945
0.250800	-2.128499
0.250900	-2.209320
0.251000	-2.460872
0.251100	-2.454056
0.251200	-2.370638
0.251300	-2.136938
0.251400	-2.087277
0.251500	-2.210618
0.251600	-2.487488
0.251700	-2.608233
0.251800	-2.525464
0.251900	-2.328766
0.252000	-2.229119
0.252100	-2.297606
0.252200	-2.433607
0.252300	-2.515077
0.252400	-2.433282
0.252500	-2.428414
0.252600	-2.343697
0.252700	-2.418027
0.252800	-2.440423
0.252900	-2.485865
0.253000	-2.413158
0.253100	-2.421922
0.253200	-2.449836
0.253300	-2.495278
0.253400	-2.476452
0.253500	-2.449836
0.253600	-2.432633
0.253700	-2.475154
0.253800	-2.608557
0.253900	-2.653999
0.254000	-2.640367
0.254100	-2.574801
0.254200	-2.519297
0.254300	-2.539421
0.254400	-2.517025
0.254500	-2.458600
0.254600	-2.421273
0.254700	-2.374533
0.254800	-2.348891
0.254900	-2.333960
0.255000	-2.318704
0.255100	-2.270017
0.255200	-2.263525
0.255300	-2.238532
0.255400	-2.207372
0.255500	-2.182379
0.255600	-2.173616
0.255700	-2.158036
0.255800	-2.203477
0.255900	-2.161931
0.256000	-2.224900
0.256100	-2.399850
0.256200	-2.672500
0.256300	-2.675746
0.256400	-2.467364
0.256500	-2.232690
0.256600	-2.221979
0.256700	-2.526113
0.256800	-2.748778
0.256900	-2.853294
0.257000	-2.722486
0.257100	-2.541369
0.257200	-2.510858
0.257300	-2.617970
0.257400	-2.803957
0.257500	-2.900358
0.257600	-2.864005
0.257700	-2.809799
0.257800	-2.814344
0.257900	-2.841609
0.258000	-2.886401
0.258100	-2.948721
0.258200	-2.954239
0.258300	-2.942879
0.258400	-2.954888
0.258500	-3.016235
0.258600	-3.046746
0.258700	-3.031166
0.258800	-3.013638
0.258900	-3.069791
0.259000	-3.144446
0.259100	-3.166193
0.259200	-3.121076
0.259300	-2.937361
0.259400	-2.941256
0.259500	-3.070116
0.259600	-3.258050
0.259700	-3.398920
0.259800	-3.295377
0.259900	-3.137305
0.260000	-3.011042
0.260100	-3.110364
0.260200	-3.331406
0.260300	-3.521288
0.260400	-3.530052
0.260500	-3.395350
0.260600	-3.304466
0.260700	-3.284017
0.260800	-3.355426
0.260900	-3.394376
0.261000	-3.407035
0.261100	-3.383989
0.261200	-3.337573
0.261300	-3.265840
0.261400	-3.220398
0.261500	-3.140551
0.261600	-3.017858
0.261700	-2.976960
0.261800	-2.980206
0.261900	-2.985399
0.262000	-2.980206
0.262100	-2.809150
0.262200	-2.737417
0.262300	-2.557273
0.262400	-2.576748
0.262500	-2.593302
0.262600	-2.575450
0.262700	-2.526113
0.262800	-2.426466
0.262900	-2.332661
0.263000	-2.222303
0.263100	-2.205425
0.263200	-2.218408
0.263300	-2.195038
0.263400	-2.132394
0.263500	-2.183353
0.263600	-2.098962
0.263700	-2.096365
0.263800	-2.027229
0.263900	-2.087277
0.264000	-2.011649
0.264100	-2.083706
0.264200	-2.085978
0.264300	-2.038265
0.264400	-1.929529
0.264500	-1.657204
0.264600	-1.592288
0.264700	-1.791906
0.264800	-2.170694
0.264900	-2.140833
0.265000	-1.898045
0.265100	-1.725367
0.265200	-1.594884
0.265300	-1.734780
0.265400	-1.949329
0.265500	-1.993148
0.265600	-1.921090
0.265700	-1.779897
0.265800	-1.637405
0.265900	-1.601052
0.266000	-1.761071
0.266100	-1.699725
0.266200	-1.802617
0.266300	-1.779572
0.266400	-1.813329
0.266500	-1.842216
0.266600	-1.896097
0.266700	-1.910703
0.266800	-1.910379
0.266900	-2.047677
0.267000	-2.194064
0.267100	-2.230742
0.267200	-2.293711
0.267300	-2.301826
0.267400	-2.307993
0.267500	-2.355707
0.267600	-2.528385
0.267700	-2.777341
0.267800	-2.785780
0.267900	-2.697169
0.268000	-2.431335
0.268100	-2.468013
0.268200	-2.597197
0.268300	-2.867900
0.268400	-2.896139
0.268500	-2.797790
0.268600	-2.585512
0.268700	-2.540719
0.268800	-2.658543
0.268900	-2.770200
0.269000	-2.779938
0.269100	-2.729627
0.269200	-2.698143
0.269300	-2.676720
0.269400	-2.722162
0.269500	-2.732548
0.269600	-2.698143
0.269700	-2.611803
0.269800	-2.602066
0.269900	-2.618295
0.270000	-2.621865
0.270100	-2.555650
0.270200	-2.532929
0.270300	-2.480347
0.270400	-2.544290
0.270500	-2.641665
0.270600	-2.644911
0.270700	-2.620892
0.270800	-2.537798
0.270900	-2.465416
0.271000	-2.493330
0.271100	-2.453731
0.271200	-2.423545
0.271300	-2.398227
0.271400	-2.404719
0.271500	-2.410237
0.271600	-2.400499
0.271700	-2.431659
0.271800	-2.419325
0.271900	-2.445616
0.272000	-2.436528
0.272100	-2.457626
0.272200	-2.453731
0.272300	-2.503392
0.272400	-2.491707
0.272500	-2.540070
0.272600	-2.573178
0.272700	-2.665035
0.272800	-2.929895
0.272900	-3.107118
0.273000	-3.036359
0.273100	-2.770849
0.273200	-2.715995
0.273300	-2.807852
0.273400	-3.190212
0.273500	-3.441441
0.273600	-3.445660
0.273700	-3.310958
0.273800	-3.148016
0.273900	-3.175281
0.274000	-3.359645
0.274100	-3.540764
0.274200	-3.590425
0.274300	-3.546931
0.274400	-3.494997
0.274500	-3.461565
0.274600	-3.500515
0.274700	-3.526157
0.274800	-3.494023
0.274900	-3.469355
0.275000	-3.427483
0.275100	-3.463512
0.275200	-3.540439
0.275300	-3.544983
0.275400	-3.523885
0.275500	-3.520315
0.275600	-3.534921
0.275700	-3.621910
0.275800	-3.624182
0.275900	-3.530701
0.276000	-3.342767
0.276100	-3.380419
0.276200	-3.545957
0.276300	-3.716689
0.276400	-3.763754
0.276500	-3.585881
0.276600	-3.359321
0.276700	-3.245067
0.276800	-3.338547
0.276900	-3.536544
0.277000	-3.636192
0.277100	-3.558291
0.277200	-3.431054
0.277300	-3.344065
0.277400	-3.358671
0.277500	-3.418720
0.277600	-3.463188
0.277700	-3.483961
0.277800	-3.442090
0.277900	-3.450854
0.278000	-3.422290
0.278100	-3.401192
0.278200	-3.348934
0.278300	-3.272657
0.278400	-3.252532
0.278500	-3.261945
0.278600	-3.299272
0.278700	-3.285640
0.278800	-3.116207
0.278900	-3.096083
0.279000	-2.884778
0.279100	-2.942554
0.279200	-2.944502
0.279300	-2.925676
0.279400	-2.837389
0.279500	-2.703660
0.279600	-2.576099
0.279700	-2.534552
0.279800	-2.474504
0.279900	-2.490734
0.280000	-2.453406
0.280100	-2.398552
0.280200	-2.476127
0.280300	-2.332012
0.280400	-2.352461
0.280500	-2.218084
0.280600	-2.249568
0.280700	-2.229119
0.280800	-2.290790
0.280900	-2.254761
0.281000	-2.211916
0.281100	-1.939591
0.281200	-1.634808
0.281300	-1.673433
0.281400	-1.798398
0.281500	-2.137587
0.281600	-2.018790
0.281700	-1.812355
0.281800	-1.502054
0.281900	-1.458560
0.282000	-1.542302
0.282100	-1.658827
0.282200	-1.792880
0.282300	-1.670837
0.282400	-1.557882
0.282500	-1.544250
0.282600	-1.510168
0.282700	-1.647142
0.282800	-1.635457
0.282900	-1.746789
0.283000	-1.725691
0.283100	-1.764641
0.283200	-1.837023
0.283300	-1.878570
0.283400	-1.924985
0.283500	-2.017816
0.283600	-2.115515
0.283700	-2.250866
0.283800	-2.235286
0.283900	-2.379726
0.284000	-2.206074
0.284100	-2.287220
0.284200	-2.241129
0.284300	-2.583564
0.284400	-2.753322
0.284500	-2.700739
0.284600	-2.580643
0.284700	-2.373234
0.284800	-2.498199
0.284900	-2.677045
0.285000	-2.872769
0.285100	-2.845504
0.285200	-2.700090
0.285300	-2.523192
0.285400	-2.527412
0.285500	-2.598820
0.285600	-2.630954
0.285700	-2.559221
0.285800	-2.553054
0.285900	-2.466390
0.286000	-2.479049
0.286100	-2.456652
0.286200	-2.465091
0.286300	-2.399201
0.286400	-2.355058
0.286500	-2.360251
0.286600	-2.385569
0.286700	-2.377779
0.286800	-2.312537
0.286900	-2.301826
0.287000	-2.292413
0.287100	-2.422246
0.287200	-2.522543
0.287300	-2.510209
0.287400	-2.536175
0.287500	-2.451459
0.287600	-2.526438
0.287700	-2.582266
0.287800	-2.596223
0.287900	-2.640691
0.288000	-2.624137
0.288100	-2.676720
0.288200	-2.691326
0.288300	-2.733198
0.288400	-2.734821
0.288500	-2.740338
0.288600	-2.732873
0.288700	-2.763059
0.288800	-2.740338
0.288900	-2.751699
0.289000	-2.694248
0.289100	-2.714047
0.289200	-2.699765
0.289300	-2.686782
0.289400	-2.779288
0.289500	-3.011366
0.289600	-3.117830
0.289700	-2.887700
0.289800	-2.654973
0.289900	-2.428738
0.290000	-2.581292
0.290100	-2.796816
0.290200	-2.971118
0.290300	-2.912693
0.290400	-2.719890
0.290500	-2.589732
0.290600	-2.674123
0.290700	-2.878287
0.290800	-3.050965
0.290900	-3.111663
0.291000	-3.070765
0.291100	-3.096732
0.291200	-3.175281
0.291300	-3.271358
0.291400	-3.370357
0.291500	-3.377497
0.291600	-3.426834
0.291700	-3.456696
0.291800	-3.535570
0.291900	-3.597241
0.292000	-3.670922
0.292100	-3.616067
0.292200	-3.662483
0.292300	-3.700135
0.292400	-3.796537
0.292500	-3.779009
0.292600	-3.657614
0.292700	-3.540114
0.292800	-3.642683
0.292900	-3.827372
0.293000	-3.978629
0.293100	-3.983174
0.293200	-3.762455
0.293300	-3.560888
0.293400	-3.525184
0.293500	-3.657614
0.293600	-3.830943
0.293700	-3.871841
0.293800	-3.732269
0.293900	-3.585556
0.294000	-3.515771
0.294100	-3.535570
0.294200	-3.558940
0.294300	-3.558291
0.294400	-3.519666
0.294500	-3.475197
0.294600	-3.410280
0.294700	-3.401192
0.294800	-3.340819
0.294900	-3.213582
0.295000	-3.105820
0.295100	-3.090565
0.295200	-3.096732
0.295300	-3.096407
0.295400	-3.000979
0.295500	-2.809475
0.295600	-2.641665
0.295700	-2.562791
0.295800	-2.621865
0.295900	-2.565712
0.296000	-2.488786
0.296100	-2.374208
0.296200	-2.324222
0.296300	-2.205749
0.296400	-2.174589
0.296500	-2.122007
0.296600	-2.108374
0.296700	-2.092145
0.296800	-2.068451
0.296900	-2.046379
0.297000	-1.971400
0.297100	-1.955496
0.297200	-1.871754
0.297300	-1.941539
0.297400	-1.841567
0.297500	-1.953548
0.297600	-1.812355
0.297700	-1.831505
0.297800	-1.582550
0.297900	-1.443954
0.298000	-1.446226
0.298100	-1.879868
0.298200	-2.017167
0.298300	-1.895773
0.298400	-1.629615
0.298500	-1.504001
0.298600	-1.468946
0.298700	-1.711734
0.298800	-1.826961
0.298900	-1.883439
0.299000	-1.732183
0.299100	-1.625395
0.299200	-1.674407
0.299300	-1.775352
0.299400	-1.898045
0.299500	-1.917520
0.299600	-1.923687
0.299700	-1.932451
0.299800	-1.966856
0.299900	-2.036642
0.300000	-2.113892
0.300100	-2.125253
0.300200	-2.196661
0.300300	-2.316108
0.300400	-2.344996
0.300500	-2.383621
0.300600	-2.397578
0.300700	-2.315134
0.300800	-2.278781
0.300900	-2.329416
0.301000	-2.537149
0.301100	-2.610180
0.301200	-2.454380
0.301300	-2.208995
0.301400	-1.968155
0.301500	-2.066179
0.301600	-2.171019
0.301700	-2.269692
0.301800	-2.109673
0.301900	-1.853901
0.302000	-1.664994
0.302100	-1.665319
0.302200	-1.751982
0.302300	-1.815925
0.302400	-1.725042
0.302500	-1.689663
0.302600	-1.599429
0.302700	-1.684469
0.302800	-1.735753
0.302900	-1.802942
0.303000	-1.777949
0.303100	-1.782818
0.303200	-1.877271
0.303300	-1.957768
0.303400	-2.026255
0.303500	-2.042484
0.303600	-2.084031
0.303700	-2.167773
0.303800	-2.355058
0.303900	-2.464767
0.304000	-2.520920
0.304100	-2.549808
0.304200	-2.480347
0.304300	-2.584863
0.304400	-2.637445
0.304500	-2.691975
0.304600	-2.720539
0.304700	-2.781236
0.304800	-2.843556
0.304900	-2.931194
0.305000	-2.970468
0.305100	-3.007796
0.305200	-3.094135
0.305300	-3.131462
0.305400	-3.191835
0.305500	-3.202222
0.305600	-3.244742
0.305700	-3.257726
0.305800	-3.315502
0.305900	-3.308685
0.306000	-3.284666
0.306100	-3.471302
0.306200	-3.622559
0.306300	-3.726751
0.306400	-3.442739
0.306500	-3.270709
0.306600	-3.259998
0.306700	-3.437221
0.306800	-3.766026
0.306900	-3.829969
0.307000	-3.758236
0.307100	-3.554072
0.307200	-3.522911
0.307300	-3.646578
0.307400	-3.870542
0.307500	-3.955259
0.307600	-3.907870
0.307700	-3.762455
0.307800	-3.667027
0.307900	-3.733567
0.308000	-3.760183
0.308100	-3.785176
0.308200	-3.765377
0.308300	-3.738436
0.308400	-3.720584
0.308500	-3.742656
0.308600	-3.819258
0.308700	-3.785825
0.308800	-3.766999
0.308900	-3.720908
0.309000	-3.765377
0.309100	-3.752718
0.309200	-3.678712
0.309300	-3.485260
0.309400	-3.407684
0.309500	-3.481365
0.309600	-3.585232
0.309700	-3.671571
0.309800	-3.525508
0.309900	-3.281420
0.310000	-3.076608
0.310100	-3.060703
0.310200	-3.212608
0.310300	-3.356724
0.310400	-3.367435
0.310500	-3.199950
0.310600	-3.084398
0.310700	-3.053237
0.310800	-3.094135
0.310900	-3.163272
0.311000	-3.150937
0.311100	-3.097381
0.311200	-3.083748
0.311300	-3.010717
0.311400	-2.992540
0.311500	-2.946774
0.311600	-2.837714
0.311700	-2.785131
0.311800	-2.770849
0.311900	-2.782210
0.312000	-2.784482
0.312100	-2.633550
0.312200	-2.536175
0.312300	-2.350189
0.312400	-2.385244
0.312500	-2.434256
0.312600	-2.417702
0.312700	-2.404719
0.312800	-2.320976
0.312900	-2.274236
0.313000	-2.229119
0.313100	-2.226523
0.313200	-2.277482
0.313300	-2.309291
0.313400	-2.384919
0.313500	-2.392060
0.313600	-2.426141
0.313700	-2.419650
0.313800	-2.421597
0.313900	-2.455354
0.314000	-2.482944
0.314100	-2.575774
0.314200	-2.512805
0.314300	-2.610830
0.314400	-2.329740
0.314500	-2.208346
0.314600	-1.930828
0.314700	-2.162904
0.314800	-2.403096
0.314900	-2.397578
0.315000	-2.183678
0.315100	-1.917195
0.315200	-1.756851
0.315300	-1.719200
0.315400	-1.931477
0.315500	-1.884412
0.315600	-1.906808
0.315700	-1.668240
0.315800	-1.504001
0.315900	-1.487772
0.316000	-1.548469
0.316100	-1.563400
0.316200	-1.627667
0.316300	-1.567944
0.316400	-1.541328
0.316500	-1.502054
0.316600	-1.495238
0.316700	-1.470894
0.316800	-1.455963
0.316900	-1.556259
0.317000	-1.624097
0.317100	-1.550417
0.317200	-1.596507
0.317300	-1.558207
0.317400	-1.565672
0.317500	-1.571190
0.317600	-1.690636
0.317700	-1.929854
0.317800	-1.890579
0.317900	-1.828909
0.318000	-1.620202
0.318100	-1.659152
0.318200	-1.822742
0.318300	-2.131420
0.318400	-2.208671
0.318500	-2.146026
0.318600	-1.979190
0.318700	-1.932451
0.318800	-2.067477
0.318900	-2.193091
0.319000	-2.242427
0.319100	-2.226198
0.319200	-2.218084
0.319300	-2.222303
0.319400	-2.310265
0.319500	-2.397254
0.319600	-2.439125
0.319700	-2.424519
0.319800	-2.451134
0.319900	-2.535851
0.320000	-2.557922
0.320100	-2.523192
0.320200	-2.488462
0.320300	-2.464118
0.320400	-2.509884
0.320500	-2.621216
0.320600	-2.582266
0.320700	-2.538123
0.320800	-2.452757
0.320900	-2.367716
0.321000	-2.367392
0.321100	-2.299554
0.321200	-2.286895
0.321300	-2.261902
0.321400	-2.214838
0.321500	-2.207697
0.321600	-2.188871
0.321700	-2.182379
0.321800	-2.170370
0.321900	-2.208022
0.322000	-2.248594
0.322100	-2.268719
0.322200	-2.331039
0.322300	-2.383296
0.322400	-2.439774
0.322500	-2.548185
0.322600	-2.550457
0.322700	-2.664061
0.322800	-2.858162
0.322900	-3.144770
0.323000	-3.045123
0.323100	-2.820186
0.323200	-2.645885
0.323300	-2.707555
0.323400	-3.000979
0.323500	-3.227539
0.323600	-3.271034
0.323700	-3.118154
0.323800	-2.972091
0.323900	-2.980531
0.324000	-3.208064
0.324100	-3.399569
0.324200	-3.532974
0.324300	-3.487207
0.324400	-3.485909
0.324500	-3.529079
0.324600	-3.623208
0.324700	-3.665404
0.324800	-3.717338
0.324900	-3.710846
0.325000	-3.725453
0.325100	-3.754341
0.325200	-3.848795
0.325300	-3.827697
0.325400	-3.871191
0.325500	-3.806274
0.325600	-3.867946
0.325700	-3.893588
0.325800	-3.922151
0.325900	-3.811792
0.326000	-3.656316
0.326100	-3.678063
0.326200	-3.808871
0.326300	-4.012386
0.326400	-4.130211
0.326500	-3.998754
0.326600	-3.819907
0.326700	-3.705653
0.326800	-3.813415
0.326900	-4.040625
0.327000	-4.148388
0.327100	-4.108788
0.327200	-3.927345
0.327300	-3.811143
0.327400	-3.797511
0.327500	-3.813091
0.327600	-3.819907
0.327700	-3.778685
0.327800	-3.718636
0.327900	-3.645929
0.328000	-3.583284
0.328100	-3.485260
0.328200	-3.355101
0.328300	-3.284666
0.328400	-3.252208
0.328500	-3.249936
0.328600	-3.242146
0.328700	-3.220398
0.328800	-3.004874
0.328900	-2.898086
0.329000	-2.818888
0.329100	-2.677045
0.329200	-2.622190
0.329300	-2.572204
0.329400	-2.473206
0.329500	-2.347917
0.329600	-2.220680
0.329700	-2.147000
0.329800	-2.196986
0.329900	-2.207697
0.330000	-2.227496
0.330100	-2.247621
0.330200	-2.367067
0.330300	-2.285272
0.330400	-2.353759
0.330500	-2.287869
0.330600	-2.358628
0.330700	-2.390437
0.330800	-2.442695
0.330900	-2.472557
0.331000	-2.395955
0.331100	-2.187573
0.331200	-1.955496
0.331300	-1.915897
0.331400	-2.173940
0.331500	-2.464767
0.331600	-2.381998
0.331700	-1.999964
0.331800	-1.780870
0.331900	-1.682197
0.332000	-1.742894
0.332100	-1.965558
0.332200	-1.972699
0.332300	-1.800670
0.332400	-1.638703
0.332500	-1.434541
0.332600	-1.379362
0.332700	-1.479658
0.332800	-1.466350
0.332900	-1.427400
0.333000	-1.353395
0.333100	-1.333271
0.333200	-1.319963
0.333300	-1.357290
0.333400	-1.331973
0.333500	-1.357615
0.333600	-1.355992
0.333700	-1.483228
0.333800	-1.494264
0.333900	-1.537109
0.334000	-1.504326
0.334100	-1.463104
0.334200	-1.554961
0.334300	-1.732508
0.334400	-2.016193
0.334500	-1.997367
0.334600	-1.871104
0.334700	-1.667591
0.334800	-1.700049
0.334900	-1.910054
0.335000	-2.139210
0.335100	-2.122656
0.335200	-1.974322
0.335300	-1.754579
0.335400	-1.720498
0.335500	-1.840269
0.335600	-1.924011
0.335700	-1.887983
0.335800	-1.888956
0.335900	-1.860393
0.336000	-1.908756
0.336100	-1.964909
0.336200	-2.072346
0.336300	-2.100909
0.336400	-2.107076
0.336500	-2.150246
0.336600	-2.234962
0.336700	-2.261578
0.336800	-2.257358
0.336900	-2.311564
0.337000	-2.372585
0.337100	-2.515402
0.337200	-2.646534
0.337300	-2.683536
0.337400	-2.677045
0.337500	-2.542992
0.337600	-2.616997
0.337700	-2.632901
0.337800	-2.582915
0.337900	-2.554352
0.338000	-2.529684
0.338100	-2.518648
0.338200	-2.465741
0.338300	-2.456328
0.338400	-2.424194
0.338500	-2.406991
0.338600	-2.386542
0.338700	-2.390113
0.338800	-2.391736
0.338900	-2.409588
0.339000	-2.449511
0.339100	-2.501445
0.339200	-2.533903
0.339300	-2.639068
0.339400	-2.728329
0.339500	-3.076283
0.339600	-3.173334
0.339700	-3.063624
0.339800	-2.761761
0.339900	-2.665684
0.340000	-2.760787
0.340100	-3.112961
0.340200	-3.290184
0.340300	-3.238575
0.340400	-3.033113
0.340500	-2.844205
0.340600	-2.849399
0.340700	-3.009743
0.340800	-3.188589
0.340900	-3.196055
0.341000	-3.134384
0.341100	-3.062326
0.341200	-3.093486
0.341300	-3.145744
0.341400	-3.223969
0.341500	-3.261296
0.341600	-3.249611
0.341700	-3.217153
0.341800	-3.263244
0.341900	-3.348934
0.342000	-3.368734
0.342100	-3.355101
0.342200	-3.358022
0.342300	-3.420992
0.342400	-3.520964
0.342500	-3.524534
0.342600	-3.432028
0.342700	-3.299272
0.342800	-3.408982
0.342900	-3.585232
0.343000	-3.761482
0.343100	-3.809196
0.343200	-3.635542
0.343300	-3.458968
0.343400	-3.414500
0.343500	-3.557967
0.343600	-3.739734
0.343700	-3.841654
0.343800	-3.752393
0.343900	-3.587504
0.344000	-3.481040
0.344100	-3.484610
0.344200	-3.494348
0.344300	-3.492400
0.344400	-3.460591
0.344500	-3.374901
0.344600	-3.271683
0.344700	-3.160675
0.344800	-3.044149
0.344900	-2.865303
0.345000	-2.746181
0.345100	-2.668930
0.345200	-2.662763
0.345300	-2.653025
0.345400	-2.584538
0.345500	-2.434256
0.345600	-2.385569
0.345700	-2.226198
0.345800	-2.288843
0.345900	-2.300852
0.346000	-2.318055
0.346100	-2.282026
0.346200	-2.255086
0.346300	-2.203477
0.346400	-2.196012
0.346500	-2.229119
0.346600	-2.341101
0.346700	-2.334934
0.346800	-2.416729
0.346900	-2.410886
0.347000	-2.502419
0.347100	-2.428414
0.347200	-2.520920
0.347300	-2.508910
0.347400	-2.639068
0.347500	-2.588433
0.347600	-2.650753
0.347700	-2.565712
0.347800	-2.284948
0.347900	-2.164203
0.348000	-2.095716
0.348100	-2.527736
0.348200	-2.585512
0.348300	-2.489435
0.348400	-2.165826
0.348500	-1.968479
0.348600	-1.897071
0.348700	-2.023983
0.348800	-2.137262
0.348900	-2.103181
0.349000	-1.940565
0.349100	-1.662722
0.349200	-1.535810
0.349300	-1.555610
0.349400	-1.541978
0.349500	-1.598779
0.349600	-1.510168
0.349700	-1.477386
0.349800	-1.427725
0.349900	-1.444927
0.350000	-1.432269
0.350100	-1.433242
0.350200	-1.521204
0.350300	-1.642598
0.350400	-1.692584
0.350500	-1.718550
0.350600	-1.754904
0.350700	-1.702970
0.350800	-1.702321
0.350900	-1.820469
0.351000	-2.117787
0.351100	-2.268719
0.351200	-2.190819
0.351300	-1.985682
0.351400	-1.863639
0.351500	-1.994770
0.351600	-2.177511
0.351700	-2.335583
0.351800	-2.252165
0.351900	-2.091172
0.352000	-1.919143
0.352100	-1.912651
0.352200	-2.016842
0.352300	-2.070398
0.352400	-2.011000
0.352500	-2.023983
0.352600	-1.960365
0.352700	-2.065530
0.352800	-2.084355
0.352900	-2.157062
0.353000	-2.136938
0.353100	-2.128174
0.353200	-2.160632
0.353300	-2.216461
0.353400	-2.230093
0.353500	-2.179458
0.353600	-2.173616
0.353700	-2.212566
0.353800	-2.365444
0.353900	-2.454056
0.354000	-2.453406
0.354100	-2.383621
0.354200	-2.330065
0.354300	-2.383296
0.354400	-2.379077
0.354500	-2.334284
0.354600	-2.315783
0.354700	-2.264174
0.354800	-2.235936
0.354900	-2.240804
0.355000	-2.199907
0.355100	-2.191143
0.355200	-2.179783
0.355300	-2.210294
0.355400	-2.216785
0.355500	-2.259630
0.355600	-2.272614
0.355700	-2.340127
0.355800	-2.439449
0.355900	-2.511507
0.356000	-2.582591
0.356100	-2.785456
0.356200	-3.076283
0.356300	-3.139252
0.356400	-3.014937
0.356500	-2.763059
0.356600	-2.735794
0.356700	-2.931518
0.356800	-3.224618
0.356900	-3.353154
0.357000	-3.318748
0.357100	-3.099653
0.357200	-3.031490
0.357300	-3.140551
0.357400	-3.347636
0.357500	-3.470653
0.357600	-3.510253
0.357700	-3.410930
0.357800	-3.445660
0.357900	-3.503761
0.358000	-3.557317
0.358100	-3.593671
0.358200	-3.581661
0.358300	-3.564783
0.358400	-3.588802
0.358500	-3.630349
0.358600	-3.614120
0.358700	-3.603084
0.358800	-3.499866
0.358900	-3.513174
0.359000	-3.549852
0.359100	-3.566730
0.359200	-3.532649
0.359300	-3.368409
0.359400	-3.286289
0.359500	-3.407359
0.359600	-3.627752
0.359700	-3.846523
0.359800	-3.854313
0.359900	-3.743305
0.360000	-3.614769
0.360100	-3.693643
0.360200	-3.930591
0.360300	-4.173056
0.360400	-4.269458
0.360500	-4.180846
0.360600	-4.091910
0.360700	-4.058153
0.360800	-4.087690
0.360900	-4.143194
0.361000	-4.132158
0.361100	-4.091585
0.361200	-4.023098
0.361300	-3.918906
0.361400	-3.838408
0.361500	-3.673194
0.361600	-3.521613
0.361700	-3.403140
0.361800	-3.347311
0.361900	-3.331406
0.362000	-3.311931
0.362100	-3.157104
0.362200	-3.010717
0.362300	-2.980206
0.362400	-2.741961
0.362500	-2.764358
0.362600	-2.702687
0.362700	-2.637770
0.362800	-2.500796
0.362900	-2.366743
0.363000	-2.255411
0.363100	-2.203477
0.363200	-2.148623
0.363300	-2.153492
0.363400	-2.057090
0.363500	-2.062608
0.363600	-1.998341
0.363700	-1.915248
0.363800	-1.903887
0.363900	-1.837997
0.364000	-1.954847
0.364100	-1.841243
0.364200	-1.943811
0.364300	-1.827935
0.364400	-1.821443
0.364500	-1.454016
0.364600	-1.451094
0.364700	-1.495562
0.364800	-1.868508
0.364900	-2.018790
0.365000	-1.780546
0.365100	-1.506923
0.365200	-1.374168
0.365300	-1.370598
0.365400	-1.565347
0.365500	-1.680250
0.365600	-1.672135
0.365700	-1.458560
0.365800	-1.339438
0.365900	-1.273872
0.366000	-1.321261
0.366100	-1.379037
0.366200	-1.368326
0.366300	-1.348202
0.366400	-1.294321
0.366500	-1.269328
0.366600	-1.270951
0.366700	-1.286531
0.366800	-1.217071
0.366900	-1.349825
0.367000	-1.471868
0.367100	-1.438760
0.367200	-1.541978
0.367300	-1.488097
0.367400	-1.485825
0.367500	-1.430646
0.367600	-1.600078
0.367700	-1.825338
0.367800	-1.884412
0.367900	-1.835076
0.368000	-1.628966
0.368100	-1.603648
0.368200	-1.727314
0.368300	-1.996069
0.368400	-2.127525
0.368500	-2.059038
0.368600	-1.900966
0.368700	-1.779247
0.368800	-1.871104
0.368900	-1.987954
0.369000	-2.052546
0.369100	-2.013596
0.369200	-2.001911
0.369300	-1.920441
0.369400	-2.009701
0.369500	-2.026255
0.369600	-2.071697
0.369700	-2.002560
0.369800	-1.981463
0.369900	-2.012622
0.370000	-2.001587
0.370100	-1.985682
0.370200	-1.975295
0.370300	-1.962637
0.370400	-2.022035
0.370500	-2.167449
0.370600	-2.191143
0.370700	-2.161282
0.370800	-2.084031
0.370900	-2.089549
0.371000	-2.166799
0.371100	-2.164852
0.371200	-2.184976
0.371300	-2.208995
0.371400	-2.230418
0.371500	-2.245024
0.371600	-2.325196
0.371700	-2.340127
0.371800	-2.381674
0.371900	-2.422896
0.372000	-2.451134
0.372100	-2.433607
0.372200	-2.455029
0.372300	-2.408289
0.372400	-2.443344
0.372500	-2.452757
0.372600	-2.466390
0.372700	-2.495602
0.372800	-2.609207
0.372900	-2.947098
0.373000	-2.891270
0.373100	-2.693598
0.373200	-2.505340
0.373300	-2.502743
0.373400	-2.708854
0.373500	-2.932817
0.373600	-3.010068
0.373700	-2.855241
0.373800	-2.689379
0.373900	-2.677045
0.374000	-2.764358
0.374100	-2.966573
0.374200	-3.020130
0.374300	-3.012015
0.374400	-2.914965
0.374500	-2.913991
0.374600	-2.899709
0.374700	-2.908798
0.374800	-2.918860
0.374900	-2.922755
0.375000	-2.866926
0.375100	-2.855890
0.375200	-2.874392
0.375300	-2.908473
0.375400	-2.873418
0.375500	-2.806229
0.375600	-2.804931
0.375700	-2.800062
0.375800	-2.797141
0.375900	-2.727030
0.376000	-2.542342
0.376100	-2.501769
0.376200	-2.592328
0.376300	-2.742286
0.376400	-2.857838
0.376500	-2.723460
0.376600	-2.527087
0.376700	-2.414456
0.376800	-2.474504
0.376900	-2.676720
0.377000	-2.824081
0.377100	-2.816616
0.377200	-2.670553
0.377300	-2.582591
0.377400	-2.569283
0.377500	-2.581292
0.377600	-2.616997
0.377700	-2.606285
0.377800	-2.574152
0.377900	-2.544290
0.378000	-2.482294
0.378100	-2.423220
0.378200	-2.338179
0.378300	-2.228795
0.378400	-2.196986
0.378500	-2.181081
0.378600	-2.183353
0.378700	-2.171668
0.378800	-2.011973
0.378900	-1.961663
0.379000	-1.791582
0.379100	-1.849033
0.379200	-1.854551
0.379300	-1.847410
0.379400	-1.825663
0.379500	-1.746465
0.379600	-1.680899
0.379700	-1.609166
0.379800	-1.630589
0.379900	-1.641300
0.380000	-1.683171
0.380100	-1.706541
0.380200	-1.758799
0.380300	-1.699076
0.380400	-1.763992
0.380500	-1.694531
0.380600	-1.799696
0.380700	-1.774703
0.380800	-1.961663
0.380900	-1.924985
0.381000	-1.958742
0.381100	-1.819496
0.381200	-1.636756
0.381300	-1.585796
0.381400	-1.841567
0.381500	-2.347592
0.381600	-2.291764
0.381700	-2.218084
0.381800	-1.941539
0.381900	-2.056441
0.382000	-2.138561
0.382100	-2.472881
0.382200	-2.565712
0.382300	-2.505340
0.382400	-2.384595
0.382500	-2.254761
0.382600	-2.374857
0.382700	-2.394981
0.382800	-2.485865
0.382900	-2.506963
0.383000	-2.436853
0.383100	-2.394981
0.383200	-2.380700
0.383300	-2.330065
0.383400	-2.280404
0.383500	-2.237883
0.383600	-2.341101
0.383700	-2.205749
0.383800	-2.193415
0.383900	-2.015219
0.384000	-1.889606
0.384100	-1.729262
0.384200	-1.678627
0.384300	-1.760422
0.384400	-1.957119
0.384500	-1.858770
0.384600	-1.723095
0.384700	-1.476412
0.384800	-1.507572
0.384900	-1.724393
0.385000	-1.957768
0.385100	-2.018465
0.385200	-1.946083
0.385300	-1.784441
0.385400	-1.801644
0.385500	-2.008403
0.385600	-2.138236
0.385700	-2.159983
0.385800	-2.141807
0.385900	-2.128499
0.386000	-2.172642
0.386100	-2.278781
0.386200	-2.331688
0.386300	-2.311564
0.386400	-2.253139
0.386500	-2.268069
0.386600	-2.317731
0.386700	-2.287869
0.386800	-2.203802
0.386900	-2.165826
0.387000	-2.126551
0.387100	-2.195363
0.387200	-2.272614
0.387300	-2.270991
0.387400	-2.210618
0.387500	-2.096040
0.387600	-2.093768
0.387700	-2.096365
0.387800	-2.040212
0.387900	-2.030475
0.388000	-2.005482
0.388100	-2.028852
0.388200	-2.018140
0.388300	-2.011649
0.388400	-2.019114
0.388500	-2.029825
0.388600	-2.037940
0.388700	-2.070723
0.388800	-2.078188
0.388900	-2.075267
0.389000	-2.137262
0.389100	-2.155114
0.389200	-2.221329
0.389300	-2.191143
0.389400	-2.319029
0.389500	-2.578047
0.389600	-2.788701
0.389700	-2.709178
0.389800	-2.493979
0.389900	-2.341750
0.390000	-2.532280
0.390100	-2.821484
0.390200	-3.042202
0.390300	-3.036684
0.390400	-2.860110
0.390500	-2.699116
0.390600	-2.736443
0.390700	-2.907824
0.390800	-3.041552
0.390900	-3.082775
0.391000	-3.024349
0.391100	-2.973714
0.391200	-2.966898
0.391300	-3.020454
0.391400	-3.039930
0.391500	-3.028569
0.391600	-3.007471
0.391700	-2.979557
0.391800	-3.005848
0.391900	-3.082125
0.392000	-3.079204
0.392100	-3.038956
0.392200	-2.978908
0.392300	-3.019805
0.392400	-3.111338
0.392500	-3.086020
0.392600	-3.027271
0.392700	-2.883155
0.392800	-2.914965
0.392900	-3.072713
0.393000	-3.301545
0.393100	-3.399569
0.393200	-3.264217
0.393300	-3.054536
0.393400	-3.008445
0.393500	-3.185343
0.393600	-3.446959
0.393700	-3.575494
0.393800	-3.523561
0.393900	-3.413526
0.394000	-3.361917
0.394100	-3.425536
0.394200	-3.526157
0.394300	-3.572573
0.394400	-3.599189
0.394500	-3.597566
0.394600	-3.582310
0.394700	-3.574845
0.394800	-3.581986
0.394900	-3.541088
0.395000	-3.447283
0.395100	-3.420992
0.395200	-3.439493
0.395300	-3.444362
0.395400	-3.437870
0.395500	-3.290184
0.395600	-3.210985
0.395700	-3.061027
0.395800	-3.137629
0.395900	-3.139252
0.396000	-3.116856
0.396100	-3.052264
0.396200	-2.939958
0.396300	-2.855241
0.396400	-2.820835
0.396500	-2.799413
0.396600	-2.810124
0.396700	-2.764358
0.396800	-2.738066
0.396900	-2.699116
0.397000	-2.690353
0.397100	-2.649130
0.397200	-2.607584
0.397300	-2.653675
0.397400	-2.592653
0.397500	-2.699765
0.397600	-2.591679
0.397700	-2.626085
0.397800	-2.334934
0.397900	-2.165826
0.398000	-1.995420
0.398100	-2.434581
0.398200	-2.577397
0.398300	-2.409912
0.398400	-2.106102
0.398500	-1.850656
0.398600	-1.771457
0.398700	-1.778598
0.398800	-1.932126
0.398900	-1.852279
0.399000	-1.642923
0.399100	-1.407600
0.399200	-1.280040
0.399300	-1.128135
0.399400	-1.170655
0.399500	-1.116126
0.399600	-1.083018
0.399700	-0.953510
0.399800	-0.894111
0.399900	-0.873338
0.400000	-0.845424
0.400100	-0.824326
0.400200	-0.816536
0.400300	-0.847047
0.400400	-0.880154
0.400500	-0.945071
0.400600	-0.992135
0.400700	-0.881453
0.400800	-0.866846
0.400900	-0.854512
0.401000	-1.091457
0.401100	-1.261214
0.401200	-1.197920
0.401300	-1.019400
0.401400	-0.783429
0.401500	-0.892164
0.401600	-1.089185
0.401700	-1.292374
0.401800	-1.268679
0.401900	-1.130407
0.402000	-0.959352
0.402100	-0.958054
0.402200	-1.116775
0.402300	-1.237195
0.402400	-1.273548
0.402500	-1.307954
0.402600	-1.261538
0.402700	-1.338140
0.402800	-1.392670
0.402900	-1.479658
0.403000	-1.505624
0.403100	-1.528020
0.403200	-1.570541
0.403300	-1.613386
0.403400	-1.640001
0.403500	-1.639677
0.403600	-1.681548
0.403700	-1.695181
0.403800	-1.857472
0.403900	-1.948355
0.404000	-1.971076
0.404100	-1.954847
0.404200	-1.875973
0.404300	-1.945758
0.404400	-1.998341
0.404500	-1.989577
0.404600	-2.026580
0.404700	-2.013921
0.404800	-2.012298
0.404900	-2.030150
0.405000	-2.014245
0.405100	-2.046379
0.405200	-2.046704
0.405300	-2.028527
0.405400	-2.041186
0.405500	-2.046055
0.405600	-2.056441
0.405700	-2.031448
0.405800	-2.093119
0.405900	-2.121358
0.406000	-2.173940
0.406100	-2.341101
0.406200	-2.620567
0.406300	-2.734171
0.406400	-2.505340
0.406500	-2.348891
0.406600	-2.257683
0.406700	-2.446915
0.406800	-2.724109
0.406900	-2.874716
0.407000	-2.791623
0.407100	-2.577073
0.407200	-2.448862
0.407300	-2.460223
0.407400	-2.643288
0.407500	-2.712100
0.407600	-2.750725
0.407700	-2.621865
0.407800	-2.539746
0.407900	-2.512156
0.408000	-2.524815
0.408100	-2.558247
0.408200	-2.545913
0.408300	-2.538772
0.408400	-2.527412
0.408500	-2.550132
0.408600	-2.625436
0.408700	-2.578371
0.408800	-2.538123
0.408900	-2.547211
0.409000	-2.585187
0.409100	-2.624462
0.409200	-2.558247
0.409300	-2.424194
0.409400	-2.318380
0.409500	-2.416404
0.409600	-2.559870
0.409700	-2.706906
0.409800	-2.689054
0.409900	-2.481645
0.410000	-2.296633
0.410100	-2.252489
0.410200	-2.384270
0.410300	-2.525789
0.410400	-2.548834
0.410500	-2.441721
0.410600	-2.279754
0.410700	-2.202504
0.410800	-2.186924
0.410900	-2.204451
0.411000	-2.192117
0.411100	-2.166799
0.411200	-2.115840
0.411300	-2.025281
0.411400	-1.936995
0.411500	-1.819496
0.411600	-1.693882
0.411700	-1.628966
0.411800	-1.605596
0.411900	-1.602025
0.412000	-1.606245
0.412100	-1.526722
0.412200	-1.358264
0.412300	-1.333271
0.412400	-1.145987
0.412500	-1.199219
0.412600	-1.162865
0.412700	-1.130732
0.412800	-1.048288
0.412900	-0.964221
0.413000	-0.850942
0.413100	-0.880803
0.413200	-0.872040
0.413300	-0.930140
0.413400	-0.939553
0.413500	-1.019725
0.413600	-0.977204
0.413700	-0.997328
0.413800	-0.911639
0.413900	-0.959028
0.414000	-0.964221
0.414100	-1.091782
0.414200	-1.071982
0.414300	-1.093729
0.414400	-1.112880
0.414500	-0.761357
0.414600	-0.718837
0.414700	-0.672097
0.414800	-1.195324
0.414900	-1.278417
0.415000	-1.240441
0.415100	-0.978827
0.415200	-0.953185
0.415300	-1.012908
0.415400	-1.183639
0.415500	-1.386178
0.415600	-1.420908
0.415700	-1.320612
0.415800	-1.198245
0.415900	-1.223887
0.416000	-1.217395
0.416100	-1.366378
0.416200	-1.419935
0.416300	-1.464078
0.416400	-1.512116
0.416500	-1.542302
0.416600	-1.564049
0.416700	-1.630913
0.416800	-1.666617
0.416900	-1.745491
0.417000	-1.869481
0.417100	-1.905186
0.417200	-2.029501
0.417300	-1.978217
0.417400	-1.959066
0.417500	-1.945434
0.417600	-2.071372
0.417700	-2.285272
0.417800	-2.420624
0.417900	-2.298256
0.418000	-2.093119
0.418100	-1.991200
0.418200	-2.154465
0.418300	-2.397903
0.418400	-2.520920
0.418500	-2.475478
0.418600	-2.308318
0.418700	-2.215162
0.418800	-2.263201
0.418900	-2.416404
0.419000	-2.444967
0.419100	-2.426141
0.419200	-2.425817
0.419300	-2.367067
0.419400	-2.432309
0.419500	-2.446266
0.419600	-2.462170
0.419700	-2.356681
0.419800	-2.312213
0.419900	-2.326170
0.420000	-2.286895
0.420100	-2.246322
0.420200	-2.175888
0.420300	-2.101558
0.420400	-2.086303
0.420500	-2.207372
0.420600	-2.202828
0.420700	-2.178160
0.420800	-1.998990
0.420900	-1.948030
0.421000	-1.980164
0.421100	-1.970102
0.421200	-1.935047
0.421300	-1.922064
0.421400	-1.900641
0.421500	-1.880193
0.421600	-1.862665
0.421700	-1.877596
0.421800	-1.827286
0.421900	-1.862665
0.422000	-1.854875
0.422100	-1.874350
0.422200	-1.859095
0.422300	-1.873376
0.422400	-1.917195
0.422500	-1.926933
0.422600	-1.998016
0.422700	-2.001587
0.422800	-2.271640
0.422900	-2.494953
0.423000	-2.590381
0.423100	-2.431010
0.423200	-2.238857
0.423300	-2.253463
0.423400	-2.538447
0.423500	-2.862382
0.423600	-2.961056
0.423700	-2.945800
0.423800	-2.739689
0.423900	-2.707231
0.424000	-2.874392
0.424100	-3.083748
0.424200	-3.234356
0.424300	-3.245067
0.424400	-3.177878
0.424500	-3.166517
0.424600	-3.216179
0.424700	-3.290184
0.424800	-3.363540
0.424900	-3.392428
0.425000	-3.358347
0.425100	-3.397622
0.425200	-3.449231
0.425300	-3.523236
0.425400	-3.455398
0.425500	-3.408333
0.425600	-3.425211
0.425700	-3.494673
0.425800	-3.478119
0.425900	-3.422615
0.426000	-3.254155
0.426100	-3.202871
0.426200	-3.313879
0.426300	-3.497594
0.426400	-3.677739
0.426500	-3.622559
0.426600	-3.460916
0.426700	-3.326862
0.426800	-3.388533
0.426900	-3.583284
0.427000	-3.796861
0.427100	-3.846848
0.427200	-3.758560
0.427300	-3.679686
0.427400	-3.710197
0.427500	-3.760183
0.427600	-3.842952
0.427700	-3.878332
0.427800	-3.873464
0.427900	-3.836461
0.428000	-3.798484
0.428100	-3.758885
0.428200	-3.628077
0.428300	-3.485584
0.428400	-3.423588
0.428500	-3.399245
0.428600	-3.407035
0.428700	-3.386586
0.428800	-3.221697
0.428900	-3.097056
0.429000	-3.036034
0.429100	-2.784157
0.429200	-2.804281
0.429300	-2.716644
0.429400	-2.607584
0.429500	-2.463793
0.429600	-2.323573
0.429700	-2.218733
0.429800	-2.182704
0.429900	-2.182704
0.430000	-2.138885
0.430100	-2.169721
0.430200	-2.144728
0.430300	-2.162255
0.430400	-2.045730
0.430500	-2.038589
0.430600	-1.977568
0.430700	-1.955496
0.430800	-1.949978
0.430900	-1.872727
0.431000	-1.802942
0.431100	-1.585796
0.431200	-1.284908
0.431300	-1.112555
0.431400	-1.225510
0.431500	-1.530293
0.431600	-1.512116
0.431700	-1.246283
0.431800	-0.977204
0.431900	-0.847372
0.432000	-0.842503
0.432100	-0.994407
0.432200	-1.078474
0.432300	-0.985319
0.432400	-0.796412
0.432500	-0.625682
0.432600	-0.569205
0.432700	-0.544212
0.432800	-0.545510
0.432900	-0.471181
0.433000	-0.434828
0.433100	-0.389386
0.433200	-0.373157
0.433300	-0.359200
0.433400	-0.359525
0.433500	-0.340699
0.433600	-0.436451
0.433700	-0.484489
0.433800	-0.550704
0.433900	-0.626007
0.434000	-0.594522
0.434100	-0.604909
0.434200	-0.567257
0.434300	-0.804851
0.434400	-0.994407
0.434500	-1.061920
0.434600	-0.998302
0.434700	-0.752594
0.434800	-0.731171
0.434900	-0.913911
0.435000	-1.119371
0.435100	-1.241739
0.435200	-1.121643
0.435300	-0.989538
0.435400	-0.923324
0.435500	-1.062569
0.435600	-1.185911
0.435700	-1.216746
0.435800	-1.234598
0.435900	-1.222913
0.436000	-1.263161
0.436100	-1.344307
0.436200	-1.373519
0.436300	-1.456288
0.436400	-1.435514
0.436500	-1.491018
0.436600	-1.583524
0.436700	-1.642598
0.436800	-1.672135
0.436900	-1.676355
0.437000	-1.736727
0.437100	-1.863964
0.437200	-2.036966
0.437300	-2.106427
0.437400	-2.127200
0.437500	-2.014570
0.437600	-2.112594
0.437700	-2.209644
0.437800	-2.247945
0.437900	-2.286571
0.438000	-2.314809
0.438100	-2.366094
0.438200	-2.417053
0.438300	-2.444643
0.438400	-2.492032
0.438500	-2.511182
0.438600	-2.570581
0.438700	-2.560844
0.438800	-2.625760
0.438900	-2.627383
0.439000	-2.659192
0.439100	-2.721188
0.439200	-2.713073
0.439300	-2.802009
0.439400	-2.801685
0.439500	-3.098679
0.439600	-3.259998
0.439700	-3.254155
0.439800	-3.006173
0.439900	-2.875690
0.440000	-2.988645
0.440100	-3.242795
0.440200	-3.516744
0.440300	-3.541088
0.440400	-3.376848
0.440500	-3.171386
0.440600	-3.206766
0.440700	-3.371979
0.440800	-3.548229
0.440900	-3.602110
0.441000	-3.610225
0.441100	-3.548878
0.441200	-3.587179
0.441300	-3.642683
0.441400	-3.683581
0.441500	-3.717663
0.441600	-3.717013
0.441700	-3.704679
0.441800	-3.773167
0.441900	-3.846523
0.442000	-3.838733
0.442100	-3.859506
0.442200	-3.838408
0.442300	-3.902027
0.442400	-3.936758
0.442500	-3.932863
0.442600	-3.890017
0.442700	-3.740708
0.442800	-3.751744
0.442900	-3.835487
0.443000	-3.976682
0.443100	-4.050687
0.443200	-3.853988
0.443300	-3.630674
0.443400	-3.514148
0.443500	-3.591074
0.443600	-3.753691
0.443700	-3.819582
0.443800	-3.731620
0.443900	-3.552449
0.444000	-3.445660
0.444100	-3.441765
0.444200	-3.424562
0.444300	-3.419044
0.444400	-3.343741
0.444500	-3.287587
0.444600	-3.233706
0.444700	-3.144121
0.444800	-3.048693
0.444900	-2.860434
0.445000	-2.700090
0.445100	-2.611154
0.445200	-2.557598
0.445300	-2.498848
0.445400	-2.392709
0.445500	-2.132394
0.445600	-2.020088
0.445700	-1.800670
0.445800	-1.706541
0.445900	-1.594884
0.446000	-1.511791
0.446100	-1.397538
0.446200	-1.238818
0.446300	-1.077500
0.446400	-1.008040
0.446500	-0.967467
0.446600	-0.914560
0.446700	-0.892813
0.446800	-0.834064
0.446900	-0.829520
0.447000	-0.763629
0.447100	-0.720135
0.447200	-0.660737
0.447300	-0.592575
0.447400	-0.661061
0.447500	-0.507534
0.447600	-0.665930
0.447700	-0.389711
0.447800	-0.376079
0.447900	-0.007029
0.448000	0.063405
0.448100	-0.263773
0.448200	-0.468909
0.448300	-0.465014
0.448400	-0.179707
0.448500	-0.102132
0.448600	-0.000213
0.448700	-0.225473
0.448800	-0.372184
0.448900	-0.498121
0.449000	-0.435153
0.449100	-0.284547
0.449200	-0.330313
0.449300	-0.389711
0.449400	-0.548432
0.449500	-0.609453
0.449600	-0.628928
0.449700	-0.643859
0.449800	-0.685730
0.449900	-0.766226
0.450000	-0.838932
0.450100	-0.916508
0.450200	-0.910665
0.450300	-1.134627
0.450400	-1.125538
0.450500	-1.306331
0.450600	-1.329701
0.450700	-1.401109
0.450800	-1.303409
0.450900	-1.337815
0.451000	-1.522503
0.451100	-1.760746
0.451200	-1.749710
0.451300	-1.656231
0.451400	-1.413443
0.451500	-1.538732
0.451600	-1.765940
0.451700	-2.046704
0.451800	-2.056117
0.451900	-1.948355
0.452000	-1.809109
0.452100	-1.878570
0.452200	-2.027878
0.452300	-2.186924
0.452400	-2.189520
0.452500	-2.210618
0.452600	-2.160632
0.452700	-2.259955
0.452800	-2.376805
0.452900	-2.459898
0.453000	-2.487488
0.453100	-2.494304
0.453200	-2.508586
0.453300	-2.537798
0.453400	-2.519297
0.453500	-2.468337
0.453600	-2.432958
0.453700	-2.370962
0.453800	-2.448862
0.453900	-2.488137
0.454000	-2.428089
0.454100	-2.331039
0.454200	-2.183678
0.454300	-2.206723
0.454400	-2.174589
0.454500	-2.120709
0.454600	-2.078188
0.454700	-2.054169
0.454800	-2.024957
0.454900	-1.994446
0.455000	-1.977568
0.455100	-1.941539
0.455200	-1.916221
0.455300	-1.928880
0.455400	-1.887983
0.455500	-1.866560
0.455600	-1.854226
0.455700	-1.852603
0.455800	-1.795477
0.455900	-1.857147
0.456000	-1.825338
0.456100	-1.979840
0.456200	-2.184976
0.456300	-2.373884
0.456400	-2.237883
0.456500	-2.022685
0.456600	-1.950627
0.456700	-2.116489
0.456800	-2.451459
0.456900	-2.633550
0.457000	-2.654324
0.457100	-2.509884
0.457200	-2.406666
0.457300	-2.467688
0.457400	-2.698143
0.457500	-2.886401
0.457600	-2.983776
0.457700	-2.942879
0.457800	-2.978259
0.457900	-2.996435
0.458000	-3.071739
0.458100	-3.204818
0.458200	-3.231434
0.458300	-3.281745
0.458400	-3.256427
0.458500	-3.308685
0.458600	-3.380743
0.458700	-3.447932
0.458800	-3.476171
0.458900	-3.470329
0.459000	-3.544983
0.459100	-3.603084
0.459200	-3.628726
0.459300	-3.507981
0.459400	-3.421641
0.459500	-3.519666
0.459600	-3.702082
0.459700	-3.889693
0.459800	-3.967269
0.459900	-3.779009
0.460000	-3.614444
0.460100	-3.580038
0.460200	-3.731295
0.460300	-3.937082
0.460400	-4.025370
0.460500	-3.941302
0.460600	-3.819582
0.460700	-3.740708
0.460800	-3.755964
0.460900	-3.793940
0.461000	-3.800756
0.461100	-3.794265
0.461200	-3.698512
0.461300	-3.631647
0.461400	-3.574520
0.461500	-3.511876
0.461600	-3.393727
0.461700	-3.279473
0.461800	-3.254155
0.461900	-3.193133
0.462000	-3.180150
0.462100	-3.076608
0.462200	-2.894840
0.462300	-2.790649
0.462400	-2.591679
0.462500	-2.633226
0.462600	-2.574476
0.462700	-2.527087
0.462800	-2.416729
0.462900	-2.336232
0.463000	-2.164203
0.463100	-2.165501
0.463200	-2.118437
0.463300	-2.143429
0.463400	-2.151544
0.463500	-2.121033
0.463600	-2.193415
0.463700	-2.082408
0.463800	-2.102857
0.463900	-2.045405
0.464000	-2.095716
0.464100	-2.156737
0.464200	-2.136289
0.464300	-2.237559
0.464400	-2.041186
0.464500	-1.862016
0.464600	-1.590989
0.464700	-1.656231
0.464800	-1.940565
0.464900	-2.144079
0.465000	-2.023009
0.465100	-1.628641
0.465200	-1.489071
0.465300	-1.348526
0.465400	-1.498483
0.465500	-1.578655
0.465600	-1.609491
0.465700	-1.432269
0.465800	-1.283285
0.465900	-1.139820
0.466000	-1.179744
0.466100	-1.166436
0.466200	-1.190455
0.466300	-1.164813
0.466400	-1.145013
0.466500	-1.093080
0.466600	-1.088536
0.466700	-1.075553
0.466800	-1.115801
0.466900	-1.101519
0.467000	-1.308927
0.467100	-1.240441
0.467200	-1.299839
0.467300	-1.268030
0.467400	-1.219992
0.467500	-1.237844
0.467600	-1.253099
0.467700	-1.568593
0.467800	-1.646169
0.467900	-1.604297
0.468000	-1.428374
0.468100	-1.359887
0.468200	-1.450770
0.468300	-1.659152
0.468400	-1.803916
0.468500	-1.753930
0.468600	-1.615333
0.468700	-1.469920
0.468800	-1.499782
0.468900	-1.621176
0.469000	-1.661749
0.469100	-1.622799
0.469200	-1.633185
0.469300	-1.580278
0.469400	-1.646169
0.469500	-1.653634
0.469600	-1.681873
0.469700	-1.674407
0.469800	-1.681223
0.469900	-1.712708
0.470000	-1.750035
0.470100	-1.731858
0.470200	-1.693882
0.470300	-1.706541
0.470400	-1.739648
0.470500	-1.873052
0.470600	-1.938942
0.470700	-1.901615
0.470800	-1.854551
0.470900	-1.742245
0.471000	-1.786713
0.471100	-1.823066
0.471200	-1.788011
0.471300	-1.787037
0.471400	-1.791257
0.471500	-1.749061
0.471600	-1.748412
0.471700	-1.719849
0.471800	-1.729262
0.471900	-1.693558
0.472000	-1.708813
0.472100	-1.701997
0.472200	-1.712383
0.472300	-1.691286
0.472400	-1.737376
0.472500	-1.714980
0.472600	-1.802617
0.472700	-1.834426
0.472800	-2.052222
0.472900	-2.312862
0.473000	-2.398227
0.473100	-2.213539
0.473200	-2.008727
0.473300	-1.984384
0.473400	-2.175563
0.473500	-2.472557
0.473600	-2.591030
0.473700	-2.440748
0.473800	-2.237234
0.473900	-2.163878
0.474000	-2.283974
0.474100	-2.408614
0.474200	-2.521569
0.474300	-2.474504
0.474400	-2.354733
0.474500	-2.275859
0.474600	-2.285272
0.474700	-2.343048
0.474800	-2.374208
0.474900	-2.361225
0.475000	-2.353435
0.475100	-2.345969
0.475200	-2.379401
0.475300	-2.468986
0.475400	-2.411860
0.475500	-2.381349
0.475600	-2.419001
0.475700	-2.461521
0.475800	-2.505015
0.475900	-2.390437
0.476000	-2.271315
0.476100	-2.170045
0.476200	-2.268394
0.476300	-2.455679
0.476400	-2.588758
0.476500	-2.499497
0.476600	-2.298580
0.476700	-2.176212
0.476800	-2.219057
0.476900	-2.372585
0.477000	-2.527412
0.477100	-2.571555
0.477200	-2.470934
0.477300	-2.407640
0.477400	-2.415430
0.477500	-2.467364
0.477600	-2.518972
0.477700	-2.536824
0.477800	-2.541369
0.477900	-2.556299
0.478000	-2.522867
0.478100	-2.530657
0.478200	-2.428089
0.478300	-2.325521
0.478400	-2.265797
0.478500	-2.292413
0.478600	-2.310914
0.478700	-2.309616
0.478800	-2.198284
0.478900	-2.095716
0.479000	-2.085329
0.479100	-1.917844
0.479200	-1.993472
0.479300	-1.998665
0.479400	-1.961014
0.479500	-1.885061
0.479600	-1.826637
0.479700	-1.765940
0.479800	-1.754579
0.479900	-1.796775
0.480000	-1.804889
0.480100	-1.792555
0.480200	-1.830856
0.480300	-1.844813
0.480400	-1.838971
0.480500	-1.787362
0.480600	-1.773405
0.480700	-1.818522
0.480800	-1.826637
0.480900	-1.908756
0.481000	-1.824364
0.481100	-1.737701
0.481200	-1.351448
0.481300	-1.350149
0.481400	-1.348526
0.481500	-1.846761
0.481600	-1.787362
0.481700	-1.745491
0.481800	-1.331324
0.481900	-1.354369
0.482000	-1.340412
0.482100	-1.524775
0.482200	-1.714655
0.482300	-1.578980
0.482400	-1.523801
0.482500	-1.345281
0.482600	-1.430970
0.482700	-1.499457
0.482800	-1.649739
0.482900	-1.602025
0.483000	-1.583524
0.483100	-1.603648
0.483200	-1.626694
0.483300	-1.654283
0.483400	-1.677978
0.483500	-1.680250
0.483600	-1.718875
0.483700	-1.852603
0.483800	-1.808135
0.483900	-1.915572
0.484000	-1.862665
0.484100	-1.734455
0.484200	-1.740298
0.484300	-1.756851
0.484400	-2.098962
0.484500	-1.989577
0.484600	-1.947057
0.484700	-1.689338
0.484800	-1.675706
0.484900	-1.779247
0.485000	-2.017167
0.485100	-2.094417
0.485200	-1.993148
0.485300	-1.801968
0.485400	-1.688364
0.485500	-1.776002
0.485600	-1.884088
0.485700	-1.905510
0.485800	-1.858770
0.485900	-1.814302
0.486000	-1.768861
0.486100	-1.829882
0.486200	-1.840918
0.486300	-1.874675
0.486400	-1.825338
0.486500	-1.790283
0.486600	-1.827286
0.486700	-1.834102
0.486800	-1.839620
0.486900	-1.809758
0.487000	-1.746789
0.487100	-1.799696
0.487200	-1.917844
0.487300	-1.934398
0.487400	-1.903887
0.487500	-1.725691
0.487600	-1.768861
0.487700	-1.837023
0.487800	-1.834102
0.487900	-1.870455
0.488000	-1.842541
0.488100	-1.867209
0.488200	-1.884412
0.488300	-1.891878
0.488400	-1.889281
0.488500	-1.880517
0.488600	-1.922713
0.488700	-1.967181
0.488800	-2.025606
0.488900	-2.034694
0.489000	-2.077864
0.489100	-2.072995
0.489200	-2.140833
0.489300	-2.177186
0.489400	-2.235936
0.489500	-2.496576
0.489600	-2.776043
0.489700	-2.818239
0.489800	-2.614725
0.489900	-2.449511
0.490000	-2.477101
0.490100	-2.737742
0.490200	-3.031815
0.490300	-3.104197
0.490400	-2.977609
0.490500	-2.805580
0.490600	-2.803632
0.490700	-2.942230
0.490800	-3.124321
0.490900	-3.196055
0.491000	-3.175930
0.491100	-3.148341
0.491200	-3.141524
0.491300	-3.186966
0.491400	-3.252857
0.491500	-3.273955
0.491600	-3.279148
0.491700	-3.269411
0.491800	-3.287263
0.491900	-3.381717
0.492000	-3.356724
0.492100	-3.338872
0.492200	-3.311607
0.492300	-3.330108
0.492400	-3.359645
0.492500	-3.373927
0.492600	-3.229487
0.492700	-3.096407
0.492800	-3.064922
0.492900	-3.158727
0.493000	-3.296351
0.493100	-3.404113
0.493200	-3.262594
0.493300	-3.017209
0.493400	-2.879910
0.493500	-2.946125
0.493600	-3.131787
0.493700	-3.283043
0.493800	-3.266814
0.493900	-3.130813
0.494000	-3.018182
0.494100	-2.980855
0.494200	-2.992540
0.494300	-3.043175
0.494400	-3.036684
0.494500	-2.970144
0.494600	-2.927299
0.494700	-2.893542
0.494800	-2.828950
0.494900	-2.715345
0.495000	-2.635822
0.495100	-2.620892
0.495200	-2.657570
0.495300	-2.669579
0.495400	-2.678992
0.495500	-2.506314
0.495600	-2.442371
0.495700	-2.402771
0.495800	-2.271315
0.495900	-2.219057
0.496000	-2.205425
0.496100	-2.122007
0.496200	-1.986980
0.496300	-1.865911
0.496400	-1.849682
0.496500	-1.801319
0.496600	-1.853901
0.496700	-1.847734
0.496800	-1.895123
0.496900	-1.927582
0.497000	-1.909730
0.497100	-1.857147
0.497200	-1.876622
0.497300	-1.923362
0.497400	-1.964260
0.497500	-2.031124
0.497600	-2.042809
0.497700	-1.994121
0.497800	-1.807162
0.497900	-1.466999
0.498000	-1.436813
0.498100	-1.575734
0.498200	-1.949004
0.498300	-1.820145
0.498400	-1.613710
0.498500	-1.346254
0.498600	-1.220641
0.498700	-1.335543
0.498800	-1.430321
0.498900	-1.527371
0.499000	-1.398188
0.499100	-1.202464
0.499200	-0.982722
0.499300	-1.007066
0.499400	-0.906121
0.499500	-0.878531
0.499600	-0.813615
0.499700	-0.727925
0.499800	-0.633472
0.499900	-0.579916
0.500000	-0.539019
0.500100	-0.434179
0.500200	-0.440346
0.500300	-0.449434
0.500400	-0.497797
0.500500	-0.437749
0.500600	-0.488059
0.500700	-0.411458
0.500800	-0.367964
0.500900	-0.402370
0.501000	-0.552327
0.501100	-0.818484
0.501200	-0.703906
0.501300	-0.623410
0.501400	-0.415353
0.501500	-0.469883
0.501600	-0.634121
0.501700	-0.912288
0.501800	-0.972336
0.501900	-0.928842
0.502000	-0.773367
0.502100	-0.810045
0.502200	-0.997004
0.502300	-1.144364
0.502400	-1.204412
0.502500	-1.265433
0.502600	-1.297567
0.502700	-1.380985
0.502800	-1.491018
0.502900	-1.578331
0.503000	-1.646818
0.503100	-1.663047
0.503200	-1.745166
0.503300	-1.848059
0.503400	-1.873376
0.503500	-1.888632
0.503600	-1.912976
0.503700	-1.917520
0.503800	-2.053845
0.503900	-2.204776
0.504000	-2.240155
0.504100	-2.222952
0.504200	-2.052871
0.504300	-2.116489
0.504400	-2.151219
0.504500	-2.121033
0.504600	-2.107076
0.504700	-2.085329
0.504800	-2.082083
0.504900	-2.045405
0.505000	-2.086303
0.505100	-2.073644
0.505200	-2.089873
0.505300	-2.095391
0.505400	-2.101234
0.505500	-2.087601
0.505600	-2.105129
0.505700	-2.163878
0.505800	-2.167124
0.505900	-2.228795
0.506000	-2.252165
0.506100	-2.360900
0.506200	-2.525139
0.506300	-2.744233
0.506400	-2.615374
0.506500	-2.332337
0.506600	-2.214838
0.506700	-2.351163
0.506800	-2.652052
0.506900	-2.843232
0.507000	-2.842907
0.507100	-2.647507
0.507200	-2.486514
0.507300	-2.518648
0.507400	-2.660166
0.507500	-2.809799
0.507600	-2.835766
0.507700	-2.836091
0.507800	-2.760138
0.507900	-2.743584
0.508000	-2.802334
0.508100	-2.832196
0.508200	-2.834792
0.508300	-2.828950
0.508400	-2.830897
0.508500	-2.864005
0.508600	-2.934115
0.508700	-2.983452
0.508800	-2.960082
0.508900	-2.960082
0.509000	-3.012340
0.509100	-3.067195
0.509200	-3.079853
0.509300	-2.983776
0.509400	-2.882506
0.509500	-2.913666
0.509600	-3.073686
0.509700	-3.278174
0.509800	-3.355101
0.509900	-3.187291
0.510000	-3.019805
0.510100	-2.965924
0.510200	-3.138603
0.510300	-3.413851
0.510400	-3.535570
0.510500	-3.497594
0.510600	-3.371655
0.510700	-3.336275
0.510800	-3.367760
0.510900	-3.413202
0.511000	-3.437870
0.511100	-3.444686
0.511200	-3.407035
0.511300	-3.384314
0.511400	-3.387235
0.511500	-3.309984
0.511600	-3.171711
0.511700	-3.097381
0.511800	-3.092512
0.511900	-3.107768
0.512000	-3.123023
0.512100	-3.077257
0.512200	-2.921456
0.512300	-2.902630
0.512400	-2.723135
0.512500	-2.728653
0.512600	-2.646534
0.512700	-2.633550
0.512800	-2.530982
0.512900	-2.448862
0.513000	-2.293387
0.513100	-2.251191
0.513200	-2.233014
0.513300	-2.241454
0.513400	-2.219057
0.513500	-2.246322
0.513600	-2.233988
0.513700	-2.202179
0.513800	-2.148298
0.513900	-2.185301
0.514000	-2.151219
0.514100	-2.203153
0.514200	-2.179134
0.514300	-2.224575
0.514400	-2.229769
0.514500	-1.857472
0.514600	-1.722770
0.514700	-1.505624
0.514800	-2.002885
0.514900	-2.060985
0.515000	-2.000938
0.515100	-1.821443
0.515200	-1.533538
0.515300	-1.657204
0.515400	-1.713682
0.515500	-1.964909
0.515600	-1.931152
0.515700	-1.919467
0.515800	-1.710760
0.515900	-1.726990
0.516000	-1.736078
0.516100	-1.842216
0.516200	-1.814952
0.516300	-1.743868
0.516400	-1.724393
0.516500	-1.676030
0.516600	-1.655581
0.516700	-1.656555
0.516800	-1.645844
0.516900	-1.637729
0.517000	-1.679276
0.517100	-1.743219
0.517200	-1.731858
0.517300	-1.766264
0.517400	-1.633185
0.517500	-1.647791
0.517600	-1.580927
0.517700	-1.843515
0.517800	-2.010026
0.517900	-1.983085
0.518000	-1.858121
0.518100	-1.652336
0.518200	-1.759123
0.518300	-1.985358
0.518400	-2.171668
0.518500	-2.190494
0.518600	-2.075916
0.518700	-1.933424
0.518800	-1.944460
0.518900	-2.078188
0.519000	-2.151544
0.519100	-2.109673
0.519200	-2.135964
0.519300	-2.080136
0.519400	-2.149597
0.519500	-2.156737
0.519600	-2.188222
0.519700	-2.177186
0.519800	-2.154141
0.519900	-2.161931
0.520000	-2.166475
0.520100	-2.134341
0.520200	-2.080136
0.520300	-2.068451
0.520400	-2.022360
0.520500	-2.109348
0.520600	-2.131420
0.520700	-2.053520
0.520800	-1.974646
0.520900	-1.797749
0.521000	-1.820469
0.521100	-1.779572
0.521200	-1.708488
0.521300	-1.666617
0.521400	-1.650713
0.521500	-1.604947
0.521600	-1.568918
0.521700	-1.553338
0.521800	-1.551715
0.521900	-1.540355
0.522000	-1.539705
0.522100	-1.520880
0.522200	-1.508870
0.522300	-1.508221
0.522400	-1.503028
0.522500	-1.532240
0.522600	-1.558207
0.522700	-1.596183
0.522800	-1.741920
0.522900	-1.975945
0.523000	-2.011973
0.523100	-1.856174
0.523200	-1.600402
0.523300	-1.602350
0.523400	-1.754579
0.523500	-2.061635
0.523600	-2.223277
0.523700	-2.132718
0.523800	-1.956794
0.523900	-1.892202
0.524000	-1.960689
0.524100	-2.143754
0.524200	-2.310265
0.524300	-2.327468
0.524400	-2.331039
0.524500	-2.290466
0.524600	-2.344671
0.524700	-2.379726
0.524800	-2.437826
0.524900	-2.484891
0.525000	-2.492032
0.525100	-2.515402
0.525200	-2.567335
0.525300	-2.660815
0.525400	-2.668930
0.525500	-2.638419
0.525600	-2.674773
0.525700	-2.703985
0.525800	-2.774744
0.525900	-2.761112
0.526000	-2.662438
0.526100	-2.565388
0.526200	-2.666333
0.526300	-2.813370
0.526400	-2.991891
0.526500	-2.999681
0.526600	-2.768902
0.526700	-2.600118
0.526800	-2.625436
0.526900	-2.794219
0.527000	-2.956511
0.527100	-2.994812
0.527200	-2.901332
0.527300	-2.783508
0.527400	-2.719565
0.527500	-2.734496
0.527600	-2.761112
0.527700	-2.757217
0.527800	-2.761112
0.527900	-2.742935
0.528000	-2.702038
0.528100	-2.697169
0.528200	-2.610830
0.528300	-2.496576
0.528400	-2.426791
0.528500	-2.447889
0.528600	-2.429712
0.528700	-2.429387
0.528800	-2.329416
0.528900	-2.211916
0.529000	-2.216136
0.529100	-1.998665
0.529200	-2.066828
0.529300	-2.066828
0.529400	-2.027229
0.529500	-1.944135
0.529600	-1.873052
0.529700	-1.785090
0.529800	-1.798073
0.529900	-1.844164
0.530000	-1.825663
0.530100	-1.876298
0.530200	-1.839295
0.530300	-1.914598
0.530400	-1.804565
0.530500	-1.846111
0.530600	-1.847085
0.530700	-1.823391
0.530800	-1.914923
0.530900	-1.873052
0.531000	-1.958742
0.531100	-1.801644
0.531200	-1.586121
0.531300	-1.474140
0.531400	-1.452717
0.531500	-1.977243
0.531600	-1.937968
0.531700	-1.908756
0.531800	-1.449796
0.531900	-1.485825
0.532000	-1.406951
0.532100	-1.574760
0.532200	-1.742894
0.532300	-1.640651
0.532400	-1.499457
0.532500	-1.298541
0.532600	-1.278092
0.532700	-1.201166
0.532800	-1.284584
0.532900	-1.228756
0.533000	-1.186560
0.533100	-1.119371
0.533200	-1.101519
0.533300	-1.079123
0.533400	-1.068737
0.533500	-1.040822
0.533600	-1.004145
0.533700	-1.134302
0.533800	-1.145987
0.533900	-1.122617
0.534000	-1.216746
0.534100	-1.022321
0.534200	-1.094379
0.534300	-1.052183
0.534400	-1.427725
0.534500	-1.395266
0.534600	-1.353720
0.534700	-1.109634
0.534800	-1.052832
0.534900	-1.186560
0.535000	-1.463429
0.535100	-1.580278
0.535200	-1.527047
0.535300	-1.371247
0.535400	-1.277767
0.535500	-1.377414
0.535600	-1.527047
0.535700	-1.595534
0.535800	-1.549768
0.535900	-1.569242
0.536000	-1.535810
0.536100	-1.657529
0.536200	-1.710111
0.536300	-1.798722
0.536400	-1.784441
0.536500	-1.816250
0.536600	-1.863964
0.536700	-1.914923
0.536800	-1.970102
0.536900	-1.990551
0.537000	-2.035668
0.537100	-2.117787
0.537200	-2.296308
0.537300	-2.402122
0.537400	-2.419325
0.537500	-2.320652
0.537600	-2.372585
0.537700	-2.470285
0.537800	-2.512156
0.537900	-2.530008
0.538000	-2.551755
0.538100	-2.563440
0.538200	-2.582591
0.538300	-2.630954
0.538400	-2.631927
0.538500	-2.678343
0.538600	-2.662438
0.538700	-2.698467
0.538800	-2.717618
0.538900	-2.742611
0.539000	-2.783833
0.539100	-2.794544
0.539200	-2.863680
0.539300	-2.922105
0.539400	-2.969170
0.539500	-3.185343
0.539600	-3.454424
0.539700	-3.420667
0.539800	-3.249936
0.539900	-2.994163
0.540000	-2.995137
0.540100	-3.231110
0.540200	-3.529728
0.540300	-3.534921
0.540400	-3.419693
0.540500	-3.222346
0.540600	-3.146393
0.540700	-3.234680
0.540800	-3.440142
0.540900	-3.441441
0.541000	-3.481365
0.541100	-3.367435
0.541200	-3.328485
0.541300	-3.338547
0.541400	-3.382042
0.541500	-3.437546
0.541600	-3.422615
0.541700	-3.372304
0.541800	-3.423264
0.541900	-3.470329
0.542000	-3.452801
0.542100	-3.452801
0.542200	-3.400867
0.542300	-3.421316
0.542400	-3.415798
0.542500	-3.418720
0.542600	-3.339196
0.542700	-3.115233
0.542800	-3.049667
0.542900	-3.139252
0.543000	-3.344714
0.543100	-3.488505
0.543200	-3.354776
0.543300	-3.112312
0.543400	-2.969495
0.543500	-3.065572
0.543600	-3.277201
0.543700	-3.435923
0.543800	-3.395999
0.543900	-3.272332
0.544000	-3.161973
0.544100	-3.122374
0.544200	-3.153534
0.544300	-3.217153
0.544400	-3.212608
0.544500	-3.154508
0.544600	-3.093810
0.544700	-3.044149
0.544800	-2.995137
0.544900	-2.852969
0.545000	-2.737093
0.545100	-2.646209
0.545200	-2.620242
0.545300	-2.589732
0.545400	-2.560194
0.545500	-2.384270
0.545600	-2.237883
0.545700	-2.136613
0.545800	-1.924336
0.545900	-1.873052
0.546000	-1.817548
0.546100	-1.703295
0.546200	-1.533214
0.546300	-1.347228
0.546400	-1.266407
0.546500	-1.169357
0.546600	-1.151505
0.546700	-1.054130
0.546800	-1.019725
0.546900	-0.947667
0.547000	-0.892813
0.547100	-0.748699
0.547200	-0.769796
0.547300	-0.688326
0.547400	-0.710398
0.547500	-0.643209
0.547600	-0.675019
0.547700	-0.561415
0.547800	-0.375105
0.547900	-0.158609
0.548000	-0.022285
0.548100	-0.295907
0.548200	-0.551353
0.548300	-0.685081
0.548400	-0.366666
0.548500	-0.232938
0.548600	-0.085578
0.548700	-0.243649
0.548800	-0.375105
0.548900	-0.564336
0.549000	-0.506561
0.549100	-0.330313
0.549200	-0.220279
0.549300	-0.209568
0.549400	-0.291363
0.549500	-0.344919
0.549600	-0.446837
0.549700	-0.418274
0.549800	-0.454627
0.549900	-0.438074
0.550000	-0.529930
0.550100	-0.521816
0.550200	-0.616269
0.550300	-0.705854
0.550400	-0.797386
0.550500	-0.850942
0.550600	-0.933710
0.550700	-0.913586
0.550800	-0.929491
0.550900	-0.978827
0.551000	-1.166436
0.551100	-1.453367
0.551200	-1.503028
0.551300	-1.450121
0.551400	-1.314121
0.551500	-1.359562
0.551600	-1.567620
0.551700	-1.872078
0.551800	-2.016517
0.551900	-1.921739
0.552000	-1.810407
0.552100	-1.797749
0.552200	-1.971400
0.552300	-2.161282
0.552400	-2.224900
0.552500	-2.240480
0.552600	-2.297282
0.552700	-2.283000
0.552800	-2.384595
0.552900	-2.434581
0.553000	-2.522867
0.553100	-2.480022
0.553200	-2.507937
0.553300	-2.560519
0.553400	-2.573502
0.553500	-2.553378
0.553600	-2.514753
0.553700	-2.492357
0.553800	-2.592977
0.553900	-2.718267
0.554000	-2.743260
0.554100	-2.699441
0.554200	-2.528385
0.554300	-2.604987
0.554400	-2.656920
0.554500	-2.641340
0.554600	-2.651402
0.554700	-2.652701
0.554800	-2.684835
0.554900	-2.663737
0.555000	-2.686458
0.555100	-2.691002
0.555200	-2.673150
0.555300	-2.700739
0.555400	-2.689379
0.555500	-2.729303
0.555600	-2.700739
0.555700	-2.726057
0.555800	-2.726381
0.555900	-2.733847
0.556000	-2.777016
0.556100	-2.807203
0.556200	-3.041228
0.556300	-3.167816
0.556400	-3.123023
0.556500	-2.833169
0.556600	-2.659842
0.556700	-2.708529
0.556800	-2.960406
0.556900	-3.144446
0.557000	-3.147367
0.557100	-3.029543
0.557200	-2.819212
0.557300	-2.814344
0.557400	-2.937036
0.557500	-3.150937
0.557600	-3.202546
0.557700	-3.152885
0.557800	-3.115882
0.557900	-3.116856
0.558000	-3.134708
0.558100	-3.177553
0.558200	-3.196379
0.558300	-3.215854
0.558400	-3.231110
0.558500	-3.257401
0.558600	-3.306089
0.558700	-3.321344
0.558800	-3.351206
0.558900	-3.325888
0.559000	-3.355750
0.559100	-3.409956
0.559200	-3.390805
0.559300	-3.337898
0.559400	-3.181773
0.559500	-3.171386
0.559600	-3.281096
0.559700	-3.433975
0.559800	-3.508305
0.559900	-3.331082
0.560000	-3.059729
0.560100	-2.961056
0.560200	-3.055834
0.560300	-3.279148
0.560400	-3.356399
0.560500	-3.284017
0.560600	-3.138279
0.560700	-3.054536
0.560800	-3.054211
0.560900	-3.039605
0.561000	-3.042202
0.561100	-3.036684
0.561200	-2.982478
0.561300	-2.952941
0.561400	-2.897112
0.561500	-2.797141
0.561600	-2.644262
0.561700	-2.509884
0.561800	-2.492032
0.561900	-2.463144
0.562000	-2.418027
0.562100	-2.353435
0.562200	-2.138561
0.562300	-2.063257
0.562400	-1.855200
0.562500	-1.850980
0.562600	-1.785415
0.562700	-1.764966
0.562800	-1.699076
0.562900	-1.644221
0.563000	-1.532565
0.563100	-1.537109
0.563200	-1.497510
0.563300	-1.565023
0.563400	-1.596832
0.563500	-1.647791
0.563600	-1.709462
0.563700	-1.717577
0.563800	-1.677328
0.563900	-1.699725
0.564000	-1.713033
0.564100	-1.776326
0.564200	-1.784116
0.564300	-1.860393
0.564400	-1.838971
0.564500	-1.660775
0.564600	-1.330999
0.564700	-1.412145
0.564800	-1.572813
0.564900	-1.909730
0.565000	-1.752632
0.565100	-1.689663
0.565200	-1.376440
0.565300	-1.305032
0.565400	-1.443304
0.565500	-1.519257
0.565600	-1.672135
0.565700	-1.481281
0.565800	-1.346903
0.565900	-1.189806
0.566000	-1.217071
0.566100	-1.305682
0.566200	-1.260889
0.566300	-1.265109
0.566400	-1.249853
0.566500	-1.227782
0.566600	-1.223887
0.566700	-1.214149
0.566800	-1.244011
0.566900	-1.318016
0.567000	-1.356316
0.567100	-1.359238
0.567200	-1.385529
0.567300	-1.366378
0.567400	-1.306331
0.567500	-1.262188
0.567600	-1.263486
0.567700	-1.372221
0.567800	-1.634484
0.567900	-1.560479
0.568000	-1.380335
0.568100	-1.238493
0.568200	-1.302436
0.568300	-1.518608
0.568400	-1.788985
0.568500	-1.778274
0.568600	-1.652660
0.568700	-1.546197
0.568800	-1.594235
0.568900	-1.799696
0.569000	-1.917195
0.569100	-1.889930
0.569200	-1.915572
0.569300	-1.916871
0.569400	-2.011324
0.569500	-2.065854
0.569600	-2.056441
0.569700	-2.083057
0.569800	-2.050923
0.569900	-2.092794
0.570000	-2.145702
0.570100	-2.147974
0.570200	-2.105129
0.570300	-2.082732
0.570400	-2.084031
0.570500	-2.225224
0.570600	-2.310265
0.570700	-2.305072
0.570800	-2.217110
0.570900	-2.157062
0.571000	-2.229119
0.571100	-2.266446
0.571200	-2.258332
0.571300	-2.251840
0.571400	-2.247945
0.571500	-2.279754
0.571600	-2.296957
0.571700	-2.295334
0.571800	-2.306370
0.571900	-2.326819
0.572000	-2.337206
0.572100	-2.338829
0.572200	-2.340451
0.572300	-2.347917
0.572400	-2.361549
0.572500	-2.422896
0.572600	-2.420624
0.572700	-2.456977
0.572800	-2.535851
0.572900	-2.840959
0.573000	-2.934115
0.573100	-2.877637
0.573200	-2.626410
0.573300	-2.592328
0.573400	-2.757541
0.573500	-3.029543
0.573600	-3.204169
0.573700	-3.140551
0.573800	-2.966898
0.573900	-2.800386
0.574000	-2.855566
0.574100	-3.009419
0.574200	-3.119453
0.574300	-3.174632
0.574400	-3.120751
0.574500	-3.068493
0.574600	-3.042526
0.574700	-3.066545
0.574800	-3.090565
0.574900	-3.094784
0.575000	-3.100951
0.575100	-3.105496
0.575200	-3.103873
0.575300	-3.135033
0.575400	-3.220723
0.575500	-3.191835
0.575600	-3.247664
0.575700	-3.228188
0.575800	-3.259998
0.575900	-3.214231
0.576000	-3.115558
0.576100	-2.960731
0.576200	-3.004225
0.576300	-3.202222
0.576400	-3.369058
0.576500	-3.382691
0.576600	-3.175930
0.576700	-2.955862
0.576800	-2.961056
0.576900	-3.159377
0.577000	-3.398920
0.577100	-3.439493
0.577200	-3.345039
0.577300	-3.244418
0.577400	-3.214231
0.577500	-3.267139
0.577600	-3.325564
0.577700	-3.335951
0.577800	-3.315177
0.577900	-3.310308
0.578000	-3.289535
0.578100	-3.281745
0.578200	-3.190212
0.578300	-3.042851
0.578400	-2.988645
0.578500	-3.006497
0.578600	-3.004225
0.578700	-3.007146
0.578800	-2.932492
0.578900	-2.799413
0.579000	-2.791298
0.579100	-2.556299
0.579200	-2.615698
0.579300	-2.577722
0.579400	-2.536500
0.579500	-2.423869
0.579600	-2.346294
0.579700	-2.175563
0.579800	-2.112269
0.579900	-2.104479
0.580000	-2.039887
0.580100	-2.030150
0.580200	-1.911028
0.580300	-1.872403
0.580400	-1.755553
0.580500	-1.694531
0.580600	-1.680574
0.580700	-1.525748
0.580800	-1.661424
0.580900	-1.506923
0.581000	-1.654932
0.581100	-1.404355
0.581200	-1.292698
0.581300	-0.911314
0.581400	-1.067114
0.581500	-1.389748
0.581600	-1.525748
0.581700	-1.422207
0.581800	-1.096001
0.581900	-1.038226
0.582000	-0.945071
0.582100	-1.106713
0.582200	-1.293672
0.582300	-1.232651
0.582400	-1.143715
0.582500	-0.940851
0.582600	-0.907744
0.582700	-0.847696
0.582800	-0.898980
0.582900	-0.886321
0.583000	-0.831792
0.583100	-0.808097
0.583200	-0.778560
0.583300	-0.831142
0.583400	-0.825300
0.583500	-0.891515
0.583600	-0.988889
0.583700	-1.036278
0.583800	-1.063543
0.583900	-1.030436
0.584000	-1.115152
0.584100	-1.048937
0.584200	-1.077825
0.584300	-1.097300
0.584400	-1.380660
0.584500	-1.501080
0.584600	-1.376440
0.584700	-1.170006
0.584800	-1.059648
0.584900	-1.189481
0.585000	-1.400135
0.585100	-1.578980
0.585200	-1.504001
0.585300	-1.315744
0.585400	-1.239467
0.585500	-1.336192
0.585600	-1.473491
0.585700	-1.518608
0.585800	-1.456612
0.585900	-1.514713
0.586000	-1.496861
0.586100	-1.575085
0.586200	-1.594884
0.586300	-1.631887
0.586400	-1.614035
0.586500	-1.617930
0.586600	-1.646169
0.586700	-1.653634
0.586800	-1.665968
0.586900	-1.637405
0.587000	-1.629290
0.587100	-1.594884
0.587200	-1.716603
0.587300	-1.734780
0.587400	-1.705243
0.587500	-1.527696
0.587600	-1.531915
0.587700	-1.581577
0.587800	-1.567295
0.587900	-1.534837
0.588000	-1.538732
0.588100	-1.514063
0.588200	-1.513739
0.588300	-1.485825
0.588400	-1.522503
0.588500	-1.517958
0.588600	-1.523801
0.588700	-1.526073
0.588800	-1.522178
0.588900	-1.546522
0.589000	-1.585472
0.589100	-1.642274
0.589200	-1.708164
0.589300	-1.734130
0.589400	-1.812355
0.589500	-1.936021
0.589600	-2.251840
0.589700	-2.246322
0.589800	-2.187248
0.589900	-1.956470
0.590000	-2.009377
0.590100	-2.233988
0.590200	-2.546887
0.590300	-2.697818
0.590400	-2.597522
0.590500	-2.482619
0.590600	-2.405693
0.590700	-2.534552
0.590800	-2.703011
0.590900	-2.865952
0.591000	-2.863356
0.591100	-2.796491
0.591200	-2.774744
0.591300	-2.773446
0.591400	-2.846802
0.591500	-2.891595
0.591600	-2.853943
0.591700	-2.875690
0.591800	-2.903280
0.591900	-2.913342
0.592000	-2.947098
0.592100	-2.952292
0.592200	-2.920483
0.592300	-2.935089
0.592400	-2.894840
0.592500	-2.932817
0.592600	-2.839337
0.592700	-2.716319
0.592800	-2.628032
0.592900	-2.684835
0.593000	-2.932492
0.593100	-3.021428
0.593200	-2.942879
0.593300	-2.703336
0.593400	-2.563765
0.593500	-2.640042
0.593600	-2.860434
0.593700	-3.005199
0.593800	-2.998383
0.593900	-2.869847
0.594000	-2.791623
0.594100	-2.814993
0.594200	-2.841284
0.594300	-2.884778
0.594400	-2.864329
0.594500	-2.851995
0.594600	-2.850372
0.594700	-2.831222
0.594800	-2.775393
0.594900	-2.682887
0.595000	-2.533579
0.595100	-2.456977
0.595200	-2.443020
0.595300	-2.418351
0.595400	-2.401473
0.595500	-2.232690
0.595600	-2.113243
0.595700	-1.964260
0.595800	-1.826637
0.595900	-1.819820
0.596000	-1.770159
0.596100	-1.676030
0.596200	-1.542302
0.596300	-1.434865
0.596400	-1.307629
0.596500	-1.275495
0.596600	-1.283610
0.596700	-1.218369
0.596800	-1.206684
0.596900	-1.192727
0.597000	-1.178445
0.597100	-1.094703
0.597200	-1.161892
0.597300	-1.116775
0.597400	-1.173577
0.597500	-1.143390
0.597600	-1.292698
0.597700	-1.152154
0.597800	-1.154751
