LabVIEW Measurement	
Writer_Version	2
Reader_Version	2
Separator	Tab
Decimal_Separator	.
Multi_Headings	Yes
X_Columns	One
Time_Pref	Relative
Operator	as989
Description	Time Domain Data
Date	1903/12/31
Time	19:00:00
***End_of_Header***	
	
Channels	1	
Samples	15000	
Date	1903/12/31	
Time	19:00:00	
X_Dimension	Time	
X0	0.0000000000000000E+0	
Delta_X	0.000100	
***End_of_Header***		
X_Value	Untitled	Comment
0.000000	-1.357290	Tare Values:0.000000, 0.000000, 0.000000, 0.000000\0D\0A
0.000100	-1.360211
0.000200	-1.376116
0.000300	-1.358588
0.000400	-1.381634
0.000500	-1.375791
0.000600	-1.394942
0.000700	-1.382608
0.000800	-1.371572
0.000900	-1.370598
0.001000	-1.352097
0.001100	-1.379037
0.001200	-1.359562
0.001300	-1.417662
0.001400	-1.420908
0.001500	-1.513090
0.001600	-1.518932
0.001700	-1.748737
0.001800	-2.108699
0.001900	-2.204776
0.002000	-2.026255
0.002100	-1.783792
0.002200	-1.771457
0.002300	-2.064880
0.002400	-2.413483
0.002500	-2.665035
0.002600	-2.564739
0.002700	-2.411211
0.002800	-2.293387
0.002900	-2.420948
0.003000	-2.606935
0.003100	-2.770525
0.003200	-2.795518
0.003300	-2.726706
0.003400	-2.648806
0.003500	-2.622190
0.003600	-2.646534
0.003700	-2.675097
0.003800	-2.642639
0.003900	-2.627059
0.004000	-2.602715
0.004100	-2.601741
0.004200	-2.660166
0.004300	-2.702362
0.004400	-2.602715
0.004500	-2.655297
0.004600	-2.716319
0.004700	-2.705933
0.004800	-2.698792
0.004900	-2.461846
0.005000	-2.366418
0.005100	-2.485216
0.005200	-2.808826
0.005300	-2.950669
0.005400	-2.927948
0.005500	-2.682563
0.005600	-2.522867
0.005700	-2.615374
0.005800	-2.870497
0.005900	-3.167167
0.006000	-3.217802
0.006100	-3.118803
0.006200	-3.007796
0.006300	-2.961056
0.006400	-2.973390
0.006500	-3.049992
0.006600	-3.058755
0.006700	-3.019481
0.006800	-2.922105
0.006900	-2.813694
0.007000	-2.778315
0.007100	-2.629006
0.007200	-2.447564
0.007300	-2.322599
0.007400	-2.280079
0.007500	-2.273912
0.007600	-2.224900
0.007700	-2.056117
0.007800	-1.863964
0.007900	-1.706865
0.008000	-1.541004
0.008100	-1.547495
0.008200	-1.491667
0.008300	-1.392670
0.008400	-1.247581
0.008500	-1.162216
0.008600	-1.040822
0.008700	-0.979801
0.008800	-0.984670
0.008900	-0.933710
0.009000	-0.947992
0.009100	-0.932087
0.009200	-0.932087
0.009300	-0.863925
0.009400	-0.799983
0.009500	-0.830493
0.009600	-0.872689
0.009700	-0.869768
0.009800	-0.932737
0.009900	-0.862951
0.010000	-0.765252
0.010100	-0.252088
0.010200	-0.228069
0.010300	-0.207296
0.010400	-0.825300
0.010500	-0.881453
0.010600	-0.695467
0.010700	-0.371859
0.010800	-0.132318
0.010900	-0.221902
0.011000	-0.332260
0.011100	-0.553300
0.011200	-0.496174
0.011300	-0.302723
0.011400	-0.160232
0.011500	-0.052471
0.011600	-0.101158
0.011700	-0.052471
0.011800	-0.155363
0.011900	-0.059287
0.012000	-0.083955
0.012100	-0.099210
0.012200	-0.082981
0.012300	-0.089798
0.012400	-0.086876
0.012500	-0.247220
0.012600	-0.181979
0.012700	-0.363095
0.012800	-0.459496
0.012900	-0.306618
0.013000	-0.309215
0.013100	-0.186523
0.013200	-0.376728
0.013300	-0.619190
0.013400	-0.677940
0.013500	-0.453329
0.013600	-0.144652
0.013700	-0.047927
0.013800	-0.336480
0.013900	-0.630226
0.014000	-0.689949
0.014100	-0.559143
0.014200	0.124102
0.014300	0.352283
0.014400	-0.308566
0.014500	-0.596470
0.014600	-0.641262
0.014700	-0.598093
0.014800	-0.584785
0.014900	-0.587381
0.015000	-0.731820
0.015100	-0.800632
0.015200	-0.815887
0.015300	-0.729548
0.015400	-0.742856
0.015500	-0.825625
0.015600	-0.877233
0.015700	-0.902226
0.015800	-0.845424
0.015900	-0.815563
0.016000	-0.899954
0.016100	-1.086264
0.016200	-1.172603
0.016300	-1.183963
0.016400	-1.180068
0.016500	-1.077825
0.016600	-1.140469
0.016700	-1.181691
0.016800	-1.159944
0.016900	-1.155400
0.017000	-1.166436
0.017100	-1.166111
0.017200	-1.182016
0.017300	-1.205710
0.017400	-1.206359
0.017500	-1.215123
0.017600	-1.211877
0.017700	-1.216746
0.017800	-1.237519
0.017900	-1.280040
0.018000	-1.306006
0.018100	-1.367352
0.018200	-1.393319
0.018300	-1.509519
0.018400	-1.775028
0.018500	-2.072670
0.018600	-2.127200
0.018700	-1.840269
0.018800	-1.662398
0.018900	-1.698102
0.019000	-2.147324
0.019100	-2.434256
0.019200	-2.574801
0.019300	-2.459574
0.019400	-2.288194
0.019500	-2.319354
0.019600	-2.544290
0.019700	-2.740014
0.019800	-2.838363
0.019900	-2.791623
0.020000	-2.770849
0.020100	-2.696520
0.020200	-2.779938
0.020300	-2.877962
0.020400	-2.903280
0.020500	-2.890621
0.020600	-2.842907
0.020700	-2.820511
0.020800	-2.831871
0.020900	-2.943203
0.021000	-2.928597
0.021100	-2.844530
0.021200	-2.809150
0.021300	-2.853618
0.021400	-2.837064
0.021500	-2.735145
0.021600	-2.491058
0.021700	-2.456003
0.021800	-2.634200
0.021900	-2.948397
0.022000	-3.057457
0.022100	-2.926000
0.022200	-2.608557
0.022300	-2.460223
0.022400	-2.630954
0.022500	-2.983452
0.022600	-3.175606
0.022700	-3.111013
0.022800	-2.898086
0.022900	-2.740663
0.023000	-2.775393
0.023100	-2.847776
0.023200	-2.923079
0.023300	-2.865952
0.023400	-2.785780
0.023500	-2.728329
0.023600	-2.688080
0.023700	-2.690353
0.023800	-2.571879
0.023900	-2.416404
0.024000	-2.347268
0.024100	-2.352136
0.024200	-2.361874
0.024300	-2.325196
0.024400	-2.098637
0.024500	-1.966856
0.024600	-1.702970
0.024700	-1.667916
0.024800	-1.667916
0.024900	-1.599104
0.025000	-1.496211
0.025100	-1.327753
0.025200	-1.184288
0.025300	-1.051209
0.025400	-0.999925
0.025500	-1.031085
0.025600	-1.016803
0.025700	-0.946044
0.025800	-1.008364
0.025900	-0.871715
0.026000	-0.864574
0.026100	-0.751620
0.026200	-0.823677
0.026300	-0.834388
0.026400	-0.834713
0.026500	-1.001223
0.026600	-0.808422
0.026700	-0.750646
0.026800	-0.264423
0.026900	-0.338427
0.027000	-0.459496
0.027100	-1.058999
0.027200	-1.033682
0.027300	-0.686703
0.027400	-0.492604
0.027500	-0.302399
0.027600	-0.398475
0.027700	-0.607830
0.027800	-0.747400
0.027900	-0.592250
0.028000	-0.413081
0.028100	-0.213463
0.028200	-0.167048
0.028300	-0.270914
0.028400	-0.252088
0.028500	-0.342647
0.028600	-0.252088
0.028700	-0.187497
0.028800	-0.162504
0.028900	-0.140432
0.029000	-0.180356
0.029100	-0.216060
0.029200	-0.355630
0.029300	-0.337778
0.029400	-0.410484
0.029500	-0.386790
0.029600	-0.359525
0.029700	-0.306294
0.029800	-0.356279
0.029900	-0.469558
0.030000	-0.835037
0.030100	-0.768498
0.030200	-0.568231
0.030300	-0.345243
0.030400	-0.424766
0.030500	-0.604584
0.030600	-0.984670
0.030700	-0.945071
0.030800	-0.844450
0.030900	-0.552651
0.031000	-0.618541
0.031100	-0.726627
0.031200	-0.924622
0.031300	-0.946694
0.031400	-0.962598
0.031500	-0.910340
0.031600	-0.953834
0.031700	-1.057052
0.031800	-1.142741
0.031900	-1.139495
0.032000	-1.131056
0.032100	-1.190779
0.032200	-1.269328
0.032300	-1.277767
0.032400	-1.226483
0.032500	-1.210254
0.032600	-1.168059
0.032700	-1.291400
0.032800	-1.445901
0.032900	-1.477061
0.033000	-1.479009
0.033100	-1.463104
0.033200	-1.383581
0.033300	-1.391696
0.033400	-1.382932
0.033500	-1.386827
0.033600	-1.367028
0.033700	-1.377739
0.033800	-1.390398
0.033900	-1.390722
0.034000	-1.410197
0.034100	-1.405004
0.034200	-1.455639
0.034300	-1.448498
0.034400	-1.462779
0.034500	-1.492966
0.034600	-1.509195
0.034700	-1.544250
0.034800	-1.602350
0.034900	-1.655906
0.035000	-1.845138
0.035100	-2.148298
0.035200	-2.410561
0.035300	-2.262227
0.035400	-1.961988
0.035500	-1.789959
0.035600	-1.983735
0.035700	-2.354409
0.035800	-2.618944
0.035900	-2.649780
0.036000	-2.452757
0.036100	-2.275535
0.036200	-2.330065
0.036300	-2.556949
0.036400	-2.692625
0.036500	-2.767928
0.036600	-2.796816
0.036700	-2.765981
0.036800	-2.710801
0.036900	-2.710477
0.037000	-2.787079
0.037100	-2.815642
0.037200	-2.847127
0.037300	-2.852969
0.037400	-2.882182
0.037500	-2.907499
0.037600	-2.985399
0.037700	-2.946125
0.037800	-2.914315
0.037900	-2.960731
0.038000	-2.964301
0.038100	-2.945800
0.038200	-2.762086
0.038300	-2.532605
0.038400	-2.529034
0.038500	-2.795842
0.038600	-3.014937
0.038700	-3.069467
0.038800	-2.840310
0.038900	-2.560844
0.039000	-2.502094
0.039100	-2.719565
0.039200	-3.029867
0.039300	-3.123348
0.039400	-3.028894
0.039500	-2.847451
0.039600	-2.774420
0.039700	-2.819212
0.039800	-2.895165
0.039900	-2.912693
0.040000	-2.868874
0.040100	-2.817914
0.040200	-2.778964
0.040300	-2.738716
0.040400	-2.646209
0.040500	-2.465741
0.040600	-2.304747
0.040700	-2.272614
0.040800	-2.256384
0.040900	-2.252814
0.041000	-2.150570
0.041100	-1.878245
0.041200	-1.770484
0.041300	-1.446226
0.041400	-1.445901
0.041500	-1.395266
0.041600	-1.313472
0.041700	-1.211877
0.041800	-1.067763
0.041900	-0.903200
0.042000	-0.826274
0.042100	-0.797386
0.042200	-0.811343
0.042300	-0.817835
0.042400	-0.748699
0.042500	-0.867496
0.042600	-0.707477
0.042700	-0.775314
0.042800	-0.621138
0.042900	-0.695467
0.043000	-0.642560
0.043100	-0.675992
0.043200	-0.721109
0.043300	-0.556222
0.043400	-0.242351
0.043500	0.144550
0.043600	0.142278
0.043700	-0.316031
0.043800	-0.561090
0.043900	-0.501367
0.044000	-0.104404
0.044100	0.080283
0.044200	0.143577
0.044300	-0.023907
0.044400	-0.318952
0.044500	-0.341024
0.044600	-0.283573
0.044700	-0.065779
0.044800	0.036465
0.044900	0.029973
0.045000	-0.049225
0.045100	-0.102781
0.045200	-0.139783
0.045300	-0.126475
0.045400	-0.053769
0.045500	-0.050523
0.045600	-0.038514
0.045700	-0.082657
0.045800	-0.183277
0.045900	-0.157960
0.046000	-0.235859
0.046100	-0.255010
0.046200	-0.410160
0.046300	-0.256633
0.046400	-0.267993
0.046500	-0.292661
0.046600	-0.563038
0.046700	-0.782131
0.046800	-0.707152
0.046900	-0.372508
0.047000	-0.300127
0.047100	-0.351735
0.047200	-0.751295
0.047300	-0.992135
0.047400	-0.955782
0.047500	-0.766226
0.047600	-0.554274
0.047700	-0.684107
0.047800	-0.942149
0.047900	-1.123266
0.048000	-1.101519
0.048100	-1.094379
0.048200	-1.053806
0.048300	-1.187209
0.048400	-1.289128
0.048500	-1.340412
0.048600	-1.286531
0.048700	-1.267705
0.048800	-1.338140
0.048900	-1.372546
0.049000	-1.361185
0.049100	-1.298216
0.049200	-1.254398
0.049300	-1.225510
0.049400	-1.356641
0.049500	-1.460183
0.049600	-1.470569
0.049700	-1.454016
0.049800	-1.357290
0.049900	-1.391047
0.050000	-1.403056
0.050100	-1.385529
0.050200	-1.393319
0.050300	-1.408574
0.050400	-1.401433
0.050500	-1.404355
0.050600	-1.401433
0.050700	-1.422531
0.050800	-1.411171
0.050900	-1.417338
0.051000	-1.410522
0.051100	-1.399810
0.051200	-1.405328
0.051300	-1.406951
0.051400	-1.403705
0.051500	-1.430321
0.051600	-1.508546
0.051700	-1.691935
0.051800	-2.046055
0.051900	-2.199582
0.052000	-1.915248
0.052100	-1.659476
0.052200	-1.485500
0.052300	-1.746465
0.052400	-2.113892
0.052500	-2.317406
0.052600	-2.261253
0.052700	-2.019763
0.052800	-1.874675
0.052900	-1.911028
0.053000	-2.201530
0.053100	-2.396280
0.053200	-2.493655
0.053300	-2.462170
0.053400	-2.408939
0.053500	-2.388165
0.053600	-2.453731
0.053700	-2.555650
0.053800	-2.612452
0.053900	-2.627708
0.054000	-2.636472
0.054100	-2.647832
0.054200	-2.722162
0.054300	-2.763708
0.054400	-2.788377
0.054500	-2.775393
0.054600	-2.863031
0.054700	-2.926974
0.054800	-2.906201
0.054900	-2.724434
0.055000	-2.562467
0.055100	-2.673150
0.055200	-2.978259
0.055300	-3.167816
0.055400	-3.200274
0.055500	-2.935089
0.055600	-2.663412
0.055700	-2.693274
0.055800	-2.943853
0.055900	-3.245391
0.056000	-3.324915
0.056100	-3.230461
0.056200	-3.063300
0.056300	-3.015910
0.056400	-3.050641
0.056500	-3.159701
0.056600	-3.177553
0.056700	-3.152560
0.056800	-3.101601
0.056900	-3.030192
0.057000	-2.986049
0.057100	-2.899060
0.057200	-2.719890
0.057300	-2.584214
0.057400	-2.535526
0.057500	-2.512805
0.057600	-2.496901
0.057700	-2.337206
0.057800	-2.125902
0.057900	-1.919467
0.058000	-1.684145
0.058100	-1.703295
0.058200	-1.664345
0.058300	-1.576059
0.058400	-1.453367
0.058500	-1.328078
0.058600	-1.202464
0.058700	-1.144364
0.058800	-1.084641
0.058900	-1.145338
0.059000	-1.076202
0.059100	-1.159620
0.059200	-1.085615
0.059300	-1.020698
0.059400	-1.007066
0.059500	-0.958379
0.059600	-1.027515
0.059700	-0.978178
0.059800	-1.100221
0.059900	-0.973309
0.060000	-0.898980
0.060100	-0.522140
0.060200	-0.198532
0.060300	-0.441969
0.060400	-0.681835
0.060500	-0.928192
0.060600	-0.708775
0.060700	-0.400098
0.060800	-0.105702
0.060900	-0.117712
0.061000	-0.247544
0.061100	-0.305644
0.061200	-0.335181
0.061300	-0.125502
0.061400	0.035166
0.061500	0.140980
0.061600	0.139357
0.061700	0.157209
0.061800	0.045553
0.061900	0.022508
0.062000	0.066975
0.062100	0.090670
0.062200	0.100407
0.062300	0.107223
0.062400	0.093591
0.062500	-0.107000
0.062600	-0.188795
0.062700	-0.211840
0.062800	-0.340699
0.062900	-0.265072
0.063000	-0.276757
0.063100	-0.262475
0.063200	-0.473453
0.063300	-0.769796
0.063400	-0.885023
0.063500	-0.745128
0.063600	-0.526035
0.063700	-0.542914
0.063800	-0.711372
0.063900	-1.039524
0.064000	-1.179419
0.064100	-1.082694
0.064200	-0.869768
0.064300	-0.827247
0.064400	-0.920727
0.064500	-1.074254
0.064600	-1.109634
0.064700	-1.034980
0.064800	-1.032708
0.064900	-1.011935
0.065000	-1.108660
0.065100	-1.112555
0.065200	-1.079448
0.065300	-1.004145
0.065400	-1.013882
0.065500	-1.067438
0.065600	-1.071009
0.065700	-1.040498
0.065800	-0.956431
0.065900	-0.895410
0.066000	-0.923648
0.066100	-1.102818
0.066200	-1.137873
0.066300	-1.141768
0.066400	-1.099572
0.066500	-0.967791
0.066600	-1.026865
0.066700	-1.020049
0.066800	-1.003171
0.066900	-1.008689
0.067000	-0.999276
0.067100	-1.039849
0.067200	-1.063219
0.067300	-1.080421
0.067400	-1.091457
0.067500	-1.109309
0.067600	-1.138846
0.067700	-1.154102
0.067800	-1.216097
0.067900	-1.207982
0.068000	-1.267705
0.068100	-1.301137
0.068200	-1.344307
0.068300	-1.411820
0.068400	-1.684145
0.068500	-1.977892
0.068600	-2.070398
0.068700	-1.734455
0.068800	-1.552689
0.068900	-1.508221
0.069000	-1.838321
0.069100	-2.157062
0.069200	-2.315459
0.069300	-2.157062
0.069400	-1.954847
0.069500	-1.914923
0.069600	-2.027229
0.069700	-2.289492
0.069800	-2.405693
0.069900	-2.464767
0.070000	-2.444967
0.070100	-2.430036
0.070200	-2.486189
0.070300	-2.555975
0.070400	-2.607259
0.070500	-2.604338
0.070600	-2.646209
0.070700	-2.697818
0.070800	-2.818563
0.070900	-2.924702
0.071000	-2.928273
0.071100	-2.914965
0.071200	-2.911070
0.071300	-2.978259
0.071400	-3.012664
0.071500	-2.951643
0.071600	-2.752348
0.071700	-2.669904
0.071800	-2.880234
0.071900	-3.212608
0.072000	-3.311607
0.072100	-3.241496
0.072200	-2.967547
0.072300	-2.827327
0.072400	-2.968846
0.072500	-3.235654
0.072600	-3.441441
0.072700	-3.406385
0.072800	-3.230785
0.072900	-3.107118
0.073000	-3.117505
0.073100	-3.180799
0.073200	-3.210336
0.073300	-3.113286
0.073400	-3.012989
0.073500	-2.974688
0.073600	-2.934764
0.073700	-2.903280
0.073800	-2.756568
0.073900	-2.556949
0.074000	-2.447889
0.074100	-2.424519
0.074200	-2.421922
0.074300	-2.409588
0.074400	-2.199582
0.074500	-2.006131
0.074600	-1.725691
0.074700	-1.640975
0.074800	-1.695830
0.074900	-1.645519
0.075000	-1.532565
0.075100	-1.362483
0.075200	-1.254722
0.075300	-1.166760
0.075400	-1.139820
0.075500	-1.089834
0.075600	-1.105090
0.075700	-1.013882
0.075800	-1.075877
0.075900	-0.972336
0.076000	-1.021023
0.076100	-0.920402
0.076200	-1.000574
0.076300	-0.927868
0.076400	-0.984670
0.076500	-1.002846
0.076600	-0.994407
0.076700	-0.789271
0.076800	-0.414379
0.076900	-0.282599
0.077000	-0.536747
0.077100	-0.869443
0.077200	-0.957080
0.077300	-0.590303
0.077400	-0.363420
0.077500	-0.156661
0.077600	-0.193015
0.077700	-0.432880
0.077800	-0.581214
0.077900	-0.499095
0.078000	-0.246246
0.078100	-0.160556
0.078200	-0.176785
0.078300	-0.151468
0.078400	-0.271563
0.078500	-0.271239
0.078600	-0.265072
0.078700	-0.201454
0.078800	-0.214112
0.078900	-0.212165
0.079000	-0.256308
0.079100	-0.307916
0.079200	-0.465988
0.079300	-0.370885
0.079400	-0.527334
0.079500	-0.545186
0.079600	-0.531229
0.079700	-0.482217
0.079800	-0.451706
0.079900	-0.617568
0.080000	-1.027515
0.080100	-1.037252
0.080200	-0.840880
0.080300	-0.628279
0.080400	-0.661711
0.080500	-0.892164
0.080600	-1.299514
0.080700	-1.372870
0.080800	-1.284908
0.080900	-1.026865
0.081000	-1.007390
0.081100	-1.208956
0.081200	-1.406951
0.081300	-1.433892
0.081400	-1.409548
0.081500	-1.304708
0.081600	-1.315419
0.081700	-1.423505
0.081800	-1.501405
0.081900	-1.489395
0.082000	-1.417987
0.082100	-1.384230
0.082200	-1.444603
0.082300	-1.459209
0.082400	-1.435839
0.082500	-1.376116
0.082600	-1.294646
0.082700	-1.389099
0.082800	-1.530617
0.082900	-1.557557
0.083000	-1.579629
0.083100	-1.560803
0.083200	-1.463104
0.083300	-1.501080
0.083400	-1.483877
0.083500	-1.482904
0.083600	-1.467648
0.083700	-1.483553
0.083800	-1.460183
0.083900	-1.463753
0.084000	-1.464402
0.084100	-1.440708
0.084200	-1.483553
0.084300	-1.464078
0.084400	-1.473491
0.084500	-1.479658
0.084600	-1.481930
0.084700	-1.521529
0.084800	-1.524775
0.084900	-1.605596
0.085000	-1.625071
0.085100	-2.031448
0.085200	-2.220680
0.085300	-2.163554
0.085400	-1.848384
0.085500	-1.653634
0.085600	-1.782169
0.085700	-2.085329
0.085800	-2.443994
0.085900	-2.481970
0.086000	-2.326494
0.086100	-2.148298
0.086200	-2.148947
0.086300	-2.308642
0.086400	-2.479373
0.086500	-2.616672
0.086600	-2.614400
0.086700	-2.595250
0.086800	-2.537149
0.086900	-2.562142
0.087000	-2.631927
0.087100	-2.687431
0.087200	-2.687107
0.087300	-2.695870
0.087400	-2.718591
0.087500	-2.772148
0.087600	-2.844530
0.087700	-2.818239
0.087800	-2.824081
0.087900	-2.861408
0.088000	-2.869198
0.088100	-2.903929
0.088200	-2.765656
0.088300	-2.540719
0.088400	-2.527412
0.088500	-2.785456
0.088600	-3.041228
0.088700	-3.124971
0.088800	-2.913991
0.088900	-2.610830
0.089000	-2.549159
0.089100	-2.738716
0.089200	-3.058106
0.089300	-3.175281
0.089400	-3.122049
0.089500	-2.936712
0.089600	-2.875365
0.089700	-2.917886
0.089800	-2.998383
0.089900	-3.029543
0.090000	-2.977285
0.090100	-2.924702
0.090200	-2.922105
0.090300	-2.883805
0.090400	-2.839661
0.090500	-2.664061
0.090600	-2.506314
0.090700	-2.447564
0.090800	-2.411860
0.090900	-2.375182
0.091000	-2.291115
0.091100	-2.021711
0.091200	-1.911677
0.091300	-1.577682
0.091400	-1.573137
0.091500	-1.526073
0.091600	-1.451744
0.091700	-1.332297
0.091800	-1.242388
0.091900	-1.065166
0.092000	-0.993758
0.092100	-0.946044
0.092200	-0.964221
0.092300	-0.929166
0.092400	-0.903849
0.092500	-0.898980
0.092600	-0.815887
0.092700	-0.764279
0.092800	-0.785376
0.092900	-0.750971
0.093000	-0.740584
0.093100	-0.761682
0.093200	-0.743830
0.093300	-0.731171
0.093400	-0.319926
0.093500	-0.072270
0.093600	0.001734
0.093700	-0.379974
0.093800	-0.651324
0.093900	-0.661061
0.094000	-0.323496
0.094100	-0.025206
0.094200	0.097161
0.094300	-0.012547
0.094400	-0.175487
0.094500	-0.248193
0.094600	-0.126800
0.094700	0.013095
0.094800	0.197133
0.094900	0.125075
0.095000	0.163052
0.095100	0.040035
0.095200	0.065028
0.095300	0.048150
0.095400	0.055615
0.095500	0.046202
0.095600	0.065352
0.095700	0.040035
0.095800	-0.111220
0.095900	-0.123879
0.096000	-0.255334
0.096100	-0.312136
0.096200	-0.389711
0.096300	-0.349463
0.096400	-0.315057
0.096500	-0.363095
0.096600	-0.581864
0.096700	-0.957405
0.096800	-0.848670
0.096900	-0.657816
0.097000	-0.458847
0.097100	-0.617243
0.097200	-0.930789
0.097300	-1.210254
0.097400	-1.179744
0.097500	-0.970064
0.097600	-0.752269
0.097700	-0.841529
0.097800	-1.054779
0.097900	-1.207982
0.098000	-1.112880
0.098100	-1.095352
0.098200	-1.031734
0.098300	-1.135600
0.098400	-1.221939
0.098500	-1.280364
0.098600	-1.228106
0.098700	-1.197271
0.098800	-1.234598
0.098900	-1.296918
0.099000	-1.286531
0.099100	-1.267056
0.099200	-1.246608
0.099300	-1.240441
0.099400	-1.384880
0.099500	-1.504975
0.099600	-1.520880
0.099700	-1.539056
0.099800	-1.412145
0.099900	-1.452717
0.100000	-1.456937
0.100100	-1.443954
0.100200	-1.472517
0.100300	-1.452393
0.100400	-1.473815
0.100500	-1.455963
0.100600	-1.462130
0.100700	-1.454340
0.100800	-1.461481
0.100900	-1.475438
0.101000	-1.457262
0.101100	-1.493615
0.101200	-1.496211
0.101300	-1.516011
0.101400	-1.571515
0.101500	-1.624422
0.101600	-1.703944
0.101700	-1.885061
0.101800	-2.290790
0.101900	-2.416729
0.102000	-2.310265
0.102100	-1.990551
0.102200	-1.899992
0.102300	-2.112594
0.102400	-2.451784
0.102500	-2.701064
0.102600	-2.640042
0.102700	-2.490409
0.102800	-2.315134
0.102900	-2.434256
0.103000	-2.620567
0.103100	-2.783508
0.103200	-2.875690
0.103300	-2.769226
0.103400	-2.716968
0.103500	-2.676395
0.103600	-2.747804
0.103700	-2.846153
0.103800	-2.852969
0.103900	-2.852969
0.104000	-2.792272
0.104100	-2.789351
0.104200	-2.858487
0.104300	-2.952616
0.104400	-2.950669
0.104500	-2.892568
0.104600	-2.899709
0.104700	-2.963652
0.104800	-2.963003
0.104900	-2.798439
0.105000	-2.695870
0.105100	-2.744233
0.105200	-3.071739
0.105300	-3.301220
0.105400	-3.343741
0.105500	-3.079204
0.105600	-2.812396
0.105700	-2.818239
0.105800	-3.050965
0.105900	-3.334003
0.106000	-3.402490
0.106100	-3.268762
0.106200	-3.093161
0.106300	-3.025648
0.106400	-3.099328
0.106500	-3.211635
0.106600	-3.243444
0.106700	-3.229811
0.106800	-3.191186
0.106900	-3.158078
0.107000	-3.124321
0.107100	-3.089915
0.107200	-2.984101
0.107300	-2.898411
0.107400	-2.869523
0.107500	-2.845504
0.107600	-2.858162
0.107700	-2.742611
0.107800	-2.539746
0.107900	-2.372261
0.108000	-2.170370
0.108100	-2.202828
0.108200	-2.162904
0.108300	-2.097339
0.108400	-1.950952
0.108500	-1.842541
0.108600	-1.668565
0.108700	-1.597157
0.108800	-1.548794
0.108900	-1.592288
0.109000	-1.498483
0.109100	-1.504975
0.109200	-1.431944
0.109300	-1.368651
0.109400	-1.267381
0.109500	-1.324832
0.109600	-1.212851
0.109700	-1.285233
0.109800	-1.203114
0.109900	-1.201166
0.110000	-1.007390
0.110100	-0.676317
0.110200	-0.374456
0.110300	-0.497472
0.110400	-0.876909
0.110500	-1.071982
0.110600	-0.867820
0.110700	-0.610427
0.110800	-0.289740
0.110900	-0.368289
0.111000	-0.433205
0.111100	-0.675668
0.111200	-0.664307
0.111300	-0.522140
0.111400	-0.323496
0.111500	-0.246246
0.111600	-0.248518
0.111700	-0.286819
0.111800	-0.419897
0.111900	-0.404966
0.112000	-0.354332
0.112100	-0.304995
0.112200	-0.289415
0.112300	-0.248193
0.112400	-0.255659
0.112500	-0.450408
0.112600	-0.316356
0.112700	-0.467286
0.112800	-0.311487
0.112900	-0.425415
0.113000	-0.257931
0.113100	-0.252413
0.113200	-0.298179
0.113300	-0.608479
0.113400	-0.739935
0.113500	-0.611076
0.113600	-0.384193
0.113700	-0.303697
0.113800	-0.483191
0.113900	-0.802579
0.114000	-1.010961
0.114100	-0.910016
0.114200	-0.766875
0.114300	-0.633147
0.114400	-0.744479
0.114500	-0.908718
0.114600	-1.009013
0.114700	-0.985968
0.114800	-1.037577
0.114900	-1.004469
0.115000	-1.144040
0.115100	-1.177472
0.115200	-1.219018
0.115300	-1.198245
0.115400	-1.234923
0.115500	-1.290102
0.115600	-1.321586
0.115700	-1.289128
0.115800	-1.241090
0.115900	-1.191104
0.116000	-1.219018
0.116100	-1.401433
0.116200	-1.473491
0.116300	-1.464078
0.116400	-1.485176
0.116500	-1.355667
0.116600	-1.452393
0.116700	-1.455963
0.116800	-1.461157
0.116900	-1.468297
0.117000	-1.474140
0.117100	-1.494588
0.117200	-1.513090
0.117300	-1.526722
0.117400	-1.509195
0.117500	-1.544899
0.117600	-1.534188
0.117700	-1.569567
0.117800	-1.558856
0.117900	-1.600402
0.118000	-1.608192
0.118100	-1.677328
0.118200	-1.714980
0.118300	-1.809434
0.118400	-2.042809
0.118500	-2.406991
0.118600	-2.447239
0.118700	-2.179458
0.118800	-1.918493
0.118900	-1.869157
0.119000	-2.195363
0.119100	-2.515077
0.119200	-2.648481
0.119300	-2.507287
0.119400	-2.319029
0.119500	-2.215487
0.119600	-2.327468
0.119700	-2.572529
0.119800	-2.691002
0.119900	-2.716644
0.120000	-2.669904
0.120100	-2.638095
0.120200	-2.639717
0.120300	-2.694572
0.120400	-2.720539
0.120500	-2.702362
0.120600	-2.746830
0.120700	-2.803957
0.120800	-2.870821
0.120900	-2.916263
0.121000	-2.919509
0.121100	-2.934115
0.121200	-2.948721
0.121300	-3.014937
0.121400	-3.016235
0.121500	-3.000655
0.121600	-2.732873
0.121700	-2.639717
0.121800	-2.765656
0.121900	-3.079853
0.122000	-3.199300
0.122100	-3.120426
0.122200	-2.842582
0.122300	-2.632252
0.122400	-2.732548
0.122500	-3.005848
0.122600	-3.238900
0.122700	-3.262270
0.122800	-3.081152
0.122900	-2.935089
0.123000	-2.921456
0.123100	-2.964301
0.123200	-2.995137
0.123300	-2.960731
0.123400	-2.898735
0.123500	-2.870172
0.123600	-2.817914
0.123700	-2.752673
0.123800	-2.609531
0.123900	-2.413158
0.124000	-2.306370
0.124100	-2.262876
0.124200	-2.234637
0.124300	-2.198609
0.124400	-1.989253
0.124500	-1.751658
0.124600	-1.441032
0.124700	-1.353071
0.124800	-1.376765
0.124900	-1.326130
0.125000	-1.211877
0.125100	-1.074904
0.125200	-0.950589
0.125300	-0.853863
0.125400	-0.845424
0.125500	-0.799983
0.125600	-0.846722
0.125700	-0.810045
0.125800	-0.877882
0.125900	-0.820431
0.126000	-0.841854
0.126100	-0.786026
0.126200	-0.773367
0.126300	-0.798035
0.126400	-0.851267
0.126500	-0.934360
0.126600	-0.888593
0.126700	-0.758761
0.126800	-0.396203
0.126900	-0.180031
0.127000	-0.451706
0.127100	-0.797710
0.127200	-0.997004
0.127300	-0.652622
0.127400	-0.432880
0.127500	-0.172890
0.127600	-0.187821
0.127700	-0.443916
0.127800	-0.603286
0.127900	-0.536422
0.128000	-0.277730
0.128100	-0.086876
0.128200	-0.063182
0.128300	-0.037865
0.128400	-0.135888
0.128500	-0.118685
0.128600	-0.159907
0.128700	-0.096289
0.128800	-0.091096
0.128900	-0.114141
0.129000	-0.120957
0.129100	-0.140108
0.129200	-0.248843
0.129300	-0.298504
0.129400	-0.395554
0.129500	-0.499744
0.129600	-0.442618
0.129700	-0.427363
0.129800	-0.398799
0.129900	-0.558169
0.130000	-0.992135
0.130100	-1.008364
0.130200	-0.849319
0.130300	-0.603611
0.130400	-0.622112
0.130500	-0.841529
0.130600	-1.226483
0.130700	-1.316393
0.130800	-1.206684
0.130900	-0.938579
0.131000	-0.914885
0.131100	-1.069710
0.131200	-1.285882
0.131300	-1.301787
0.131400	-1.290426
0.131500	-1.251152
0.131600	-1.272899
0.131700	-1.389748
0.131800	-1.469596
0.131900	-1.481930
0.132000	-1.390722
0.132100	-1.377414
0.132200	-1.436813
0.132300	-1.460832
0.132400	-1.416689
0.132500	-1.345605
0.132600	-1.271276
0.132700	-1.356316
0.132800	-1.509519
0.132900	-1.555610
0.133000	-1.532889
0.133100	-1.465701
0.133200	-1.364756
0.133300	-1.403705
0.133400	-1.380335
0.133500	-1.361510
0.133600	-1.332946
0.133700	-1.327753
0.133800	-1.285882
0.133900	-1.315094
0.134000	-1.306006
0.134100	-1.280689
0.134200	-1.287505
0.134300	-1.296593
0.134400	-1.336517
0.134500	-1.312822
0.134600	-1.374818
0.134700	-1.362483
0.134800	-1.485825
0.134900	-1.502703
0.135000	-1.598455
0.135100	-1.853252
0.135200	-2.126227
0.135300	-2.100584
0.135400	-1.774703
0.135500	-1.569242
0.135600	-1.668889
0.135700	-2.029501
0.135800	-2.394008
0.135900	-2.436528
0.136000	-2.340776
0.136100	-2.111296
0.136200	-2.131095
0.136300	-2.270991
0.136400	-2.567660
0.136500	-2.680290
0.136600	-2.715670
0.136700	-2.663087
0.136800	-2.637445
0.136900	-2.705608
0.137000	-2.803957
0.137100	-2.884454
0.137200	-2.940931
0.137300	-2.988970
0.137400	-2.991566
0.137500	-3.085696
0.137600	-3.195730
0.137700	-3.216828
0.137800	-3.264867
0.137900	-3.260322
0.138000	-3.327836
0.138100	-3.337573
0.138200	-3.229162
0.138300	-3.001953
0.138400	-2.979881
0.138500	-3.204169
0.138600	-3.470978
0.138700	-3.543360
0.138800	-3.416123
0.138900	-3.129839
0.139000	-3.028244
0.139100	-3.157429
0.139200	-3.432028
0.139300	-3.606654
0.139400	-3.589776
0.139500	-3.411254
0.139600	-3.289535
0.139700	-3.252208
0.139800	-3.335626
0.139900	-3.368409
0.140000	-3.319721
0.140100	-3.257076
0.140200	-3.195405
0.140300	-3.139901
0.140400	-3.053887
0.140500	-2.917561
0.140600	-2.746830
0.140700	-2.675097
0.140800	-2.663087
0.140900	-2.629006
0.141000	-2.589407
0.141100	-2.348241
0.141200	-2.210618
0.141300	-1.919143
0.141400	-1.920766
0.141500	-1.885711
0.141600	-1.843839
0.141700	-1.737701
0.141800	-1.615982
0.141900	-1.452717
0.142000	-1.372546
0.142100	-1.315419
0.142200	-1.299839
0.142300	-1.276145
0.142400	-1.240441
0.142500	-1.257968
0.142600	-1.151180
0.142700	-1.053157
0.142800	-1.046990
0.142900	-0.981099
0.143000	-1.062894
0.143100	-0.985319
0.143200	-1.077825
0.143300	-0.894761
0.143400	-0.676641
0.143500	-0.156012
0.143600	-0.114466
0.143700	-0.386465
0.143800	-0.761682
0.143900	-0.676317
0.144000	-0.392632
0.144100	-0.130695
0.144200	0.026403
0.144300	0.013744
0.144400	-0.252738
0.144500	-0.273186
0.144600	-0.264423
0.144700	-0.057339
0.144800	-0.027153
0.144900	0.023157
0.145000	0.016341
0.145100	-0.041110
0.145200	-0.087525
0.145300	-0.129072
0.145400	-0.145626
0.145500	-0.175487
0.145600	-0.160881
0.145700	-0.177435
0.145800	-0.246246
0.145900	-0.249167
0.146000	-0.417625
0.146100	-0.496823
0.146200	-0.551028
0.146300	-0.483840
0.146400	-0.489682
0.146500	-0.460470
0.146600	-0.731820
0.146700	-1.034980
0.146800	-0.984021
0.146900	-0.778236
0.147000	-0.542914
0.147100	-0.627305
0.147200	-0.865548
0.147300	-1.157997
0.147400	-1.150531
0.147500	-0.993433
0.147600	-0.781806
0.147700	-0.794465
0.147800	-0.957080
0.147900	-1.108336
0.148000	-1.100546
0.148100	-1.113204
0.148200	-1.042121
0.148300	-1.152479
0.148400	-1.260240
0.148500	-1.345930
0.148600	-1.344631
0.148700	-1.299839
0.148800	-1.335219
0.148900	-1.436164
0.149000	-1.471219
0.149100	-1.431619
0.149200	-1.385529
0.149300	-1.351772
0.149400	-1.503677
0.149500	-1.640651
0.149600	-1.652336
0.149700	-1.643247
0.149800	-1.493290
0.149900	-1.484851
0.150000	-1.502054
0.150100	-1.436164
0.150200	-1.439085
0.150300	-1.398188
0.150400	-1.392345
0.150500	-1.362808
0.150600	-1.361510
0.150700	-1.362808
0.150800	-1.384880
0.150900	-1.381634
0.151000	-1.418636
0.151100	-1.406951
0.151200	-1.432269
0.151300	-1.422207
0.151400	-1.456937
0.151500	-1.540030
0.151600	-1.603973
0.151700	-1.773080
0.151800	-2.114542
0.151900	-2.335583
0.152000	-2.225874
0.152100	-1.856174
0.152200	-1.779247
0.152300	-1.939591
0.152400	-2.360251
0.152500	-2.624137
0.152600	-2.641665
0.152700	-2.439449
0.152800	-2.308642
0.152900	-2.405044
0.153000	-2.610180
0.153100	-2.827327
0.153200	-2.936387
0.153300	-2.940931
0.153400	-2.909447
0.153500	-2.932492
0.153600	-3.013963
0.153700	-3.123997
0.153800	-3.126918
0.153900	-3.165868
0.154000	-3.183720
0.154100	-3.230136
0.154200	-3.316475
0.154300	-3.408008
0.154400	-3.335626
0.154500	-3.300571
0.154600	-3.262270
0.154700	-3.325888
0.154800	-3.341468
0.154900	-3.162298
0.155000	-2.921132
0.155100	-2.939958
0.155200	-3.135682
0.155300	-3.340170
0.155400	-3.345039
0.155500	-3.071739
0.155600	-2.769551
0.155700	-2.717293
0.155800	-2.906850
0.155900	-3.170088
0.156000	-3.230461
0.156100	-3.111013
0.156200	-2.890945
0.156300	-2.795842
0.156400	-2.878287
0.156500	-2.968846
0.156600	-2.971442
0.156700	-2.864329
0.156800	-2.840310
0.156900	-2.792596
0.157000	-2.768253
0.157100	-2.692300
0.157200	-2.543641
0.157300	-2.394332
0.157400	-2.322599
0.157500	-2.313186
0.157600	-2.284299
0.157700	-2.184652
0.157800	-1.930828
0.157900	-1.714980
0.158000	-1.526398
0.158100	-1.572164
0.158200	-1.541653
0.158300	-1.462130
0.158400	-1.333596
0.158500	-1.215772
0.158600	-1.065815
0.158700	-0.966818
0.158800	-0.921052
0.158900	-0.966169
0.159000	-0.906445
0.159100	-0.913586
0.159200	-0.875286
0.159300	-0.807123
0.159400	-0.793166
0.159500	-0.693844
0.159600	-0.788947
0.159700	-0.729873
0.159800	-0.823352
0.159900	-0.731496
0.160000	-0.690598
0.160100	-0.337778
0.160200	-0.113492
0.160300	-0.097912
0.160400	-0.472804
0.160500	-0.800307
0.160600	-0.625033
0.160700	-0.322198
0.160800	-0.116738
0.160900	0.032894
0.161000	-0.191716
0.161100	-0.342647
0.161200	-0.454303
0.161300	-0.226771
0.161400	-0.084604
0.161500	0.051720
0.161600	0.084503
0.161700	0.046527
0.161800	0.007577
0.161900	-0.072270
0.162000	0.011147
0.162100	0.053668
0.162200	0.040684
0.162300	0.066651
0.162400	0.040035
0.162500	-0.023583
0.162600	-0.218657
0.162700	-0.156337
0.162800	-0.251439
0.162900	-0.299802
0.163000	-0.196910
0.163100	-0.254036
0.163200	-0.209568
0.163300	-0.624059
0.163400	-0.742856
0.163500	-0.669825
0.163600	-0.401396
0.163700	-0.320900
0.163800	-0.420546
0.163900	-0.728575
0.164000	-0.944097
0.164100	-0.918780
0.164200	-0.710398
0.164300	-0.571801
0.164400	-0.659439
0.164500	-0.873338
0.164600	-0.985319
0.164700	-0.968116
0.164800	-0.984345
0.164900	-0.922999
0.165000	-1.017453
0.165100	-1.090484
0.165200	-1.157672
0.165300	-1.129433
0.165400	-1.119696
0.165500	-1.165137
0.165600	-1.214474
0.165700	-1.194999
0.165800	-1.158321
0.165900	-1.148908
0.166000	-1.177147
0.166100	-1.358264
0.166200	-1.445577
0.166300	-1.437137
0.166400	-1.447524
0.166500	-1.300813
0.166600	-1.355018
0.166700	-1.348202
0.166800	-1.340412
0.166900	-1.360861
0.167000	-1.329376
0.167100	-1.327753
0.167200	-1.312498
0.167300	-1.326779
0.167400	-1.296593
0.167500	-1.294646
0.167600	-1.301462
0.167700	-1.294970
0.167800	-1.291725
0.167900	-1.306655
0.168000	-1.330674
0.168100	-1.347877
0.168200	-1.421557
0.168300	-1.472517
0.168400	-1.675381
0.168500	-2.040537
0.168600	-2.150246
0.168700	-2.006780
0.168800	-1.680899
0.168900	-1.685768
0.169000	-1.923687
0.169100	-2.327144
0.169200	-2.498199
0.169300	-2.415106
0.169400	-2.249893
0.169500	-2.245349
0.169600	-2.314160
0.169700	-2.570906
0.169800	-2.692300
0.169900	-2.794219
0.170000	-2.742935
0.170100	-2.771174
0.170200	-2.778964
0.170300	-2.882506
0.170400	-2.926974
0.170500	-2.958459
0.170600	-3.026946
0.170700	-3.051615
0.170800	-3.143796
0.170900	-3.267788
0.171000	-3.274604
0.171100	-3.242146
0.171200	-3.253181
0.171300	-3.310958
0.171400	-3.353478
0.171500	-3.286614
0.171600	-3.014612
0.171700	-2.923728
0.171800	-3.028244
0.171900	-3.323941
0.172000	-3.438195
0.172100	-3.370032
0.172200	-3.081801
0.172300	-2.816940
0.172400	-2.878287
0.172500	-3.062975
0.172600	-3.302843
0.172700	-3.279797
0.172800	-3.126918
0.172900	-2.951318
0.173000	-2.859136
0.173100	-2.858812
0.173200	-2.861408
0.173300	-2.826678
0.173400	-2.772797
0.173500	-2.728329
0.173600	-2.647183
0.173700	-2.561168
0.173800	-2.439449
0.173900	-2.260929
0.174000	-2.139534
0.174100	-2.052222
0.174200	-1.977243
0.174300	-1.987305
0.174400	-1.878245
0.174500	-1.708813
0.174600	-1.651362
0.174700	-1.446875
0.174800	-1.455314
0.174900	-1.410197
0.175000	-1.316717
0.175100	-1.181042
0.175200	-1.089834
0.175300	-0.951887
0.175400	-0.913911
0.175500	-0.872689
0.175600	-0.892164
0.175700	-0.820107
0.175800	-0.887295
0.175900	-0.835037
0.176000	-0.812641
0.176100	-0.788947
0.176200	-0.740584
0.176300	-0.749672
0.176400	-0.752269
0.176500	-0.865873
0.176600	-0.771419
0.176700	-0.621463
0.176800	-0.217358
0.176900	-0.079736
0.177000	-0.130370
0.177100	-0.635420
0.177200	-0.723381
0.177300	-0.576670
0.177400	-0.215086
0.177500	-0.049874
0.177600	0.064379
0.177700	-0.242676
0.177800	-0.242676
0.177900	-0.345243
0.178000	-0.110571
0.178100	0.033543
0.178200	0.069572
0.178300	0.085152
0.178400	-0.023907
0.178500	-0.006056
0.178600	0.016016
0.178700	0.022508
0.178800	-0.010924
0.178900	-0.024881
0.179000	-0.050199
0.179100	-0.124852
0.179200	-0.014819
0.179300	-0.215411
0.179400	-0.226771
0.179500	-0.389711
0.179600	-0.296556
0.179700	-0.222551
0.179800	-0.154714
0.179900	-0.360174
0.180000	-0.698064
0.180100	-0.718837
0.180200	-0.549081
0.180300	-0.221578
0.180400	-0.282599
0.180500	-0.409511
0.180600	-0.771744
0.180700	-0.900603
0.180800	-0.765252
0.180900	-0.567906
0.181000	-0.425090
0.181100	-0.605233
0.181200	-0.759085
0.181300	-0.840880
0.181400	-0.821730
0.181500	-0.818808
0.181600	-0.795438
0.181700	-0.865873
0.181800	-0.929815
0.181900	-0.999601
0.182000	-0.984021
0.182100	-0.962274
0.182200	-0.988565
0.182300	-1.003496
0.182400	-1.004145
0.182500	-0.958379
0.182600	-0.963896
0.182700	-1.004794
0.182800	-1.161567
0.182900	-1.223238
0.183000	-1.235572
0.183100	-1.145662
0.183200	-1.077176
0.183300	-1.138522
0.183400	-1.152803
0.183500	-1.141443
0.183600	-1.136899
0.183700	-1.140794
0.183800	-1.151505
0.183900	-1.157672
0.184000	-1.176173
0.184100	-1.176173
0.184200	-1.201815
0.184300	-1.201491
0.184400	-1.254722
0.184500	-1.271276
0.184600	-1.316717
0.184700	-1.330350
0.184800	-1.422531
0.184900	-1.481281
0.185000	-1.532565
0.185100	-1.823715
0.185200	-2.212890
0.185300	-2.165501
0.185400	-2.014570
0.185500	-1.727639
0.185600	-1.823066
0.185700	-2.116489
0.185800	-2.491058
0.185900	-2.611803
0.186000	-2.511507
0.186100	-2.346619
0.186200	-2.293387
0.186300	-2.442695
0.186400	-2.718916
0.186500	-2.901657
0.186600	-2.874067
0.186700	-2.829924
0.186800	-2.793570
0.186900	-2.822783
0.187000	-2.869523
0.187100	-2.962029
0.187200	-2.995461
0.187300	-2.956187
0.187400	-2.989619
0.187500	-3.044798
0.187600	-3.111013
0.187700	-3.072713
0.187800	-3.090889
0.187900	-3.215205
0.188000	-3.259349
0.188100	-3.269735
0.188200	-3.117181
0.188300	-2.885752
0.188400	-2.821809
0.188500	-2.983452
0.188600	-3.291158
0.188700	-3.335626
0.188800	-3.135682
0.188900	-2.872769
0.189000	-2.657245
0.189100	-2.707555
0.189200	-2.911394
0.189300	-3.100302
0.189400	-3.177229
0.189500	-2.998707
0.189600	-2.767279
0.189700	-2.701713
0.189800	-2.738391
0.189900	-2.835117
0.190000	-2.826029
0.190100	-2.769876
0.190200	-2.684185
0.190300	-2.607259
0.190400	-2.518972
0.190500	-2.410886
0.190600	-2.266122
0.190700	-2.171993
0.190800	-2.050923
0.190900	-2.023009
0.191000	-2.027229
0.191100	-1.870131
0.191200	-1.753930
0.191300	-1.699076
0.191400	-1.467324
0.191500	-1.482579
0.191600	-1.485825
0.191700	-1.354369
0.191800	-1.225834
0.191900	-1.071982
0.192000	-1.011935
0.192100	-0.931438
0.192200	-0.995381
0.192300	-1.007066
0.192400	-0.976231
0.192500	-1.018751
0.192600	-0.969090
0.192700	-0.952861
0.192800	-0.943448
0.192900	-0.916832
0.193000	-0.970064
0.193100	-0.932737
0.193200	-1.066140
0.193300	-0.899629
0.193400	-0.798684
0.193500	-0.375754
0.193600	-0.411458
0.193700	-0.418274
0.193800	-0.970388
0.193900	-0.907744
0.194000	-0.724680
0.194100	-0.476374
0.194200	-0.291363
0.194300	-0.344270
0.194400	-0.552327
0.194500	-0.699362
0.194600	-0.635420
0.194700	-0.506236
0.194800	-0.374780
0.194900	-0.233912
0.195000	-0.314408
0.195100	-0.374456
0.195200	-0.429310
0.195300	-0.394255
0.195400	-0.356604
0.195500	-0.273511
0.195600	-0.305969
0.195700	-0.312785
0.195800	-0.230017
0.195900	-0.310838
0.196000	-0.432231
0.196100	-0.530255
0.196200	-0.441969
0.196300	-0.388413
0.196400	-0.313759
0.196500	-0.412107
0.196600	-0.627630
0.196700	-0.815238
0.196800	-0.720135
0.196900	-0.548432
0.197000	-0.246571
0.197100	-0.379974
0.197200	-0.515324
0.197300	-0.732470
0.197400	-0.722407
0.197500	-0.654245
0.197600	-0.527009
0.197700	-0.435153
0.197800	-0.489682
0.197900	-0.548432
0.198000	-0.620164
0.198100	-0.694493
0.198200	-0.695792
0.198300	-0.662684
0.198400	-0.700011
0.198500	-0.777586
0.198600	-0.857434
0.198700	-0.882102
0.198800	-0.934684
0.198900	-1.000899
0.199000	-1.010636
0.199100	-1.009013
0.199200	-1.005443
0.199300	-1.002522
0.199400	-1.137223
0.199500	-1.318989
0.199600	-1.348851
0.199700	-1.380660
0.199800	-1.258942
0.199900	-1.311524
0.200000	-1.367352
0.200100	-1.402732
0.200200	-1.422856
0.200300	-1.435839
0.200400	-1.429023
0.200500	-1.438760
0.200600	-1.441032
0.200700	-1.442655
0.200800	-1.439085
0.200900	-1.423180
0.201000	-1.422856
0.201100	-1.435839
0.201200	-1.421882
0.201300	-1.422531
0.201400	-1.439409
0.201500	-1.451094
0.201600	-1.455963
0.201700	-1.509519
0.201800	-1.807162
0.201900	-1.994446
0.202000	-1.889281
0.202100	-1.605596
0.202200	-1.390722
0.202300	-1.419610
0.202400	-1.724393
0.202500	-1.965233
0.202600	-1.978541
0.202700	-1.832154
0.202800	-1.641624
0.202900	-1.648116
0.203000	-1.796126
0.203100	-1.990226
0.203200	-2.046055
0.203300	-2.070723
0.203400	-2.028527
0.203500	-1.947706
0.203600	-2.015544
0.203700	-2.036317
0.203800	-2.104479
0.203900	-2.095067
0.204000	-2.105453
0.204100	-2.176862
0.204200	-2.271315
0.204300	-2.236260
0.204400	-2.142131
0.204500	-2.215811
0.204600	-2.291439
0.204700	-2.383296
0.204800	-2.340776
0.204900	-2.147324
0.205000	-1.915572
0.205100	-1.982436
0.205200	-2.211267
0.205300	-2.527412
0.205400	-2.529034
0.205500	-2.311239
0.205600	-2.113243
0.205700	-2.019114
0.205800	-2.141482
0.205900	-2.353435
0.206000	-2.498848
0.206100	-2.537149
0.206200	-2.393359
0.206300	-2.250866
0.206400	-2.241778
0.206500	-2.289167
0.206600	-2.328442
0.206700	-2.301177
0.206800	-2.278131
0.206900	-2.233339
0.207000	-2.207048
0.207100	-2.076565
0.207200	-1.902913
0.207300	-1.762369
0.207400	-1.737376
0.207500	-1.707190
0.207600	-1.726990
0.207700	-1.671161
0.207800	-1.430970
0.207900	-1.324183
0.208000	-1.156698
0.208100	-1.058025
0.208200	-1.016154
0.208300	-0.950589
0.208400	-0.821730
0.208500	-0.711047
0.208600	-0.590627
0.208700	-0.472479
0.208800	-0.433530
0.208900	-0.416976
0.209000	-0.417625
0.209100	-0.382246
0.209200	-0.385816
0.209300	-0.359850
0.209400	-0.281301
0.209500	-0.249167
0.209600	-0.225797
0.209700	-0.225473
0.209800	-0.359850
0.209900	-0.292337
0.210000	-0.381921
0.210100	0.056589
0.210200	0.151367
0.210300	0.398698
0.210400	-0.187821
0.210500	-0.482217
0.210600	-0.407238
0.210700	-0.192690
0.210800	0.109820
0.210900	0.112741
0.211000	0.068923
0.211100	-0.211516
0.211200	-0.262150
0.211300	-0.069349
0.211400	0.029324
0.211500	0.205896
0.211600	0.140331
0.211700	0.151042
0.211800	0.053343
0.211900	0.071195
0.212000	0.048474
0.212100	0.089372
0.212200	0.077362
0.212300	0.044255
0.212400	0.016990
0.212500	0.012446
0.212600	-0.099860
0.212700	-0.232289
0.212800	-0.296556
0.212900	-0.262475
0.213000	-0.180356
0.213100	-0.219630
0.213200	-0.245272
0.213300	-0.544212
0.213400	-0.802904
0.213500	-0.743181
0.213600	-0.532202
0.213700	-0.341998
0.213800	-0.535124
0.213900	-0.685081
0.214000	-0.958703
0.214100	-0.946044
0.214200	-0.829520
0.214300	-0.650675
0.214400	-0.588355
0.214500	-0.733768
0.214600	-0.879830
0.214700	-0.909042
0.214800	-0.919429
0.214900	-0.830818
0.215000	-0.851916
0.215100	-0.894436
0.215200	-0.969090
0.215300	-0.959028
0.215400	-0.882751
0.215500	-0.913911
0.215600	-0.944097
0.215700	-0.936307
0.215800	-0.882751
0.215900	-0.861329
0.216000	-0.823352
0.216100	-0.977854
0.216200	-1.085615
0.216300	-1.090484
0.216400	-1.079772
0.216500	-0.897357
0.216600	-0.953185
0.216700	-0.974608
0.216800	-0.953185
0.216900	-0.958379
0.217000	-0.958379
0.217100	-0.960326
0.217200	-0.969739
0.217300	-0.990512
0.217400	-1.011935
0.217500	-1.001873
0.217600	-1.048288
0.217700	-1.032708
0.217800	-1.067114
0.217900	-1.042445
0.218000	-1.105090
0.218100	-1.134627
0.218200	-1.163190
0.218300	-1.210254
0.218400	-1.339114
0.218500	-1.683496
0.218600	-1.826312
0.218700	-1.646818
0.218800	-1.338789
0.218900	-1.246608
0.219000	-1.508546
0.219100	-1.828584
0.219200	-2.076565
0.219300	-2.045081
0.219400	-1.895773
0.219500	-1.713033
0.219600	-1.791906
0.219700	-1.969778
0.219800	-2.171344
0.219900	-2.244699
0.220000	-2.223601
0.220100	-2.175239
0.220200	-2.158036
0.220300	-2.167124
0.220400	-2.232690
0.220500	-2.324547
0.220600	-2.351487
0.220700	-2.381349
0.220800	-2.409263
0.220900	-2.420624
0.221000	-2.420624
0.221100	-2.369664
0.221200	-2.400175
0.221300	-2.466390
0.221400	-2.491707
0.221500	-2.419650
0.221600	-2.185625
0.221700	-2.051897
0.221800	-2.194389
0.221900	-2.482294
0.222000	-2.715995
0.222100	-2.664710
0.222200	-2.527412
0.222300	-2.346294
0.222400	-2.335258
0.222500	-2.496252
0.222600	-2.723785
0.222700	-2.851995
0.222800	-2.806554
0.222900	-2.600767
0.223000	-2.443020
0.223100	-2.413158
0.223200	-2.426791
0.223300	-2.413158
0.223400	-2.378752
0.223500	-2.338504
0.223600	-2.253139
0.223700	-2.195363
0.223800	-2.022685
0.223900	-1.882789
0.224000	-1.832154
0.224100	-1.851305
0.224200	-1.874026
0.224300	-1.913300
0.224400	-1.833777
0.224500	-1.680899
0.224600	-1.641949
0.224700	-1.411171
0.224800	-1.428698
0.224900	-1.417338
0.225000	-1.336192
0.225100	-1.250827
0.225200	-1.168383
0.225300	-1.034331
0.225400	-0.974283
0.225500	-0.983696
0.225600	-0.987591
0.225700	-1.027515
0.225800	-1.015180
0.225900	-1.077500
0.226000	-0.994083
0.226100	-1.022646
0.226200	-1.022646
0.226300	-1.024918
0.226400	-1.147285
0.226500	-1.121643
0.226600	-1.241414
0.226700	-1.046016
0.226800	-0.870092
0.226900	-0.511754
0.227000	-0.686379
0.227100	-1.058025
0.227200	-1.350149
0.227300	-1.181367
0.227400	-0.956756
0.227500	-0.719811
0.227600	-0.751944
0.227700	-0.863925
0.227800	-1.116126
0.227900	-1.037252
0.228000	-0.922350
0.228100	-0.761357
0.228200	-0.663983
0.228300	-0.639639
0.228400	-0.648727
0.228500	-0.735715
0.228600	-0.782780
0.228700	-0.779858
0.228800	-0.697739
0.228900	-0.694493
0.229000	-0.707801
0.229100	-0.716240
0.229200	-0.721434
0.229300	-0.820107
0.229400	-0.937605
0.229500	-0.946369
0.229600	-0.916183
0.229700	-0.762006
0.229800	-0.808422
0.229900	-0.879181
0.230000	-1.216097
0.230100	-1.273548
0.230200	-1.144364
0.230300	-0.807448
0.230400	-0.853539
0.230500	-1.021997
0.230600	-1.242063
0.230700	-1.325156
0.230800	-1.269653
0.230900	-1.142092
0.231000	-1.040173
0.231100	-1.048937
0.231200	-1.160269
0.231300	-1.271925
0.231400	-1.272250
0.231500	-1.321586
0.231600	-1.261538
0.231700	-1.334569
0.231800	-1.370923
0.231900	-1.431944
0.232000	-1.450770
0.232100	-1.429347
0.232200	-1.473491
0.232300	-1.476087
0.232400	-1.462130
0.232500	-1.398837
0.232600	-1.411820
0.232700	-1.412794
0.232800	-1.576383
0.232900	-1.622474
0.233000	-1.646169
0.233100	-1.570541
0.233200	-1.510818
0.233300	-1.553338
0.233400	-1.582550
0.233500	-1.544899
0.233600	-1.547820
0.233700	-1.512441
0.233800	-1.500106
0.233900	-1.479009
0.234000	-1.491992
0.234100	-1.472192
0.234200	-1.476736
0.234300	-1.478359
0.234400	-1.466025
0.234500	-1.468946
0.234600	-1.448173
0.234700	-1.492641
0.234800	-1.493290
0.234900	-1.576708
0.235000	-1.580927
0.235100	-1.823066
0.235200	-2.169396
0.235300	-2.247621
0.235400	-1.995095
0.235500	-1.729911
0.235600	-1.695505
0.235700	-1.947057
0.235800	-2.279105
0.235900	-2.514104
0.236000	-2.409263
0.236100	-2.242752
0.236200	-2.109673
0.236300	-2.260279
0.236400	-2.469311
0.236500	-2.653025
0.236600	-2.672176
0.236700	-2.658219
0.236800	-2.560519
0.236900	-2.619593
0.237000	-2.711126
0.237100	-2.766954
0.237200	-2.750725
0.237300	-2.718267
0.237400	-2.746181
0.237500	-2.892244
0.237600	-2.928273
0.237700	-2.859461
0.237800	-2.839337
0.237900	-2.882182
0.238000	-2.965600
0.238100	-2.977285
0.238200	-2.897762
0.238300	-2.646858
0.238400	-2.585837
0.238500	-2.742286
0.238600	-3.039280
0.238700	-3.184045
0.238800	-3.039930
0.238900	-2.773771
0.239000	-2.689379
0.239100	-2.799413
0.239200	-2.997734
0.239300	-3.176580
0.239400	-3.235329
0.239500	-3.172360
0.239600	-3.040903
0.239700	-2.967872
0.239800	-2.990593
0.239900	-3.062975
0.240000	-3.084073
0.240100	-3.068168
0.240200	-2.987996
0.240300	-2.879585
0.240400	-2.764682
0.240500	-2.602715
0.240600	-2.477750
0.240700	-2.394657
0.240800	-2.328442
0.240900	-2.281702
0.241000	-2.253788
0.241100	-2.089873
0.241200	-1.933100
0.241300	-1.901940
0.241400	-1.619877
0.241500	-1.644546
0.241600	-1.588393
0.241700	-1.466999
0.241800	-1.309901
0.241900	-1.171954
0.242000	-1.056727
0.242100	-1.026541
0.242200	-1.083992
0.242300	-1.080421
0.242400	-1.081071
0.242500	-1.049586
0.242600	-1.042445
0.242700	-0.968441
0.242800	-0.976555
0.242900	-0.972336
0.243000	-0.999601
0.243100	-1.037577
0.243200	-1.046665
0.243300	-1.013558
0.243400	-0.789921
0.243500	-0.425415
0.243600	-0.352060
0.243700	-0.436775
0.243800	-0.944746
0.243900	-0.935009
0.244000	-0.826274
0.244100	-0.431907
0.244200	-0.267344
0.244300	-0.304021
0.244400	-0.416327
0.244500	-0.672097
0.244600	-0.576346
0.244700	-0.464689
0.244800	-0.262800
0.244900	-0.189120
0.245000	-0.250141
0.245100	-0.325444
0.245200	-0.406589
0.245300	-0.376728
0.245400	-0.324146
0.245500	-0.273835
0.245600	-0.336155
0.245700	-0.393281
0.245800	-0.385816
0.245900	-0.457873
0.246000	-0.620489
0.246100	-0.596794
0.246200	-0.661061
0.246300	-0.599066
0.246400	-0.560441
0.246500	-0.630551
0.246600	-0.760059
0.246700	-1.095677
0.246800	-1.051858
0.246900	-0.959352
0.247000	-0.650675
0.247100	-0.783429
0.247200	-0.913262
0.247300	-1.176498
0.247400	-1.230378
0.247500	-1.180717
0.247600	-1.018426
0.247700	-0.927543
0.247800	-0.934035
0.247900	-1.036603
0.248000	-1.175199
0.248100	-1.216097
0.248200	-1.222264
0.248300	-1.153128
0.248400	-1.206359
0.248500	-1.299514
0.248600	-1.381958
0.248700	-1.339438
0.248800	-1.356316
0.248900	-1.383581
0.249000	-1.396889
0.249100	-1.395591
0.249200	-1.364756
0.249300	-1.373844
0.249400	-1.438760
0.249500	-1.617605
0.249600	-1.646169
0.249700	-1.651686
0.249800	-1.482254
0.249900	-1.503677
0.250000	-1.526398
0.250100	-1.535161
0.250200	-1.511791
0.250300	-1.487772
0.250400	-1.460832
0.250500	-1.444927
0.250600	-1.447524
0.250700	-1.456937
0.250800	-1.395915
0.250900	-1.427075
0.251000	-1.369624
0.251100	-1.415390
0.251200	-1.355343
0.251300	-1.381958
0.251400	-1.381958
0.251500	-1.399810
0.251600	-1.465376
0.251700	-1.529968
0.251800	-1.811706
0.251900	-2.060661
0.252000	-1.947706
0.252100	-1.706865
0.252200	-1.418961
0.252300	-1.569892
0.252400	-1.783467
0.252500	-2.078837
0.252600	-2.110971
0.252700	-1.954198
0.252800	-1.750035
0.252900	-1.680250
0.253000	-1.779897
0.253100	-1.903238
0.253200	-2.013272
0.253300	-1.992174
0.253400	-1.926933
0.253500	-1.870455
0.253600	-1.853901
0.253700	-1.829233
0.253800	-1.895123
0.253900	-1.885386
0.254000	-1.836374
0.254100	-1.837023
0.254200	-1.883439
0.254300	-1.892851
0.254400	-1.766589
0.254500	-1.809109
0.254600	-1.891878
0.254700	-1.952250
0.254800	-1.934398
0.254900	-1.773405
0.255000	-1.604947
0.255100	-1.634808
0.255200	-1.822742
0.255300	-2.135639
0.255400	-2.145377
0.255500	-1.997043
0.255600	-1.806837
0.255700	-1.701023
0.255800	-1.814952
0.255900	-2.049950
0.256000	-2.221329
0.256100	-2.277807
0.256200	-2.113568
0.256300	-1.976594
0.256400	-1.949653
0.256500	-1.987954
0.256600	-2.029176
0.256700	-1.990551
0.256800	-1.993148
0.256900	-1.935047
0.257000	-1.877921
0.257100	-1.759123
0.257200	-1.573137
0.257300	-1.439734
0.257400	-1.405977
0.257500	-1.384880
0.257600	-1.394293
0.257700	-1.340087
0.257800	-1.125538
0.257900	-0.988240
0.258000	-0.850617
0.258100	-0.723057
0.258200	-0.719162
0.258300	-0.630875
0.258400	-0.535773
0.258500	-0.405291
0.258600	-0.265721
0.258700	-0.173540
0.258800	-0.185225
0.258900	-0.152117
0.259000	-0.190418
0.259100	-0.117387
0.259200	-0.214112
0.259300	-0.073244
0.259400	-0.089798
0.259500	-0.007029
0.259600	-0.036891
0.259700	-0.045979
0.259800	-0.034619
0.259900	-0.153740
0.260000	-0.038838
0.260100	0.153639
0.260200	0.556769
0.260300	0.535022
0.260400	0.284770
0.260500	-0.089473
0.260600	-0.108948
0.260700	0.167596
0.260800	0.363643
0.260900	0.514898
0.261000	0.434077
0.261100	0.160130
0.261200	0.149419
0.261300	0.138059
0.261400	0.409734
0.261500	0.422392
0.261600	0.436674
0.261700	0.305867
0.261800	0.274708
0.261900	0.270488
0.262000	0.272760
0.262100	0.275032
0.262200	0.279252
0.262300	0.239977
0.262400	0.217257
0.262500	0.170192
0.262600	0.065677
0.262700	-0.025855
0.262800	-0.123554
0.262900	-0.148871
0.263000	-0.031048
0.263100	-0.092070
0.263200	-0.081358
0.263300	-0.515649
0.263400	-0.670150
0.263500	-0.616269
0.263600	-0.414704
0.263700	-0.238131
0.263800	-0.319277
0.263900	-0.586408
0.264000	-0.889567
0.264100	-0.899305
0.264200	-0.718837
0.264300	-0.533176
0.264400	-0.487735
0.264500	-0.664632
0.264600	-0.842827
0.264700	-0.847047
0.264800	-0.914235
0.264900	-0.866522
0.265000	-0.932087
0.265100	-1.026216
0.265200	-1.084316
0.265300	-1.144040
0.265400	-1.106388
0.265500	-1.143715
0.265600	-1.213500
0.265700	-1.221290
0.265800	-1.189157
0.265900	-1.187858
0.266000	-1.173252
0.266100	-1.333271
0.266200	-1.492966
0.266300	-1.515362
0.266400	-1.509519
0.266500	-1.324507
0.266600	-1.412469
0.266700	-1.423505
0.266800	-1.404679
0.266900	-1.392994
0.267000	-1.342684
0.267100	-1.351772
0.267200	-1.337815
0.267300	-1.315744
0.267400	-1.347553
0.267500	-1.298216
0.267600	-1.303085
0.267700	-1.304383
0.267800	-1.308603
0.267900	-1.304708
0.268000	-1.341386
0.268100	-1.354044
0.268200	-1.414092
0.268300	-1.424803
0.268400	-1.595534
0.268500	-1.893825
0.268600	-2.197959
0.268700	-2.028852
0.268800	-1.740622
0.268900	-1.608842
0.269000	-1.716278
0.269100	-2.177186
0.269200	-2.407640
0.269300	-2.456977
0.269400	-2.247945
0.269500	-2.064556
0.269600	-2.105453
0.269700	-2.302800
0.269800	-2.545913
0.269900	-2.615374
0.270000	-2.565063
0.270100	-2.485540
0.270200	-2.464442
0.270300	-2.570257
0.270400	-2.603364
0.270500	-2.621216
0.270600	-2.631278
0.270700	-2.623164
0.270800	-2.574801
0.270900	-2.705933
0.271000	-2.701388
0.271100	-2.719565
0.271200	-2.714696
0.271300	-2.781885
0.271400	-2.824081
0.271500	-2.797141
0.271600	-2.623813
0.271700	-2.419974
0.271800	-2.511182
0.271900	-2.820511
0.272000	-3.079529
0.272100	-3.133734
0.272200	-2.921781
0.272300	-2.681264
0.272400	-2.677045
0.272500	-2.894840
0.272600	-3.220074
0.272700	-3.354452
0.272800	-3.305764
0.272900	-3.113610
0.273000	-3.009094
0.273100	-3.043500
0.273200	-3.151262
0.273300	-3.209363
0.273400	-3.206117
0.273500	-3.148990
0.273600	-3.081476
0.273700	-3.009419
0.273800	-2.921781
0.273900	-2.741961
0.274000	-2.619593
0.274100	-2.580968
0.274200	-2.554027
0.274300	-2.529684
0.274400	-2.414132
0.274500	-2.175239
0.274600	-2.075592
0.274700	-1.770159
0.274800	-1.776002
0.274900	-1.716278
0.275000	-1.619553
0.275100	-1.518608
0.275200	-1.374818
0.275300	-1.222913
0.275400	-1.111906
0.275500	-1.056078
0.275600	-1.097949
0.275700	-1.027515
0.275800	-1.074254
0.275900	-0.999925
0.276000	-1.006417
0.276100	-0.879505
0.276200	-0.919429
0.276300	-0.868145
0.276400	-0.922675
0.276500	-0.933061
0.276600	-0.907744
0.276700	-0.879830
0.276800	-0.502990
0.276900	-0.185549
0.277000	-0.188795
0.277100	-0.522140
0.277200	-0.935009
0.277300	-0.637042
0.277400	-0.519868
0.277500	-0.085578
0.277600	-0.110895
0.277700	-0.202427
0.277800	-0.379974
0.277900	-0.420222
0.278000	-0.235859
0.278100	-0.092719
0.278200	0.027052
0.278300	0.086450
0.278400	0.007902
0.278500	0.000436
0.278600	-0.036566
0.278700	0.058212
0.278800	0.063080
0.278900	0.064379
0.279000	0.103978
0.279100	0.100083
0.279200	-0.058962
0.279300	-0.089473
0.279400	-0.131669
0.279500	-0.175812
0.279600	-0.165425
0.279700	-0.044356
0.279800	-0.096614
0.279900	-0.080709
0.280000	-0.502341
0.280100	-0.593873
0.280200	-0.518570
0.280300	-0.224499
0.280400	0.133515
0.280500	-0.174513
0.280600	-0.577319
0.280700	-0.761357
0.280800	-0.678264
0.280900	-0.470207
0.281000	0.141305
0.281100	-0.284871
0.281200	-0.585109
0.281300	-0.738637
0.281400	-0.685081
0.281500	-0.717863
0.281600	-0.691572
0.281700	-0.801930
0.281800	-0.911963
0.281900	-0.968765
0.282000	-0.956756
0.282100	-0.950589
0.282200	-1.014207
0.282300	-1.085290
0.282400	-1.062894
0.282500	-0.980450
0.282600	-0.921701
0.282700	-0.904498
0.282800	-1.078799
0.282900	-1.152803
0.283000	-1.156049
0.283100	-1.052507
0.283200	-0.971037
0.283300	-1.029462
0.283400	-1.024593
0.283500	-1.012908
0.283600	-1.035954
0.283700	-1.037901
0.283800	-1.045691
0.283900	-1.067438
0.284000	-1.057701
0.284100	-1.077176
0.284200	-1.079448
0.284300	-1.108336
0.284400	-1.140145
0.284500	-1.147610
0.284600	-1.176822
0.284700	-1.209605
0.284800	-1.274846
0.284900	-1.295619
0.285000	-1.395591
0.285100	-1.629290
0.285200	-2.013272
0.285300	-2.178484
0.285400	-1.952250
0.285500	-1.742245
0.285600	-1.692584
0.285700	-1.975945
0.285800	-2.399201
0.285900	-2.626734
0.286000	-2.569283
0.286100	-2.399850
0.286200	-2.289816
0.286300	-2.421922
0.286400	-2.650753
0.286500	-2.798114
0.286600	-2.884778
0.286700	-2.821809
0.286800	-2.813370
0.286900	-2.797141
0.287000	-2.822458
0.287100	-2.858812
0.287200	-2.839986
0.287300	-2.851346
0.287400	-2.853618
0.287500	-2.874716
0.287600	-2.889647
0.287700	-2.982803
0.287800	-2.958783
0.287900	-2.926974
0.288000	-2.963977
0.288100	-2.986373
0.288200	-2.949371
0.288300	-2.676395
0.288400	-2.538447
0.288500	-2.631927
0.288600	-2.956187
0.288700	-3.100627
0.288800	-3.091214
0.288900	-2.793895
0.289000	-2.556624
0.289100	-2.606610
0.289200	-2.862382
0.289300	-3.138279
0.289400	-3.177229
0.289500	-2.980531
0.289600	-2.816291
0.289700	-2.805904
0.289800	-2.910096
0.289900	-2.971118
0.290000	-2.938659
0.290100	-2.895165
0.290200	-2.855890
0.290300	-2.832520
0.290400	-2.819861
0.290500	-2.679641
0.290600	-2.507937
0.290700	-2.400499
0.290800	-2.372261
0.290900	-2.374208
0.291000	-2.381674
0.291100	-2.234962
0.291200	-2.051248
0.291300	-1.982436
0.291400	-1.681223
0.291500	-1.703620
0.291600	-1.646493
0.291700	-1.531915
0.291800	-1.386503
0.291900	-1.244335
0.292000	-1.103791
0.292100	-1.017777
0.292200	-0.960326
0.292300	-0.980126
0.292400	-0.860679
0.292500	-0.862302
0.292600	-0.764928
0.292700	-0.671448
0.292800	-0.606532
0.292900	-0.515649
0.293000	-0.540966
0.293100	-0.482541
0.293200	-0.448785
0.293300	-0.392957
0.293400	-0.123879
0.293500	0.128970
0.293600	0.574296
0.293700	0.330211
0.293800	0.089047
0.293900	-0.156986
0.294000	0.118259
0.294100	0.493800
0.294200	0.687575
0.294300	0.824873
0.294400	0.598640
0.294500	0.479194
0.294600	0.518468
0.294700	1.295841
0.294800	2.937902
0.294900	3.496834
0.295000	4.201829
0.295100	3.431592
0.295200	3.822391
0.295300	3.852902
0.295400	4.658195
0.295500	5.095087
0.295600	5.334306
0.295700	5.450508
0.295800	5.725433
0.295900	5.411882
0.296000	5.036986
0.296100	5.240176
0.296200	5.048671
0.296300	5.514127
0.296400	6.132465
0.296500	6.706337
0.296600	6.206796
0.296700	3.628290
0.296800	3.392642
0.296900	4.426766
0.297000	6.256457
0.297100	6.521646
0.297200	5.690702
0.297300	3.781493
0.297400	2.919725
0.297500	3.532862
0.297600	5.128519
0.297700	5.795868
0.297800	5.477124
0.297900	4.416055
0.298000	3.987928
0.298100	4.434881
0.298200	4.522194
0.298300	5.091516
0.298400	4.663388
0.298500	4.295309
0.298600	3.898019
0.298700	4.183653
0.298800	4.207672
0.298900	4.070048
0.299000	3.962935
0.299100	4.209295
0.299200	4.355682
0.299300	4.566662
0.299400	4.338479
0.299500	3.351096
0.299600	3.020995
0.299700	2.910637
0.299800	3.890553
0.299900	3.577330
0.300000	3.012231
0.300100	2.763601
0.300200	2.550350
0.300300	2.300098
0.300400	2.038809
0.300500	1.799592
0.300600	1.384127
0.300700	1.226381
0.300800	0.839480
0.300900	0.574621
0.301000	0.164025
0.301100	-0.041110
0.301200	-0.471830
0.301300	-0.816212
0.301400	-0.941176
0.301500	-1.023295
0.301600	-1.120670
0.301700	-1.244335
0.301800	-1.486149
0.301900	-1.939267
0.302000	-1.899018
0.302100	-1.754579
0.302200	-1.573787
0.302300	-1.667266
0.302400	-2.014245
0.302500	-2.371611
0.302600	-2.531307
0.302700	-2.414781
0.302800	-2.283000
0.302900	-2.281053
0.303000	-2.461846
0.303100	-2.709503
0.303200	-2.837714
0.303300	-2.860434
0.303400	-2.832520
0.303500	-2.790000
0.303600	-2.812721
0.303700	-2.861733
0.303800	-2.904902
0.303900	-2.918860
0.304000	-2.954888
0.304100	-2.963652
0.304200	-3.032789
0.304300	-3.072388
0.304400	-3.092188
0.304500	-3.106794
0.304600	-3.133410
0.304700	-3.227864
0.304800	-3.256103
0.304900	-3.167491
0.305000	-2.894191
0.305100	-2.869523
0.305200	-3.077581
0.305300	-3.383664
0.305400	-3.437546
0.305500	-3.329134
0.305600	-3.016235
0.305700	-2.876664
0.305800	-2.982478
0.305900	-3.250260
0.306000	-3.397622
0.306100	-3.353478
0.306200	-3.143147
0.306300	-3.025972
0.306400	-3.015586
0.306500	-3.078555
0.306600	-3.082125
0.306700	-3.035710
0.306800	-2.997409
0.306900	-2.950993
0.307000	-2.889647
0.307100	-2.775069
0.307200	-2.584538
0.307300	-2.410237
0.307400	-2.321950
0.307500	-2.282026
0.307600	-2.248270
0.307700	-2.183353
0.307800	-1.929205
0.307900	-1.758799
0.308000	-1.670188
0.308100	-1.421557
0.308200	-1.378063
0.308300	-1.279715
0.308400	-1.153777
0.308500	-1.012259
0.308600	-0.850617
0.308700	-0.731820
0.308800	-0.672422
0.308900	-0.639639
0.309000	-0.595171
0.309100	-0.482866
0.309200	-0.519868
0.309300	-0.375105
0.309400	-0.349788
0.309500	-0.281625
0.309600	-0.300776
0.309700	-0.293310
0.309800	-0.286819
0.309900	-0.315706
0.310000	-0.227745
0.310100	-0.047927
0.310200	0.299051
0.310300	0.355528
0.310400	0.181228
0.310500	-0.274485
0.310600	-0.335181
0.310700	-0.096614
0.310800	0.185772
0.310900	0.361046
0.311000	0.228617
0.311100	0.027701
0.311200	-0.130370
0.311300	-0.000538
0.311400	0.104627
0.311500	0.256206
0.311600	0.268216
0.311700	0.167920
0.311800	0.109171
0.311900	0.140331
0.312000	0.118584
0.312100	0.114689
0.312200	0.132216
0.312300	0.120207
0.312400	0.156560
0.312500	0.162078
0.312600	0.062431
0.312700	0.047825
0.312800	-0.047602
0.312900	-0.074218
0.313000	0.021534
0.313100	0.290612
0.313200	0.827795
0.313300	-0.133941
0.313400	-0.338103
0.313500	-0.383544
0.313600	-0.160232
0.313700	1.136147
0.313800	1.247154
0.313900	-0.208594
0.314000	-0.557520
0.314100	-0.541291
0.314200	-0.333234
0.314300	0.820005
0.314400	0.803126
0.314500	-0.234236
0.314600	-0.555248
0.314700	-0.539019
0.314800	-0.567257
0.314900	-0.440670
0.315000	-0.879505
0.315100	-0.732470
0.315200	-0.817185
0.315300	-0.890216
0.315400	-0.846398
0.315500	-0.887944
0.315600	-0.953510
0.315700	-0.980775
0.315800	-0.939553
0.315900	-0.911314
0.316000	-0.895085
0.316100	-1.003171
0.316200	-1.128784
0.316300	-1.157997
0.316400	-1.152479
0.316500	-0.990837
0.316600	-1.031085
0.316700	-1.058350
0.316800	-1.040173
0.316900	-1.036927
0.317000	-1.020698
0.317100	-1.044068
0.317200	-1.054779
0.317300	-1.056078
0.317400	-1.089510
0.317500	-1.080097
0.317600	-1.101844
0.317700	-1.089510
0.317800	-1.113204
0.317900	-1.125538
0.318000	-1.130732
0.318100	-1.197920
0.318200	-1.233300
0.318300	-1.291400
0.318400	-1.414092
0.318500	-1.742570
0.318600	-2.013272
0.318700	-1.865262
0.318800	-1.645195
0.318900	-1.424803
0.319000	-1.604297
0.319100	-1.972699
0.319200	-2.320327
0.319300	-2.352786
0.319400	-2.181406
0.319500	-2.042160
0.319600	-2.125253
0.319700	-2.372261
0.319800	-2.559870
0.319900	-2.641990
0.320000	-2.567335
0.320100	-2.468013
0.320200	-2.511507
0.320300	-2.575774
0.320400	-2.659192
0.320500	-2.662114
0.320600	-2.639393
0.320700	-2.595899
0.320800	-2.627708
0.320900	-2.676071
0.321000	-2.733522
0.321100	-2.700090
0.321200	-2.644911
0.321300	-2.680615
0.321400	-2.704310
0.321500	-2.745856
0.321600	-2.584538
0.321700	-2.371287
0.321800	-2.433607
0.321900	-2.625760
0.322000	-2.844530
0.322100	-2.953915
0.322200	-2.697493
0.322300	-2.413483
0.322400	-2.363497
0.322500	-2.575450
0.322600	-2.808501
0.322700	-2.897762
0.322800	-2.796167
0.322900	-2.593302
0.323000	-2.508261
0.323100	-2.549808
0.323200	-2.629006
0.323300	-2.651078
0.323400	-2.587459
0.323500	-2.512156
0.323600	-2.463469
0.323700	-2.381349
0.323800	-2.285272
0.323900	-2.104479
0.324000	-1.970427
0.324100	-1.890579
0.324200	-1.856498
0.324300	-1.834426
0.324400	-1.728288
0.324500	-1.478684
0.324600	-1.393643
0.324700	-1.165787
0.324800	-1.066789
0.324900	-0.993433
0.325000	-0.880479
0.325100	-0.728575
0.325200	-0.569529
0.325300	-0.391334
0.325400	-0.278704
0.325500	-0.216060
0.325600	-0.213463
0.325700	-0.135564
0.325800	-0.158609
0.325900	-0.033645
0.326000	-0.057989
0.326100	0.125400
0.326200	0.097811
0.326300	0.203949
0.326400	0.120531
0.326500	0.126698
0.326600	0.169219
0.326700	0.183500
0.326800	0.542487
0.326900	0.893685
0.327000	1.097522
0.327100	0.597342
0.327200	0.216283
0.327300	0.363968
0.327400	0.508082
0.327500	1.189379
0.327600	1.444500
0.327700	0.394478
0.327800	0.460044
0.327900	0.437323
0.328000	0.540864
0.328100	1.319536
0.328200	1.994017
0.328300	2.329635
0.328400	1.767134
0.328500	1.808031
0.328600	1.821988
0.328700	2.228689
0.328800	2.389682
0.328900	2.638637
0.329000	2.449081
0.329100	2.727572
0.329200	2.628575
0.329300	2.238427
0.329400	2.334503
0.329500	1.688585
0.329600	2.417272
0.329700	2.617214
0.329800	3.252747
0.329900	2.852212
0.330000	1.695401
0.330100	0.595394
0.330200	1.388672
0.330300	2.872336
0.330400	4.634500
0.330500	4.033370
0.330600	2.675639
0.330700	1.155297
0.330800	2.102752
0.330900	3.426074
0.331000	4.567311
0.331100	4.353735
0.331200	3.473139
0.331300	2.654217
0.331400	2.906093
0.331500	2.758083
0.331600	3.273520
0.331700	2.694790
0.331800	2.131639
0.331900	1.506819
0.332000	1.546094
0.332100	1.640222
0.332200	1.260786
0.332300	0.682057
0.332400	0.715814
0.332500	0.900825
0.332600	1.082916
0.332700	0.978725
0.332800	-0.340699
0.332900	-0.854188
0.333000	-0.907095
0.333100	-0.887620
0.333200	-0.520518
0.333300	-0.886971
0.333400	-0.914885
0.333500	-0.924947
0.333600	-0.967791
0.333700	-0.969090
0.333800	-1.044068
0.333900	-1.046016
0.334000	-1.076202
0.334100	-1.061596
0.334200	-1.073605
0.334300	-1.121968
0.334400	-1.135925
0.334500	-1.166760
0.334600	-1.191429
0.334700	-1.245958
0.334800	-1.315419
0.334900	-1.359562
0.335000	-1.459858
0.335100	-1.625395
0.335200	-2.043458
0.335300	-2.200881
0.335400	-2.094417
0.335500	-1.768536
0.335600	-1.730560
0.335700	-1.965233
0.335800	-2.394657
0.335900	-2.616023
0.336000	-2.541369
0.336100	-2.338829
0.336200	-2.176862
0.336300	-2.331363
0.336400	-2.564089
0.336500	-2.745532
0.336600	-2.768253
0.336700	-2.659192
0.336800	-2.601417
0.336900	-2.597846
0.337000	-2.674773
0.337100	-2.739040
0.337200	-2.745532
0.337300	-2.747479
0.337400	-2.775718
0.337500	-2.822134
0.337600	-2.847127
0.337700	-2.890621
0.337800	-2.886401
0.337900	-2.874392
0.338000	-2.924378
0.338100	-2.956836
0.338200	-2.974688
0.338300	-2.751699
0.338400	-2.672176
0.338500	-2.767928
0.338600	-3.021428
0.338700	-3.207740
0.338800	-3.183396
0.338900	-2.886401
0.339000	-2.660815
0.339100	-2.675746
0.339200	-2.897112
0.339300	-3.140875
0.339400	-3.192484
0.339500	-3.030517
0.339600	-2.833819
0.339700	-2.739365
0.339800	-2.762410
0.339900	-2.796491
0.340000	-2.777666
0.340100	-2.703660
0.340200	-2.601417
0.340300	-2.518648
0.340400	-2.425817
0.340500	-2.236585
0.340600	-2.012298
0.340700	-1.871754
0.340800	-1.836699
0.340900	-1.794503
0.341000	-1.770159
0.341100	-1.580603
0.341200	-1.303085
0.341300	-1.232651
0.341400	-0.927543
0.341500	-0.938255
0.341600	-0.834388
0.341700	-0.716565
0.341800	-0.550054
0.341900	-0.417625
0.342000	-0.258905
0.342100	-0.174838
0.342200	-0.153740
0.342300	-0.189444
0.342400	-0.137186
0.342500	-0.143354
0.342600	-0.080060
0.342700	-0.070647
0.342800	-0.028127
0.342900	-0.060910
0.343000	-0.051822
0.343100	-0.126151
0.343200	-0.088175
0.343300	-0.114141
0.343400	-0.007354
0.343500	0.307166
0.343600	0.567480
0.343700	0.476273
0.343800	-0.041759
0.343900	-0.239105
0.344000	-0.091420
0.344100	0.219204
0.344200	0.540540
0.344300	0.428884
0.344400	0.248741
0.344500	-0.048900
0.344600	0.028999
0.344700	0.157534
0.344800	0.363318
0.344900	0.417848
0.345000	0.373705
0.345100	0.321123
0.345200	0.260426
0.345300	0.247118
0.345400	0.295156
0.345500	0.325667
0.345600	0.494774
0.345700	0.596693
0.345800	0.709971
0.345900	0.554822
0.346000	0.265619
0.346100	0.528855
0.346200	0.284445
0.346300	0.675566
0.346400	1.112128
0.346500	1.070257
0.346600	1.085512
0.346700	-0.311487
0.346800	-0.339076
0.346900	-0.282599
0.347000	0.680759
0.347100	1.375039
0.347200	0.517495
0.347300	-0.576670
0.347400	-0.752269
0.347500	-0.775964
0.347600	-0.585434
0.347700	-0.471506
0.347800	-0.613348
0.347900	-0.834064
0.348000	-1.001873
0.348100	-0.999925
0.348200	-1.027839
0.348300	-0.994083
0.348400	-1.103467
0.348500	-1.200192
0.348600	-1.281987
0.348700	-1.257968
0.348800	-1.277443
0.348900	-1.312822
0.349000	-1.358913
0.349100	-1.316068
0.349200	-1.296593
0.349300	-1.321586
0.349400	-1.374168
0.349500	-1.559180
0.349600	-1.635133
0.349700	-1.665319
0.349800	-1.535486
0.349900	-1.543600
0.350000	-1.642598
0.350100	-1.659476
0.350200	-1.659476
0.350300	-1.677653
0.350400	-1.658178
0.350500	-1.662073
0.350600	-1.665643
0.350700	-1.669214
0.350800	-1.680574
0.350900	-1.675056
0.351000	-1.673109
0.351100	-1.682197
0.351200	-1.636106
0.351300	-1.692908
0.351400	-1.657854
0.351500	-1.739973
0.351600	-1.732183
0.351700	-1.780221
0.351800	-2.031773
0.351900	-2.307344
0.352000	-2.404719
0.352100	-2.102532
0.352200	-1.833128
0.352300	-1.768861
0.352400	-2.086303
0.352500	-2.462819
0.352600	-2.569932
0.352700	-2.404719
0.352800	-2.152842
0.352900	-2.027878
0.353000	-2.164852
0.353100	-2.363172
0.353200	-2.480672
0.353300	-2.458275
0.353400	-2.377129
0.353500	-2.267420
0.353600	-2.309941
0.353700	-2.332986
0.353800	-2.369989
0.353900	-2.376156
0.354000	-2.362848
0.354100	-2.347268
0.354200	-2.369664
0.354300	-2.386867
0.354400	-2.422896
0.354500	-2.364471
0.354600	-2.360576
0.354700	-2.374208
0.354800	-2.443669
0.354900	-2.308318
0.355000	-2.123630
0.355100	-2.058064
0.355200	-2.177511
0.355300	-2.462170
0.355400	-2.667632
0.355500	-2.595574
0.355600	-2.339478
0.355700	-2.198609
0.355800	-2.285272
0.355900	-2.524815
0.356000	-2.824081
0.356100	-2.888998
0.356200	-2.735794
0.356300	-2.617321
0.356400	-2.574801
0.356500	-2.612452
0.356600	-2.657245
0.356700	-2.674773
0.356800	-2.682563
0.356900	-2.655622
0.357000	-2.605636
0.357100	-2.503717
0.357200	-2.349540
0.357300	-2.221654
0.357400	-2.141482
0.357500	-2.142780
0.357600	-2.132718
0.357700	-2.115840
0.357800	-1.913300
0.357900	-1.747114
0.358000	-1.701997
0.358100	-1.404030
0.358200	-1.390398
0.358300	-1.291725
0.358400	-1.158646
0.358500	-1.019400
0.358600	-0.817510
0.358700	-0.660412
0.358800	-0.590627
0.358900	-0.494226
0.359000	-0.473129
0.359100	-0.383219
0.359200	-0.381272
0.359300	-0.346866
0.359400	-0.192041
0.359500	-0.181654
0.359600	-0.108299
0.359700	-0.158284
0.359800	-0.198208
0.359900	-0.184575
0.360000	-0.224824
0.360100	0.030622
0.360200	0.334755
0.360300	0.596368
0.360400	0.372731
0.360500	-0.073244
0.360600	-0.028127
0.360700	0.165324
0.360800	0.506459
0.360900	0.724578
0.361000	0.659337
0.361100	0.507108
0.361200	0.318526
0.361300	0.494449
0.361400	0.738210
0.361500	2.354952
0.361600	2.576966
0.361700	3.006389
0.361800	3.001195
0.361900	3.193024
0.362000	3.705216
0.362100	3.997017
0.362200	4.443320
0.362300	4.708506
0.362400	5.454403
0.362500	5.517373
0.362600	5.290163
0.362700	5.350860
0.362800	5.301848
0.362900	5.680964
0.363000	6.366493
0.363100	7.345779
0.363200	7.081562
0.363300	6.630059
0.363400	4.958436
0.363500	5.444016
0.363600	6.404145
0.363700	8.576632
0.363800	8.535409
0.363900	7.829419
0.364000	6.124675
0.364100	6.198032
0.364200	7.094221
0.364300	8.587344
0.364400	9.160254
0.364500	8.723673
0.364600	8.016060
0.364700	8.083250
0.364800	8.179330
0.364900	8.506520
0.365000	8.390315
0.365100	8.079355
0.365200	7.856685
0.365300	7.668422
0.365400	7.851492
0.365500	7.481133
0.365600	7.103310
0.365700	6.927707
0.365800	7.012100
0.365900	7.045533
0.366000	7.037093
0.366100	6.342473
0.366200	5.029520
0.366300	4.401124
0.366400	4.178784
0.366500	4.663388
0.366600	4.205724
0.366700	3.519230
0.366800	3.090456
0.366900	2.629224
0.367000	2.372804
0.367100	1.934618
0.367200	1.578552
0.367300	1.073178
0.367400	0.655442
0.367500	0.154288
0.367600	-0.171917
0.367700	-0.650026
0.367800	-0.874636
0.367900	-0.966169
0.368000	-1.009987
0.368100	-1.115476
0.368200	-1.206684
0.368300	-1.296269
0.368400	-1.444603
0.368500	-1.777300
0.368600	-2.157062
0.368700	-2.089549
0.368800	-1.829882
0.368900	-1.621176
0.369000	-1.766264
0.369100	-2.165501
0.369200	-2.505340
0.369300	-2.605636
0.369400	-2.418027
0.369500	-2.241454
0.369600	-2.234637
0.369700	-2.462170
0.369800	-2.737093
0.369900	-2.805904
0.370000	-2.811098
0.370100	-2.735794
0.370200	-2.768902
0.370300	-2.839661
0.370400	-2.899385
0.370500	-2.911394
0.370600	-2.906525
0.370700	-2.892568
0.370800	-2.982803
0.370900	-3.047070
0.371000	-3.121076
0.371100	-2.990593
0.371200	-2.972741
0.371300	-2.964626
0.371400	-3.032464
0.371500	-3.021753
0.371600	-2.871470
0.371700	-2.638744
0.371800	-2.622515
0.371900	-2.770525
0.372000	-3.001629
0.372100	-3.100627
0.372200	-2.841933
0.372300	-2.583889
0.372400	-2.450485
0.372500	-2.586486
0.372600	-2.839986
0.372700	-2.959757
0.372800	-2.877637
0.372900	-2.679317
0.373000	-2.586161
0.373100	-2.570257
0.373200	-2.623813
0.373300	-2.663412
0.373400	-2.640367
0.373500	-2.609531
0.373600	-2.591679
0.373700	-2.517674
0.373800	-2.474180
0.373900	-2.335907
0.374000	-2.179783
0.374100	-2.093119
0.374200	-2.075592
0.374300	-2.059038
0.374400	-2.004508
0.374500	-1.767887
0.374600	-1.615982
0.374700	-1.278417
0.374800	-1.262188
0.374900	-1.214799
0.375000	-1.140469
0.375100	-1.031734
0.375200	-0.900928
0.375300	-0.743181
0.375400	-0.668202
0.375500	-0.667553
0.375600	-0.674694
0.375700	-0.647104
0.375800	-0.671773
0.375900	-0.648078
0.376000	-0.655219
0.376100	-0.565959
0.376200	-0.563362
0.376300	-0.561739
0.376400	-0.513701
0.376500	-0.663983
0.376600	-0.558494
0.376700	-0.568880
0.376800	-0.219306
0.376900	0.028675
0.377000	0.133839
0.377100	-0.146275
0.377200	-0.606207
0.377300	-0.400098
0.377400	-0.275783
0.377500	0.205572
0.377600	0.247118
0.377700	0.100732
0.377800	-0.015468
0.377900	-0.188795
0.378000	0.064379
0.378100	0.160779
0.378200	0.348712
0.378300	0.243548
0.378400	0.145524
0.378500	0.085801
0.378600	0.026078
0.378700	0.032570
0.378800	-0.016118
0.378900	-0.039812
0.379000	-0.103105
0.379100	-0.104404
0.379200	-0.190418
0.379300	-0.311811
0.379400	-0.413406
0.379500	-0.512403
0.379600	-0.641262
0.379700	-0.518245
0.379800	-0.554274
0.379900	-0.457549
0.380000	-0.873338
0.380100	-1.036603
0.380200	-0.990188
0.380300	-0.826598
0.380400	-0.554599
0.380500	-0.703257
0.380600	-0.957405
0.380700	-1.195324
0.380800	-1.213500
0.380900	-1.031734
0.381000	-0.811668
0.381100	-0.779858
0.381200	-0.910016
0.381300	-1.056727
0.381400	-1.024269
0.381500	-0.996030
0.381600	-0.866522
0.381700	-0.889567
0.381800	-0.925920
0.381900	-0.968765
0.382000	-0.939553
0.382100	-0.857109
0.382200	-0.845099
0.382300	-0.875286
0.382400	-0.812317
0.382500	-0.773042
0.382600	-0.554923
0.382700	-0.197883
0.382800	-0.653921
0.382900	-0.898006
0.383000	-0.889892
0.383100	-0.857434
0.383200	-0.300127
0.383300	-0.443592
0.383400	-0.436451
0.383500	-0.303697
0.383600	-0.200805
0.383700	0.023481
0.383800	0.074441
0.383900	0.259452
0.384000	0.290612
0.384100	0.321447
0.384200	0.446736
0.384300	0.386039
0.384400	0.343194
0.384500	0.251013
0.384600	0.273085
0.384700	0.423691
0.384800	0.096188
0.384900	-0.159258
0.385000	-0.421196
0.385100	-0.957729
0.385200	-1.249204
0.385300	-1.493939
0.385400	-1.271600
0.385500	-1.017453
0.385600	-0.857109
0.385700	-1.142092
0.385800	-1.565023
0.385900	-1.858446
0.386000	-1.887983
0.386100	-1.689013
0.386200	-1.571515
0.386300	-1.672460
0.386400	-1.959715
0.386500	-2.203477
0.386600	-2.300203
0.386700	-2.248594
0.386800	-2.242103
0.386900	-2.304098
0.387000	-2.353759
0.387100	-2.469311
0.387200	-2.501769
0.387300	-2.539097
0.387400	-2.555326
0.387500	-2.649130
0.387600	-2.740338
0.387700	-2.730601
0.387800	-2.729627
0.387900	-2.697493
0.388000	-2.841609
0.388100	-2.835766
0.388200	-2.870172
0.388300	-2.688730
0.388400	-2.521894
0.388500	-2.630629
0.388600	-2.819861
0.388700	-3.047070
0.388800	-3.059080
0.388900	-2.795518
0.389000	-2.522867
0.389100	-2.469311
0.389200	-2.629980
0.389300	-2.883155
0.389400	-2.941580
0.389500	-2.790649
0.389600	-2.550782
0.389700	-2.445941
0.389800	-2.462819
0.389900	-2.488137
0.390000	-2.499173
0.390100	-2.414456
0.390200	-2.330065
0.390300	-2.194389
0.390400	-2.104479
0.390500	-2.031773
0.390600	-1.894474
0.390700	-1.738675
0.390800	-1.643247
0.390900	-1.627018
0.391000	-1.578006
0.391100	-1.445252
0.391200	-1.186235
0.391300	-0.959677
0.391400	-0.755839
0.391500	-0.769147
0.391600	-0.711047
0.391700	-0.602312
0.391800	-0.463391
0.391900	-0.308890
0.392000	-0.148871
0.392100	-0.082981
0.392200	-0.016118
0.392300	-0.065779
0.392400	0.021209
0.392500	0.011147
0.392600	0.054966
0.392700	0.126374
0.392800	0.156884
0.392900	0.254908
0.393000	0.134813
0.393100	0.267891
0.393200	0.129944
0.393300	0.267891
0.393400	0.292560
0.393500	0.593447
0.393600	1.411392
0.393700	0.796959
0.393800	0.583385
0.393900	0.130593
0.394000	0.474001
0.394100	0.644081
0.394200	1.866781
0.394300	2.390981
0.394400	1.134849
0.394500	0.643432
0.394600	0.581113
0.394700	1.721043
0.394800	3.011258
0.394900	3.707488
0.395000	3.966181
0.395100	3.209578
0.395200	3.755527
0.395300	3.778572
0.395400	4.251166
0.395500	4.126201
0.395600	4.335558
0.395700	4.517325
0.395800	4.696496
0.395900	4.642939
0.396000	3.879842
0.396100	3.924310
0.396200	3.315067
0.396300	3.501053
0.396400	3.982086
0.396500	4.330365
0.396600	3.927231
0.396700	1.767459
0.396800	1.039746
0.396900	1.382829
0.397000	3.006713
0.397100	3.748061
0.397200	2.999897
0.397300	0.888816
0.397400	-0.320900
0.397500	-0.256633
0.397600	0.961198
0.397700	2.050494
0.397800	1.618800
0.397900	0.581437
0.398000	-0.346542
0.398100	-0.116413
0.398200	0.037763
0.398300	0.814811
0.398400	0.342221
0.398500	0.041983
0.398600	-0.288117
0.398700	-0.085578
0.398800	0.052045
0.398900	-0.216384
0.399000	-0.538694
0.399100	-0.469558
0.399200	-0.341998
0.399300	-0.290389
0.399400	-0.398150
0.399500	-0.904823
0.399600	-1.009987
0.399700	-1.029462
0.399800	-1.045042
0.399900	-0.921376
0.400000	-1.025243
0.400100	-1.029787
0.400200	-1.031410
0.400300	-1.039200
0.400400	-1.051209
0.400500	-1.104765
0.400600	-1.143390
0.400700	-1.171304
0.400800	-1.198245
0.400900	-1.224536
0.401000	-1.270627
0.401100	-1.291725
0.401200	-1.328078
0.401300	-1.329701
0.401400	-1.388775
0.401500	-1.422531
0.401600	-1.479982
0.401700	-1.508221
0.401800	-1.672784
0.401900	-1.991200
0.402000	-2.090198
0.402100	-1.785090
0.402200	-1.462779
0.402300	-1.342359
0.402400	-1.559830
0.402500	-1.883763
0.402600	-2.032422
0.402700	-1.846436
0.402800	-1.577357
0.402900	-1.420584
0.403000	-1.544250
0.403100	-1.708164
0.403200	-1.834102
0.403300	-1.767238
0.403400	-1.709462
0.403500	-1.616307
0.403600	-1.654608
0.403700	-1.704918
0.403800	-1.718875
0.403900	-1.711085
0.404000	-1.675706
0.404100	-1.665319
0.404200	-1.705892
0.404300	-1.725691
0.404400	-1.635457
0.404500	-1.612737
0.404600	-1.560479
0.404700	-1.611114
0.404800	-1.627018
0.404900	-1.535810
0.405000	-1.307954
0.405100	-1.125863
0.405200	-1.264460
0.405300	-1.458884
0.405400	-1.649414
0.405500	-1.535486
0.405600	-1.248880
0.405700	-1.013882
0.405800	-1.000899
0.405900	-1.219992
0.406000	-1.507896
0.406100	-1.517958
0.406200	-1.320937
0.406300	-1.109309
0.406400	-1.018102
0.406500	-1.071982
0.406600	-1.107362
0.406700	-1.134302
0.406800	-1.085615
0.406900	-1.031085
0.407000	-0.982073
0.407100	-0.931763
0.407200	-0.896708
0.407300	-0.799333
0.407400	-0.718188
0.407500	-0.724680
0.407600	-0.742207
0.407700	-0.780183
0.407800	-0.642560
0.407900	-0.493902
0.408000	-0.298179
0.408100	-0.279029
0.408200	-0.358876
0.408300	-0.359200
0.408400	-0.339076
0.408500	-0.284871
0.408600	-0.229692
0.408700	-0.172566
0.408800	-0.154389
0.408900	-0.208919
0.409000	-0.246571
0.409100	-0.325119
0.409200	-0.347515
0.409300	-0.448136
0.409400	-0.421196
0.409500	-0.500069
0.409600	-0.524737
0.409700	-0.637367
0.409800	-0.767200
0.409900	-0.870417
0.410000	-0.940202
0.410100	-0.826274
0.410200	-0.534475
0.410300	-0.485463
0.410400	-0.579916
0.410500	-1.242388
0.410600	-1.302111
0.410700	-1.298865
0.410800	-0.841204
0.410900	-0.795438
0.411000	-0.861978
0.411100	-1.105090
0.411200	-1.306331
0.411300	-1.282961
0.411400	-1.115152
0.411500	-0.908393
0.411600	-0.860030
0.411700	-0.957080
0.411800	-1.026865
0.411900	-1.022321
0.412000	-0.995706
0.412100	-0.918780
0.412200	-0.877233
0.412300	-0.847047
0.412400	-0.813940
0.412500	-0.774990
0.412600	-0.750971
0.412700	-0.871066
0.412800	-0.799983
0.412900	-0.839257
0.413000	-0.716565
0.413100	-0.663983
0.413200	-0.565634
0.413300	-0.725978
0.413400	-1.010961
0.413500	-1.072307
0.413600	-0.986942
0.413700	-0.668851
0.413800	-0.675019
0.413900	-0.854512
0.414000	-1.223887
0.414100	-1.347877
0.414200	-1.263161
0.414300	-1.038226
0.414400	-0.911639
0.414500	-1.065166
0.414600	-1.218693
0.414700	-1.290751
0.414800	-1.282312
0.414900	-1.229405
0.415000	-1.163515
0.415100	-1.168059
0.415200	-1.207658
0.415300	-1.206359
0.415400	-1.134302
0.415500	-1.108985
0.415600	-1.103791
0.415700	-1.084641
0.415800	-1.000250
0.415900	-0.936307
0.416000	-0.905472
0.416100	-0.956756
0.416200	-1.090808
0.416300	-1.106388
0.416400	-1.061271
0.416500	-0.963247
0.416600	-0.888269
0.416700	-0.917481
0.416800	-0.895734
0.416900	-0.852565
0.417000	-0.979801
0.417100	-0.578293
0.417200	-0.538370
0.417300	-0.361797
0.417400	-0.276107
0.417500	-0.130370
0.417600	-0.039487
0.417700	-0.029750
0.417800	0.031271
0.417900	0.210116
0.418000	-0.089798
0.418100	0.128970
0.418200	-0.462417
0.418300	-0.574074
0.418400	-0.919753
0.418500	-1.209930
0.418600	-1.519257
0.418700	-1.499133
0.418800	-1.141443
0.418900	-0.964221
0.419000	-1.023620
0.419100	-1.396565
0.419200	-1.737701
0.419300	-1.813004
0.419400	-1.625395
0.419500	-1.417987
0.419600	-1.383906
0.419700	-1.541653
0.419800	-1.815276
0.419900	-1.926283
0.420000	-1.876622
0.420100	-1.776651
0.420200	-1.747763
0.420300	-1.758474
0.420400	-1.772431
0.420500	-1.762045
0.420600	-1.740947
0.420700	-1.717252
0.420800	-1.740622
0.420900	-1.815925
0.421000	-1.825663
0.421100	-1.780546
0.421200	-1.779247
0.421300	-1.841567
0.421400	-1.926933
0.421500	-2.011973
0.421600	-1.888632
0.421700	-1.714006
0.421800	-1.700698
0.421900	-1.910054
0.422000	-2.226847
0.422100	-2.397903
0.422200	-2.240804
0.422300	-1.959715
0.422400	-1.810407
0.422500	-1.951925
0.422600	-2.219057
0.422700	-2.430036
0.422800	-2.404394
0.422900	-2.229444
0.423000	-2.072995
0.423100	-2.026580
0.423200	-2.045730
0.423300	-2.063257
0.423400	-2.071047
0.423500	-2.036642
0.423600	-1.951276
0.423700	-1.882789
0.423800	-1.803916
0.423900	-1.719849
0.424000	-1.544250
0.424100	-1.464078
0.424200	-1.453691
0.424300	-1.438760
0.424400	-1.395591
0.424500	-1.174875
0.424600	-1.016803
0.424700	-0.748699
0.424800	-0.725329
0.424900	-0.701634
0.425000	-0.647104
0.425100	-0.523763
0.425200	-0.414704
0.425300	-0.248518
0.425400	-0.135888
0.425500	-0.127774
0.425600	-0.109597
0.425700	-0.110571
0.425800	-0.035268
0.425900	-0.069998
0.426000	-0.011573
0.426100	0.098135
0.426200	0.077362
0.426300	0.204923
0.426400	0.063730
0.426500	0.148445
0.426600	0.011147
0.426700	0.212063
0.426800	0.318202
0.426900	0.836558
0.427000	0.795661
0.427100	0.513275
0.427200	0.163052
0.427300	0.062107
0.427400	0.449982
0.427500	0.665828
0.427600	1.557130
0.427700	0.804749
0.427800	0.474650
0.427900	0.399347
0.428000	0.409409
0.428100	1.141990
0.428200	1.757396
0.428300	2.404938
0.428400	1.750580
0.428500	1.804785
0.428600	2.003105
0.428700	2.374751
0.428800	2.691544
0.428900	2.639935
0.429000	2.630847
0.429100	2.709396
0.429200	3.042417
0.429300	2.029072
0.429400	2.030694
0.429500	1.456185
0.429600	1.487994
0.429700	1.926828
0.429800	2.395200
0.429900	2.529577
0.430000	0.923222
0.430100	-0.227420
0.430200	-0.189444
0.430300	0.304569
0.430400	2.461415
0.430500	1.909950
0.430600	0.756387
0.430700	-0.430608
0.430800	-0.435153
0.430900	0.052045
0.431000	1.852824
0.431100	2.475372
0.431200	1.943057
0.431300	0.998200
0.431400	1.280586
0.431500	1.452614
0.431600	2.296527
0.431700	2.229663
0.431800	2.027449
0.431900	1.694103
0.432000	1.683392
0.432100	2.141052
0.432200	2.049845
0.432300	1.894045
0.432400	1.945654
0.432500	2.140079
0.432600	2.309510
0.432700	2.390331
0.432800	1.851201
0.432900	0.943995
0.433000	0.795661
0.433100	0.796310
0.433200	1.802189
0.433300	1.691831
0.433400	1.648012
0.433500	1.772976
0.433600	1.942084
0.433700	2.079057
0.433800	2.233883
0.433900	2.439019
0.434000	2.765873
0.434100	2.694790
0.434200	2.821052
0.434300	2.727248
0.434400	2.811639
0.434500	2.483162
0.434600	2.429930
0.434700	2.345539
0.434800	1.944680
0.434900	1.479555
0.435000	1.012482
0.435100	0.017639
0.435200	-1.104765
0.435300	-1.370923
0.435400	-1.286856
0.435500	-0.992784
0.435600	-0.760708
0.435700	-1.003820
0.435800	-1.388450
0.435900	-1.741271
0.436000	-1.769835
0.436100	-1.594560
0.436200	-1.404355
0.436300	-1.467324
0.436400	-1.725691
0.436500	-1.979840
0.436600	-2.081434
0.436700	-2.052871
0.436800	-2.029825
0.436900	-2.087601
0.437000	-2.179783
0.437100	-2.248270
0.437200	-2.304423
0.437300	-2.294361
0.437400	-2.310265
0.437500	-2.384595
0.437600	-2.453731
0.437700	-2.510209
0.437800	-2.431335
0.437900	-2.411211
0.438000	-2.460223
0.438100	-2.523517
0.438200	-2.524166
0.438300	-2.291439
0.438400	-2.107401
0.438500	-2.190819
0.438600	-2.357979
0.438700	-2.623164
0.438800	-2.688730
0.438900	-2.450810
0.439000	-2.207048
0.439100	-2.114217
0.439200	-2.302151
0.439300	-2.581942
0.439400	-2.728653
0.439500	-2.636147
0.439600	-2.484242
0.439700	-2.381674
0.439800	-2.412834
0.439900	-2.508586
0.440000	-2.585837
0.440100	-2.574801
0.440200	-2.586810
0.440300	-2.529684
0.440400	-2.502419
0.440500	-2.364471
0.440600	-2.235286
0.440700	-2.152518
0.440800	-2.116814
0.440900	-2.143429
0.441000	-2.196012
0.441100	-2.114866
0.441200	-1.921739
0.441300	-1.842216
0.441400	-1.709787
0.441500	-1.598779
0.441600	-1.530942
0.441700	-1.460832
0.441800	-1.325806
0.441900	-1.186235
0.442000	-1.030436
0.442100	-0.904498
0.442200	-0.826274
0.442300	-0.824975
0.442400	-0.746102
0.442500	-0.729873
0.442600	-0.698713
0.442700	-0.554599
0.442800	-0.552976
0.442900	-0.394904
0.443000	-0.507210
0.443100	-0.367315
0.443200	-0.486112
0.443300	-0.341998
0.443400	-0.320251
0.443500	0.010498
0.443600	0.321772
0.443700	0.287366
0.443800	-0.017416
0.443900	-0.406265
0.444000	-0.300127
0.444100	-0.016118
0.444200	0.242249
0.444300	0.303595
0.444400	0.091968
0.444500	-0.120957
0.444600	-0.232614
0.444700	-0.043058
0.444800	0.157858
0.444900	0.305218
0.445000	0.279576
0.445100	0.199405
0.445200	0.166947
0.445300	0.240627
0.445400	0.288015
0.445500	0.481141
0.445600	0.821952
0.445700	1.191001
0.445800	1.550313
0.445900	1.853797
0.446000	1.439306
0.446100	1.717148
0.446200	1.640547
0.446300	2.121577
0.446400	2.683754
0.446500	3.098570
0.446600	3.490342
0.446700	1.855745
0.446800	0.863499
0.446900	1.691831
0.447000	2.984966
0.447100	4.905529
0.447200	4.151843
0.447300	2.849615
0.447400	1.579526
0.447500	1.906380
0.447600	3.125835
0.447700	4.536151
0.447800	4.752974
0.447900	3.988902
0.448000	3.155048
0.448100	3.237492
0.448200	3.253072
0.448300	3.732157
0.448400	3.395888
0.448500	2.994379
0.448600	2.508479
0.448700	2.396174
0.448800	2.244269
0.448900	2.023554
0.449000	1.348424
0.449100	1.193923
0.449200	1.127708
0.449300	0.993331
0.449400	0.626554
0.449500	-0.783753
0.449600	-1.012584
0.449700	-1.105414
0.449800	-1.193051
0.449900	-1.108660
0.450000	-1.260565
0.450100	-1.352097
0.450200	-1.434541
0.450300	-1.491992
0.450400	-1.530942
0.450500	-1.605920
0.450600	-1.646818
0.450700	-1.684469
0.450800	-1.692584
0.450900	-1.709138
0.451000	-1.737376
0.451100	-1.728288
0.451200	-1.741920
0.451300	-1.736078
0.451400	-1.765290
0.451500	-1.787687
0.451600	-1.764966
0.451700	-1.842216
0.451800	-1.952250
0.451900	-2.312862
0.452000	-2.475803
0.452100	-2.243076
0.452200	-1.922713
0.452300	-1.760422
0.452400	-1.943811
0.452500	-2.325845
0.452600	-2.577722
0.452700	-2.487488
0.452800	-2.248270
0.452900	-2.129797
0.453000	-2.184652
0.453100	-2.415430
0.453200	-2.530333
0.453300	-2.527087
0.453400	-2.390437
0.453500	-2.371936
0.453600	-2.325521
0.453700	-2.331688
0.453800	-2.318055
0.453900	-2.265148
0.454000	-2.241129
0.454100	-2.209969
0.454200	-2.252489
0.454300	-2.227496
0.454400	-2.211592
0.454500	-2.143429
0.454600	-2.129472
0.454700	-2.193091
0.454800	-2.240480
0.454900	-2.142456
0.455000	-1.928880
0.455100	-1.798398
0.455200	-1.909081
0.455300	-2.129797
0.455400	-2.373884
0.455500	-2.351163
0.455600	-2.135315
0.455700	-1.933749
0.455800	-1.918169
0.455900	-2.129148
0.456000	-2.411211
0.456100	-2.466065
0.456200	-2.327468
0.456300	-2.165177
0.456400	-2.117463
0.456500	-2.136938
0.456600	-2.198609
0.456700	-2.213539
0.456800	-2.179458
0.456900	-2.132069
0.457000	-2.063257
0.457100	-1.999964
0.457200	-1.857796
0.457300	-1.694531
0.457400	-1.587095
0.457500	-1.562751
0.457600	-1.552040
0.457700	-1.541004
0.457800	-1.401433
0.457900	-1.190779
0.458000	-1.147935
0.458100	-0.901901
0.458200	-0.894111
0.458300	-0.834064
0.458400	-0.739286
0.458500	-0.643859
0.458600	-0.547133
0.458700	-0.426064
0.458800	-0.386465
0.458900	-0.353358
0.459000	-0.374456
0.459100	-0.341024
0.459200	-0.329663
0.459300	-0.364069
0.459400	-0.202752
0.459500	-0.269291
0.459600	-0.133941
0.459700	-0.227745
0.459800	-0.122905
0.459900	-0.214437
0.460000	-0.092719
0.460100	-0.000538
0.460200	0.310736
0.460300	0.618439
0.460400	0.420445
0.460500	0.058212
0.460600	-0.092070
0.460700	0.069572
0.460800	0.458096
0.460900	0.634019
0.461000	0.671671
0.461100	0.448034
0.461200	0.312359
0.461300	0.330211
0.461400	0.543137
0.461500	1.339660
0.461600	1.764213
0.461700	1.897616
0.461800	1.680795
0.461900	1.614581
0.462000	1.964480
0.462100	2.117682
0.462200	2.036537
0.462300	1.959286
0.462400	2.236155
0.462500	2.079382
0.462600	1.628213
0.462700	0.756387
0.462800	0.794687
0.462900	0.328264
0.463000	0.488607
0.463100	1.055002
0.463200	1.138419
0.463300	0.527881
0.463400	-0.319926
0.463500	-0.430608
0.463600	-0.369912
0.463700	0.287366
0.463800	0.766449
0.463900	-0.049225
0.464000	-0.554274
0.464100	-0.676966
0.464200	-0.602637
0.464300	-0.284222
0.464400	0.804100
0.464500	0.350335
0.464600	-0.414055
0.464700	-0.517272
0.464800	-0.305969
0.464900	-0.017740
0.465000	0.310412
0.465100	0.027052
0.465200	-0.124528
0.465300	-0.221253
0.465400	0.069247
0.465500	0.004331
0.465600	-0.276757
0.465700	-0.395554
0.465800	-0.153740
0.465900	0.035491
0.466000	0.029648
0.466100	-0.331611
0.466200	-0.907419
0.466300	-0.970064
0.466400	-1.002197
0.466500	-0.951887
0.466600	-0.907744
0.466700	-1.023620
0.466800	-1.054779
0.466900	-1.083667
0.467000	-1.092431
0.467100	-1.141118
0.467200	-1.159620
0.467300	-1.184288
0.467400	-1.188507
0.467500	-1.209930
0.467600	-1.207333
0.467700	-1.213500
0.467800	-1.213176
0.467900	-1.227133
0.468000	-1.247257
0.468100	-1.255047
0.468200	-1.346254
0.468300	-1.355667
0.468400	-1.452393
0.468500	-1.722445
0.468600	-2.101883
0.468700	-2.109997
0.468800	-1.887983
0.468900	-1.590016
0.469000	-1.648441
0.469100	-2.013272
0.469200	-2.435879
0.469300	-2.534228
0.469400	-2.392385
0.469500	-2.166799
0.469600	-2.133692
0.469700	-2.338179
0.469800	-2.600767
0.469900	-2.704310
0.470000	-2.651727
0.470100	-2.629655
0.470200	-2.592977
0.470300	-2.695546
0.470400	-2.755594
0.470500	-2.810124
0.470600	-2.850697
0.470700	-2.868224
0.470800	-2.951318
0.470900	-3.022727
0.471000	-3.121400
0.471100	-3.170737
0.471200	-3.157104
0.471300	-3.200923
0.471400	-3.271358
0.471500	-3.324590
0.471600	-3.213582
0.471700	-3.082775
0.471800	-3.007146
0.471900	-3.185992
0.472000	-3.478768
0.472100	-3.699161
0.472200	-3.592697
0.472300	-3.343741
0.472400	-3.179825
0.472500	-3.303167
0.472600	-3.560563
0.472700	-3.772517
0.472800	-3.769921
0.472900	-3.569327
0.473000	-3.415798
0.473100	-3.419693
0.473200	-3.454424
0.473300	-3.494673
0.473400	-3.461889
0.473500	-3.418395
0.473600	-3.359321
0.473700	-3.294404
0.473800	-3.213907
0.473900	-3.061677
0.474000	-2.907499
0.474100	-2.838038
0.474200	-2.858812
0.474300	-2.852320
0.474400	-2.843556
0.474500	-2.669579
0.474600	-2.545588
0.474700	-2.511182
0.474800	-2.288843
0.474900	-2.313511
0.475000	-2.278131
0.475100	-2.175888
0.475200	-2.063257
0.475300	-1.929529
0.475400	-1.819820
0.475500	-1.790932
0.475600	-1.779247
0.475700	-1.772431
0.475800	-1.697777
0.475900	-1.697128
0.476000	-1.657854
0.476100	-1.577682
0.476200	-1.594884
0.476300	-1.543925
0.476400	-1.627343
0.476500	-1.591963
0.476600	-1.669863
0.476700	-1.529968
0.476800	-1.410522
0.476900	-0.910340
0.477000	-0.893138
0.477100	-1.013233
0.477200	-1.547495
0.477300	-1.534837
0.477400	-1.273223
0.477500	-0.855162
0.477600	-0.628928
0.477700	-0.696766
0.477800	-0.861653
0.477900	-0.910016
0.478000	-0.769796
0.478100	-0.482217
0.478200	-0.309864
0.478300	-0.238781
0.478400	-0.314408
0.478500	-0.291363
0.478600	-0.304346
0.478700	-0.252088
0.478800	-0.247220
0.478900	-0.241702
0.479000	-0.248843
0.479100	-0.244948
0.479200	-0.261501
0.479300	-0.297854
0.479400	-0.352384
0.479500	-0.453654
0.479600	-0.444890
0.479700	-0.375754
0.479800	-0.332585
0.479900	-0.269940
0.480000	-0.374780
0.480100	-0.672097
0.480200	-0.663983
0.480300	-0.520193
0.480400	0.065352
0.480500	-0.126151
0.480600	-0.507859
0.480700	-0.743830
0.480800	-0.803553
0.480900	-0.669176
0.481000	-0.453978
0.481100	0.041333
0.481200	-0.546809
0.481300	-0.706503
0.481400	-0.761357
0.481500	-0.792842
0.481600	-0.756164
0.481700	-0.806150
0.481800	-0.869119
0.481900	-0.935658
0.482000	-1.007715
0.482100	-1.000899
0.482200	-1.029787
0.482300	-1.070035
0.482400	-1.059324
0.482500	-1.009013
0.482600	-0.972985
0.482700	-0.978178
0.482800	-1.083343
0.482900	-1.228756
0.483000	-1.273548
0.483100	-1.274197
0.483200	-1.120994
0.483300	-1.171954
0.483400	-1.252450
0.483500	-1.259591
0.483600	-1.266407
0.483700	-1.271276
0.483800	-1.283610
0.483900	-1.266407
0.484000	-1.273223
0.484100	-1.245958
0.484200	-1.230703
0.484300	-1.207658
0.484400	-1.163190
0.484500	-1.103142
0.484600	-1.068737
0.484700	-0.999276
0.484800	-1.012908
0.484900	-0.990837
0.485000	-1.045691
0.485100	-1.107686
0.485200	-1.429672
0.485300	-1.662073
0.485400	-1.534512
0.485500	-1.212526
0.485600	-0.928192
0.485700	-1.060947
0.485800	-1.450445
0.485900	-1.746140
0.486000	-1.756202
0.486100	-1.478359
0.486200	-1.261863
0.486300	-1.242063
0.486400	-1.465376
0.486500	-1.685118
0.486600	-1.754904
0.486700	-1.670188
0.486800	-1.601701
0.486900	-1.586445
0.487000	-1.644546
0.487100	-1.676030
0.487200	-1.697777
0.487300	-1.725042
0.487400	-1.728613
0.487500	-1.775677
0.487600	-1.832804
0.487700	-1.856498
0.487800	-1.841243
0.487900	-1.791582
0.488000	-1.852603
0.488100	-1.898045
0.488200	-1.873052
0.488300	-1.763018
0.488400	-1.520555
0.488500	-1.592288
0.488600	-1.777949
0.488700	-1.995095
0.488800	-2.090198
0.488900	-1.892202
0.489000	-1.626044
0.489100	-1.532565
0.489200	-1.684794
0.489300	-1.978541
0.489400	-2.142780
0.489500	-2.094417
0.489600	-1.896422
0.489700	-1.779247
0.489800	-1.791906
0.489900	-1.864937
0.490000	-1.913300
0.490100	-1.911028
0.490200	-1.911677
0.490300	-1.873052
0.490400	-1.816574
0.490500	-1.699400
0.490600	-1.540679
0.490700	-1.451744
0.490800	-1.421557
0.490900	-1.429672
0.491000	-1.444278
0.491100	-1.379362
0.491200	-1.173577
0.491300	-1.109958
0.491400	-0.973634
0.491500	-0.888918
0.491600	-0.865548
0.491700	-0.834713
0.491800	-0.757138
0.491900	-0.631525
0.492000	-0.493902
0.492100	-0.464689
0.492200	-0.460145
0.492300	-0.552976
0.492400	-0.521816
0.492500	-0.593873
0.492600	-0.607830
0.492700	-0.636393
0.492800	-0.607505
0.492900	-0.592250
0.493000	-0.659439
0.493100	-0.656842
0.493200	-0.755515
0.493300	-0.726302
0.493400	-0.714618
0.493500	-0.453005
0.493600	-0.120308
0.493700	-0.097263
0.493800	-0.372508
0.493900	-0.877233
0.494000	-0.605233
0.494100	-0.487735
0.494200	-0.041435
0.494300	-0.077463
0.494400	-0.166723
0.494500	-0.481568
0.494600	-0.503315
0.494700	-0.375105
0.494800	-0.218007
0.494900	-0.098561
0.495000	-0.219955
0.495100	-0.316680
0.495200	-0.428336
0.495300	-0.417301
0.495400	-0.440346
0.495500	-0.468260
0.495600	-0.528957
0.495700	-0.612374
0.495800	-0.639964
0.495900	-0.790570
0.496000	-0.814589
0.496100	-1.052507
0.496200	-1.144364
0.496300	-1.225510
0.496400	-1.153777
0.496500	-1.097624
0.496600	-1.195648
0.496700	-1.414741
0.496800	-1.772107
0.496900	-1.664021
0.497000	-1.494264
0.497100	-1.219018
0.497200	-1.347877
0.497300	-1.580278
0.497400	-1.862016
0.497500	-1.821768
0.497600	-1.664670
0.497700	-1.408899
0.497800	-1.375791
0.497900	-1.568593
0.498000	-1.713033
0.498100	-1.724393
0.498200	-1.744192
0.498300	-1.623448
0.498400	-1.691935
0.498500	-1.744842
0.498600	-1.816250
0.498700	-1.822092
0.498800	-1.756527
0.498900	-1.768861
0.499000	-1.766589
0.499100	-1.751009
0.499200	-1.713357
0.499300	-1.676030
0.499400	-1.650713
0.499500	-1.790608
0.499600	-1.893501
0.499700	-1.925310
0.499800	-1.891553
0.499900	-1.730235
0.500000	-1.802293
0.500100	-1.831181
0.500200	-1.836374
0.500300	-1.843190
0.500400	-1.822742
0.500500	-1.845787
0.500600	-1.829882
0.500700	-1.838971
0.500800	-1.815276
0.500900	-1.832479
0.501000	-1.829882
0.501100	-1.836374
0.501200	-1.829882
0.501300	-1.815276
0.501400	-1.830207
0.501500	-1.832154
0.501600	-1.862016
0.501700	-1.884412
0.501800	-2.081759
0.501900	-2.414781
0.502000	-2.622515
0.502100	-2.476452
0.502200	-2.130771
0.502300	-2.044432
0.502400	-2.231391
0.502500	-2.656271
0.502600	-2.880234
0.502700	-2.882831
0.502800	-2.596548
0.502900	-2.470285
0.503000	-2.530008
0.503100	-2.775718
0.503200	-2.990593
0.503300	-3.024349
0.503400	-2.947098
0.503500	-2.851022
0.503600	-2.876015
0.503700	-2.929246
0.503800	-2.965275
0.503900	-2.989619
0.504000	-2.982803
0.504100	-2.975337
0.504200	-3.048369
0.504300	-3.130164
0.504400	-3.067844
0.504500	-3.041877
0.504600	-3.037982
0.504700	-3.109391
0.504800	-3.168789
0.504900	-3.147367
0.505000	-2.932817
0.505100	-2.745856
0.505200	-2.820511
0.505300	-3.000979
0.505400	-3.229487
0.505500	-3.209038
0.505600	-2.956187
0.505700	-2.708854
0.505800	-2.626734
0.505900	-2.803957
0.506000	-3.058755
0.506100	-3.137629
0.506200	-3.065572
0.506300	-2.883805
0.506400	-2.798439
0.506500	-2.789351
0.506600	-2.815317
0.506700	-2.854592
0.506800	-2.843556
0.506900	-2.800386
0.507000	-2.708205
0.507100	-2.595574
0.507200	-2.461196
0.507300	-2.241778
0.507400	-2.114866
0.507500	-2.054169
0.507600	-2.015544
0.507700	-1.989253
0.507800	-1.824689
0.507900	-1.592937
0.508000	-1.525748
0.508100	-1.228431
0.508200	-1.262512
0.508300	-1.183314
0.508400	-1.116450
0.508500	-0.972985
0.508600	-0.869119
0.508700	-0.743830
0.508800	-0.685081
0.508900	-0.680536
0.509000	-0.716240
0.509100	-0.678589
0.509200	-0.776288
0.509300	-0.722083
0.509400	-0.725653
0.509500	-0.622112
0.509600	-0.674694
0.509700	-0.635420
0.509800	-0.778236
0.509900	-0.765252
0.510000	-0.815563
0.510100	-0.689625
0.510200	-0.393606
0.510300	-0.108299
0.510400	-0.194637
0.510500	-0.648727
0.510600	-0.896708
0.510700	-0.825949
0.510800	-0.515973
0.510900	-0.268967
0.511000	-0.297530
0.511100	-0.451382
0.511200	-0.686054
0.511300	-0.689300
0.511400	-0.595496
0.511500	-0.374131
0.511600	-0.357577
0.511700	-0.404642
0.511800	-0.469558
0.511900	-0.450408
0.512000	-0.476050
0.512100	-0.460470
0.512200	-0.488384
0.512300	-0.464689
0.512400	-0.457224
0.512500	-0.402370
0.512600	-0.449434
0.512700	-0.659439
0.512800	-0.669825
0.512900	-0.755515
0.513000	-0.759734
0.513100	-0.621138
0.513200	-0.650350
0.513300	-0.667878
0.513400	-1.056078
0.513500	-1.172927
0.513600	-1.035954
0.513700	-0.800632
0.513800	-0.647754
0.513900	-0.801281
0.514000	-1.030436
0.514100	-1.177796
0.514200	-1.071658
0.514300	-0.870092
0.514400	-0.682159
0.514500	-0.707152
0.514600	-0.813615
0.514700	-0.884698
0.514800	-0.779209
0.514900	-0.782131
0.515000	-0.703582
0.515100	-0.760708
0.515200	-0.769796
0.515300	-0.739286
0.515400	-0.638990
0.515500	-0.621787
0.515600	-0.762656
0.515700	-0.791868
0.515800	-0.621463
0.515900	-0.059611
0.516000	0.301323
0.516100	0.305543
0.516200	-0.644508
0.516300	-0.845424
0.516400	-0.844126
0.516500	-0.615945
0.516600	0.062107
0.516700	0.018937
0.516800	0.256531
0.516900	0.546058
0.517000	0.730420
0.517100	0.957952
0.517200	0.877131
0.517300	0.915756
0.517400	0.772291
0.517500	0.799881
0.517600	0.622984
0.517700	0.192913
0.517800	0.080932
0.517900	-0.484814
0.518000	-0.580565
0.518100	-0.960002
0.518200	-1.023295
0.518300	-1.196622
0.518400	-1.286856
0.518500	-1.565347
0.518600	-1.976594
0.518700	-2.021062
0.518800	-1.926933
0.518900	-1.563075
0.519000	-1.684794
0.519100	-1.980813
0.519200	-2.494629
0.519300	-2.728329
0.519400	-2.633226
0.519500	-2.437502
0.519600	-2.372585
0.519700	-2.627383
0.519800	-2.879585
0.519900	-3.090889
0.520000	-3.090240
0.520100	-3.125944
0.520200	-3.121400
0.520300	-3.216179
0.520400	-3.314853
0.520500	-3.339521
0.520600	-3.385937
0.520700	-3.402166
0.520800	-3.490453
0.520900	-3.570950
0.521000	-3.611523
0.521100	-3.620936
0.521200	-3.584258
0.521300	-3.601461
0.521400	-3.665080
0.521500	-3.673843
0.521600	-3.562511
0.521700	-3.343416
0.521800	-3.212284
0.521900	-3.345688
0.522000	-3.574845
0.522100	-3.775439
0.522200	-3.671896
0.522300	-3.344390
0.522400	-3.115882
0.522500	-3.179176
0.522600	-3.380743
0.522700	-3.591723
0.522800	-3.583933
0.522900	-3.410930
0.523000	-3.219100
0.523100	-3.160350
0.523200	-3.202871
0.523300	-3.221048
0.523400	-3.193782
0.523500	-3.086345
0.523600	-3.002927
0.523700	-2.935413
0.523800	-2.875690
0.523900	-2.808176
0.524000	-2.597522
0.524100	-2.454380
0.524200	-2.454380
0.524300	-2.444318
0.524400	-2.440099
0.524500	-2.259306
0.524600	-2.072346
0.524700	-1.894474
0.524800	-1.754579
0.524900	-1.780221
0.525000	-1.696803
0.525100	-1.547171
0.525200	-1.388125
0.525300	-1.236221
0.525400	-1.109958
0.525500	-1.029787
0.525600	-1.027839
0.525700	-0.995381
0.525800	-0.967142
0.525900	-0.967467
0.526000	-0.960975
0.526100	-0.915534
0.526200	-0.897682
0.526300	-0.958703
0.526400	-0.969414
0.526500	-1.095352
0.526600	-1.059973
0.526700	-1.058999
0.526800	-0.937281
0.526900	-0.457549
0.527000	-0.461768
0.527100	-0.457224
0.527200	-1.171954
0.527300	-1.029137
0.527400	-1.026865
0.527500	-0.490331
0.527600	-0.415028
0.527700	-0.401396
0.527800	-0.545510
0.527900	-0.790245
0.528000	-0.660088
0.528100	-0.521816
0.528200	-0.264098
0.528300	-0.300127
0.528400	-0.361148
0.528500	-0.407563
0.528600	-0.429635
0.528700	-0.331286
0.528800	-0.345893
0.528900	-0.332909
0.529000	-0.355305
0.529100	-0.292012
0.529200	-0.294609
0.529300	-0.352060
0.529400	-0.455926
0.529500	-0.503639
0.529600	-0.568231
0.529700	-0.594847
0.529800	-0.518245
0.529900	-0.532202
0.530000	-0.572775
0.530100	-0.998951
0.530200	-1.037252
0.530300	-0.913911
0.530400	-0.684431
0.530500	-0.609778
0.530600	-0.794140
0.530700	-1.141768
0.530800	-1.242388
0.530900	-1.094054
0.531000	-0.857434
0.531100	-0.749348
0.531200	-0.886646
0.531300	-1.024918
0.531400	-1.081071
0.531500	-0.980450
0.531600	-0.936307
0.531700	-0.861329
0.531800	-0.902226
0.531900	-0.884374
0.532000	-0.866522
0.532100	-0.793491
0.532200	-0.725004
0.532300	-0.558818
0.532400	-0.237158
0.532500	0.298402
0.532600	0.872262
0.532700	1.239689
0.532800	0.992033
0.532900	-0.100509
0.533000	-0.336155
0.533100	-0.315706
0.533200	0.809293
0.533300	0.614869
0.533400	0.003033
0.533500	-0.072595
0.533600	-0.167048
0.533700	-0.227420
0.533800	-0.452031
0.533900	-0.662035
0.534000	-0.697415
0.534100	-0.825300
0.534200	-0.883725
0.534300	-0.958379
0.534400	-0.959028
0.534500	-0.996030
0.534600	-1.000574
0.534700	-1.059973
0.534800	-1.085290
0.534900	-1.160918
0.535000	-1.201815
0.535100	-1.293023
0.535200	-1.645519
0.535300	-1.924661
0.535400	-1.965233
0.535500	-1.626694
0.535600	-1.410846
0.535700	-1.445252
0.535800	-1.784441
0.535900	-2.146026
0.536000	-2.236260
0.536100	-2.072995
0.536200	-1.825987
0.536300	-1.786713
0.536400	-1.973348
0.536500	-2.159334
0.536600	-2.261578
0.536700	-2.252165
0.536800	-2.159334
0.536900	-2.174914
0.537000	-2.204776
0.537100	-2.259306
0.537200	-2.325845
0.537300	-2.307993
0.537400	-2.362848
0.537500	-2.428414
0.537600	-2.477101
0.537700	-2.531956
0.537800	-2.552080
0.537900	-2.515077
0.538000	-2.591679
0.538100	-2.617321
0.538200	-2.692300
0.538300	-2.556624
0.538400	-2.412184
0.538500	-2.366743
0.538600	-2.533579
0.538700	-2.834143
0.538800	-2.931194
0.538900	-2.795518
0.539000	-2.467364
0.539100	-2.298580
0.539200	-2.438800
0.539300	-2.705933
0.539400	-2.836740
0.539500	-2.697818
0.539600	-2.474829
0.539700	-2.369989
0.539800	-2.355382
0.539900	-2.373559
0.540000	-2.373234
0.540100	-2.318380
0.540200	-2.291764
0.540300	-2.256060
0.540400	-2.195038
0.540500	-2.123305
0.540600	-1.936346
0.540700	-1.825014
0.540800	-1.792880
0.540900	-1.804240
0.541000	-1.806188
0.541100	-1.763667
0.541200	-1.565347
0.541300	-1.467973
0.541400	-1.319314
0.541500	-1.209930
0.541600	-1.172603
0.541700	-1.140145
0.541800	-1.042445
0.541900	-0.898655
0.542000	-0.742207
0.542100	-0.633472
0.542200	-0.603611
0.542300	-0.588680
0.542400	-0.575047
0.542500	-0.524737
0.542600	-0.504613
0.542700	-0.460145
0.542800	-0.369912
0.542900	-0.404642
0.543000	-0.324795
0.543100	-0.434503
0.543200	-0.404642
0.543300	-0.512403
0.543400	-0.503964
0.543500	-0.288442
0.543600	-0.001511
0.543700	0.024455
0.543800	-0.323821
0.543900	-0.757787
0.544000	-0.736365
0.544100	-0.550704
0.544200	-0.245272
0.544300	-0.222551
0.544400	-0.303697
0.544500	-0.619515
0.544600	-0.712345
0.544700	-0.730522
0.544800	-0.485138
0.544900	-0.413081
0.545000	-0.410809
0.545100	-0.479945
0.545200	-0.579916
0.545300	-0.559792
0.545400	-0.629252
0.545500	-0.589978
0.545600	-0.595821
0.545700	-0.594847
0.545800	-0.565310
0.545900	-0.676966
0.546000	-0.713319
0.546100	-0.822054
0.546200	-0.818159
0.546300	-0.941825
0.546400	-0.895085
0.546500	-0.889892
0.546600	-0.778560
0.546700	-1.098598
0.546800	-1.355343
0.546900	-1.335219
0.547000	-1.098923
0.547100	-0.949615
0.547200	-0.954808
0.547300	-1.255047
0.547400	-1.598455
0.547500	-1.603324
0.547600	-1.421557
0.547700	-1.201491
0.547800	-1.205710
0.547900	-1.441357
0.548000	-1.620851
0.548100	-1.595209
0.548200	-1.555285
0.548300	-1.513739
0.548400	-1.581252
0.548500	-1.657204
0.548600	-1.697128
0.548700	-1.706865
0.548800	-1.666617
0.548900	-1.695181
0.549000	-1.715305
0.549100	-1.683496
0.549200	-1.634808
0.549300	-1.604947
0.549400	-1.583524
0.549500	-1.668889
0.549600	-1.793854
0.549700	-1.793204
0.549800	-1.716928
0.549900	-1.517634
0.550000	-1.536135
0.550100	-1.546522
0.550200	-1.491343
0.550300	-1.476736
0.550400	-1.459858
0.550500	-1.437137
0.550600	-1.418636
0.550700	-1.389748
0.550800	-1.383257
0.550900	-1.352097
0.551000	-1.369624
0.551100	-1.341386
0.551200	-1.361185
0.551300	-1.329051
0.551400	-1.386178
0.551500	-1.370273
0.551600	-1.407925
0.551700	-1.441682
0.551800	-1.557557
0.551900	-1.929529
0.552000	-2.079162
0.552100	-1.951276
0.552200	-1.695830
0.552300	-1.511467
0.552400	-1.673433
0.552500	-2.038589
0.552600	-2.327144
0.552700	-2.345320
0.552800	-2.202828
0.552900	-2.039887
0.553000	-2.140833
0.553100	-2.356356
0.553200	-2.628682
0.553300	-2.741312
0.553400	-2.775069
0.553500	-2.773771
0.553600	-2.819537
0.553700	-2.892893
0.553800	-2.994488
0.553900	-3.071414
0.554000	-3.130813
0.554100	-3.170088
0.554200	-3.196704
0.554300	-3.306089
0.554400	-3.362566
0.554500	-3.410280
0.554600	-3.406385
0.554700	-3.466109
0.554800	-3.490778
0.554900	-3.543036
0.555000	-3.420343
0.555100	-3.218126
0.555200	-3.212933
0.555300	-3.471952
0.555400	-3.751419
0.555500	-3.817310
0.555600	-3.571599
0.555700	-3.258375
0.555800	-3.199950
0.555900	-3.414175
0.556000	-3.741357
0.556100	-3.860480
0.556200	-3.746551
0.556300	-3.544983
0.556400	-3.490453
0.556500	-3.534596
0.556600	-3.574520
0.556700	-3.611848
0.556800	-3.579714
0.556900	-3.556344
0.557000	-3.503112
0.557100	-3.428133
0.557200	-3.361917
0.557300	-3.237601
0.557400	-3.132436
0.557500	-3.089915
0.557600	-3.054211
0.557700	-3.018832
0.557800	-2.897437
0.557900	-2.638095
0.558000	-2.474180
0.558100	-2.164203
0.558200	-2.142780
0.558300	-2.028852
0.558400	-1.924661
0.558500	-1.762045
0.558600	-1.588717
0.558700	-1.358588
0.558800	-1.226483
0.558900	-1.170980
0.559000	-1.158321
0.559100	-1.065491
0.559200	-1.074254
0.559300	-1.001223
0.559400	-0.987591
0.559500	-0.867496
0.559600	-0.949615
0.559700	-0.885997
0.559800	-1.025243
0.559900	-1.033032
0.560000	-1.078799
0.560100	-1.018102
0.560200	-0.654570
0.560300	-0.402694
0.560400	-0.423792
0.560500	-0.762980
0.560600	-1.136899
0.560700	-0.882426
0.560800	-0.694493
0.560900	-0.278704
0.561000	-0.302399
0.561100	-0.365367
0.561200	-0.625033
0.561300	-0.617568
0.561400	-0.474427
0.561500	-0.294284
0.561600	-0.130046
0.561700	-0.143354
0.561800	-0.181654
0.561900	-0.226771
0.562000	-0.182953
0.562100	-0.176785
0.562200	-0.156661
0.562300	-0.121931
0.562400	-0.115440
0.562500	-0.089473
0.562600	-0.176461
0.562700	-0.193339
0.562800	-0.260528
0.562900	-0.196910
0.563000	-0.287792
0.563100	-0.165750
0.563200	-0.165425
0.563300	-0.184900
0.563400	-0.517596
0.563500	-0.738637
0.563600	-0.674694
0.563700	-0.438723
0.563800	-0.296232
0.563900	-0.429310
0.564000	-0.764279
0.564100	-1.017128
0.564200	-0.987266
0.564300	-0.775964
0.564400	-0.638990
0.564500	-0.687353
0.564600	-0.878531
0.564700	-0.971037
0.564800	-0.882102
0.564900	-0.898006
0.565000	-0.854837
0.565100	-0.920078
0.565200	-0.928517
0.565300	-0.919753
0.565400	-0.868794
0.565500	-0.893462
0.565600	-0.944746
0.565700	-1.006417
0.565800	-0.989538
0.565900	-0.954159
0.566000	-0.962598
0.566100	-0.984670
0.566200	-1.194025
0.566300	-1.331648
0.566400	-1.355667
0.566500	-1.344631
0.566600	-1.223562
0.566700	-1.334245
0.566800	-1.357939
0.566900	-1.368651
0.567000	-1.397214
0.567100	-1.431619
0.567200	-1.443304
0.567300	-1.458235
0.567400	-1.484526
0.567500	-1.516660
0.567600	-1.529643
0.567700	-1.560803
0.567800	-1.598130
0.567900	-1.601052
0.568000	-1.662073
0.568100	-1.701023
0.568200	-1.751658
0.568300	-1.799372
0.568400	-1.900641
0.568500	-2.141482
0.568600	-2.457301
0.568700	-2.662763
0.568800	-2.434581
0.568900	-2.208346
0.569000	-2.097663
0.569100	-2.398876
0.569200	-2.833819
0.569300	-3.048044
0.569400	-2.987347
0.569500	-2.767928
0.569600	-2.705608
0.569700	-2.816291
0.569800	-3.094135
0.569900	-3.272657
0.570000	-3.302194
0.570100	-3.241821
0.570200	-3.233057
0.570300	-3.301220
0.570400	-3.340495
0.570500	-3.378471
0.570600	-3.353154
0.570700	-3.330433
0.570800	-3.362566
0.570900	-3.390805
0.571000	-3.420992
0.571100	-3.377173
0.571200	-3.400867
0.571300	-3.365488
0.571400	-3.479092
0.571500	-3.533298
0.571600	-3.483637
0.571700	-3.267788
0.571800	-3.123997
0.571900	-3.201573
0.572000	-3.471952
0.572100	-3.638464
0.572200	-3.630024
0.572300	-3.285315
0.572400	-3.035710
0.572500	-3.032464
0.572600	-3.297650
0.572700	-3.496295
0.572800	-3.500190
0.572900	-3.334652
0.573000	-3.147367
0.573100	-3.116207
0.573200	-3.147691
0.573300	-3.181448
0.573400	-3.177229
0.573500	-3.120751
0.573600	-3.096732
0.573700	-3.063949
0.573800	-2.992540
0.573900	-2.837389
0.574000	-2.678343
0.574100	-2.591030
0.574200	-2.581292
0.574300	-2.594600
0.574400	-2.594925
0.574500	-2.435879
0.574600	-2.234313
0.574700	-2.176537
0.574800	-1.907458
0.574900	-1.934723
0.575000	-1.882140
0.575100	-1.804889
0.575200	-1.643572
0.575300	-1.535161
0.575400	-1.372870
0.575500	-1.345930
0.575600	-1.311849
0.575700	-1.326779
0.575800	-1.289128
0.575900	-1.318016
0.576000	-1.301462
0.576100	-1.224861
0.576200	-1.258942
0.576300	-1.152154
0.576400	-1.307954
0.576500	-1.246283
0.576600	-1.379686
0.576700	-1.267056
0.576800	-1.162541
0.576900	-0.818159
0.577000	-0.517596
0.577100	-0.703257
0.577200	-1.086913
0.577300	-1.384555
0.577400	-1.226483
0.577500	-0.852240
0.577600	-0.575372
0.577700	-0.529281
0.577800	-0.728899
0.577900	-0.856784
0.578000	-0.873338
0.578100	-0.731496
0.578200	-0.447487
0.578300	-0.335831
0.578400	-0.318952
0.578500	-0.402045
0.578600	-0.343296
0.578700	-0.373807
0.578800	-0.339076
0.578900	-0.332260
0.579000	-0.329339
0.579100	-0.312461
0.579200	-0.342647
0.579300	-0.416002
0.579400	-0.522140
0.579500	-0.518570
0.579600	-0.609778
0.579700	-0.664956
0.579800	-0.572775
0.579900	-0.545835
0.580000	-0.588355
0.580100	-0.968765
0.580200	-1.033682
0.580300	-0.906445
0.580400	-0.616594
0.580500	-0.540317
0.580600	-0.694169
0.580700	-1.038875
0.580800	-1.177472
0.580900	-1.076202
0.581000	-0.811343
0.581100	-0.699687
0.581200	-0.838608
0.581300	-1.017128
0.581400	-1.101844
0.581500	-1.031734
0.581600	-1.034980
0.581700	-0.995056
0.581800	-1.121319
0.581900	-1.196622
0.582000	-1.246608
0.582100	-1.249529
0.582200	-1.280689
0.582300	-1.343009
0.582400	-1.366054
0.582500	-1.345605
0.582600	-1.283610
0.582700	-1.236546
0.582800	-1.261214
0.582900	-1.433242
0.583000	-1.458884
0.583100	-1.429997
0.583200	-1.294970
0.583300	-1.268030
0.583400	-1.340412
0.583500	-1.324832
0.583600	-1.345605
0.583700	-1.346579
0.583800	-1.391371
0.583900	-1.442006
0.584000	-1.480307
0.584100	-1.539705
0.584200	-1.565997
0.584300	-1.624422
0.584400	-1.670837
0.584500	-1.685118
0.584600	-1.751982
0.584700	-1.764966
0.584800	-1.826312
0.584900	-1.871429
0.585000	-1.967181
0.585100	-2.050599
0.585200	-2.353110
0.585300	-2.668605
0.585400	-2.765007
0.585500	-2.542992
0.585600	-2.300528
0.585700	-2.349540
0.585800	-2.748453
0.585900	-3.167816
0.586000	-3.349259
0.586100	-3.258375
0.586200	-3.121725
0.586300	-3.061677
0.586400	-3.279473
0.586500	-3.502138
0.586600	-3.727725
0.586700	-3.693319
0.586800	-3.649175
0.586900	-3.647552
0.587000	-3.604707
0.587100	-3.654368
0.587200	-3.635867
0.587300	-3.571275
0.587400	-3.549527
0.587500	-3.460267
0.587600	-3.386586
0.587700	-3.354127
0.587800	-3.288886
0.587900	-3.213582
0.588000	-3.170088
0.588100	-3.119453
0.588200	-3.050316
0.588300	-2.851995
0.588400	-2.606935
0.588500	-2.428414
0.588600	-2.541369
0.588700	-2.803308
0.588800	-2.905552
0.588900	-2.776367
0.589000	-2.399526
0.589100	-2.175239
0.589200	-2.248594
0.589300	-2.502094
0.589400	-2.654648
0.589500	-2.572529
0.589600	-2.381024
0.589700	-2.221005
0.589800	-2.179783
0.589900	-2.197635
0.590000	-2.196986
0.590100	-2.216785
0.590200	-2.164852
0.590300	-2.141157
0.590400	-2.091496
0.590500	-2.001911
0.590600	-1.847734
0.590700	-1.699400
0.590800	-1.626694
0.590900	-1.661099
0.591000	-1.647791
0.591100	-1.649739
0.591200	-1.417338
0.591300	-1.259266
0.591400	-1.155400
0.591500	-0.958703
0.591600	-0.947992
0.591700	-0.872689
0.591800	-0.770121
0.591900	-0.640613
0.592000	-0.486436
0.592100	-0.399124
0.592200	-0.325444
0.592300	-0.285845
0.592400	-0.310513
0.592500	-0.230666
0.592600	-0.325444
0.592700	-0.191716
0.592800	-0.212489
0.592900	-0.119010
0.593000	-0.150494
0.593100	-0.108623
0.593200	-0.174513
0.593300	-0.147249
0.593400	-0.131344
0.593500	0.090021
0.593600	0.325667
0.593700	0.545409
0.593800	0.164674
0.593900	-0.220279
0.594000	-0.313434
0.594100	-0.070647
0.594200	0.117286
0.594300	0.321772
0.594400	0.178631
0.594500	0.025754
0.594600	-0.178084
0.594700	-0.103430
0.594800	0.061133
0.594900	0.216283
0.595000	0.190966
0.595100	0.162078
0.595200	0.140655
0.595300	0.065028
0.595400	0.019262
0.595500	-0.011249
0.595600	-0.061234
0.595700	-0.035268
0.595800	-0.035592
0.595900	-0.079736
0.596000	-0.287468
0.596100	-0.337453
0.596200	-0.439372
0.596300	-0.507210
0.596400	-0.500069
0.596500	-0.554274
0.596600	-0.534475
0.596700	-0.747400
0.596800	-1.043419
0.596900	-1.095028
0.597000	-0.908393
0.597100	-0.641911
0.597200	-0.700336
0.597300	-0.916183
0.597400	-1.248230
0.597500	-1.273872
0.597600	-1.119047
0.597700	-0.886646
0.597800	-0.827897
0.597900	-0.995706
0.598000	-1.164488
0.598100	-1.169357
0.598200	-1.157347
0.598300	-1.143390
0.598400	-1.205061
0.598500	-1.311524
0.598600	-1.402732
0.598700	-1.490369
0.598800	-1.507572
0.598900	-1.573137
0.599000	-1.690636
0.599100	-1.757500
0.599200	-1.746789
0.599300	-1.755877
0.599400	-1.787037
0.599500	-1.928231
0.599600	-2.168098
0.599700	-2.268394
0.599800	-2.321626
0.599900	-2.160308
0.600000	-2.263201
0.600100	-2.379077
0.600200	-2.376480
0.600300	-2.400175
0.600400	-2.409912
0.600500	-2.464767
0.600600	-2.476452
0.600700	-2.499822
0.600800	-2.516700
0.600900	-2.513130
