LabVIEW Measurement	
Writer_Version	2
Reader_Version	2
Separator	Tab
Decimal_Separator	.
Multi_Headings	Yes
X_Columns	One
Time_Pref	Relative
Operator	as989
Description	Time Domain Data
Date	1903/12/31
Time	19:00:00
***End_of_Header***	
	
Channels	1	
Samples	15000	
Date	1903/12/31	
Time	19:00:00	
X_Dimension	Time	
X0	0.0000000000000000E+0	
Delta_X	0.000100	
***End_of_Header***		
X_Value	Untitled	Comment
0.000000	-1.581901	Tare Values:0.000000, 0.000000, 0.000000, 0.000000\0D\0A
0.000100	-1.529643
0.000200	-1.550092
0.000300	-1.539381
0.000400	-1.578331
0.000500	-1.591314
0.000600	-1.561777
0.000700	-1.718550
0.000800	-2.031773
0.000900	-2.312537
0.001000	-2.216461
0.001100	-1.953873
0.001200	-1.739973
0.001300	-1.821768
0.001400	-2.192117
0.001500	-2.462495
0.001600	-2.534552
0.001700	-2.351812
0.001800	-2.229769
0.001900	-2.287220
0.002000	-2.470285
0.002100	-2.749751
0.002200	-2.842907
0.002300	-2.914965
0.002400	-2.865303
0.002500	-2.954888
0.002600	-2.950020
0.002700	-3.002602
0.002800	-3.069467
0.002900	-3.119453
0.003000	-3.177553
0.003100	-3.184045
0.003200	-3.281420
0.003300	-3.304790
0.003400	-3.279473
0.003500	-3.268762
0.003600	-3.348285
0.003700	-3.408658
0.003800	-3.399245
0.003900	-3.267788
0.004000	-2.990593
0.004100	-3.050641
0.004200	-3.306413
0.004300	-3.568029
0.004400	-3.623857
0.004500	-3.421641
0.004600	-3.099328
0.004700	-3.005848
0.004800	-3.204169
0.004900	-3.519990
0.005000	-3.679037
0.005100	-3.599838
0.005200	-3.396323
0.005300	-3.339521
0.005400	-3.349259
0.005500	-3.432352
0.005600	-3.460591
0.005700	-3.420343
0.005800	-3.402815
0.005900	-3.339196
0.006000	-3.311282
0.006100	-3.139901
0.006200	-2.943528
0.006300	-2.804606
0.006400	-2.733198
0.006500	-2.743909
0.006600	-2.762410
0.006700	-2.668930
0.006800	-2.435879
0.006900	-2.316757
0.007000	-2.172317
0.007100	-2.023658
0.007200	-1.927257
0.007300	-1.831181
0.007400	-1.680899
0.007500	-1.542951
0.007600	-1.350474
0.007700	-1.209605
0.007800	-1.192402
0.007900	-1.189806
0.008000	-1.172927
0.008100	-1.106713
0.008200	-1.145987
0.008300	-1.032708
0.008400	-1.054779
0.008500	-0.931438
0.008600	-1.022646
0.008700	-0.972011
0.008800	-1.034006
0.008900	-1.066464
0.009000	-0.974608
0.009100	-0.695143
0.009200	-0.302399
0.009300	-0.227745
0.009400	-0.614971
0.009500	-0.885997
0.009600	-0.938255
0.009700	-0.539668
0.009800	-0.328690
0.009900	-0.181979
0.010000	-0.319926
0.010100	-0.579267
0.010200	-0.607181
0.010300	-0.550704
0.010400	-0.344919
0.010500	-0.172890
0.010600	-0.128423
0.010700	-0.121607
0.010800	-0.264098
0.010900	-0.166399
0.011000	-0.149521
0.011100	-0.071621
0.011200	-0.078762
0.011300	-0.056366
0.011400	-0.088824
0.011500	-0.110895
0.011600	-0.050523
0.011700	-0.212165
0.011800	-0.210217
0.011900	-0.414704
0.012000	-0.230666
0.012100	-0.314733
0.012200	-0.185874
0.012300	-0.583162
0.012400	-0.774341
0.012500	-0.740909
0.012600	-0.480594
0.012700	-0.245272
0.012800	-0.404642
0.012900	-0.666904
0.013000	-0.984345
0.013100	-0.944097
0.013200	-0.746427
0.013300	-0.506561
0.013400	-0.527009
0.013500	-0.741233
0.013600	-0.916508
0.013700	-0.915534
0.013800	-0.921701
0.013900	-0.817835
0.014000	-0.930789
0.014100	-1.033682
0.014200	-1.152154
0.014300	-1.182989
0.014400	-1.154751
0.014500	-1.195648
0.014600	-1.257643
0.014700	-1.254073
0.014800	-1.239467
0.014900	-1.216421
0.015000	-1.222588
0.015100	-1.391696
0.015200	-1.460507
0.015300	-1.497510
0.015400	-1.511467
0.015500	-1.379362
0.015600	-1.436488
0.015700	-1.450445
0.015800	-1.449472
0.015900	-1.455963
0.016000	-1.432593
0.016100	-1.451744
0.016200	-1.421557
0.016300	-1.483877
0.016400	-1.428374
0.016500	-1.478035
0.016600	-1.452393
0.016700	-1.482254
0.016800	-1.497510
0.016900	-1.514388
0.017000	-1.560803
0.017100	-1.542302
0.017200	-1.675706
0.017300	-1.658178
0.017400	-1.949978
0.017500	-2.324222
0.017600	-2.489760
0.017700	-2.327793
0.017800	-1.998990
0.017900	-1.945109
0.018000	-2.084355
0.018100	-2.555975
0.018200	-2.828950
0.018300	-2.799413
0.018400	-2.617646
0.018500	-2.474504
0.018600	-2.550132
0.018700	-2.741312
0.018800	-2.977609
0.018900	-3.050316
0.019000	-3.028244
0.019100	-3.001629
0.019200	-2.925676
0.019300	-2.964626
0.019400	-3.031815
0.019500	-3.071739
0.019600	-3.132761
0.019700	-3.095758
0.019800	-3.086670
0.019900	-3.121076
0.020000	-3.218451
0.020100	-3.143472
0.020200	-3.115882
0.020300	-3.170088
0.020400	-3.220398
0.020500	-3.194107
0.020600	-2.978259
0.020700	-2.833169
0.020800	-2.908148
0.020900	-3.185668
0.021000	-3.419369
0.021100	-3.450529
0.021200	-3.188589
0.021300	-2.927623
0.021400	-2.937361
0.021500	-3.181448
0.021600	-3.464162
0.021700	-3.533947
0.021800	-3.440467
0.021900	-3.256103
0.022000	-3.183396
0.022100	-3.216828
0.022200	-3.278499
0.022300	-3.284017
0.022400	-3.261296
0.022500	-3.210985
0.022600	-3.156455
0.022700	-3.061027
0.022800	-2.984426
0.022900	-2.801036
0.023000	-2.592977
0.023100	-2.478724
0.023200	-2.446590
0.023300	-2.437177
0.023400	-2.288194
0.023500	-2.057090
0.023600	-2.011649
0.023700	-1.733157
0.023800	-1.734455
0.023900	-1.647791
0.024000	-1.542302
0.024100	-1.407925
0.024200	-1.259915
0.024300	-1.150207
0.024400	-1.080097
0.024500	-1.058025
0.024600	-1.072631
0.024700	-0.987266
0.024800	-1.053157
0.024900	-0.976880
0.025000	-0.992135
0.025100	-0.897033
0.025200	-0.922999
0.025300	-0.907419
0.025400	-0.957405
0.025500	-1.019725
0.025600	-0.917157
0.025700	-0.914560
0.025800	-0.523439
0.025900	-0.330637
0.026000	-0.309864
0.026100	-0.862302
0.026200	-1.010961
0.026300	-0.810045
0.026400	-0.555572
0.026500	-0.405291
0.026600	-0.356604
0.026700	-0.496823
0.026800	-0.693195
0.026900	-0.713644
0.027000	-0.551028
0.027100	-0.449434
0.027200	-0.313434
0.027300	-0.394904
0.027400	-0.344919
0.027500	-0.446188
0.027600	-0.480269
0.027700	-0.444565
0.027800	-0.438723
0.027900	-0.434179
0.028000	-0.432556
0.028100	-0.426064
0.028200	-0.528957
0.028300	-0.599066
0.028400	-0.588680
0.028500	-0.720460
0.028600	-0.700336
0.028700	-0.613023
0.028800	-0.576346
0.028900	-0.711372
0.029000	-1.024918
0.029100	-1.142741
0.029200	-0.973309
0.029300	-0.664956
0.029400	-0.571801
0.029500	-0.702933
0.029600	-1.064517
0.029700	-1.213500
0.029800	-1.069386
0.029900	-0.814913
0.030000	-0.723057
0.030100	-0.839906
0.030200	-1.039849
0.030300	-1.153128
0.030400	-1.092106
0.030500	-1.090159
0.030600	-1.061920
0.030700	-1.234923
0.030800	-1.347877
0.030900	-1.415715
0.031000	-1.379037
0.031100	-1.380660
0.031200	-1.462130
0.031300	-1.523152
0.031400	-1.544574
0.031500	-1.515037
0.031600	-1.476087
0.031700	-1.486149
0.031800	-1.671811
0.031900	-1.733157
0.032000	-1.735429
0.032100	-1.636756
0.032200	-1.540679
0.032300	-1.592937
0.032400	-1.576708
0.032500	-1.531266
0.032600	-1.501729
0.032700	-1.453042
0.032800	-1.433567
0.032900	-1.433567
0.033000	-1.423505
0.033100	-1.372546
0.033200	-1.377739
0.033300	-1.345281
0.033400	-1.394293
0.033500	-1.350798
0.033600	-1.431619
0.033700	-1.437787
0.033800	-1.464078
0.033900	-1.524125
0.034000	-1.547171
0.034100	-1.898694
0.034200	-2.187573
0.034300	-2.359926
0.034400	-2.113243
0.034500	-1.846111
0.034600	-1.847734
0.034700	-2.107401
0.034800	-2.563116
0.034900	-2.718916
0.035000	-2.624462
0.035100	-2.437502
0.035200	-2.340776
0.035300	-2.531956
0.035400	-2.790324
0.035500	-2.965275
0.035600	-2.969495
0.035700	-2.918535
0.035800	-2.897762
0.035900	-2.912368
0.036000	-3.052264
0.036100	-3.110689
0.036200	-3.124971
0.036300	-3.136656
0.036400	-3.149314
0.036500	-3.213907
0.036600	-3.281096
0.036700	-3.395350
0.036800	-3.335951
0.036900	-3.333678
0.037000	-3.374252
0.037100	-3.443713
0.037200	-3.362242
0.037300	-3.105820
0.037400	-3.039930
0.037500	-3.132111
0.037600	-3.482987
0.037700	-3.593996
0.037800	-3.544983
0.037900	-3.227215
0.038000	-3.016559
0.038100	-3.103873
0.038200	-3.396972
0.038300	-3.672545
0.038400	-3.667352
0.038500	-3.467407
0.038600	-3.284991
0.038700	-3.281096
0.038800	-3.371006
0.038900	-3.479417
0.039000	-3.475522
0.039100	-3.408658
0.039200	-3.322967
0.039300	-3.277201
0.039400	-3.186642
0.039500	-3.044149
0.039600	-2.872769
0.039700	-2.757541
0.039800	-2.722811
0.039900	-2.701064
0.040000	-2.686458
0.040100	-2.471259
0.040200	-2.298256
0.040300	-2.238208
0.040400	-1.946083
0.040500	-1.987630
0.040600	-1.917195
0.040700	-1.801319
0.040800	-1.616956
0.040900	-1.443629
0.041000	-1.280689
0.041100	-1.262512
0.041200	-1.286856
0.041300	-1.212526
0.041400	-1.207009
0.041500	-1.166760
0.041600	-1.132679
0.041700	-1.048937
0.041800	-1.036603
0.041900	-1.085939
0.042000	-1.001548
0.042100	-1.130407
0.042200	-1.020374
0.042300	-1.048612
0.042400	-0.815238
0.042500	-0.541615
0.042600	-0.349138
0.042700	-0.445864
0.042800	-0.956107
0.042900	-0.950264
0.043000	-0.767849
0.043100	-0.452680
0.043200	-0.215411
0.043300	-0.340699
0.043400	-0.469558
0.043500	-0.669176
0.043600	-0.558169
0.043700	-0.396852
0.043800	-0.118361
0.043900	-0.016767
0.044000	-0.047602
0.044100	-0.156661
0.044200	-0.190418
0.044300	-0.172241
0.044400	-0.114466
0.044500	-0.105702
0.044600	-0.026180
0.044700	-0.107325
0.044800	-0.108948
0.044900	-0.253062
0.045000	-0.299802
0.045100	-0.299153
0.045200	-0.420871
0.045300	-0.384842
0.045400	-0.395554
0.045500	-0.409511
0.045600	-0.595821
0.045700	-0.993109
0.045800	-0.973959
0.045900	-0.755515
0.046000	-0.473453
0.046100	-0.471181
0.046200	-0.688002
0.046300	-1.069061
0.046400	-1.167085
0.046500	-1.070684
0.046600	-0.816212
0.046700	-0.692546
0.046800	-0.857109
0.046900	-1.044717
0.047000	-1.164813
0.047100	-1.160269
0.047200	-1.119047
0.047300	-1.097300
0.047400	-1.197271
0.047500	-1.322560
0.047600	-1.393319
0.047700	-1.380011
0.047800	-1.429672
0.047900	-1.517634
0.048000	-1.554636
0.048100	-1.503352
0.048200	-1.513090
0.048300	-1.496211
0.048400	-1.584173
0.048500	-1.780546
0.048600	-1.833777
0.048700	-1.852279
0.048800	-1.705567
0.048900	-1.715629
0.049000	-1.772431
0.049100	-1.779247
0.049200	-1.768212
0.049300	-1.741920
0.049400	-1.746140
0.049500	-1.709787
0.049600	-1.720173
0.049700	-1.719849
0.049800	-1.735429
0.049900	-1.714655
0.050000	-1.747438
0.050100	-1.756202
0.050200	-1.762369
0.050300	-1.807486
0.050400	-1.858121
0.050500	-1.935372
0.050600	-2.006455
0.050700	-2.077539
0.050800	-2.416079
0.050900	-2.715995
0.051000	-2.688080
0.051100	-2.394332
0.051200	-2.304747
0.051300	-2.307993
0.051400	-2.717618
0.051500	-3.077257
0.051600	-3.179825
0.051700	-3.044149
0.051800	-2.852969
0.051900	-2.813694
0.052000	-2.984101
0.052100	-3.194756
0.052200	-3.379445
0.052300	-3.378471
0.052400	-3.361593
0.052500	-3.284017
0.052600	-3.286289
0.052700	-3.302843
0.052800	-3.330433
0.052900	-3.352504
0.053000	-3.409631
0.053100	-3.435273
0.053200	-3.458644
0.053300	-3.523236
0.053400	-3.522587
0.053500	-3.482663
0.053600	-3.541737
0.053700	-3.617690
0.053800	-3.583609
0.053900	-3.448581
0.054000	-3.167167
0.054100	-3.118154
0.054200	-3.348934
0.054300	-3.653395
0.054400	-3.728698
0.054500	-3.518043
0.054600	-3.165544
0.054700	-3.004225
0.054800	-3.105820
0.054900	-3.369058
0.055000	-3.508954
0.055100	-3.418720
0.055200	-3.194107
0.055300	-3.052264
0.055400	-3.002927
0.055500	-3.064922
0.055600	-3.052588
0.055700	-3.049342
0.055800	-3.013314
0.055900	-2.950669
0.056000	-2.913017
0.056100	-2.836415
0.056200	-2.692625
0.056300	-2.496901
0.056400	-2.431984
0.056500	-2.429063
0.056600	-2.421597
0.056700	-2.352136
0.056800	-2.098637
0.056900	-1.985358
0.057000	-1.673109
0.057100	-1.678302
0.057200	-1.669863
0.057300	-1.620851
0.057400	-1.532889
0.057500	-1.407276
0.057600	-1.288154
0.057700	-1.203114
0.057800	-1.178445
0.057900	-1.202464
0.058000	-1.213176
0.058100	-1.167409
0.058200	-1.205710
0.058300	-1.156698
0.058400	-1.116775
0.058500	-1.056402
0.058600	-1.092431
0.058700	-1.082694
0.058800	-1.157672
0.058900	-1.192402
0.059000	-1.094703
0.059100	-0.882751
0.059200	-0.529281
0.059300	-0.395878
0.059400	-0.701310
0.059500	-1.138522
0.059600	-1.068087
0.059700	-0.749348
0.059800	-0.452680
0.059900	-0.240403
0.060000	-0.325119
0.060100	-0.560441
0.060200	-0.631200
0.060300	-0.480919
0.060400	-0.246895
0.060500	-0.122580
0.060600	-0.016442
0.060700	-0.109922
0.060800	-0.146275
0.060900	-0.106676
0.061000	-0.144003
0.061100	-0.082981
0.061200	-0.105053
0.061300	-0.050523
0.061400	-0.070647
0.061500	-0.150170
0.061600	-0.176461
0.061700	-0.250790
0.061800	-0.303048
0.061900	-0.392308
0.062000	-0.345893
0.062100	-0.306294
0.062200	-0.327391
0.062300	-0.563687
0.062400	-0.900278
0.062500	-0.879181
0.062600	-0.628603
0.062700	-0.425740
0.062800	-0.478971
0.062900	-0.797386
0.063000	-1.143066
0.063100	-1.141768
0.063200	-0.993433
0.063300	-0.759410
0.063400	-0.786026
0.063500	-0.995381
0.063600	-1.165462
0.063700	-1.174226
0.063800	-1.175524
0.063900	-1.116775
0.064000	-1.258293
0.064100	-1.341710
0.064200	-1.419935
0.064300	-1.443304
0.064400	-1.425128
0.064500	-1.496211
0.064600	-1.548469
0.064700	-1.567295
0.064800	-1.499457
0.064900	-1.455963
0.065000	-1.442006
0.065100	-1.609491
0.065200	-1.736078
0.065300	-1.753605
0.065400	-1.696154
0.065500	-1.533214
0.065600	-1.581577
0.065700	-1.609491
0.065800	-1.561128
0.065900	-1.571839
0.066000	-1.569242
0.066100	-1.567944
0.066200	-1.594560
0.066300	-1.591639
0.066400	-1.589367
0.066500	-1.574760
0.066600	-1.578980
0.066700	-1.522827
0.066800	-1.529968
0.066900	-1.505624
0.067000	-1.553338
0.067100	-1.538407
0.067200	-1.634484
0.067300	-1.622149
0.067400	-1.776326
0.067500	-2.121033
0.067600	-2.375506
0.067700	-2.216136
0.067800	-1.937319
0.067900	-1.809109
0.068000	-1.940890
0.068100	-2.353435
0.068200	-2.674448
0.068300	-2.702362
0.068400	-2.508586
0.068500	-2.332337
0.068600	-2.410237
0.068700	-2.652052
0.068800	-2.901332
0.068900	-2.969170
0.069000	-2.969170
0.069100	-2.876339
0.069200	-2.937685
0.069300	-2.962354
0.069400	-3.041552
0.069500	-3.132111
0.069600	-3.118803
0.069700	-3.177878
0.069800	-3.237601
0.069900	-3.292132
0.070000	-3.344714
0.070100	-3.315502
0.070200	-3.278824
0.070300	-3.346013
0.070400	-3.347636
0.070500	-3.369383
0.070600	-3.182747
0.070700	-2.985724
0.070800	-3.019156
0.070900	-3.252208
0.071000	-3.457345
0.071100	-3.521613
0.071200	-3.264867
0.071300	-2.943853
0.071400	-2.892568
0.071500	-3.112636
0.071600	-3.413526
0.071700	-3.524210
0.071800	-3.409631
0.071900	-3.227215
0.072000	-3.165219
0.072100	-3.160350
0.072200	-3.202222
0.072300	-3.211310
0.072400	-3.178527
0.072500	-3.202546
0.072600	-3.162947
0.072700	-3.089591
0.072800	-2.984101
0.072900	-2.754620
0.073000	-2.656271
0.073100	-2.601092
0.073200	-2.606935
0.073300	-2.609531
0.073400	-2.454056
0.073500	-2.209644
0.073600	-2.132069
0.073700	-1.800345
0.073800	-1.832804
0.073900	-1.751009
0.074000	-1.681873
0.074100	-1.565023
0.074200	-1.441682
0.074300	-1.261214
0.074400	-1.199219
0.074500	-1.191429
0.074600	-1.164488
0.074700	-1.203438
0.074800	-1.159295
0.074900	-1.188832
0.075000	-1.072956
0.075100	-1.084316
0.075200	-0.975257
0.075300	-1.072631
0.075400	-0.998627
0.075500	-1.177147
0.075600	-1.046340
0.075700	-0.998302
0.075800	-0.631200
0.075900	-0.319926
0.076000	-0.241377
0.076100	-0.730847
0.076200	-1.046665
0.076300	-0.886321
0.076400	-0.534799
0.076500	-0.301425
0.076600	-0.083306
0.076700	-0.318952
0.076800	-0.455601
0.076900	-0.508508
0.077000	-0.369912
0.077100	-0.204050
0.077200	-0.092394
0.077300	-0.113492
0.077400	-0.127124
0.077500	-0.182303
0.077600	-0.220604
0.077700	-0.195611
0.077800	-0.159907
0.077900	-0.162179
0.078000	-0.146924
0.078100	-0.166723
0.078200	-0.272537
0.078300	-0.396203
0.078400	-0.421845
0.078500	-0.498121
0.078600	-0.500718
0.078700	-0.474102
0.078800	-0.452355
0.078900	-0.435477
0.079000	-0.909691
0.079100	-1.069710
0.079200	-1.009987
0.079300	-0.690598
0.079400	-0.607505
0.079500	-0.741882
0.079600	-1.092106
0.079700	-1.313147
0.079800	-1.244985
0.079900	-1.017128
0.080000	-0.919753
0.080100	-1.005768
0.080200	-1.180393
0.080300	-1.270627
0.080400	-1.208956
0.080500	-1.250827
0.080600	-1.235247
0.080700	-1.374168
0.080800	-1.408250
0.080900	-1.408574
0.081000	-1.336192
0.081100	-1.329376
0.081200	-1.412469
0.081300	-1.456288
0.081400	-1.440708
0.081500	-1.377739
0.081600	-1.340087
0.081700	-1.347228
0.081800	-1.522827
0.081900	-1.591963
0.082000	-1.608192
0.082100	-1.573462
0.082200	-1.452393
0.082300	-1.493290
0.082400	-1.489395
0.082500	-1.477061
0.082600	-1.471868
0.082700	-1.464727
0.082800	-1.441032
0.082900	-1.433892
0.083000	-1.438760
0.083100	-1.441682
0.083200	-1.429023
0.083300	-1.446550
0.083400	-1.440708
0.083500	-1.469596
0.083600	-1.457262
0.083700	-1.514063
0.083800	-1.509844
0.083900	-1.556259
0.084000	-1.604947
0.084100	-1.859419
0.084200	-2.250542
0.084300	-2.351163
0.084400	-2.138236
0.084500	-1.924661
0.084600	-1.851954
0.084700	-2.147000
0.084800	-2.574476
0.084900	-2.805255
0.085000	-2.742611
0.085100	-2.560519
0.085200	-2.485865
0.085300	-2.643288
0.085400	-2.897437
0.085500	-3.114908
0.085600	-3.143472
0.085700	-3.122698
0.085800	-3.086020
0.085900	-3.141849
0.086000	-3.222021
0.086100	-3.271683
0.086200	-3.297325
0.086300	-3.308685
0.086400	-3.357698
0.086500	-3.428457
0.086600	-3.507331
0.086700	-3.509603
0.086800	-3.487532
0.086900	-3.457670
0.087000	-3.537518
0.087100	-3.560563
0.087200	-3.518043
0.087300	-3.274279
0.087400	-3.099653
0.087500	-3.235329
0.087600	-3.597241
0.087700	-3.777711
0.087800	-3.744928
0.087900	-3.404763
0.088000	-3.179176
0.088100	-3.260647
0.088200	-3.576143
0.088300	-3.836785
0.088400	-3.863401
0.088500	-3.668975
0.088600	-3.507331
0.088700	-3.508305
0.088800	-3.601461
0.088900	-3.636192
0.089000	-3.608926
0.089100	-3.556019
0.089200	-3.513174
0.089300	-3.452476
0.089400	-3.385287
0.089500	-3.221372
0.089600	-2.993839
0.089700	-2.877637
0.089800	-2.836091
0.089900	-2.785456
0.090000	-2.774095
0.090100	-2.549483
0.090200	-2.366418
0.090300	-2.287544
0.090400	-1.980813
0.090500	-1.997692
0.090600	-1.924336
0.090700	-1.814302
0.090800	-1.657854
0.090900	-1.491667
0.091000	-1.378713
0.091100	-1.331973
0.091200	-1.279390
0.091300	-1.258617
0.091400	-1.157023
0.091500	-1.180068
0.091600	-1.058025
0.091700	-0.985319
0.091800	-0.880479
0.091900	-0.885997
0.092000	-0.832765
0.092100	-0.848670
0.092200	-0.890866
0.092300	-0.768174
0.092400	-0.539668
0.092500	-0.304021
0.092600	0.090345
0.092700	-0.187821
0.092800	-0.547133
0.092900	-0.727925
0.093000	-0.482217
0.093100	-0.193988
0.093200	0.017314
0.093300	0.016990
0.093400	-0.236184
0.093500	-0.492604
0.093600	-0.495200
0.093700	-0.370236
0.093800	-0.147898
0.093900	-0.082981
0.094000	-0.088824
0.094100	-0.262150
0.094200	-0.259878
0.094300	-0.296556
0.094400	-0.211516
0.094500	-0.203077
0.094600	-0.216709
0.094700	-0.237482
0.094800	-0.318303
0.094900	-0.314733
0.095000	-0.419573
0.095100	-0.394580
0.095200	-0.578618
0.095300	-0.493577
0.095400	-0.396852
0.095500	-0.361797
0.095600	-0.419573
0.095700	-0.822054
0.095800	-0.901252
0.095900	-0.739286
0.096000	-0.408212
0.096100	-0.375105
0.096200	-0.509482
0.096300	-0.915209
0.096400	-1.014531
0.096500	-0.949290
0.096600	-0.693844
0.096700	-0.576995
0.096800	-0.709100
0.096900	-0.926570
0.097000	-1.067763
0.097100	-1.066464
0.097200	-1.050235
0.097300	-1.019400
0.097400	-1.123591
0.097500	-1.254398
0.097600	-1.354044
0.097700	-1.330025
0.097800	-1.351772
0.097900	-1.413443
0.098000	-1.482904
0.098100	-1.469271
0.098200	-1.484202
0.098300	-1.467973
0.098400	-1.522503
0.098500	-1.713033
0.098600	-1.790608
0.098700	-1.815925
0.098800	-1.641949
0.098900	-1.679925
0.099000	-1.763018
0.099100	-1.771782
0.099200	-1.798398
0.099300	-1.805539
0.099400	-1.802293
0.099500	-1.851629
0.099600	-1.832804
0.099700	-1.861367
0.099800	-1.861042
0.099900	-1.885386
0.100000	-1.868183
0.100100	-1.892527
0.100200	-1.879868
0.100300	-1.885386
0.100400	-1.879868
0.100500	-1.874350
0.100600	-1.921415
0.100700	-1.914274
0.100800	-2.267745
0.100900	-2.574152
0.101000	-2.554352
0.101100	-2.293387
0.101200	-1.982112
0.101300	-1.949978
0.101400	-2.185625
0.101500	-2.542342
0.101600	-2.659517
0.101700	-2.514104
0.101800	-2.316108
0.101900	-2.223277
0.102000	-2.366743
0.102100	-2.560519
0.102200	-2.759489
0.102300	-2.775718
0.102400	-2.748453
0.102500	-2.676395
0.102600	-2.694897
0.102700	-2.744233
0.102800	-2.801685
0.102900	-2.830573
0.103000	-2.883805
0.103100	-2.864005
0.103200	-2.938010
0.103300	-3.032139
0.103400	-2.975662
0.103500	-2.955862
0.103600	-2.958134
0.103700	-3.032464
0.103800	-3.040579
0.103900	-2.936063
0.104000	-2.692300
0.104100	-2.682563
0.104200	-2.892568
0.104300	-3.183396
0.104400	-3.272657
0.104500	-3.191835
0.104600	-2.896463
0.104700	-2.776367
0.104800	-2.910096
0.104900	-3.209363
0.105000	-3.411254
0.105100	-3.395999
0.105200	-3.244093
0.105300	-3.109391
0.105400	-3.089915
0.105500	-3.152236
0.105600	-3.196379
0.105700	-3.177878
0.105800	-3.149964
0.105900	-3.101925
0.106000	-3.035061
0.106100	-2.936063
0.106200	-2.748778
0.106300	-2.581292
0.106400	-2.481970
0.106500	-2.493979
0.106600	-2.493655
0.106700	-2.455679
0.106800	-2.208346
0.106900	-2.086303
0.107000	-1.927582
0.107100	-1.759448
0.107200	-1.727963
0.107300	-1.664670
0.107400	-1.525424
0.107500	-1.363133
0.107600	-1.188832
0.107700	-1.107686
0.107800	-1.038875
0.107900	-1.020698
0.108000	-1.028488
0.108100	-0.956756
0.108200	-1.019075
0.108300	-0.929491
0.108400	-0.901577
0.108500	-0.828546
0.108600	-0.871391
0.108700	-0.851916
0.108800	-0.938579
0.108900	-0.922999
0.109000	-0.912288
0.109100	-0.683458
0.109200	-0.339401
0.109300	-0.163802
0.109400	-0.565310
0.109500	-0.874961
0.109600	-0.824002
0.109700	-0.538694
0.109800	-0.383869
0.109900	-0.154714
0.110000	-0.289091
0.110100	-0.536422
0.110200	-0.589978
0.110300	-0.440021
0.110400	-0.283897
0.110500	-0.086227
0.110600	-0.087201
0.110700	-0.155038
0.110800	-0.262475
0.110900	-0.195611
0.111000	-0.166723
0.111100	-0.143029
0.111200	-0.165425
0.111300	-0.144003
0.111400	-0.148871
0.111500	-0.236184
0.111600	-0.281625
0.111700	-0.362771
0.111800	-0.472804
0.111900	-0.529281
0.112000	-0.493902
0.112100	-0.480269
0.112200	-0.543563
0.112300	-0.826274
0.112400	-1.145013
0.112500	-1.094054
0.112600	-0.933061
0.112700	-0.722407
0.112800	-0.800956
0.112900	-1.043744
0.113000	-1.411820
0.113100	-1.441032
0.113200	-1.292049
0.113300	-1.016803
0.113400	-1.015505
0.113500	-1.170655
0.113600	-1.333920
0.113700	-1.318989
0.113800	-1.324832
0.113900	-1.191104
0.114000	-1.261863
0.114100	-1.347553
0.114200	-1.460832
0.114300	-1.469271
0.114400	-1.403381
0.114500	-1.438111
0.114600	-1.495238
0.114700	-1.536460
0.114800	-1.503352
0.114900	-1.470245
0.115000	-1.432593
0.115100	-1.581577
0.115200	-1.761071
0.115300	-1.802293
0.115400	-1.803591
0.115500	-1.646169
0.115600	-1.751333
0.115700	-1.795477
0.115800	-1.798722
0.115900	-1.810732
0.116000	-1.830856
0.116100	-1.845138
0.116200	-1.878245
0.116300	-1.908756
0.116400	-1.930503
0.116500	-1.936995
0.116600	-1.955496
0.116700	-1.970751
0.116800	-1.971076
0.116900	-1.926608
0.117000	-2.015219
0.117100	-1.983410
0.117200	-2.078837
0.117300	-2.115840
0.117400	-2.262227
0.117500	-2.650104
0.117600	-2.852644
0.117700	-2.814993
0.117800	-2.477426
0.117900	-2.287544
0.118000	-2.394981
0.118100	-2.793246
0.118200	-3.088293
0.118300	-3.074011
0.118400	-2.896139
0.118500	-2.678992
0.118600	-2.687107
0.118700	-2.858162
0.118800	-3.069467
0.118900	-3.091538
0.119000	-3.042851
0.119100	-3.010068
0.119200	-2.943528
0.119300	-2.976960
0.119400	-3.054536
0.119500	-3.065896
0.119600	-3.049667
0.119700	-3.029543
0.119800	-2.997409
0.119900	-3.077257
0.120000	-3.138279
0.120100	-3.124646
0.120200	-3.076608
0.120300	-3.126594
0.120400	-3.145095
0.120500	-3.170412
0.120600	-2.960406
0.120700	-2.787728
0.120800	-2.769226
0.120900	-3.028569
0.121000	-3.302843
0.121100	-3.387560
0.121200	-3.167491
0.121300	-2.864005
0.121400	-2.752673
0.121500	-2.990593
0.121600	-3.337249
0.121700	-3.520639
0.121800	-3.458644
0.121900	-3.257076
0.122000	-3.145095
0.122100	-3.166193
0.122200	-3.267463
0.122300	-3.324915
0.122400	-3.293755
0.122500	-3.242470
0.122600	-3.190861
0.122700	-3.158727
0.122800	-3.020130
0.122900	-2.823756
0.123000	-2.669255
0.123100	-2.584538
0.123200	-2.578696
0.123300	-2.562791
0.123400	-2.462819
0.123500	-2.199907
0.123600	-2.119086
0.123700	-1.808784
0.123800	-1.811057
0.123900	-1.731534
0.124000	-1.664021
0.124100	-1.546846
0.124200	-1.409872
0.124300	-1.182340
0.124400	-1.160918
0.124500	-1.049586
0.124600	-1.137223
0.124700	-1.049586
0.124800	-1.056727
0.124900	-1.012584
0.125000	-0.926570
0.125100	-0.865548
0.125200	-0.805500
0.125300	-0.814589
0.125400	-0.820756
0.125500	-0.917481
0.125600	-0.876584
0.125700	-0.788947
0.125800	-0.600040
0.125900	-0.126475
0.126000	-0.207945
0.126100	-0.395554
0.126200	-0.905147
0.126300	-0.679887
0.126400	-0.503964
0.126500	-0.142380
0.126600	-0.128098
0.126700	-0.239430
0.126800	-0.372833
0.126900	-0.476699
0.127000	-0.299802
0.127100	-0.168996
0.127200	0.004656
0.127300	0.037763
0.127400	-0.020662
0.127500	-0.049225
0.127600	-0.135564
0.127700	-0.086552
0.127800	-0.075516
0.127900	-0.019039
0.128000	-0.000213
0.128100	0.010823
0.128200	-0.127124
0.128300	-0.150494
0.128400	-0.228394
0.128500	-0.311811
0.128600	-0.409835
0.128700	-0.269291
0.128800	-0.284547
0.128900	-0.249492
0.129000	-0.570828
0.129100	-0.813290
0.129200	-0.743181
0.129300	-0.470857
0.129400	-0.317329
0.129500	-0.443267
0.129600	-0.668527
0.129700	-1.016479
0.129800	-0.965519
0.129900	-0.807123
0.130000	-0.596470
0.130100	-0.615620
0.130200	-0.841854
0.130300	-0.986942
0.130400	-0.970388
0.130500	-1.012259
0.130600	-0.922025
0.130700	-1.020374
0.130800	-1.076851
0.130900	-1.141443
0.131000	-1.144040
0.131100	-1.139495
0.131200	-1.206359
0.131300	-1.279390
0.131400	-1.269004
0.131500	-1.212851
0.131600	-1.184937
0.131700	-1.182989
0.131800	-1.350149
0.131900	-1.458560
0.132000	-1.488746
0.132100	-1.354693
0.132200	-1.300813
0.132300	-1.373844
0.132400	-1.394617
0.132500	-1.365405
0.132600	-1.375467
0.132700	-1.405653
0.132800	-1.415715
0.132900	-1.420908
0.133000	-1.398837
0.133100	-1.443304
0.133200	-1.439085
0.133300	-1.476087
0.133400	-1.470569
0.133500	-1.474464
0.133600	-1.482904
0.133700	-1.568918
0.133800	-1.541653
0.133900	-1.647467
0.134000	-1.688364
0.134100	-1.914598
0.134200	-2.275535
0.134300	-2.468986
0.134400	-2.287869
0.134500	-2.041186
0.134600	-1.954198
0.134700	-2.267096
0.134800	-2.693274
0.134900	-2.926974
0.135000	-2.888998
0.135100	-2.697818
0.135200	-2.550782
0.135300	-2.699441
0.135400	-2.872769
0.135500	-3.096083
0.135600	-3.108741
0.135700	-3.086994
0.135800	-3.028894
0.135900	-3.050965
0.136000	-3.088617
0.136100	-3.159377
0.136200	-3.167491
0.136300	-3.203195
0.136400	-3.228188
0.136500	-3.228838
0.136600	-3.334328
0.136700	-3.373278
0.136800	-3.321669
0.136900	-3.343091
0.137000	-3.397622
0.137100	-3.441441
0.137200	-3.399245
0.137300	-3.202546
0.137400	-2.965924
0.137500	-3.046746
0.137600	-3.336924
0.137700	-3.495646
0.137800	-3.473250
0.137900	-3.164894
0.138000	-2.905552
0.138100	-2.914315
0.138200	-3.168789
0.138300	-3.436572
0.138400	-3.465784
0.138500	-3.296351
0.138600	-3.130813
0.138700	-3.096407
0.138800	-3.139577
0.138900	-3.200923
0.139000	-3.184370
0.139100	-3.128866
0.139200	-3.104846
0.139300	-3.061677
0.139400	-3.036684
0.139500	-2.888024
0.139600	-2.691326
0.139700	-2.549159
0.139800	-2.519946
0.139900	-2.540070
0.140000	-2.545264
0.140100	-2.390113
0.140200	-2.206074
0.140300	-2.121358
0.140400	-1.832804
0.140500	-1.853577
0.140600	-1.797749
0.140700	-1.723744
0.140800	-1.563400
0.140900	-1.487448
0.141000	-1.304383
0.141100	-1.275495
0.141200	-1.253424
0.141300	-1.246608
0.141400	-1.266083
0.141500	-1.220641
0.141600	-1.273548
0.141700	-1.214474
0.141800	-1.207333
0.141900	-1.161892
0.142000	-1.177147
0.142100	-1.167409
0.142200	-1.266083
0.142300	-1.243037
0.142400	-1.147935
0.142500	-0.711696
0.142600	-0.585759
0.142700	-0.596470
0.142800	-1.126837
0.142900	-1.219343
0.143000	-1.133328
0.143100	-0.705205
0.143200	-0.535773
0.143300	-0.475401
0.143400	-0.708126
0.143500	-0.884698
0.143600	-0.896059
0.143700	-0.677615
0.143800	-0.459172
0.143900	-0.319277
0.144000	-0.370561
0.144100	-0.417950
0.144200	-0.495525
0.144300	-0.465339
0.144400	-0.443267
0.144500	-0.391009
0.144600	-0.369912
0.144700	-0.379649
0.144800	-0.399449
0.144900	-0.464365
0.145000	-0.505587
0.145100	-0.537720
0.145200	-0.740909
0.145300	-0.705205
0.145400	-0.651649
0.145500	-0.586732
0.145600	-0.723381
0.145700	-1.038226
0.145800	-1.218693
0.145900	-1.061596
0.146000	-0.803553
0.146100	-0.630875
0.146200	-0.852240
0.146300	-1.182016
0.146400	-1.383906
0.146500	-1.243037
0.146600	-0.990512
0.146700	-0.839582
0.146800	-0.925271
0.146900	-1.146312
0.147000	-1.249529
0.147100	-1.174226
0.147200	-1.125863
0.147300	-1.077176
0.147400	-1.170006
0.147500	-1.252775
0.147600	-1.306980
0.147700	-1.305032
0.147800	-1.310550
0.147900	-1.342684
0.148000	-1.376116
0.148100	-1.366378
0.148200	-1.372221
0.148300	-1.351123
0.148400	-1.414417
0.148500	-1.602350
0.148600	-1.660126
0.148700	-1.689663
0.148800	-1.521529
0.148900	-1.571190
0.149000	-1.647791
0.149100	-1.641949
0.149200	-1.671486
0.149300	-1.643572
0.149400	-1.701348
0.149500	-1.724718
0.149600	-1.726340
0.149700	-1.765940
0.149800	-1.780546
0.149900	-1.815925
0.150000	-1.814302
0.150100	-1.843839
0.150200	-1.895123
0.150300	-1.913300
0.150400	-1.949978
0.150500	-1.980164
0.150600	-2.004508
0.150700	-2.064880
0.150800	-2.285272
0.150900	-2.635822
0.151000	-2.703985
0.151100	-2.475154
0.151200	-2.234313
0.151300	-2.217110
0.151400	-2.469311
0.151500	-2.838687
0.151600	-3.001304
0.151700	-2.886401
0.151800	-2.613751
0.151900	-2.547860
0.152000	-2.601741
0.152100	-2.845828
0.152200	-2.965600
0.152300	-3.005848
0.152400	-2.902306
0.152500	-2.854267
0.152600	-2.788052
0.152700	-2.813370
0.152800	-2.844205
0.152900	-2.834143
0.153000	-2.855566
0.153100	-2.816940
0.153200	-2.857189
0.153300	-2.854592
0.153400	-2.886401
0.153500	-2.882506
0.153600	-2.906201
0.153700	-2.987671
0.153800	-3.031166
0.153900	-2.956836
0.154000	-2.744558
0.154100	-2.646209
0.154200	-2.791947
0.154300	-3.127892
0.154400	-3.303167
0.154500	-3.232408
0.154600	-2.951967
0.154700	-2.753322
0.154800	-2.848425
0.154900	-3.158078
0.155000	-3.397297
0.155100	-3.448581
0.155200	-3.306413
0.155300	-3.167816
0.155400	-3.137629
0.155500	-3.176904
0.155600	-3.225267
0.155700	-3.229487
0.155800	-3.197028
0.155900	-3.167491
0.156000	-3.096083
0.156100	-3.003251
0.156200	-2.818888
0.156300	-2.638095
0.156400	-2.568958
0.156500	-2.542018
0.156600	-2.505340
0.156700	-2.505664
0.156800	-2.284623
0.156900	-2.159009
0.157000	-1.979190
0.157100	-1.812679
0.157200	-1.779572
0.157300	-1.723095
0.157400	-1.609815
0.157500	-1.425777
0.157600	-1.226808
0.157700	-1.118722
0.157800	-1.042770
0.157900	-0.970388
0.158000	-0.967142
0.158100	-0.896059
0.158200	-0.955133
0.158300	-0.864899
0.158400	-0.869119
0.158500	-0.782780
0.158600	-0.790894
0.158700	-0.773367
0.158800	-0.862951
0.158900	-0.897033
0.159000	-0.817835
0.159100	-0.647104
0.159200	-0.301749
0.159300	-0.162179
0.159400	-0.295582
0.159500	-0.883725
0.159600	-0.867496
0.159700	-0.682808
0.159800	-0.472155
0.159900	-0.240403
0.160000	-0.388737
0.160100	-0.470207
0.160200	-0.799333
0.160300	-0.656517
0.160400	-0.600040
0.160500	-0.406914
0.160600	-0.356604
0.160700	-0.355305
0.160800	-0.377702
0.160900	-0.476050
0.161000	-0.466962
0.161100	-0.476699
0.161200	-0.492279
0.161300	-0.439697
0.161400	-0.459496
0.161500	-0.474752
0.161600	-0.573424
0.161700	-0.684431
0.161800	-0.744804
0.161900	-0.855811
0.162000	-0.761357
0.162100	-0.710723
0.162200	-0.710073
0.162300	-0.897357
0.162400	-1.257643
0.162500	-1.214149
0.162600	-0.999601
0.162700	-0.794140
0.162800	-0.822379
0.162900	-1.063868
0.163000	-1.395266
0.163100	-1.459858
0.163200	-1.350149
0.163300	-1.109958
0.163400	-1.060297
0.163500	-1.173901
0.163600	-1.320288
0.163700	-1.341061
0.163800	-1.352097
0.163900	-1.289452
0.164000	-1.311849
0.164100	-1.343333
0.164200	-1.436813
0.164300	-1.489720
0.164400	-1.450770
0.164500	-1.451744
0.164600	-1.500431
0.164700	-1.514713
0.164800	-1.484851
0.164900	-1.461157
0.165000	-1.398512
0.165100	-1.496536
0.165200	-1.672460
0.165300	-1.694531
0.165400	-1.657854
0.165500	-1.492641
0.165600	-1.552689
0.165700	-1.604947
0.165800	-1.582875
0.165900	-1.588068
0.166000	-1.556908
0.166100	-1.546197
0.166200	-1.556584
0.166300	-1.521204
0.166400	-1.537758
0.166500	-1.487448
0.166600	-1.478359
0.166700	-1.455314
0.166800	-1.455963
0.166900	-1.460507
0.167000	-1.427725
0.167100	-1.447199
0.167200	-1.417013
0.167300	-1.526722
0.167400	-1.590340
0.167500	-1.946408
0.167600	-2.171668
0.167700	-2.115840
0.167800	-1.869481
0.167900	-1.598130
0.168000	-1.743868
0.168100	-2.074942
0.168200	-2.470285
0.168300	-2.536500
0.168400	-2.404070
0.168500	-2.224575
0.168600	-2.183353
0.168700	-2.407640
0.168800	-2.608233
0.168900	-2.708854
0.169000	-2.661465
0.169100	-2.605961
0.169200	-2.629331
0.169300	-2.688080
0.169400	-2.789675
0.169500	-2.773771
0.169600	-2.764682
0.169700	-2.767279
0.169800	-2.848425
0.169900	-2.955213
0.170000	-3.046421
0.170100	-2.976636
0.170200	-2.973390
0.170300	-2.990268
0.170400	-3.074985
0.170500	-3.090240
0.170600	-3.020779
0.170700	-2.719240
0.170800	-2.790974
0.170900	-3.027920
0.171000	-3.305764
0.171100	-3.336600
0.171200	-3.189887
0.171300	-2.901332
0.171400	-2.843556
0.171500	-3.000330
0.171600	-3.284017
0.171700	-3.451503
0.171800	-3.379120
0.171900	-3.203195
0.172000	-3.075958
0.172100	-3.074660
0.172200	-3.136331
0.172300	-3.205792
0.172400	-3.168789
0.172500	-3.090565
0.172600	-2.994488
0.172700	-2.952941
0.172800	-2.870821
0.172900	-2.700739
0.173000	-2.523192
0.173100	-2.417053
0.173200	-2.405368
0.173300	-2.341101
0.173400	-2.304098
0.173500	-2.059687
0.173600	-1.939267
0.173700	-1.600727
0.173800	-1.606569
0.173900	-1.569892
0.174000	-1.490694
0.174100	-1.355343
0.174200	-1.230378
0.174300	-0.992784
0.174400	-0.999276
0.174500	-0.920078
0.174600	-0.960975
0.174700	-0.942474
0.174800	-0.922025
0.174900	-0.999601
0.175000	-0.872689
0.175100	-0.950589
0.175200	-0.860679
0.175300	-0.968441
0.175400	-0.914235
0.175500	-1.039849
0.175600	-0.987916
0.175700	-0.946369
0.175800	-0.750646
0.175900	-0.400098
0.176000	-0.282924
0.176100	-0.771095
0.176200	-1.071658
0.176300	-1.012259
0.176400	-0.757138
0.176500	-0.549405
0.176600	-0.307592
0.176700	-0.515324
0.176800	-0.690274
0.176900	-0.833739
0.177000	-0.700985
0.177100	-0.508833
0.177200	-0.374780
0.177300	-0.335506
0.177400	-0.307916
0.177500	-0.378351
0.177600	-0.364394
0.177700	-0.335181
0.177800	-0.301100
0.177900	-0.300451
0.178000	-0.259878
0.178100	-0.280976
0.178200	-0.304671
0.178300	-0.362446
0.178400	-0.439048
0.178500	-0.432556
0.178600	-0.522140
0.178700	-0.432231
0.178800	-0.427363
0.178900	-0.390036
0.179000	-0.709749
0.179100	-0.984994
0.179200	-0.934360
0.179300	-0.678914
0.179400	-0.567582
0.179500	-0.630226
0.179600	-0.915858
0.179700	-1.222264
0.179800	-1.202464
0.179900	-1.037252
0.180000	-0.842178
0.180100	-0.875610
0.180200	-1.119371
0.180300	-1.292698
0.180400	-1.282961
0.180500	-1.299839
0.180600	-1.238818
0.180700	-1.342359
0.180800	-1.369949
0.180900	-1.441682
0.181000	-1.480956
0.181100	-1.451094
0.181200	-1.472517
0.181300	-1.498483
0.181400	-1.473815
0.181500	-1.393968
0.181600	-1.332622
0.181700	-1.294321
0.181800	-1.409872
0.181900	-1.501080
0.182000	-1.484526
0.182100	-1.406627
0.182200	-1.270627
0.182300	-1.317691
0.182400	-1.302436
0.182500	-1.238168
0.182600	-1.227457
0.182700	-1.223562
0.182800	-1.196297
0.182900	-1.193701
0.183000	-1.175524
0.183100	-1.209605
0.183200	-1.198569
0.183300	-1.252125
0.183400	-1.242063
0.183500	-1.317367
0.183600	-1.280364
0.183700	-1.387801
0.183800	-1.378388
0.183900	-1.443629
0.184000	-1.479658
0.184100	-1.619228
0.184200	-2.048327
0.184300	-2.195687
0.184400	-2.155764
0.184500	-1.817548
0.184600	-1.716928
0.184700	-1.943811
0.184800	-2.349215
0.184900	-2.649130
0.185000	-2.631278
0.185100	-2.396929
0.185200	-2.267745
0.185300	-2.389788
0.185400	-2.611154
0.185500	-2.817914
0.185600	-2.926325
0.185700	-2.914965
0.185800	-2.864654
0.185900	-2.900683
0.186000	-2.964301
0.186100	-2.982478
0.186200	-3.019805
0.186300	-3.029543
0.186400	-3.114584
0.186500	-3.187291
0.186600	-3.242146
0.186700	-3.229811
0.186800	-3.192809
0.186900	-3.194432
0.187000	-3.252532
0.187100	-3.277201
0.187200	-3.205792
0.187300	-2.991242
0.187400	-2.827002
0.187500	-2.903280
0.187600	-3.120102
0.187700	-3.346337
0.187800	-3.382366
0.187900	-3.105171
0.188000	-2.843881
0.188100	-2.833494
0.188200	-3.128541
0.188300	-3.364189
0.188400	-3.416448
0.188500	-3.291482
0.188600	-3.119453
0.188700	-3.042851
0.188800	-3.069791
0.188900	-3.140226
0.189000	-3.158403
0.189100	-3.105820
0.189200	-3.084073
0.189300	-3.045447
0.189400	-3.004874
0.189500	-2.901981
0.189600	-2.681913
0.189700	-2.544290
0.189800	-2.506314
0.189900	-2.493655
0.190000	-2.517674
0.190100	-2.327468
0.190200	-2.131744
0.190300	-2.063582
0.190400	-1.753281
0.190500	-1.794827
0.190600	-1.708813
0.190700	-1.649739
0.190800	-1.483877
0.190900	-1.375142
0.191000	-1.245309
0.191100	-1.205386
0.191200	-1.173901
0.191300	-1.257643
0.191400	-1.170655
0.191500	-1.237519
0.191600	-1.194025
0.191700	-1.232001
0.191800	-1.143390
0.191900	-1.191753
0.192000	-1.155400
0.192100	-1.196297
0.192200	-1.166111
0.192300	-1.161567
0.192400	-1.124240
0.192500	-0.676641
0.192600	-0.374780
0.192700	-0.416651
0.192800	-0.747076
0.192900	-1.038226
0.193000	-0.736689
0.193100	-0.541615
0.193200	-0.164776
0.193300	-0.195611
0.193400	-0.344919
0.193500	-0.543563
0.193600	-0.528957
0.193700	-0.255334
0.193800	-0.059287
0.193900	-0.000213
0.194000	-0.097588
0.194100	-0.141081
0.194200	-0.239105
0.194300	-0.175163
0.194400	-0.130370
0.194500	-0.144003
0.194600	-0.172241
0.194700	-0.188146
0.194800	-0.212165
0.194900	-0.336480
0.195000	-0.342647
0.195100	-0.465014
0.195200	-0.540966
0.195300	-0.601338
0.195400	-0.406914
0.195500	-0.428985
0.195600	-0.444890
0.195700	-0.916183
0.195800	-0.970388
0.195900	-0.932412
0.196000	-0.654570
0.196100	-0.501367
0.196200	-0.632823
0.196300	-1.020049
0.196400	-1.193051
0.196500	-1.119696
0.196600	-0.867496
0.196700	-0.700660
0.196800	-0.804202
0.196900	-1.027839
0.197000	-1.133004
0.197100	-1.105090
0.197200	-1.069061
0.197300	-1.011935
0.197400	-1.110283
0.197500	-1.173901
0.197600	-1.164488
0.197700	-1.141118
0.197800	-1.164813
0.197900	-1.211877
0.198000	-1.250178
0.198100	-1.237844
0.198200	-1.212526
0.198300	-1.160918
0.198400	-1.230054
0.198500	-1.435190
0.198600	-1.508221
0.198700	-1.507572
0.198800	-1.516660
0.198900	-1.498159
0.199000	-1.518283
0.199100	-1.520555
0.199200	-1.522827
0.199300	-1.508221
0.199400	-1.530942
0.199500	-1.552040
0.199600	-1.554636
0.199700	-1.566970
0.199800	-1.584173
0.199900	-1.612087
0.200000	-1.610140
0.200100	-1.648441
0.200200	-1.652660
0.200300	-1.710111
0.200400	-1.737701
0.200500	-1.806512
0.200600	-1.866885
0.200700	-1.908756
0.200800	-2.190169
0.200900	-2.514428
0.201000	-2.700739
0.201100	-2.386867
0.201200	-2.152193
0.201300	-2.085329
0.201400	-2.349864
0.201500	-2.803308
0.201600	-2.968846
0.201700	-2.851995
0.201800	-2.537149
0.201900	-2.431335
0.202000	-2.526113
0.202100	-2.733847
0.202200	-2.917886
0.202300	-2.879260
0.202400	-2.788701
0.202500	-2.662438
0.202600	-2.661465
0.202700	-2.699441
0.202800	-2.747155
0.202900	-2.763059
0.203000	-2.722486
0.203100	-2.759813
0.203200	-2.832845
0.203300	-2.915289
0.203400	-2.897437
0.203500	-2.885427
0.203600	-2.931518
0.203700	-2.956187
0.203800	-3.009419
0.203900	-2.948072
0.204000	-2.757217
0.204100	-2.640367
0.204200	-2.766954
0.204300	-3.064273
0.204400	-3.294404
0.204500	-3.216179
0.204600	-2.923404
0.204700	-2.708854
0.204800	-2.793246
0.204900	-3.050965
0.205000	-3.295053
0.205100	-3.324590
0.205200	-3.186966
0.205300	-2.983127
0.205400	-2.901007
0.205500	-2.895165
0.205600	-2.946774
0.205700	-2.948072
0.205800	-2.902306
0.205900	-2.884454
0.206000	-2.792596
0.206100	-2.712424
0.206200	-2.553378
0.206300	-2.386542
0.206400	-2.329091
0.206500	-2.304423
0.206600	-2.263201
0.206700	-2.258656
0.206800	-2.054494
0.206900	-1.920116
0.207000	-1.744517
0.207100	-1.609491
0.207200	-1.630264
0.207300	-1.605596
0.207400	-1.529968
0.207500	-1.407600
0.207600	-1.222913
0.207700	-1.146636
0.207800	-1.071982
0.207900	-1.109958
0.208000	-1.104765
0.208100	-1.082044
0.208200	-1.117424
0.208300	-1.034006
0.208400	-0.979152
0.208500	-0.949290
0.208600	-1.052507
0.208700	-0.958054
0.208800	-1.150531
0.208900	-1.011610
0.209000	-1.068737
0.209100	-0.752594
0.209200	-0.530580
0.209300	-0.192041
0.209400	-0.433854
0.209500	-0.975257
0.209600	-0.909367
0.209700	-0.936307
0.209800	-0.359850
0.209900	-0.178084
0.210000	-0.187497
0.210100	-0.358227
0.210200	-0.537396
0.210300	-0.503315
0.210400	-0.295907
0.210500	-0.097912
0.210600	-0.036242
0.210700	-0.032671
0.210800	-0.013196
0.210900	-0.073244
0.211000	-0.007029
0.211100	-0.024557
0.211200	0.033543
0.211300	0.051395
0.211400	0.078336
0.211500	0.023157
0.211600	0.046202
0.211700	-0.136862
0.211800	-0.116413
0.211900	-0.182628
0.212000	-0.148547
0.212100	-0.078437
0.212200	-0.134914
0.212300	-0.257931
0.212400	-0.705205
0.212500	-0.619190
0.212600	-0.546809
0.212700	-0.263449
0.212800	-0.262800
0.212900	-0.459821
0.213000	-0.816212
0.213100	-0.920402
0.213200	-0.865548
0.213300	-0.622112
0.213400	-0.573100
0.213500	-0.688002
0.213600	-0.860679
0.213700	-0.915534
0.213800	-0.971362
0.213900	-0.980126
0.214000	-1.011935
0.214100	-1.069061
0.214200	-1.120345
0.214300	-1.186235
0.214400	-1.209605
0.214500	-1.261214
0.214600	-1.326455
0.214700	-1.321911
0.214800	-1.252125
0.214900	-1.235247
0.215000	-1.211877
0.215100	-1.291725
0.215200	-1.470569
0.215300	-1.485176
0.215400	-1.470569
0.215500	-1.269653
0.215600	-1.316068
0.215700	-1.362808
0.215800	-1.344631
0.215900	-1.382932
0.216000	-1.376440
0.216100	-1.405977
0.216200	-1.442655
0.216300	-1.457586
0.216400	-1.518608
0.216500	-1.571190
0.216600	-1.593586
0.216700	-1.642274
0.216800	-1.650388
0.216900	-1.689987
0.217000	-1.732508
0.217100	-1.771457
0.217200	-1.833128
0.217300	-1.916871
0.217400	-2.003210
0.217500	-2.282026
0.217600	-2.665360
0.217700	-2.527087
0.217800	-2.324547
0.217900	-2.019439
0.218000	-2.079487
0.218100	-2.426791
0.218200	-2.798114
0.218300	-2.828950
0.218400	-2.635498
0.218500	-2.408614
0.218600	-2.343048
0.218700	-2.509559
0.218800	-2.773446
0.218900	-2.868224
0.219000	-2.818563
0.219100	-2.771174
0.219200	-2.781561
0.219300	-2.790000
0.219400	-2.828301
0.219500	-2.802983
0.219600	-2.823107
0.219700	-2.820835
0.219800	-2.888998
0.219900	-2.974688
0.220000	-2.965275
0.220100	-2.954239
0.220200	-2.895814
0.220300	-2.982803
0.220400	-3.065896
0.220500	-3.090240
0.220600	-3.039280
0.220700	-2.824730
0.220800	-2.833819
0.220900	-3.055185
0.221000	-3.369707
0.221100	-3.584583
0.221200	-3.436896
0.221300	-3.172684
0.221400	-3.111987
0.221500	-3.285640
0.221600	-3.574845
0.221700	-3.764727
0.221800	-3.746875
0.221900	-3.607304
0.222000	-3.452801
0.222100	-3.432028
0.222200	-3.438195
0.222300	-3.434300
0.222400	-3.354452
0.222500	-3.294404
0.222600	-3.230785
0.222700	-3.127892
0.222800	-3.004225
0.222900	-2.755594
0.223000	-2.517999
0.223100	-2.401798
0.223200	-2.337530
0.223300	-2.269692
0.223400	-2.163229
0.223500	-1.865262
0.223600	-1.715629
0.223700	-1.401109
0.223800	-1.306655
0.223900	-1.247257
0.224000	-1.165137
0.224100	-1.018426
0.224200	-0.902226
0.224300	-0.711372
0.224400	-0.672746
0.224500	-0.609128
0.224600	-0.638016
0.224700	-0.606532
0.224800	-0.564336
0.224900	-0.605233
0.225000	-0.569529
0.225100	-0.523114
0.225200	-0.515000
0.225300	-0.493902
0.225400	-0.614322
0.225500	-0.566933
0.225600	-0.703582
0.225700	-0.561415
0.225800	-0.405616
0.225900	0.027376
0.226000	0.031921
0.226100	-0.240403
0.226200	-0.716565
0.226300	-0.623735
0.226400	-0.386141
0.226500	-0.073244
0.226600	0.104951
0.226700	0.016990
0.226800	-0.199506
0.226900	-0.378026
0.227000	-0.220929
0.227100	0.014718
0.227200	0.129944
0.227300	0.103653
0.227400	0.012446
0.227500	0.048799
0.227600	-0.049225
0.227700	-0.019688
0.227800	-0.013845
0.227900	-0.013521
0.228000	-0.069349
0.228100	-0.045005
0.228200	0.014718
0.228300	-0.102132
0.228400	-0.207296
0.228500	-0.295582
0.228600	-0.414704
0.228700	-0.288766
0.228800	-0.215735
0.228900	-0.184900
0.229000	-0.505911
0.229100	-0.725653
0.229200	-0.748699
0.229300	-0.571801
0.229400	-0.248843
0.229500	-0.351735
0.229600	-0.589978
0.229700	-0.889243
0.229800	-0.910340
0.229900	-0.795438
0.230000	-0.592250
0.230100	-0.583486
0.230200	-0.748049
0.230300	-0.916832
0.230400	-0.952212
0.230500	-0.939877
0.230600	-0.897357
0.230700	-0.976231
0.230800	-1.033682
0.230900	-1.128460
0.231000	-1.159295
0.231100	-1.156374
0.231200	-1.181691
0.231300	-1.238818
0.231400	-1.257643
0.231500	-1.200841
0.231600	-1.179744
0.231700	-1.146961
0.231800	-1.298541
0.231900	-1.439734
0.232000	-1.430321
0.232100	-1.356316
0.232200	-1.265433
0.232300	-1.313796
0.232400	-1.350149
0.232500	-1.304708
0.232600	-1.343658
0.232700	-1.312173
0.232800	-1.311849
0.232900	-1.321586
0.233000	-1.305357
0.233100	-1.327753
0.233200	-1.327429
0.233300	-1.348526
0.233400	-1.378388
0.233500	-1.380660
0.233600	-1.438436
0.233700	-1.463104
0.233800	-1.478684
0.233900	-1.569892
0.234000	-1.626369
0.234100	-1.786064
0.234200	-2.152842
0.234300	-2.471259
0.234400	-2.368041
0.234500	-2.075267
0.234600	-1.884088
0.234700	-2.023658
0.234800	-2.479698
0.234900	-2.820511
0.235000	-2.826029
0.235100	-2.599794
0.235200	-2.434905
0.235300	-2.457626
0.235400	-2.700415
0.235500	-2.917237
0.235600	-3.039605
0.235700	-2.981180
0.235800	-2.921132
0.235900	-2.968196
0.236000	-3.008769
0.236100	-3.080827
0.236200	-3.072388
0.236300	-3.075634
0.236400	-3.090240
0.236500	-3.164570
0.236600	-3.173983
0.236700	-3.166517
0.236800	-3.112312
0.236900	-3.140226
0.237000	-3.191835
0.237100	-3.287587
0.237200	-3.227215
0.237300	-3.035710
0.237400	-2.796816
0.237500	-2.911394
0.237600	-3.109391
0.237700	-3.379769
0.237800	-3.414500
0.237900	-3.192160
0.238000	-2.898411
0.238100	-2.875041
0.238200	-3.062650
0.238300	-3.323941
0.238400	-3.442739
0.238500	-3.350232
0.238600	-3.191510
0.238700	-3.085047
0.238800	-3.102574
0.238900	-3.197678
0.239000	-3.214880
0.239100	-3.178202
0.239200	-3.128866
0.239300	-3.067519
0.239400	-3.047395
0.239500	-2.930545
0.239600	-2.718591
0.239700	-2.592977
0.239800	-2.535202
0.239900	-2.534228
0.240000	-2.528061
0.240100	-2.413158
0.240200	-2.171344
0.240300	-2.075916
0.240400	-1.745815
0.240500	-1.762045
0.240600	-1.694856
0.240700	-1.588393
0.240800	-1.420908
0.240900	-1.295295
0.241000	-1.105739
0.241100	-1.053481
0.241200	-0.972011
0.241300	-0.985643
0.241400	-0.935333
0.241500	-0.886646
0.241600	-0.877882
0.241700	-0.841204
0.241800	-0.782131
0.241900	-0.819457
0.242000	-0.742532
0.242100	-0.856460
0.242200	-0.747076
0.242300	-0.811992
0.242400	-0.726302
0.242500	-0.382246
0.242600	-0.087525
0.242700	-0.057339
0.242800	-0.546160
0.242900	-0.791219
0.243000	-0.718837
0.243100	-0.425415
0.243200	-0.112518
0.243300	-0.033645
0.243400	-0.203726
0.243500	-0.506236
0.243600	-0.570828
0.243700	-0.341998
0.243800	-0.154714
0.243900	0.016665
0.244000	-0.091745
0.244100	-0.070972
0.244200	-0.168996
0.244300	-0.117712
0.244400	-0.111869
0.244500	-0.054743
0.244600	-0.071621
0.244700	-0.085903
0.244800	-0.030399
0.244900	-0.100509
0.245000	-0.291687
0.245100	-0.316031
0.245200	-0.422818
0.245300	-0.426389
0.245400	-0.326418
0.245500	-0.345243
0.245600	-0.383544
0.245700	-0.746102
0.245800	-0.919753
0.245900	-0.826598
0.246000	-0.619840
0.246100	-0.430608
0.246200	-0.581214
0.246300	-0.886646
0.246400	-1.156049
0.246500	-1.120670
0.246600	-0.925920
0.246700	-0.733443
0.246800	-0.795763
0.246900	-1.039849
0.247000	-1.154751
0.247100	-1.119696
0.247200	-1.110283
0.247300	-1.035629
0.247400	-1.125538
0.247500	-1.184612
0.247600	-1.281662
0.247700	-1.290102
0.247800	-1.284584
0.247900	-1.312498
0.248000	-1.318989
0.248100	-1.339763
0.248200	-1.277443
0.248300	-1.246283
0.248400	-1.244335
0.248500	-1.422531
0.248600	-1.500756
0.248700	-1.489720
0.248800	-1.272250
0.248900	-1.308927
0.249000	-1.364756
0.249100	-1.354693
0.249200	-1.326455
0.249300	-1.318665
0.249400	-1.315094
0.249500	-1.288154
0.249600	-1.294321
0.249700	-1.285882
0.249800	-1.270302
0.249900	-1.293347
0.250000	-1.270627
0.250100	-1.267056
0.250200	-1.188832
0.250300	-1.238818
0.250400	-1.203114
0.250500	-1.266407
0.250600	-1.289128
0.250700	-1.347228
0.250800	-1.572488
0.250900	-1.959066
0.251000	-2.100260
0.251100	-1.911677
0.251200	-1.646169
0.251300	-1.454665
0.251400	-1.757500
0.251500	-2.191143
0.251600	-2.472881
0.251700	-2.423545
0.251800	-2.188871
0.251900	-2.058713
0.252000	-2.155114
0.252100	-2.419974
0.252200	-2.609856
0.252300	-2.709828
0.252400	-2.675422
0.252500	-2.608557
0.252600	-2.665684
0.252700	-2.757866
0.252800	-2.825055
0.252900	-2.889972
0.253000	-2.860434
0.253100	-2.895165
0.253200	-2.973714
0.253300	-2.988970
0.253400	-3.070116
0.253500	-3.023051
0.253600	-3.016559
0.253700	-3.056483
0.253800	-3.074985
0.253900	-3.094784
0.254000	-2.899060
0.254100	-2.778315
0.254200	-2.884778
0.254300	-3.135682
0.254400	-3.409631
0.254500	-3.367435
0.254600	-3.123997
0.254700	-2.912368
0.254800	-2.965275
0.254900	-3.238251
0.255000	-3.521938
0.255100	-3.626779
0.255200	-3.512849
0.255300	-3.339196
0.255400	-3.338547
0.255500	-3.389832
0.255600	-3.502463
0.255700	-3.502138
0.255800	-3.454099
0.255900	-3.397297
0.256000	-3.326213
0.256100	-3.252208
0.256200	-3.048044
0.256300	-2.844530
0.256400	-2.736119
0.256500	-2.659842
0.256600	-2.583564
0.256700	-2.511832
0.256800	-2.271640
0.256900	-2.061310
0.257000	-1.924011
0.257100	-1.628316
0.257200	-1.567944
0.257300	-1.479982
0.257400	-1.357615
0.257500	-1.181367
0.257600	-0.992784
0.257700	-0.856135
0.257800	-0.801281
0.257900	-0.788298
0.258000	-0.772718
0.258100	-0.754541
0.258200	-0.721758
0.258300	-0.717863
0.258400	-0.632498
0.258500	-0.629902
0.258600	-0.606532
0.258700	-0.668527
0.258800	-0.736040
0.258900	-0.778560
0.259000	-0.762980
0.259100	-0.600689
0.259200	-0.277406
0.259300	-0.035917
0.259400	-0.201454
0.259500	-0.690923
0.259600	-0.911963
0.259700	-0.786026
0.259800	-0.397826
0.259900	-0.180031
0.260000	-0.258255
0.260100	-0.461119
0.260200	-0.695143
0.260300	-0.664956
0.260400	-0.538370
0.260500	-0.305644
0.260600	-0.300451
0.260700	-0.353358
0.260800	-0.404966
0.260900	-0.380298
0.261000	-0.358551
0.261100	-0.338752
0.261200	-0.303372
0.261300	-0.272862
0.261400	-0.224824
0.261500	-0.237158
0.261600	-0.229043
0.261700	-0.426064
0.261800	-0.286494
0.261900	-0.452355
0.262000	-0.393606
0.262100	-0.286170
0.262200	-0.345568
0.262300	-0.389711
0.262400	-0.820756
0.262500	-0.764928
0.262600	-0.723706
0.262700	-0.455277
0.262800	-0.377377
0.262900	-0.564661
0.263000	-0.871391
0.263100	-1.031085
0.263200	-0.957080
0.263300	-0.736040
0.263400	-0.642560
0.263500	-0.760384
0.263600	-0.999601
0.263700	-1.116450
0.263800	-1.073930
0.263900	-1.103467
0.264000	-1.057052
0.264100	-1.142741
0.264200	-1.160918
0.264300	-1.115801
0.264400	-1.098923
0.264500	-1.128784
0.264600	-1.186235
0.264700	-1.222913
0.264800	-1.177796
0.264900	-1.132030
0.265000	-1.117099
0.265100	-1.189806
0.265200	-1.372870
0.265300	-1.387476
0.265400	-1.371247
0.265500	-1.359562
0.265600	-1.305032
0.265700	-1.317367
0.265800	-1.293997
0.265900	-1.282636
0.266000	-1.284908
0.266100	-1.288479
0.266200	-1.276469
0.266300	-1.255047
0.266400	-1.269653
0.266500	-1.286531
0.266600	-1.279066
0.266700	-1.276145
0.266800	-1.261538
0.266900	-1.261863
0.267000	-1.244660
0.267100	-1.209930
0.267200	-1.255696
0.267300	-1.268355
0.267400	-1.345281
0.267500	-1.664994
0.267600	-1.992823
0.267700	-2.024632
0.267800	-1.713357
0.267900	-1.514713
0.268000	-1.519581
0.268100	-1.994770
0.268200	-2.394008
0.268300	-2.528061
0.268400	-2.395955
0.268500	-2.184327
0.268600	-2.228795
0.268700	-2.405044
0.268800	-2.675746
0.268900	-2.840310
0.269000	-2.865628
0.269100	-2.809150
0.269200	-2.795193
0.269300	-2.860434
0.269400	-2.945800
0.269500	-2.965924
0.269600	-3.008445
0.269700	-3.006497
0.269800	-3.030517
0.269900	-3.065896
0.270000	-3.096407
0.270100	-3.032464
0.270200	-3.009743
0.270300	-2.996111
0.270400	-3.069467
0.270500	-3.077257
0.270600	-3.002927
0.270700	-2.751699
0.270800	-2.689703
0.270900	-2.849723
0.271000	-3.114908
0.271100	-3.284666
0.271200	-3.118154
0.271300	-2.790974
0.271400	-2.655297
0.271500	-2.780262
0.271600	-3.049342
0.271700	-3.235978
0.271800	-3.226241
0.271900	-3.075309
0.272000	-2.917561
0.272100	-2.896463
0.272200	-2.953266
0.272300	-2.989944
0.272400	-2.946774
0.272500	-2.907824
0.272600	-2.883155
0.272700	-2.833169
0.272800	-2.724109
0.272900	-2.529034
0.273000	-2.352136
0.273100	-2.287220
0.273200	-2.283325
0.273300	-2.265473
0.273400	-2.205749
0.273500	-1.974646
0.273600	-1.844164
0.273700	-1.568593
0.273800	-1.528020
0.273900	-1.533538
0.274000	-1.479982
0.274100	-1.391047
0.274200	-1.244335
0.274300	-1.106388
0.274400	-1.066140
0.274500	-1.022321
0.274600	-1.046016
0.274700	-1.087562
0.274800	-1.050235
0.274900	-1.094703
0.275000	-1.029462
0.275100	-0.961300
0.275200	-0.958379
0.275300	-0.908068
0.275400	-0.958054
0.275500	-0.972011
0.275600	-1.001548
0.275700	-1.014856
0.275800	-0.705205
0.275900	-0.481568
0.276000	-0.193664
0.276100	-0.635744
0.276200	-0.914885
0.276300	-0.962923
0.276400	-0.679563
0.276500	-0.384842
0.276600	-0.181005
0.276700	-0.294933
0.276800	-0.567257
0.276900	-0.715916
0.277000	-0.546160
0.277100	-0.366990
0.277200	-0.131344
0.277300	-0.145950
0.277400	-0.139134
0.277500	-0.252738
0.277600	-0.212489
0.277700	-0.180680
0.277800	-0.109272
0.277900	-0.068700
0.278000	-0.102456
0.278100	-0.072595
0.278200	-0.142380
0.278300	-0.191067
0.278400	-0.305969
0.278500	-0.345568
0.278600	-0.440995
0.278700	-0.399773
0.278800	-0.305644
0.278900	-0.371210
0.279000	-0.567257
0.279100	-0.953510
0.279200	-0.837634
0.279300	-0.742207
0.279400	-0.406589
0.279500	-0.535448
0.279600	-0.755190
0.279700	-1.091457
0.279800	-1.096975
0.279900	-0.952536
0.280000	-0.704555
0.280100	-0.711696
0.280200	-0.870417
0.280300	-1.028164
0.280400	-1.026541
0.280500	-1.010312
0.280600	-0.996355
0.280700	-1.021023
0.280800	-1.083018
0.280900	-1.132030
0.281000	-1.152803
0.281100	-1.122942
0.281200	-1.147285
0.281300	-1.199543
0.281400	-1.216421
0.281500	-1.162216
0.281600	-1.125538
0.281700	-1.097949
0.281800	-1.224861
0.281900	-1.408899
0.282000	-1.414741
0.282100	-1.414417
0.282200	-1.248555
0.282300	-1.339114
0.282400	-1.394293
0.282500	-1.423830
0.282600	-1.467973
0.282700	-1.491992
0.282800	-1.517958
0.282900	-1.525748
0.283000	-1.557233
0.283100	-1.599104
0.283200	-1.623772
0.283300	-1.666293
0.283400	-1.675056
0.283500	-1.721472
0.283600	-1.747763
0.283700	-1.781520
0.283800	-1.814627
0.283900	-1.851629
0.284000	-1.910054
0.284100	-1.999964
0.284200	-2.373234
0.284300	-2.626734
0.284400	-2.530333
0.284500	-2.216461
0.284600	-1.987305
0.284700	-2.093444
0.284800	-2.471259
0.284900	-2.818888
0.285000	-2.849074
0.285100	-2.607584
0.285200	-2.363172
0.285300	-2.355707
0.285400	-2.576424
0.285500	-2.821809
0.285600	-2.955213
0.285700	-2.935413
0.285800	-2.845179
0.285900	-2.858812
0.286000	-2.874067
0.286100	-2.926650
0.286200	-2.988645
0.286300	-2.974363
0.286400	-2.981180
0.286500	-3.022402
0.286600	-3.098679
0.286700	-3.072388
0.286800	-3.081152
0.286900	-3.049342
0.287000	-3.131462
0.287100	-3.213582
0.287200	-3.241821
0.287300	-3.073037
0.287400	-2.812071
0.287500	-2.904578
0.287600	-3.127243
0.287700	-3.390156
0.287800	-3.517069
0.287900	-3.302843
0.288000	-3.030517
0.288100	-2.958134
0.288200	-3.133734
0.288300	-3.421641
0.288400	-3.636841
0.288500	-3.588478
0.288600	-3.419693
0.288700	-3.295053
0.288800	-3.262919
0.288900	-3.328485
0.289000	-3.376199
0.289100	-3.352504
0.289200	-3.284991
0.289300	-3.219100
0.289400	-3.103223
0.289500	-2.925676
0.289600	-2.703336
0.289700	-2.542018
0.289800	-2.480022
0.289900	-2.424519
0.290000	-2.369989
0.290100	-2.255086
0.290200	-1.958417
0.290300	-1.829233
0.290400	-1.496861
0.290500	-1.493939
0.290600	-1.434865
0.290700	-1.355018
0.290800	-1.198245
0.290900	-1.057376
0.291000	-0.850617
0.291100	-0.771744
0.291200	-0.725653
0.291300	-0.687028
0.291400	-0.696441
0.291500	-0.639964
0.291600	-0.676641
0.291700	-0.584136
0.291800	-0.593873
0.291900	-0.586083
0.292000	-0.593873
0.292100	-0.651324
0.292200	-0.668527
0.292300	-0.734417
0.292400	-0.636393
0.292500	-0.453654
0.292600	-0.066103
0.292700	-0.083306
0.292800	-0.490331
0.292900	-0.805176
0.293000	-0.822703
0.293100	-0.463716
0.293200	-0.246895
0.293300	-0.066428
0.293400	-0.285196
0.293500	-0.518245
0.293600	-0.598742
0.293700	-0.480269
0.293800	-0.217683
0.293900	-0.115115
0.294000	-0.182628
0.294100	-0.221578
0.294200	-0.264747
0.294300	-0.264423
0.294400	-0.223201
0.294500	-0.142704
0.294600	-0.161530
0.294700	-0.140108
0.294800	-0.141731
0.294900	-0.058962
0.295000	-0.343296
0.295100	-0.215411
0.295200	-0.442618
0.295300	-0.309864
0.295400	-0.358551
0.295500	-0.231315
0.295600	-0.279678
0.295700	-0.584785
0.295800	-0.772718
0.295900	-0.765252
0.296000	-0.565634
0.296100	-0.383544
0.296200	-0.488059
0.296300	-0.828870
0.296400	-1.103467
0.296500	-1.096326
0.296600	-0.955457
0.296700	-0.716240
0.296800	-0.749348
0.296900	-0.905147
0.297000	-1.071658
0.297100	-1.035629
0.297200	-1.058674
0.297300	-0.976880
0.297400	-1.033357
0.297500	-1.102818
0.297600	-1.146312
0.297700	-1.134627
0.297800	-1.079772
0.297900	-1.101195
0.298000	-1.119371
0.298100	-1.112231
0.298200	-1.041147
0.298300	-0.990837
0.298400	-0.966169
0.298500	-1.125214
0.298600	-1.224861
0.298700	-1.224211
0.298800	-1.096975
0.298900	-1.055429
0.299000	-1.141443
0.299100	-1.143066
0.299200	-1.146312
0.299300	-1.189481
0.299400	-1.204412
0.299500	-1.228431
0.299600	-1.255047
0.299700	-1.295619
0.299800	-1.318016
0.299900	-1.339114
0.300000	-1.389099
0.300100	-1.390398
0.300200	-1.442331
0.300300	-1.454665
0.300400	-1.488097
0.300500	-1.499133
0.300600	-1.575734
0.300700	-1.626044
0.300800	-1.816574
0.300900	-2.233339
0.301000	-2.416404
0.301100	-2.333960
0.301200	-2.004508
0.301300	-1.859419
0.301400	-2.048002
0.301500	-2.520595
0.301600	-2.810124
0.301700	-2.745856
0.301800	-2.560519
0.301900	-2.415430
0.302000	-2.503717
0.302100	-2.767603
0.302200	-2.989294
0.302300	-3.027920
0.302400	-2.944826
0.302500	-2.937361
0.302600	-2.897437
0.302700	-2.997084
0.302800	-3.040254
0.302900	-3.039605
0.303000	-3.023700
0.303100	-3.032789
0.303200	-3.030192
0.303300	-3.101276
0.303400	-3.057457
0.303500	-3.003901
0.303600	-2.986698
0.303700	-3.000006
0.303800	-3.035385
0.303900	-2.990268
0.304000	-2.767928
0.304100	-2.607908
0.304200	-2.700090
0.304300	-2.959108
0.304400	-3.197353
0.304500	-3.205468
0.304600	-2.919833
0.304700	-2.703660
0.304800	-2.721837
0.304900	-2.943853
0.305000	-3.228838
0.305100	-3.352829
0.305200	-3.254804
0.305300	-3.057782
0.305400	-2.977285
0.305500	-3.024025
0.305600	-3.105496
0.305700	-3.130813
0.305800	-3.107118
0.305900	-3.084073
0.306000	-3.029218
0.306100	-2.980206
0.306200	-2.844530
0.306300	-2.681589
0.306400	-2.576748
0.306500	-2.544614
0.306600	-2.539097
0.306700	-2.514428
0.306800	-2.397254
0.306900	-2.179783
0.307000	-2.106102
0.307100	-1.775028
0.307200	-1.775677
0.307300	-1.724718
0.307400	-1.618904
0.307500	-1.454989
0.307600	-1.339438
0.307700	-1.170331
0.307800	-1.107686
0.307900	-1.079123
0.308000	-1.049262
0.308100	-1.036603
0.308200	-1.032383
0.308300	-0.966493
0.308400	-0.960651
0.308500	-0.840555
0.308600	-0.901252
0.308700	-0.792842
0.308800	-0.861978
0.308900	-0.837309
0.309000	-0.790570
0.309100	-0.845424
0.309200	-0.337129
0.309300	-0.225148
0.309400	-0.064480
0.309500	-0.629577
0.309600	-0.860679
0.309700	-0.656517
0.309800	-0.501367
0.309900	-0.109922
0.310000	-0.122580
0.310100	-0.306618
0.310200	-0.547133
0.310300	-0.667229
0.310400	-0.375754
0.310500	-0.269940
0.310600	-0.079086
0.310700	-0.180680
0.310800	-0.192041
0.310900	-0.282275
0.311000	-0.328365
0.311100	-0.288442
0.311200	-0.239430
0.311300	-0.210217
0.311400	-0.233587
0.311500	-0.188146
0.311600	-0.239430
0.311700	-0.380947
0.311800	-0.420546
0.311900	-0.543238
0.312000	-0.501692
0.312100	-0.429310
0.312200	-0.410809
0.312300	-0.426389
0.312400	-0.848994
0.312500	-0.880154
0.312600	-0.852240
0.312700	-0.579591
0.312800	-0.474427
0.312900	-0.603286
0.313000	-0.984670
0.313100	-1.145338
0.313200	-1.072307
0.313300	-0.882426
0.313400	-0.767849
0.313500	-0.836985
0.313600	-0.994407
0.313700	-1.102168
0.313800	-1.065166
0.313900	-1.092431
0.314000	-1.020374
0.314100	-1.139171
0.314200	-1.176498
0.314300	-1.261538
0.314400	-1.254722
0.314500	-1.231352
0.314600	-1.278741
0.314700	-1.317691
0.314800	-1.308603
0.314900	-1.248555
0.315000	-1.204736
0.315100	-1.246932
0.315200	-1.404030
0.315300	-1.462130
0.315400	-1.459534
0.315500	-1.258293
0.315600	-1.295295
0.315700	-1.343982
0.315800	-1.344956
0.315900	-1.351448
0.316000	-1.336517
0.316100	-1.375142
0.316200	-1.383257
0.316300	-1.395266
0.316400	-1.391696
0.316500	-1.436164
0.316600	-1.439409
0.316700	-1.465376
0.316800	-1.488421
0.316900	-1.517958
0.317000	-1.538407
0.317100	-1.578655
0.317200	-1.611763
0.317300	-1.703944
0.317400	-1.766589
0.317500	-2.040537
0.317600	-2.394981
0.317700	-2.513454
0.317800	-2.215811
0.317900	-2.040861
0.318000	-1.995744
0.318100	-2.433607
0.318200	-2.781561
0.318300	-3.007471
0.318400	-2.843232
0.318500	-2.677369
0.318600	-2.599794
0.318700	-2.739365
0.318800	-2.982478
0.318900	-3.180799
0.319000	-3.180475
0.319100	-3.122698
0.319200	-3.096407
0.319300	-3.160026
0.319400	-3.203195
0.319500	-3.248637
0.319600	-3.255454
0.319700	-3.289210
0.319800	-3.329459
0.319900	-3.361917
0.320000	-3.418070
0.320100	-3.439493
0.320200	-3.401192
0.320300	-3.395999
0.320400	-3.468706
0.320500	-3.481040
0.320600	-3.416448
0.320700	-3.198327
0.320800	-3.077257
0.320900	-3.231110
0.321000	-3.551799
0.321100	-3.697863
0.321200	-3.609576
0.321300	-3.261945
0.321400	-3.085371
0.321500	-3.204818
0.321600	-3.512525
0.321700	-3.707276
0.321800	-3.731620
0.321900	-3.532000
0.322000	-3.395674
0.322100	-3.400218
0.322200	-3.473250
0.322300	-3.545308
0.322400	-3.482014
0.322500	-3.411579
0.322600	-3.406385
0.322700	-3.346013
0.322800	-3.258699
0.322900	-3.042851
0.323000	-2.850048
0.323100	-2.756568
0.323200	-2.697818
0.323300	-2.646858
0.323400	-2.578047
0.323500	-2.317081
0.323600	-2.134341
0.323700	-1.929854
0.323800	-1.739324
0.323900	-1.691286
0.324000	-1.583200
0.324100	-1.435514
0.324200	-1.233300
0.324300	-1.086913
0.324400	-0.948966
0.324500	-0.889567
0.324600	-0.863925
0.324700	-0.856135
0.324800	-0.861978
0.324900	-0.829195
0.325000	-0.750971
0.325100	-0.767849
0.325200	-0.690274
0.325300	-0.715916
0.325400	-0.787324
0.325500	-0.816861
0.325600	-0.903200
0.325700	-0.812966
0.325800	-0.595496
0.325900	-0.232938
0.326000	-0.038514
0.326100	-0.311487
0.326200	-0.653272
0.326300	-0.769147
0.326400	-0.454627
0.326500	-0.196260
0.326600	-0.063831
0.326700	-0.075841
0.326800	-0.366666
0.326900	-0.443267
0.327000	-0.389062
0.327100	-0.211840
0.327200	-0.086552
0.327300	0.004331
0.327400	-0.089148
0.327500	-0.181005
0.327600	-0.270914
0.327700	-0.212489
0.327800	-0.221902
0.327900	-0.243325
0.328000	-0.242676
0.328100	-0.281950
0.328200	-0.296556
0.328300	-0.333234
0.328400	-0.468909
0.328500	-0.526035
0.328600	-0.637367
0.328700	-0.617243
0.328800	-0.533825
0.328900	-0.558818
0.329000	-0.758761
0.329100	-1.152154
0.329200	-1.061920
0.329300	-0.933061
0.329400	-0.649701
0.329500	-0.712345
0.329600	-0.938579
0.329700	-1.327104
0.329800	-1.385204
0.329900	-1.260240
0.330000	-1.004469
0.330100	-0.983371
0.330200	-1.170331
0.330300	-1.370598
0.330400	-1.428698
0.330500	-1.401758
0.330600	-1.376116
0.330700	-1.347877
0.330800	-1.455639
0.330900	-1.556908
0.331000	-1.632536
0.331100	-1.562426
0.331200	-1.553987
0.331300	-1.614359
0.331400	-1.619228
0.331500	-1.570541
0.331600	-1.505300
0.331700	-1.416689
0.331800	-1.514063
0.331900	-1.648441
0.332000	-1.666293
0.332100	-1.630264
0.332200	-1.438111
0.332300	-1.488421
0.332400	-1.513739
0.332500	-1.484851
0.332600	-1.474464
0.332700	-1.433567
0.332800	-1.399810
0.332900	-1.394617
0.333000	-1.372221
0.333100	-1.395915
0.333200	-1.354044
0.333300	-1.399810
0.333400	-1.369949
0.333500	-1.377414
0.333600	-1.393643
0.333700	-1.361510
0.333800	-1.445577
0.333900	-1.440059
0.334000	-1.541653
0.334100	-1.608842
0.334200	-1.951601
0.334300	-2.251840
0.334400	-2.175563
0.334500	-1.879868
0.334600	-1.611763
0.334700	-1.750684
0.334800	-2.125577
0.334900	-2.491707
0.335000	-2.565063
0.335100	-2.432633
0.335200	-2.250866
0.335300	-2.244375
0.335400	-2.488137
0.335500	-2.746181
0.335600	-2.889647
0.335700	-2.850048
0.335800	-2.840959
0.335900	-2.808176
0.336000	-2.858487
0.336100	-2.934440
0.336200	-2.980855
0.336300	-2.997734
0.336400	-3.025648
0.336500	-3.029867
0.336600	-3.104522
0.336700	-3.161324
0.336800	-3.195730
0.336900	-3.149639
0.337000	-3.194432
0.337100	-3.263893
0.337200	-3.302194
0.337300	-3.232733
0.337400	-3.039605
0.337500	-2.972416
0.337600	-3.240523
0.337700	-3.544009
0.337800	-3.668975
0.337900	-3.463837
0.338000	-3.144446
0.338100	-3.076608
0.338200	-3.251234
0.338300	-3.592373
0.338400	-3.710522
0.338500	-3.576793
0.338600	-3.382691
0.338700	-3.252857
0.338800	-3.246690
0.338900	-3.254155
0.339000	-3.276876
0.339100	-3.236303
0.339200	-3.167816
0.339300	-3.121400
0.339400	-3.036684
0.339500	-2.939633
0.339600	-2.729627
0.339700	-2.587784
0.339800	-2.514753
0.339900	-2.484242
0.340000	-2.468986
0.340100	-2.409588
0.340200	-2.175239
0.340300	-2.086952
0.340400	-1.768536
0.340500	-1.795152
0.340600	-1.765290
0.340700	-1.687066
0.340800	-1.577357
0.340900	-1.434865
0.341000	-1.233949
0.341100	-1.203763
0.341200	-1.142741
0.341300	-1.194025
0.341400	-1.128135
0.341500	-1.077825
0.341600	-1.073930
0.341700	-0.953185
0.341800	-0.966169
0.341900	-0.884698
0.342000	-0.923648
0.342100	-0.886971
0.342200	-0.890541
0.342300	-0.901252
0.342400	-0.776937
0.342500	-0.604260
0.342600	-0.140432
0.342700	-0.157960
0.342800	-0.453654
0.342900	-0.790245
0.343000	-0.788298
0.343100	-0.428985
0.343200	-0.263124
0.343300	0.008226
0.343400	-0.203726
0.343500	-0.323496
0.343600	-0.481568
0.343700	-0.305320
0.343800	-0.101483
0.343900	-0.031048
0.344000	0.006279
0.344100	-0.061559
0.344200	-0.132642
0.344300	-0.132642
0.344400	-0.066103
0.344500	-0.020013
0.344600	-0.013521
0.344700	-0.057339
0.344800	-0.141406
0.344900	-0.104728
0.345000	-0.304671
0.345100	-0.286170
0.345200	-0.423468
0.345300	-0.471181
0.345400	-0.401721
0.345500	-0.445215
0.345600	-0.456575
0.345700	-0.800956
0.345800	-1.068087
0.345900	-1.014207
0.346000	-0.814589
0.346100	-0.562389
0.346200	-0.682808
0.346300	-0.992460
0.346400	-1.303734
0.346500	-1.272899
0.346600	-1.088536
0.346700	-0.857109
0.346800	-0.856784
0.346900	-1.014531
0.347000	-1.156374
0.347100	-1.138846
0.347200	-1.144040
0.347300	-1.056078
0.347400	-1.112880
0.347500	-1.145013
0.347600	-1.260565
0.347700	-1.284259
0.347800	-1.262512
0.347900	-1.301137
0.348000	-1.330674
0.348100	-1.343009
0.348200	-1.272574
0.348300	-1.252775
0.348400	-1.248555
0.348500	-1.426102
0.348600	-1.543925
0.348700	-1.546197
0.348800	-1.466999
0.348900	-1.421233
0.349000	-1.512116
0.349100	-1.560803
0.349200	-1.575410
0.349300	-1.607868
0.349400	-1.630589
0.349500	-1.626044
0.349600	-1.663047
0.349700	-1.688364
0.349800	-1.741596
0.349900	-1.713357
0.350000	-1.725042
0.350100	-1.763992
0.350200	-1.793529
0.350300	-1.826961
0.350400	-1.842541
0.350500	-1.848384
0.350600	-1.909405
0.350700	-1.899018
0.350800	-2.087926
0.350900	-2.400499
0.351000	-2.708854
0.351100	-2.583240
0.351200	-2.270341
0.351300	-2.092794
0.351400	-2.294361
0.351500	-2.736768
0.351600	-3.027920
0.351700	-3.059405
0.351800	-2.835766
0.351900	-2.641340
0.352000	-2.685159
0.352100	-2.933790
0.352200	-3.152236
0.352300	-3.224618
0.352400	-3.163921
0.352500	-3.034412
0.352600	-3.024999
0.352700	-3.091538
0.352800	-3.149314
0.352900	-3.197353
0.353000	-3.177229
0.353100	-3.213907
0.353200	-3.228188
0.353300	-3.306413
0.353400	-3.345039
0.353500	-3.267139
0.353600	-3.285965
0.353700	-3.336275
0.353800	-3.399245
0.353900	-3.334977
0.354000	-3.120751
0.354100	-2.911070
0.354200	-3.015586
0.354300	-3.240847
0.354400	-3.503436
0.354500	-3.488505
0.354600	-3.220398
0.354700	-2.937361
0.354800	-2.881532
0.354900	-3.083424
0.355000	-3.375874
0.355100	-3.524210
0.355200	-3.397946
0.355300	-3.177878
0.355400	-3.064922
0.355500	-3.043500
0.355600	-3.111987
0.355700	-3.115882
0.355800	-3.112312
0.355900	-3.084722
0.356000	-2.979557
0.356100	-2.885427
0.356200	-2.768577
0.356300	-2.584863
0.356400	-2.458924
0.356500	-2.389464
0.356600	-2.336232
0.356700	-2.343048
0.356800	-2.170694
0.356900	-1.940890
0.357000	-1.857147
0.357100	-1.524775
0.357200	-1.572164
0.357300	-1.510818
0.357400	-1.424803
0.357500	-1.254722
0.357600	-1.175849
0.357700	-0.990512
0.357800	-0.923324
0.357900	-0.892164
0.358000	-0.938255
0.358100	-0.926245
0.358200	-0.965519
0.358300	-0.939553
0.358400	-0.918455
0.358500	-0.849644
0.358600	-0.819133
0.358700	-0.834713
0.358800	-0.845749
0.358900	-0.936307
0.359000	-0.855811
0.359100	-0.784403
0.359200	-0.497797
0.359300	-0.156986
0.359400	-0.316680
0.359500	-0.605883
0.359600	-1.047314
0.359700	-0.756164
0.359800	-0.583811
0.359900	-0.256633
0.360000	-0.150494
0.360100	-0.384193
0.360200	-0.628928
0.360300	-0.694493
0.360400	-0.447162
0.360500	-0.260203
0.360600	-0.141081
0.360700	-0.084604
0.360800	-0.172890
0.360900	-0.182628
0.361000	-0.241702
0.361100	-0.198532
0.361200	-0.166399
0.361300	-0.168996
0.361400	-0.202427
0.361500	-0.137511
0.361600	-0.235210
0.361700	-0.356279
0.361800	-0.483840
0.361900	-0.557520
0.362000	-0.537720
0.362100	-0.441644
0.362200	-0.435477
0.362300	-0.495849
0.362400	-0.937605
0.362500	-1.094379
0.362600	-1.079772
0.362700	-0.826274
0.362800	-0.716240
0.362900	-0.861004
0.363000	-1.209281
0.363100	-1.440708
0.363200	-1.402407
0.363300	-1.221939
0.363400	-1.072631
0.363500	-1.157997
0.363600	-1.339438
0.363700	-1.468297
0.363800	-1.468297
0.363900	-1.523801
0.364000	-1.424803
0.364100	-1.530617
0.364200	-1.575734
0.364300	-1.676355
0.364400	-1.687066
0.364500	-1.682846
0.364600	-1.673758
0.364700	-1.730560
0.364800	-1.719524
0.364900	-1.638379
0.365000	-1.574760
0.365100	-1.593262
0.365200	-1.766913
0.365300	-1.797424
0.365400	-1.797424
0.365500	-1.650713
0.365600	-1.639677
0.365700	-1.703295
0.365800	-1.723419
0.365900	-1.718875
0.366000	-1.738999
0.366100	-1.767562
0.366200	-1.767238
0.366300	-1.761395
0.366400	-1.787362
0.366500	-1.772107
0.366600	-1.806188
0.366700	-1.794178
0.366800	-1.804240
0.366900	-1.794178
0.367000	-1.770159
0.367100	-1.809109
0.367200	-1.790932
0.367300	-1.902264
0.367400	-1.880193
0.367500	-2.041510
0.367600	-2.429387
0.367700	-2.537149
0.367800	-2.264824
0.367900	-1.885061
0.368000	-1.891878
0.368100	-2.088900
0.368200	-2.542992
0.368300	-2.766305
0.368400	-2.614400
0.368500	-2.379077
0.368600	-2.228146
0.368700	-2.409588
0.368800	-2.649455
0.368900	-2.821160
0.369000	-2.812396
0.369100	-2.742611
0.369200	-2.710477
0.369300	-2.769226
0.369400	-2.828625
0.369500	-2.868874
0.369600	-2.867900
0.369700	-2.905876
0.369800	-2.947423
0.369900	-3.002927
0.370000	-3.025323
0.370100	-2.995786
0.370200	-2.984101
0.370300	-3.038307
0.370400	-3.101925
0.370500	-3.194107
0.370600	-3.145744
0.370700	-2.920158
0.370800	-2.806229
0.370900	-2.987347
0.371000	-3.251234
0.371100	-3.457345
0.371200	-3.386910
0.371300	-3.145419
0.371400	-2.918535
0.371500	-2.951318
0.371600	-3.190861
0.371700	-3.414175
0.371800	-3.439818
0.371900	-3.282394
0.372000	-3.107443
0.372100	-3.039930
0.372200	-3.045772
0.372300	-3.084073
0.372400	-3.076283
0.372500	-3.032464
0.372600	-2.976311
0.372700	-2.868549
0.372800	-2.790974
0.372900	-2.613426
0.373000	-2.416729
0.373100	-2.294685
0.373200	-2.236909
0.373300	-2.195038
0.373400	-2.159659
0.373500	-1.947706
0.373600	-1.750360
0.373700	-1.585147
0.373800	-1.381634
0.373900	-1.359562
0.374000	-1.275171
0.374100	-1.178770
0.374200	-1.031085
0.374300	-0.892813
0.374400	-0.773042
0.374500	-0.688651
0.374600	-0.611400
0.374700	-0.648727
0.374800	-0.606856
0.374900	-0.649052
0.375000	-0.591276
0.375100	-0.528957
0.375200	-0.508183
0.375300	-0.470207
0.375400	-0.475725
0.375500	-0.526685
0.375600	-0.528308
0.375700	-0.496174
0.375800	-0.324146
0.375900	-0.126800
0.376000	0.269839
0.376100	-0.032347
0.376200	-0.295907
0.376300	-0.529281
0.376400	-0.179382
0.376500	0.016341
0.376600	0.331834
0.376700	0.262698
0.376800	-0.064805
0.376900	-0.206647
0.377000	-0.231964
0.377100	0.057887
0.377200	0.236082
0.377300	0.291910
0.377400	0.193238
0.377500	0.140655
0.377600	0.059510
0.377700	0.082555
0.377800	0.088398
0.377900	0.065028
0.378000	0.074116
0.378100	0.002708
0.378200	-0.028452
0.378300	-0.061559
0.378400	-0.166723
0.378500	-0.301100
0.378600	-0.382570
0.378700	-0.306943
0.378800	-0.344919
0.378900	-0.246895
0.379000	-0.529930
0.379100	-0.822054
0.379200	-0.886321
0.379300	-0.788622
0.379400	-0.517272
0.379500	-0.509157
0.379600	-0.707801
0.379700	-1.061271
0.379800	-1.240116
0.379900	-1.139495
0.380000	-0.940202
0.380100	-0.854512
0.380200	-1.056078
0.380300	-1.247257
0.380400	-1.365405
0.380500	-1.347877
0.380600	-1.366703
0.380700	-1.378063
0.380800	-1.501405
0.380900	-1.596183
0.381000	-1.717252
0.381100	-1.597157
0.381200	-1.620851
0.381300	-1.739648
0.381400	-1.789959
0.381500	-1.800021
0.381600	-1.756851
0.381700	-1.701672
0.381800	-1.776326
0.381900	-1.937644
0.382000	-1.981138
0.382100	-1.946083
0.382200	-1.946408
0.382300	-1.864288
0.382400	-1.894150
0.382500	-1.849682
0.382600	-1.853252
0.382700	-1.816899
0.382800	-1.814952
0.382900	-1.811381
0.383000	-1.822092
0.383100	-1.833777
0.383200	-1.821768
0.383300	-1.828584
0.383400	-1.792880
0.383500	-1.816574
0.383600	-1.760097
0.383700	-1.767562
0.383800	-1.765290
0.383900	-1.776975
0.384000	-1.864937
0.384100	-1.861367
0.384200	-2.165826
0.384300	-2.498199
0.384400	-2.470609
0.384500	-2.172967
0.384600	-1.913625
0.384700	-1.918818
0.384800	-2.344346
0.384900	-2.710152
0.385000	-2.850048
0.385100	-2.717942
0.385200	-2.499497
0.385300	-2.475154
0.385400	-2.709828
0.385500	-2.961380
0.385600	-3.131787
0.385700	-3.141524
0.385800	-3.086994
0.385900	-3.089591
0.386000	-3.180150
0.386100	-3.254480
0.386200	-3.263893
0.386300	-3.290184
0.386400	-3.304466
0.386500	-3.400867
0.386600	-3.443064
0.386700	-3.499217
0.386800	-3.405736
0.386900	-3.382691
0.387000	-3.401841
0.387100	-3.492725
0.387200	-3.549203
0.387300	-3.407684
0.387400	-3.183396
0.387500	-3.153859
0.387600	-3.316800
0.387700	-3.554396
0.387800	-3.723180
0.387900	-3.539141
0.388000	-3.292456
0.388100	-3.152560
0.388200	-3.284342
0.388300	-3.559590
0.388400	-3.748498
0.388500	-3.704679
0.388600	-3.516744
0.388700	-3.344714
0.388800	-3.327836
0.388900	-3.377173
0.389000	-3.400218
0.389100	-3.361593
0.389200	-3.309335
0.389300	-3.225916
0.389400	-3.133085
0.389500	-3.067844
0.389600	-2.894840
0.389700	-2.728329
0.389800	-2.667632
0.389900	-2.642639
0.390000	-2.624137
0.390100	-2.571230
0.390200	-2.325196
0.390300	-2.221654
0.390400	-1.876947
0.390500	-1.880517
0.390600	-1.833128
0.390700	-1.753930
0.390800	-1.618579
0.390900	-1.478359
0.391000	-1.308603
0.391100	-1.240116
0.391200	-1.165787
0.391300	-1.205710
0.391400	-1.162541
0.391500	-1.130083
0.391600	-1.119371
0.391700	-1.052507
0.391800	-1.030760
0.391900	-0.982398
0.392000	-0.961949
0.392100	-1.003171
0.392200	-0.979801
0.392300	-1.098273
0.392400	-0.931114
0.392500	-0.784727
0.392600	-0.412756
0.392700	-0.263773
0.392800	-0.540966
0.392900	-0.948641
0.393000	-0.975257
0.393100	-0.733768
0.393200	-0.461768
0.393300	-0.304021
0.393400	-0.445864
0.393500	-0.620489
0.393600	-0.814264
0.393700	-0.558494
0.393800	-0.468909
0.393900	-0.284547
0.394000	-0.319601
0.394100	-0.411783
0.394200	-0.375429
0.394300	-0.410809
0.394400	-0.348165
0.394500	-0.329663
0.394600	-0.301425
0.394700	-0.313759
0.394800	-0.347191
0.394900	-0.326093
0.395000	-0.447487
0.395100	-0.420871
0.395200	-0.559143
0.395300	-0.588680
0.395400	-0.519868
0.395500	-0.486112
0.395600	-0.485787
0.395700	-0.764603
0.395800	-1.002846
0.395900	-0.979152
0.396000	-0.859381
0.396100	-0.530904
0.396200	-0.609128
0.396300	-0.855811
0.396400	-1.170655
0.396500	-1.210579
0.396600	-1.019725
0.396700	-0.754541
0.396800	-0.769796
0.396900	-0.927868
0.397000	-1.133004
0.397100	-1.112555
0.397200	-1.091133
0.397300	-1.017777
0.397400	-1.050235
0.397500	-1.133004
0.397600	-1.201491
0.397700	-1.200841
0.397800	-1.186235
0.397900	-1.193701
0.398000	-1.282312
0.398100	-1.308927
0.398200	-1.267705
0.398300	-1.226808
0.398400	-1.189806
0.398500	-1.341061
0.398600	-1.451094
0.398700	-1.454989
0.398800	-1.456937
0.398900	-1.460832
0.399000	-1.369624
0.399100	-1.373519
0.399200	-1.352097
0.399300	-1.358913
0.399400	-1.337815
0.399500	-1.307304
0.399600	-1.290426
0.399700	-1.275495
0.399800	-1.264460
0.399900	-1.249204
0.400000	-1.254722
0.400100	-1.262188
0.400200	-1.255047
0.400300	-1.293997
0.400400	-1.299190
0.400500	-1.332946
0.400600	-1.405653
0.400700	-1.436164
0.400800	-1.594235
0.400900	-1.899343
0.401000	-2.296633
0.401100	-2.124279
0.401200	-1.842866
0.401300	-1.644546
0.401400	-1.819496
0.401500	-2.206074
0.401600	-2.505340
0.401700	-2.585187
0.401800	-2.377779
0.401900	-2.199582
0.402000	-2.266122
0.402100	-2.521569
0.402200	-2.746830
0.402300	-2.876664
0.402400	-2.817589
0.402500	-2.733198
0.402600	-2.737417
0.402700	-2.778639
0.402800	-2.914640
0.402900	-2.897762
0.403000	-2.903280
0.403100	-2.837064
0.403200	-2.883155
0.403300	-2.954564
0.403400	-3.010392
0.403500	-3.013314
0.403600	-3.006497
0.403700	-3.014937
0.403800	-3.125295
0.403900	-3.151262
0.404000	-2.990593
0.404100	-2.820186
0.404200	-2.879585
0.404300	-3.110689
0.404400	-3.388858
0.404500	-3.497918
0.404600	-3.285640
0.404700	-3.012664
0.404800	-2.961705
0.404900	-3.168789
0.405000	-3.478443
0.405100	-3.654368
0.405200	-3.567704
0.405300	-3.391130
0.405400	-3.233382
0.405500	-3.270384
0.405600	-3.356075
0.405700	-3.410930
0.405800	-3.402815
0.405900	-3.343091
0.406000	-3.241172
0.406100	-3.162622
0.406200	-3.052264
0.406300	-2.900034
0.406400	-2.750725
0.406500	-2.679966
0.406600	-2.624462
0.406700	-2.592328
0.406800	-2.469636
0.406900	-2.203802
0.407000	-2.124604
0.407100	-1.757176
0.407200	-1.761720
0.407300	-1.721147
0.407400	-1.627343
0.407500	-1.501729
0.407600	-1.396240
0.407700	-1.203114
0.407800	-1.182665
0.407900	-1.151830
0.408000	-1.200517
0.408100	-1.170655
0.408200	-1.178445
0.408300	-1.136250
0.408400	-1.102493
0.408500	-1.058999
0.408600	-1.077176
0.408700	-1.046016
0.408800	-1.120345
0.408900	-1.002846
0.409000	-1.071009
0.409100	-0.857758
0.409200	-0.579267
0.409300	-0.174838
0.409400	-0.201129
0.409500	-0.461768
0.409600	-0.884374
0.409700	-0.665930
0.409800	-0.436451
0.409900	-0.004757
0.410000	0.041333
0.410100	-0.003459
0.410200	-0.280976
0.410300	-0.333883
0.410400	-0.117712
0.410500	0.077687
0.410600	0.260101
0.410700	0.223748
0.410800	0.179930
0.410900	0.108522
0.411000	0.168894
0.411100	0.224397
0.411200	0.331834
0.411300	0.351958
0.411400	0.394478
0.411500	0.445438
0.411600	0.379872
0.411700	0.196483
0.411800	0.165324
0.411900	0.093591
0.412000	0.100732
0.412100	0.176684
0.412200	0.169543
0.412300	0.140331
0.412400	-0.334532
0.412500	-0.446513
0.412600	-0.422494
0.412700	-0.170943
0.412800	-0.105702
0.412900	-0.178733
0.413000	-0.488059
0.413100	-0.753567
0.413200	-0.736365
0.413300	-0.571477
0.413400	-0.401396
0.413500	-0.467286
0.413600	-0.631849
0.413700	-0.770121
0.413800	-0.817835
0.413900	-0.878207
0.414000	-0.819457
0.414100	-0.885023
0.414200	-0.956107
0.414300	-1.117099
0.414400	-1.167409
0.414500	-1.226159
0.414600	-1.278741
0.414700	-1.320937
0.414800	-1.311199
0.414900	-1.184288
0.415000	-1.198569
0.415100	-1.240441
0.415200	-1.469271
0.415300	-1.577032
0.415400	-1.569567
0.415500	-1.583849
0.415600	-1.579629
0.415700	-1.540679
0.415800	-1.530617
0.415900	-1.511791
0.416000	-1.490369
0.416100	-1.466999
0.416200	-1.431619
0.416300	-1.414417
0.416400	-1.417987
0.416500	-1.391047
0.416600	-1.402083
0.416700	-1.396889
0.416800	-1.475763
0.416900	-1.454340
0.417000	-1.526073
0.417100	-1.536460
0.417200	-1.613061
0.417300	-1.658827
0.417400	-1.748737
0.417500	-2.010026
0.417600	-2.395306
0.417700	-2.590056
0.417800	-2.427764
0.417900	-2.124928
0.418000	-2.009701
0.418100	-2.299229
0.418200	-2.705283
0.418300	-2.957810
0.418400	-2.904578
0.418500	-2.709178
0.418600	-2.582591
0.418700	-2.657245
0.418800	-2.933141
0.418900	-3.101925
0.419000	-3.090565
0.419100	-2.969819
0.419200	-2.898086
0.419300	-2.938984
0.419400	-2.956187
0.419500	-2.978908
0.419600	-2.950344
0.419700	-2.926650
0.419800	-2.897112
0.419900	-2.931518
0.420000	-2.988645
0.420100	-2.920807
0.420200	-2.847776
0.420300	-2.898411
0.420400	-2.898735
0.420500	-2.970144
0.420600	-2.844530
0.420700	-2.626085
0.420800	-2.437826
0.420900	-2.633550
0.421000	-2.895814
0.421100	-3.076608
0.421200	-2.982154
0.421300	-2.730601
0.421400	-2.516376
0.421500	-2.541693
0.421600	-2.760463
0.421700	-2.997084
0.421800	-3.079853
0.421900	-2.925676
0.422000	-2.747479
0.422100	-2.670878
0.422200	-2.705608
0.422300	-2.770525
0.422400	-2.768902
0.422500	-2.741637
0.422600	-2.702038
0.422700	-2.608882
0.422800	-2.558247
0.422900	-2.451784
0.423000	-2.292413
0.423100	-2.208671
0.423200	-2.183678
0.423300	-2.174914
0.423400	-2.202828
0.423500	-2.017491
0.423600	-1.836699
0.423700	-1.702646
0.423800	-1.549118
0.423900	-1.567620
0.424000	-1.519257
0.424100	-1.396565
0.424200	-1.270627
0.424300	-1.154426
0.424400	-1.044393
0.424500	-1.050884
0.424600	-1.025892
0.424700	-1.057701
0.424800	-0.998627
0.424900	-1.053806
0.425000	-1.028488
0.425100	-1.049262
0.425200	-0.990188
0.425300	-1.047963
0.425400	-1.039849
0.425500	-1.122293
0.425600	-1.209930
0.425700	-1.091782
0.425800	-1.111581
0.425900	-0.566608
0.426000	-0.600365
0.426100	-0.435802
0.426200	-1.115152
0.426300	-1.097300
0.426400	-1.047963
0.426500	-0.589329
0.426600	-0.330313
0.426700	-0.408861
0.426800	-0.558494
0.426900	-0.811343
0.427000	-0.753892
0.427100	-0.523763
0.427200	-0.236833
0.427300	-0.120308
0.427400	-0.209893
0.427500	-0.174838
0.427600	-0.268967
0.427700	-0.156661
0.427800	-0.099860
0.427900	-0.035268
0.428000	-0.022934
0.428100	0.024780
0.428200	0.081906
0.428300	-0.035917
0.428400	-0.037865
0.428500	-0.139134
0.428600	-0.140108
0.428700	-0.173215
0.428800	0.006603
0.428900	-0.013845
0.429000	-0.054418
0.429100	-0.459172
0.429200	-0.508183
0.429300	-0.421845
0.429400	-0.062857
0.429500	0.029324
0.429600	-0.072595
0.429700	-0.400422
0.429800	-0.566284
0.429900	-0.420871
0.430000	-0.137836
0.430100	0.080608
0.430200	0.020560
0.430300	-0.161206
0.430400	-0.210217
0.430500	-0.167048
0.430600	-0.095640
0.430700	0.011796
0.430800	-0.049874
0.430900	-0.104079
0.431000	-0.131344
0.431100	-0.086876
0.431200	-0.063831
0.431300	-0.141731
0.431400	-0.173864
0.431500	-0.151144
0.431600	-0.084929
0.431700	-0.047927
0.431800	-0.119335
0.431900	-0.310189
0.432000	-0.378351
0.432100	-0.377052
0.432200	-0.366017
0.432300	-0.251764
0.432400	-0.323821
0.432500	-0.327716
0.432600	-0.332585
0.432700	-0.339401
0.432800	-0.361148
0.432900	-0.393931
0.433000	-0.447811
0.433100	-0.459821
0.433200	-0.492928
0.433300	-0.527009
0.433400	-0.557844
0.433500	-0.606207
0.433600	-0.662684
0.433700	-0.668527
0.433800	-0.788298
0.433900	-0.831142
0.434000	-0.931438
0.434100	-0.975581
0.434200	-1.293347
0.434300	-1.664021
0.434400	-1.722445
0.434500	-1.456612
0.434600	-1.255371
0.434700	-1.191104
0.434800	-1.609166
0.434900	-1.970427
0.435000	-2.205749
0.435100	-2.076890
0.435200	-1.887983
0.435300	-1.856823
0.435400	-2.087277
0.435500	-2.403421
0.435600	-2.609856
0.435700	-2.628682
0.435800	-2.576099
0.435900	-2.585512
0.436000	-2.651402
0.436100	-2.791298
0.436200	-2.863356
0.436300	-2.951643
0.436400	-2.992216
0.436500	-3.094460
0.436600	-3.181124
0.436700	-3.289860
0.436800	-3.310308
0.436900	-3.264217
0.437000	-3.354776
0.437100	-3.424562
0.437200	-3.507656
0.437300	-3.423913
0.437400	-3.236628
0.437500	-3.214231
0.437600	-3.361268
0.437700	-3.663457
0.437800	-3.880604
0.437900	-3.749796
0.438000	-3.491751
0.438100	-3.301545
0.438200	-3.381068
0.438300	-3.611848
0.438400	-3.852690
0.438500	-3.876060
0.438600	-3.691696
0.438700	-3.495646
0.438800	-3.447932
0.438900	-3.485584
0.439000	-3.507331
0.439100	-3.508305
0.439200	-3.475847
0.439300	-3.429756
0.439400	-3.320046
0.439500	-3.231434
0.439600	-3.101276
0.439700	-2.910096
0.439800	-2.785131
0.439900	-2.773121
0.440000	-2.736768
0.440100	-2.697493
0.440200	-2.458600
0.440300	-2.289816
0.440400	-1.968155
0.440500	-1.930178
0.440600	-1.907458
0.440700	-1.816250
0.440800	-1.708813
0.440900	-1.577357
0.441000	-1.371247
0.441100	-1.276469
0.441200	-1.224211
0.441300	-1.196297
0.441400	-1.220966
0.441500	-1.204736
0.441600	-1.231352
0.441700	-1.188183
0.441800	-1.152479
0.441900	-1.164164
0.442000	-1.127810
0.442100	-1.116126
0.442200	-1.242713
0.442300	-1.152479
0.442400	-1.218693
0.442500	-0.927219
0.442600	-0.664307
0.442700	-0.366017
0.442800	-0.712345
0.442900	-1.040822
0.443000	-1.213825
0.443100	-0.902550
0.443200	-0.559143
0.443300	-0.387114
0.443400	-0.371210
0.443500	-0.607181
0.443600	-0.706178
0.443700	-0.587706
0.443800	-0.350761
0.443900	-0.183602
0.444000	-0.102132
0.444100	-0.158284
0.444200	-0.145950
0.444300	-0.181330
0.444400	-0.114141
0.444500	-0.051172
0.444600	-0.024232
0.444700	0.007577
0.444800	0.074765
0.444900	0.075090
0.445000	0.048474
0.445100	-0.080385
0.445200	-0.047927
0.445300	-0.104404
0.445400	0.049448
0.445500	0.134813
0.445600	0.206870
0.445700	-0.029101
0.445800	-0.326418
0.445900	-0.286819
0.446000	-0.176785
0.446100	0.183176
0.446200	0.101381
0.446300	-0.102781
0.446400	-0.466637
0.446500	-0.514350
0.446600	-0.373807
0.446700	-0.111220
0.446800	-0.055716
0.446900	-0.204699
0.447000	-0.385816
0.447100	-0.421845
0.447200	-0.443267
0.447300	-0.398799
0.447400	-0.441320
0.447500	-0.537396
0.447600	-0.638341
0.447700	-0.657491
0.447800	-0.648727
0.447900	-0.695467
0.448000	-0.794465
0.448100	-0.847047
0.448200	-0.848994
0.448300	-0.822054
0.448400	-0.807123
0.448500	-0.936956
0.448600	-1.125214
0.448700	-1.159620
0.448800	-1.186560
0.448900	-1.121643
0.449000	-1.126837
0.449100	-1.173252
0.449200	-1.191104
0.449300	-1.219667
0.449400	-1.228756
0.449500	-1.254722
0.449600	-1.305357
0.449700	-1.341386
0.449800	-1.379686
0.449900	-1.392345
0.450000	-1.465701
0.450100	-1.503028
0.450200	-1.568593
0.450300	-1.626044
0.450400	-1.674083
0.450500	-1.738999
0.450600	-1.787037
0.450700	-1.902913
0.450800	-2.033720
0.450900	-2.378103
0.451000	-2.726706
0.451100	-2.659192
0.451200	-2.341425
0.451300	-2.066828
0.451400	-2.267745
0.451500	-2.667956
0.451600	-3.046097
0.451700	-3.115882
0.451800	-2.917237
0.451900	-2.705283
0.452000	-2.753971
0.452100	-2.990917
0.452200	-3.267139
0.452300	-3.361593
0.452400	-3.302518
0.452500	-3.274929
0.452600	-3.249286
0.452700	-3.334328
0.452800	-3.409956
0.452900	-3.417421
0.453000	-3.425536
0.453100	-3.407684
0.453200	-3.465135
0.453300	-3.550177
0.453400	-3.574845
0.453500	-3.507331
0.453600	-3.478443
0.453700	-3.498568
0.453800	-3.600487
0.453900	-3.618339
0.454000	-3.455398
0.454100	-3.208064
0.454200	-3.198651
0.454300	-3.396972
0.454400	-3.640087
0.454500	-3.742331
0.454600	-3.516095
0.454700	-3.202546
0.454800	-3.065572
0.454900	-3.204169
0.455000	-3.489155
0.455100	-3.665729
0.455200	-3.559590
0.455300	-3.331731
0.455400	-3.168789
0.455500	-3.149964
0.455600	-3.187940
0.455700	-3.210661
0.455800	-3.159701
0.455900	-3.093486
0.456000	-3.002927
0.456100	-2.920158
0.456200	-2.808826
0.456300	-2.677369
0.456400	-2.507287
0.456500	-2.405368
0.456600	-2.345969
0.456700	-2.332012
0.456800	-2.258007
0.456900	-1.991525
0.457000	-1.828259
0.457100	-1.536460
0.457200	-1.533538
0.457300	-1.480307
0.457400	-1.402732
0.457500	-1.289777
0.457600	-1.183639
0.457700	-0.971686
0.457800	-0.920402
0.457900	-0.883400
0.458000	-0.950913
0.458100	-0.936307
0.458200	-0.919429
0.458300	-0.902226
0.458400	-0.831792
0.458500	-0.853539
0.458600	-0.814913
0.458700	-0.848345
0.458800	-0.907419
0.458900	-0.941176
0.459000	-0.912937
0.459100	-0.930140
0.459200	-0.554923
0.459300	-0.346217
0.459400	-0.126800
0.459500	-0.673720
0.459600	-0.908718
0.459700	-0.991161
0.459800	-0.597119
0.459900	-0.260528
0.460000	-0.228394
0.460100	-0.288442
0.460200	-0.653596
0.460300	-0.718837
0.460400	-0.650026
0.460500	-0.358227
0.460600	-0.193664
0.460700	-0.231315
0.460800	-0.287468
0.460900	-0.344270
0.461000	-0.443916
0.461100	-0.357577
0.461200	-0.304021
0.461300	-0.305644
0.461400	-0.334532
0.461500	-0.291363
0.461600	-0.321549
0.461700	-0.368938
0.461800	-0.489358
0.461900	-0.552327
0.462000	-0.662684
0.462100	-0.479620
0.462200	-0.569205
0.462300	-0.409186
0.462400	-0.849968
0.462500	-1.030111
0.462600	-0.975257
0.462700	-0.789921
0.462800	-0.526685
0.462900	-0.654570
0.463000	-0.867820
0.463100	-1.194999
0.463200	-1.179419
0.463300	-1.048612
0.463400	-0.841204
0.463500	-0.833090
0.463600	-0.987916
0.463700	-1.127486
0.463800	-1.160593
0.463900	-1.235896
0.464000	-1.177472
0.464100	-1.233624
0.464200	-1.266083
0.464300	-1.349176
0.464400	-1.340412
0.464500	-1.356966
0.464600	-1.409548
0.464700	-1.465376
0.464800	-1.427075
0.464900	-1.398512
0.465000	-1.397863
0.465100	-1.389748
0.465200	-1.535810
0.465300	-1.608517
0.465400	-1.592612
0.465500	-1.585147
0.465600	-1.470894
0.465700	-1.476412
0.465800	-1.456288
0.465900	-1.404679
0.466000	-1.381634
0.466100	-1.374493
0.466200	-1.312173
0.466300	-1.275820
0.466400	-1.228431
0.466500	-1.181042
0.466600	-1.155725
0.466700	-1.080746
0.466800	-1.069061
0.466900	-1.025892
0.467000	-1.020374
0.467100	-1.000899
0.467200	-0.994083
0.467300	-1.001223
0.467400	-0.983047
0.467500	-1.160593
0.467600	-1.514388
0.467700	-1.753605
0.467800	-1.575734
0.467900	-1.283610
0.468000	-1.169357
0.468100	-1.366703
0.468200	-1.778923
0.468300	-2.004508
0.468400	-2.027229
0.468500	-1.802617
0.468600	-1.699400
0.468700	-1.797099
0.468800	-2.013921
0.468900	-2.215811
0.469000	-2.247296
0.469100	-2.220356
0.469200	-2.250542
0.469300	-2.299229
0.469400	-2.320652
0.469500	-2.378103
0.469600	-2.416079
0.469700	-2.441721
0.469800	-2.438476
0.469900	-2.571230
0.470000	-2.577722
0.470100	-2.666658
0.470200	-2.604987
0.470300	-2.615049
0.470400	-2.687431
0.470500	-2.760787
0.470600	-2.737417
0.470700	-2.559870
0.470800	-2.391086
0.470900	-2.480347
0.471000	-2.732873
0.471100	-2.966898
0.471200	-2.963003
0.471300	-2.703985
0.471400	-2.493655
0.471500	-2.505664
0.471600	-2.714372
0.471700	-2.994163
0.471800	-3.081152
0.471900	-2.950020
0.472000	-2.828950
0.472100	-2.798439
0.472200	-2.865628
0.472300	-2.918535
0.472400	-2.940282
0.472500	-2.947748
0.472600	-2.955538
0.472700	-2.938010
0.472800	-2.894191
0.472900	-2.802983
0.473000	-2.639068
0.473100	-2.534877
0.473200	-2.528385
0.473300	-2.517349
0.473400	-2.537149
0.473500	-2.408289
0.473600	-2.178160
0.473700	-1.990226
0.473800	-1.798073
0.473900	-1.839295
0.474000	-1.782169
0.474100	-1.701672
0.474200	-1.560803
0.474300	-1.439085
0.474400	-1.261214
0.474500	-1.210579
0.474600	-1.202789
0.474700	-1.166436
0.474800	-1.172603
0.474900	-1.113529
0.475000	-1.165787
0.475100	-1.002197
0.475200	-1.063543
0.475300	-0.941825
0.475400	-0.966169
0.475500	-0.990188
0.475600	-0.988565
0.475700	-0.941500
0.475800	-0.791543
0.475900	-0.447487
0.476000	-0.186198
0.476100	-0.126800
0.476200	-0.766875
0.476300	-0.804851
0.476400	-0.740259
0.476500	-0.320900
0.476600	-0.078762
0.476700	0.010174
0.476800	-0.191067
0.476900	-0.437425
0.477000	-0.374456
0.477100	-0.184251
0.477200	0.042307
0.477300	0.133515
0.477400	0.134813
0.477500	0.013095
0.477600	-0.018714
0.477700	0.009524
0.477800	0.062107
0.477900	0.052694
0.478000	0.031596
0.478100	0.041983
0.478200	0.081257
0.478300	-0.064480
0.478400	-0.054418
0.478500	-0.229043
0.478600	-0.229368
0.478700	-0.288442
0.478800	-0.152766
0.478900	-0.193015
0.479000	-0.157960
0.479100	-0.610427
0.479200	-0.706828
0.479300	-0.642560
0.479400	-0.311487
0.479500	-0.234561
0.479600	-0.399449
0.479700	-0.760059
0.479800	-0.937605
0.479900	-0.834064
0.480000	-0.605883
0.480100	-0.442618
0.480200	-0.576021
0.480300	-0.764279
0.480400	-0.883400
0.480500	-0.850293
0.480600	-0.805825
0.480700	-0.756489
0.480800	-0.858083
0.480900	-0.896059
0.481000	-0.902875
0.481100	-0.859381
0.481200	-0.886646
0.481300	-0.947018
0.481400	-1.005118
0.481500	-1.016154
0.481600	-0.966493
0.481700	-0.957729
0.481800	-0.997653
0.481900	-1.200517
0.482000	-1.288154
0.482100	-1.307954
0.482200	-1.352421
0.482300	-1.326130
0.482400	-1.365405
0.482500	-1.428049
0.482600	-1.466350
0.482700	-1.467324
0.482800	-1.505300
0.482900	-1.542302
0.483000	-1.602350
0.483100	-1.640001
0.483200	-1.682197
0.483300	-1.738025
0.483400	-1.789634
0.483500	-1.851305
0.483600	-1.906159
0.483700	-1.942513
0.483800	-1.966207
0.483900	-1.996718
0.484000	-2.060012
0.484100	-2.056441
0.484200	-2.363821
0.484300	-2.741637
0.484400	-2.807203
0.484500	-2.557598
0.484600	-2.199907
0.484700	-2.158685
0.484800	-2.308642
0.484900	-2.764682
0.485000	-2.914315
0.485100	-2.805580
0.485200	-2.523841
0.485300	-2.367392
0.485400	-2.470934
0.485500	-2.718591
0.485600	-2.836415
0.485700	-2.814344
0.485800	-2.693923
0.485900	-2.611479
0.486000	-2.615049
0.486100	-2.623813
0.486200	-2.646209
0.486300	-2.564414
0.486400	-2.511182
0.486500	-2.514428
0.486600	-2.517999
0.486700	-2.581942
0.486800	-2.476776
0.486900	-2.368690
0.487000	-2.363172
0.487100	-2.370313
0.487200	-2.419974
0.487300	-2.260279
0.487400	-1.987954
0.487500	-1.870131
0.487600	-1.961338
0.487700	-2.191468
0.487800	-2.330714
0.487900	-2.205749
0.488000	-1.894474
0.488100	-1.646493
0.488200	-1.673758
0.488300	-1.908756
0.488400	-2.156088
0.488500	-2.194389
0.488600	-2.020088
0.488700	-1.872078
0.488800	-1.829233
0.488900	-1.889930
0.489000	-1.981463
0.489100	-2.005806
0.489200	-1.997043
0.489300	-1.970427
0.489400	-1.923687
0.489500	-1.880842
0.489600	-1.757500
0.489700	-1.619228
0.489800	-1.524775
0.489900	-1.495887
0.490000	-1.515037
0.490100	-1.520231
0.490200	-1.304059
0.490300	-1.143715
0.490400	-0.920402
0.490500	-0.828870
0.490600	-0.843152
0.490700	-0.798360
0.490800	-0.698713
0.490900	-0.550054
0.491000	-0.446837
0.491100	-0.350112
0.491200	-0.343945
0.491300	-0.359850
0.491400	-0.374456
0.491500	-0.386465
0.491600	-0.428661
0.491700	-0.426389
0.491800	-0.458847
0.491900	-0.398150
0.492000	-0.535448
0.492100	-0.496498
0.492200	-0.753567
0.492300	-0.777262
0.492400	-0.828546
0.492500	-0.634446
0.492600	-0.380623
0.492700	-0.194313
0.492800	-0.419573
0.492900	-0.999601
0.493000	-1.072307
0.493100	-1.022646
0.493200	-0.598742
0.493300	-0.541291
0.493400	-0.576021
0.493500	-0.850617
0.493600	-1.052183
0.493700	-1.049911
0.493800	-0.835362
0.493900	-0.648078
0.494000	-0.706503
0.494100	-0.716890
0.494200	-0.797061
0.494300	-0.857109
0.494400	-0.770770
0.494500	-0.725978
0.494600	-0.687028
0.494700	-0.675668
0.494800	-0.641262
0.494900	-0.701959
0.495000	-0.721109
0.495100	-0.860679
0.495200	-0.827897
0.495300	-0.917157
0.495400	-0.855811
0.495500	-0.811343
0.495600	-0.832116
0.495700	-1.032383
0.495800	-1.400460
0.495900	-1.351448
0.496000	-1.236546
0.496100	-0.888269
0.496200	-0.936307
0.496300	-1.111906
0.496400	-1.481930
0.496500	-1.572813
0.496600	-1.435839
0.496700	-1.172603
0.496800	-1.039524
0.496900	-1.169032
0.497000	-1.329051
0.497100	-1.379037
0.497200	-1.367028
0.497300	-1.289128
0.497400	-1.223887
0.497500	-1.294321
0.497600	-1.314770
0.497700	-1.270302
0.497800	-1.226483
0.497900	-1.261538
0.498000	-1.331973
0.498100	-1.345281
0.498200	-1.295944
0.498300	-1.229080
0.498400	-1.174875
0.498500	-1.287505
0.498600	-1.472517
0.498700	-1.504651
0.498800	-1.496211
0.498900	-1.477386
0.499000	-1.398188
0.499100	-1.431295
0.499200	-1.405977
0.499300	-1.392994
0.499400	-1.340736
0.499500	-1.317042
0.499600	-1.280364
0.499700	-1.273872
0.499800	-1.212851
0.499900	-1.122617
0.500000	-1.111257
0.500100	-1.035629
0.500200	-1.017128
0.500300	-0.928192
0.500400	-0.882751
0.500500	-0.848994
0.500600	-0.808746
0.500700	-0.841854
0.500800	-0.803878
0.500900	-1.099896
0.501000	-1.323534
0.501100	-1.311199
0.501200	-0.851591
0.501300	-0.566608
0.501400	-0.545510
0.501500	-0.879830
0.501600	-1.213176
0.501700	-1.286207
0.501800	-1.020049
0.501900	-0.767200
0.502000	-0.650675
0.502100	-0.827247
0.502200	-1.022646
0.502300	-1.157023
0.502400	-1.127161
0.502500	-1.062245
0.502600	-1.042770
0.502700	-1.080097
0.502800	-1.152803
0.502900	-1.182989
0.503000	-1.203763
0.503100	-1.172603
0.503200	-1.263161
0.503300	-1.362808
0.503400	-1.435514
0.503500	-1.430321
0.503600	-1.357290
0.503700	-1.409872
0.503800	-1.495562
0.503900	-1.525099
0.504000	-1.419610
0.504100	-1.214474
0.504200	-1.262188
0.504300	-1.451094
0.504400	-1.740947
0.504500	-1.927257
0.504600	-1.773730
0.504700	-1.565023
0.504800	-1.442980
0.504900	-1.598779
0.505000	-1.945434
0.505100	-2.223601
0.505200	-2.238857
0.505300	-2.073969
0.505400	-1.963610
0.505500	-1.995095
0.505600	-2.118437
0.505700	-2.236909
0.505800	-2.298580
0.505900	-2.317081
0.506000	-2.295984
0.506100	-2.275210
0.506200	-2.241129
0.506300	-2.133367
0.506400	-2.028852
0.506500	-2.006780
0.506600	-2.008078
0.506700	-2.059362
0.506800	-2.057415
0.506900	-1.861042
0.507000	-1.814302
0.507100	-1.568269
0.507200	-1.623772
0.507300	-1.644221
0.507400	-1.627667
0.507500	-1.603324
0.507600	-1.506598
0.507700	-1.386178
0.507800	-1.333271
0.507900	-1.334245
0.508000	-1.401109
0.508100	-1.424803
0.508200	-1.451419
0.508300	-1.493290
0.508400	-1.424154
0.508500	-1.416040
0.508600	-1.407600
0.508700	-1.447524
0.508800	-1.415066
0.508900	-1.544899
0.509000	-1.517634
0.509100	-1.505949
0.509200	-1.183314
0.509300	-0.965844
0.509400	-0.673396
0.509500	-1.163190
0.509600	-1.446550
0.509700	-1.437462
0.509800	-1.142417
0.509900	-0.865224
0.510000	-0.624384
0.510100	-0.813940
0.510200	-0.997653
0.510300	-1.145013
0.510400	-1.009013
0.510500	-0.811343
0.510600	-0.594522
0.510700	-0.649052
0.510800	-0.713968
0.510900	-0.721109
0.511000	-0.767849
0.511100	-0.695792
0.511200	-0.654894
0.511300	-0.598093
0.511400	-0.624708
0.511500	-0.589329
0.511600	-0.572451
0.511700	-0.697415
0.511800	-0.648727
0.511900	-0.727601
0.512000	-0.722083
0.512100	-0.656517
0.512200	-0.646455
0.512300	-0.591601
0.512400	-0.829520
0.512500	-0.979801
0.512600	-0.911639
0.512700	-0.688326
0.512800	-0.309215
0.512900	-0.358551
0.513000	-0.529606
0.513100	-0.804202
0.513200	-0.789596
0.513300	-0.615620
0.513400	-0.331611
0.513500	-0.250141
0.513600	-0.375105
0.513700	-0.536422
0.513800	-0.538370
0.513900	-0.562064
0.514000	-0.448460
0.514100	-0.453329
0.514200	-0.471181
0.514300	-0.490656
0.514400	-0.478646
0.514500	-0.450732
0.514600	-0.487410
0.514700	-0.540317
0.514800	-0.538370
0.514900	-0.472155
0.515000	-0.454952
0.515100	-0.439048
0.515200	-0.572126
0.515300	-0.692221
0.515400	-0.682484
0.515500	-0.677940
0.515600	-0.626331
0.515700	-0.568231
0.515800	-0.574398
0.515900	-0.549405
0.516000	-0.550704
0.516100	-0.533501
0.516200	-0.519219
0.516300	-0.545186
0.516400	-0.544212
0.516500	-0.567582
0.516600	-0.576021
0.516700	-0.621463
0.516800	-0.599391
0.516900	-0.663658
0.517000	-0.668851
0.517100	-0.719811
0.517200	-0.749672
0.517300	-0.794789
0.517400	-0.814913
0.517500	-0.926894
0.517600	-1.364431
0.517700	-1.572813
0.517800	-1.469271
0.517900	-1.147285
0.518000	-0.959352
0.518100	-1.171629
0.518200	-1.588068
0.518300	-1.882465
0.518400	-1.857147
0.518500	-1.674083
0.518600	-1.503028
0.518700	-1.551715
0.518800	-1.832479
0.518900	-2.049300
0.519000	-2.197635
0.519100	-2.162255
0.519200	-2.191792
0.519300	-2.204451
0.519400	-2.270991
0.519500	-2.325196
0.519600	-2.406342
0.519700	-2.472557
0.519800	-2.528710
0.519900	-2.596548
0.520000	-2.740338
0.520100	-2.761761
0.520200	-2.760787
0.520300	-2.799737
0.520400	-2.871146
0.520500	-3.025648
0.520600	-2.992216
0.520700	-2.844854
0.520800	-2.692625
0.520900	-2.787728
0.521000	-2.999032
0.521100	-3.270384
0.521200	-3.340819
0.521300	-3.099978
0.521400	-2.871470
0.521500	-2.844854
0.521600	-3.018507
0.521700	-3.267139
0.521800	-3.416772
0.521900	-3.332705
0.522000	-3.192160
0.522100	-3.149314
0.522200	-3.175930
0.522300	-3.201897
0.522400	-3.194432
0.522500	-3.209687
0.522600	-3.241496
0.522700	-3.210985
0.522800	-3.159701
0.522900	-3.058106
0.523000	-2.876015
0.523100	-2.741637
0.523200	-2.678018
0.523300	-2.669579
0.523400	-2.646209
0.523500	-2.485540
0.523600	-2.236585
0.523700	-2.107076
0.523800	-1.771457
0.523900	-1.778274
0.524000	-1.707190
0.524100	-1.596507
0.524200	-1.446875
0.524300	-1.303409
0.524400	-1.117099
0.524500	-1.044717
0.524600	-0.981424
0.524700	-0.973959
0.524800	-0.958054
0.524900	-0.890866
0.525000	-0.940202
0.525100	-0.796412
0.525200	-0.795114
0.525300	-0.688002
0.525400	-0.732145
0.525500	-0.775639
0.525600	-0.781481
0.525700	-0.754541
0.525800	-0.665606
0.525900	-0.255659
0.526000	-0.063182
0.526100	0.035816
0.526200	-0.581214
0.526300	-0.730847
0.526400	-0.635095
0.526500	-0.203077
0.526600	0.071844
0.526700	0.178307
0.526800	0.026403
0.526900	-0.256957
0.527000	-0.195287
0.527100	-0.052471
0.527200	0.137085
0.527300	0.309762
0.527400	0.315605
0.527500	0.288340
0.527600	0.313333
0.527700	0.295481
0.527800	0.334431
0.527900	0.368836
0.528000	0.382469
0.528100	0.393829
0.528200	0.506134
0.528300	0.393504
0.528400	0.325342
0.528500	0.215634
0.528600	0.216283
0.528700	0.130918
0.528800	0.404216
0.528900	0.352283
0.529000	0.319175
0.529100	0.005629
0.529200	-0.131019
0.529300	-0.039812
0.529400	0.191615
0.529500	0.424989
0.529600	0.256531
0.529700	-0.043058
0.529800	-0.292661
0.529900	-0.221253
0.530000	-0.049225
0.530100	0.132216
0.530200	0.048474
0.530300	-0.169645
0.530400	-0.305320
0.530500	-0.290064
0.530600	-0.316031
0.530700	-0.273511
0.530800	-0.424441
0.530900	-0.520193
0.531000	-0.555248
0.531100	-0.552976
0.531200	-0.585434
0.531300	-0.675343
0.531400	-0.763629
0.531500	-0.813940
0.531600	-0.822703
0.531700	-0.800632
0.531800	-0.829195
0.531900	-1.023620
0.532000	-1.103791
0.532100	-1.149557
0.532200	-1.182989
0.532300	-1.103791
0.532400	-1.156698
0.532500	-1.168059
0.532600	-1.189157
0.532700	-1.180717
0.532800	-1.181691
0.532900	-1.182016
0.533000	-1.211553
0.533100	-1.222913
0.533200	-1.210579
0.533300	-1.252775
0.533400	-1.285233
0.533500	-1.290751
0.533600	-1.351123
0.533700	-1.391696
0.533800	-1.397538
0.533900	-1.430646
0.534000	-1.509195
0.534100	-1.572488
0.534200	-1.782493
0.534300	-2.180432
0.534400	-2.255086
0.534500	-2.063582
0.534600	-1.671486
0.534700	-1.618579
0.534800	-1.860718
0.534900	-2.297606
0.535000	-2.476452
0.535100	-2.377454
0.535200	-2.071697
0.535300	-1.924336
0.535400	-2.031124
0.535500	-2.307669
0.535600	-2.528385
0.535700	-2.588109
0.535800	-2.492032
0.535900	-2.459574
0.536000	-2.485540
0.536100	-2.560519
0.536200	-2.619918
0.536300	-2.607584
0.536400	-2.550132
0.536500	-2.536175
0.536600	-2.583240
0.536700	-2.633875
0.536800	-2.617970
0.536900	-2.530333
0.537000	-2.472881
0.537100	-2.522543
0.537200	-2.569283
0.537300	-2.466065
0.537400	-2.262227
0.537500	-2.130771
0.537600	-2.206399
0.537700	-2.466390
0.537800	-2.693598
0.537900	-2.627708
0.538000	-2.375831
0.538100	-2.141482
0.538200	-2.173940
0.538300	-2.418351
0.538400	-2.691326
0.538500	-2.758840
0.538600	-2.610830
0.538700	-2.465416
0.538800	-2.390437
0.538900	-2.423545
0.539000	-2.491058
0.539100	-2.511507
0.539200	-2.470934
0.539300	-2.403096
0.539400	-2.333960
0.539500	-2.264499
0.539600	-2.153492
0.539700	-1.986331
0.539800	-1.871104
0.539900	-1.815276
0.540000	-1.790608
0.540100	-1.787687
0.540200	-1.589691
0.540300	-1.402407
0.540400	-1.195324
0.540500	-1.057376
0.540600	-1.037901
0.540700	-0.943448
0.540800	-0.841204
0.540900	-0.673071
0.541000	-0.523114
0.541100	-0.403019
0.541200	-0.326742
0.541300	-0.260203
0.541400	-0.281625
0.541500	-0.187821
0.541600	-0.188795
0.541700	-0.150819
0.541800	-0.045330
0.541900	-0.069349
0.542000	0.031921
0.542100	-0.013845
0.542200	-0.023258
0.542300	-0.009950
0.542400	0.030298
0.542500	0.198431
0.542600	0.553848
0.542700	0.796310
0.542800	0.668425
0.542900	0.189667
0.543000	0.119882
0.543100	0.232837
0.543200	0.597342
0.543300	0.772291
0.543400	0.794038
0.543500	0.518793
0.543600	0.378249
0.543700	0.382469
0.543800	0.560015
0.543900	0.826821
0.544000	0.802477
0.544100	0.769045
0.544200	0.691470
0.544300	0.667451
0.544400	0.674917
0.544500	0.763203
0.544600	0.773265
0.544700	0.791766
0.544800	0.777809
0.544900	0.801828
0.545000	0.716788
0.545100	0.497046
0.545200	0.518468
0.545300	0.414927
0.545400	0.505161
0.545500	0.463614
0.545600	0.572024
0.545700	0.298077
0.545800	-0.069349
0.545900	-0.132318
0.546000	-0.029101
0.546100	0.222125
0.546200	0.195834
0.546300	-0.012223
0.546400	-0.403019
0.546500	-0.540966
0.546600	-0.499095
0.546700	-0.296881
0.546800	-0.247220
0.546900	-0.441644
0.547000	-0.623085
0.547100	-0.732794
0.547200	-0.758761
0.547300	-0.791543
0.547400	-0.823352
0.547500	-0.939228
0.547600	-1.029137
0.547700	-1.080746
0.547800	-1.074579
0.547900	-1.165787
0.548000	-1.272574
0.548100	-1.340736
0.548200	-1.368326
0.548300	-1.327753
0.548400	-1.352097
0.548500	-1.451094
0.548600	-1.624422
0.548700	-1.692259
0.548800	-1.742894
0.548900	-1.757176
0.549000	-1.665968
0.549100	-1.755553
0.549200	-1.753930
0.549300	-1.738675
0.549400	-1.745166
0.549500	-1.736403
0.549600	-1.723744
0.549700	-1.738025
0.549800	-1.685118
0.549900	-1.705892
0.550000	-1.664021
0.550100	-1.690312
0.550200	-1.659476
0.550300	-1.701023
0.550400	-1.694856
0.550500	-1.736078
0.550600	-1.762369
0.550700	-1.792231
0.550800	-1.842541
0.550900	-2.128823
0.551000	-2.499173
0.551100	-2.456328
0.551200	-2.225549
0.551300	-1.928880
0.551400	-1.954522
0.551500	-2.253788
0.551600	-2.604338
0.551700	-2.754945
0.551800	-2.578371
0.551900	-2.365120
0.552000	-2.305072
0.552100	-2.471583
0.552200	-2.694897
0.552300	-2.792272
0.552400	-2.758515
0.552500	-2.758515
0.552600	-2.737093
0.552700	-2.779613
0.552800	-2.809799
0.552900	-2.815642
0.553000	-2.818563
0.553100	-2.754945
0.553200	-2.797465
0.553300	-2.803957
0.553400	-2.889322
0.553500	-2.753646
0.553600	-2.731899
0.553700	-2.685159
0.553800	-2.751050
0.553900	-2.722162
0.554000	-2.567011
0.554100	-2.250866
0.554200	-2.213539
0.554300	-2.355382
0.554400	-2.564089
0.554500	-2.701713
0.554600	-2.502419
0.554700	-2.207697
0.554800	-2.038589
0.554900	-2.134017
0.555000	-2.348566
0.555100	-2.492357
0.555200	-2.444318
0.555300	-2.216461
0.555400	-2.052871
0.555500	-2.039887
0.555600	-2.093444
0.555700	-2.104155
0.555800	-2.070074
0.555900	-2.032747
0.556000	-2.008078
0.556100	-1.982112
0.556200	-1.975295
0.556300	-1.843515
0.556400	-1.716928
0.556500	-1.658503
0.556600	-1.684469
0.556700	-1.715305
0.556800	-1.713033
0.556900	-1.509519
0.557000	-1.402407
0.557100	-1.103791
0.557200	-1.115152
0.557300	-1.103142
0.557400	-1.047314
0.557500	-0.935333
0.557600	-0.786026
0.557700	-0.650675
0.557800	-0.524088
0.557900	-0.543238
0.558000	-0.522140
0.558100	-0.520193
0.558200	-0.456250
0.558300	-0.495525
0.558400	-0.436126
0.558500	-0.377377
0.558600	-0.330962
0.558700	-0.339401
0.558800	-0.372184
0.558900	-0.418274
0.559000	-0.451057
0.559100	-0.360174
0.559200	-0.234886
0.559300	0.138383
0.559400	0.185772
0.559500	-0.044356
0.559600	-0.614322
0.559700	-0.439697
0.559800	-0.401396
0.559900	0.065028
0.560000	0.176359
0.560100	0.075090
0.560200	-0.197234
0.560300	-0.373482
0.560400	-0.268318
0.560500	-0.146599
0.560600	0.077037
0.560700	-0.008328
0.560800	-0.032671
0.560900	-0.128098
0.561000	-0.151468
0.561100	-0.109272
0.561200	-0.117712
0.561300	-0.164127
0.561400	-0.227420
0.561500	-0.221578
0.561600	-0.249816
0.561700	-0.382246
0.561800	-0.384193
0.561900	-0.501043
0.562000	-0.515649
0.562100	-0.511754
0.562200	-0.405940
0.562300	-0.417301
0.562400	-0.535448
0.562500	-0.930465
0.562600	-0.800956
0.562700	-0.646455
0.562800	-0.277081
0.562900	-0.282599
0.563000	-0.503315
0.563100	-0.751944
0.563200	-0.786350
0.563300	-0.585109
0.563400	-0.302399
0.563500	-0.184251
0.563600	-0.314084
0.563700	-0.453329
0.563800	-0.486436
0.563900	-0.482866
0.564000	-0.380947
0.564100	-0.399124
0.564200	-0.459821
0.564300	-0.544212
0.564400	-0.633147
0.564500	-0.603935
0.564600	-0.646131
0.564700	-0.712345
0.564800	-0.712021
0.564900	-0.700660
0.565000	-0.716890
0.565100	-0.737338
0.565200	-0.922999
0.565300	-1.047963
0.565400	-1.119371
0.565500	-1.085939
0.565600	-0.979152
0.565700	-1.056078
0.565800	-1.074254
0.565900	-1.068737
0.566000	-1.054779
0.566100	-1.014531
0.566200	-1.018751
0.566300	-0.972985
0.566400	-0.946044
0.566500	-0.908718
0.566600	-0.872364
0.566700	-0.874961
0.566800	-0.786026
0.566900	-0.774990
0.567000	-0.749348
0.567100	-0.737663
0.567200	-0.792517
0.567300	-0.838283
0.567400	-0.904823
0.567500	-1.038226
0.567600	-1.376116
0.567700	-1.675381
0.567800	-1.595534
0.567900	-1.293997
0.568000	-1.173577
0.568100	-1.315744
0.568200	-1.785415
0.568300	-2.105778
0.568400	-2.166150
0.568500	-1.954847
0.568600	-1.767887
0.568700	-1.802293
0.568800	-2.000288
0.568900	-2.238208
0.569000	-2.278456
0.569100	-2.241129
0.569200	-2.148298
0.569300	-2.120384
0.569400	-2.124279
0.569500	-2.139210
0.569600	-2.150570
0.569700	-2.134341
0.569800	-2.091821
0.569900	-2.059038
0.570000	-2.082083
0.570100	-2.084355
0.570200	-2.023009
0.570300	-2.018790
0.570400	-2.035992
0.570500	-2.109673
0.570600	-2.033396
0.570700	-1.909730
0.570800	-1.648116
0.570900	-1.716603
0.571000	-1.911028
0.571100	-2.172317
0.571200	-2.272289
0.571300	-2.050274
0.571400	-1.808460
0.571500	-1.724718
0.571600	-1.885061
0.571700	-2.196986
0.571800	-2.377779
0.571900	-2.368041
0.572000	-2.226847
0.572100	-2.145052
0.572200	-2.164852
0.572300	-2.215162
0.572400	-2.276833
0.572500	-2.269043
0.572600	-2.276184
0.572700	-2.242427
0.572800	-2.141807
0.572900	-1.962961
0.573000	-1.800670
0.573100	-1.671161
0.573200	-1.642598
0.573300	-1.589367
0.573400	-1.572813
0.573500	-1.434216
0.573600	-1.143715
0.573700	-1.100546
0.573800	-0.885348
0.573900	-0.836985
0.574000	-0.755839
0.574100	-0.669825
0.574200	-0.584460
0.574300	-0.451057
0.574400	-0.312461
0.574500	-0.193988
0.574600	-0.199182
0.574700	-0.206647
0.574800	-0.250466
0.574900	-0.198208
0.575000	-0.251764
0.575100	-0.113492
0.575200	-0.057989
0.575300	-0.021311
0.575400	0.028999
0.575500	-0.066103
0.575600	0.014393
0.575700	-0.045005
0.575800	0.126698
0.575900	0.486010
0.576000	0.822601
0.576100	1.040396
0.576200	0.515872
0.576300	0.387013
0.576400	0.386688
0.576500	0.796959
0.576600	1.053379
0.576700	1.165359
0.576800	0.999823
0.576900	0.772940
0.577000	0.816759
0.577100	0.966391
0.577200	1.231250
0.577300	1.364653
0.577400	1.291297
0.577500	1.260462
0.577600	1.229951
0.577700	1.284806
0.577800	1.349397
0.577900	1.371144
0.578000	1.399058
0.578100	1.432490
0.578200	1.490590
0.578300	1.524347
0.578400	1.298763
0.578500	1.230600
0.578600	1.203336
0.578700	1.146209
0.578800	1.204309
0.578900	1.269550
0.579000	1.085512
0.579100	0.771317
0.579200	0.493800
0.579300	0.565857
0.579400	0.702182
0.579500	0.843699
0.579600	0.676215
0.579700	0.277629
0.579800	-0.055716
0.579900	-0.100509
0.580000	0.051071
0.580100	0.181553
0.580200	0.065028
0.580300	-0.167048
0.580400	-0.341348
0.580500	-0.376728
0.580600	-0.435153
0.580700	-0.395878
0.580800	-0.558818
0.580900	-0.672097
0.581000	-0.802255
0.581100	-0.865873
0.581200	-0.921376
0.581300	-1.044068
0.581400	-1.159620
0.581500	-1.235247
0.581600	-1.232651
0.581700	-1.237844
0.581800	-1.216421
0.581900	-1.467973
0.582000	-1.615333
0.582100	-1.669538
0.582200	-1.695181
0.582300	-1.743543
0.582400	-1.693558
0.582500	-1.715629
0.582600	-1.686092
0.582700	-1.724393
0.582800	-1.680250
0.582900	-1.691935
0.583000	-1.670188
0.583100	-1.651037
0.583200	-1.659801
0.583300	-1.653309
0.583400	-1.664021
0.583500	-1.600402
0.583600	-1.611763
0.583700	-1.559830
0.583800	-1.591963
0.583900	-1.584498
0.584000	-1.621176
0.584100	-1.625720
0.584200	-1.842541
0.584300	-2.185950
0.584400	-2.411860
0.584500	-2.166150
0.584600	-1.945758
0.584700	-1.716928
0.584800	-2.056766
0.584900	-2.469960
0.585000	-2.724109
0.585100	-2.621541
0.585200	-2.399201
0.585300	-2.235936
0.585400	-2.378752
0.585500	-2.628357
0.585600	-2.810124
0.585700	-2.810449
0.585800	-2.715995
0.585900	-2.662114
0.586000	-2.714047
0.586100	-2.745207
0.586200	-2.769551
0.586300	-2.751699
0.586400	-2.673474
0.586500	-2.628682
0.586600	-2.647832
0.586700	-2.723135
0.586800	-2.656920
0.586900	-2.593302
0.587000	-2.577073
0.587100	-2.604013
0.587200	-2.654648
0.587300	-2.592004
0.587400	-2.326170
0.587500	-2.187897
0.587600	-2.297282
0.587700	-2.557273
0.587800	-2.781561
0.587900	-2.704959
0.588000	-2.404719
0.588100	-2.104804
0.588200	-2.069425
0.588300	-2.276509
0.588400	-2.534228
0.588500	-2.569607
0.588600	-2.350838
0.588700	-2.134990
0.588800	-2.039238
0.588900	-2.067477
0.589000	-2.123305
0.589100	-2.105129
0.589200	-2.059362
0.589300	-1.991200
0.589400	-1.938618
0.589500	-1.846436
0.589600	-1.726665
0.589700	-1.528994
0.589800	-1.407276
0.589900	-1.373195
0.590000	-1.341710
0.590100	-1.335219
0.590200	-1.149557
0.590300	-0.912288
0.590400	-0.810694
0.590500	-0.486436
0.590600	-0.480919
0.590700	-0.406265
0.590800	-0.283248
0.590900	-0.140757
0.591000	0.067300
0.591100	0.223424
0.591200	0.284770
0.591300	0.306841
0.591400	0.263023
0.591500	0.332808
0.591600	0.299376
0.591700	0.315280
0.591800	0.347738
0.591900	0.367863
0.592000	0.340273
0.592100	0.337352
0.592200	0.244197
0.592300	0.245820
0.592400	0.120856
0.592500	0.376626
0.592600	0.477571
0.592700	0.925494
0.592800	0.652521
0.592900	0.247118
0.593000	-0.007678
0.593100	0.173438
0.593200	0.554172
0.593300	0.718411
0.593400	0.832988
0.593500	0.604807
0.593600	0.374354
0.593700	0.408760
0.593800	0.539566
0.593900	0.845971
0.594000	0.952434
0.594100	0.972883
0.594200	0.867718
0.594300	0.771317
0.594400	0.834286
0.594500	0.831365
0.594600	0.895632
0.594700	0.899203
0.594800	0.903422
0.594900	0.873561
0.595000	0.750220
0.595100	0.653170
0.595200	0.536645
0.595300	0.480168
0.595400	0.386688
0.595500	0.465562
0.595600	0.464912
0.595700	0.314631
0.595800	-0.025855
0.595900	-0.218332
0.596000	-0.099860
0.596100	0.161104
0.596200	0.240302
0.596300	0.074116
0.596400	-0.270914
0.596500	-0.485463
0.596600	-0.439697
0.596700	-0.256633
0.596800	-0.085253
0.596900	-0.149521
0.597000	-0.345893
0.597100	-0.441969
0.597200	-0.491630
0.597300	-0.483191
0.597400	-0.448136
0.597500	-0.526685
0.597600	-0.589329
0.597700	-0.695792
0.597800	-0.752594
0.597900	-0.789271
0.598000	-0.827572
0.598100	-0.848994
0.598200	-0.811668
0.598300	-0.742207
0.598400	-0.733119
0.598500	-0.776288
0.598600	-0.943123
0.598700	-1.005443
