LabVIEW Measurement	
Writer_Version	2
Reader_Version	2
Separator	Tab
Decimal_Separator	.
Multi_Headings	Yes
X_Columns	One
Time_Pref	Relative
Operator	as989
Description	Time Domain Data
Date	1903/12/31
Time	19:00:00
***End_of_Header***	
	
Channels	1	
Samples	15000	
Date	1903/12/31	
Time	19:00:00	
X_Dimension	Time	
X0	0.0000000000000000E+0	
Delta_X	0.000100	
***End_of_Header***		
X_Value	Untitled	Comment
0.000000	-0.677615	Tare Values:0.000000, 0.000000, 0.000000, 0.000000\0D\0A
0.000100	-0.775314
0.000200	-0.729548
0.000300	-0.793816
0.000400	-0.782131
0.000500	-0.829195
0.000600	-1.013882
0.000700	-0.733119
0.000800	-0.877233
0.000900	-0.970064
0.001000	-0.922350
0.001100	-0.924947
0.001200	-0.943772
0.001300	-0.967142
0.001400	-0.960326
0.001500	-0.995056
0.001600	-1.006092
0.001700	-1.098598
0.001800	-1.237844
0.001900	-1.640975
0.002000	-1.845462
0.002100	-1.640651
0.002200	-1.372546
0.002300	-1.161242
0.002400	-1.389748
0.002500	-1.733157
0.002600	-2.053195
0.002700	-1.995744
0.002800	-1.797099
0.002900	-1.625071
0.003000	-1.703620
0.003100	-1.934723
0.003200	-2.118437
0.003300	-2.187248
0.003400	-2.118437
0.003500	-2.085654
0.003600	-2.039238
0.003700	-2.130446
0.003800	-2.171344
0.003900	-2.228795
0.004000	-2.203802
0.004100	-2.217759
0.004200	-2.250542
0.004300	-2.272289
0.004400	-2.297931
0.004500	-2.254112
0.004600	-2.269368
0.004700	-2.301826
0.004800	-2.375182
0.004900	-2.334284
0.005000	-2.189196
0.005100	-2.014895
0.005200	-2.128174
0.005300	-2.370638
0.005400	-2.578047
0.005500	-2.600767
0.005600	-2.336232
0.005700	-2.084680
0.005800	-2.112594
0.005900	-2.350838
0.006000	-2.574152
0.006100	-2.629980
0.006200	-2.533254
0.006300	-2.354733
0.006400	-2.292089
0.006500	-2.309941
0.006600	-2.354084
0.006700	-2.362523
0.006800	-2.318055
0.006900	-2.282351
0.007000	-2.210943
0.007100	-2.148298
0.007200	-2.067152
0.007300	-1.925634
0.007400	-1.777625
0.007500	-1.712383
0.007600	-1.687066
0.007700	-1.689987
0.007800	-1.496861
0.007900	-1.278741
0.008000	-1.133653
0.008100	-0.935333
0.008200	-0.931763
0.008300	-0.866197
0.008400	-0.784403
0.008500	-0.661711
0.008600	-0.539343
0.008700	-0.391659
0.008800	-0.390360
0.008900	-0.325768
0.009000	-0.357253
0.009100	-0.300127
0.009200	-0.335181
0.009300	-0.322847
0.009400	-0.286819
0.009500	-0.227096
0.009600	-0.208594
0.009700	-0.202103
0.009800	-0.272862
0.009900	-0.311811
0.010000	-0.316680
0.010100	-0.158609
0.010200	0.110794
0.010300	0.409409
0.010400	0.280225
0.010500	-0.123554
0.010600	-0.366341
0.010700	-0.094666
0.010800	0.138059
0.010900	0.418497
0.011000	0.398373
0.011100	0.253934
0.011200	0.038737
0.011300	0.038412
0.011400	0.172140
0.011500	0.394803
0.011600	0.386039
0.011700	0.424015
0.011800	0.276331
0.011900	0.268216
0.012000	0.300350
0.012100	0.326316
0.012200	0.303595
0.012300	0.266918
0.012400	0.380197
0.012500	0.591824
0.012600	0.544759
0.012700	0.177009
0.012800	0.078660
0.012900	-0.020662
0.013000	0.028999
0.013100	0.477247
0.013200	0.934582
0.013300	0.432454
0.013400	-0.292012
0.013500	-0.424441
0.013600	-0.303372
0.013700	0.463289
0.013800	1.631459
0.013900	0.755737
0.014000	-0.438074
0.014100	-0.592575
0.014200	-0.470857
0.014300	0.054641
0.014400	0.952759
0.014500	0.368512
0.014600	-0.435802
0.014700	-0.557844
0.014800	-0.440995
0.014900	-0.215411
0.015000	0.465886
0.015100	-0.027478
0.015200	-0.557520
0.015300	-0.692546
0.015400	-0.477673
0.015500	-0.249492
0.015600	-0.424117
0.015700	-0.663334
0.015800	-0.471830
0.015900	-0.150819
0.016000	0.242899
0.016100	0.296779
0.016200	-0.629577
0.016300	-0.851916
0.016400	-0.846073
0.016500	-0.564336
0.016600	0.122479
0.016700	-0.135239
0.016800	-0.070647
0.016900	0.029324
0.017000	0.221476
0.017100	0.276980
0.017200	0.280875
0.017300	0.421094
0.017400	0.611948
0.017500	0.793714
0.017600	0.864472
0.017700	0.780081
0.017800	0.763203
0.017900	0.767747
0.018000	0.758010
0.018100	0.728473
0.018200	0.659337
0.018300	0.298402
0.018400	0.027701
0.018500	-1.000899
0.018600	-1.357615
0.018700	-1.424803
0.018800	-1.104441
0.018900	-0.868469
0.019000	-0.802255
0.019100	-1.067763
0.019200	-1.463753
0.019300	-1.620851
0.019400	-1.508221
0.019500	-1.304383
0.019600	-1.229405
0.019700	-1.365405
0.019800	-1.579305
0.019900	-1.765290
0.020000	-1.740622
0.020100	-1.736078
0.020200	-1.692908
0.020300	-1.710436
0.020400	-1.806512
0.020500	-1.846761
0.020600	-1.862016
0.020700	-1.845138
0.020800	-1.904536
0.020900	-1.964584
0.021000	-2.057740
0.021100	-2.092794
0.021200	-2.060985
0.021300	-2.063907
0.021400	-2.123954
0.021500	-2.172967
0.021600	-2.081759
0.021700	-1.915897
0.021800	-1.852603
0.021900	-2.023009
0.022000	-2.313836
0.022100	-2.522867
0.022200	-2.445616
0.022300	-2.161606
0.022400	-1.989577
0.022500	-2.074618
0.022600	-2.363172
0.022700	-2.592004
0.022800	-2.591679
0.022900	-2.413807
0.023000	-2.248594
0.023100	-2.264824
0.023200	-2.327144
0.023300	-2.385244
0.023400	-2.380051
0.023500	-2.338829
0.023600	-2.273912
0.023700	-2.216136
0.023800	-2.167773
0.023900	-2.075916
0.024000	-1.899992
0.024100	-1.756527
0.024200	-1.660126
0.024300	-1.615982
0.024400	-1.624746
0.024500	-1.457586
0.024600	-1.291075
0.024700	-1.256345
0.024800	-1.001223
0.024900	-0.990188
0.025000	-0.927543
0.025100	-0.839257
0.025200	-0.730522
0.025300	-0.574074
0.025400	-0.445864
0.025500	-0.397176
0.025600	-0.382246
0.025700	-0.410160
0.025800	-0.333234
0.025900	-0.370561
0.026000	-0.313434
0.026100	-0.268318
0.026200	-0.178733
0.026300	-0.179707
0.026400	-0.136862
0.026500	-0.218981
0.026600	-0.184251
0.026700	-0.194962
0.026800	0.054966
0.026900	0.399996
0.027000	0.554172
0.027100	0.454850
0.027200	-0.047602
0.027300	-0.147249
0.027400	0.083854
0.027500	0.436998
0.027600	0.611623
0.027700	0.473352
0.027800	0.377925
0.027900	0.113391
0.028000	0.244197
0.028100	0.362345
0.028200	0.947241
0.028300	0.787546
0.028400	0.917055
0.028500	0.993007
0.028600	0.797609
0.028700	0.841102
0.028800	1.169254
0.028900	1.365951
0.029000	1.581798
0.029100	1.792451
0.029200	2.358847
0.029300	1.129980
0.029400	1.193273
0.029500	1.061493
0.029600	0.823250
0.029700	1.061169
0.029800	1.547068
0.029900	1.651258
0.030000	0.752816
0.030100	-0.239105
0.030200	-0.249816
0.030300	-0.013845
0.030400	1.795697
0.030500	2.094637
0.030600	0.774888
0.030700	-0.411783
0.030800	-0.494551
0.030900	-0.392957
0.031000	0.786573
0.031100	1.587965
0.031200	1.062792
0.031300	0.175386
0.031400	-0.178733
0.031500	-0.060261
0.031600	0.285743
0.031700	0.496721
0.031800	0.415251
0.031900	0.104951
0.032000	-0.065454
0.032100	0.126698
0.032200	-0.052795
0.032300	-0.158609
0.032400	-0.138485
0.032500	0.297753
0.032600	0.497695
0.032700	0.606105
0.032800	0.171815
0.032900	-0.852889
0.033000	-0.841529
0.033100	-0.840231
0.033200	-0.080385
0.033300	-0.287143
0.033400	-0.603611
0.033500	-0.572126
0.033600	-0.493902
0.033700	-0.434503
0.033800	-0.370236
0.033900	-0.356604
0.034000	-0.180356
0.034100	-0.365367
0.034200	-0.315057
0.034300	-0.341024
0.034400	-0.509157
0.034500	-0.537396
0.034600	-0.683133
0.034700	-0.714618
0.034800	-0.676317
0.034900	-0.905796
0.035000	-0.956431
0.035100	-1.055104
0.035200	-1.365405
0.035300	-1.697453
0.035400	-1.617605
0.035500	-1.342684
0.035600	-1.101519
0.035700	-1.196946
0.035800	-1.566970
0.035900	-1.894799
0.036000	-1.954522
0.036100	-1.753930
0.036200	-1.556259
0.036300	-1.509844
0.036400	-1.746465
0.036500	-1.966207
0.036600	-2.049950
0.036700	-2.029825
0.036800	-1.977892
0.036900	-1.986980
0.037000	-2.001262
0.037100	-2.032747
0.037200	-2.061310
0.037300	-2.076890
0.037400	-2.088250
0.037500	-2.123954
0.037600	-2.227172
0.037700	-2.242752
0.037800	-2.146351
0.037900	-2.143105
0.038000	-2.201854
0.038100	-2.294361
0.038200	-2.270666
0.038300	-2.125253
0.038400	-1.893501
0.038500	-1.921415
0.038600	-2.104804
0.038700	-2.354084
0.038800	-2.477750
0.038900	-2.287220
0.039000	-1.998016
0.039100	-1.928231
0.039200	-2.072021
0.039300	-2.342399
0.039400	-2.521894
0.039500	-2.483593
0.039600	-2.303124
0.039700	-2.175888
0.039800	-2.175888
0.039900	-2.235936
0.040000	-2.278131
0.040100	-2.236909
0.040200	-2.209320
0.040300	-2.175239
0.040400	-2.126876
0.040500	-2.041835
0.040600	-1.886684
0.040700	-1.703944
0.040800	-1.636756
0.040900	-1.629939
0.041000	-1.530293
0.041100	-1.460507
0.041200	-1.208956
0.041300	-1.101195
0.041400	-1.083018
0.041500	-0.882751
0.041600	-0.860355
0.041700	-0.753243
0.041800	-0.644508
0.041900	-0.508833
0.042000	-0.343296
0.042100	-0.247220
0.042200	-0.207945
0.042300	-0.192041
0.042400	-0.183277
0.042500	-0.076165
0.042600	-0.165750
0.042700	-0.067077
0.042800	-0.114141
0.042900	0.007577
0.043000	-0.086227
0.043100	-0.052146
0.043200	-0.099860
0.043300	-0.081358
0.043400	-0.064480
0.043500	0.177009
0.043600	0.611948
0.043700	0.560015
0.043800	0.302297
0.043900	-0.148871
0.044000	0.000112
0.044100	0.207844
0.044200	0.617141
0.044300	0.688874
0.044400	0.502564
0.044500	0.319824
0.044600	0.198431
0.044700	0.359748
0.044800	0.651222
0.044900	1.558428
0.045000	1.770704
0.045100	1.074152
0.045200	1.469817
0.045300	1.400357
0.045400	1.821339
0.045500	2.179678
0.045600	2.237129
0.045700	2.267639
0.045800	2.380269
0.045900	2.451353
0.046000	1.944031
0.046100	1.798618
0.046200	1.672356
0.046300	1.616528
0.046400	2.170265
0.046500	2.408833
0.046600	2.422465
0.046700	0.885246
0.046800	-0.157635
0.046900	0.119233
0.047000	1.564595
0.047100	3.433864
0.047200	3.082990
0.047300	1.710008
0.047400	-0.268318
0.047500	-0.177110
0.047600	1.042992
0.047700	2.859353
0.047800	3.263134
0.047900	2.253358
0.048000	1.165684
0.048100	1.196519
0.048200	1.441254
0.048300	2.090093
0.048400	1.904107
0.048500	1.527593
0.048600	1.075450
0.048700	1.202686
0.048800	1.445149
0.048900	1.187756
0.049000	0.872911
0.049100	0.925169
0.049200	1.391593
0.049300	1.572060
0.049400	1.606141
0.049500	0.698611
0.049600	-0.224824
0.049700	-0.085903
0.049800	0.086450
0.049900	1.000797
0.050000	0.647976
0.050100	0.471404
0.050200	0.693418
0.050300	0.743079
0.050400	0.876157
0.050500	0.937503
0.050600	0.848892
0.050700	0.957627
0.050800	0.882649
0.050900	0.716788
0.051000	0.572998
0.051100	0.508731
0.051200	0.278603
0.051300	0.148445
0.051400	-0.077788
0.051500	-0.478322
0.051600	-0.774016
0.051700	-0.910665
0.051800	-1.097300
0.051900	-1.514063
0.052000	-1.731209
0.052100	-1.589691
0.052200	-1.308603
0.052300	-1.124565
0.052400	-1.331648
0.052500	-1.790932
0.052600	-2.075267
0.052700	-2.048976
0.052800	-1.840269
0.052900	-1.668240
0.053000	-1.725691
0.053100	-2.010675
0.053200	-2.219382
0.053300	-2.293062
0.053400	-2.286571
0.053500	-2.226523
0.053600	-2.226847
0.053700	-2.264174
0.053800	-2.347268
0.053900	-2.393683
0.054000	-2.383621
0.054100	-2.383946
0.054200	-2.458600
0.054300	-2.517025
0.054400	-2.503068
0.054500	-2.468013
0.054600	-2.436204
0.054700	-2.493330
0.054800	-2.505989
0.054900	-2.503068
0.055000	-2.245673
0.055100	-2.077539
0.055200	-2.134990
0.055300	-2.362523
0.055400	-2.621541
0.055500	-2.636796
0.055600	-2.369015
0.055700	-2.060012
0.055800	-1.965233
0.055900	-2.189196
0.056000	-2.459249
0.056100	-2.565388
0.056200	-2.437502
0.056300	-2.227821
0.056400	-2.121358
0.056500	-2.108050
0.056600	-2.165177
0.056700	-2.184002
0.056800	-2.151544
0.056900	-2.118112
0.057000	-2.027878
0.057100	-1.980164
0.057200	-1.823715
0.057300	-1.654608
0.057400	-1.568593
0.057500	-1.522178
0.057600	-1.557557
0.057700	-1.541004
0.057800	-1.428374
0.057900	-1.205710
0.058000	-1.149882
0.058100	-0.960002
0.058200	-0.929815
0.058300	-0.865873
0.058400	-0.801930
0.058500	-0.685081
0.058600	-0.552327
0.058700	-0.380298
0.058800	-0.307916
0.058900	-0.241702
0.059000	-0.255010
0.059100	-0.245597
0.059200	-0.199182
0.059300	-0.247220
0.059400	-0.118036
0.059500	-0.148871
0.059600	-0.024881
0.059700	-0.080385
0.059800	-0.040786
0.059900	-0.085903
0.060000	-0.069349
0.060100	0.023806
0.060200	0.313333
0.060300	0.664205
0.060400	0.479519
0.060500	0.177982
0.060600	-0.298504
0.060700	0.054966
0.060800	0.269514
0.060900	0.601237
0.061000	0.602535
0.061100	0.428559
0.061200	0.188693
0.061300	0.126698
0.061400	0.286393
0.061500	0.456473
0.061600	0.960873
0.061700	0.823575
0.061800	0.642134
0.061900	0.779107
0.062000	0.609027
0.062100	0.880701
0.062200	1.133226
0.062300	1.354266
0.062400	1.260786
0.062500	1.673005
0.062600	0.850840
0.062700	0.865446
0.062800	0.531776
0.062900	0.374354
0.063000	0.605781
0.063100	1.372118
0.063200	1.326352
0.063300	1.379908
0.063400	-0.248843
0.063500	-0.368289
0.063600	-0.317005
0.063700	0.986190
0.063800	1.992718
0.063900	1.440605
0.064000	-0.350112
0.064100	-0.543887
0.064200	-0.515973
0.064300	0.161104
0.064400	1.374390
0.064500	1.187756
0.064600	0.122803
0.064700	-0.531553
0.064800	-0.514026
0.064900	-0.433854
0.065000	0.134488
0.065100	-0.213463
0.065200	-0.582188
0.065300	-0.706503
0.065400	-0.713968
0.065500	-0.736040
0.065600	-0.763305
0.065700	-0.794140
0.065800	-0.650350
0.065900	-0.416327
0.066000	-0.131019
0.066100	0.003682
0.066200	-1.131705
0.066300	-0.893462
0.066400	-0.883400
0.066500	-0.620813
0.066600	0.129944
0.066700	-0.182303
0.066800	0.017314
0.066900	0.200703
0.067000	0.387987
0.067100	0.585657
0.067200	0.656740
0.067300	0.805723
0.067400	0.752816
0.067500	0.935556
0.067600	0.966066
0.067700	0.953083
0.067800	0.926467
0.067900	0.894983
0.068000	0.754115
0.068100	0.704778
0.068200	0.498993
0.068300	0.415901
0.068400	-0.216384
0.068500	-0.988565
0.068600	-1.323858
0.068700	-1.445901
0.068800	-1.163839
0.068900	-0.882102
0.069000	-0.830493
0.069100	-1.157997
0.069200	-1.511467
0.069300	-1.738025
0.069400	-1.623772
0.069500	-1.381309
0.069600	-1.276469
0.069700	-1.369624
0.069800	-1.607219
0.069900	-1.762694
0.070000	-1.780221
0.070100	-1.669538
0.070200	-1.674732
0.070300	-1.685768
0.070400	-1.726665
0.070500	-1.759772
0.070600	-1.783142
0.070700	-1.792880
0.070800	-1.791257
0.070900	-1.886360
0.071000	-1.917844
0.071100	-1.977568
0.071200	-1.953224
0.071300	-2.002885
0.071400	-2.078513
0.071500	-2.106427
0.071600	-2.091821
0.071700	-1.855849
0.071800	-1.760746
0.071900	-1.926933
0.072000	-2.205749
0.072100	-2.471259
0.072200	-2.373234
0.072300	-2.109348
0.072400	-1.925959
0.072500	-1.984384
0.072600	-2.260279
0.072700	-2.559545
0.072800	-2.633875
0.072900	-2.482294
0.073000	-2.352786
0.073100	-2.336232
0.073200	-2.406342
0.073300	-2.483593
0.073400	-2.511832
0.073500	-2.482294
0.073600	-2.443020
0.073700	-2.384919
0.073800	-2.332337
0.073900	-2.204127
0.074000	-2.023983
0.074100	-1.959391
0.074200	-1.948680
0.074300	-1.936670
0.074400	-1.947706
0.074500	-1.734455
0.074600	-1.563725
0.074700	-1.499133
0.074800	-1.219992
0.074900	-1.255047
0.075000	-1.200192
0.075100	-1.085290
0.075200	-0.942474
0.075300	-0.780183
0.075400	-0.657816
0.075500	-0.602961
0.075600	-0.563687
0.075700	-0.605558
0.075800	-0.498446
0.075900	-0.532527
0.076000	-0.424766
0.076100	-0.418274
0.076200	-0.292986
0.076300	-0.307916
0.076400	-0.247220
0.076500	-0.275134
0.076600	-0.286819
0.076700	-0.244948
0.076800	-0.042084
0.076900	0.265295
0.077000	0.457122
0.077100	0.377275
0.077200	-0.180680
0.077300	-0.207945
0.077400	0.050422
0.077500	0.344493
0.077600	0.601886
0.077700	0.538268
0.077800	0.371757
0.077900	0.124751
0.078000	0.224397
0.078100	0.383118
0.078200	0.700559
0.078300	1.245531
0.078400	1.344529
0.078500	1.491889
0.078600	1.386400
0.078700	1.724938
0.078800	2.154685
0.078900	2.217978
0.079000	2.361444
0.079100	2.630198
0.079200	2.767821
0.079300	2.117682
0.079400	2.127095
0.079500	2.128069
0.079600	2.035563
0.079700	2.128394
0.079800	2.942446
0.079900	2.992756
0.080000	2.310160
0.080100	0.140006
0.080200	0.300674
0.080300	1.058248
0.080400	2.924919
0.080500	3.298189
0.080600	2.147219
0.080700	0.308140
0.080800	-0.173215
0.080900	0.339299
0.081000	1.897616
0.081100	2.515296
0.081200	2.014790
0.081300	0.975804
0.081400	0.465237
0.081500	0.607728
0.081600	0.797284
0.081700	0.961522
0.081800	0.756387
0.081900	0.501590
0.082000	0.548005
0.082100	0.704129
0.082200	0.621361
0.082300	0.394478
0.082400	0.344168
0.082500	0.650898
0.082600	0.913809
0.082700	0.960548
0.082800	0.659337
0.082900	-0.333883
0.083000	-0.593873
0.083100	-0.550379
0.083200	-0.357577
0.083300	0.195185
0.083400	-0.068051
0.083500	-0.068375
0.083600	0.024131
0.083700	0.125400
0.083800	0.155262
0.083900	0.197782
0.084000	0.254908
0.084100	0.319824
0.084200	0.276980
0.084300	0.420120
0.084400	0.308789
0.084500	0.400645
0.084600	0.219853
0.084700	0.353906
0.084800	0.240302
0.084900	0.014393
0.085000	-0.212814
0.085100	-0.839582
0.085200	-1.207009
0.085300	-1.460507
0.085400	-1.468297
0.085500	-1.128784
0.085600	-0.971037
0.085700	-1.000574
0.085800	-1.412145
0.085900	-1.739648
0.086000	-1.835725
0.086100	-1.664670
0.086200	-1.471868
0.086300	-1.425777
0.086400	-1.602350
0.086500	-1.855524
0.086600	-1.933100
0.086700	-1.920116
0.086800	-1.873701
0.086900	-1.864288
0.087000	-1.895123
0.087100	-1.936346
0.087200	-1.936021
0.087300	-1.962637
0.087400	-1.976918
0.087500	-2.019763
0.087600	-2.099935
0.087700	-2.123305
0.087800	-2.062933
0.087900	-2.094417
0.088000	-2.127525
0.088100	-2.219382
0.088200	-2.205749
0.088300	-2.099935
0.088400	-1.860718
0.088500	-1.877271
0.088600	-2.088575
0.088700	-2.345645
0.088800	-2.478399
0.088900	-2.298905
0.089000	-2.022685
0.089100	-1.905510
0.089200	-2.049300
0.089300	-2.330065
0.089400	-2.523841
0.089500	-2.481645
0.089600	-2.317731
0.089700	-2.180757
0.089800	-2.174265
0.089900	-2.236260
0.090000	-2.256384
0.090100	-2.234637
0.090200	-2.185625
0.090300	-2.150570
0.090400	-2.084031
0.090500	-1.999639
0.090600	-1.832154
0.090700	-1.651362
0.090800	-1.558856
0.090900	-1.544574
0.091000	-1.513090
0.091100	-1.466350
0.091200	-1.202140
0.091300	-1.063219
0.091400	-0.816536
0.091500	-0.786675
0.091600	-0.766226
0.091700	-0.702608
0.091800	-0.577319
0.091900	-0.447487
0.092000	-0.310513
0.092100	-0.208919
0.092200	-0.221253
0.092300	-0.186847
0.092400	-0.198532
0.092500	-0.154389
0.092600	-0.179382
0.092700	-0.150819
0.092800	-0.125177
0.092900	-0.048251
0.093000	-0.110571
0.093100	-0.061884
0.093200	-0.181654
0.093300	-0.133292
0.093400	-0.068700
0.093500	0.169219
0.093600	0.474974
0.093700	0.531776
0.093800	0.274708
0.093900	-0.317005
0.094000	-0.083631
0.094100	-0.005082
0.094200	0.500941
0.094300	0.510678
0.094400	0.364941
0.094500	0.194211
0.094600	0.090670
0.094700	0.243223
0.094800	0.457772
0.094900	1.254944
0.095000	0.174736
0.095100	0.449657
0.095200	0.383442
0.095300	0.974830
0.095400	1.389321
0.095500	1.660996
0.095600	1.636327
0.095700	1.684366
0.095800	1.903134
0.095900	2.043353
0.096000	2.040107
0.096100	1.498056
0.096200	1.467545
0.096300	1.149130
0.096400	1.923582
0.096500	2.378971
0.096600	2.801902
0.096700	0.917704
0.096800	-0.309215
0.096900	0.210116
0.097000	1.416261
0.097100	3.466323
0.097200	3.023916
0.097300	1.621721
0.097400	-0.403019
0.097500	-0.041435
0.097600	0.909589
0.097700	2.746723
0.097800	2.869740
0.097900	1.885931
0.098000	0.797284
0.098100	0.870964
0.098200	1.069608
0.098300	1.769406
0.098400	1.577903
0.098500	1.148481
0.098600	0.655442
0.098700	0.535996
0.098800	0.855059
0.098900	0.780406
0.099000	0.654468
0.099100	0.658688
0.099200	0.912510
0.099300	1.204309
0.099400	1.542848
0.099500	0.862525
0.099600	-0.039812
0.099700	-0.105377
0.099800	0.313982
0.099900	1.293894
0.100000	1.017350
0.100100	0.773589
0.100200	1.159517
0.100300	1.092329
0.100400	1.284156
0.100500	1.296815
0.100600	1.374390
0.100700	1.427621
0.100800	1.431516
0.100900	1.445798
0.101000	1.280586
0.101100	1.286753
0.101200	1.244882
0.101300	1.260137
0.101400	1.068310
0.101500	1.001446
0.101600	0.692120
0.101700	0.183176
0.101800	-0.520518
0.101900	-1.195973
0.102000	-1.346579
0.102100	-1.263486
0.102200	-0.923324
0.102300	-0.795763
0.102400	-0.984670
0.102500	-1.373195
0.102600	-1.647791
0.102700	-1.623448
0.102800	-1.379686
0.102900	-1.224211
0.103000	-1.320612
0.103100	-1.581252
0.103200	-1.795477
0.103300	-1.814627
0.103400	-1.730560
0.103500	-1.712708
0.103600	-1.778274
0.103700	-1.835725
0.103800	-1.925634
0.103900	-1.893501
0.104000	-1.839944
0.104100	-1.817548
0.104200	-1.889606
0.104300	-2.030475
0.104400	-2.053195
0.104500	-1.986980
0.104600	-1.970751
0.104700	-2.006131
0.104800	-2.051248
0.104900	-2.078188
0.105000	-1.897396
0.105100	-1.714331
0.105200	-1.752632
0.105300	-1.949329
0.105400	-2.207048
0.105500	-2.297282
0.105600	-2.071047
0.105700	-1.801968
0.105800	-1.731209
0.105900	-1.921415
0.106000	-2.232365
0.106100	-2.397254
0.106200	-2.282026
0.106300	-2.075916
0.106400	-1.975620
0.106500	-1.984384
0.106600	-2.054169
0.106700	-2.110647
0.106800	-2.076565
0.106900	-1.995095
0.107000	-1.915897
0.107100	-1.861367
0.107200	-1.736078
0.107300	-1.553987
0.107400	-1.432918
0.107500	-1.379037
0.107600	-1.371247
0.107700	-1.358588
0.107800	-1.247581
0.107900	-1.024593
0.108000	-0.941825
0.108100	-0.691897
0.108200	-0.679238
0.108300	-0.650675
0.108400	-0.569854
0.108500	-0.443592
0.108600	-0.335181
0.108700	-0.146599
0.108800	-0.109597
0.108900	-0.088499
0.109000	-0.068700
0.109100	-0.131019
0.109200	-0.048251
0.109300	-0.116089
0.109400	0.009524
0.109500	0.013744
0.109600	0.023157
0.109700	0.045878
0.109800	-0.026829
0.109900	0.021534
0.110000	-0.036566
0.110100	0.050097
0.110200	0.361695
0.110300	0.570077
0.110400	0.677189
0.110500	0.095539
0.110600	0.012770
0.110700	-0.044681
0.110800	0.454201
0.110900	0.571700
0.111000	0.637265
0.111100	0.439920
0.111200	0.237705
0.111300	0.235758
0.111400	0.382793
0.111500	0.895632
0.111600	1.731755
0.111700	1.359135
0.111800	1.499354
0.111900	1.147832
0.112000	1.415612
0.112100	1.370170
0.112200	2.034914
0.112300	2.228689
0.112400	2.307563
0.112500	2.603582
0.112600	2.416298
0.112700	1.946628
0.112800	1.894045
0.112900	1.587640
0.113000	1.765186
0.113100	1.944680
0.113200	2.464012
0.113300	2.245568
0.113400	0.974181
0.113500	-0.114790
0.113600	0.658363
0.113700	2.128394
0.113800	3.605894
0.113900	2.955105
0.114000	1.605817
0.114100	0.150717
0.114200	0.535996
0.114300	1.791478
0.114400	3.210551
0.114500	3.386475
0.114600	2.360794
0.114700	1.685339
0.114800	1.883010
0.114900	1.941110
0.115000	2.583782
0.115100	2.161826
0.115200	2.084250
0.115300	1.844060
0.115400	1.689883
0.115500	1.810952
0.115600	1.437683
0.115700	1.295841
0.115800	1.508118
0.115900	1.822962
0.116000	1.998561
0.116100	1.834322
0.116200	0.873561
0.116300	0.116312
0.116400	0.227643
0.116500	0.968663
0.116600	1.268252
0.116700	0.799881
0.116800	0.745351
0.116900	0.867069
0.117000	0.827145
0.117100	0.728473
0.117200	0.766449
0.117300	0.898229
0.117400	0.967689
0.117500	0.946591
0.117600	1.007613
0.117700	0.859279
0.117800	0.782353
0.117900	0.744702
0.118000	0.650898
0.118100	0.529829
0.118200	0.469132
0.118300	0.047825
0.118400	-0.410809
0.118500	-0.991486
0.118600	-1.424479
0.118700	-1.481605
0.118800	-1.314445
0.118900	-0.904823
0.119000	-0.912288
0.119100	-1.154426
0.119200	-1.590665
0.119300	-1.803591
0.119400	-1.697128
0.119500	-1.443629
0.119600	-1.338464
0.119700	-1.462455
0.119800	-1.726665
0.119900	-1.908107
0.120000	-1.923687
0.120100	-1.889606
0.120200	-1.863639
0.120300	-1.915572
0.120400	-1.970102
0.120500	-2.021062
0.120600	-2.067802
0.120700	-2.094417
0.120800	-2.147649
0.120900	-2.237883
0.121000	-2.248270
0.121100	-2.298905
0.121200	-2.260279
0.121300	-2.318380
0.121400	-2.393359
0.121500	-2.435554
0.121600	-2.419650
0.121700	-2.187573
0.121800	-2.139210
0.121900	-2.253139
0.122000	-2.503068
0.122100	-2.803632
0.122200	-2.736768
0.122300	-2.450485
0.122400	-2.220356
0.122500	-2.222628
0.122600	-2.479373
0.122700	-2.743584
0.122800	-2.823756
0.122900	-2.653350
0.123000	-2.452433
0.123100	-2.369989
0.123200	-2.371287
0.123300	-2.438476
0.123400	-2.441072
0.123500	-2.388814
0.123600	-2.346619
0.123700	-2.255735
0.123800	-2.195038
0.123900	-2.085978
0.124000	-1.888956
0.124100	-1.783142
0.124200	-1.729911
0.124300	-1.723744
0.124400	-1.696479
0.124500	-1.484526
0.124600	-1.273872
0.124700	-1.018426
0.124800	-0.881777
0.124900	-0.882102
0.125000	-0.787648
0.125100	-0.696766
0.125200	-0.559143
0.125300	-0.433530
0.125400	-0.245921
0.125500	-0.190418
0.125600	-0.143678
0.125700	-0.148222
0.125800	-0.082981
0.125900	-0.104079
0.126000	-0.043707
0.126100	-0.029750
0.126200	0.054317
0.126300	0.086775
0.126400	0.087424
0.126500	0.086126
0.126600	0.075090
0.126700	0.085152
0.126800	0.257829
0.126900	0.613895
0.127000	0.944319
0.127100	0.645055
0.127200	0.348388
0.127300	0.031921
0.127400	0.319175
0.127500	0.544435
0.127600	1.094601
0.127700	0.918353
0.127800	0.516196
0.127900	0.332808
0.128000	0.349037
0.128100	0.510029
0.128200	1.208529
0.128300	1.369521
0.128400	1.424376
0.128500	1.136147
0.128600	1.223784
0.128700	1.543173
0.128800	1.666189
0.128900	1.874895
0.129000	1.993043
0.129100	2.069644
0.129200	2.421167
0.129300	1.731105
0.129400	1.658074
0.129500	1.133226
0.129600	0.983918
0.129700	1.344204
0.129800	2.056986
0.129900	2.529577
0.130000	1.923258
0.130100	-0.496823
0.130200	-0.165425
0.130300	0.121180
0.130400	1.782065
0.130500	2.709071
0.130600	1.427621
0.130700	-0.437749
0.130800	-0.435153
0.130900	-0.329014
0.131000	1.192624
0.131100	2.070293
0.131200	1.731755
0.131300	0.780081
0.131400	0.305218
0.131500	0.884921
0.131600	0.841427
0.131700	1.218915
0.131800	0.717761
0.131900	0.662907
0.132000	0.708024
0.132100	0.794687
0.132200	0.597342
0.132300	0.314307
0.132400	0.235109
0.132500	0.350335
0.132600	0.553199
0.132700	0.751518
0.132800	0.381820
0.132900	-0.554599
0.133000	-0.816861
0.133100	-0.786350
0.133200	-0.609128
0.133300	0.137085
0.133400	-0.063506
0.133500	0.039386
0.133600	0.032894
0.133700	0.222125
0.133800	0.302622
0.133900	0.406488
0.134000	0.478869
0.134100	0.746974
0.134200	0.719060
0.134300	0.708024
0.134400	0.655766
0.134500	0.841752
0.134600	0.754439
0.134700	0.832663
0.134800	1.015078
0.134900	0.762229
0.135000	0.688225
0.135100	-0.034294
0.135200	-0.984994
0.135300	-1.317042
0.135400	-1.338140
0.135500	-0.982398
0.135600	-0.759085
0.135700	-0.515000
0.135800	-1.177472
0.135900	-1.500431
0.136000	-1.637729
0.136100	-1.459858
0.136200	-1.206359
0.136300	-1.166436
0.136400	-1.336841
0.136500	-1.562426
0.136600	-1.665643
0.136700	-1.636106
0.136800	-1.581577
0.136900	-1.560479
0.137000	-1.592937
0.137100	-1.671486
0.137200	-1.672784
0.137300	-1.714331
0.137400	-1.699400
0.137500	-1.732508
0.137600	-1.839620
0.137700	-1.811057
0.137800	-1.816574
0.137900	-1.830207
0.138000	-1.856498
0.138100	-1.941214
0.138200	-1.949653
0.138300	-1.858770
0.138400	-1.608517
0.138500	-1.591639
0.138600	-1.760746
0.138700	-2.035992
0.138800	-2.213864
0.138900	-2.080136
0.139000	-1.803267
0.139100	-1.681548
0.139200	-1.786713
0.139300	-2.041186
0.139400	-2.224900
0.139500	-2.204451
0.139600	-2.067152
0.139700	-1.933100
0.139800	-1.920441
0.139900	-1.932126
0.140000	-1.956794
0.140100	-1.940241
0.140200	-1.897071
0.140300	-1.856823
0.140400	-1.792231
0.140500	-1.720498
0.140600	-1.594884
0.140700	-1.332297
0.140800	-1.227457
0.140900	-1.235247
0.141000	-1.232001
0.141100	-1.237195
0.141200	-1.039200
0.141300	-0.911314
0.141400	-0.874636
0.141500	-0.636718
0.141600	-0.663334
0.141700	-0.622112
0.141800	-0.542265
0.141900	-0.436126
0.142000	-0.280002
0.142100	-0.220929
0.142200	-0.218657
0.142300	-0.190418
0.142400	-0.217034
0.142500	-0.204375
0.142600	-0.206322
0.142700	-0.231315
0.142800	-0.153416
0.142900	-0.218332
0.143000	-0.095315
0.143100	-0.205998
0.143200	-0.144003
0.143300	-0.275134
0.143400	-0.116738
0.143500	0.077037
0.143600	0.408760
0.143700	0.610974
0.143800	0.222450
0.143900	-0.067077
0.144000	-0.132642
0.144100	0.232837
0.144200	0.496072
0.144300	0.658038
0.144400	0.588578
0.144500	0.353256
0.144600	0.257829
0.144700	0.357476
0.144800	0.559041
0.144900	2.116060
0.145000	2.047248
0.145100	2.246541
0.145200	1.864509
0.145300	2.156308
0.145400	2.154685
0.145500	2.817482
0.145600	3.030732
0.145700	3.203735
0.145800	3.404977
0.145900	3.721770
0.146000	3.510466
0.146100	2.648374
0.146200	2.914856
0.146300	2.175133
0.146400	3.473788
0.146500	3.325778
0.146600	3.892825
0.146700	2.340021
0.146800	0.872911
0.146900	1.249751
0.147000	2.393253
0.147100	4.271615
0.147200	3.926582
0.147300	2.610398
0.147400	0.823900
0.147500	0.574946
0.147600	1.549989
0.147700	2.919076
0.147800	3.224833
0.147900	2.393902
0.148000	1.468194
0.148100	1.466247
0.148200	1.813549
0.148300	2.038484
0.148400	1.938189
0.148500	1.552585
0.148600	1.239364
0.148700	1.262734
0.148800	1.458132
0.148900	1.405225
0.149000	1.215670
0.149100	1.306877
0.149200	1.603545
0.149300	1.992394
0.149400	2.344890
0.149500	1.860938
0.149600	0.988138
0.149700	0.943021
0.149800	1.058897
0.149900	2.126122
0.150000	1.970971
0.150100	1.674953
0.150200	1.881711
0.150300	1.926828
0.150400	1.892423
0.150500	2.017062
0.150600	1.914494
0.150700	2.105348
0.150800	2.118981
0.150900	2.266016
0.151000	2.159878
0.151100	2.088470
0.151200	2.093014
0.151300	1.843735
0.151400	2.036212
0.151500	1.741492
0.151600	1.901835
0.151700	1.275393
0.151800	0.775212
0.151900	-0.946044
0.152000	-1.186235
0.152100	-1.104765
0.152200	-0.802255
0.152300	0.181553
0.152400	-0.868145
0.152500	-1.103791
0.152600	-1.467324
0.152700	-1.472841
0.152800	-1.338789
0.152900	-1.173252
0.153000	-1.262512
0.153100	-1.484202
0.153200	-1.710111
0.153300	-1.813653
0.153400	-1.754904
0.153500	-1.737052
0.153600	-1.773730
0.153700	-1.859419
0.153800	-1.912976
0.153900	-1.917195
0.154000	-1.942188
0.154100	-1.937968
0.154200	-2.019439
0.154300	-2.087277
0.154400	-2.115191
0.154500	-2.018790
0.154600	-2.024307
0.154700	-2.103181
0.154800	-2.156413
0.154900	-2.142456
0.155000	-2.010026
0.155100	-1.783142
0.155200	-1.838646
0.155300	-1.997043
0.155400	-2.222303
0.155500	-2.293387
0.155600	-2.041835
0.155700	-1.754904
0.155800	-1.670512
0.155900	-1.833777
0.156000	-2.071697
0.156100	-2.190819
0.156200	-2.101883
0.156300	-1.906808
0.156400	-1.820469
0.156500	-1.828584
0.156600	-1.907782
0.156700	-1.950303
0.156800	-1.913949
0.156900	-1.867209
0.157000	-1.824040
0.157100	-1.785739
0.157200	-1.694531
0.157300	-1.541653
0.157400	-1.417338
0.157500	-1.384555
0.157600	-1.398512
0.157700	-1.396240
0.157800	-1.351448
0.157900	-1.154751
0.158000	-1.102818
0.158100	-0.921701
0.158200	-0.845749
0.158300	-0.852889
0.158400	-0.777911
0.158500	-0.673720
0.158600	-0.574074
0.158700	-0.460470
0.158800	-0.391983
0.158900	-0.393606
0.159000	-0.352709
0.159100	-0.368289
0.159200	-0.297205
0.159300	-0.344594
0.159400	-0.248193
0.159500	-0.222551
0.159600	-0.175163
0.159700	-0.174838
0.159800	-0.142380
0.159900	-0.202103
0.160000	-0.171268
0.160100	-0.073568
0.160200	0.231863
0.160300	0.608702
0.160400	0.637265
0.160500	0.284120
0.160600	-0.072270
0.160700	0.022183
0.160800	0.344817
0.160900	0.500941
0.161000	0.675566
0.161100	0.512626
0.161200	0.269839
0.161300	0.199729
0.161400	0.384092
0.161500	0.538592
0.161600	1.134849
0.161700	0.849866
0.161800	0.573972
0.161900	0.385065
0.162000	0.647652
0.162100	0.659986
0.162200	0.910887
0.162300	0.842725
0.162400	0.857656
0.162500	1.058897
0.162600	0.543137
0.162700	0.109171
0.162800	0.256856
0.162900	-0.311162
0.163000	0.154288
0.163100	0.771642
0.163200	1.357836
0.163300	1.282209
0.163400	-0.036242
0.163500	-0.239754
0.163600	-0.181005
0.163700	1.055651
0.163800	2.749969
0.163900	2.215706
0.164000	0.952759
0.164100	-0.352060
0.164200	-0.076814
0.164300	1.055002
0.164400	2.568202
0.164500	2.682455
0.164600	1.761291
0.164700	0.948864
0.164800	1.192300
0.164900	1.348099
0.165000	1.915468
0.165100	1.464948
0.165200	1.234171
0.165300	0.918028
0.165400	0.764826
0.165500	1.119593
0.165600	0.936529
0.165700	0.742105
0.165800	0.863823
0.165900	1.214696
0.166000	1.495784
0.166100	1.557130
0.166200	0.638239
0.166300	-0.155363
0.166400	-0.187497
0.166500	0.098784
0.166600	0.902448
0.166700	0.332808
0.166800	0.139682
0.166900	0.124102
0.167000	0.017639
0.167100	0.029648
0.167200	-0.182303
0.167300	-0.258905
0.167400	-0.367640
0.167500	-0.340050
0.167600	-0.446188
0.167700	-0.454627
0.167800	-0.682808
0.167900	-0.605883
0.168000	-0.821405
0.168100	-0.719811
0.168200	-0.896059
0.168300	-0.938579
0.168400	-0.917481
0.168500	-1.082044
0.168600	-1.387152
0.168700	-1.497834
0.168800	-1.344956
0.168900	-1.015505
0.169000	-0.943448
0.169100	-1.119371
0.169200	-1.562751
0.169300	-1.691286
0.169400	-1.654283
0.169500	-1.379362
0.169600	-1.285557
0.169700	-1.391047
0.169800	-1.639677
0.169900	-1.807486
0.170000	-1.833453
0.170100	-1.777625
0.170200	-1.772756
0.170300	-1.808784
0.170400	-1.881816
0.170500	-1.928880
0.170600	-1.968155
0.170700	-1.990226
0.170800	-2.026255
0.170900	-2.066503
0.171000	-2.145377
0.171100	-2.095067
0.171200	-2.129472
0.171300	-2.151219
0.171400	-2.207697
0.171500	-2.255086
0.171600	-2.188547
0.171700	-2.023983
0.171800	-1.877271
0.171900	-2.010026
0.172000	-2.248270
0.172100	-2.484891
0.172200	-2.454705
0.172300	-2.191468
0.172400	-1.989253
0.172500	-2.012947
0.172600	-2.244375
0.172700	-2.476127
0.172800	-2.535526
0.172900	-2.379726
0.173000	-2.180107
0.173100	-2.105453
0.173200	-2.132394
0.173300	-2.180107
0.173400	-2.165177
0.173500	-2.097663
0.173600	-2.061310
0.173700	-1.974971
0.173800	-1.896746
0.173900	-1.806512
0.174000	-1.650713
0.174100	-1.532889
0.174200	-1.504326
0.174300	-1.479333
0.174400	-1.447524
0.174500	-1.286531
0.174600	-1.076202
0.174700	-0.823028
0.174800	-0.713968
0.174900	-0.681835
0.175000	-0.650675
0.175100	-0.576995
0.175200	-0.471830
0.175300	-0.319926
0.175400	-0.209568
0.175500	-0.151468
0.175600	-0.132642
0.175700	-0.153091
0.175800	-0.156012
0.175900	-0.158933
0.176000	-0.185549
0.176100	-0.114141
0.176200	-0.158284
0.176300	-0.107974
0.176400	-0.172566
0.176500	-0.181330
0.176600	-0.201778
0.176700	-0.231640
0.176800	-0.054743
0.176900	0.216607
0.177000	0.560664
0.177100	0.409409
0.177200	0.021209
0.177300	-0.179707
0.177400	0.042307
0.177500	0.322097
0.177600	0.466860
0.177700	0.519442
0.177800	0.252636
0.177900	0.163052
0.178000	0.161753
0.178100	0.429208
0.178200	0.690497
0.178300	1.080319
0.178400	1.026439
0.178500	1.002419
0.178600	0.801828
0.178700	1.218915
0.178800	1.608738
0.178900	2.030694
0.179000	2.296527
0.179100	2.513023
0.179200	2.718809
0.179300	2.511725
0.179400	1.705788
0.179500	2.087172
0.179600	1.452939
0.179700	2.139105
0.179800	2.768470
0.179900	2.860002
0.180000	2.561711
0.180100	0.378574
0.180200	0.276006
0.180300	0.726201
0.180400	2.374102
0.180500	3.117396
0.180600	2.208890
0.180700	0.383118
0.180800	-0.315382
0.180900	0.411356
0.181000	1.883334
0.181100	2.882723
0.181200	2.531200
0.181300	1.774924
0.181400	1.305579
0.181500	1.889501
0.181600	1.759344
0.181700	2.210837
0.181800	1.735325
0.181900	1.691831
0.182000	1.550313
0.182100	1.778494
0.182200	1.614256
0.182300	1.366600
0.182400	1.231899
0.182500	1.432166
0.182600	1.709358
0.182700	1.863535
0.182800	1.427946
0.182900	0.117286
0.183000	-0.302074
0.183100	-0.313434
0.183200	-0.149521
0.183300	0.258803
0.183400	-0.251115
0.183500	-0.256957
0.183600	-0.236833
0.183700	-0.182628
0.183800	-0.142380
0.183900	0.016665
0.184000	-0.081358
0.184100	-0.064480
0.184200	-0.033645
0.184300	-0.121931
0.184400	-0.146924
0.184500	-0.084604
0.184600	-0.242351
0.184700	-0.132318
0.184800	-0.188795
0.184900	-0.291687
0.185000	-0.442618
0.185100	-1.141118
0.185200	-1.125538
0.185300	-1.473815
0.185400	-1.506273
0.185500	-1.244660
0.185600	-1.003496
0.185700	-1.046990
0.185800	-1.396889
0.185900	-1.786713
0.186000	-1.897071
0.186100	-1.739324
0.186200	-1.534188
0.186300	-1.504001
0.186400	-1.718226
0.186500	-1.926933
0.186600	-2.110647
0.186700	-2.062284
0.186800	-2.038914
0.186900	-2.007754
0.187000	-2.046055
0.187100	-2.123630
0.187200	-2.113892
0.187300	-2.103506
0.187400	-2.071697
0.187500	-2.111296
0.187600	-2.190494
0.187700	-2.219057
0.187800	-2.161606
0.187900	-2.134666
0.188000	-2.153167
0.188100	-2.233988
0.188200	-2.216136
0.188300	-2.196012
0.188400	-1.940241
0.188500	-1.901940
0.188600	-2.040861
0.188700	-2.306370
0.188800	-2.515727
0.188900	-2.382972
0.189000	-2.101883
0.189100	-1.944460
0.189200	-2.063257
0.189300	-2.338829
0.189400	-2.575774
0.189500	-2.585187
0.189600	-2.410237
0.189700	-2.261578
0.189800	-2.266122
0.189900	-2.319678
0.190000	-2.383296
0.190100	-2.378752
0.190200	-2.331039
0.190300	-2.298580
0.190400	-2.216461
0.190500	-2.160308
0.190600	-2.041835
0.190700	-1.863314
0.190800	-1.703295
0.190900	-1.629290
0.191000	-1.587744
0.191100	-1.546197
0.191200	-1.363133
0.191300	-1.196946
0.191400	-1.154751
0.191500	-0.908068
0.191600	-0.913911
0.191700	-0.850293
0.191800	-0.733119
0.191900	-0.615945
0.192000	-0.456250
0.192100	-0.363745
0.192200	-0.341998
0.192300	-0.307592
0.192400	-0.344594
0.192500	-0.280327
0.192600	-0.325768
0.192700	-0.282599
0.192800	-0.272537
0.192900	-0.252088
0.193000	-0.290064
0.193100	-0.302399
0.193200	-0.339076
0.193300	-0.383219
0.193400	-0.331936
0.193500	-0.181979
0.193600	0.283796
0.193700	0.428235
0.193800	0.059510
0.193900	-0.263449
0.194000	-0.364394
0.194100	-0.124203
0.194200	0.203949
0.194300	0.399022
0.194400	0.325018
0.194500	0.050746
0.194600	0.000761
0.194700	0.000436
0.194800	0.315280
0.194900	0.415901
0.195000	0.434726
0.195100	0.358450
0.195200	0.393829
0.195300	0.359099
0.195400	0.802477
0.195500	1.192949
0.195600	1.431841
0.195700	1.583096
0.195800	1.590237
0.195900	1.971945
0.196000	1.437359
0.196100	1.159517
0.196200	1.428271
0.196300	1.021245
0.196400	2.058284
0.196500	2.430904
0.196600	3.019697
0.196700	1.556156
0.196800	0.052369
0.196900	0.146498
0.197000	1.209178
0.197100	3.118694
0.197200	3.429320
0.197300	2.175133
0.197400	0.450955
0.197500	0.406488
0.197600	1.499679
0.197700	3.379010
0.197800	4.140807
0.197900	3.523449
0.198000	2.436747
0.198100	2.445835
0.198200	2.937253
0.198300	3.164136
0.198400	3.362456
0.198500	3.110255
0.198600	2.855458
0.198700	2.782102
0.198800	2.922646
0.198900	2.893109
0.199000	2.623381
0.199100	2.642532
0.199200	2.930761
0.199300	3.170303
0.199400	3.494562
0.199500	2.869740
0.199600	1.997912
0.199700	1.776222
0.199800	1.862236
0.199900	2.674990
0.200000	2.478942
0.200100	2.174484
0.200200	2.290685
0.200300	2.307238
0.200400	2.337749
0.200500	2.129692
0.200600	2.124174
0.200700	2.084900
0.200800	1.885931
0.200900	1.796022
0.201000	1.589588
0.201100	1.594132
0.201200	1.477282
0.201300	1.295517
0.201400	1.214696
0.201500	1.017675
0.201600	0.522039
0.201700	0.500616
0.201800	-0.739286
0.201900	-1.142417
0.202000	-1.463753
0.202100	-1.321261
0.202200	-1.066789
0.202300	-0.765901
0.202400	-0.957729
0.202500	-1.341061
0.202600	-1.739973
0.202700	-1.778923
0.202800	-1.619228
0.202900	-1.364106
0.203000	-1.398188
0.203100	-1.587419
0.203200	-1.794178
0.203300	-1.912976
0.203400	-1.859744
0.203500	-1.768861
0.203600	-1.745491
0.203700	-1.764641
0.203800	-1.845462
0.203900	-1.857472
0.204000	-1.860718
0.204100	-1.832154
0.204200	-1.845787
0.204300	-1.917844
0.204400	-1.902913
0.204500	-1.909081
0.204600	-1.880193
0.204700	-1.945109
0.204800	-2.041510
0.204900	-2.055143
0.205000	-1.924336
0.205100	-1.735753
0.205200	-1.745491
0.205300	-1.945434
0.205400	-2.196337
0.205500	-2.337855
0.205600	-2.137262
0.205700	-1.886035
0.205800	-1.816250
0.205900	-1.979840
0.206000	-2.269692
0.206100	-2.450161
0.206200	-2.423869
0.206300	-2.271640
0.206400	-2.164852
0.206500	-2.168422
0.206600	-2.255086
0.206700	-2.307344
0.206800	-2.317731
0.206900	-2.289167
0.207000	-2.235936
0.207100	-2.162255
0.207200	-2.019763
0.207300	-1.867859
0.207400	-1.728613
0.207500	-1.701997
0.207600	-1.691935
0.207700	-1.679925
0.207800	-1.613710
0.207900	-1.391696
0.208000	-1.302760
0.208100	-1.199543
0.208200	-0.994083
0.208300	-0.997328
0.208400	-0.932087
0.208500	-0.816212
0.208600	-0.712995
0.208700	-0.527658
0.208800	-0.468909
0.208900	-0.414379
0.209000	-0.429310
0.209100	-0.434179
0.209200	-0.407238
0.209300	-0.459821
0.209400	-0.391334
0.209500	-0.376728
0.209600	-0.285845
0.209700	-0.385492
0.209800	-0.328365
0.209900	-0.462742
0.210000	-0.401721
0.210100	-0.444241
0.210200	-0.128423
0.210300	0.128321
0.210400	0.170841
0.210500	-0.198532
0.210600	-0.638341
0.210700	-0.481892
0.210800	-0.274160
0.210900	0.089047
0.211000	0.113066
0.211100	-0.025530
0.211200	-0.243325
0.211300	-0.392632
0.211400	-0.156986
0.211500	0.035491
0.211600	0.217257
0.211700	0.148770
0.211800	0.171815
0.211900	0.067300
0.212000	0.131567
0.212100	0.114689
0.212200	0.142927
0.212300	0.154288
0.212400	0.176359
0.212500	0.169868
0.212600	0.369485
0.212700	0.092617
0.212800	-0.039163
0.212900	-0.027153
0.213000	-0.087850
0.213100	0.402268
0.213200	0.670373
0.213300	0.497695
0.213400	-0.283248
0.213500	-0.473778
0.213600	-0.406265
0.213700	-0.191067
0.213800	1.467545
0.213900	0.934582
0.214000	-0.757138
0.214100	-0.626007
0.214200	-0.589653
0.214300	-0.425415
0.214400	0.993980
0.214500	1.121866
0.214600	0.395777
0.214700	-0.355630
0.214800	-0.057989
0.214900	0.173114
0.215000	0.570726
0.215100	0.313333
0.215200	0.177658
0.215300	-0.068700
0.215400	0.208818
0.215500	0.493151
0.215600	0.410058
0.215700	0.191939
0.215800	0.136760
0.215900	0.526907
0.216000	0.905045
0.216100	1.131278
0.216200	0.394803
0.216300	-0.451706
0.216400	-0.348165
0.216500	-0.006056
0.216600	1.062143
0.216700	0.830391
0.216800	0.758659
0.216900	1.064415
0.217000	1.073503
0.217100	1.134524
0.217200	1.289025
0.217300	1.329273
0.217400	1.377636
0.217500	1.260137
0.217600	1.387373
0.217700	1.336089
0.217800	1.228653
0.217900	1.263708
0.218000	1.099469
0.218100	1.117321
0.218200	0.891088
0.218300	0.874534
0.218400	0.412655
0.218500	-0.619515
0.218600	-1.195324
0.218700	-1.325481
0.218800	-1.195324
0.218900	-0.817835
0.219000	-0.307916
0.219100	-0.896059
0.219200	-1.334894
0.219300	-1.593586
0.219400	-1.532240
0.219500	-1.343333
0.219600	-1.217071
0.219700	-1.307629
0.219800	-1.571515
0.219900	-1.742570
0.220000	-1.805863
0.220100	-1.717577
0.220200	-1.682846
0.220300	-1.723744
0.220400	-1.794827
0.220500	-1.846111
0.220600	-1.840594
0.220700	-1.844489
0.220800	-1.863314
0.220900	-1.932451
0.221000	-2.048002
0.221100	-2.000288
0.221200	-1.992498
0.221300	-2.002885
0.221400	-2.070723
0.221500	-2.162580
0.221600	-2.152518
0.221700	-1.974971
0.221800	-1.832479
0.221900	-1.936670
0.222000	-2.217759
0.222100	-2.507937
0.222200	-2.534228
0.222300	-2.303124
0.222400	-2.058389
0.222500	-2.044107
0.222600	-2.258981
0.222700	-2.546237
0.222800	-2.637445
0.222900	-2.460872
0.223000	-2.237559
0.223100	-2.132069
0.223200	-2.113568
0.223300	-2.166475
0.223400	-2.128174
0.223500	-2.078513
0.223600	-2.011324
0.223700	-1.882789
0.223800	-1.811057
0.223900	-1.688364
0.224000	-1.523801
0.224100	-1.357939
0.224200	-1.266732
0.224300	-1.217071
0.224400	-1.180717
0.224500	-1.052183
0.224600	-0.789596
0.224700	-0.580241
0.224800	-0.376403
0.224900	-0.381921
0.225000	-0.321873
0.225100	-0.206647
0.225200	-0.082008
0.225300	0.040684
0.225400	0.230240
0.225500	0.240302
0.225600	0.271786
0.225700	0.211414
0.225800	0.233810
0.225900	0.189992
0.226000	0.236732
0.226100	0.244197
0.226200	0.324693
0.226300	0.231538
0.226400	0.272111
0.226500	0.177009
0.226600	0.191939
0.226700	0.139032
0.226800	0.253934
0.226900	0.565208
0.227000	0.785274
0.227100	0.724578
0.227200	0.300350
0.227300	0.092617
0.227400	0.310087
0.227500	0.609351
0.227600	1.427297
0.227700	1.802513
0.227800	0.837207
0.227900	0.483738
0.228000	0.519767
0.228100	1.288051
0.228200	2.862923
0.228300	3.167057
0.228400	3.608815
0.228500	2.837281
0.228600	3.072928
0.228700	3.168031
0.228800	3.307602
0.228900	3.596481
0.229000	3.591287
0.229100	3.648414
0.229200	3.747737
0.229300	3.419583
0.229400	2.610398
0.229500	2.485759
0.229600	2.069969
0.229700	1.941759
0.229800	2.779181
0.229900	2.451677
0.230000	2.483486
0.230100	-0.043707
0.230200	-0.134590
0.230300	0.118908
0.230400	1.924232
0.230500	2.575668
0.230600	2.045301
0.230700	0.010498
0.230800	-0.460470
0.230900	-0.435477
0.231000	0.393829
0.231100	1.063441
0.231200	0.734315
0.231300	-0.367315
0.231400	-0.623410
0.231500	-0.593224
0.231600	-0.652947
0.231700	-0.500718
0.231800	-0.709749
0.231900	-0.778236
0.232000	-0.828221
0.232100	-0.807773
0.232200	-0.785376
0.232300	-0.850942
0.232400	-0.862627
0.232500	-0.839906
0.232600	-0.633472
0.232700	-0.281301
0.232800	-0.342647
0.232900	-0.918130
0.233000	-0.979801
0.233100	-0.954808
0.233200	-0.938579
0.233300	-0.618866
0.233400	-0.898331
0.233500	-0.886971
0.233600	-0.916832
0.233700	-0.737987
0.233800	-0.715916
0.233900	-0.578942
0.234000	-0.661711
0.234100	-0.774341
0.234200	-0.741882
0.234300	-0.881128
0.234400	-0.935333
0.234500	-0.949290
0.234600	-0.970064
0.234700	-0.980450
0.234800	-0.995056
0.234900	-1.059324
0.235000	-1.104116
0.235100	-1.198894
0.235200	-1.403056
0.235300	-1.836699
0.235400	-1.806512
0.235500	-1.608192
0.235600	-1.267056
0.235700	-1.264135
0.235800	-1.572488
0.235900	-1.957119
0.236000	-2.072995
0.236100	-1.959391
0.236200	-1.752632
0.236300	-1.724718
0.236400	-1.839620
0.236500	-2.121033
0.236600	-2.243401
0.236700	-2.252165
0.236800	-2.153492
0.236900	-2.155114
0.237000	-2.178160
0.237100	-2.193091
0.237200	-2.186599
0.237300	-2.154790
0.237400	-2.130122
0.237500	-2.139534
0.237600	-2.196661
0.237700	-2.157387
0.237800	-2.179458
0.237900	-2.076890
0.238000	-2.122007
0.238100	-2.182055
0.238200	-2.208346
0.238300	-2.127200
0.238400	-1.877596
0.238500	-1.822742
0.238600	-1.949653
0.238700	-2.191143
0.238800	-2.412509
0.238900	-2.269692
0.239000	-2.016517
0.239100	-1.841243
0.239200	-1.921090
0.239300	-2.159334
0.239400	-2.374857
0.239500	-2.385244
0.239600	-2.227172
0.239700	-2.072346
0.239800	-2.049300
0.239900	-2.100260
0.240000	-2.128499
0.240100	-2.112269
0.240200	-2.040861
0.240300	-1.991200
0.240400	-1.909081
0.240500	-1.849357
0.240600	-1.740947
0.240700	-1.581901
0.240800	-1.478684
0.240900	-1.450770
0.241000	-1.392994
0.241100	-1.386178
0.241200	-1.161567
0.241300	-0.922025
0.241400	-0.688651
0.241500	-0.596145
0.241600	-0.580565
0.241700	-0.479620
0.241800	-0.342971
0.241900	-0.178408
0.242000	0.020236
0.242100	0.146822
0.242200	0.256206
0.242300	0.340273
0.242400	0.400321
0.242500	0.485686
0.242600	0.459395
0.242700	0.612922
0.242800	0.645380
0.242900	0.771642
0.243000	0.815461
0.243100	0.828768
0.243200	0.901150
0.243300	0.746325
0.243400	0.911861
0.243500	1.260786
0.243600	4.276808
0.243700	4.842559
0.243800	4.311863
0.243900	1.403278
0.244000	1.096548
0.244100	2.494522
0.244200	4.808153
0.244300	6.108445
0.244400	6.011069
0.244500	4.200206
0.244600	3.827909
0.244700	4.146650
0.244800	5.911096
0.244900	6.545990
0.245000	6.957569
0.245100	6.762815
0.245200	6.949130
0.245300	7.162060
0.245400	7.330847
0.245500	7.543454
0.245600	7.730419
0.245700	7.594091
0.245800	7.921928
0.245900	7.931017
0.246000	8.214061
0.246100	7.231847
0.246200	7.722629
0.246300	7.240611
0.246400	7.902777
0.246500	8.267944
0.246600	8.542550
0.246700	7.689520
0.246800	5.799763
0.246900	6.006525
0.247000	6.896546
0.247100	8.524048
0.247200	9.045023
0.247300	7.792740
0.247400	5.660191
0.247500	5.311585
0.247600	6.292811
0.247700	7.750868
0.247800	8.254635
0.247900	7.303906
0.248000	6.222051
0.248100	5.840336
0.248200	6.335008
0.248300	6.511259
0.248400	6.477177
0.248500	5.735819
0.248600	5.271337
0.248700	5.330087
0.248800	5.713748
0.248900	5.801386
0.249000	5.294382
0.249100	5.160977
0.249200	5.313533
0.249300	5.644286
0.249400	5.966601
0.249500	5.516724
0.249600	4.455330
0.249700	4.306994
0.249800	4.367367
0.249900	4.420599
0.250000	4.868851
0.250100	4.628009
0.250200	4.770826
0.250300	4.721489
0.250400	4.740964
0.250500	4.578672
0.250600	4.511483
0.250700	4.590032
0.250800	4.384570
0.250900	4.465392
0.251000	4.235911
0.251100	4.080435
0.251200	4.201180
0.251300	3.977866
0.251400	4.039537
0.251500	3.433864
0.251600	3.165110
0.251700	2.415649
0.251800	1.657750
0.251900	-0.405291
0.252000	-1.116450
0.252100	-1.027515
0.252200	-0.830818
0.252300	0.440569
0.252400	-0.965195
0.252500	-1.188832
0.252600	-1.581252
0.252700	-1.684794
0.252800	-1.509519
0.252900	-1.348526
0.253000	-1.355018
0.253100	-1.621500
0.253200	-1.864288
0.253300	-2.018465
0.253400	-2.011973
0.253500	-1.907782
0.253600	-1.914274
0.253700	-1.959066
0.253800	-2.085654
0.253900	-2.149921
0.254000	-2.159659
0.254100	-2.175239
0.254200	-2.276184
0.254300	-2.318380
0.254400	-2.375506
0.254500	-2.444318
0.254600	-2.416079
0.254700	-2.492032
0.254800	-2.591030
0.254900	-2.629655
0.255000	-2.551106
0.255100	-2.318704
0.255200	-2.356031
0.255300	-2.551431
0.255400	-2.823107
0.255500	-2.993189
0.255600	-2.779613
0.255700	-2.469960
0.255800	-2.395631
0.255900	-2.607908
0.256000	-2.901981
0.256100	-3.105171
0.256200	-3.049018
0.256300	-2.864979
0.256400	-2.723785
0.256500	-2.753646
0.256600	-2.882182
0.256700	-2.954239
0.256800	-2.909122
0.256900	-2.873093
0.257000	-2.835442
0.257100	-2.793570
0.257200	-2.722486
0.257300	-2.593951
0.257400	-2.425817
0.257500	-2.358953
0.257600	-2.320976
0.257700	-2.291115
0.257800	-2.216136
0.257900	-1.957443
0.258000	-1.830207
0.258100	-1.504975
0.258200	-1.496861
0.258300	-1.456288
0.258400	-1.385529
0.258500	-1.261214
0.258600	-1.111257
0.258700	-0.924297
0.258800	-0.803878
0.258900	-0.726302
0.259000	-0.742856
0.259100	-0.700985
0.259200	-0.683782
0.259300	-0.643534
0.259400	-0.594847
0.259500	-0.505587
0.259600	-0.476374
0.259700	-0.456900
0.259800	-0.450083
0.259900	-0.451382
0.260000	-0.542914
0.260100	-0.372833
0.260200	-0.239105
0.260300	0.280875
0.260400	0.127997
0.260500	-0.073568
0.260600	-0.553300
0.260700	-0.418274
0.260800	-0.112518
0.260900	0.195834
0.261000	0.282173
0.261100	0.145849
0.261200	-0.091096
0.261300	-0.127449
0.261400	0.040035
0.261500	0.305543
0.261600	0.409734
0.261700	0.504511
0.261800	0.446411
0.261900	0.446736
0.262000	0.890439
0.262100	1.434113
0.262200	2.063153
0.262300	2.399420
0.262400	2.719782
0.262500	2.802876
0.262600	3.329024
0.262700	2.924594
0.262800	2.983343
0.262900	2.928814
0.263000	2.957701
0.263100	3.366351
0.263200	3.472490
0.263300	3.948978
0.263400	2.119954
0.263500	1.202037
0.263600	1.223784
0.263700	2.875582
0.263800	4.091795
0.263900	4.306345
0.264000	2.554245
0.264100	1.037150
0.264200	1.241312
0.264300	2.389033
0.264400	3.919117
0.264500	4.091795
0.264600	3.363755
0.264700	2.517243
0.264800	2.632470
0.264900	2.587028
0.265000	3.109606
0.265100	2.971009
0.265200	2.790217
0.265300	2.721730
0.265400	3.064814
0.265500	3.193998
0.265600	3.006389
0.265700	2.896355
0.265800	3.087210
0.265900	3.486447
0.266000	3.850954
0.266100	4.081733
0.266200	3.442628
0.266300	2.661682
0.266400	2.883697
0.266500	3.012556
0.266600	3.784090
0.266700	3.785713
0.266800	4.075891
0.266900	4.151194
0.267000	4.327768
0.267100	4.565039
0.267200	4.869175
0.267300	4.872746
0.267400	5.061654
0.267500	5.309638
0.267600	5.464141
0.267700	5.578070
0.267800	5.731600
0.267900	6.005876
0.268000	6.076960
0.268100	6.165573
0.268200	6.256782
0.268300	5.735819
0.268400	5.684210
0.268500	4.526738
0.268600	2.320546
0.268700	0.947241
0.268800	1.824910
0.268900	3.980463
0.269000	4.671503
0.269100	3.251449
0.269200	0.936205
0.269300	-0.745453
0.269400	-0.689625
0.269500	-0.119659
0.269600	0.848568
0.269700	-0.121931
0.269800	-0.691897
0.269900	-0.906770
0.270000	-0.973634
0.270100	-0.927219
0.270200	-0.936956
0.270300	-0.995056
0.270400	-1.061596
0.270500	-1.135276
0.270600	-1.170655
0.270700	-1.214149
0.270800	-1.254722
0.270900	-1.337491
0.271000	-1.372546
0.271100	-1.454016
0.271200	-1.413443
0.271300	-1.478035
0.271400	-1.580278
0.271500	-1.682522
0.271600	-1.668889
0.271700	-1.487772
0.271800	-1.325156
0.271900	-1.467324
0.272000	-1.726016
0.272100	-2.006131
0.272200	-2.044756
0.272300	-1.814302
0.272400	-1.585472
0.272500	-1.566321
0.272600	-1.788660
0.272700	-2.099611
0.272800	-2.234962
0.272900	-2.131744
0.273000	-1.971400
0.273100	-1.887658
0.273200	-1.927257
0.273300	-2.011973
0.273400	-2.049950
0.273500	-2.042484
0.273600	-2.054494
0.273700	-2.020412
0.273800	-1.991200
0.273900	-1.938942
0.274000	-1.817873
0.274100	-1.731209
0.274200	-1.724068
0.274300	-1.719524
0.274400	-1.738999
0.274500	-1.656880
0.274600	-1.426102
0.274700	-1.249204
0.274800	-1.053157
0.274900	-1.070684
0.275000	-1.058025
0.275100	-0.965195
0.275200	-0.833090
0.275300	-0.707477
0.275400	-0.535124
0.275500	-0.474427
0.275600	-0.444241
0.275700	-0.479945
0.275800	-0.411458
0.275900	-0.406265
0.276000	-0.401721
0.276100	-0.346866
0.276200	-0.352060
0.276300	-0.260203
0.276400	-0.245597
0.276500	-0.311811
0.276600	-0.251764
0.276700	-0.404966
0.276800	-0.133292
0.276900	-0.000213
0.277000	0.486335
0.277100	0.286393
0.277200	0.010174
0.277300	-0.340375
0.277400	-0.164127
0.277500	0.206870
0.277600	0.410383
0.277700	0.516196
0.277800	0.273085
0.277900	0.093266
0.278000	0.090345
0.278100	0.199405
0.278200	0.455175
0.278300	0.445762
0.278400	0.224073
0.278500	0.340598
0.278600	0.361046
0.278700	0.381170
0.278800	0.498993
0.278900	0.758010
0.279000	0.806048
0.279100	0.981971
0.279200	1.329922
0.279300	0.902124
0.279400	0.795661
0.279500	0.340922
0.279600	0.592473
0.279700	0.521714
0.279800	1.332194
0.279900	1.564595
0.280000	1.411392
0.280100	-0.155038
0.280200	-0.255983
0.280300	-0.023258
0.280400	1.619125
0.280500	2.847343
0.280600	2.273482
0.280700	0.555795
0.280800	-0.366341
0.280900	0.106899
0.281000	1.589588
0.281100	2.981396
0.281200	2.918102
0.281300	2.239725
0.281400	1.778170
0.281500	2.176107
0.281600	2.092690
0.281700	2.621434
0.281800	2.303343
0.281900	2.199153
0.282000	1.945329
0.282100	2.057310
0.282200	1.915792
0.282300	1.514934
0.282400	1.239689
0.282500	1.173799
0.282600	1.484099
0.282700	1.536032
0.282800	1.379583
0.282900	0.224073
0.283000	-0.377377
0.283100	-0.268318
0.283200	-0.258255
0.283300	0.507108
0.283400	0.103004
0.283500	0.103329
0.283600	0.174412
0.283700	0.129620
0.283800	0.227319
0.283900	0.298727
0.284000	0.261400
0.284100	0.121505
0.284200	0.186421
0.284300	0.271786
0.284400	0.159157
0.284500	0.207195
0.284600	-0.012223
0.284700	0.074765
0.284800	-0.395229
0.284900	-0.540966
0.285000	-1.030760
0.285100	-0.929491
0.285200	-1.138846
0.285300	-1.543276
0.285400	-1.572488
0.285500	-1.328727
0.285600	-0.961949
0.285700	-0.924622
0.285800	-1.233624
0.285900	-1.533538
0.286000	-1.757176
0.286100	-1.568269
0.286200	-1.351772
0.286300	-1.194350
0.286400	-1.321911
0.286500	-1.496536
0.286600	-1.619228
0.286700	-1.647467
0.286800	-1.569892
0.286900	-1.548794
0.287000	-1.583849
0.287100	-1.591639
0.287200	-1.611763
0.287300	-1.620527
0.287400	-1.593262
0.287500	-1.625720
0.287600	-1.714980
0.287700	-1.736727
0.287800	-1.731534
0.287900	-1.716603
0.288000	-1.742894
0.288100	-1.807486
0.288200	-1.823715
0.288300	-1.760422
0.288400	-1.476087
0.288500	-1.434865
0.288600	-1.574760
0.288700	-1.837997
0.288800	-2.055792
0.288900	-1.936021
0.289000	-1.720498
0.289100	-1.498808
0.289200	-1.576383
0.289300	-1.816574
0.289400	-2.075267
0.289500	-2.147649
0.289600	-1.985682
0.289700	-1.839944
0.289800	-1.807486
0.289900	-1.837348
0.290000	-1.904212
0.290100	-1.890904
0.290200	-1.887009
0.290300	-1.849682
0.290400	-1.777300
0.290500	-1.706541
0.290600	-1.579629
0.290700	-1.410846
0.290800	-1.281987
0.290900	-1.257968
0.291000	-1.232975
0.291100	-1.214799
0.291200	-1.039849
0.291300	-0.825300
0.291400	-0.551677
0.291500	-0.460794
0.291600	-0.486761
0.291700	-0.464689
0.291800	-0.367964
0.291900	-0.301749
0.292000	-0.206972
0.292100	-0.127774
0.292200	-0.083306
0.292300	-0.115764
0.292400	-0.183926
0.292500	-0.211516
0.292600	-0.278055
0.292700	-0.319277
0.292800	-0.320900
0.292900	-0.357577
0.293000	-0.330313
0.293100	-0.468909
0.293200	-0.472804
0.293300	-0.675992
0.293400	-0.548432
0.293500	-0.593548
0.293600	-0.114141
0.293700	-0.048576
0.293800	-0.182628
0.293900	-0.668202
0.294000	-0.843801
0.294100	-0.596145
0.294200	-0.341024
0.294300	-0.045005
0.294400	-0.175163
0.294500	-0.298828
0.294600	-0.507210
0.294700	-0.421196
0.294800	-0.138485
0.294900	0.053018
0.295000	0.127672
0.295100	0.102355
0.295200	0.178956
0.295300	0.187395
0.295400	0.241925
0.295500	0.333781
0.295600	0.832014
0.295700	1.409445
0.295800	2.038809
0.295900	2.898303
0.296000	2.798981
0.296100	2.784699
0.296200	3.232948
0.296300	3.466647
0.296400	4.736744
0.296500	5.599169
0.296600	6.423620
0.296700	6.512557
0.296800	4.949348
0.296900	5.842933
0.297000	6.963736
0.297100	9.442653
0.297200	10.251877
0.297300	9.986030
0.297400	8.620452
0.297500	8.600652
0.297600	9.911697
0.297700	10.654057
0.297800	10.654057
0.297900	10.654057
0.298000	10.654057
0.298100	10.654057
0.298200	10.654057
0.298300	10.654057
0.298400	10.654057
0.298500	10.654057
0.298600	10.654057
0.298700	10.654057
0.298800	10.654057
0.298900	10.654057
0.299000	10.654057
0.299100	10.654057
0.299200	10.654057
0.299300	10.654057
0.299400	10.654057
0.299500	10.654057
0.299600	10.654057
0.299700	10.654057
0.299800	10.654057
0.299900	10.654057
0.300000	10.654057
0.300100	10.654057
0.300200	10.654057
0.300300	10.654057
0.300400	10.654057
0.300500	10.654057
0.300600	10.654057
0.300700	10.654057
0.300800	10.654057
0.300900	10.654057
0.301000	10.654057
0.301100	10.654057
0.301200	10.257395
0.301300	9.830223
0.301400	9.385524
0.301500	8.757107
0.301600	7.946272
0.301700	7.517812
0.301800	6.508013
0.301900	4.287844
0.302000	1.420156
0.302100	0.995279
0.302200	1.903458
0.302300	2.975229
0.302400	1.681444
0.302500	-0.804527
0.302600	-1.230378
0.302700	-1.412145
0.302800	-1.300164
0.302900	-1.188183
0.303000	-1.333271
0.303100	-1.600078
0.303200	-1.959066
0.303300	-2.144403
0.303400	-2.185950
0.303500	-2.208671
0.303600	-2.301177
0.303700	-2.445616
0.303800	-2.584214
0.303900	-2.648157
0.304000	-2.714047
0.304100	-2.746506
0.304200	-2.885752
0.304300	-2.989619
0.304400	-3.015910
0.304500	-3.014612
0.304600	-2.993839
0.304700	-3.042526
0.304800	-3.124646
0.304900	-3.169439
0.305000	-3.077257
0.305100	-2.837064
0.305200	-2.832520
0.305300	-2.990917
0.305400	-3.254480
0.305500	-3.372953
0.305600	-3.171062
0.305700	-2.877637
0.305800	-2.738716
0.305900	-2.891270
0.306000	-3.153209
0.306100	-3.336275
0.306200	-3.259349
0.306300	-2.992865
0.306400	-2.821809
0.306500	-2.803632
0.306600	-2.821809
0.306700	-2.859136
0.306800	-2.751699
0.306900	-2.645560
0.307000	-2.539097
0.307100	-2.412509
0.307200	-2.295984
0.307300	-2.150570
0.307400	-1.940241
0.307500	-1.819171
0.307600	-1.723744
0.307700	-1.652660
0.307800	-1.570541
0.307900	-1.323534
0.308000	-1.141118
0.308100	-0.823352
0.308200	-0.759410
0.308300	-0.697739
0.308400	-0.617892
0.308500	-0.502990
0.308600	-0.359850
0.308700	-0.204375
0.308800	-0.102456
0.308900	-0.019039
0.309000	-0.078437
0.309100	-0.033970
0.309200	-0.007029
0.309300	0.013744
0.309400	0.030622
0.309500	0.007252
0.309600	0.042307
0.309700	0.028026
0.309800	0.051071
0.309900	0.034517
0.310000	0.003033
0.310100	0.149095
0.310200	0.335080
0.310300	0.683356
0.310400	0.737886
0.310500	0.453877
0.310600	-0.051822
0.310700	0.097486
0.310800	0.337027
0.310900	0.641160
0.311000	0.685303
0.311100	0.610974
0.311200	0.310412
0.311300	0.250039
0.311400	0.314956
0.311500	0.559366
0.311600	1.161464
0.311700	1.432815
0.311800	0.999498
0.311900	1.271498
0.312000	0.973856
0.312100	1.282858
0.312200	1.635354
0.312300	1.796346
0.312400	1.916766
0.312500	1.839516
0.312600	2.167668
0.312700	1.661320
0.312800	1.422104
0.312900	1.186133
0.313000	1.013780
0.313100	1.794723
0.313200	1.933320
0.313300	2.527954
0.313400	0.844997
0.313500	-0.228719
0.313600	-0.194962
0.313700	0.789819
0.313800	2.286465
0.313900	2.215382
0.314000	0.745026
0.314100	-0.448785
0.314200	-0.478322
0.314300	-0.213139
0.314400	1.402304
0.314500	1.657101
0.314600	0.759632
0.314700	-0.295258
0.314800	-0.443592
0.314900	-0.350112
0.315000	-0.024881
0.315100	0.023481
0.315200	-0.381597
0.315300	-0.607830
0.315400	-0.440670
0.315500	-0.218007
0.315600	-0.277081
0.315700	-0.611076
0.315800	-0.579267
0.315900	-0.337778
0.316000	-0.134914
0.316100	0.113066
0.316200	-0.569205
0.316300	-0.937930
0.316400	-0.922999
0.316500	-0.922025
0.316600	-0.460470
0.316700	-0.696766
0.316800	-0.564336
0.316900	-0.315057
0.317000	-0.269291
0.317100	-0.079736
0.317200	0.029648
0.317300	0.103978
0.317400	0.163052
0.317500	0.147147
0.317600	0.324044
0.317700	0.176359
0.317800	0.311061
0.317900	0.285743
0.318000	0.345142
0.318100	0.031921
0.318200	0.020560
0.318300	-0.517272
0.318400	-0.261501
0.318500	-0.989863
0.318600	-1.293672
0.318700	-1.557233
0.318800	-1.402083
0.318900	-1.159295
0.319000	-0.945720
0.319100	-1.108660
0.319200	-1.498808
0.319300	-1.772107
0.319400	-1.742894
0.319500	-1.529643
0.319600	-1.348202
0.319700	-1.368975
0.319800	-1.557557
0.319900	-1.686741
0.320000	-1.706865
0.320100	-1.601376
0.320200	-1.527696
0.320300	-1.498483
0.320400	-1.491667
0.320500	-1.510818
0.320600	-1.470569
0.320700	-1.416364
0.320800	-1.365405
0.320900	-1.377739
0.321000	-1.368001
0.321100	-1.330999
0.321200	-1.181367
0.321300	-1.137873
0.321400	-1.111581
0.321500	-1.107362
0.321600	-1.061596
0.321700	-0.824326
0.321800	-0.592899
0.321900	-0.593548
0.322000	-0.742532
0.322100	-0.930465
0.322200	-0.931438
0.322300	-0.649701
0.322400	-0.377702
0.322500	-0.304671
0.322600	-0.443592
0.322700	-0.702933
0.322800	-0.820431
0.322900	-0.706828
0.323000	-0.528308
0.323100	-0.459172
0.323200	-0.499420
0.323300	-0.560117
0.323400	-0.581214
0.323500	-0.563038
0.323600	-0.542589
0.323700	-0.520518
0.323800	-0.470207
0.323900	-0.381272
0.324000	-0.243325
0.324100	-0.079411
0.324200	-0.074542
0.324300	-0.065454
0.324400	-0.067077
0.324500	0.012770
0.324600	0.241600
0.324700	0.441867
0.324800	0.615518
0.324900	0.579165
0.325000	0.611299
0.325100	0.707375
0.325200	0.810916
0.325300	0.909265
0.325400	1.029360
0.325500	1.229302
0.325600	1.111154
0.325700	1.046887
0.325800	1.000147
0.325900	0.984892
0.326000	0.963794
0.326100	0.932310
0.326200	0.969637
0.326300	0.900501
0.326400	0.954706
0.326500	0.785274
0.326600	0.816110
0.326700	0.689523
0.326800	0.764826
0.326900	1.434762
0.327000	3.162838
0.327100	3.108957
0.327200	0.301648
0.327300	0.494774
0.327400	0.614220
0.327500	1.190677
0.327600	2.753539
0.327700	2.587028
0.327800	1.821664
0.327900	0.593122
0.328000	0.650573
0.328100	1.311097
0.328200	2.539315
0.328300	2.877205
0.328400	2.735038
0.328500	1.949874
0.328600	2.374751
0.328700	2.361444
0.328800	2.763601
0.328900	3.047286
0.329000	3.285205
0.329100	3.615631
0.329200	3.788634
0.329300	4.128473
0.329400	3.666591
0.329500	3.905809
0.329600	3.349473
0.329700	4.263500
0.329800	4.727656
0.329900	5.766006
0.330000	5.641040
0.330100	4.448838
0.330200	3.914572
0.330300	4.782186
0.330400	6.956920
0.330500	8.426670
0.330600	8.196858
0.330700	6.829356
0.330800	5.996787
0.330900	6.846884
0.331000	8.541252
0.331100	10.228830
0.331200	10.346335
0.331300	9.773742
0.331400	9.324175
0.331500	9.918838
0.331600	10.050625
0.331700	10.654057
0.331800	10.396648
0.331900	10.196046
0.332000	9.931822
0.332100	9.995768
0.332200	10.076593
0.332300	9.838662
0.332400	9.594240
0.332500	9.545550
0.332600	9.737063
0.332700	9.675714
0.332800	9.631244
0.332900	8.470815
0.333000	7.806049
0.333100	7.513592
0.333200	7.455166
0.333300	7.883951
0.333400	7.155569
0.333500	6.735874
0.333600	6.421348
0.333700	5.839687
0.333800	5.356053
0.333900	4.803934
0.334000	4.183977
0.334100	3.626018
0.334200	2.932059
0.334300	2.300747
0.334400	1.678848
0.334500	1.028386
0.334600	0.150717
0.334700	-0.273511
0.334800	-1.005118
0.334900	-1.087887
0.335000	-1.295619
0.335100	-1.383581
0.335200	-1.746140
0.335300	-2.169396
0.335400	-2.326170
0.335500	-2.205425
0.335600	-1.867209
0.335700	-1.898369
0.335800	-2.167773
0.335900	-2.625111
0.336000	-2.872120
0.336100	-2.746506
0.336200	-2.539097
0.336300	-2.431010
0.336400	-2.553054
0.336500	-2.776692
0.336600	-2.953915
0.336700	-2.928597
0.336800	-2.776692
0.336900	-2.701064
0.337000	-2.685484
0.337100	-2.707231
0.337200	-2.717942
0.337300	-2.702687
0.337400	-2.624137
0.337500	-2.613102
0.337600	-2.636147
0.337700	-2.622839
0.337800	-2.609207
0.337900	-2.562142
0.338000	-2.544290
0.338100	-2.562791
0.338200	-2.555650
0.338300	-2.457626
0.338400	-2.148298
0.338500	-2.038265
0.338600	-2.079487
0.338700	-2.288194
0.338800	-2.452433
0.338900	-2.337855
0.339000	-2.010350
0.339100	-1.740947
0.339200	-1.759123
0.339300	-1.934723
0.339400	-2.142780
0.339500	-2.157387
0.339600	-1.976918
0.339700	-1.742894
0.339800	-1.632211
0.339900	-1.631562
0.340000	-1.701997
0.340100	-1.681873
0.340200	-1.640326
0.340300	-1.582875
0.340400	-1.477710
0.340500	-1.407600
0.340600	-1.287505
0.340700	-1.133004
0.340800	-1.038875
0.340900	-1.021023
0.341000	-0.998302
0.341100	-1.026865
0.341200	-0.882426
0.341300	-0.711372
0.341400	-0.685081
0.341500	-0.425415
0.341600	-0.498121
0.341700	-0.506236
0.341800	-0.479945
0.341900	-0.427038
0.342000	-0.391659
0.342100	-0.341024
0.342200	-0.343945
0.342300	-0.480919
0.342400	-0.558818
0.342500	-0.655219
0.342600	-0.713644
0.342700	-0.789271
0.342800	-0.805825
0.342900	-0.858732
0.343000	-0.931114
0.343100	-0.973309
0.343200	-1.118722
0.343300	-1.128784
0.343400	-1.159295
0.343500	-1.059973
0.343600	-0.610102
0.343700	-0.582837
0.343800	-0.622761
0.343900	-1.139820
0.344000	-1.145013
0.344100	-0.979152
0.344200	-0.553949
0.344300	-0.306618
0.344400	-0.351735
0.344500	-0.455277
0.344600	-0.653921
0.344700	-0.452355
0.344800	-0.288766
0.344900	0.013419
0.345000	0.067949
0.345100	0.196808
0.345200	0.089372
0.345300	0.246469
0.345400	0.301323
0.345500	0.818057
0.345600	1.381855
0.345700	1.792776
0.345800	2.563658
0.345900	3.181339
0.346000	3.662046
0.346100	2.919076
0.346200	3.926907
0.346300	3.897045
0.346400	4.736095
0.346500	5.469009
0.346600	5.799438
0.346700	5.485563
0.346800	3.794801
0.346900	3.750658
0.347000	5.234334
0.347100	7.396090
0.347200	8.352338
0.347300	7.768721
0.347400	5.983479
0.347500	5.689728
0.347600	7.075070
0.347700	8.978805
0.347800	10.040887
0.347900	9.639034
0.348000	9.393963
0.348100	9.515687
0.348200	10.318420
0.348300	10.508311
0.348400	10.654057
0.348500	10.654057
0.348600	10.654057
0.348700	10.654057
0.348800	10.654057
0.348900	10.654057
0.349000	10.654057
0.349100	10.654057
0.349200	10.654057
0.349300	10.654057
0.349400	10.654057
0.349500	10.654057
0.349600	10.086331
0.349700	9.612093
0.349800	9.443302
0.349900	10.324587
0.350000	9.718885
0.350100	8.965497
0.350200	8.363050
0.350300	7.803452
0.350400	7.213346
0.350500	6.601170
0.350600	5.985102
0.350700	5.095411
0.350800	4.470910
0.350900	3.610762
0.351000	2.940174
0.351100	2.026799
0.351200	1.240338
0.351300	0.300025
0.351400	-0.740909
0.351500	-1.016479
0.351600	-1.215772
0.351700	-1.380985
0.351800	-1.547171
0.351900	-1.955820
0.352000	-2.307993
0.352100	-2.366743
0.352200	-2.085005
0.352300	-1.954198
0.352400	-1.990875
0.352500	-2.409912
0.352600	-2.669255
0.352700	-2.846477
0.352800	-2.660815
0.352900	-2.472557
0.353000	-2.405368
0.353100	-2.603364
0.353200	-2.775069
0.353300	-2.906850
0.353400	-2.828950
0.353500	-2.755269
0.353600	-2.729627
0.353700	-2.747155
0.353800	-2.740338
0.353900	-2.736119
0.354000	-2.649130
0.354100	-2.637121
0.354200	-2.604013
0.354300	-2.558896
0.354400	-2.557922
0.354500	-2.498848
0.354600	-2.360576
0.354700	-2.290466
0.354800	-2.264824
0.354900	-2.203153
0.355000	-2.012622
0.355100	-1.715629
0.355200	-1.571839
0.355300	-1.711410
0.355400	-1.994770
0.355500	-2.028202
0.355600	-1.884088
0.355700	-1.496211
0.355800	-1.289128
0.355900	-1.381634
0.356000	-1.665643
0.356100	-1.850331
0.356200	-1.802293
0.356300	-1.556584
0.356400	-1.407276
0.356500	-1.409872
0.356600	-1.482254
0.356700	-1.510493
0.356800	-1.431295
0.356900	-1.335868
0.357000	-1.277118
0.357100	-1.232651
0.357200	-1.144364
0.357300	-0.952536
0.357400	-0.785052
0.357500	-0.685081
0.357600	-0.652622
0.357700	-0.636718
0.357800	-0.620813
0.357900	-0.432231
0.358000	-0.263124
0.358100	-0.191067
0.358200	0.035491
0.358300	0.021859
0.358400	0.039386
0.358500	0.134488
0.358600	0.272436
0.358700	0.391232
0.358800	0.512301
0.358900	0.492502
0.359000	0.501590
0.359100	0.453877
0.359200	0.515872
0.359300	0.405514
0.359400	0.497371
0.359500	0.454850
0.359600	0.494449
0.359700	0.445762
0.359800	0.455500
0.359900	0.349361
0.360000	0.325342
0.360100	0.308140
0.360200	0.564234
0.360300	0.801503
0.360400	1.711306
0.360500	0.597666
0.360600	0.244846
0.360700	0.144875
0.360800	0.451929
0.360900	0.670048
0.361000	1.396786
0.361100	1.346476
0.361200	0.586955
0.361300	0.514573
0.361400	0.612922
0.361500	2.205969
0.361600	3.887632
0.361700	3.824338
0.361800	4.384570
0.361900	3.857446
0.362000	4.068425
0.362100	4.025905
0.362200	4.761088
0.362300	5.040232
0.362400	5.202200
0.362500	5.326192
0.362600	5.167145
0.362700	4.892870
0.362800	4.717919
0.362900	4.548485
0.363000	4.554328
0.363100	5.068795
0.363200	5.311910
0.363300	5.692974
0.363400	4.681240
0.363500	2.918102
0.363600	3.206332
0.363700	4.765308
0.363800	6.487889
0.363900	6.816048
0.364000	5.484590
0.364100	3.781493
0.364200	3.353368
0.364300	4.525764
0.364400	6.215884
0.364500	6.865061
0.364600	6.190891
0.364700	5.127545
0.364800	5.061330
0.364900	5.187269
0.365000	5.805606
0.365100	5.840336
0.365200	5.363519
0.365300	4.876965
0.365400	4.749403
0.365500	5.093464
0.365600	4.838015
0.365700	4.388465
0.365800	4.256684
0.365900	4.474805
0.366000	4.517650
0.366100	4.719866
0.366200	3.727612
0.366300	2.752241
0.366400	2.350408
0.366500	2.288737
0.366600	3.111554
0.366700	2.630198
0.366800	2.225768
0.366900	2.028098
0.367000	1.886905
0.367100	1.970647
0.367200	1.835296
0.367300	1.710981
0.367400	1.604194
0.367500	1.542199
0.367600	1.631783
0.367700	1.371469
0.367800	1.379583
0.367900	1.287078
0.368000	1.373741
0.368100	1.317588
0.368200	1.050458
0.368300	0.861876
0.368400	0.672969
0.368500	-0.041435
0.368600	-1.020374
0.368700	-1.232001
0.368800	-1.045367
0.368900	-0.555897
0.369000	0.584683
0.369100	-0.166074
0.369200	-1.019075
0.369300	-1.271276
0.369400	-1.270627
0.369500	-1.055753
0.369600	-0.894111
0.369700	-0.852565
0.369800	-0.998627
0.369900	-1.220966
0.370000	-1.304708
0.370100	-1.285882
0.370200	-1.243362
0.370300	-1.158321
0.370400	-1.140469
0.370500	-1.148584
0.370600	-1.160269
0.370700	-1.184937
0.370800	-1.188832
0.370900	-1.134951
0.371000	-1.166760
0.371100	-1.212526
0.371200	-1.187209
0.371300	-1.155725
0.371400	-1.148584
0.371500	-1.151505
0.371600	-1.128460
0.371700	-0.901252
0.371800	-0.654894
0.371900	-0.683458
0.372000	-0.935333
0.372100	-1.162541
0.372200	-1.215123
0.372300	-1.000899
0.372400	-0.725978
0.372500	-0.646131
0.372600	-0.811668
0.372700	-1.089510
0.372800	-1.192402
0.372900	-1.132679
0.373000	-0.948641
0.373100	-0.884374
0.373200	-0.919429
0.373300	-1.000899
0.373400	-1.026216
0.373500	-1.027190
0.373600	-1.034006
0.373700	-1.085939
0.373800	-1.072956
0.373900	-1.058025
0.374000	-0.955133
0.374100	-0.874312
0.374200	-0.898980
0.374300	-0.934035
0.374400	-0.955457
0.374500	-0.908718
0.374600	-0.692871
0.374700	-0.588680
0.374800	-0.369912
0.374900	-0.437100
0.375000	-0.419897
0.375100	-0.392957
0.375200	-0.332909
0.375300	-0.277081
0.375400	-0.161530
0.375500	-0.117712
0.375600	-0.098237
0.375700	-0.131344
0.375800	-0.130046
0.375900	-0.129721
0.376000	-0.160556
0.376100	-0.196585
0.376200	-0.120308
0.376300	-0.122905
0.376400	-0.075841
0.376500	-0.127449
0.376600	-0.174189
0.376700	-0.190742
0.376800	-0.220929
0.376900	0.235758
0.377000	0.413304
0.377100	0.614545
0.377200	0.085477
0.377300	-0.128098
0.377400	-0.017740
0.377500	0.210765
0.377600	0.551900
0.377700	0.567805
0.377800	0.508406
0.377900	0.307490
0.378000	0.265944
0.378100	0.424015
0.378200	0.593771
0.378300	1.586342
0.378400	1.666838
0.378500	1.843735
0.378600	1.702867
0.378700	1.869053
0.378800	2.059907
0.378900	1.992394
0.379000	2.189740
0.379100	1.993043
0.379200	1.995964
0.379300	2.075487
0.379400	1.426323
0.379500	1.396786
0.379600	0.100732
0.379700	0.659012
0.379800	0.618115
0.379900	0.929389
0.380000	0.239653
0.380100	-0.372184
0.380200	-0.614646
0.380300	-0.554923
0.380400	-0.352384
0.380500	-0.320900
0.380600	-0.420871
0.380700	-0.785376
0.380800	-1.050235
0.380900	-1.004794
0.381000	-0.834064
0.381100	-0.688326
0.381200	-0.786675
0.381300	-0.979152
0.381400	-1.133004
0.381500	-1.082044
0.381600	-1.135925
0.381700	-1.118073
0.381800	-1.232326
0.381900	-1.315094
0.382000	-1.338789
0.382100	-1.310550
0.382200	-1.283935
0.382300	-1.329376
0.382400	-1.359238
0.382500	-1.309901
0.382600	-1.216746
0.382700	-1.156374
0.382800	-1.084966
0.382900	-1.196946
0.383000	-1.240441
0.383100	-1.195324
0.383200	-1.143715
0.383300	-1.048612
0.383400	-0.950264
0.383500	-0.932412
0.383600	-0.736365
0.383700	-0.548432
0.383800	-0.193664
0.383900	0.094240
0.384000	0.442516
0.384100	0.641160
0.384200	0.939775
0.384300	1.206581
0.384400	1.350046
0.384500	1.535707
0.384600	1.717798
0.384700	1.798294
0.384800	1.924881
0.384900	2.070943
0.385000	1.754151
0.385100	2.000508
0.385200	0.599938
0.385300	-0.916832
0.385400	-0.933710
0.385500	-0.365692
0.385600	1.838217
0.385700	2.230962
0.385800	1.005016
0.385900	-0.785376
0.386000	-0.960975
0.386100	-0.871066
0.386200	-0.679887
0.386300	-0.056690
0.386400	-0.633797
0.386500	-0.786026
0.386600	-0.945071
0.386700	-0.935333
0.386800	-0.873338
0.386900	-0.825300
0.387000	-0.783753
0.387100	-0.808097
0.387200	-0.882426
0.387300	-0.938904
0.387400	-0.936307
0.387500	-0.912937
0.387600	-0.988565
0.387700	-1.082369
0.387800	-1.083992
0.387900	-1.071333
0.388000	-1.149557
0.388100	-1.255371
0.388200	-1.345281
0.388300	-1.315744
0.388400	-1.153777
0.388500	-1.108011
0.388600	-1.300164
0.388700	-1.648116
0.388800	-1.909730
0.388900	-1.871104
0.389000	-1.740947
0.389100	-1.599753
0.389200	-1.664021
0.389300	-1.905835
0.389400	-2.198609
0.389500	-2.344996
0.389600	-2.332337
0.389700	-2.188222
0.389800	-2.125253
0.389900	-2.162255
0.390000	-2.271640
0.390100	-2.333635
0.390200	-2.321950
0.390300	-2.262876
0.390400	-2.182055
0.390500	-2.106752
0.390600	-2.003859
0.390700	-1.834102
0.390800	-1.701023
0.390900	-1.622149
0.391000	-1.554312
0.391100	-1.500106
0.391200	-1.354369
0.391300	-1.129758
0.391400	-0.954484
0.391500	-0.696116
0.391600	-0.644832
0.391700	-0.583811
0.391800	-0.477997
0.391900	-0.340375
0.392000	-0.211191
0.392100	-0.004757
0.392200	0.049123
0.392300	0.086450
0.392400	0.085152
0.392500	0.128321
0.392600	0.185448
0.392700	0.180254
0.392800	0.267891
0.392900	0.259452
0.393000	0.314307
0.393100	0.264321
0.393200	0.264646
0.393300	0.267891
0.393400	0.270488
0.393500	0.430507
0.393600	0.807346
0.393700	1.161789
0.393800	0.928415
0.393900	0.410383
0.394000	0.313657
0.394100	0.488607
0.394200	0.724253
0.394300	1.896642
0.394400	2.121253
0.394500	1.161464
0.394600	0.429533
0.394700	0.671671
0.394800	1.821988
0.394900	2.320222
0.395000	3.176795
0.395100	3.044690
0.395200	2.507506
0.395300	2.525682
0.395400	2.568202
0.395500	2.998274
0.395600	3.009635
0.395700	2.850589
0.395800	2.750942
0.395900	2.770417
0.396000	2.879152
0.396100	1.460404
0.396200	1.782714
0.396300	1.777845
0.396400	2.513673
0.396500	3.022618
0.396600	2.947639
0.396700	2.128069
0.396800	0.306517
0.396900	0.498993
0.397000	1.108558
0.397100	3.156995
0.397200	3.054752
0.397300	1.909625
0.397400	0.572024
0.397500	0.189667
0.397600	0.472702
0.397700	1.043966
0.397800	1.540576
0.397900	1.442552
0.398000	1.049159
0.398100	0.437972
0.398200	0.461342
0.398300	0.169543
0.398400	0.705752
0.398500	0.608702
0.398600	0.584683
0.398700	0.238354
0.398800	0.403242
0.398900	0.390908
0.399000	0.357476
0.399100	0.472378
0.399200	0.809943
0.399300	1.217942
0.399400	1.445149
0.399500	1.324729
0.399600	0.581113
0.399700	0.568129
0.399800	0.674268
0.399900	0.893685
0.400000	1.736623
0.400100	1.567192
0.400200	1.719420
0.400300	1.827182
0.400400	2.031668
0.400500	2.019009
0.400600	2.234857
0.400700	2.328336
0.400800	2.395849
0.400900	2.404938
0.401000	2.483486
0.401100	2.603257
0.401200	2.631821
0.401300	2.794436
0.401400	2.734389
0.401500	2.664279
0.401600	2.550350
0.401700	2.163773
0.401800	2.014465
0.401900	0.100407
0.402000	-0.977854
0.402100	-0.971362
0.402200	-0.392632
0.402300	1.181913
0.402400	1.099469
0.402500	-0.618866
0.402600	-1.065491
0.402700	-1.108660
0.402800	-1.003496
0.402900	-0.767849
0.403000	-0.735715
0.403100	-0.849319
0.403200	-1.069061
0.403300	-1.199543
0.403400	-1.205061
0.403500	-1.125214
0.403600	-1.071333
0.403700	-1.126188
0.403800	-1.156049
0.403900	-1.209605
0.404000	-1.173901
0.404100	-1.144364
0.404200	-1.156374
0.404300	-1.293023
0.404400	-1.275171
0.404500	-1.235896
0.404600	-1.246283
0.404700	-1.348851
0.404800	-1.453367
0.404900	-1.479333
0.405000	-1.351772
0.405100	-1.128460
0.405200	-1.135925
0.405300	-1.322884
0.405400	-1.665968
0.405500	-1.736078
0.405600	-1.568593
0.405700	-1.361510
0.405800	-1.293023
0.405900	-1.414741
0.406000	-1.643896
0.406100	-1.777949
0.406200	-1.833777
0.406300	-1.691935
0.406400	-1.553663
0.406500	-1.534188
0.406600	-1.599104
0.406700	-1.662073
0.406800	-1.633834
0.406900	-1.593586
0.407000	-1.535810
0.407100	-1.466025
0.407200	-1.398188
0.407300	-1.247581
0.407400	-1.120670
0.407500	-1.041472
0.407600	-1.021348
0.407700	-1.016803
0.407800	-1.025243
0.407900	-0.837959
0.408000	-0.678914
0.408100	-0.618217
0.408200	-0.354981
0.408300	-0.360823
0.408400	-0.303697
0.408500	-0.196585
0.408600	-0.046953
0.408700	0.083204
0.408800	0.197457
0.408900	0.231538
0.409000	0.203300
0.409100	0.203624
0.409200	0.252311
0.409300	0.232512
0.409400	0.257180
0.409500	0.243548
0.409600	0.300025
0.409700	0.219204
0.409800	0.269839
0.409900	0.065352
0.410000	0.121830
0.410100	0.002708
0.410200	0.340922
0.410300	0.515547
0.410400	0.780730
0.410500	0.359099
0.410600	-0.007029
0.410700	-0.019039
0.410800	0.111118
0.410900	0.475299
0.411000	0.492826
0.411100	0.474325
0.411200	0.201028
0.411300	0.079634
0.411400	0.152665
0.411500	0.285094
0.411600	0.400970
0.411700	0.315605
0.411800	0.289963
0.411900	0.209791
0.412000	0.112092
0.412100	0.127672
0.412200	0.160779
0.412300	0.190316
0.412400	0.134164
0.412500	0.130269
0.412600	0.063730
0.412700	-0.176785
0.412800	-0.075516
0.412900	-0.119984
0.413000	-0.131669
0.413100	-0.074218
0.413200	-0.167373
0.413300	0.017964
0.413400	-0.340699
0.413500	-0.629252
0.413600	-0.597119
0.413700	-0.410160
0.413800	0.459070
0.413900	0.082880
0.414000	-0.432556
0.414100	-0.770446
0.414200	-0.828221
0.414300	-0.691572
0.414400	-0.456575
0.414500	0.332159
0.414600	-0.173864
0.414700	-0.650999
0.414800	-0.708775
0.414900	-0.687677
0.415000	-0.549405
0.415100	-0.294284
0.415200	-0.314733
0.415300	-0.636718
0.415400	-0.735066
0.415500	-0.515973
0.415600	-0.403344
0.415700	-0.472804
0.415800	-0.463067
0.415900	-0.082657
0.416000	0.206870
0.416100	0.628502
0.416200	0.178631
0.416300	-0.438074
0.416400	-0.530580
0.416500	-0.391334
0.416600	0.687575
0.416700	0.461342
0.416800	0.310736
0.416900	0.266268
0.417000	0.246144
0.417100	0.400645
0.417200	0.391882
0.417300	0.436349
0.417400	0.486659
0.417500	0.305867
0.417600	0.477896
0.417700	0.233486
0.417800	0.226345
0.417900	0.184474
0.418000	-0.097263
0.418100	-0.015144
0.418200	-0.549405
0.418300	-0.753243
0.418400	-1.014531
0.418500	-1.083018
0.418600	-1.465051
0.418700	-1.758474
0.418800	-1.692584
0.418900	-1.496536
0.419000	-1.308603
0.419100	-1.402407
0.419200	-1.808135
0.419300	-2.076890
0.419400	-2.209644
0.419500	-2.035668
0.419600	-1.859095
0.419700	-1.839295
0.419800	-2.061635
0.419900	-2.302475
0.420000	-2.440099
0.420100	-2.391736
0.420200	-2.281053
0.420300	-2.257034
0.420400	-2.332012
0.420500	-2.431335
0.420600	-2.472232
0.420700	-2.494629
0.420800	-2.463144
0.420900	-2.451134
0.421000	-2.485540
0.421100	-2.552729
0.421200	-2.525789
0.421300	-2.494953
0.421400	-2.495927
0.421500	-2.521894
0.421600	-2.484567
0.421700	-2.322275
0.421800	-2.037940
0.421900	-2.056117
0.422000	-2.259955
0.422100	-2.502419
0.422200	-2.515077
0.422300	-2.330389
0.422400	-2.019114
0.422500	-1.880193
0.422600	-1.995095
0.422700	-2.270991
0.422800	-2.400175
0.422900	-2.351487
0.423000	-2.144728
0.423100	-1.975620
0.423200	-1.947057
0.423300	-1.975945
0.423400	-1.980489
0.423500	-1.932775
0.423600	-1.868183
0.423700	-1.781520
0.423800	-1.650388
0.423900	-1.461806
0.424000	-1.234598
0.424100	-1.064192
0.424200	-0.975257
0.424300	-0.904823
0.424400	-0.836660
0.424500	-0.676966
0.424600	-0.388737
0.424700	-0.236184
0.424800	-0.009301
0.424900	0.160455
0.425000	0.272436
0.425100	0.387337
0.425200	0.528530
0.425300	0.642783
0.425400	0.856033
0.425500	0.934582
0.425600	0.997551
0.425700	0.988462
0.425800	0.953408
0.425900	0.933933
0.426000	0.894983
0.426100	0.921599
0.426200	0.949188
0.426300	0.923222
0.426400	0.972558
0.426500	0.801503
0.426600	0.851489
0.426700	0.757360
0.426800	0.813838
0.426900	1.468194
0.427000	3.498132
0.427100	3.414389
0.427200	0.607728
0.427300	0.490554
0.427400	0.417848
0.427500	0.745026
0.427600	1.752203
0.427700	1.881711
0.427800	1.132577
0.427900	0.338650
0.428000	0.340922
0.428100	0.317228
0.428200	0.522363
0.428300	0.807671
0.428400	0.765475
0.428500	-0.087850
0.428600	0.344168
0.428700	0.276980
0.428800	0.259452
0.428900	0.246794
0.429000	0.245820
0.429100	0.201352
0.429200	0.621685
0.429300	0.421094
0.429400	0.030622
0.429500	-0.114790
0.429600	-0.178084
0.429700	-0.235859
0.429800	-0.154065
0.429900	-0.200805
0.430000	-0.211191
0.430100	-0.487735
0.430200	-0.719162
0.430300	-0.696116
0.430400	-0.502666
0.430500	-0.344919
0.430600	-0.402694
0.430700	-0.715916
0.430800	-0.986942
0.430900	-0.895410
0.431000	-0.711696
0.431100	-0.525386
0.431200	-0.601014
0.431300	-0.698388
0.431400	-0.801930
0.431500	-0.734417
0.431600	-0.775639
0.431700	-0.702608
0.431800	-0.760384
0.431900	-0.828870
0.432000	-0.847372
0.432100	-0.809071
0.432200	-0.591276
0.432300	-0.796412
0.432400	-0.801930
0.432500	-0.621138
0.432600	0.122154
0.432700	0.623308
0.432800	1.096224
0.432900	0.409084
0.433000	-0.076814
0.433100	0.141629
0.433200	0.585332
0.433300	1.739544
0.433400	1.551612
0.433500	1.643144
0.433600	1.998236
0.433700	2.182923
0.433800	2.347162
0.433900	2.575992
0.434000	2.619162
0.434100	2.793138
0.434200	2.841825
0.434300	3.037873
0.434400	2.866169
0.434500	2.986265
0.434600	2.901549
0.434700	3.016451
0.434800	2.996976
0.434900	2.886618
0.435000	2.631821
0.435100	2.461739
0.435200	1.523373
0.435300	-1.380335
0.435400	-0.981099
0.435500	-0.899305
0.435600	0.802802
0.435700	1.038123
0.435800	-0.464365
0.435900	-1.195324
0.436000	-1.466025
0.436100	-1.402732
0.436200	-1.238493
0.436300	-1.074254
0.436400	-1.304059
0.436500	-1.574111
0.436600	-1.843839
0.436700	-1.896097
0.436800	-1.896097
0.436900	-1.867209
0.437000	-1.942837
0.437100	-2.095067
0.437200	-2.162580
0.437300	-2.205749
0.437400	-2.232041
0.437500	-2.283325
0.437600	-2.414781
0.437700	-2.515727
0.437800	-2.571230
0.437900	-2.532605
0.438000	-2.549159
0.438100	-2.608557
0.438200	-2.694897
0.438300	-2.647507
0.438400	-2.502094
0.438500	-2.303449
0.438600	-2.457951
0.438700	-2.726057
0.438800	-2.969819
0.438900	-2.985724
0.439000	-2.687756
0.439100	-2.461196
0.439200	-2.428089
0.439300	-2.649130
0.439400	-2.901007
0.439500	-2.964301
0.439600	-2.811747
0.439700	-2.614400
0.439800	-2.560844
0.439900	-2.591354
0.440000	-2.608233
0.440100	-2.584863
0.440200	-2.508910
0.440300	-2.463144
0.440400	-2.388490
0.440500	-2.327468
0.440600	-2.197959
0.440700	-2.006131
0.440800	-1.899018
0.440900	-1.873052
0.441000	-1.869481
0.441100	-1.889281
0.441200	-1.768536
0.441300	-1.550741
0.441400	-1.520231
0.441500	-1.234923
0.441600	-1.301137
0.441700	-1.256020
0.441800	-1.151505
0.441900	-1.040822
0.442000	-0.925271
0.442100	-0.751620
0.442200	-0.684431
0.442300	-0.685730
0.442400	-0.685730
0.442500	-0.655544
0.442600	-0.665606
0.442700	-0.601988
0.442800	-0.577319
0.442900	-0.500393
0.443000	-0.477997
0.443100	-0.464689
0.443200	-0.417950
0.443300	-0.483515
0.443400	-0.375429
0.443500	-0.299153
0.443600	0.140331
0.443700	0.274383
0.443800	0.398698
0.443900	-0.175812
0.444000	-0.215086
0.444100	-0.084604
0.444200	0.366240
0.444300	0.638888
0.444400	0.914782
0.444500	0.504836
0.444600	0.323070
0.444700	0.430831
0.444800	1.132901
0.444900	2.769444
0.445000	3.991499
0.445100	3.954821
0.445200	4.024931
0.445300	4.301477
0.445400	4.691303
0.445500	5.516399
0.445600	6.079882
0.445700	6.349939
0.445800	6.672580
0.445900	7.270149
0.446000	7.369149
0.446100	7.198415
0.446200	7.356165
0.446300	7.535989
0.446400	7.735937
0.446500	8.889541
0.446600	8.959979
0.446700	9.335861
0.446800	7.523654
0.446900	7.035470
0.447000	7.800531
0.447100	9.776664
0.447200	10.622246
0.447300	10.021087
0.447400	8.160503
0.447500	7.310398
0.447600	7.880705
0.447700	9.241079
0.447800	10.321341
0.447900	9.858138
0.448000	8.997956
0.448100	8.281252
0.448200	8.647069
0.448300	8.423424
0.448400	8.515933
0.448500	7.919981
0.448600	7.440234
0.448700	6.830654
0.448800	6.821891
0.448900	6.664790
0.449000	6.208418
0.449100	5.624811
0.449200	5.451482
0.449300	5.326841
0.449400	5.057759
0.449500	4.347568
0.449600	2.823649
0.449700	2.000508
0.449800	1.433139
0.449900	1.725587
0.450000	1.203985
0.450100	0.411032
0.450200	-0.162179
0.450300	-0.570179
0.450400	-1.019075
0.450500	-0.973309
0.450600	-1.038875
0.450700	-1.130083
0.450800	-1.205061
0.450900	-1.294646
0.451000	-1.360536
0.451100	-1.430646
0.451200	-1.486149
0.451300	-1.559505
0.451400	-1.649739
0.451500	-1.695181
0.451600	-1.784765
0.451700	-1.862016
0.451800	-1.979515
0.451900	-2.301177
0.452000	-2.691651
0.452100	-2.794544
0.452200	-2.513130
0.452300	-2.222628
0.452400	-2.222303
0.452500	-2.543965
0.452600	-2.919184
0.452700	-3.084073
0.452800	-2.958134
0.452900	-2.703660
0.453000	-2.633875
0.453100	-2.736443
0.453200	-2.929246
0.453300	-3.013963
0.453400	-3.017858
0.453500	-2.859136
0.453600	-2.869198
0.453700	-2.876664
0.453800	-2.879260
0.453900	-2.923728
0.454000	-2.924053
0.454100	-2.939308
0.454200	-2.958134
0.454300	-3.039605
0.454400	-3.041877
0.454500	-3.026622
0.454600	-2.958134
0.454700	-3.007146
0.454800	-3.058431
0.454900	-3.066545
0.455000	-2.960731
0.455100	-2.671527
0.455200	-2.601417
0.455300	-2.719890
0.455400	-2.968196
0.455500	-3.106469
0.455600	-2.961056
0.455700	-2.651402
0.455800	-2.443020
0.455900	-2.520920
0.456000	-2.734496
0.456100	-2.935413
0.456200	-2.905552
0.456300	-2.725732
0.456400	-2.604338
0.456500	-2.576424
0.456600	-2.624787
0.456700	-2.631603
0.456800	-2.577722
0.456900	-2.544939
0.457000	-2.495602
0.457100	-2.428738
0.457200	-2.314809
0.457300	-2.134666
0.457400	-1.957119
0.457500	-1.832479
0.457600	-1.794178
0.457700	-1.753930
0.457800	-1.720173
0.457900	-1.529968
0.458000	-1.327753
0.458100	-1.262512
0.458200	-0.969414
0.458300	-0.943448
0.458400	-0.876259
0.458500	-0.720785
0.458600	-0.560441
0.458700	-0.426713
0.458800	-0.312785
0.458900	-0.263773
0.459000	-0.214762
0.459100	-0.250141
0.459200	-0.194637
0.459300	-0.258255
0.459400	-0.243325
0.459500	-0.219306
0.459600	-0.223201
0.459700	-0.187497
0.459800	-0.236184
0.459900	-0.259229
0.460000	-0.317979
0.460100	-0.224499
0.460200	-0.128747
0.460300	0.277629
0.460400	0.401944
0.460500	0.207519
0.460600	-0.286170
0.460700	-0.287792
0.460800	-0.111545
0.460900	0.289638
0.461000	0.410058
0.461100	0.357476
0.461200	0.107223
0.461300	0.043605
0.461400	0.075414
0.461500	0.315929
0.461600	0.494774
0.461700	0.068923
0.461800	0.393504
0.461900	0.416550
0.462000	0.348388
0.462100	0.574296
0.462200	0.997551
0.462300	0.986515
0.462400	1.086486
0.462500	1.289674
0.462600	1.820041
0.462700	1.299736
0.462800	1.584719
0.462900	0.742105
0.463000	1.222486
0.463100	1.451640
0.463200	2.149167
0.463300	2.451028
0.463400	1.446772
0.463500	-0.530580
0.463600	-0.065779
0.463700	0.913160
0.463800	2.969711
0.463900	2.858055
0.464000	1.669435
0.464100	-0.334532
0.464200	-0.362122
0.464300	0.650248
0.464400	2.057959
0.464500	2.630522
0.464600	1.883659
0.464700	1.035202
0.464800	0.821628
0.464900	1.236118
0.465000	1.707411
0.465100	1.713253
0.465200	0.972883
0.465300	0.520091
0.465400	0.140980
0.465500	0.474325
0.465600	0.378249
0.465700	-0.020337
0.465800	-0.277730
0.465900	-0.277081
0.466000	-0.029101
0.466100	0.103004
0.466200	-0.526685
0.466300	-0.950264
0.466400	-0.980126
0.466500	-0.953185
0.466600	-0.365692
0.466700	-0.423468
0.466800	-0.498771
0.466900	-0.479945
0.467000	-0.318952
0.467100	-0.071296
0.467200	0.149095
0.467300	0.281199
0.467400	0.483089
0.467500	0.595394
0.467600	0.841752
0.467700	0.804425
0.467800	0.977751
0.467900	0.898229
0.468000	0.855384
0.468100	0.649275
0.468200	0.557094
0.468300	0.123777
0.468400	-0.303697
0.468500	-1.314445
0.468600	-1.267381
0.468700	-1.566970
0.468800	-1.582550
0.468900	-1.320937
0.469000	-1.175199
0.469100	-1.338140
0.469200	-1.676355
0.469300	-2.049625
0.469400	-2.108050
0.469500	-1.982436
0.469600	-1.795801
0.469700	-1.821119
0.469800	-2.033720
0.469900	-2.297282
0.470000	-2.351812
0.470100	-2.368690
0.470200	-2.256709
0.470300	-2.209644
0.470400	-2.265148
0.470500	-2.328117
0.470600	-2.354084
0.470700	-2.344346
0.470800	-2.321626
0.470900	-2.345320
0.471000	-2.428414
0.471100	-2.430036
0.471200	-2.410561
0.471300	-2.427115
0.471400	-2.424843
0.471500	-2.474180
0.471600	-2.524815
0.471700	-2.396280
0.471800	-2.172642
0.471900	-2.205100
0.472000	-2.367392
0.472100	-2.593302
0.472200	-2.691975
0.472300	-2.483917
0.472400	-2.156088
0.472500	-1.970427
0.472600	-2.116164
0.472700	-2.314160
0.472800	-2.417053
0.472900	-2.310590
0.473000	-2.060985
0.473100	-1.924336
0.473200	-1.884088
0.473300	-1.933100
0.473400	-1.980813
0.473500	-1.941863
0.473600	-1.859095
0.473700	-1.754579
0.473800	-1.689338
0.473900	-1.609166
0.474000	-1.442331
0.474100	-1.297242
0.474200	-1.203114
0.474300	-1.141768
0.474400	-1.098598
0.474500	-1.016803
0.474600	-0.763629
0.474700	-0.591276
0.474800	-0.374780
0.474900	-0.237482
0.475000	-0.187172
0.475100	-0.128098
0.475200	-0.037865
0.475300	0.087424
0.475400	0.246794
0.475500	0.314956
0.475600	0.368512
0.475700	0.339948
0.475800	0.337352
0.475900	0.346765
0.476000	0.306841
0.476100	0.350660
0.476200	0.364617
0.476300	0.402268
0.476400	0.327290
0.476500	0.325342
0.476600	0.148770
0.476700	0.244846
0.476800	0.140655
0.476900	0.503213
0.477000	0.657714
0.477100	0.971909
0.477200	0.353581
0.477300	0.061782
0.477400	0.057238
0.477500	0.285743
0.477600	0.547681
0.477700	0.583385
0.477800	0.409084
0.477900	0.168245
0.478000	0.029324
0.478100	0.098135
0.478200	0.210440
0.478300	0.332483
0.478400	0.295481
0.478500	0.298402
0.478600	0.167596
0.478700	0.108846
0.478800	0.141629
0.478900	0.135138
0.479000	0.130918
0.479100	0.109171
0.479200	0.078660
0.479300	0.031596
0.479400	-0.110571
0.479500	-0.070323
0.479600	-0.138485
0.479700	-0.121282
0.479800	-0.067401
0.479900	-0.075841
0.480000	0.211090
0.480100	-0.291363
0.480200	-0.478971
0.480300	-0.418923
0.480400	-0.290064
0.480500	1.034553
0.480600	0.763527
0.480700	-0.379324
0.480800	-0.632174
0.480900	-0.579591
0.481000	-0.166723
0.481100	1.003718
0.481200	1.295517
0.481300	0.995603
0.481400	0.660635
0.481500	1.096224
0.481600	1.218915
0.481700	1.797969
0.481800	1.942084
0.481900	2.081978
0.482000	2.039458
0.482100	2.067372
0.482200	2.537692
0.482300	2.613319
0.482400	2.404613
0.482500	2.812938
0.482600	3.292346
0.482700	3.648414
0.482800	3.937943
0.482900	3.275143
0.483000	2.604231
0.483100	2.787296
0.483200	3.260862
0.483300	4.327768
0.483400	4.127499
0.483500	4.176512
0.483600	4.305696
0.483700	4.539072
0.483800	4.668906
0.483900	4.635799
0.484000	4.644887
0.484100	4.594252
0.484200	4.459225
0.484300	4.315109
0.484400	4.077189
0.484500	3.824338
0.484600	3.654906
0.484700	3.564996
0.484800	3.238141
0.484900	3.137196
0.485000	2.635391
0.485100	2.390331
0.485200	1.081942
0.485300	-0.980450
0.485400	-1.179744
0.485500	-1.040498
0.485600	-0.480919
0.485700	-0.422494
0.485800	-0.920727
0.485900	-1.386827
0.486000	-1.623448
0.486100	-1.642598
0.486200	-1.476087
0.486300	-1.383257
0.486400	-1.491992
0.486500	-1.760746
0.486600	-1.984708
0.486700	-2.108374
0.486800	-2.059362
0.486900	-2.100584
0.487000	-2.203477
0.487100	-2.385244
0.487200	-2.477750
0.487300	-2.557922
0.487400	-2.580968
0.487500	-2.666333
0.487600	-2.781561
0.487700	-2.938010
0.487800	-2.938335
0.487900	-2.966898
0.488000	-3.021428
0.488100	-3.122698
0.488200	-3.212933
0.488300	-3.222995
0.488400	-3.023376
0.488500	-2.862057
0.488600	-2.939308
0.488700	-3.131138
0.488800	-3.301220
0.488900	-3.320046
0.489000	-3.002927
0.489100	-2.695221
0.489200	-2.654973
0.489300	-2.854267
0.489400	-3.068818
0.489500	-3.092188
0.489600	-2.922755
0.489700	-2.703011
0.489800	-2.605961
0.489900	-2.614725
0.490000	-2.650753
0.490100	-2.637770
0.490200	-2.580319
0.490300	-2.515077
0.490400	-2.416729
0.490500	-2.355707
0.490600	-2.204776
0.490700	-1.990875
0.490800	-1.817873
0.490900	-1.716928
0.491000	-1.643896
0.491100	-1.565347
0.491200	-1.376116
0.491300	-1.061271
0.491400	-0.928517
0.491500	-0.568880
0.491600	-0.572126
0.491700	-0.510456
0.491800	-0.388413
0.491900	-0.286170
0.492000	-0.195936
0.492100	-0.068700
0.492200	-0.071296
0.492300	-0.064805
0.492400	-0.164451
0.492500	-0.163802
0.492600	-0.185874
0.492700	-0.259878
0.492800	-0.223201
0.492900	-0.270265
0.493000	-0.156986
0.493100	-0.308566
0.493200	-0.229368
0.493300	-0.358876
0.493400	-0.303697
0.493500	-0.310513
0.493600	0.148445
0.493700	0.292560
0.493800	0.385715
0.493900	-0.178084
0.494000	-0.403019
0.494100	-0.243649
0.494200	0.055940
0.494300	0.392531
0.494400	0.400321
0.494500	0.247118
0.494600	0.007252
0.494700	0.099109
0.494800	0.305543
0.494900	0.734315
0.495000	1.426648
0.495100	1.569788
0.495200	1.172825
0.495300	1.100443
0.495400	1.453263
0.495500	1.925854
0.495600	2.303019
0.495700	2.323143
0.495800	2.324441
0.495900	2.290035
0.496000	1.850551
0.496100	1.814523
0.496200	1.639898
0.496300	1.775248
0.496400	1.540576
0.496500	2.164747
0.496600	1.914170
0.496700	1.728509
0.496800	-0.212814
0.496900	-0.283248
0.497000	-0.276757
0.497100	1.271822
0.497200	1.858991
0.497300	1.732079
0.497400	-0.468260
0.497500	-0.620813
0.497600	-0.594847
0.497700	-0.254036
0.497800	0.661284
0.497900	0.388311
0.498000	-0.601338
0.498100	-0.739935
0.498200	-0.714942
0.498300	-0.691248
0.498400	-0.454952
0.498500	-0.720460
0.498600	-0.815563
0.498700	-0.868469
0.498800	-0.855486
0.498900	-0.809395
0.499000	-0.835687
0.499100	-0.862627
0.499200	-0.834388
0.499300	-0.511105
0.499400	-0.195287
0.499500	-0.214437
0.499600	-0.893138
0.499700	-0.952861
0.499800	-0.912613
0.499900	0.119882
0.500000	0.317877
0.500100	0.009524
0.500200	0.203624
0.500300	0.400645
0.500400	0.711919
0.500500	0.951460
0.500600	1.011508
0.500700	1.137445
0.500800	1.266629
0.500900	1.200090
0.501000	1.174772
0.501100	1.096548
0.501200	1.068634
0.501300	0.855384
0.501400	0.837857
0.501500	0.510354
0.501600	0.082231
0.501700	-0.183926
0.501800	-0.578618
0.501900	-1.072631
0.502000	-1.469271
0.502100	-1.582875
0.502200	-1.347877
0.502300	-1.085615
0.502400	-1.108336
0.502500	-1.395266
0.502600	-1.808135
0.502700	-2.015219
0.502800	-1.893825
0.502900	-1.673758
0.503000	-1.571515
0.503100	-1.748087
0.503200	-1.996069
0.503300	-2.111296
0.503400	-2.142780
0.503500	-2.057090
0.503600	-2.029176
0.503700	-2.032747
0.503800	-2.110647
0.503900	-2.133367
0.504000	-2.175888
0.504100	-2.159659
0.504200	-2.208671
0.504300	-2.252814
0.504400	-2.247621
0.504500	-2.304098
0.504600	-2.266122
0.504700	-2.280728
0.504800	-2.363497
0.504900	-2.376805
0.505000	-2.282026
0.505100	-2.025606
0.505200	-1.919792
0.505300	-2.074293
0.505400	-2.329740
0.505500	-2.551431
0.505600	-2.450161
0.505700	-2.181730
0.505800	-1.987954
0.505900	-2.030475
0.506000	-2.276509
0.506100	-2.529684
0.506200	-2.559870
0.506300	-2.378752
0.506400	-2.198933
0.506500	-2.139859
0.506600	-2.169072
0.506700	-2.210618
0.506800	-2.163229
0.506900	-2.139859
0.507000	-2.110322
0.507100	-2.036642
0.507200	-1.924011
0.507300	-1.777300
0.507400	-1.613386
0.507500	-1.519906
0.507600	-1.484526
0.507700	-1.469271
0.507800	-1.450770
0.507900	-1.238168
0.508000	-1.080421
0.508100	-0.997328
0.508200	-0.740909
0.508300	-0.742532
0.508400	-0.695792
0.508500	-0.635095
0.508600	-0.544212
0.508700	-0.445539
0.508800	-0.368613
0.508900	-0.396203
0.509000	-0.407238
0.509100	-0.534799
0.509200	-0.511754
0.509300	-0.636069
0.509400	-0.633472
0.509500	-0.660088
0.509600	-0.675343
0.509700	-0.649052
0.509800	-0.729548
0.509900	-0.704880
0.510000	-0.850942
0.510100	-0.699687
0.510200	-0.626331
0.510300	-0.232289
0.510400	-0.084280
0.510500	-0.181979
0.510600	-0.701959
0.510700	-0.754866
0.510800	-0.511429
0.510900	-0.239105
0.511000	0.007252
0.511100	-0.045654
0.511200	-0.283248
0.511300	-0.408861
0.511400	-0.342647
0.511500	-0.085578
0.511600	0.012446
0.511700	0.054641
0.511800	0.047825
0.511900	-0.019039
0.512000	0.000436
0.512100	-0.048576
0.512200	-0.039812
0.512300	-0.086227
0.512400	-0.132318
0.512500	-0.179382
0.512600	-0.156012
0.512700	-0.311811
0.512800	-0.485463
0.512900	-0.549730
0.513000	-0.584136
0.513100	-0.618217
0.513200	-0.461444
0.513300	-0.482541
0.513400	-0.560441
0.513500	-0.933386
0.513600	-0.890216
0.513700	-0.733119
0.513800	-0.389711
0.513900	-0.349788
0.514000	-0.521491
0.514100	-0.840880
0.514200	-0.952212
0.514300	-0.843152
0.514400	-0.633147
0.514500	-0.544861
0.514600	-0.721109
0.514700	-0.910665
0.514800	-0.999276
0.514900	-1.008689
0.515000	-1.016154
0.515100	-1.048288
0.515200	-1.165137
0.515300	-1.269653
0.515400	-1.326779
0.515500	-1.325481
0.515600	-1.380011
0.515700	-1.464402
0.515800	-1.471543
0.515900	-1.446550
0.516000	-1.420584
0.516100	-1.417662
0.516200	-1.519257
0.516300	-1.706541
0.516400	-1.675706
0.516500	-1.630589
0.516600	-1.630913
0.516700	-1.591639
0.516800	-1.621500
0.516900	-1.613386
0.517000	-1.622149
0.517100	-1.608517
0.517200	-1.585472
0.517300	-1.602674
0.517400	-1.607219
0.517500	-1.610140
0.517600	-1.617605
0.517700	-1.627343
0.517800	-1.662398
0.517900	-1.654283
0.518000	-1.659801
0.518100	-1.698426
0.518200	-1.724718
0.518300	-1.794827
0.518400	-1.835076
0.518500	-1.928556
0.518600	-2.236585
0.518700	-2.552080
0.518800	-2.532929
0.518900	-2.202179
0.519000	-1.922064
0.519100	-1.971400
0.519200	-2.351487
0.519300	-2.650429
0.519400	-2.642963
0.519500	-2.432309
0.519600	-2.148623
0.519700	-2.065854
0.519800	-2.268719
0.519900	-2.489435
0.520000	-2.606285
0.520100	-2.515402
0.520200	-2.461196
0.520300	-2.450810
0.520400	-2.528061
0.520500	-2.603040
0.520600	-2.620242
0.520700	-2.631927
0.520800	-2.617646
0.520900	-2.677694
0.521000	-2.733522
0.521100	-2.857189
0.521200	-2.775393
0.521300	-2.795193
0.521400	-2.845179
0.521500	-2.919833
0.521600	-2.954564
0.521700	-2.776692
0.521800	-2.552080
0.521900	-2.510533
0.522000	-2.653675
0.522100	-2.936387
0.522200	-3.064598
0.522300	-2.849074
0.522400	-2.531956
0.522500	-2.335258
0.522600	-2.446266
0.522700	-2.711126
0.522800	-2.906201
0.522900	-2.792921
0.523000	-2.527736
0.523100	-2.296308
0.523200	-2.185625
0.523300	-2.183678
0.523400	-2.194064
0.523500	-2.135639
0.523600	-2.011649
0.523700	-1.891553
0.523800	-1.788660
0.523900	-1.703620
0.524000	-1.537758
0.524100	-1.389424
0.524200	-1.281662
0.524300	-1.226159
0.524400	-1.162541
0.524500	-1.076851
0.524600	-0.844450
0.524700	-0.698064
0.524800	-0.446837
0.524900	-0.370236
0.525000	-0.331286
0.525100	-0.286494
0.525200	-0.214762
0.525300	-0.153416
0.525400	-0.003134
0.525500	0.092617
0.525600	0.074441
0.525700	0.080283
0.525800	0.074116
0.525900	0.061782
0.526000	0.080932
0.526100	0.063730
0.526200	0.154937
0.526300	0.112092
0.526400	0.145524
0.526500	0.075739
0.526600	-0.065454
0.526700	-0.078113
0.526800	-0.106351
0.526900	0.102030
0.527000	0.395127
0.527100	0.380521
0.527200	0.169543
0.527300	-0.443592
0.527400	-0.256308
0.527500	-0.142055
0.527600	0.252961
0.527700	0.283796
0.527800	0.144550
0.527900	-0.072270
0.528000	-0.181005
0.528100	-0.026180
0.528200	0.128970
0.528300	0.332483
0.528400	0.307815
0.528500	0.227319
0.528600	0.214660
0.528700	0.177658
0.528800	0.236732
0.528900	0.288340
0.529000	0.970286
0.529100	1.380557
0.529200	1.973243
0.529300	2.373778
0.529400	2.097234
0.529500	2.664603
0.529600	2.612346
0.529700	3.142064
0.529800	3.898343
0.529900	4.565688
0.530000	4.974341
0.530100	4.174240
0.530200	3.150828
0.530300	3.532862
0.530400	5.123001
0.530500	6.818320
0.530600	6.989379
0.530700	5.640716
0.530800	4.204101
0.530900	4.313486
0.531000	5.261924
0.531100	6.531384
0.531200	7.001388
0.531300	6.286320
0.531400	5.580667
0.531500	5.532628
0.531600	5.283671
0.531700	5.717318
0.531800	5.720888
0.531900	5.716669
0.532000	5.610529
0.532100	5.246993
0.532200	5.500819
0.532300	5.404741
0.532400	5.386565
0.532500	5.750750
0.532600	6.302874
0.532700	6.888431
0.532800	6.875123
0.532900	6.223025
0.533000	5.450833
0.533100	5.462193
0.533200	5.491081
0.533300	6.381099
0.533400	5.819238
0.533500	5.729652
0.533600	5.674473
0.533700	5.656945
0.533800	5.432007
0.533900	5.387538
0.534000	5.202849
0.534100	4.869824
0.534200	4.628658
0.534300	4.168722
0.534400	3.834076
0.534500	3.586743
0.534600	3.131353
0.534700	3.025539
0.534800	2.563009
0.534900	2.303343
0.535000	1.736623
0.535100	1.179966
0.535200	0.049123
0.535300	-1.154426
0.535400	-1.368001
0.535500	-1.282636
0.535600	-0.962598
0.535700	-0.881128
0.535800	-1.182340
0.535900	-1.599104
0.536000	-1.925634
0.536100	-1.929529
0.536200	-1.754255
0.536300	-1.641300
0.536400	-1.786388
0.536500	-2.044756
0.536600	-2.275535
0.536700	-2.337530
0.536800	-2.307993
0.536900	-2.325845
0.537000	-2.383946
0.537100	-2.473855
0.537200	-2.490084
0.537300	-2.513779
0.537400	-2.505340
0.537500	-2.548509
0.537600	-2.672176
0.537700	-2.726057
0.537800	-2.811747
0.537900	-2.730926
0.538000	-2.771823
0.538100	-2.898411
0.538200	-2.961380
0.538300	-2.974363
0.538400	-2.810124
0.538500	-2.690028
0.538600	-2.852644
0.538700	-3.074985
0.538800	-3.383015
0.538900	-3.422615
0.539000	-3.203520
0.539100	-2.992216
0.539200	-2.964626
0.539300	-3.171711
0.539400	-3.442739
0.539500	-3.527780
0.539600	-3.405087
0.539700	-3.223320
0.539800	-3.178202
0.539900	-3.201248
0.540000	-3.220723
0.540100	-3.200923
0.540200	-3.139901
0.540300	-3.124321
0.540400	-3.028244
0.540500	-2.954888
0.540600	-2.820835
0.540700	-2.608882
0.540800	-2.458924
0.540900	-2.399850
0.541000	-2.349540
0.541100	-2.334284
0.541200	-2.189845
0.541300	-1.944785
0.541400	-1.841243
0.541500	-1.553338
0.541600	-1.580278
0.541700	-1.511791
0.541800	-1.398837
0.541900	-1.254722
0.542000	-1.138522
0.542100	-0.962274
0.542200	-0.897033
0.542300	-0.838932
0.542400	-0.809720
0.542500	-0.742856
0.542600	-0.687028
0.542700	-0.642560
0.542800	-0.574074
0.542900	-0.461119
0.543000	-0.392308
0.543100	-0.338103
0.543200	-0.348814
0.543300	-0.348489
0.543400	-0.355630
0.543500	-0.168996
0.543600	0.094565
0.543700	0.472702
0.543800	0.422068
0.543900	0.043930
0.544000	-0.290064
0.544100	-0.097912
0.544200	0.149744
0.544300	0.408760
0.544400	0.466535
0.544500	0.256856
0.544600	0.002708
0.544700	0.016665
0.544800	0.162078
0.544900	0.387013
0.545000	0.381820
0.545100	0.365266
0.545200	0.214985
0.545300	0.202650
0.545400	0.235109
0.545500	0.276655
0.545600	0.216283
0.545700	0.156560
0.545800	0.115338
0.545900	0.117610
0.546000	0.061133
0.546100	-0.073568
0.546200	-0.159583
0.546300	-0.278055
0.546400	-0.307267
0.546500	-0.257282
0.546600	-0.293959
0.546700	-0.306294
0.546800	-0.725329
0.546900	-0.806799
0.547000	-0.766551
0.547100	-0.483191
0.547200	-0.356604
0.547300	-0.490981
0.547400	-0.824326
0.547500	-0.995381
0.547600	-0.895085
0.547700	-0.642885
0.547800	-0.310189
0.547900	-0.636718
0.548000	-0.723706
0.548100	-0.826598
0.548200	-0.729548
0.548300	-0.692871
0.548400	-0.291687
0.548500	-0.793816
0.548600	-0.791543
0.548700	-0.876584
0.548800	-0.884049
0.548900	-0.836660
0.549000	-0.891515
0.549100	-0.946694
0.549200	-0.927868
0.549300	-0.896059
0.549400	-0.828870
0.549500	-0.835037
0.549600	-1.025567
0.549700	-1.105090
0.549800	-1.109309
0.549900	-0.956756
0.550000	-0.912613
0.550100	-0.987916
0.550200	-0.995381
0.550300	-1.009338
0.550400	-0.995706
0.550500	-0.993109
0.550600	-1.034655
0.550700	-1.080746
0.550800	-1.092756
0.550900	-1.080097
0.551000	-1.094703
0.551100	-1.085290
0.551200	-1.112231
0.551300	-1.120994
0.551400	-1.144040
0.551500	-1.160593
0.551600	-1.162865
0.551700	-1.205710
0.551800	-1.170980
0.551900	-1.441357
0.552000	-1.717577
0.552100	-1.887983
0.552200	-1.554312
0.552300	-1.245634
0.552400	-1.152803
0.552500	-1.390722
0.552600	-1.835400
0.552700	-2.014245
0.552800	-1.915897
0.552900	-1.645195
0.553000	-1.518932
0.553100	-1.665968
0.553200	-1.911028
0.553300	-2.140833
0.553400	-2.122656
0.553500	-2.097663
0.553600	-2.111945
0.553700	-2.195038
0.553800	-2.328766
0.553900	-2.448213
0.554000	-2.538772
0.554100	-2.595250
0.554200	-2.618620
0.554300	-2.749102
0.554400	-2.842907
0.554500	-2.935089
0.554600	-2.966573
0.554700	-2.988321
0.554800	-3.042202
0.554900	-3.115233
0.555000	-3.049992
0.555100	-2.851671
0.555200	-2.761761
0.555300	-2.848749
0.555400	-3.061027
0.555500	-3.244418
0.555600	-3.160026
0.555700	-2.842907
0.555800	-2.581292
0.555900	-2.556299
0.556000	-2.766630
0.556100	-3.026622
0.556200	-3.056808
0.556300	-2.877637
0.556400	-2.655947
0.556500	-2.565712
0.556600	-2.613426
0.556700	-2.704959
0.556800	-2.733198
0.556900	-2.708205
0.557000	-2.653350
0.557100	-2.573178
0.557200	-2.505340
0.557300	-2.394657
0.557400	-2.240480
0.557500	-2.161282
0.557600	-2.120709
0.557700	-2.095716
0.557800	-2.060661
0.557900	-1.849033
0.558000	-1.627992
0.558100	-1.578980
0.558200	-1.262837
0.558300	-1.265433
0.558400	-1.187858
0.558500	-1.072307
0.558600	-0.947018
0.558700	-0.790894
0.558800	-0.702933
0.558900	-0.603286
0.559000	-0.641587
0.559100	-0.595171
0.559200	-0.587381
0.559300	-0.554923
0.559400	-0.499095
0.559500	-0.395878
0.559600	-0.330637
0.559700	-0.303372
0.559800	-0.333883
0.559900	-0.335506
0.560000	-0.365043
0.560100	-0.300776
0.560200	-0.123229
0.560300	0.251662
0.560400	0.410383
0.560500	0.308789
0.560600	-0.198532
0.560700	-0.221253
0.560800	-0.059936
0.560900	0.404216
0.561000	0.634344
0.561100	0.599938
0.561200	0.444788
0.561300	0.323719
0.561400	0.476273
0.561500	1.587316
0.561600	2.961272
0.561700	3.867508
0.561800	3.631860
0.561900	3.996692
0.562000	3.679249
0.562100	4.048950
0.562200	4.345945
0.562300	4.657221
0.562400	4.941558
0.562500	5.194734
0.562600	5.219078
0.562700	4.571206
0.562800	4.574777
0.562900	4.422222
0.563000	4.910073
0.563100	4.777642
0.563200	5.922782
0.563300	5.766655
0.563400	5.561841
0.563500	3.571163
0.563600	3.873026
0.563700	4.672477
0.563800	6.399925
0.563900	6.888431
0.564000	5.999060
0.564100	4.097962
0.564200	3.764290
0.564300	4.475129
0.564400	5.765681
0.564500	6.482695
0.564600	5.840012
0.564700	4.842235
0.564800	4.223252
0.564900	4.208645
0.565000	4.106726
0.565100	3.877245
0.565200	3.038198
0.565300	2.565606
0.565400	1.949874
0.565500	1.977138
0.565600	1.400032
0.565700	0.714516
0.565800	0.206870
0.565900	0.308140
0.566000	0.435700
0.566100	0.219529
0.566200	-0.415028
0.566300	-1.036278
0.566400	-1.113204
0.566500	-1.170655
0.566600	-1.051858
0.566700	-1.160269
0.566800	-1.277118
0.566900	-1.306980
0.567000	-1.299839
0.567100	-1.333271
0.567200	-1.331973
0.567300	-1.322235
0.567400	-1.309577
0.567500	-1.264784
0.567600	-1.246932
0.567700	-1.217395
0.567800	-1.207333
0.567900	-1.212851
0.568000	-1.177472
0.568100	-1.190130
0.568200	-1.199868
0.568300	-1.273548
0.568400	-1.254398
0.568500	-1.364106
0.568600	-1.695181
0.568700	-2.011649
0.568800	-2.014895
0.568900	-1.694531
0.569000	-1.458235
0.569100	-1.459209
0.569200	-1.869157
0.569300	-2.196986
0.569400	-2.297282
0.569500	-2.074293
0.569600	-1.843190
0.569700	-1.843190
0.569800	-2.025606
0.569900	-2.274236
0.570000	-2.345320
0.570100	-2.303774
0.570200	-2.241129
0.570300	-2.217434
0.570400	-2.276184
0.570500	-2.282676
0.570600	-2.317081
0.570700	-2.294361
0.570800	-2.261902
0.570900	-2.271315
0.571000	-2.351487
0.571100	-2.372910
0.571200	-2.373884
0.571300	-2.349215
0.571400	-2.395955
0.571500	-2.459574
0.571600	-2.460872
0.571700	-2.357979
0.571800	-2.117138
0.571900	-2.122981
0.572000	-2.303449
0.572100	-2.600767
0.572200	-2.791623
0.572300	-2.642639
0.572400	-2.379077
0.572500	-2.276509
0.572600	-2.465416
0.572700	-2.796816
0.572800	-3.024025
0.572900	-3.013314
0.573000	-2.832196
0.573100	-2.717618
0.573200	-2.740014
0.573300	-2.835442
0.573400	-2.908473
0.573500	-2.893217
0.573600	-2.853943
0.573700	-2.806878
0.573800	-2.773771
0.573900	-2.719890
0.574000	-2.548834
0.574100	-2.396929
0.574200	-2.338179
0.574300	-2.345969
0.574400	-2.344671
0.574500	-2.304423
0.574600	-2.091172
0.574700	-1.947381
0.574800	-1.792231
0.574900	-1.618254
0.575000	-1.565023
0.575100	-1.459858
0.575200	-1.325481
0.575300	-1.162865
0.575400	-0.926245
0.575500	-0.776937
0.575600	-0.653921
0.575700	-0.661061
0.575800	-0.532527
0.575900	-0.476699
0.576000	-0.384842
0.576100	-0.315057
0.576200	-0.193988
0.576300	-0.124852
0.576400	-0.040137
0.576500	0.015367
0.576600	0.058212
0.576700	0.098135
0.576800	0.163701
0.576900	0.470430
0.577000	1.152701
0.577100	1.623344
0.577200	1.188729
0.577300	0.366240
0.577400	0.522363
0.577500	0.758983
0.577600	3.107334
0.577700	4.198583
0.577800	3.481578
0.577900	2.425386
0.578000	2.127420
0.578100	3.027487
0.578200	4.616973
0.578300	6.120455
0.578400	6.335008
0.578500	6.226920
0.578600	5.916290
0.578700	5.817291
0.578800	6.018210
0.578900	6.235359
0.579000	6.417129
0.579100	6.195110
0.579200	5.822160
0.579300	5.655322
0.579400	4.862359
0.579500	5.075936
0.579600	4.397554
0.579700	3.898992
0.579800	4.141132
0.579900	3.816873
0.580000	4.079136
0.580100	1.853473
0.580200	0.556769
0.580300	0.140006
0.580400	1.072205
0.580500	2.638637
0.580600	2.249787
0.580700	0.645055
0.580800	-0.518895
0.580900	-0.597119
0.581000	-0.522140
0.581100	0.234459
0.581200	0.531452
0.581300	-0.319277
0.581400	-0.770770
0.581500	-0.832441
0.581600	-0.909367
0.581700	-0.897682
0.581800	-0.943448
0.581900	-1.007715
0.582000	-1.110283
0.582100	-1.192727
0.582200	-1.174226
0.582300	-1.191104
0.582400	-1.222264
0.582500	-1.218369
0.582600	-1.149557
0.582700	-1.146636
0.582800	-1.153452
0.582900	-1.290102
0.583000	-1.424803
0.583100	-1.460507
0.583200	-1.421233
0.583300	-1.287830
0.583400	-1.346254
0.583500	-1.369949
0.583600	-1.377414
0.583700	-1.370598
0.583800	-1.396240
0.583900	-1.395591
0.584000	-1.399486
0.584100	-1.413767
0.584200	-1.392345
0.584300	-1.415390
0.584400	-1.393319
0.584500	-1.388450
0.584600	-1.345281
0.584700	-1.341710
0.584800	-1.235572
0.584900	-1.287830
0.585000	-1.208956
0.585100	-1.242713
0.585200	-1.275495
0.585300	-1.643572
0.585400	-1.785415
0.585500	-1.602025
0.585600	-1.223887
0.585700	-0.987916
0.585800	-1.101519
0.585900	-1.428698
0.586000	-1.723419
0.586100	-1.718550
0.586200	-1.466674
0.586300	-1.308278
0.586400	-1.283610
0.586500	-1.495562
0.586600	-1.653309
0.586700	-1.733806
0.586800	-1.669538
0.586900	-1.640326
0.587000	-1.619553
0.587100	-1.662722
0.587200	-1.725042
0.587300	-1.738025
0.587400	-1.777625
0.587500	-1.798398
0.587600	-1.855200
0.587700	-1.954847
0.587800	-1.970751
0.587900	-1.954847
0.588000	-1.961988
0.588100	-2.082083
0.588200	-2.155114
0.588300	-2.183029
0.588400	-2.007105
0.588500	-1.856174
0.588600	-1.977243
0.588700	-2.183678
0.588800	-2.432633
0.588900	-2.519622
0.589000	-2.318704
0.589100	-2.077215
0.589200	-2.030475
0.589300	-2.211916
0.589400	-2.455029
0.589500	-2.571230
0.589600	-2.540395
0.589700	-2.380375
0.589800	-2.295010
0.589900	-2.281053
0.590000	-2.300852
0.590100	-2.316108
0.590200	-2.301501
0.590300	-2.280728
0.590400	-2.230093
0.590500	-2.129797
0.590600	-1.994446
0.590700	-1.794827
0.590800	-1.638379
0.590900	-1.584822
0.591000	-1.565672
0.591100	-1.528670
0.591200	-1.397214
0.591300	-1.130083
0.591400	-1.031085
0.591500	-0.728575
0.591600	-0.707801
0.591700	-0.628603
0.591800	-0.504938
0.591900	-0.369587
0.592000	-0.249492
0.592100	-0.077139
0.592200	-0.023583
0.592300	0.051395
0.592400	0.061457
0.592500	0.113715
0.592600	0.098135
0.592700	0.133839
0.592800	0.115013
0.592900	0.183825
0.593000	0.199405
0.593100	0.206221
0.593200	0.147147
0.593300	0.064054
0.593400	0.012770
0.593500	0.066651
0.593600	0.302297
0.593700	0.634669
0.593800	0.528530
0.593900	0.173114
0.594000	-0.305320
0.594100	-0.060585
0.594200	0.071195
0.594300	0.422717
0.594400	0.407786
0.594500	0.184149
0.594600	-0.045005
0.594700	-0.141081
0.594800	-0.000862
0.594900	0.189667
0.595000	0.225696
0.595100	0.215634
0.595200	0.152665
0.595300	0.139032
0.595400	0.108197
0.595500	0.156235
0.595600	0.098135
0.595700	0.104627
0.595800	0.040035
0.595900	0.114364
0.596000	-0.027802
0.596100	-0.143678
0.596200	-0.208270
0.596300	-0.252413
0.596400	-0.243000
0.596500	-0.150819
0.596600	0.202001
0.596700	-0.182953
0.596800	-0.539668
0.596900	-0.693520
0.597000	-0.600365
0.597100	-0.389711
0.597200	0.575270
0.597300	-0.406265
0.597400	-0.705205
0.597500	-0.962598
0.597600	-0.882426
0.597700	-0.721434
0.597800	-0.582188
0.597900	-0.658789
0.598000	-0.902550
0.598100	-1.026865
0.598200	-0.983047
0.598300	-0.994083
0.598400	-0.933710
0.598500	-1.055753
0.598600	-1.111257
0.598700	-1.113529
0.598800	-1.075877
0.598900	-0.999601
0.599000	-1.024593
0.599100	-1.035629
0.599200	-1.007390
0.599300	-0.934684
0.599400	-0.851267
0.599500	-0.662360
0.599600	-0.980126
0.599700	-1.093080
0.599800	-1.098923
0.599900	-0.918780
0.600000	-1.049262
0.600100	-0.958703
0.600200	-0.995381
0.600300	-0.979152
0.600400	-0.950589
0.600500	-0.949290
0.600600	-0.960975
0.600700	-0.942149
0.600800	-0.808746
0.600900	-0.461119
0.601000	-0.452031
0.601100	-0.297530
0.601200	0.025754
0.601300	0.201352
0.601400	0.374030
0.601500	0.372731
0.601600	0.356502
0.601700	0.080608
0.601800	-0.209244
0.601900	-1.012584
0.602000	-1.353720
0.602100	-1.492966
0.602200	-1.305682
0.602300	-0.990837
0.602400	-1.004469
0.602500	-1.262188
0.602600	-1.735104
0.602700	-1.984384
0.602800	-1.886684
0.602900	-1.689663
0.603000	-1.566970
0.603100	-1.751333
0.603200	-2.059687
0.603300	-2.257034
0.603400	-2.266122
0.603500	-2.233664
0.603600	-2.223926
0.603700	-2.322924
0.603800	-2.435230
0.603900	-2.518323
0.604000	-2.550457
0.604100	-2.531956
0.604200	-2.547860
0.604300	-2.641016
0.604400	-2.738716
0.604500	-2.719240
0.604600	-2.730276
0.604700	-2.721513
0.604800	-2.816940
0.604900	-2.861733
0.605000	-2.830573
0.605100	-2.560844
0.605200	-2.442046
0.605300	-2.573178
0.605400	-2.807203
0.605500	-3.021428
0.605600	-2.981829
0.605700	-2.685484
0.605800	-2.456003
0.605900	-2.441072
0.606000	-2.682887
0.606100	-2.935738
0.606200	-2.971442
0.606300	-2.768253
0.606400	-2.556624
0.606500	-2.494304
0.606600	-2.503068
0.606700	-2.545264
0.606800	-2.498848
0.606900	-2.385893
0.607000	-2.251516
0.607100	-2.095067
0.607200	-1.930828
0.607300	-1.805214
0.607400	-1.553013
0.607500	-1.392020
0.607600	-1.274197
0.607700	-1.195973
0.607800	-1.137223
0.607900	-0.923648
0.608000	-0.708775
0.608100	-0.618217
0.608200	-0.296556
0.608300	-0.286819
0.608400	-0.190418
0.608500	-0.088824
0.608600	0.043930
0.608700	0.217257
0.608800	0.343519
0.608900	0.404216
0.609000	0.428235
0.609100	0.383442
