LabVIEW Measurement	
Writer_Version	2
Reader_Version	2
Separator	Tab
Decimal_Separator	.
Multi_Headings	Yes
X_Columns	One
Time_Pref	Relative
Operator	as989
Description	Time Domain Data
Date	1903/12/31
Time	19:00:00
***End_of_Header***	
	
Channels	1	
Samples	15000	
Date	1903/12/31	
Time	19:00:00	
X_Dimension	Time	
X0	0.0000000000000000E+0	
Delta_X	0.000100	
***End_of_Header***		
X_Value	Untitled	Comment
0.000000	-3.596592	Tare Values:0.000000, 0.000000, 0.000000, 0.000000\0D\0A
0.000100	-3.583609
0.000200	-3.593671
0.000300	-3.573547
0.000400	-3.633270
0.000500	-3.721882
0.000600	-3.767973
0.000700	-3.766999
0.000800	-3.748498
0.000900	-3.752718
0.001000	-3.848795
0.001100	-3.837759
0.001200	-3.745577
0.001300	-3.483637
0.001400	-3.511226
0.001500	-3.679037
0.001600	-3.935459
0.001700	-4.099375
0.001800	-3.939354
0.001900	-3.656965
0.002000	-3.538816
0.002100	-3.666378
0.002200	-3.932214
0.002300	-4.084444
0.002400	-4.057504
0.002500	-3.868270
0.002600	-3.727075
0.002700	-3.726751
0.002800	-3.777386
0.002900	-3.815687
0.003000	-3.753691
0.003100	-3.682932
0.003200	-3.629700
0.003300	-3.564783
0.003400	-3.510902
0.003500	-3.331406
0.003600	-3.155157
0.003700	-3.038307
0.003800	-2.974363
0.003900	-2.968196
0.004000	-2.887050
0.004100	-2.627383
0.004200	-2.468986
0.004300	-2.118761
0.004400	-2.057740
0.004500	-1.995420
0.004600	-1.876947
0.004700	-1.761071
0.004800	-1.603973
0.004900	-1.426102
0.005000	-1.328402
0.005100	-1.273223
0.005200	-1.255047
0.005300	-1.264784
0.005400	-1.195973
0.005500	-1.278741
0.005600	-1.128135
0.005700	-1.208631
0.005800	-1.072631
0.005900	-1.207658
0.006000	-1.159620
0.006100	-1.238818
0.006200	-1.278741
0.006300	-1.216421
0.006400	-0.956431
0.006500	-0.551028
0.006600	-0.505262
0.006700	-0.843477
0.006800	-1.204087
0.006900	-1.261863
0.007000	-0.866846
0.007100	-0.566933
0.007200	-0.485787
0.007300	-0.549730
0.007400	-0.827572
0.007500	-0.845099
0.007600	-0.695467
0.007700	-0.476699
0.007800	-0.305644
0.007900	-0.250141
0.008000	-0.319926
0.008100	-0.418599
0.008200	-0.448785
0.008300	-0.365692
0.008400	-0.330962
0.008500	-0.304021
0.008600	-0.350761
0.008700	-0.326093
0.008800	-0.366990
0.008900	-0.456575
0.009000	-0.623410
0.009100	-0.617892
0.009200	-0.764928
0.009300	-0.638341
0.009400	-0.626656
0.009500	-0.635420
0.009600	-0.859706
0.009700	-1.213500
0.009800	-1.219018
0.009900	-1.057701
0.010000	-0.712345
0.010100	-0.811343
0.010200	-1.052183
0.010300	-1.391047
0.010400	-1.390398
0.010500	-1.248555
0.010600	-1.038550
0.010700	-1.066464
0.010800	-1.205386
0.010900	-1.375791
0.011000	-1.406951
0.011100	-1.468622
0.011200	-1.419935
0.011300	-1.477710
0.011400	-1.578006
0.011500	-1.648441
0.011600	-1.657529
0.011700	-1.639028
0.011800	-1.687391
0.011900	-1.773405
0.012000	-1.786388
0.012100	-1.723419
0.012200	-1.709138
0.012300	-1.685118
0.012400	-1.815601
0.012500	-1.954522
0.012600	-1.990226
0.012700	-2.016517
0.012800	-2.000613
0.012900	-1.945109
0.013000	-1.981463
0.013100	-1.970751
0.013200	-1.991200
0.013300	-1.981138
0.013400	-1.998990
0.013500	-1.984708
0.013600	-1.983410
0.013700	-1.995420
0.013800	-2.009377
0.013900	-2.019763
0.014000	-2.018465
0.014100	-1.998341
0.014200	-1.999964
0.014300	-2.025930
0.014400	-2.061635
0.014500	-2.061635
0.014600	-2.113243
0.014700	-2.259306
0.014800	-2.644586
0.014900	-2.799737
0.015000	-2.739040
0.015100	-2.347592
0.015200	-2.215811
0.015300	-2.311888
0.015400	-2.736443
0.015500	-3.004550
0.015600	-2.987022
0.015700	-2.763708
0.015800	-2.550457
0.015900	-2.565388
0.016000	-2.804931
0.016100	-2.984101
0.016200	-3.078230
0.016300	-3.036684
0.016400	-3.021753
0.016500	-3.006173
0.016600	-3.085047
0.016700	-3.147367
0.016800	-3.188265
0.016900	-3.231759
0.017000	-3.210336
0.017100	-3.230461
0.017200	-3.325564
0.017300	-3.379445
0.017400	-3.384314
0.017500	-3.384314
0.017600	-3.480715
0.017700	-3.542062
0.017800	-3.538816
0.017900	-3.395999
0.018000	-3.246690
0.018100	-3.331731
0.018200	-3.589451
0.018300	-3.866647
0.018400	-4.003298
0.018500	-3.789720
0.018600	-3.513174
0.018700	-3.508630
0.018800	-3.691371
0.018900	-3.954285
0.019000	-4.077303
0.019100	-4.042248
0.019200	-3.870218
0.019300	-3.788422
0.019400	-3.818933
0.019500	-3.853015
0.019600	-3.825425
0.019700	-3.804651
0.019800	-3.749796
0.019900	-3.674817
0.020000	-3.586530
0.020100	-3.457021
0.020200	-3.261621
0.020300	-3.085371
0.020400	-3.004874
0.020500	-2.950020
0.020600	-2.903604
0.020700	-2.766630
0.020800	-2.509235
0.020900	-2.371287
0.021000	-2.025606
0.021100	-1.985682
0.021200	-1.887009
0.021300	-1.766913
0.021400	-1.625395
0.021500	-1.466674
0.021600	-1.255696
0.021700	-1.196946
0.021800	-1.089834
0.021900	-1.147610
0.022000	-1.076851
0.022100	-1.053806
0.022200	-1.072631
0.022300	-1.036603
0.022400	-0.964870
0.022500	-0.990512
0.022600	-0.951562
0.022700	-0.980126
0.022800	-1.004469
0.022900	-0.985968
0.023000	-0.903200
0.023100	-0.593548
0.023200	-0.301100
0.023300	-0.290389
0.023400	-0.729224
0.023500	-1.016803
0.023600	-0.945071
0.023700	-0.631200
0.023800	-0.371535
0.023900	-0.241377
0.024000	-0.574398
0.024100	-0.743830
0.024200	-0.860679
0.024300	-0.649701
0.024400	-0.507534
0.024500	-0.357577
0.024600	-0.355630
0.024700	-0.463391
0.024800	-0.474102
0.024900	-0.527983
0.025000	-0.532527
0.025100	-0.499744
0.025200	-0.506885
0.025300	-0.519544
0.025400	-0.515649
0.025500	-0.496823
0.025600	-0.647429
0.025700	-0.647104
0.025800	-0.782455
0.025900	-0.775964
0.026000	-0.757138
0.026100	-0.682484
0.026200	-0.756813
0.026300	-1.040498
0.026400	-1.236221
0.026500	-1.173252
0.026600	-0.903200
0.026700	-0.725004
0.026800	-0.800632
0.026900	-1.127486
0.027000	-1.334245
0.027100	-1.265758
0.027200	-1.104116
0.027300	-0.911639
0.027400	-0.943448
0.027500	-1.106713
0.027600	-1.199868
0.027700	-1.190130
0.027800	-1.207658
0.027900	-1.157347
0.028000	-1.230703
0.028100	-1.302436
0.028200	-1.342684
0.028300	-1.328078
0.028400	-1.356966
0.028500	-1.401433
0.028600	-1.457262
0.028700	-1.475763
0.028800	-1.421233
0.028900	-1.437462
0.029000	-1.445252
0.029100	-1.619553
0.029200	-1.719849
0.029300	-1.759448
0.029400	-1.781844
0.029500	-1.701672
0.029600	-1.706541
0.029700	-1.744517
0.029800	-1.723095
0.029900	-1.728937
0.030000	-1.697453
0.030100	-1.708488
0.030200	-1.718226
0.030300	-1.703295
0.030400	-1.726016
0.030500	-1.709138
0.030600	-1.691286
0.030700	-1.690961
0.030800	-1.727314
0.030900	-1.737376
0.031000	-1.758474
0.031100	-1.807486
0.031200	-1.842216
0.031300	-1.921739
0.031400	-2.160957
0.031500	-2.572853
0.031600	-2.705283
0.031700	-2.497225
0.031800	-2.159983
0.031900	-2.067802
0.032000	-2.317081
0.032100	-2.773121
0.032200	-3.027920
0.032300	-2.983127
0.032400	-2.760787
0.032500	-2.602715
0.032600	-2.703336
0.032700	-2.977285
0.032800	-3.207740
0.032900	-3.265516
0.033000	-3.242795
0.033100	-3.202871
0.033200	-3.287263
0.033300	-3.356399
0.033400	-3.434300
0.033500	-3.467732
0.033600	-3.454749
0.033700	-3.520964
0.033800	-3.588802
0.033900	-3.709548
0.034000	-3.639113
0.034100	-3.603084
0.034200	-3.584583
0.034300	-3.655018
0.034400	-3.729023
0.034500	-3.650473
0.034600	-3.408333
0.034700	-3.320046
0.034800	-3.408333
0.034900	-3.654044
0.035000	-3.880604
0.035100	-3.836785
0.035200	-3.585556
0.035300	-3.364514
0.035400	-3.394051
0.035500	-3.609900
0.035600	-3.848146
0.035700	-3.903001
0.035800	-3.775439
0.035900	-3.609576
0.036000	-3.548229
0.036100	-3.548554
0.036200	-3.591399
0.036300	-3.580038
0.036400	-3.548878
0.036500	-3.503761
0.036600	-3.419044
0.036700	-3.325239
0.036800	-3.233382
0.036900	-3.061677
0.037000	-2.935413
0.037100	-2.882182
0.037200	-2.845828
0.037300	-2.820511
0.037400	-2.593627
0.037500	-2.386867
0.037600	-2.140833
0.037700	-1.977892
0.037800	-1.956145
0.037900	-1.845787
0.038000	-1.722445
0.038100	-1.543600
0.038200	-1.338464
0.038300	-1.186235
0.038400	-1.148259
0.038500	-1.052507
0.038600	-1.078474
0.038700	-0.997653
0.038800	-1.026865
0.038900	-1.002197
0.039000	-0.949290
0.039100	-0.931114
0.039200	-0.867171
0.039300	-0.909367
0.039400	-0.972660
0.039500	-0.988889
0.039600	-0.923324
0.039700	-0.800956
0.039800	-0.455277
0.039900	-0.229043
0.040000	-0.275783
0.040100	-0.887944
0.040200	-0.932087
0.040300	-0.789271
0.040400	-0.427038
0.040500	-0.391659
0.040600	-0.286819
0.040700	-0.550379
0.040800	-0.682484
0.040900	-0.650026
0.041000	-0.470532
0.041100	-0.225148
0.041200	-0.238456
0.041300	-0.319277
0.041400	-0.403344
0.041500	-0.387764
0.041600	-0.486436
0.041700	-0.433205
0.041800	-0.468584
0.041900	-0.501043
0.042000	-0.477024
0.042100	-0.408212
0.042200	-0.514026
0.042300	-0.745453
0.042400	-0.751295
0.042500	-0.799009
0.042600	-0.783429
0.042700	-0.730197
0.042800	-0.648727
0.042900	-0.819133
0.043000	-1.170655
0.043100	-1.178445
0.043200	-1.073605
0.043300	-0.741558
0.043400	-0.710398
0.043500	-0.869768
0.043600	-1.194999
0.043700	-1.349500
0.043800	-1.276145
0.043900	-1.051534
0.044000	-0.923324
0.044100	-1.062894
0.044200	-1.244011
0.044300	-1.334245
0.044400	-1.327104
0.044500	-1.315094
0.044600	-1.271600
0.044700	-1.394293
0.044800	-1.474140
0.044900	-1.498808
0.045000	-1.484851
0.045100	-1.510168
0.045200	-1.598130
0.045300	-1.611763
0.045400	-1.589042
0.045500	-1.550417
0.045600	-1.541328
0.045700	-1.582875
0.045800	-1.775677
0.045900	-1.859095
0.046000	-1.853577
0.046100	-1.834102
0.046200	-1.724068
0.046300	-1.772107
0.046400	-1.772756
0.046500	-1.736727
0.046600	-1.726990
0.046700	-1.716928
0.046800	-1.724068
0.046900	-1.731858
0.047000	-1.722445
0.047100	-1.723419
0.047200	-1.741596
0.047300	-1.732183
0.047400	-1.729586
0.047500	-1.716928
0.047600	-1.749710
0.047700	-1.804240
0.047800	-1.842541
0.047900	-1.901940
0.048000	-1.938618
0.048100	-2.180107
0.048200	-2.533254
0.048300	-2.580643
0.048400	-2.348241
0.048500	-2.135964
0.048600	-2.122981
0.048700	-2.502743
0.048800	-2.851022
0.048900	-3.026622
0.049000	-2.825704
0.049100	-2.636796
0.049200	-2.604013
0.049300	-2.835766
0.049400	-3.084073
0.049500	-3.247339
0.049600	-3.176904
0.049700	-3.075634
0.049800	-3.096732
0.049900	-3.168789
0.050000	-3.243444
0.050100	-3.264867
0.050200	-3.285640
0.050300	-3.274604
0.050400	-3.336924
0.050500	-3.463188
0.050600	-3.492076
0.050700	-3.479417
0.050800	-3.462539
0.050900	-3.519016
0.051000	-3.610874
0.051100	-3.647877
0.051200	-3.590750
0.051300	-3.352180
0.051400	-3.335626
0.051500	-3.451827
0.051600	-3.725453
0.051700	-3.914361
0.051800	-3.787124
0.051900	-3.555370
0.052000	-3.383340
0.052100	-3.464811
0.052200	-3.740059
0.052300	-3.970190
0.052400	-3.963049
0.052500	-3.770895
0.052600	-3.608926
0.052700	-3.581012
0.052800	-3.606654
0.052900	-3.651447
0.053000	-3.640411
0.053100	-3.590750
0.053200	-3.527780
0.053300	-3.447932
0.053400	-3.362566
0.053500	-3.208064
0.053600	-3.004550
0.053700	-2.899709
0.053800	-2.848100
0.053900	-2.812396
0.054000	-2.727680
0.054100	-2.460547
0.054200	-2.277807
0.054300	-1.920116
0.054400	-1.886684
0.054500	-1.826312
0.054600	-1.719524
0.054700	-1.608192
0.054800	-1.451744
0.054900	-1.283610
0.055000	-1.175849
0.055100	-1.145338
0.055200	-1.185262
0.055300	-1.156698
0.055400	-1.158321
0.055500	-1.193051
0.055600	-1.135276
0.055700	-1.106063
0.055800	-1.031085
0.055900	-1.141118
0.056000	-1.041796
0.056100	-1.205710
0.056200	-1.127161
0.056300	-1.182016
0.056400	-0.873338
0.056500	-0.586732
0.056600	-0.456250
0.056700	-0.601663
0.056800	-1.191429
0.056900	-1.129109
0.057000	-1.026541
0.057100	-0.549405
0.057200	-0.423468
0.057300	-0.582188
0.057400	-0.716240
0.057500	-0.968116
0.057600	-0.721758
0.057700	-0.631849
0.057800	-0.340375
0.057900	-0.398475
0.058000	-0.447162
0.058100	-0.553949
0.058200	-0.563038
0.058300	-0.547458
0.058400	-0.495849
0.058500	-0.489358
0.058600	-0.512728
0.058700	-0.508183
0.058800	-0.508183
0.058900	-0.659763
0.059000	-0.708450
0.059100	-0.786026
0.059200	-0.849644
0.059300	-0.821730
0.059400	-0.711696
0.059500	-0.815563
0.059600	-0.987916
0.059700	-1.314770
0.059800	-1.295295
0.059900	-1.181367
0.060000	-0.806799
0.060100	-0.892164
0.060200	-1.108660
0.060300	-1.439085
0.060400	-1.486149
0.060500	-1.336841
0.060600	-1.071658
0.060700	-0.995706
0.060800	-1.153452
0.060900	-1.348851
0.061000	-1.373844
0.061100	-1.349500
0.061200	-1.268355
0.061300	-1.251152
0.061400	-1.312173
0.061500	-1.405977
0.061600	-1.415715
0.061700	-1.373195
0.061800	-1.416364
0.061900	-1.473491
0.062000	-1.516985
0.062100	-1.495887
0.062200	-1.489720
0.062300	-1.487123
0.062400	-1.619877
0.062500	-1.780221
0.062600	-1.851954
0.062700	-1.856498
0.062800	-1.808460
0.062900	-1.753605
0.063000	-1.801968
0.063100	-1.801644
0.063200	-1.767887
0.063300	-1.739648
0.063400	-1.763018
0.063500	-1.733157
0.063600	-1.724393
0.063700	-1.702646
0.063800	-1.691935
0.063900	-1.712059
0.064000	-1.697453
0.064100	-1.715305
0.064200	-1.703620
0.064300	-1.739648
0.064400	-1.734130
0.064500	-1.811706
0.064600	-1.768212
0.064700	-1.897396
0.064800	-2.280404
0.064900	-2.559870
0.065000	-2.487812
0.065100	-2.165501
0.065200	-1.989253
0.065300	-2.101234
0.065400	-2.506638
0.065500	-2.849074
0.065600	-2.887700
0.065700	-2.674123
0.065800	-2.489760
0.065900	-2.512481
0.066000	-2.741312
0.066100	-2.987996
0.066200	-3.117505
0.066300	-3.078555
0.066400	-3.070116
0.066500	-3.052588
0.066600	-3.081476
0.066700	-3.172035
0.066800	-3.182747
0.066900	-3.220074
0.067000	-3.212284
0.067100	-3.248637
0.067200	-3.289210
0.067300	-3.352829
0.067400	-3.302194
0.067500	-3.341793
0.067600	-3.405736
0.067700	-3.499217
0.067800	-3.494673
0.067900	-3.322643
0.068000	-3.145095
0.068100	-3.151587
0.068200	-3.308685
0.068300	-3.551799
0.068400	-3.659237
0.068500	-3.457021
0.068600	-3.167167
0.068700	-3.058106
0.068800	-3.197353
0.068900	-3.503761
0.069000	-3.682932
0.069100	-3.636516
0.069200	-3.455073
0.069300	-3.316475
0.069400	-3.321669
0.069500	-3.395674
0.069600	-3.441765
0.069700	-3.447932
0.069800	-3.420667
0.069900	-3.349908
0.070000	-3.274604
0.070100	-3.221048
0.070200	-3.080827
0.070300	-2.950993
0.070400	-2.864329
0.070500	-2.840635
0.070600	-2.816940
0.070700	-2.705283
0.070800	-2.447889
0.070900	-2.320976
0.071000	-1.962637
0.071100	-1.965883
0.071200	-1.894474
0.071300	-1.805863
0.071400	-1.679925
0.071500	-1.539705
0.071600	-1.339438
0.071700	-1.265758
0.071800	-1.156374
0.071900	-1.256670
0.072000	-1.198894
0.072100	-1.234598
0.072200	-1.199543
0.072300	-1.176498
0.072400	-1.100221
0.072500	-1.073930
0.072600	-1.133978
0.072700	-1.059648
0.072800	-1.214799
0.072900	-1.089185
0.073000	-1.169032
0.073100	-0.806150
0.073200	-0.503964
0.073300	-0.393281
0.073400	-0.788947
0.073500	-1.239142
0.073600	-1.052832
0.073700	-0.794140
0.073800	-0.460794
0.073900	-0.345893
0.074000	-0.537720
0.074100	-0.766226
0.074200	-0.934360
0.074300	-0.698064
0.074400	-0.553949
0.074500	-0.357577
0.074600	-0.410809
0.074700	-0.391983
0.074800	-0.451057
0.074900	-0.427687
0.075000	-0.404317
0.075100	-0.375429
0.075200	-0.374456
0.075300	-0.325768
0.075400	-0.354007
0.075500	-0.297205
0.075600	-0.489682
0.075700	-0.473129
0.075800	-0.521491
0.075900	-0.513377
0.076000	-0.418599
0.076100	-0.409511
0.076200	-0.428985
0.076300	-0.728899
0.076400	-0.982398
0.076500	-0.916183
0.076600	-0.729224
0.076700	-0.449759
0.076800	-0.563362
0.076900	-0.812966
0.077000	-1.133328
0.077100	-1.090808
0.077200	-0.939553
0.077300	-0.696116
0.077400	-0.697739
0.077500	-0.843152
0.077600	-1.003820
0.077700	-1.001223
0.077800	-1.023620
0.077900	-0.984021
0.078000	-1.040173
0.078100	-1.133328
0.078200	-1.168383
0.078300	-1.175199
0.078400	-1.190779
0.078500	-1.270627
0.078600	-1.315744
0.078700	-1.320288
0.078800	-1.280364
0.078900	-1.262188
0.079000	-1.259591
0.079100	-1.426751
0.079200	-1.520555
0.079300	-1.554961
0.079400	-1.573462
0.079500	-1.467973
0.079600	-1.505300
0.079700	-1.517958
0.079800	-1.505624
0.079900	-1.543925
0.080000	-1.517309
0.080100	-1.544574
0.080200	-1.528994
0.080300	-1.535486
0.080400	-1.512765
0.080500	-1.551066
0.080600	-1.572164
0.080700	-1.568918
0.080800	-1.574760
0.080900	-1.602674
0.081000	-1.652660
0.081100	-1.647467
0.081200	-1.742894
0.081300	-1.765940
0.081400	-2.014245
0.081500	-2.369664
0.081600	-2.546562
0.081700	-2.414132
0.081800	-2.051248
0.081900	-2.001587
0.082000	-2.168747
0.082100	-2.662114
0.082200	-2.925351
0.082300	-2.889972
0.082400	-2.684510
0.082500	-2.530008
0.082600	-2.618295
0.082700	-2.822458
0.082800	-3.071090
0.082900	-3.138603
0.083000	-3.125620
0.083100	-3.074335
0.083200	-3.104846
0.083300	-3.130813
0.083400	-3.212933
0.083500	-3.247014
0.083600	-3.256752
0.083700	-3.268112
0.083800	-3.314528
0.083900	-3.402490
0.084000	-3.361917
0.084100	-3.336600
0.084200	-3.308685
0.084300	-3.369707
0.084400	-3.466758
0.084500	-3.424562
0.084600	-3.278174
0.084700	-3.073686
0.084800	-3.202871
0.084900	-3.399569
0.085000	-3.650473
0.085100	-3.676116
0.085200	-3.436896
0.085300	-3.172035
0.085400	-3.149964
0.085500	-3.335951
0.085600	-3.617041
0.085700	-3.720908
0.085800	-3.605681
0.085900	-3.453450
0.086000	-3.392753
0.086100	-3.418720
0.086200	-3.440142
0.086300	-3.449555
0.086400	-3.444362
0.086500	-3.404113
0.086600	-3.352504
0.086700	-3.264542
0.086800	-3.168465
0.086900	-2.977934
0.087000	-2.833169
0.087100	-2.790649
0.087200	-2.762086
0.087300	-2.725408
0.087400	-2.583240
0.087500	-2.317406
0.087600	-2.116489
0.087700	-1.912976
0.087800	-1.893501
0.087900	-1.823066
0.088000	-1.730885
0.088100	-1.588717
0.088200	-1.443954
0.088300	-1.246283
0.088400	-1.210904
0.088500	-1.164488
0.088600	-1.170331
0.088700	-1.155075
0.088800	-1.160593
0.088900	-1.147935
0.089000	-1.072307
0.089100	-1.020374
0.089200	-0.998302
0.089300	-0.997978
0.089400	-1.069386
0.089500	-1.121643
0.089600	-1.123591
0.089700	-0.999601
0.089800	-0.640937
0.089900	-0.425415
0.090000	-0.385816
0.090100	-0.993109
0.090200	-1.103142
0.090300	-1.104441
0.090400	-0.632823
0.090500	-0.432231
0.090600	-0.422169
0.090700	-0.555897
0.090800	-0.798684
0.090900	-0.780508
0.091000	-0.664307
0.091100	-0.440670
0.091200	-0.354981
0.091300	-0.415678
0.091400	-0.428661
0.091500	-0.447487
0.091600	-0.459821
0.091700	-0.428661
0.091800	-0.417625
0.091900	-0.425415
0.092000	-0.400747
0.092100	-0.381272
0.092200	-0.395229
0.092300	-0.441320
0.092400	-0.586083
0.092500	-0.649052
0.092600	-0.702608
0.092700	-0.528308
0.092800	-0.612050
0.092900	-0.611076
0.093000	-1.036278
0.093100	-1.068412
0.093200	-1.003496
0.093300	-0.724030
0.093400	-0.600040
0.093500	-0.777262
0.093600	-1.083343
0.093700	-1.261214
0.093800	-1.194025
0.093900	-1.045042
0.094000	-0.880154
0.094100	-0.969739
0.094200	-1.113529
0.094300	-1.215772
0.094400	-1.193051
0.094500	-1.251152
0.094600	-1.223238
0.094700	-1.318016
0.094800	-1.386827
0.094900	-1.455639
0.095000	-1.428698
0.095100	-1.456288
0.095200	-1.539381
0.095300	-1.624422
0.095400	-1.641624
0.095500	-1.605920
0.095600	-1.586121
0.095700	-1.602674
0.095800	-1.807811
0.095900	-1.876622
0.096000	-1.887333
0.096100	-1.856174
0.096200	-1.699725
0.096300	-1.748412
0.096400	-1.740622
0.096500	-1.702646
0.096600	-1.702970
0.096700	-1.684794
0.096800	-1.663696
0.096900	-1.672784
0.097000	-1.658178
0.097100	-1.666942
0.097200	-1.661099
0.097300	-1.649090
0.097400	-1.691610
0.097500	-1.671811
0.097600	-1.720498
0.097700	-1.705892
0.097800	-1.782818
0.097900	-1.809758
0.098000	-1.905510
0.098100	-2.151219
0.098200	-2.506963
0.098300	-2.588758
0.098400	-2.363497
0.098500	-2.079162
0.098600	-2.007754
0.098700	-2.339153
0.098800	-2.792272
0.098900	-2.974039
0.099000	-2.898086
0.099100	-2.708854
0.099200	-2.622190
0.099300	-2.777341
0.099400	-3.031490
0.099500	-3.186966
0.099600	-3.178527
0.099700	-3.137629
0.099800	-3.108741
0.099900	-3.220074
0.100000	-3.240847
0.100100	-3.287587
0.100200	-3.280447
0.100300	-3.280122
0.100400	-3.312580
0.100500	-3.432677
0.100600	-3.480391
0.100700	-3.447932
0.100800	-3.343091
0.100900	-3.407684
0.101000	-3.448581
0.101100	-3.472925
0.101200	-3.389832
0.101300	-3.095433
0.101400	-3.015910
0.101500	-3.128541
0.101600	-3.379445
0.101700	-3.563160
0.101800	-3.464811
0.101900	-3.218451
0.102000	-3.028244
0.102100	-3.105820
0.102200	-3.331731
0.102300	-3.570301
0.102400	-3.614444
0.102500	-3.471627
0.102600	-3.330108
0.102700	-3.312905
0.102800	-3.328810
0.102900	-3.382042
0.103000	-3.386261
0.103100	-3.364839
0.103200	-3.305764
0.103300	-3.247988
0.103400	-3.185992
0.103500	-3.012664
0.103600	-2.857189
0.103700	-2.729303
0.103800	-2.725732
0.103900	-2.698467
0.104000	-2.682238
0.104100	-2.484567
0.104200	-2.298905
0.104300	-2.219057
0.104400	-1.946732
0.104500	-1.943162
0.104600	-1.874675
0.104700	-1.733806
0.104800	-1.574760
0.104900	-1.392670
0.105000	-1.282961
0.105100	-1.242063
0.105200	-1.207333
0.105300	-1.156698
0.105400	-1.150207
0.105500	-1.150531
0.105600	-1.196297
0.105700	-1.058674
0.105800	-1.067114
0.105900	-1.020698
0.106000	-1.027515
0.106100	-1.067763
0.106200	-1.095677
0.106300	-1.060947
0.106400	-0.869443
0.106500	-0.551677
0.106600	-0.252413
0.106700	-0.461768
0.106800	-0.917481
0.106900	-0.989538
0.107000	-0.819133
0.107100	-0.450083
0.107200	-0.367964
0.107300	-0.352060
0.107400	-0.589653
0.107500	-0.757138
0.107600	-0.672422
0.107700	-0.496823
0.107800	-0.246895
0.107900	-0.319601
0.108000	-0.343296
0.108100	-0.405291
0.108200	-0.443267
0.108300	-0.386790
0.108400	-0.364394
0.108500	-0.379324
0.108600	-0.398799
0.108700	-0.379324
0.108800	-0.381272
0.108900	-0.408861
0.109000	-0.629252
0.109100	-0.554923
0.109200	-0.716890
0.109300	-0.598742
0.109400	-0.622112
0.109500	-0.585759
0.109600	-0.765252
0.109700	-1.132355
0.109800	-1.109958
0.109900	-1.068087
0.110000	-0.738637
0.110100	-0.730847
0.110200	-0.934684
0.110300	-1.272250
0.110400	-1.368001
0.110500	-1.300813
0.110600	-1.049911
0.110700	-0.944422
0.110800	-1.085615
0.110900	-1.296269
0.111000	-1.378388
0.111100	-1.340736
0.111200	-1.320612
0.111300	-1.316393
0.111400	-1.441032
0.111500	-1.507572
0.111600	-1.579305
0.111700	-1.529643
0.111800	-1.516660
0.111900	-1.592937
0.112000	-1.606569
0.112100	-1.603648
0.112200	-1.546522
0.112300	-1.513414
0.112400	-1.610789
0.112500	-1.794827
0.112600	-1.837997
0.112700	-1.815601
0.112800	-1.597157
0.112900	-1.608517
0.113000	-1.643572
0.113100	-1.631238
0.113200	-1.585147
0.113300	-1.542302
0.113400	-1.529643
0.113500	-1.530617
0.113600	-1.506923
0.113700	-1.520555
0.113800	-1.510168
0.113900	-1.578006
0.114000	-1.568593
0.114100	-1.615658
0.114200	-1.634484
0.114300	-1.657204
0.114400	-1.665643
0.114500	-1.748412
0.114600	-1.827610
0.114700	-1.924661
0.114800	-2.289816
0.114900	-2.651078
0.115000	-2.611154
0.115100	-2.287544
0.115200	-2.091821
0.115300	-2.119735
0.115400	-2.520920
0.115500	-2.944177
0.115600	-3.056808
0.115700	-2.865952
0.115800	-2.603040
0.115900	-2.612452
0.116000	-2.786105
0.116100	-3.063624
0.116200	-3.179176
0.116300	-3.135033
0.116400	-3.111013
0.116500	-3.076608
0.116600	-3.152560
0.116700	-3.224943
0.116800	-3.274279
0.116900	-3.289535
0.117000	-3.302518
0.117100	-3.364839
0.117200	-3.475847
0.117300	-3.455073
0.117400	-3.477794
0.117500	-3.463512
0.117600	-3.522911
0.117700	-3.594969
0.117800	-3.661185
0.117900	-3.518043
0.118000	-3.327511
0.118100	-3.352829
0.118200	-3.511876
0.118300	-3.757587
0.118400	-3.959154
0.118500	-3.798484
0.118600	-3.535570
0.118700	-3.395025
0.118800	-3.522262
0.118900	-3.817635
0.119000	-4.004272
0.119100	-3.982849
0.119200	-3.786799
0.119300	-3.597891
0.119400	-3.554396
0.119500	-3.609251
0.119600	-3.660536
0.119700	-3.642359
0.119800	-3.587828
0.119900	-3.505708
0.120000	-3.406710
0.120100	-3.282069
0.120200	-3.065572
0.120300	-2.871795
0.120400	-2.752348
0.120500	-2.706582
0.120600	-2.637121
0.120700	-2.540719
0.120800	-2.270666
0.120900	-2.129797
0.121000	-1.890904
0.121100	-1.777300
0.121200	-1.692584
0.121300	-1.609166
0.121400	-1.501405
0.121500	-1.361185
0.121600	-1.166760
0.121700	-1.099247
0.121800	-1.020049
0.121900	-1.053481
0.122000	-1.031734
0.122100	-1.027839
0.122200	-1.048937
0.122300	-0.969739
0.122400	-0.998627
0.122500	-0.923973
0.122600	-1.029137
0.122700	-0.950589
0.122800	-1.117424
0.122900	-1.009338
0.123000	-1.077500
0.123100	-0.755515
0.123200	-0.474752
0.123300	-0.308890
0.123400	-0.665281
0.123500	-1.132355
0.123600	-1.100546
0.123700	-0.712670
0.123800	-0.527983
0.123900	-0.303372
0.124000	-0.450408
0.124100	-0.692871
0.124200	-0.828221
0.124300	-0.685081
0.124400	-0.452355
0.124500	-0.313110
0.124600	-0.257606
0.124700	-0.353683
0.124800	-0.347191
0.124900	-0.372833
0.125000	-0.336804
0.125100	-0.333558
0.125200	-0.334208
0.125300	-0.326418
0.125400	-0.320900
0.125500	-0.323496
0.125600	-0.426064
0.125700	-0.572775
0.125800	-0.616918
0.125900	-0.678589
0.126000	-0.574074
0.126100	-0.634121
0.126200	-0.672422
0.126300	-0.926894
0.126400	-1.196946
0.126500	-1.187209
0.126600	-1.060622
0.126700	-0.833090
0.126800	-0.922675
0.126900	-1.178121
0.127000	-1.517309
0.127100	-1.548794
0.127200	-1.425128
0.127300	-1.197271
0.127400	-1.156698
0.127500	-1.326130
0.127600	-1.508870
0.127700	-1.507896
0.127800	-1.493290
0.127900	-1.433242
0.128000	-1.457586
0.128100	-1.508546
0.128200	-1.573137
0.128300	-1.583849
0.128400	-1.546197
0.128500	-1.578980
0.128600	-1.631562
0.128700	-1.609166
0.128800	-1.560803
0.128900	-1.551066
0.129000	-1.518932
0.129100	-1.644546
0.129200	-1.772756
0.129300	-1.769510
0.129400	-1.719200
0.129500	-1.565997
0.129600	-1.643572
0.129700	-1.674083
0.129800	-1.646169
0.129900	-1.639677
0.130000	-1.642923
0.130100	-1.650388
0.130200	-1.667916
0.130300	-1.666293
0.130400	-1.684794
0.130500	-1.680899
0.130600	-1.700049
0.130700	-1.700698
0.130800	-1.711734
0.130900	-1.715629
0.131000	-1.744517
0.131100	-1.752632
0.131200	-1.772756
0.131300	-1.787362
0.131400	-1.928880
0.131500	-2.269043
0.131600	-2.541044
0.131700	-2.380700
0.131800	-2.069425
0.131900	-1.839620
0.132000	-2.016193
0.132100	-2.492357
0.132200	-2.751374
0.132300	-2.740338
0.132400	-2.493330
0.132500	-2.373559
0.132600	-2.397254
0.132700	-2.663087
0.132800	-2.879585
0.132900	-2.964626
0.133000	-2.917886
0.133100	-2.872769
0.133200	-2.920158
0.133300	-2.938659
0.133400	-3.022727
0.133500	-3.086670
0.133600	-3.124321
0.133700	-3.129190
0.133800	-3.213582
0.133900	-3.331731
0.134000	-3.306089
0.134100	-3.316800
0.134200	-3.350881
0.134300	-3.389507
0.134400	-3.493699
0.134500	-3.495646
0.134600	-3.340819
0.134700	-3.150937
0.134800	-3.259349
0.134900	-3.460591
0.135000	-3.727725
0.135100	-3.805950
0.135200	-3.584583
0.135300	-3.330433
0.135400	-3.277850
0.135500	-3.461889
0.135600	-3.739085
0.135700	-3.900729
0.135800	-3.799783
0.135900	-3.622559
0.136000	-3.512525
0.136100	-3.523885
0.136200	-3.575819
0.136300	-3.629700
0.136400	-3.605356
0.136500	-3.583284
0.136600	-3.510902
0.136700	-3.441116
0.136800	-3.309335
0.136900	-3.105171
0.137000	-2.960731
0.137100	-2.932492
0.137200	-2.905876
0.137300	-2.873093
0.137400	-2.728004
0.137500	-2.480996
0.137600	-2.415430
0.137700	-2.103181
0.137800	-2.111296
0.137900	-2.017167
0.138000	-1.940890
0.138100	-1.775028
0.138200	-1.634808
0.138300	-1.431295
0.138400	-1.388775
0.138500	-1.331648
0.138600	-1.380011
0.138700	-1.355667
0.138800	-1.331324
0.138900	-1.345605
0.139000	-1.241090
0.139100	-1.234598
0.139200	-1.231677
0.139300	-1.315419
0.139400	-1.292698
0.139500	-1.426426
0.139600	-1.389099
0.139700	-1.352097
0.139800	-1.047963
0.139900	-0.763305
0.140000	-0.779534
0.140100	-1.323534
0.140200	-1.653634
0.140300	-1.514713
0.140400	-1.161892
0.140500	-0.889243
0.140600	-0.807448
0.140700	-0.988565
0.140800	-1.193701
0.140900	-1.252775
0.141000	-1.021997
0.141100	-0.758761
0.141200	-0.642885
0.141300	-0.618541
0.141400	-0.676966
0.141500	-0.714293
0.141600	-0.658140
0.141700	-0.593873
0.141800	-0.565310
0.141900	-0.508183
0.142000	-0.501367
0.142100	-0.432556
0.142200	-0.572775
0.142300	-0.614646
0.142400	-0.743505
0.142500	-0.756813
0.142600	-0.890541
0.142700	-0.764603
0.142800	-0.815238
0.142900	-0.786675
0.143000	-1.204087
0.143100	-1.299839
0.143200	-1.234273
0.143300	-0.992784
0.143400	-0.741558
0.143500	-0.927219
0.143600	-1.147285
0.143700	-1.361185
0.143800	-1.303734
0.143900	-1.128460
0.144000	-0.907744
0.144100	-0.969414
0.144200	-1.125214
0.144300	-1.284259
0.144400	-1.210579
0.144500	-1.247257
0.144600	-1.194350
0.144700	-1.256994
0.144800	-1.278092
0.144900	-1.272250
0.145000	-1.250503
0.145100	-1.289452
0.145200	-1.356316
0.145300	-1.430321
0.145400	-1.430321
0.145500	-1.400135
0.145600	-1.390398
0.145700	-1.422207
0.145800	-1.585796
0.145900	-1.696803
0.146000	-1.739648
0.146100	-1.745815
0.146200	-1.710760
0.146300	-1.729262
0.146400	-1.734130
0.146500	-1.738025
0.146600	-1.731534
0.146700	-1.736727
0.146800	-1.729911
0.146900	-1.701672
0.147000	-1.694531
0.147100	-1.689987
0.147200	-1.677978
0.147300	-1.667266
0.147400	-1.672784
0.147500	-1.685118
0.147600	-1.668889
0.147700	-1.682522
0.147800	-1.692908
0.147900	-1.722121
0.148000	-1.756527
0.148100	-1.999964
0.148200	-2.382647
0.148300	-2.417378
0.148400	-2.234962
0.148500	-1.866236
0.148600	-1.750035
0.148700	-2.029176
0.148800	-2.435230
0.148900	-2.629331
0.149000	-2.521244
0.149100	-2.278131
0.149200	-2.121033
0.149300	-2.319029
0.149400	-2.498848
0.149500	-2.730276
0.149600	-2.796816
0.149700	-2.697169
0.149800	-2.652701
0.149900	-2.712749
0.150000	-2.787728
0.150100	-2.845504
0.150200	-2.898411
0.150300	-2.928922
0.150400	-2.972416
0.150500	-3.065896
0.150600	-3.171386
0.150700	-3.169763
0.150800	-3.173334
0.150900	-3.188914
0.151000	-3.308685
0.151100	-3.336600
0.151200	-3.303492
0.151300	-3.080503
0.151400	-3.045772
0.151500	-3.188265
0.151600	-3.444362
0.151700	-3.713118
0.151800	-3.654368
0.151900	-3.395350
0.152000	-3.163596
0.152100	-3.193782
0.152200	-3.421316
0.152300	-3.685529
0.152400	-3.744603
0.152500	-3.603409
0.152600	-3.440467
0.152700	-3.374252
0.152800	-3.401192
0.152900	-3.431054
0.153000	-3.419044
0.153100	-3.393402
0.153200	-3.357698
0.153300	-3.282394
0.153400	-3.221697
0.153500	-3.050316
0.153600	-2.848749
0.153700	-2.703336
0.153800	-2.689703
0.153900	-2.656596
0.154000	-2.640691
0.154100	-2.463144
0.154200	-2.251516
0.154300	-2.108699
0.154400	-1.836699
0.154500	-1.861691
0.154600	-1.802293
0.154700	-1.721472
0.154800	-1.570216
0.154900	-1.421557
0.155000	-1.282636
0.155100	-1.249853
0.155200	-1.206684
0.155300	-1.252125
0.155400	-1.165787
0.155500	-1.193376
0.155600	-1.121643
0.155700	-1.048937
0.155800	-0.991486
0.155900	-0.945720
0.156000	-1.021997
0.156100	-0.957080
0.156200	-1.052832
0.156300	-0.974608
0.156400	-0.845749
0.156500	-0.386790
0.156600	-0.293959
0.156700	-0.346866
0.156800	-0.959352
0.156900	-0.999925
0.157000	-0.887620
0.157100	-0.500718
0.157200	-0.254036
0.157300	-0.325768
0.157400	-0.541615
0.157500	-0.788622
0.157600	-0.794789
0.157700	-0.613673
0.157800	-0.397501
0.157900	-0.350112
0.158000	-0.425415
0.158100	-0.432556
0.158200	-0.508183
0.158300	-0.472155
0.158400	-0.453654
0.158500	-0.428012
0.158600	-0.482866
0.158700	-0.458847
0.158800	-0.507534
0.158900	-0.594847
0.159000	-0.765577
0.159100	-0.717863
0.159200	-0.849644
0.159300	-0.817185
0.159400	-0.752269
0.159500	-0.663983
0.159600	-0.879505
0.159700	-1.228756
0.159800	-1.238818
0.159900	-1.144689
0.160000	-0.818484
0.160100	-0.795438
0.160200	-0.893462
0.160300	-1.233624
0.160400	-1.336517
0.160500	-1.254398
0.160600	-1.047963
0.160700	-0.894111
0.160800	-1.020374
0.160900	-1.184288
0.161000	-1.247257
0.161100	-1.202464
0.161200	-1.218044
0.161300	-1.205061
0.161400	-1.285233
0.161500	-1.317367
0.161600	-1.363133
0.161700	-1.360536
0.161800	-1.384230
0.161900	-1.439085
0.162000	-1.465051
0.162100	-1.383906
0.162200	-1.265433
0.162300	-1.248555
0.162400	-1.294970
0.162500	-1.507247
0.162600	-1.583524
0.162700	-1.603648
0.162800	-1.626369
0.162900	-1.521529
0.163000	-1.580278
0.163100	-1.601701
0.163200	-1.613386
0.163300	-1.617930
0.163400	-1.622149
0.163500	-1.619228
0.163600	-1.659476
0.163700	-1.634159
0.163800	-1.646169
0.163900	-1.641624
0.164000	-1.653959
0.164100	-1.678302
0.164200	-1.693882
0.164300	-1.714006
0.164400	-1.762045
0.164500	-1.763343
0.164600	-1.864937
0.164700	-1.862665
0.164800	-2.241454
0.164900	-2.530982
0.165000	-2.677045
0.165100	-2.394981
0.165200	-2.183353
0.165300	-2.183678
0.165400	-2.551431
0.165500	-3.015586
0.165600	-3.157104
0.165700	-3.026622
0.165800	-2.779288
0.165900	-2.756243
0.166000	-2.944177
0.166100	-3.228838
0.166200	-3.352504
0.166300	-3.308361
0.166400	-3.259998
0.166500	-3.205143
0.166600	-3.269086
0.166700	-3.333029
0.166800	-3.378796
0.166900	-3.361593
0.167000	-3.338872
0.167100	-3.406061
0.167200	-3.455073
0.167300	-3.512849
0.167400	-3.424887
0.167500	-3.408658
0.167600	-3.445336
0.167700	-3.528754
0.167800	-3.576468
0.167900	-3.494997
0.168000	-3.249286
0.168100	-3.244742
0.168200	-3.441441
0.168300	-3.748823
0.168400	-3.964997
0.168500	-3.873464
0.168600	-3.669948
0.168700	-3.533947
0.168800	-3.678712
0.168900	-3.987393
0.169000	-4.259721
0.169100	-4.302566
0.169200	-4.143194
0.169300	-4.004596
0.169400	-3.956882
0.169500	-3.999078
0.169600	-4.053284
0.169700	-4.028616
0.169800	-3.983498
0.169900	-3.886772
0.170000	-3.805950
0.170100	-3.725453
0.170200	-3.561537
0.170300	-3.383340
0.170400	-3.250585
0.170500	-3.200599
0.170600	-3.174632
0.170700	-3.086020
0.170800	-2.841609
0.170900	-2.685808
0.171000	-2.352786
0.171100	-2.260604
0.171200	-2.167773
0.171300	-2.096040
0.171400	-1.938293
0.171500	-1.771457
0.171600	-1.541004
0.171700	-1.421882
0.171800	-1.323858
0.171900	-1.221615
0.172000	-1.211553
0.172100	-1.115801
0.172200	-1.151830
0.172300	-1.007715
0.172400	-0.974608
0.172500	-0.842827
0.172600	-0.933710
0.172700	-0.823352
0.172800	-0.908068
0.172900	-0.856460
0.173000	-0.817510
0.173100	-0.545835
0.173200	-0.194313
0.173300	-0.043707
0.173400	-0.242026
0.173500	-0.760059
0.173600	-0.761682
0.173700	-0.518245
0.173800	-0.218981
0.173900	0.014069
0.174000	-0.075516
0.174100	-0.319601
0.174200	-0.465014
0.174300	-0.382895
0.174400	-0.189769
0.174500	0.002384
0.174600	0.003682
0.174700	-0.147898
0.174800	-0.144652
0.174900	-0.177435
0.175000	-0.171268
0.175100	-0.190093
0.175200	-0.171268
0.175300	-0.245921
0.175400	-0.248193
0.175500	-0.313110
0.175600	-0.422818
0.175700	-0.557520
0.175800	-0.634770
0.175900	-0.724680
0.176000	-0.691248
0.176100	-0.740584
0.176200	-0.675019
0.176300	-0.982722
0.176400	-1.237195
0.176500	-1.248555
0.176600	-1.111906
0.176700	-0.893138
0.176800	-0.933386
0.176900	-1.160593
0.177000	-1.444603
0.177100	-1.566321
0.177200	-1.449472
0.177300	-1.214474
0.177400	-1.129758
0.177500	-1.276794
0.177600	-1.453367
0.177700	-1.442331
0.177800	-1.437787
0.177900	-1.384880
0.178000	-1.396889
0.178100	-1.487772
0.178200	-1.528994
0.178300	-1.569242
0.178400	-1.491667
0.178500	-1.513090
0.178600	-1.580927
0.178700	-1.581252
0.178800	-1.551715
0.178900	-1.498483
0.179000	-1.434541
0.179100	-1.530293
0.179200	-1.651362
0.179300	-1.663047
0.179400	-1.639028
0.179500	-1.545873
0.179600	-1.513414
0.179700	-1.533863
0.179800	-1.516985
0.179900	-1.531591
0.180000	-1.551066
0.180100	-1.588393
0.180200	-1.592288
0.180300	-1.643247
0.180400	-1.640001
0.180500	-1.680574
0.180600	-1.673433
0.180700	-1.717577
0.180800	-1.698102
0.180900	-1.732832
0.181000	-1.719200
0.181100	-1.787362
0.181200	-1.838971
0.181300	-1.873376
0.181400	-2.011973
0.181500	-2.303449
0.181600	-2.615698
0.181700	-2.474504
0.181800	-2.267096
0.181900	-1.969453
0.182000	-2.125253
0.182100	-2.536175
0.182200	-2.835442
0.182300	-2.887700
0.182400	-2.700090
0.182500	-2.508910
0.182600	-2.555326
0.182700	-2.761761
0.182800	-3.024025
0.182900	-3.125944
0.183000	-3.119777
0.183100	-3.114584
0.183200	-3.127892
0.183300	-3.202871
0.183400	-3.259673
0.183500	-3.302194
0.183600	-3.359645
0.183700	-3.358347
0.183800	-3.451503
0.183900	-3.550177
0.184000	-3.564134
0.184100	-3.490128
0.184200	-3.513498
0.184300	-3.541088
0.184400	-3.573222
0.184500	-3.514472
0.184600	-3.415474
0.184700	-3.196379
0.184800	-3.164894
0.184900	-3.352829
0.185000	-3.601136
0.185100	-3.691047
0.185200	-3.464162
0.185300	-3.212284
0.185400	-3.085047
0.185500	-3.241496
0.185600	-3.492725
0.185700	-3.640411
0.185800	-3.560239
0.185900	-3.383989
0.186000	-3.262919
0.186100	-3.254804
0.186200	-3.316151
0.186300	-3.366786
0.186400	-3.351855
0.186500	-3.326538
0.186600	-3.272981
0.186700	-3.236303
0.186800	-3.183071
0.186900	-3.030517
0.187000	-2.877637
0.187100	-2.828301
0.187200	-2.822458
0.187300	-2.803308
0.187400	-2.709178
0.187500	-2.467688
0.187600	-2.346943
0.187700	-2.046055
0.187800	-2.067477
0.187900	-1.978217
0.188000	-1.903563
0.188100	-1.769510
0.188200	-1.636756
0.188300	-1.420259
0.188400	-1.379362
0.188500	-1.305357
0.188600	-1.324183
0.188700	-1.302760
0.188800	-1.249853
0.188900	-1.313147
0.189000	-1.196622
0.189100	-1.126188
0.189200	-1.111906
0.189300	-1.095352
0.189400	-1.144689
0.189500	-1.052507
0.189600	-1.158321
0.189700	-1.025243
0.189800	-0.762656
0.189900	-0.374780
0.190000	-0.345568
0.190100	-0.756489
0.190200	-1.041796
0.190300	-0.941825
0.190400	-0.481243
0.190500	-0.280002
0.190600	-0.045654
0.190700	-0.305969
0.190800	-0.418599
0.190900	-0.534150
0.191000	-0.384518
0.191100	-0.218007
0.191200	-0.074542
0.191300	-0.075841
0.191400	-0.074542
0.191500	-0.067077
0.191600	-0.117387
0.191700	-0.093368
0.191800	-0.123554
0.191900	-0.154714
0.192000	-0.101483
0.192100	-0.136213
0.192200	-0.136862
0.192300	-0.369587
0.192400	-0.361148
0.192500	-0.471181
0.192600	-0.482541
0.192700	-0.414379
0.192800	-0.432880
0.192900	-0.496823
0.193000	-0.839906
0.193100	-1.031410
0.193200	-0.984994
0.193300	-0.797061
0.193400	-0.640288
0.193500	-0.727601
0.193600	-1.018102
0.193700	-1.246608
0.193800	-1.217395
0.193900	-1.075553
0.194000	-0.894436
0.194100	-0.938579
0.194200	-1.160918
0.194300	-1.299190
0.194400	-1.263810
0.194500	-1.310875
0.194600	-1.305682
0.194700	-1.442980
0.194800	-1.491667
0.194900	-1.565997
0.195000	-1.546197
0.195100	-1.595209
0.195200	-1.651686
0.195300	-1.742245
0.195400	-1.740298
0.195500	-1.709462
0.195600	-1.692584
0.195700	-1.706216
0.195800	-1.875973
0.195900	-1.976269
0.196000	-2.000613
0.196100	-2.015868
0.196200	-1.881491
0.196300	-1.943162
0.196400	-1.940565
0.196500	-1.904212
0.196600	-1.912651
0.196700	-1.905186
0.196800	-1.927582
0.196900	-1.913625
0.197000	-1.913300
0.197100	-1.915897
0.197200	-1.959066
0.197300	-1.950952
0.197400	-1.975945
0.197500	-1.992823
0.197600	-2.015544
0.197700	-2.064556
0.197800	-2.077215
0.197900	-2.172967
0.198000	-2.171993
0.198100	-2.390437
0.198200	-2.677694
0.198300	-2.921132
0.198400	-2.621216
0.198500	-2.344022
0.198600	-2.193415
0.198700	-2.457301
0.198800	-2.889972
0.198900	-3.119453
0.199000	-3.005848
0.199100	-2.736119
0.199200	-2.609856
0.199300	-2.655947
0.199400	-2.913342
0.199500	-3.085371
0.199600	-3.091863
0.199700	-3.060703
0.199800	-2.990268
0.199900	-3.039280
0.200000	-3.087968
0.200100	-3.123348
0.200200	-3.131138
0.200300	-3.130489
0.200400	-3.173334
0.200500	-3.234031
0.200600	-3.277850
0.200700	-3.325239
0.200800	-3.323616
0.200900	-3.280771
0.201000	-3.368084
0.201100	-3.436572
0.201200	-3.457021
0.201300	-3.255454
0.201400	-3.187291
0.201500	-3.270384
0.201600	-3.519990
0.201700	-3.812117
0.201800	-3.797511
0.201900	-3.563160
0.202000	-3.342118
0.202100	-3.378796
0.202200	-3.619638
0.202300	-3.891316
0.202400	-3.970515
0.202500	-3.846523
0.202600	-3.708899
0.202700	-3.661185
0.202800	-3.732918
0.202900	-3.805950
0.203000	-3.763754
0.203100	-3.760183
0.203200	-3.710197
0.203300	-3.658588
0.203400	-3.620612
0.203500	-3.518692
0.203600	-3.328161
0.203700	-3.188589
0.203800	-3.151911
0.203900	-3.133410
0.204000	-3.086994
0.204100	-2.923404
0.204200	-2.710152
0.204300	-2.430686
0.204400	-2.276184
0.204500	-2.256384
0.204600	-2.180432
0.204700	-2.079487
0.204800	-1.906808
0.204900	-1.766264
0.205000	-1.583524
0.205100	-1.567295
0.205200	-1.505949
0.205300	-1.534512
0.205400	-1.461481
0.205500	-1.442331
0.205600	-1.411495
0.205700	-1.300488
0.205800	-1.270627
0.205900	-1.181691
0.206000	-1.216746
0.206100	-1.189157
0.206200	-1.239791
0.206300	-1.183314
0.206400	-1.105739
0.206500	-0.608804
0.206600	-0.494226
0.206700	-0.396527
0.206800	-0.971037
0.206900	-1.079772
0.207000	-0.967467
0.207100	-0.526685
0.207200	-0.279353
0.207300	-0.286494
0.207400	-0.458198
0.207500	-0.696116
0.207600	-0.706828
0.207700	-0.472479
0.207800	-0.287468
0.207900	-0.110895
0.208000	-0.229692
0.208100	-0.256633
0.208200	-0.325119
0.208300	-0.325119
0.208400	-0.296881
0.208500	-0.250141
0.208600	-0.275783
0.208700	-0.264098
0.208800	-0.266045
0.208900	-0.339725
0.209000	-0.493577
0.209100	-0.527983
0.209200	-0.535773
0.209300	-0.626007
0.209400	-0.475076
0.209500	-0.559467
0.209600	-0.532527
0.209700	-1.051858
0.209800	-1.029137
0.209900	-1.021348
0.210000	-0.708775
0.210100	-0.607830
0.210200	-0.761357
0.210300	-1.074904
0.210400	-1.282636
0.210500	-1.212202
0.210600	-0.988565
0.210700	-0.802904
0.210800	-0.904823
0.210900	-1.130083
0.211000	-1.251476
0.211100	-1.240116
0.211200	-1.250827
0.211300	-1.177472
0.211400	-1.286856
0.211500	-1.357290
0.211600	-1.440059
0.211700	-1.417338
0.211800	-1.453042
0.211900	-1.505300
0.212000	-1.551715
0.212100	-1.560479
0.212200	-1.566646
0.212300	-1.564374
0.212400	-1.608842
0.212500	-1.814302
0.212600	-1.910054
0.212700	-1.958093
0.212800	-1.980813
0.212900	-1.868832
0.213000	-1.970427
0.213100	-1.959715
0.213200	-1.974646
0.213300	-1.969778
0.213400	-1.961014
0.213500	-1.964584
0.213600	-1.970102
0.213700	-1.998341
0.213800	-1.995420
0.213900	-1.998665
0.214000	-1.997692
0.214100	-1.965883
0.214200	-1.984384
0.214300	-1.964584
0.214400	-1.998990
0.214500	-1.979840
0.214600	-2.011000
0.214700	-2.089224
0.214800	-2.272938
0.214900	-2.659842
0.215000	-2.708854
0.215100	-2.468986
0.215200	-2.149597
0.215300	-2.127849
0.215400	-2.352461
0.215500	-2.794219
0.215600	-2.937036
0.215700	-2.803957
0.215800	-2.606285
0.215900	-2.490734
0.216000	-2.669904
0.216100	-2.909771
0.216200	-3.119777
0.216300	-3.142823
0.216400	-3.092837
0.216500	-3.046746
0.216600	-3.080503
0.216700	-3.164894
0.216800	-3.229811
0.216900	-3.276552
0.217000	-3.244093
0.217100	-3.311607
0.217200	-3.353154
0.217300	-3.440791
0.217400	-3.375225
0.217500	-3.420992
0.217600	-3.428133
0.217700	-3.499866
0.217800	-3.515446
0.217900	-3.500515
0.218000	-3.286938
0.218100	-3.231434
0.218200	-3.400543
0.218300	-3.670273
0.218400	-3.893588
0.218500	-3.801406
0.218600	-3.565107
0.218700	-3.375874
0.218800	-3.445336
0.218900	-3.689748
0.219000	-3.952338
0.219100	-3.995832
0.219200	-3.854962
0.219300	-3.709223
0.219400	-3.644955
0.219500	-3.655342
0.219600	-3.715715
0.219700	-3.752069
0.219800	-3.716040
0.219900	-3.653070
0.220000	-3.558291
0.220100	-3.466109
0.220200	-3.359970
0.220300	-3.197353
0.220400	-3.079853
0.220500	-3.040579
0.220600	-2.959433
0.220700	-2.906850
0.220800	-2.705608
0.220900	-2.485540
0.221000	-2.171344
0.221100	-2.082408
0.221200	-2.067802
0.221300	-2.008078
0.221400	-1.896097
0.221500	-1.736078
0.221600	-1.596507
0.221700	-1.456937
0.221800	-1.400784
0.221900	-1.356966
0.222000	-1.330674
0.222100	-1.314445
0.222200	-1.305032
0.222300	-1.291725
0.222400	-1.168059
0.222500	-1.164813
0.222600	-1.129109
0.222700	-1.148259
0.222800	-1.171629
0.222900	-1.210904
0.223000	-1.170980
0.223100	-0.951238
0.223200	-0.557520
0.223300	-0.434503
0.223400	-0.571801
0.223500	-1.075228
0.223600	-1.112231
0.223700	-0.952212
0.223800	-0.542589
0.223900	-0.414379
0.224000	-0.465988
0.224100	-0.707152
0.224200	-0.877882
0.224300	-0.756164
0.224400	-0.619515
0.224500	-0.391659
0.224600	-0.410160
0.224700	-0.473453
0.224800	-0.484814
0.224900	-0.555897
0.225000	-0.507210
0.225100	-0.512728
0.225200	-0.471506
0.225300	-0.477997
0.225400	-0.461768
0.225500	-0.459496
0.225600	-0.540642
0.225700	-0.670799
0.225800	-0.756489
0.225900	-0.870417
0.226000	-0.791219
0.226100	-0.717214
0.226200	-0.659114
0.226300	-0.796412
0.226400	-1.178121
0.226500	-1.149233
0.226600	-1.083667
0.226700	-0.753567
0.226800	-0.788622
0.226900	-0.961624
0.227000	-1.275820
0.227100	-1.345281
0.227200	-1.274846
0.227300	-1.030760
0.227400	-0.950913
0.227500	-1.121319
0.227600	-1.272574
0.227700	-1.324832
0.227800	-1.304383
0.227900	-1.310226
0.228000	-1.278092
0.228100	-1.338464
0.228200	-1.400135
0.228300	-1.434865
0.228400	-1.397214
0.228500	-1.420259
0.228600	-1.478684
0.228700	-1.533863
0.228800	-1.504975
0.228900	-1.471219
0.229000	-1.457262
0.229100	-1.550741
0.229200	-1.758474
0.229300	-1.820145
0.229400	-1.847410
0.229500	-1.733157
0.229600	-1.724718
0.229700	-1.799047
0.229800	-1.783792
0.229900	-1.767562
0.230000	-1.750684
0.230100	-1.767238
0.230200	-1.750035
0.230300	-1.760746
0.230400	-1.802942
0.230500	-1.846436
0.230600	-1.846761
0.230700	-1.854875
0.230800	-1.875324
0.230900	-1.870455
0.231000	-1.901291
0.231100	-1.835400
0.231200	-1.913949
0.231300	-1.978217
0.231400	-2.028852
0.231500	-2.356031
0.231600	-2.619269
0.231700	-2.623164
0.231800	-2.251840
0.231900	-2.091821
0.232000	-2.123954
0.232100	-2.533903
0.232200	-2.948721
0.232300	-3.024999
0.232400	-2.859461
0.232500	-2.601417
0.232600	-2.656271
0.232700	-2.849399
0.232800	-3.156455
0.232900	-3.284017
0.233000	-3.282394
0.233100	-3.164894
0.233200	-3.161649
0.233300	-3.248313
0.233400	-3.327511
0.233500	-3.371979
0.233600	-3.377822
0.233700	-3.382691
0.233800	-3.460267
0.233900	-3.515771
0.234000	-3.629051
0.234100	-3.524534
0.234200	-3.552124
0.234300	-3.557642
0.234400	-3.651123
0.234500	-3.681958
0.234600	-3.584907
0.234700	-3.354127
0.234800	-3.324915
0.234900	-3.482663
0.235000	-3.771868
0.235100	-3.899755
0.235200	-3.715390
0.235300	-3.442739
0.235400	-3.291482
0.235500	-3.410605
0.235600	-3.650473
0.235700	-3.856910
0.235800	-3.807248
0.235900	-3.602110
0.236000	-3.427159
0.236100	-3.352504
0.236200	-3.380743
0.236300	-3.418070
0.236400	-3.372953
0.236500	-3.308685
0.236600	-3.202871
0.236700	-3.110040
0.236800	-3.028894
0.236900	-2.912693
0.237000	-2.747155
0.237100	-2.644586
0.237200	-2.568309
0.237300	-2.559870
0.237400	-2.504042
0.237500	-2.282026
0.237600	-2.163878
0.237700	-1.819820
0.237800	-1.809109
0.237900	-1.759123
0.238000	-1.751658
0.238100	-1.616632
0.238200	-1.495887
0.238300	-1.356966
0.238400	-1.227782
0.238500	-1.198894
0.238600	-1.175524
0.238700	-1.233624
0.238800	-1.174550
0.238900	-1.245634
0.239000	-1.128135
0.239100	-1.098598
0.239200	-1.127161
0.239300	-1.041147
0.239400	-1.219667
0.239500	-1.054779
0.239600	-1.299839
0.239700	-1.066464
0.239800	-0.921701
0.239900	-0.497797
0.240000	-0.534475
0.240100	-0.805825
0.240200	-1.180717
0.240300	-1.170006
0.240400	-0.848345
0.240500	-0.537071
0.240600	-0.460470
0.240700	-0.511429
0.240800	-0.804851
0.240900	-0.870741
0.241000	-0.767849
0.241100	-0.548432
0.241200	-0.371859
0.241300	-0.377052
0.241400	-0.430933
0.241500	-0.406589
0.241600	-0.434828
0.241700	-0.404317
0.241800	-0.363745
0.241900	-0.324795
0.242000	-0.345893
0.242100	-0.307267
0.242200	-0.371859
0.242300	-0.400098
0.242400	-0.543887
0.242500	-0.526360
0.242600	-0.538694
0.242700	-0.462417
0.242800	-0.413406
0.242900	-0.458847
0.243000	-0.663658
0.243100	-1.009663
0.243200	-0.894436
0.243300	-0.802579
0.243400	-0.490007
0.243500	-0.601988
0.243600	-0.804851
0.243700	-1.088211
0.243800	-1.145987
0.243900	-1.004794
0.244000	-0.824651
0.244100	-0.781157
0.244200	-0.919429
0.244300	-1.074579
0.244400	-1.078474
0.244500	-1.145662
0.244600	-1.095028
0.244700	-1.163515
0.244800	-1.221615
0.244900	-1.254722
0.245000	-1.287505
0.245100	-1.289128
0.245200	-1.338464
0.245300	-1.399161
0.245400	-1.397863
0.245500	-1.363457
0.245600	-1.322235
0.245700	-1.268679
0.245800	-1.420259
0.245900	-1.540030
0.246000	-1.547171
0.246100	-1.527047
0.246200	-1.360536
0.246300	-1.417013
0.246400	-1.422856
0.246500	-1.385853
0.246600	-1.386827
0.246700	-1.361185
0.246800	-1.392345
0.246900	-1.386178
0.247000	-1.410846
0.247100	-1.425128
0.247200	-1.445901
0.247300	-1.465701
0.247400	-1.488746
0.247500	-1.491992
0.247600	-1.554636
0.247700	-1.565997
0.247800	-1.664021
0.247900	-1.724393
0.248000	-1.807162
0.248100	-1.973023
0.248200	-2.324871
0.248300	-2.641016
0.248400	-2.468662
0.248500	-2.246647
0.248600	-2.002560
0.248700	-2.227172
0.248800	-2.647507
0.248900	-2.944826
0.249000	-2.958134
0.249100	-2.724434
0.249200	-2.562142
0.249300	-2.610505
0.249400	-2.797141
0.249500	-2.989944
0.249600	-3.048044
0.249700	-2.940931
0.249800	-2.905552
0.249900	-2.939308
0.250000	-2.942554
0.250100	-2.948072
0.250200	-2.897437
0.250300	-2.855241
0.250400	-2.828301
0.250500	-2.885427
0.250600	-2.876015
0.250700	-2.795518
0.250800	-2.795193
0.250900	-2.725408
0.251000	-2.775069
0.251100	-2.802983
0.251200	-2.802659
0.251300	-2.529684
0.251400	-2.309616
0.251500	-2.384595
0.251600	-2.593627
0.251700	-2.849723
0.251800	-2.895165
0.251900	-2.654648
0.252000	-2.439449
0.252100	-2.399201
0.252200	-2.597522
0.252300	-2.885427
0.252400	-2.957485
0.252500	-2.865952
0.252600	-2.689054
0.252700	-2.628682
0.252800	-2.644586
0.252900	-2.691002
0.253000	-2.697169
0.253100	-2.623488
0.253200	-2.565388
0.253300	-2.506638
0.253400	-2.443994
0.253500	-2.346294
0.253600	-2.158360
0.253700	-1.906808
0.253800	-1.814302
0.253900	-1.796126
0.254000	-1.810407
0.254100	-1.680574
0.254200	-1.440383
0.254300	-1.380011
0.254400	-1.180717
0.254500	-1.122942
0.254600	-1.033032
0.254700	-0.947018
0.254800	-0.826923
0.254900	-0.674045
0.255000	-0.579916
0.255100	-0.495849
0.255200	-0.501043
0.255300	-0.541615
0.255400	-0.509482
0.255500	-0.559792
0.255600	-0.524737
0.255700	-0.439372
0.255800	-0.459821
0.255900	-0.366666
0.256000	-0.490656
0.256100	-0.429959
0.256200	-0.495200
0.256300	-0.507210
0.256400	-0.445215
0.256500	-0.091096
0.256600	0.112417
0.256700	0.221476
0.256800	-0.431582
0.256900	-0.551028
0.257000	-0.565310
0.257100	-0.191392
0.257200	0.069897
0.257300	0.070546
0.257400	-0.098561
0.257500	-0.412107
0.257600	-0.423468
0.257700	-0.330637
0.257800	-0.082657
0.257900	-0.063182
0.258000	-0.092719
0.258100	-0.239754
0.258200	-0.201129
0.258300	-0.235859
0.258400	-0.217358
0.258500	-0.241702
0.258600	-0.328041
0.258700	-0.351086
0.258800	-0.401396
0.258900	-0.357253
0.259000	-0.573100
0.259100	-0.575696
0.259200	-0.722732
0.259300	-0.754866
0.259400	-0.649377
0.259500	-0.705529
0.259600	-0.683133
0.259700	-1.088861
0.259800	-1.250178
0.259900	-1.161892
0.260000	-0.945395
0.260100	-0.787648
0.260200	-0.957080
0.260300	-1.286207
0.260400	-1.550417
0.260500	-1.521853
0.260600	-1.299514
0.260700	-1.122293
0.260800	-1.235247
0.260900	-1.444603
0.261000	-1.596832
0.261100	-1.566970
0.261200	-1.547495
0.261300	-1.497510
0.261400	-1.611438
0.261500	-1.707190
0.261600	-1.783142
0.261700	-1.766264
0.261800	-1.747763
0.261900	-1.775352
0.262000	-1.824040
0.262100	-1.805863
0.262200	-1.758150
0.262300	-1.733481
0.262400	-1.714006
0.262500	-1.898694
0.262600	-1.974646
0.262700	-1.987305
0.262800	-1.956145
0.262900	-1.817224
0.263000	-1.896422
0.263100	-1.860718
0.263200	-1.791257
0.263300	-1.818522
0.263400	-1.757176
0.263500	-1.740622
0.263600	-1.727314
0.263700	-1.712708
0.263800	-1.724393
0.263900	-1.709138
0.264000	-1.743543
0.264100	-1.691610
0.264200	-1.725042
0.264300	-1.712708
0.264400	-1.787037
0.264500	-1.813978
0.264600	-1.868508
0.264700	-1.950952
0.264800	-2.146351
0.264900	-2.566037
0.265000	-2.707880
0.265100	-2.499173
0.265200	-2.203477
0.265300	-2.159659
0.265400	-2.490084
0.265500	-2.856539
0.265600	-3.067195
0.265700	-3.003251
0.265800	-2.764033
0.265900	-2.616672
0.266000	-2.729627
0.266100	-2.957161
0.266200	-3.144770
0.266300	-3.207740
0.266400	-3.110364
0.266500	-3.075634
0.266600	-3.048693
0.266700	-3.066221
0.266800	-3.092188
0.266900	-3.122374
0.267000	-3.080178
0.267100	-3.036684
0.267200	-3.056808
0.267300	-3.085047
0.267400	-2.978583
0.267500	-2.925676
0.267600	-2.888349
0.267700	-2.908148
0.267800	-2.865303
0.267900	-2.827327
0.268000	-2.582915
0.268100	-2.404070
0.268200	-2.457626
0.268300	-2.663412
0.268400	-2.864979
0.268500	-2.766305
0.268600	-2.449511
0.268700	-2.190494
0.268800	-2.164852
0.268900	-2.328766
0.269000	-2.549808
0.269100	-2.591030
0.269200	-2.423869
0.269300	-2.236909
0.269400	-2.123954
0.269500	-2.132394
0.269600	-2.134666
0.269700	-2.097339
0.269800	-2.036642
0.269900	-1.944785
0.270000	-1.834102
0.270100	-1.672460
0.270200	-1.472517
0.270300	-1.276145
0.270400	-1.178445
0.270500	-1.137223
0.270600	-1.060622
0.270700	-0.995706
0.270800	-0.844126
0.270900	-0.645482
0.271000	-0.575696
0.271100	-0.262475
0.271200	-0.273511
0.271300	-0.202427
0.271400	-0.057339
0.271500	0.065352
0.271600	0.225696
0.271700	0.344168
0.271800	0.392206
0.271900	0.454850
0.272000	0.404865
0.272100	0.445113
0.272200	0.409084
0.272300	0.435700
0.272400	0.464588
0.272500	0.494125
0.272600	0.455824
0.272700	0.405839
0.272800	0.351309
0.272900	0.335080
0.273000	0.276655
0.273100	0.468483
0.273200	0.830391
0.273300	0.978725
0.273400	0.833637
0.273500	0.413304
0.273600	0.214660
0.273700	0.350984
0.273800	0.704778
0.273900	0.900501
0.274000	0.833637
0.274100	0.625905
0.274200	0.440893
0.274300	0.409734
0.274400	0.573647
0.274500	0.756062
0.274600	0.841752
0.274700	0.743728
0.274800	0.699585
0.274900	0.687251
0.275000	0.640511
0.275100	0.655766
0.275200	0.633046
0.275300	0.581113
0.275400	0.542487
0.275500	0.441867
0.275600	0.374030
0.275700	0.133839
0.275800	0.140980
0.275900	-0.045979
0.276000	-0.005406
0.276100	-0.018714
0.276200	-0.121607
0.276300	-0.275783
0.276400	-0.675668
0.276500	-0.756813
0.276600	-0.705205
0.276700	-0.472155
0.276800	-0.479945
0.276900	-0.649701
0.277000	-1.059973
0.277100	-1.229729
0.277200	-1.206359
0.277300	-0.999925
0.277400	-0.927543
0.277500	-1.101519
0.277600	-1.307954
0.277700	-1.397538
0.277800	-1.427400
0.277900	-1.430646
0.278000	-1.450121
0.278100	-1.541653
0.278200	-1.619228
0.278300	-1.718550
0.278400	-1.723744
0.278500	-1.746789
0.278600	-1.818522
0.278700	-1.887983
0.278800	-1.905510
0.278900	-1.855849
0.279000	-1.871754
0.279100	-1.958417
0.279200	-2.187248
0.279300	-2.279430
0.279400	-2.304098
0.279500	-2.201854
0.279600	-2.226198
0.279700	-2.292738
0.279800	-2.312213
0.279900	-2.325521
0.280000	-2.344346
0.280100	-2.366743
0.280200	-2.361549
0.280300	-2.353435
0.280400	-2.351812
0.280500	-2.369664
0.280600	-2.367716
0.280700	-2.369664
0.280800	-2.407640
0.280900	-2.388165
0.281000	-2.402447
0.281100	-2.369664
0.281200	-2.420948
0.281300	-2.395631
0.281400	-2.494953
0.281500	-2.707880
0.281600	-3.109066
0.281700	-3.058431
0.281800	-2.774420
0.281900	-2.409588
0.282000	-2.426466
0.282100	-2.738716
0.282200	-3.074011
0.282300	-3.198651
0.282400	-3.018507
0.282500	-2.760138
0.282600	-2.652052
0.282700	-2.777341
0.282800	-3.043175
0.282900	-3.136656
0.283000	-3.126269
0.283100	-3.021753
0.283200	-2.945476
0.283300	-2.966573
0.283400	-2.958459
0.283500	-2.968846
0.283600	-2.904902
0.283700	-2.843881
0.283800	-2.847451
0.283900	-2.915614
0.284000	-2.901981
0.284100	-2.826029
0.284200	-2.776692
0.284300	-2.765007
0.284400	-2.827002
0.284500	-2.861408
0.284600	-2.759813
0.284700	-2.501445
0.284800	-2.438476
0.284900	-2.597522
0.285000	-2.900358
0.285100	-3.099328
0.285200	-2.926650
0.285300	-2.666009
0.285400	-2.465741
0.285500	-2.568958
0.285600	-2.825704
0.285700	-3.053237
0.285800	-3.081476
0.285900	-2.901007
0.286000	-2.731575
0.286100	-2.723135
0.286200	-2.799088
0.286300	-2.881208
0.286400	-2.869523
0.286500	-2.854917
0.286600	-2.812071
0.286700	-2.743909
0.286800	-2.673474
0.286900	-2.587459
0.287000	-2.426791
0.287100	-2.335258
0.287200	-2.293062
0.287300	-2.295659
0.287400	-2.264499
0.287500	-2.033396
0.287600	-1.827610
0.287700	-1.752956
0.287800	-1.610140
0.287900	-1.615982
0.288000	-1.600727
0.288100	-1.532889
0.288200	-1.430970
0.288300	-1.319963
0.288400	-1.288479
0.288500	-1.258293
0.288600	-1.312822
0.288700	-1.367028
0.288800	-1.372221
0.288900	-1.466674
0.289000	-1.396240
0.289100	-1.513739
0.289200	-1.441032
0.289300	-1.589042
0.289400	-1.551390
0.289500	-1.741596
0.289600	-1.701672
0.289700	-1.791906
0.289800	-1.561128
0.289900	-1.379362
0.290000	-1.116775
0.290100	-1.558531
0.290200	-1.886684
0.290300	-1.978866
0.290400	-1.725042
0.290500	-1.456612
0.290600	-1.365405
0.290700	-1.392670
0.290800	-1.751658
0.290900	-1.930503
0.291000	-1.921090
0.291100	-1.702646
0.291200	-1.534188
0.291300	-1.538407
0.291400	-1.572488
0.291500	-1.735104
0.291600	-1.709462
0.291700	-1.763992
0.291800	-1.711410
0.291900	-1.719849
0.292000	-1.774703
0.292100	-1.812030
0.292200	-1.811381
0.292300	-1.980164
0.292400	-1.992498
0.292500	-2.062933
0.292600	-2.103181
0.292700	-2.046055
0.292800	-1.978217
0.292900	-1.968155
0.293000	-2.205425
0.293100	-2.508586
0.293200	-2.393034
0.293300	-2.251840
0.293400	-1.910703
0.293500	-1.939591
0.293600	-2.108374
0.293700	-2.443344
0.293800	-2.485540
0.293900	-2.343373
0.294000	-2.069749
0.294100	-1.956145
0.294200	-2.102532
0.294300	-2.233988
0.294400	-2.264824
0.294500	-2.312537
0.294600	-2.266446
0.294700	-2.275859
0.294800	-2.296308
0.294900	-2.345320
0.295000	-2.396929
0.295100	-2.373234
0.295200	-2.398552
0.295300	-2.435554
0.295400	-2.442695
0.295500	-2.429063
0.295600	-2.410561
0.295700	-2.381024
0.295800	-2.495602
0.295900	-2.648481
0.296000	-2.651727
0.296100	-2.606610
0.296200	-2.431335
0.296300	-2.500471
0.296400	-2.472557
0.296500	-2.441721
0.296600	-2.398227
0.296700	-2.356031
0.296800	-2.291764
0.296900	-2.247621
0.297000	-2.189845
0.297100	-2.166799
0.297200	-2.100260
0.297300	-2.076890
0.297400	-2.054169
0.297500	-2.032097
0.297600	-1.977243
0.297700	-1.941539
0.297800	-1.953548
0.297900	-1.915248
0.298000	-1.979840
0.298100	-1.992823
0.298200	-2.394332
0.298300	-2.594600
0.298400	-2.499497
0.298500	-2.151219
0.298600	-1.958742
0.298700	-2.008403
0.298800	-2.463793
0.298900	-2.742611
0.299000	-2.758515
0.299100	-2.592004
0.299200	-2.366094
0.299300	-2.362848
0.299400	-2.582591
0.299500	-2.842582
0.299600	-2.935738
0.299700	-2.864329
0.299800	-2.851671
0.299900	-2.831222
0.300000	-2.833819
0.300100	-2.859136
0.300200	-2.867251
0.300300	-2.879260
0.300400	-2.889647
0.300500	-2.970793
0.300600	-3.047395
0.300700	-2.977609
0.300800	-2.992540
0.300900	-3.024674
0.301000	-3.072063
0.301100	-3.121400
0.301200	-3.129190
0.301300	-2.963328
0.301400	-2.682563
0.301500	-2.767603
0.301600	-2.947748
0.301700	-3.222346
0.301800	-3.302518
0.301900	-3.063624
0.302000	-2.812721
0.302100	-2.670228
0.302200	-2.795518
0.302300	-3.035710
0.302400	-3.198976
0.302500	-3.123348
0.302600	-2.926650
0.302700	-2.799737
0.302800	-2.777990
0.302900	-2.816616
0.303000	-2.823756
0.303100	-2.774095
0.303200	-2.735470
0.303300	-2.708529
0.303400	-2.637121
0.303500	-2.485540
0.303600	-2.234313
0.303700	-2.070723
0.303800	-2.002885
0.303900	-1.965233
0.304000	-1.937644
0.304100	-1.817548
0.304200	-1.516660
0.304300	-1.364431
0.304400	-1.024918
0.304500	-1.012908
0.304600	-0.919429
0.304700	-0.790570
0.304800	-0.662035
0.304900	-0.520193
0.305000	-0.365367
0.305100	-0.244298
0.305200	-0.166399
0.305300	-0.160232
0.305400	-0.132967
0.305500	-0.122256
0.305600	-0.117062
0.305700	-0.049549
0.305800	0.034193
0.305900	0.024131
0.306000	0.065677
0.306100	0.041983
0.306200	-0.008003
0.306300	-0.049874
0.306400	0.116312
0.306500	0.367863
0.306600	0.844997
0.306700	0.806372
0.306800	0.455500
0.306900	0.026403
0.307000	0.116961
0.307100	0.426936
0.307200	0.836558
0.307300	0.871938
0.307400	0.821303
0.307500	0.441218
0.307600	0.414927
0.307700	0.474325
0.307800	0.734964
0.307900	0.820329
0.308000	0.786897
0.308100	0.803776
0.308200	0.713866
0.308300	0.760931
0.308400	0.746649
0.308500	0.765475
0.308600	0.730745
0.308700	0.720358
0.308800	0.694716
0.308900	0.701857
0.309000	0.582736
0.309100	0.535022
0.309200	0.393180
0.309300	0.395777
0.309400	0.466211
0.309500	0.528530
0.309600	0.437648
0.309700	0.074116
0.309800	-0.161855
0.309900	-0.118685
0.310000	0.068923
0.310100	0.342221
0.310200	0.143577
0.310300	-0.145301
0.310400	-0.514350
0.310500	-0.532202
0.310600	-0.378026
0.310700	-0.162179
0.310800	-0.211191
0.310900	-0.448136
0.311000	-0.615295
0.311100	-0.588031
0.311200	-0.635420
0.311300	-0.549081
0.311400	-0.640613
0.311500	-0.711372
0.311600	-0.801930
0.311700	-0.823677
0.311800	-0.775639
0.311900	-0.814264
0.312000	-0.858407
0.312100	-0.870417
0.312200	-0.808746
0.312300	-0.774665
0.312400	-0.762980
0.312500	-0.926894
0.312600	-1.050884
0.312700	-1.074254
0.312800	-0.960002
0.312900	-0.914560
0.313000	-1.031085
0.313100	-1.040498
0.313200	-1.038875
0.313300	-1.047314
0.313400	-1.026541
0.313500	-1.033682
0.313600	-1.019400
0.313700	-1.031085
0.313800	-1.045367
0.313900	-1.046665
0.314000	-1.082369
0.314100	-1.139495
0.314200	-1.164813
0.314300	-1.208307
0.314400	-1.257643
0.314500	-1.306655
0.314600	-1.437787
0.314700	-1.518608
0.314800	-1.815276
0.314900	-2.171344
0.315000	-2.495602
0.315100	-2.319354
0.315200	-2.174914
0.315300	-1.994770
0.315400	-2.357330
0.315500	-2.864329
0.315600	-3.166842
0.315700	-3.183071
0.315800	-3.012340
0.315900	-2.906850
0.316000	-2.998383
0.316100	-3.247339
0.316200	-3.536544
0.316300	-3.624831
0.316400	-3.615418
0.316500	-3.595618
0.316600	-3.590425
0.316700	-3.713767
0.316800	-3.820881
0.316900	-3.910142
0.317000	-3.940653
0.317100	-4.000701
0.317200	-4.115929
0.317300	-4.255177
0.317400	-4.313927
0.317500	-4.299320
0.317600	-4.350930
0.317700	-4.467456
0.317800	-4.545682
0.317900	-4.564508
0.318000	-4.386959
0.318100	-4.232780
0.318200	-4.371703
0.318300	-4.621635
0.318400	-4.890718
0.318500	-4.913439
0.318600	-4.624232
0.318700	-4.380792
0.318800	-4.334700
0.318900	-4.537567
0.319000	-4.820932
0.319100	-4.941029
0.319200	-4.848197
0.319300	-4.622609
0.319400	-4.511925
0.319500	-4.543085
0.319600	-4.600537
0.319700	-4.609301
0.319800	-4.570675
0.319900	-4.511925
0.320000	-4.431752
0.320100	-4.378195
0.320200	-4.220121
0.320300	-4.012386
0.320400	-3.882227
0.320500	-3.863077
0.320600	-3.795238
0.320700	-3.778360
0.320800	-3.609251
0.320900	-3.371979
0.321000	-3.289210
0.321100	-2.941256
0.321200	-2.962029
0.321300	-2.903280
0.321400	-2.778964
0.321500	-2.619269
0.321600	-2.482294
0.321700	-2.319678
0.321800	-2.193740
0.321900	-2.134017
0.322000	-2.098962
0.322100	-2.041186
0.322200	-1.998341
0.322300	-1.969128
0.322400	-1.868508
0.322500	-1.857147
0.322600	-1.774703
0.322700	-1.768861
0.322800	-1.749710
0.322900	-1.722770
0.323000	-1.686741
0.323100	-1.586445
0.323200	-1.094703
0.323300	-0.941176
0.323400	-0.878531
0.323500	-1.376116
0.323600	-1.490694
0.323700	-1.382932
0.323800	-0.998951
0.323900	-0.693520
0.324000	-0.562064
0.324100	-0.754217
0.324200	-0.873338
0.324300	-0.803878
0.324400	-0.583486
0.324500	-0.328365
0.324600	-0.157635
0.324700	-0.143678
0.324800	-0.104404
0.324900	-0.099535
0.325000	-0.070323
0.325100	0.069572
0.325200	0.118584
0.325300	0.189018
0.325400	0.252961
0.325500	0.339624
0.325600	0.368187
0.325700	0.142278
0.325800	0.322421
0.325900	0.186097
0.326000	0.333457
0.326100	0.382469
0.326200	0.486984
0.326300	0.429858
0.326400	0.107223
0.326500	0.082555
0.326600	0.161104
0.326700	0.442516
0.326800	0.597666
0.326900	0.468807
0.327000	0.141629
0.327100	0.011472
0.327200	0.083854
0.327300	0.229266
0.327400	0.349686
0.327500	0.230565
0.327600	0.105925
0.327700	0.046202
0.327800	0.048799
0.327900	0.025104
0.328000	0.009849
0.328100	-0.116089
0.328200	-0.200155
0.328300	-0.256957
0.328400	-0.271563
0.328500	-0.317329
0.328600	-0.366017
0.328700	-0.426064
0.328800	-0.430608
0.328900	-0.387114
0.329000	-0.390685
0.329100	-0.468909
0.329200	-0.674694
0.329300	-0.737663
0.329400	-0.764928
0.329500	-0.616594
0.329600	-0.664632
0.329700	-0.756489
0.329800	-0.755515
0.329900	-0.775314
0.330000	-0.828221
0.330100	-0.826923
0.330200	-0.874636
0.330300	-0.888593
0.330400	-0.944422
0.330500	-0.972660
0.330600	-0.978178
0.330700	-1.027515
0.330800	-1.032059
0.330900	-1.047314
0.331000	-1.078799
0.331100	-1.069710
0.331200	-1.143066
0.331300	-1.178121
0.331400	-1.208956
0.331500	-1.493290
0.331600	-1.838321
0.331700	-1.945434
0.331800	-1.698751
0.331900	-1.340087
0.332000	-1.373195
0.332100	-1.642274
0.332200	-1.973997
0.332300	-2.134017
0.332400	-1.996393
0.332500	-1.807162
0.332600	-1.700374
0.332700	-1.851954
0.332800	-2.071372
0.332900	-2.193091
0.333000	-2.203477
0.333100	-2.131420
0.333200	-2.109673
0.333300	-2.116489
0.333400	-2.140833
0.333500	-2.178809
0.333600	-2.152842
0.333700	-2.161606
0.333800	-2.149597
0.333900	-2.196012
0.334000	-2.198284
0.334100	-2.238857
0.334200	-2.228470
0.334300	-2.207048
0.334400	-2.178484
0.334500	-2.230418
0.334600	-2.106102
0.334700	-1.860718
0.334800	-1.751333
0.334900	-1.882465
0.335000	-2.129148
0.335100	-2.322924
0.335200	-2.215487
0.335300	-1.929529
0.335400	-1.758799
0.335500	-1.866560
0.335600	-2.079487
0.335700	-2.299229
0.335800	-2.293062
0.335900	-2.151869
0.336000	-2.061959
0.336100	-2.063582
0.336200	-2.166150
0.336300	-2.208346
0.336400	-2.173940
0.336500	-2.141157
0.336600	-2.131744
0.336700	-2.137262
0.336800	-2.100260
0.336900	-1.954522
0.337000	-1.819171
0.337100	-1.725042
0.337200	-1.718875
0.337300	-1.713033
0.337400	-1.721472
0.337500	-1.572488
0.337600	-1.422207
0.337700	-1.294646
0.337800	-1.155075
0.337900	-1.147285
0.338000	-1.137548
0.338100	-1.021348
0.338200	-0.889892
0.338300	-0.756489
0.338400	-0.638665
0.338500	-0.687677
0.338600	-0.638990
0.338700	-0.673071
0.338800	-0.636393
0.338900	-0.652298
0.339000	-0.640613
0.339100	-0.561739
0.339200	-0.567582
0.339300	-0.576021
0.339400	-0.535773
0.339500	-0.642885
0.339600	-0.601014
0.339700	-0.659439
0.339800	-0.323821
0.339900	-0.105053
0.340000	0.200378
0.340100	-0.091096
0.340200	-0.440346
0.340300	-0.510780
0.340400	-0.321224
0.340500	0.022508
0.340600	0.234135
0.340700	0.130918
0.340800	-0.098561
0.340900	-0.261501
0.341000	-0.173215
0.341100	0.013095
0.341200	0.201352
0.341300	0.153963
0.341400	0.226994
0.341500	0.084178
0.341600	0.110794
0.341700	0.095539
0.341800	0.149744
0.341900	0.118584
0.342000	0.125725
0.342100	0.095539
0.342200	0.090021
0.342300	0.118259
0.342400	-0.069674
0.342500	-0.036566
0.342600	-0.218981
0.342700	-0.086552
0.342800	-0.184900
0.342900	-0.068700
0.343000	-0.370236
0.343100	-0.595171
0.343200	-0.612050
0.343300	-0.491305
0.343400	-0.247869
0.343500	-0.291363
0.343600	-0.477024
0.343700	-0.882102
0.343800	-0.924622
0.343900	-0.829520
0.344000	-0.626656
0.344100	-0.585759
0.344200	-0.779858
0.344300	-0.980126
0.344400	-1.005118
0.344500	-1.062569
0.344600	-1.050884
0.344700	-1.100546
0.344800	-1.184612
0.344900	-1.299514
0.345000	-1.434865
0.345100	-1.453691
0.345200	-1.526073
0.345300	-1.605271
0.345400	-1.680250
0.345500	-1.685443
0.345600	-1.706865
0.345700	-1.742894
0.345800	-1.856174
0.345900	-2.039563
0.346000	-2.088575
0.346100	-2.083706
0.346200	-1.941539
0.346300	-1.996718
0.346400	-2.044107
0.346500	-2.038265
0.346600	-2.026904
0.346700	-2.013921
0.346800	-1.984384
0.346900	-1.936995
0.347000	-1.973997
0.347100	-1.918169
0.347200	-1.914923
0.347300	-1.881816
0.347400	-1.868832
0.347500	-1.884412
0.347600	-1.836374
0.347700	-1.841243
0.347800	-1.809109
0.347900	-1.846761
0.348000	-1.800345
0.348100	-1.848059
0.348200	-2.113568
0.348300	-2.430686
0.348400	-2.283000
0.348500	-1.980489
0.348600	-1.673758
0.348700	-1.723744
0.348800	-2.018790
0.348900	-2.289816
0.349000	-2.367392
0.349100	-2.085654
0.349200	-1.875324
0.349300	-1.792880
0.349400	-1.989577
0.349500	-2.211592
0.349600	-2.295984
0.349700	-2.264824
0.349800	-2.149597
0.349900	-2.108050
0.350000	-2.110971
0.350100	-2.133692
0.350200	-2.166799
0.350300	-2.142456
0.350400	-2.105129
0.350500	-2.138885
0.350600	-2.175563
0.350700	-2.173616
0.350800	-2.137587
0.350900	-2.125253
0.351000	-2.167449
0.351100	-2.206399
0.351200	-2.210294
0.351300	-2.077215
0.351400	-1.818197
0.351500	-1.825663
0.351600	-2.024307
0.351700	-2.282676
0.351800	-2.399526
0.351900	-2.163229
0.352000	-1.960689
0.352100	-1.847734
0.352200	-1.996718
0.352300	-2.236909
0.352400	-2.413483
0.352500	-2.412509
0.352600	-2.249244
0.352700	-2.186924
0.352800	-2.203153
0.352900	-2.282351
0.353000	-2.325196
0.353100	-2.324547
0.353200	-2.315783
0.353300	-2.297282
0.353400	-2.271640
0.353500	-2.212566
0.353600	-2.077864
0.353700	-1.996718
0.353800	-1.968479
0.353900	-2.005157
0.354000	-2.057090
0.354100	-2.052222
0.354200	-1.887009
0.354300	-1.822742
0.354400	-1.576059
0.354500	-1.652011
0.354600	-1.647142
0.354700	-1.652985
0.354800	-1.573787
0.354900	-1.471543
0.355000	-1.398512
0.355100	-1.302436
0.355200	-1.315419
0.355300	-1.373844
0.355400	-1.371247
0.355500	-1.445577
0.355600	-1.440059
0.355700	-1.539381
0.355800	-1.444278
0.355900	-1.573787
0.356000	-1.513090
0.356100	-1.692584
0.356200	-1.699076
0.356300	-1.858446
0.356400	-1.779572
0.356500	-1.557233
0.356600	-1.320612
0.356700	-1.242388
0.356800	-1.771133
0.356900	-2.038589
0.357000	-2.131095
0.357100	-1.752307
0.357200	-1.498159
0.357300	-1.376116
0.357400	-1.471543
0.357500	-1.856498
0.357600	-1.819171
0.357700	-1.782493
0.357800	-1.453691
0.357900	-1.402083
0.358000	-1.291725
0.358100	-1.375142
0.358200	-1.370273
0.358300	-1.282636
0.358400	-1.223562
0.358500	-1.181691
0.358600	-1.116450
0.358700	-1.076851
0.358800	-1.030436
0.358900	-0.973309
0.359000	-1.013882
0.359100	-1.016803
0.359200	-1.019075
0.359300	-1.007390
0.359400	-0.771744
0.359500	-0.736040
0.359600	-0.630875
0.359700	-0.944097
0.359800	-1.061271
0.359900	-1.009338
0.360000	-0.717214
0.360100	-0.519544
0.360200	-0.497148
0.360300	-0.783429
0.360400	-1.002846
0.360500	-0.923324
0.360600	-0.738312
0.360700	-0.534150
0.360800	-0.566933
0.360900	-0.729873
0.361000	-0.875610
0.361100	-0.837634
0.361200	-0.850617
0.361300	-0.795438
0.361400	-0.915209
0.361500	-1.035954
0.361600	-1.152803
0.361700	-1.236546
0.361800	-1.232651
0.361900	-1.265433
0.362000	-1.372221
0.362100	-1.394942
0.362200	-1.375467
0.362300	-1.333920
0.362400	-1.266732
0.362500	-1.416364
0.362600	-1.537433
0.362700	-1.542627
0.362800	-1.496861
0.362900	-1.288479
0.363000	-1.315419
0.363100	-1.299839
0.363200	-1.263810
0.363300	-1.204736
0.363400	-1.157023
0.363500	-1.136574
0.363600	-1.114827
0.363700	-1.109309
0.363800	-1.089834
0.363900	-1.076851
0.364000	-1.104441
0.364100	-1.110283
0.364200	-1.159944
0.364300	-1.188507
0.364400	-1.197920
0.364500	-1.266407
0.364600	-1.339763
0.364700	-1.437137
0.364800	-1.569242
0.364900	-1.955496
0.365000	-2.129472
0.365100	-2.011000
0.365200	-1.653634
0.365300	-1.515037
0.365400	-1.674732
0.365500	-2.078513
0.365600	-2.295334
0.365700	-2.245673
0.365800	-1.923038
0.365900	-1.713682
0.366000	-1.741596
0.366100	-1.982761
0.366200	-2.179783
0.366300	-2.232690
0.366400	-2.113892
0.366500	-2.013596
0.366600	-1.962312
0.366700	-2.020088
0.366800	-2.071372
0.366900	-2.007105
0.367000	-1.959391
0.367100	-1.923687
0.367200	-1.885386
0.367300	-1.923362
0.367400	-1.878245
0.367500	-1.791906
0.367600	-1.694531
0.367700	-1.677004
0.367800	-1.712059
0.367900	-1.646169
0.368000	-1.403056
0.368100	-1.214474
0.368200	-1.256020
0.368300	-1.447849
0.368400	-1.636431
0.368500	-1.692908
0.368600	-1.408250
0.368700	-1.158321
0.368800	-1.107362
0.368900	-1.286207
0.369000	-1.544899
0.369100	-1.678302
0.369200	-1.603973
0.369300	-1.410197
0.369400	-1.313147
0.369500	-1.393968
0.369600	-1.514713
0.369700	-1.602025
0.369800	-1.585147
0.369900	-1.592937
0.370000	-1.568593
0.370100	-1.552040
0.370200	-1.491667
0.370300	-1.336192
0.370400	-1.249853
0.370500	-1.234923
0.370600	-1.248555
0.370700	-1.299190
0.370800	-1.212526
0.370900	-1.012584
0.371000	-0.974932
0.371100	-0.669501
0.371200	-0.744479
0.371300	-0.712670
0.371400	-0.642885
0.371500	-0.537720
0.371600	-0.467286
0.371700	-0.323821
0.371800	-0.292012
0.371900	-0.286170
0.372000	-0.372508
0.372100	-0.381597
0.372200	-0.434828
0.372300	-0.468260
0.372400	-0.418923
0.372500	-0.478322
0.372600	-0.415028
0.372700	-0.596794
0.372800	-0.636718
0.372900	-0.752918
0.373000	-0.767524
0.373100	-0.667229
0.373200	-0.436775
0.373300	-0.037540
0.373400	-0.250466
0.373500	-0.577969
0.373600	-1.048937
0.373700	-0.872689
0.373800	-0.607181
0.373900	-0.269291
0.374000	-0.172566
0.374100	-0.438723
0.374200	-0.622436
0.374300	-0.730522
0.374400	-0.547458
0.374500	-0.286494
0.374600	-0.210867
0.374700	-0.179382
0.374800	-0.283248
0.374900	-0.260852
0.375000	-0.371210
0.375100	-0.267668
0.375200	-0.236508
0.375300	-0.188795
0.375400	-0.161855
0.375500	-0.126475
0.375600	-0.155363
0.375700	-0.328690
0.375800	-0.257606
0.375900	-0.324146
0.376000	-0.271888
0.376100	-0.175163
0.376200	-0.181005
0.376300	-0.253062
0.376400	-0.530255
0.376500	-0.667229
0.376600	-0.578293
0.376700	-0.326742
0.376800	-0.205349
0.376900	-0.240728
0.377000	-0.617568
0.377100	-0.803553
0.377200	-0.833090
0.377300	-0.674045
0.377400	-0.544537
0.377500	-0.609778
0.377600	-0.786675
0.377700	-0.937930
0.377800	-1.008364
0.377900	-1.088536
0.378000	-1.059973
0.378100	-1.173252
0.378200	-1.261863
0.378300	-1.363133
0.378400	-1.435190
0.378500	-1.489071
0.378600	-1.553013
0.378700	-1.594235
0.378800	-1.495887
0.378900	-1.402732
0.379000	-1.413118
0.379100	-1.474464
0.379200	-1.680899
0.379300	-1.750360
0.379400	-1.737052
0.379500	-1.767887
0.379600	-1.749710
0.379700	-1.691610
0.379800	-1.661099
0.379900	-1.633185
0.380000	-1.613061
0.380100	-1.571515
0.380200	-1.551715
0.380300	-1.517958
0.380400	-1.541328
0.380500	-1.491667
0.380600	-1.506598
0.380700	-1.468946
0.380800	-1.481605
0.380900	-1.426426
0.381000	-1.441032
0.381100	-1.469596
0.381200	-1.460832
0.381300	-1.554636
0.381400	-1.551066
0.381500	-1.862341
0.381600	-2.173616
0.381700	-2.378752
0.381800	-2.117787
0.381900	-1.813004
0.382000	-1.808460
0.382100	-2.027553
0.382200	-2.497225
0.382300	-2.656920
0.382400	-2.624137
0.382500	-2.392709
0.382600	-2.271315
0.382700	-2.391736
0.382800	-2.597522
0.382900	-2.799413
0.383000	-2.834143
0.383100	-2.835766
0.383200	-2.779613
0.383300	-2.786429
0.383400	-2.817914
0.383500	-2.821809
0.383600	-2.858162
0.383700	-2.891270
0.383800	-2.955538
0.383900	-2.979881
0.384000	-3.013638
0.384100	-3.041228
0.384200	-2.931518
0.384300	-3.001304
0.384400	-3.033762
0.384500	-3.097706
0.384600	-3.056159
0.384700	-2.878936
0.384800	-2.765656
0.384900	-2.896788
0.385000	-3.181773
0.385100	-3.380419
0.385200	-3.360944
0.385300	-3.099004
0.385400	-2.920807
0.385500	-3.001953
0.385600	-3.190861
0.385700	-3.408982
0.385800	-3.428133
0.385900	-3.298948
0.386000	-3.157104
0.386100	-3.103873
0.386200	-3.128866
0.386300	-3.157754
0.386400	-3.094460
0.386500	-3.036359
0.386600	-3.022077
0.386700	-2.978908
0.386800	-2.928273
0.386900	-2.763059
0.387000	-2.544290
0.387100	-2.419974
0.387200	-2.386867
0.387300	-2.325521
0.387400	-2.306370
0.387500	-2.091496
0.387600	-1.852279
0.387700	-1.662073
0.387800	-1.431619
0.387900	-1.401433
0.388000	-1.279066
0.388100	-1.125214
0.388200	-0.937605
0.388300	-0.753892
0.388400	-0.606207
0.388500	-0.440995
0.388600	-0.374456
0.388700	-0.265396
0.388800	-0.224824
0.388900	-0.135239
0.389000	-0.051822
0.389100	0.081257
0.389200	0.182526
0.389300	0.258803
0.389400	0.294182
0.389500	0.330860
0.389600	0.274383
0.389700	0.419471
0.389800	0.553848
0.389900	1.001446
0.390000	1.121541
0.390100	1.226056
0.390200	0.622010
0.390300	0.605456
0.390400	0.915432
0.390500	1.147183
0.390600	1.495134
0.390700	1.391593
0.390800	1.175421
0.390900	1.032606
0.391000	1.077398
0.391100	1.331221
0.391200	1.451316
0.391300	1.572060
0.391400	1.439956
0.391500	1.447746
0.391600	1.333493
0.391700	1.388022
0.391800	1.431841
0.391900	1.413664
0.392000	1.341283
0.392100	1.310123
0.392200	1.329273
0.392300	1.240987
0.392400	1.136472
0.392500	0.993656
0.392600	0.848568
0.392700	0.923546
0.392800	0.861227
0.392900	0.932959
0.393000	0.667127
0.393100	0.370459
0.393200	0.220827
0.393300	0.298402
0.393400	0.540864
0.393500	0.587929
0.393600	0.353256
0.393700	-0.069349
0.393800	-0.195611
0.393900	-0.159258
0.394000	-0.018390
0.394100	-0.032022
0.394200	-0.243649
0.394300	-0.459821
0.394400	-0.594522
0.394500	-0.633147
0.394600	-0.742532
0.394700	-0.830493
0.394800	-1.037901
0.394900	-1.172278
0.395000	-1.233624
0.395100	-1.251801
0.395200	-1.374493
0.395300	-1.543276
0.395400	-1.708813
0.395500	-1.767238
0.395600	-1.826312
0.395700	-1.892202
0.395800	-2.069425
0.395900	-2.334934
0.396000	-2.468337
0.396100	-2.509559
0.396200	-2.549808
0.396300	-2.490084
0.396400	-2.557273
0.396500	-2.532605
0.396600	-2.535851
0.396700	-2.511182
0.396800	-2.435230
0.396900	-2.384919
0.397000	-2.347268
0.397100	-2.303449
0.397200	-2.255735
0.397300	-2.187897
0.397400	-2.156413
0.397500	-2.084031
0.397600	-2.012947
0.397700	-1.958742
0.397800	-1.907782
0.397900	-1.907782
0.398000	-1.851629
0.398100	-1.931477
0.398200	-2.127200
0.398300	-2.419325
0.398400	-2.382323
0.398500	-2.070398
0.398600	-1.712383
0.398700	-1.689013
0.398800	-2.005157
0.398900	-2.350838
0.399000	-2.417378
0.399100	-2.265797
0.399200	-1.933424
0.399300	-1.815276
0.399400	-1.883439
0.399500	-2.099611
0.399600	-2.155764
0.399700	-2.152193
0.399800	-1.947381
0.399900	-1.851629
0.400000	-1.840918
0.400100	-1.826637
0.400200	-1.821768
0.400300	-1.806188
0.400400	-1.712708
0.400500	-1.679276
0.400600	-1.640975
0.400700	-1.696803
0.400800	-1.583524
0.400900	-1.534188
0.401000	-1.480307
0.401100	-1.502378
0.401200	-1.441357
0.401300	-1.307304
0.401400	-1.058674
0.401500	-0.930140
0.401600	-1.065166
0.401700	-1.283285
0.401800	-1.440708
0.401900	-1.296269
0.402000	-1.005443
0.402100	-0.856135
0.402200	-0.991486
0.402300	-1.213176
0.402400	-1.429672
0.402500	-1.469271
0.402600	-1.364106
0.402700	-1.255696
0.402800	-1.278417
0.402900	-1.375467
0.403000	-1.475114
0.403100	-1.553013
0.403200	-1.607543
0.403300	-1.625071
0.403400	-1.639028
0.403500	-1.633834
0.403600	-1.573787
0.403700	-1.501729
0.403800	-1.482254
0.403900	-1.515686
0.404000	-1.551715
0.404100	-1.553987
0.404200	-1.409872
0.404300	-1.334569
0.404400	-1.091457
0.404500	-1.075877
0.404600	-1.075228
0.404700	-1.090484
0.404800	-1.002197
0.404900	-0.916183
0.405000	-0.781157
0.405100	-0.651973
0.405200	-0.615620
0.405300	-0.620164
0.405400	-0.673396
0.405500	-0.567906
0.405600	-0.647754
0.405700	-0.530255
0.405800	-0.571801
0.405900	-0.428985
0.406000	-0.526035
0.406100	-0.428661
0.406200	-0.469558
0.406300	-0.453329
0.406400	-0.398799
0.406500	-0.161855
0.406600	0.303595
0.406700	0.298727
0.406800	0.118908
0.406900	-0.245272
0.407000	-0.343296
0.407100	0.048474
0.407200	0.233486
0.407300	0.501266
0.407400	0.289638
0.407500	0.085152
0.407600	0.049123
0.407700	0.088722
0.407800	0.237056
0.407900	0.390259
0.408000	0.454201
0.408100	0.452254
0.408200	0.378898
0.408300	0.427910
0.408400	0.408111
0.408500	0.445438
0.408600	0.497695
0.408700	0.482440
0.408800	0.504836
0.408900	0.499643
0.409000	0.407137
0.409100	0.242899
0.409200	0.177658
0.409300	0.100083
0.409400	0.239977
0.409500	0.143252
0.409600	0.169868
0.409700	-0.179058
0.409800	-0.506561
0.409900	-0.528308
0.410000	-0.390036
0.410100	-0.153091
0.410200	-0.263773
0.410300	-0.515649
0.410400	-0.862302
0.410500	-0.832441
0.410600	-0.708126
0.410700	-0.564661
0.410800	-0.541615
0.410900	-0.707801
0.411000	-0.813615
0.411100	-0.788622
0.411200	-0.785052
0.411300	-0.765901
0.411400	-0.830493
0.411500	-0.922675
0.411600	-0.961300
0.411700	-0.964870
0.411800	-0.807123
0.411900	-0.854837
0.412000	-0.929166
0.412100	-0.973959
0.412200	-0.937930
0.412300	-0.872040
0.412400	-0.845749
0.412500	-0.981099
0.412600	-1.130732
0.412700	-1.168708
0.412800	-1.181042
0.412900	-1.209605
0.413000	-1.090484
0.413100	-1.129433
0.413200	-1.132030
0.413300	-1.136250
0.413400	-1.142417
0.413500	-1.152479
0.413600	-1.130083
0.413700	-1.177147
0.413800	-1.145987
0.413900	-1.180068
0.414000	-1.169682
0.414100	-1.197271
0.414200	-1.224536
0.414300	-1.216746
0.414400	-1.243686
0.414500	-1.282961
0.414600	-1.325481
0.414700	-1.434865
0.414800	-1.539381
0.414900	-1.899668
0.415000	-2.132718
0.415100	-2.068126
0.415200	-1.761071
0.415300	-1.611763
0.415400	-1.837023
0.415500	-2.230093
0.415600	-2.564739
0.415700	-2.611803
0.415800	-2.489760
0.415900	-2.256060
0.416000	-2.333311
0.416100	-2.624137
0.416200	-2.876339
0.416300	-2.964301
0.416400	-2.933790
0.416500	-2.898086
0.416600	-2.913017
0.416700	-3.069142
0.416800	-3.188914
0.416900	-3.249936
0.417000	-3.253181
0.417100	-3.268762
0.417200	-3.399894
0.417300	-3.427483
0.417400	-3.550177
0.417500	-3.504085
0.417600	-3.483637
0.417700	-3.510253
0.417800	-3.581012
0.417900	-3.576468
0.418000	-3.392428
0.418100	-3.118154
0.418200	-3.178852
0.418300	-3.373927
0.418400	-3.603409
0.418500	-3.676116
0.418600	-3.391455
0.418700	-3.050316
0.418800	-2.918535
0.418900	-3.075958
0.419000	-3.307387
0.419100	-3.407684
0.419200	-3.282069
0.419300	-3.026297
0.419400	-2.902630
0.419500	-2.925351
0.419600	-3.033438
0.419700	-3.068818
0.419800	-2.975986
0.419900	-2.917561
0.420000	-2.870497
0.420100	-2.822783
0.420200	-2.782534
0.420300	-2.611479
0.420400	-2.466065
0.420500	-2.382323
0.420600	-2.337855
0.420700	-2.347268
0.420800	-2.255735
0.420900	-1.998990
0.421000	-1.864288
0.421100	-1.531266
0.421200	-1.532889
0.421300	-1.429997
0.421400	-1.332622
0.421500	-1.177147
0.421600	-1.015505
0.421700	-0.837309
0.421800	-0.722732
0.421900	-0.679563
0.422000	-0.688976
0.422100	-0.610102
0.422200	-0.642236
0.422300	-0.552002
0.422400	-0.593548
0.422500	-0.498121
0.422600	-0.512403
0.422700	-0.476374
0.422800	-0.456900
0.422900	-0.556546
0.423000	-0.391983
0.423100	-0.386465
0.423200	-0.057989
0.423300	0.211414
0.423400	0.426612
0.423500	-0.020337
0.423600	-0.388737
0.423700	-0.186847
0.423800	-0.004757
0.423900	0.386364
0.424000	0.425963
0.424100	0.387337
0.424200	0.065028
0.424300	0.033219
0.424400	0.249066
0.424500	0.445438
0.424600	0.611948
0.424700	0.539566
0.424800	0.454201
0.424900	0.356178
0.425000	0.411356
0.425100	0.495748
0.425200	0.540215
0.425300	0.580139
0.425400	0.561313
0.425500	0.554497
0.425600	0.523013
0.425700	0.425963
0.425800	0.443165
0.425900	0.342870
0.426000	0.390908
0.426100	0.389609
0.426200	0.461667
0.426300	0.377925
0.426400	0.078660
0.426500	-0.125177
0.426600	-0.079736
0.426700	0.092942
0.426800	0.377275
0.426900	0.227968
0.427000	-0.031048
0.427100	-0.299477
0.427200	-0.334857
0.427300	-0.174189
0.427400	0.027376
0.427500	0.058212
0.427600	-0.136862
0.427700	-0.343945
0.427800	-0.375429
0.427900	-0.407888
0.428000	-0.304021
0.428100	-0.371210
0.428200	-0.477024
0.428300	-0.553300
0.428400	-0.589653
0.428500	-0.595821
0.428600	-0.654570
0.428700	-0.732470
0.428800	-0.735391
0.428900	-0.723057
0.429000	-0.736689
0.429100	-0.759410
0.429200	-0.983371
0.429300	-1.090808
0.429400	-1.143715
0.429500	-1.127486
0.429600	-1.099247
0.429700	-1.141118
0.429800	-1.158970
0.429900	-1.169682
0.430000	-1.203438
0.430100	-1.196946
0.430200	-1.215772
0.430300	-1.247581
0.430400	-1.266083
0.430500	-1.274197
0.430600	-1.273872
0.430700	-1.302436
0.430800	-1.312173
0.430900	-1.342035
0.431000	-1.365080
0.431100	-1.380335
0.431200	-1.461806
0.431300	-1.480956
0.431400	-1.532240
0.431500	-1.687391
0.431600	-2.048976
0.431700	-2.224251
0.431800	-1.930503
0.431900	-1.658827
0.432000	-1.448173
0.432100	-1.673433
0.432200	-2.049625
0.432300	-2.307019
0.432400	-2.290466
0.432500	-2.053520
0.432600	-1.923362
0.432700	-2.013272
0.432800	-2.299229
0.432900	-2.505664
0.433000	-2.635822
0.433100	-2.641665
0.433200	-2.651402
0.433300	-2.684185
0.433400	-2.765331
0.433500	-2.860434
0.433600	-2.942230
0.433700	-3.037008
0.433800	-3.076283
0.433900	-3.160999
0.434000	-3.277525
0.434100	-3.293755
0.434200	-3.330757
0.434300	-3.341793
0.434400	-3.401517
0.434500	-3.417746
0.434600	-3.399245
0.434700	-3.236628
0.434800	-3.107768
0.434900	-3.196704
0.435000	-3.384638
0.435100	-3.577442
0.435200	-3.551475
0.435300	-3.275253
0.435400	-3.051615
0.435500	-3.037982
0.435600	-3.191186
0.435700	-3.403140
0.435800	-3.435923
0.435900	-3.339196
0.436000	-3.151911
0.436100	-3.043500
0.436200	-3.049992
0.436300	-3.087643
0.436400	-3.108417
0.436500	-3.076608
0.436600	-3.043175
0.436700	-2.985399
0.436800	-2.897762
0.436900	-2.795842
0.437000	-2.592004
0.437100	-2.493330
0.437200	-2.448213
0.437300	-2.419974
0.437400	-2.413807
0.437500	-2.248594
0.437600	-2.029501
0.437700	-1.887658
0.437800	-1.691286
0.437900	-1.730885
0.438000	-1.633185
0.438100	-1.534188
0.438200	-1.432918
0.438300	-1.306331
0.438400	-1.163515
0.438500	-1.099247
0.438600	-1.053481
0.438700	-1.117099
0.438800	-1.043744
0.438900	-1.140794
0.439000	-1.077500
0.439100	-1.054455
0.439200	-0.973309
0.439300	-1.000250
0.439400	-1.024918
0.439500	-1.055753
0.439600	-1.084641
0.439700	-1.078149
0.439800	-0.868469
0.439900	-0.546809
0.440000	-0.215086
0.440100	-0.345568
0.440200	-0.758761
0.440300	-1.063219
0.440400	-0.771744
0.440500	-0.528632
0.440600	-0.218981
0.440700	-0.238131
0.440800	-0.375429
0.440900	-0.652622
0.441000	-0.531878
0.441100	-0.442293
0.441200	-0.256308
0.441300	-0.247220
0.441400	-0.232289
0.441500	-0.295907
0.441600	-0.304671
0.441700	-0.281625
0.441800	-0.292012
0.441900	-0.316031
0.442000	-0.314408
0.442100	-0.319601
0.442200	-0.211516
0.442300	-0.296232
0.442400	-0.400747
0.442500	-0.469234
0.442600	-0.473129
0.442700	-0.453005
0.442800	-0.373157
0.442900	-0.330313
0.443000	-0.403993
0.443100	-0.754217
0.443200	-0.845099
0.443300	-0.737987
0.443400	-0.458522
0.443500	-0.319277
0.443600	-0.510456
0.443700	-0.874636
0.443800	-1.014531
0.443900	-0.926245
0.444000	-0.703906
0.444100	-0.567257
0.444200	-0.698064
0.444300	-0.881128
0.444400	-0.943772
0.444500	-0.851267
0.444600	-0.804851
0.444700	-0.729224
0.444800	-0.818484
0.444900	-0.885023
0.445000	-0.804202
0.445100	-0.682808
0.445200	-0.621138
0.445300	-0.665930
0.445400	-0.724355
0.445500	-0.691897
0.445600	-0.582837
0.445700	-0.552651
0.445800	-0.569205
0.445900	-0.785376
0.446000	-0.846073
0.446100	-0.887944
0.446200	-0.891515
0.446300	-0.769796
0.446400	-0.862951
0.446500	-0.870741
0.446600	-0.833415
0.446700	-0.851916
0.446800	-0.819782
0.446900	-0.819782
0.447000	-0.793166
0.447100	-0.769472
0.447200	-0.778236
0.447300	-0.802255
0.447400	-0.840555
0.447500	-0.865224
0.447600	-0.856460
0.447700	-0.912937
0.447800	-0.886971
0.447900	-1.005768
0.448000	-1.038875
0.448100	-1.174226
0.448200	-1.466999
0.448300	-1.920441
0.448400	-1.959391
0.448500	-1.681223
0.448600	-1.404679
0.448700	-1.444603
0.448800	-1.813004
0.448900	-2.270666
0.449000	-2.387841
0.449100	-2.279105
0.449200	-1.988928
0.449300	-1.925959
0.449400	-2.043458
0.449500	-2.316757
0.449600	-2.471908
0.449700	-2.520595
0.449800	-2.398876
0.449900	-2.389464
0.450000	-2.426791
0.450100	-2.522867
0.450200	-2.589082
0.450300	-2.616997
0.450400	-2.611803
0.450500	-2.673150
0.450600	-2.709828
0.450700	-2.864329
0.450800	-2.805580
0.450900	-2.845828
0.451000	-2.871795
0.451100	-2.990268
0.451200	-3.019156
0.451300	-3.045772
0.451400	-2.799413
0.451500	-2.749102
0.451600	-2.942230
0.451700	-3.226566
0.451800	-3.451503
0.451900	-3.366462
0.452000	-3.048693
0.452100	-2.816616
0.452200	-2.885427
0.452300	-3.134708
0.452400	-3.387884
0.452500	-3.412228
0.452600	-3.215530
0.452700	-3.018507
0.452800	-2.941256
0.452900	-2.967547
0.453000	-3.033438
0.453100	-2.976311
0.453200	-2.929895
0.453300	-2.833494
0.453400	-2.763059
0.453500	-2.692625
0.453600	-2.574801
0.453700	-2.388490
0.453800	-2.272614
0.453900	-2.231716
0.454000	-2.195363
0.454100	-2.170370
0.454200	-1.953224
0.454300	-1.785415
0.454400	-1.521204
0.454500	-1.440383
0.454600	-1.442980
0.454700	-1.385204
0.454800	-1.291400
0.454900	-1.157672
0.455000	-0.985643
0.455100	-0.843801
0.455200	-0.771095
0.455300	-0.729548
0.455400	-0.768498
0.455500	-0.662035
0.455600	-0.694169
0.455700	-0.546160
0.455800	-0.562064
0.455900	-0.441320
0.456000	-0.441644
0.456100	-0.470207
0.456200	-0.454303
0.456300	-0.439697
0.456400	-0.388088
0.456500	-0.171268
0.456600	0.177333
0.456700	0.319175
0.456800	0.096512
0.456900	-0.250790
0.457000	-0.422494
0.457100	-0.085578
0.457200	0.233486
0.457300	0.464912
0.457400	0.315605
0.457500	0.188044
0.457600	-0.008003
0.457700	0.099434
0.457800	0.255557
0.457900	0.515547
0.458000	0.524311
0.458100	0.630124
0.458200	0.483738
0.458300	0.485361
0.458400	0.515547
0.458500	0.584034
0.458600	0.633695
0.458700	0.635642
0.458800	0.666802
0.458900	0.611623
0.459000	0.407137
0.459100	0.385065
0.459200	0.370459
0.459300	0.275357
0.459400	0.330211
0.459500	0.350984
0.459600	0.321123
0.459700	0.040360
0.459800	-0.311487
0.459900	-0.354332
0.460000	-0.257931
0.460100	0.028350
0.460200	-0.024881
0.460300	-0.263124
0.460400	-0.629577
0.460500	-0.732794
0.460600	-0.670799
0.460700	-0.524737
0.460800	-0.477997
0.460900	-0.614971
0.461000	-0.768823
0.461100	-0.852565
0.461200	-0.876909
0.461300	-0.912937
0.461400	-0.955133
0.461500	-1.037901
0.461600	-1.066140
0.461700	-1.060297
0.461800	-1.039200
0.461900	-1.142417
0.462000	-1.211877
0.462100	-1.214799
0.462200	-1.185911
0.462300	-1.176173
0.462400	-1.162216
0.462500	-1.275495
0.462600	-1.478359
0.462700	-1.549768
0.462800	-1.574436
0.462900	-1.608517
0.463000	-1.550092
0.463100	-1.629939
0.463200	-1.682197
0.463300	-1.739648
0.463400	-1.802942
0.463500	-1.857147
0.463600	-1.930178
0.463700	-1.971076
0.463800	-2.027229
0.463900	-2.058064
0.464000	-2.117138
0.464100	-2.143754
0.464200	-2.173940
0.464300	-2.192766
0.464400	-2.242427
0.464500	-2.233988
0.464600	-2.304747
0.464700	-2.304098
0.464800	-2.416079
0.464900	-2.698143
0.465000	-3.038307
0.465100	-2.893217
0.465200	-2.646534
0.465300	-2.328766
0.465400	-2.448538
0.465500	-2.802659
0.465600	-3.069791
0.465700	-3.191510
0.465800	-2.993514
0.465900	-2.787079
0.466000	-2.769551
0.466100	-2.976311
0.466200	-3.203520
0.466300	-3.304466
0.466400	-3.293430
0.466500	-3.235978
0.466600	-3.270060
0.466700	-3.273306
0.466800	-3.312905
0.466900	-3.329134
0.467000	-3.350557
0.467100	-3.347311
0.467200	-3.391779
0.467300	-3.514797
0.467400	-3.527131
0.467500	-3.476496
0.467600	-3.485909
0.467700	-3.539790
0.467800	-3.596592
0.467900	-3.618989
0.468000	-3.489804
0.468100	-3.221372
0.468200	-3.260647
0.468300	-3.473574
0.468400	-3.723830
0.468500	-3.850418
0.468600	-3.663781
0.468700	-3.408333
0.468800	-3.261296
0.468900	-3.378471
0.469000	-3.641385
0.469100	-3.790370
0.469200	-3.723505
0.469300	-3.517393
0.469400	-3.407035
0.469500	-3.381068
0.469600	-3.430080
0.469700	-3.428457
0.469800	-3.364189
0.469900	-3.308036
0.470000	-3.274929
0.470100	-3.201897
0.470200	-3.113935
0.470300	-2.955538
0.470400	-2.767279
0.470500	-2.661465
0.470600	-2.625760
0.470700	-2.595899
0.470800	-2.530008
0.470900	-2.264174
0.471000	-2.098312
0.471100	-1.757176
0.471200	-1.717252
0.471300	-1.670837
0.471400	-1.578655
0.471500	-1.452393
0.471600	-1.318989
0.471700	-1.148259
0.471800	-1.052832
0.471900	-1.052183
0.472000	-1.004469
0.472100	-1.010312
0.472200	-0.949939
0.472300	-0.982073
0.472400	-0.927868
0.472500	-0.861978
0.472600	-0.863601
0.472700	-0.825300
0.472800	-0.862302
0.472900	-0.843152
0.473000	-0.910340
0.473100	-0.779858
0.473200	-0.566933
0.473300	-0.131344
0.473400	-0.127124
0.473500	-0.357902
0.473600	-0.900603
0.473700	-0.797061
0.473800	-0.501043
0.473900	-0.175163
0.474000	-0.047277
0.474100	-0.101483
0.474200	-0.451057
0.474300	-0.546809
0.474400	-0.424766
0.474500	-0.128747
0.474600	0.018613
0.474700	0.057238
0.474800	0.000761
0.474900	-0.060261
0.475000	-0.079086
0.475100	-0.006380
0.475200	0.050422
0.475300	0.097811
0.475400	0.017639
0.475500	0.070546
0.475600	-0.036891
0.475700	-0.014819
0.475800	-0.140432
0.475900	-0.154065
0.476000	-0.219306
0.476100	-0.150170
0.476200	-0.102781
0.476300	-0.118361
0.476400	-0.330313
0.476500	-0.674694
0.476600	-0.609778
0.476700	-0.483191
0.476800	-0.179382
0.476900	-0.296556
0.477000	-0.565634
0.477100	-0.896383
0.477200	-0.938579
0.477300	-0.813940
0.477400	-0.613997
0.477500	-0.607181
0.477600	-0.773367
0.477700	-0.932087
0.477800	-0.931114
0.477900	-0.938579
0.478000	-0.843152
0.478100	-0.913262
0.478200	-0.981424
0.478300	-1.092431
0.478400	-1.183314
0.478500	-1.091457
0.478600	-1.050884
0.478700	-1.084966
0.478800	-1.146961
0.478900	-1.161242
0.479000	-1.181691
0.479100	-1.201815
0.479200	-1.350474
0.479300	-1.516336
0.479400	-1.584498
0.479500	-1.664994
0.479600	-1.747114
0.479700	-1.700049
0.479800	-1.772107
0.479900	-1.805863
0.480000	-1.869157
0.480100	-1.902264
0.480200	-1.953224
0.480300	-1.977243
0.480400	-2.007754
0.480500	-2.037291
0.480600	-2.080785
0.480700	-2.093768
0.480800	-2.140833
0.480900	-2.158036
0.481000	-2.161931
0.481100	-2.237559
0.481200	-2.225224
0.481300	-2.316757
0.481400	-2.351163
0.481500	-2.524490
0.481600	-2.864979
0.481700	-3.035710
0.481800	-2.906850
0.481900	-2.529684
0.482000	-2.483917
0.482100	-2.558896
0.482200	-2.950993
0.482300	-3.167816
0.482400	-3.170088
0.482500	-2.936712
0.482600	-2.745532
0.482700	-2.794869
0.482800	-2.987347
0.482900	-3.185343
0.483000	-3.231759
0.483100	-3.172360
0.483200	-3.100302
0.483300	-3.082125
0.483400	-3.136331
0.483500	-3.201573
0.483600	-3.239549
0.483700	-3.256752
0.483800	-3.252208
0.483900	-3.280447
0.484000	-3.333029
0.484100	-3.383015
0.484200	-3.367760
0.484300	-3.394376
0.484400	-3.471627
0.484500	-3.519016
0.484600	-3.537842
0.484700	-3.350557
0.484800	-3.215205
0.484900	-3.304466
0.485000	-3.519666
0.485100	-3.751744
0.485200	-3.829969
0.485300	-3.609900
0.485400	-3.414825
0.485500	-3.418720
0.485600	-3.630349
0.485700	-3.896185
0.485800	-4.030563
0.485900	-4.033160
0.486000	-3.917283
0.486100	-3.895211
0.486200	-3.932214
0.486300	-3.978305
0.486400	-4.010763
0.486500	-3.999403
0.486600	-3.996157
0.486700	-3.941951
0.486800	-3.850418
0.486900	-3.739410
0.487000	-3.561537
0.487100	-3.453126
0.487200	-3.410280
0.487300	-3.396648
0.487400	-3.381392
0.487500	-3.237926
0.487600	-3.012015
0.487700	-2.950020
0.487800	-2.644911
0.487900	-2.664386
0.488000	-2.566362
0.488100	-2.473206
0.488200	-2.322924
0.488300	-2.160957
0.488400	-2.017816
0.488500	-1.885386
0.488600	-1.812679
0.488700	-1.850656
0.488800	-1.771133
0.488900	-1.813329
0.489000	-1.755553
0.489100	-1.722445
0.489200	-1.602674
0.489300	-1.618254
0.489400	-1.600078
0.489500	-1.640975
0.489600	-1.664021
0.489700	-1.677653
0.489800	-1.520880
0.489900	-1.175849
0.490000	-0.814913
0.490100	-0.908393
0.490200	-1.199868
0.490300	-1.621825
0.490400	-1.363133
0.490500	-1.110283
0.490600	-0.720460
0.490700	-0.612374
0.490800	-0.853863
0.490900	-0.945071
0.491000	-0.999925
0.491100	-0.827897
0.491200	-0.630226
0.491300	-0.552976
0.491400	-0.457549
0.491500	-0.597768
0.491600	-0.535448
0.491700	-0.595821
0.491800	-0.515973
0.491900	-0.512728
0.492000	-0.498121
0.492100	-0.477024
0.492200	-0.458522
0.492300	-0.545510
0.492400	-0.701634
0.492500	-0.639315
0.492600	-0.699687
0.492700	-0.619840
0.492800	-0.480594
0.492900	-0.519868
0.493000	-0.529930
0.493100	-0.838283
0.493200	-0.941500
0.493300	-0.792842
0.493400	-0.566284
0.493500	-0.350437
0.493600	-0.501043
0.493700	-0.803228
0.493800	-0.983696
0.493900	-0.885672
0.494000	-0.739286
0.494100	-0.647429
0.494200	-0.708775
0.494300	-0.896708
0.494400	-1.016803
0.494500	-0.963247
0.494600	-0.999601
0.494700	-0.945720
0.494800	-1.084316
0.494900	-1.179094
0.495000	-1.234923
0.495100	-1.219992
0.495200	-1.192078
0.495300	-1.220966
0.495400	-1.305357
0.495500	-1.296918
0.495600	-1.262188
0.495700	-1.232326
0.495800	-1.254398
0.495900	-1.392994
0.496000	-1.496861
0.496100	-1.533214
0.496200	-1.429023
0.496300	-1.355992
0.496400	-1.434865
0.496500	-1.425128
0.496600	-1.455314
0.496700	-1.444927
0.496800	-1.443954
0.496900	-1.458884
0.497000	-1.462130
0.497100	-1.457911
0.497200	-1.470569
0.497300	-1.453042
0.497400	-1.542302
0.497500	-1.523152
0.497600	-1.588717
0.497700	-1.553663
0.497800	-1.612412
0.497900	-1.678627
0.498000	-1.717577
0.498100	-1.803267
0.498200	-2.053845
0.498300	-2.428089
0.498400	-2.556299
0.498500	-2.341425
0.498600	-2.099935
0.498700	-1.990226
0.498800	-2.378428
0.498900	-2.768253
0.499000	-3.049992
0.499100	-2.967223
0.499200	-2.763384
0.499300	-2.608557
0.499400	-2.814019
0.499500	-3.109391
0.499600	-3.315826
0.499700	-3.367435
0.499800	-3.337249
0.499900	-3.315826
0.500000	-3.388533
0.500100	-3.521288
0.500200	-3.584907
0.500300	-3.601461
0.500400	-3.573871
0.500500	-3.594645
0.500600	-3.708899
0.500700	-3.768947
0.500800	-3.821205
0.500900	-3.817959
0.501000	-3.806274
0.501100	-3.845549
0.501200	-3.927669
0.501300	-3.866647
0.501400	-3.738111
0.501500	-3.676440
0.501600	-3.837110
0.501700	-4.100024
0.501800	-4.326910
0.501900	-4.299320
0.502000	-4.032835
0.502100	-3.850093
0.502200	-3.936758
0.502300	-4.201295
0.502400	-4.434348
0.502500	-4.441489
0.502600	-4.270108
0.502700	-4.097103
0.502800	-4.043871
0.502900	-4.124368
0.503000	-4.149362
0.503100	-4.138001
0.503200	-4.052959
0.503300	-3.976357
0.503400	-3.887745
0.503500	-3.795563
0.503600	-3.695266
0.503700	-3.511551
0.503800	-3.358347
0.503900	-3.297000
0.504000	-3.235329
0.504100	-3.212608
0.504200	-2.989294
0.504300	-2.772148
0.504400	-2.486839
0.504500	-2.448862
0.504600	-2.445616
0.504700	-2.383621
0.504800	-2.283649
0.504900	-2.165177
0.505000	-1.988603
0.505100	-1.888307
0.505200	-1.840594
0.505300	-1.820145
0.505400	-1.824364
0.505500	-1.766913
0.505600	-1.828259
0.505700	-1.740947
0.505800	-1.761720
0.505900	-1.718875
0.506000	-1.737376
0.506100	-1.751009
0.506200	-1.737701
0.506300	-1.819820
0.506400	-1.702321
0.506500	-1.627992
0.506600	-1.160918
0.506700	-1.065166
0.506800	-0.971686
0.506900	-1.623448
0.507000	-1.653959
0.507100	-1.376440
0.507200	-1.098598
0.507300	-0.858732
0.507400	-0.906770
0.507500	-1.093729
0.507600	-1.261214
0.507700	-1.221939
0.507800	-0.889567
0.507900	-0.791868
0.508000	-0.683133
0.508100	-0.782131
0.508200	-0.776613
0.508300	-0.859381
0.508400	-0.803553
0.508500	-0.703582
0.508600	-0.689300
0.508700	-0.682159
0.508800	-0.671773
0.508900	-0.630875
0.509000	-0.834713
0.509100	-0.824651
0.509200	-0.927868
0.509300	-0.897033
0.509400	-0.990188
0.509500	-0.849968
0.509600	-0.885023
0.509700	-0.979801
0.509800	-1.309252
0.509900	-1.354369
0.510000	-1.238493
0.510100	-0.990512
0.510200	-0.935658
0.510300	-1.118398
0.510400	-1.456288
0.510500	-1.515686
0.510600	-1.428049
0.510700	-1.185911
0.510800	-1.051858
0.510900	-1.147610
0.511000	-1.305357
0.511100	-1.408250
0.511200	-1.392670
0.511300	-1.344956
0.511400	-1.311849
0.511500	-1.403381
0.511600	-1.468622
0.511700	-1.504975
0.511800	-1.474789
0.511900	-1.541978
0.512000	-1.605271
0.512100	-1.631562
0.512200	-1.586121
0.512300	-1.538083
0.512400	-1.541978
0.512500	-1.616307
0.512600	-1.778274
0.512700	-1.799047
0.512800	-1.781520
0.512900	-1.679601
0.513000	-1.630264
0.513100	-1.665968
0.513200	-1.628316
0.513300	-1.616632
0.513400	-1.606245
0.513500	-1.584822
0.513600	-1.563075
0.513700	-1.566321
0.513800	-1.525099
0.513900	-1.511467
0.514000	-1.525099
0.514100	-1.558856
0.514200	-1.555285
0.514300	-1.527696
0.514400	-1.593911
0.514500	-1.599429
0.514600	-1.692908
0.514700	-1.722445
0.514800	-1.833453
0.514900	-2.113243
0.515000	-2.482619
0.515100	-2.546562
0.515200	-2.259955
0.515300	-2.068451
0.515400	-2.117463
0.515500	-2.530657
0.515600	-2.912693
0.515700	-3.095758
0.515800	-2.902955
0.515900	-2.748778
0.516000	-2.748778
0.516100	-3.006173
0.516200	-3.245067
0.516300	-3.395025
0.516400	-3.363216
0.516500	-3.269086
0.516600	-3.267463
0.516700	-3.287263
0.516800	-3.324915
0.516900	-3.375874
0.517000	-3.417097
0.517100	-3.443064
0.517200	-3.472276
0.517300	-3.527780
0.517400	-3.537842
0.517500	-3.557317
0.517600	-3.539141
0.517700	-3.618339
0.517800	-3.661509
0.517900	-3.754341
0.518000	-3.668326
0.518100	-3.490128
0.518200	-3.471302
0.518300	-3.668001
0.518400	-3.973111
0.518500	-4.148712
0.518600	-4.046143
0.518700	-3.761482
0.518800	-3.652096
0.518900	-3.799783
0.519000	-4.072110
0.519100	-4.323989
0.519200	-4.324314
0.519300	-4.147089
0.519400	-4.049714
0.519500	-4.031212
0.519600	-4.096129
0.519700	-4.116578
0.519800	-4.100349
0.519900	-4.065943
0.520000	-3.988042
0.520100	-3.905598
0.520200	-3.750121
0.520300	-3.522911
0.520400	-3.316475
0.520500	-3.182097
0.520600	-3.132436
0.520700	-3.062326
0.520800	-2.978908
0.520900	-2.706257
0.521000	-2.529684
0.521100	-2.435879
0.521200	-2.194714
0.521300	-2.146675
0.521400	-2.089873
0.521500	-1.998990
0.521600	-1.881166
0.521700	-1.713682
0.521800	-1.561128
0.521900	-1.567944
0.522000	-1.590989
0.522100	-1.569567
0.522200	-1.590016
0.522300	-1.543925
0.522400	-1.561452
0.522500	-1.413443
0.522600	-1.447199
0.522700	-1.375467
0.522800	-1.475114
0.522900	-1.435190
0.523000	-1.521529
0.523100	-1.469271
0.523200	-1.138522
0.523300	-0.791219
0.523400	-0.649701
0.523500	-0.912288
0.523600	-1.382608
0.523700	-1.389099
0.523800	-1.195973
0.523900	-0.697415
0.524000	-0.650026
0.524100	-0.650026
0.524200	-1.002846
0.524300	-1.011610
0.524400	-0.978827
0.524500	-0.701959
0.524600	-0.510780
0.524700	-0.484164
0.524800	-0.478971
0.524900	-0.616269
0.525000	-0.552002
0.525100	-0.611076
0.525200	-0.561415
0.525300	-0.590303
0.525400	-0.661061
0.525500	-0.655219
0.525600	-0.713968
0.525700	-0.801930
0.525800	-0.929815
0.525900	-0.929815
0.526000	-1.103142
0.526100	-0.958054
0.526200	-0.955133
0.526300	-0.905796
0.526400	-1.199543
0.526500	-1.449472
0.526600	-1.500431
0.526700	-1.316393
0.526800	-0.968765
0.526900	-1.060297
0.527000	-1.290751
0.527100	-1.583200
0.527200	-1.591314
0.527300	-1.454665
0.527400	-1.219992
0.527500	-1.141443
0.527600	-1.293347
0.527700	-1.456288
0.527800	-1.457911
0.527900	-1.453042
0.528000	-1.380011
0.528100	-1.456937
0.528200	-1.530617
0.528300	-1.591639
0.528400	-1.631887
0.528500	-1.586121
0.528600	-1.624097
0.528700	-1.713033
0.528800	-1.734455
0.528900	-1.708813
0.529000	-1.701023
0.529100	-1.684794
0.529200	-1.785739
0.529300	-1.895123
0.529400	-1.914274
0.529500	-1.878570
0.529600	-1.633834
0.529700	-1.634484
0.529800	-1.590665
0.529900	-1.501729
0.530000	-1.426426
0.530100	-1.330674
0.530200	-1.260240
0.530300	-1.178445
0.530400	-1.113204
0.530500	-1.104765
0.530600	-1.095352
0.530700	-1.138522
0.530800	-1.126512
0.530900	-1.200192
0.531000	-1.200841
0.531100	-1.275495
0.531200	-1.260565
0.531300	-1.305032
0.531400	-1.355018
0.531500	-1.554312
0.531600	-1.900966
0.531700	-2.188222
0.531800	-2.027553
0.531900	-1.803591
0.532000	-1.539381
0.532100	-1.733806
0.532200	-2.140184
0.532300	-2.509559
0.532400	-2.595574
0.532500	-2.382323
0.532600	-2.180757
0.532700	-2.173291
0.532800	-2.451784
0.532900	-2.700739
0.533000	-2.827002
0.533100	-2.816616
0.533200	-2.771498
0.533300	-2.739689
0.533400	-2.806878
0.533500	-2.915289
0.533600	-2.997734
0.533700	-3.063300
0.533800	-3.049667
0.533900	-3.167167
0.534000	-3.284991
0.534100	-3.348285
0.534200	-3.402490
0.534300	-3.396648
0.534400	-3.462214
0.534500	-3.534272
0.534600	-3.591399
0.534700	-3.475197
0.534800	-3.282719
0.534900	-3.370681
0.535000	-3.503436
0.535100	-3.715715
0.535200	-3.847172
0.535300	-3.608277
0.535400	-3.353803
0.535500	-3.267463
0.535600	-3.396648
0.535700	-3.616067
0.535800	-3.773491
0.535900	-3.778685
0.536000	-3.637490
0.536100	-3.543685
0.536200	-3.550826
0.536300	-3.613795
0.536400	-3.704679
0.536500	-3.726751
0.536600	-3.723180
0.536700	-3.667027
0.536800	-3.575170
0.536900	-3.523236
0.537000	-3.400218
0.537100	-3.271358
0.537200	-3.237601
0.537300	-3.236628
0.537400	-3.235005
0.537500	-3.137629
0.537600	-2.908473
0.537700	-2.774420
0.537800	-2.522543
0.537900	-2.541693
0.538000	-2.460223
0.538100	-2.438151
0.538200	-2.318380
0.538300	-2.182055
0.538400	-2.063907
0.538500	-1.944460
0.538600	-1.926283
0.538700	-1.977568
0.538800	-1.905186
0.538900	-1.924661
0.539000	-1.880193
0.539100	-1.818847
0.539200	-1.742245
0.539300	-1.661424
0.539400	-1.766264
0.539500	-1.667591
0.539600	-1.856174
0.539700	-1.674732
0.539800	-1.708813
0.539900	-1.197920
0.540000	-0.953185
0.540100	-0.886971
0.540200	-1.246608
0.540300	-1.681548
0.540400	-1.445901
0.540500	-1.172927
0.540600	-0.809720
0.540700	-0.776288
0.540800	-0.790245
0.540900	-1.077500
0.541000	-1.146636
0.541100	-0.903849
0.541200	-0.741233
0.541300	-0.520842
0.541400	-0.525062
0.541500	-0.438398
0.541600	-0.574398
0.541700	-0.516298
0.541800	-0.444565
0.541900	-0.417301
0.542000	-0.338427
0.542100	-0.298179
0.542200	-0.218657
0.542300	-0.257931
0.542400	-0.354981
0.542500	-0.477997
0.542600	-0.582513
0.542700	-0.538370
0.542800	-0.500069
0.542900	-0.414055
0.543000	-0.495849
0.543100	-0.786026
0.543200	-1.023295
0.543300	-0.938255
0.543400	-0.700660
0.543500	-0.521491
0.543600	-0.633147
0.543700	-0.908718
0.543800	-1.119696
0.543900	-1.064192
0.544000	-0.936632
0.544100	-0.781481
0.544200	-0.861653
0.544300	-0.975906
0.544400	-1.112231
0.544500	-1.114503
0.544600	-1.191104
0.544700	-1.142741
0.544800	-1.279066
0.544900	-1.354044
0.545000	-1.413443
0.545100	-1.368651
0.545200	-1.427400
0.545300	-1.521853
0.545400	-1.624746
0.545500	-1.648441
0.545600	-1.656555
0.545700	-1.689013
0.545800	-1.711410
0.545900	-1.945758
0.546000	-2.086627
0.546100	-2.128174
0.546200	-2.169072
0.546300	-2.036966
0.546400	-2.121682
0.546500	-2.149272
0.546600	-2.165826
0.546700	-2.173291
0.546800	-2.188871
0.546900	-2.220031
0.547000	-2.270017
0.547100	-2.278131
0.547200	-2.278456
0.547300	-2.314485
0.547400	-2.317731
0.547500	-2.323573
0.547600	-2.312213
0.547700	-2.320003
0.547800	-2.293062
0.547900	-2.266771
0.548000	-2.233339
0.548100	-2.328117
0.548200	-2.434581
0.548300	-2.795842
0.548400	-2.876664
0.548500	-2.720863
0.548600	-2.272289
0.548700	-2.224575
0.548800	-2.460223
0.548900	-2.924053
0.549000	-3.186317
0.549100	-3.153534
0.549200	-2.931518
0.549300	-2.779613
0.549400	-2.917561
0.549500	-3.179176
0.549600	-3.325564
0.549700	-3.365812
0.549800	-3.282069
0.549900	-3.272981
0.550000	-3.282394
0.550100	-3.375874
0.550200	-3.402166
0.550300	-3.431378
0.550400	-3.419693
0.550500	-3.482014
0.550600	-3.629700
0.550700	-3.746551
0.550800	-3.714741
0.550900	-3.642359
0.551000	-3.643982
0.551100	-3.747524
0.551200	-3.825100
0.551300	-3.826723
0.551400	-3.586530
0.551500	-3.456696
0.551600	-3.524859
0.551700	-3.782255
0.551800	-3.991288
0.551900	-3.956882
0.552000	-3.679686
0.552100	-3.448257
0.552200	-3.467732
0.552300	-3.691371
0.552400	-3.932214
0.552500	-3.999727
0.552600	-3.900729
0.552700	-3.788098
0.552800	-3.779334
0.552900	-3.839057
0.553000	-3.914686
0.553100	-3.916309
0.553200	-3.879631
0.553300	-3.826399
0.553400	-3.788747
0.553500	-3.772842
0.553600	-3.709548
0.553700	-3.525833
0.553800	-3.373927
0.553900	-3.328810
0.554000	-3.291158
0.554100	-3.316800
0.554200	-3.107118
0.554300	-2.871470
0.554400	-2.556299
0.554500	-2.428089
0.554600	-2.391736
0.554700	-2.281702
0.554800	-2.141157
0.554900	-1.937319
0.555000	-1.733481
0.555100	-1.551715
0.555200	-1.462779
0.555300	-1.336192
0.555400	-1.306980
0.555500	-1.127486
0.555600	-1.179419
0.555700	-1.035629
0.555800	-0.972660
0.555900	-0.920727
0.556000	-0.847696
0.556100	-0.904498
0.556200	-0.814913
0.556300	-0.913586
0.556400	-0.806799
0.556500	-0.744804
0.556600	-0.447162
0.556700	-0.122905
0.556800	-0.360823
0.556900	-0.649701
0.557000	-1.060947
0.557100	-0.708775
0.557200	-0.511754
0.557300	-0.243649
0.557400	-0.280976
0.557500	-0.539668
0.557600	-0.760384
0.557700	-0.742856
0.557800	-0.529606
0.557900	-0.253062
0.558000	-0.195611
0.558100	-0.272212
0.558200	-0.408537
0.558300	-0.405940
0.558400	-0.456250
0.558500	-0.380947
0.558600	-0.399124
0.558700	-0.453978
0.558800	-0.539019
0.558900	-0.572451
0.559000	-0.708775
0.559100	-0.882426
0.559200	-0.877233
0.559300	-1.009987
0.559400	-0.961300
0.559500	-0.935982
0.559600	-0.953185
0.559700	-0.989538
0.559800	-1.482579
0.559900	-1.516985
0.560000	-1.451744
0.560100	-1.122942
0.560200	-0.996355
0.560300	-1.152154
0.560400	-1.452717
0.560500	-1.634159
0.560600	-1.580278
0.560700	-1.354369
0.560800	-1.164813
0.560900	-1.271276
0.561000	-1.480631
0.561100	-1.607219
0.561200	-1.616632
0.561300	-1.609491
0.561400	-1.584822
0.561500	-1.711085
0.561600	-1.834102
0.561700	-1.921415
0.561800	-1.911353
0.561900	-1.968155
0.562000	-2.057415
0.562100	-2.152518
0.562200	-2.159334
0.562300	-2.168422
0.562400	-2.171993
0.562500	-2.245024
0.562600	-2.441721
0.562700	-2.497874
0.562800	-2.520595
0.562900	-2.454380
0.563000	-2.308318
0.563100	-2.345969
0.563200	-2.297282
0.563300	-2.252489
0.563400	-2.193091
0.563500	-2.180432
0.563600	-2.125902
0.563700	-2.113892
0.563800	-2.083382
0.563900	-2.044107
0.564000	-2.021386
0.564100	-1.998016
0.564200	-1.982112
0.564300	-1.943486
0.564400	-1.930178
0.564500	-1.892202
0.564600	-1.913625
0.564700	-1.919143
0.564800	-1.975620
0.564900	-2.250866
0.565000	-2.645885
0.565100	-2.679317
0.565200	-2.525789
0.565300	-2.237234
0.565400	-2.283649
0.565500	-2.571555
0.565600	-3.101925
0.565700	-3.272657
0.565800	-3.210336
0.565900	-3.019481
0.566000	-2.991891
0.566100	-3.130164
0.566200	-3.418720
0.566300	-3.563485
0.566400	-3.588802
0.566500	-3.570301
0.566600	-3.557317
0.566700	-3.550177
0.566800	-3.614444
0.566900	-3.617366
0.567000	-3.654693
0.567100	-3.621261
0.567200	-3.629375
0.567300	-3.643008
0.567400	-3.693968
0.567500	-3.728698
0.567600	-3.727725
0.567700	-3.749796
0.567800	-3.831592
0.567900	-3.854962
0.568000	-3.750770
0.568100	-3.521613
0.568200	-3.471302
0.568300	-3.594645
0.568400	-3.813740
0.568500	-3.989016
0.568600	-3.862428
0.568700	-3.540114
0.568800	-3.389507
0.568900	-3.451827
0.569000	-3.673194
0.569100	-3.908194
0.569200	-3.903001
0.569300	-3.760508
0.569400	-3.614120
0.569500	-3.601461
0.569600	-3.687476
0.569700	-3.725777
0.569800	-3.724803
0.569900	-3.711495
0.570000	-3.646903
0.570100	-3.610549
0.570200	-3.546282
0.570300	-3.457345
0.570400	-3.279797
0.570500	-3.156455
0.570600	-3.145419
0.570700	-3.099653
0.570800	-2.978908
0.570900	-2.664386
0.571000	-2.485216
0.571100	-2.436204
0.571200	-2.180432
0.571300	-2.141157
0.571400	-2.056117
0.571500	-1.919792
0.571600	-1.771782
0.571700	-1.606569
0.571800	-1.495562
0.571900	-1.415390
0.572000	-1.413767
0.572100	-1.385853
0.572200	-1.336192
0.572300	-1.314445
0.572400	-1.274846
0.572500	-1.172603
0.572600	-1.116450
0.572700	-1.116126
0.572800	-1.160269
0.572900	-1.139495
0.573000	-1.178445
0.573100	-1.105414
0.573200	-0.962923
0.573300	-0.548432
0.573400	-0.506236
0.573500	-0.633472
0.573600	-1.189157
0.573700	-1.203763
0.573800	-1.037252
0.573900	-0.689949
0.574000	-0.510780
0.574100	-0.600040
0.574200	-0.817510
0.574300	-0.914885
0.574400	-0.914885
0.574500	-0.672422
0.574600	-0.573749
0.574700	-0.557844
0.574800	-0.628603
0.574900	-0.707152
0.575000	-0.715267
0.575100	-0.707477
0.575200	-0.700660
0.575300	-0.708126
0.575400	-0.749023
0.575500	-0.785052
0.575600	-0.816212
0.575700	-0.927868
0.575800	-0.997653
0.575900	-1.019400
0.576000	-1.083018
0.576100	-1.112231
0.576200	-0.994083
0.576300	-1.017128
0.576400	-1.195973
0.576500	-1.531266
0.576600	-1.466999
0.576700	-1.360861
0.576800	-1.054779
0.576900	-1.071333
0.577000	-1.260240
0.577100	-1.619553
0.577200	-1.596183
0.577300	-1.460183
0.577400	-1.166111
0.577500	-1.079123
0.577600	-1.189157
0.577700	-1.319639
0.577800	-1.318016
0.577900	-1.236221
0.578000	-1.113529
0.578100	-1.120020
0.578200	-1.147610
0.578300	-1.168383
0.578400	-1.132679
0.578500	-1.042770
0.578600	-1.050560
0.578700	-1.081395
0.578800	-1.098598
0.578900	-1.058674
0.579000	-1.012908
0.579100	-0.989214
0.579200	-1.096001
0.579300	-1.283285
0.579400	-1.311199
0.579500	-1.316068
0.579600	-1.189806
0.579700	-1.239467
0.579800	-1.316717
0.579900	-1.289452
0.580000	-1.325481
0.580100	-1.326455
0.580200	-1.354044
0.580300	-1.394942
0.580400	-1.423180
0.580500	-1.468946
0.580600	-1.541653
0.580700	-1.603973
0.580800	-1.632861
0.580900	-1.710760
0.581000	-1.760422
0.581100	-1.841243
0.581200	-1.883114
0.581300	-1.962961
0.581400	-2.048327
0.581500	-2.160308
0.581600	-2.571555
0.581700	-2.833494
0.581800	-2.794869
0.581900	-2.472881
0.582000	-2.189196
0.582100	-2.413158
0.582200	-2.712100
0.582300	-3.141849
0.582400	-3.210985
0.582500	-3.051939
0.582600	-2.848749
0.582700	-2.905552
0.582800	-3.102574
0.582900	-3.349583
0.583000	-3.487532
0.583100	-3.486233
0.583200	-3.433001
0.583300	-3.433326
0.583400	-3.528754
0.583500	-3.628077
0.583600	-3.705004
0.583700	-3.688450
0.583800	-3.657290
0.583900	-3.712469
0.584000	-3.717013
0.584100	-3.862428
0.584200	-3.818609
0.584300	-3.841005
0.584400	-3.846848
0.584500	-3.895535
0.584600	-3.897483
0.584700	-3.721558
0.584800	-3.516744
0.584900	-3.457994
0.585000	-3.617041
0.585100	-3.870867
0.585200	-3.998104
0.585300	-3.778360
0.585400	-3.408658
0.585500	-3.231434
0.585600	-3.407035
0.585700	-3.654368
0.585800	-3.800756
0.585900	-3.713767
0.586000	-3.532000
0.586100	-3.395674
0.586200	-3.348609
0.586300	-3.413202
0.586400	-3.479092
0.586500	-3.479092
0.586600	-3.465784
0.586700	-3.377173
0.586800	-3.329783
0.586900	-3.251234
0.587000	-3.122698
0.587100	-3.011042
0.587200	-2.912693
0.587300	-2.898411
0.587400	-2.848749
0.587500	-2.772797
0.587600	-2.536175
0.587700	-2.421922
0.587800	-2.090198
0.587900	-2.077864
0.588000	-2.013272
0.588100	-1.955171
0.588200	-1.800345
0.588300	-1.663371
0.588400	-1.457911
0.588500	-1.273223
0.588600	-1.252450
0.588700	-1.231352
0.588800	-1.246283
0.588900	-1.165462
0.589000	-1.176822
0.589100	-1.064517
0.589200	-1.026216
0.589300	-1.021997
0.589400	-0.938904
0.589500	-1.051209
0.589600	-1.009338
0.589700	-1.063868
0.589800	-0.964546
0.589900	-0.658465
0.590000	-0.382570
0.590100	-0.314733
0.590200	-0.733768
0.590300	-0.948641
0.590400	-1.004469
0.590500	-0.581864
0.590600	-0.370236
0.590700	-0.176785
0.590800	-0.250790
0.590900	-0.366990
0.591000	-0.515973
0.591100	-0.368938
0.591200	-0.199831
0.591300	0.016341
0.591400	-0.014170
0.591500	0.000436
0.591600	-0.060585
0.591700	-0.118361
0.591800	-0.076165
0.591900	-0.023258
0.592000	-0.032347
0.592100	-0.061559
0.592200	-0.095315
0.592300	-0.224824
0.592400	-0.323821
0.592500	-0.446837
0.592600	-0.535773
0.592700	-0.637367
0.592800	-0.612374
0.592900	-0.583811
0.593000	-0.612050
0.593100	-0.932737
0.593200	-1.206035
0.593300	-1.161892
0.593400	-0.973634
0.593500	-0.755515
0.593600	-0.873338
0.593700	-1.127161
0.593800	-1.429672
0.593900	-1.441357
0.594000	-1.300164
0.594100	-1.066789
0.594200	-1.066140
0.594300	-1.210579
0.594400	-1.322884
0.594500	-1.328727
0.594600	-1.392994
0.594700	-1.308278
0.594800	-1.379686
0.594900	-1.393968
0.595000	-1.485176
0.595100	-1.499133
0.595200	-1.496536
0.595300	-1.569567
0.595400	-1.633834
0.595500	-1.641300
0.595600	-1.629290
0.595700	-1.614035
0.595800	-1.633510
0.595900	-1.796775
0.596000	-1.920441
0.596100	-1.960689
0.596200	-1.935047
0.596300	-1.788985
0.596400	-1.843839
0.596500	-1.877271
0.596600	-1.864937
0.596700	-1.891228
0.596800	-1.887333
0.596900	-1.886684
0.597000	-1.873376
0.597100	-1.860718
0.597200	-1.857147
0.597300	-1.861367
0.597400	-1.831830
0.597500	-1.824364
0.597600	-1.798073
0.597700	-1.791582
0.597800	-1.795477
0.597900	-1.813978
0.598000	-1.803591
0.598100	-1.887983
0.598200	-2.048651
0.598300	-2.361225
0.598400	-2.520920
0.598500	-2.262227
0.598600	-2.073969
0.598700	-1.908431
0.598800	-2.080460
