LabVIEW Measurement	
Writer_Version	2
Reader_Version	2
Separator	Tab
Decimal_Separator	.
Multi_Headings	Yes
X_Columns	One
Time_Pref	Relative
Operator	as989
Description	Time Domain Data
Date	1903/12/31
Time	19:00:00
***End_of_Header***	
	
Channels	1	
Samples	15000	
Date	1903/12/31	
Time	19:00:00	
X_Dimension	Time	
X0	0.0000000000000000E+0	
Delta_X	0.000100	
***End_of_Header***		
X_Value	Untitled	Comment
0.000000	-2.442371	Tare Values:0.000000, 0.000000, 0.000000, 0.000000\0D\0A
0.000100	-2.396604
0.000200	-2.359602
0.000300	-2.340776
0.000400	-2.373234
0.000500	-2.516376
0.000600	-2.523517
0.000700	-2.550457
0.000800	-2.585187
0.000900	-2.492032
0.001000	-2.556299
0.001100	-2.567011
0.001200	-2.583889
0.001300	-2.587135
0.001400	-2.590705
0.001500	-2.591354
0.001600	-2.588433
0.001700	-2.548185
0.001800	-2.554352
0.001900	-2.535202
0.002000	-2.569932
0.002100	-2.508910
0.002200	-2.514753
0.002300	-2.440423
0.002400	-2.436853
0.002500	-2.424194
0.002600	-2.415430
0.002700	-2.368366
0.002800	-2.536175
0.002900	-2.668281
0.003000	-2.568309
0.003100	-2.289167
0.003200	-2.085978
0.003300	-2.114542
0.003400	-2.285272
0.003500	-2.529034
0.003600	-2.540070
0.003700	-2.388490
0.003800	-2.183353
0.003900	-2.150246
0.004000	-2.255086
0.004100	-2.403421
0.004200	-2.494629
0.004300	-2.508910
0.004400	-2.492357
0.004500	-2.494629
0.004600	-2.558572
0.004700	-2.664061
0.004800	-2.747479
0.004900	-2.836091
0.005000	-2.877313
0.005100	-2.964951
0.005200	-3.020454
0.005300	-3.097706
0.005400	-3.124646
0.005500	-3.158727
0.005600	-3.210012
0.005700	-3.252857
0.005800	-3.328485
0.005900	-3.253831
0.006000	-3.143147
0.006100	-3.138928
0.006200	-3.332705
0.006300	-3.569976
0.006400	-3.749147
0.006500	-3.688125
0.006600	-3.466109
0.006700	-3.374576
0.006800	-3.509603
0.006900	-3.724154
0.007000	-3.836785
0.007100	-3.799783
0.007200	-3.676765
0.007300	-3.561212
0.007400	-3.540439
0.007500	-3.560888
0.007600	-3.607304
0.007700	-3.596592
0.007800	-3.586855
0.007900	-3.564134
0.008000	-3.542062
0.008100	-3.501489
0.008200	-3.338872
0.008300	-3.247664
0.008400	-3.225267
0.008500	-3.224618
0.008600	-3.233057
0.008700	-3.259024
0.008800	-3.095433
0.008900	-3.027271
0.009000	-3.038631
0.009100	-2.834792
0.009200	-2.851995
0.009300	-2.850697
0.009400	-2.794869
0.009500	-2.703985
0.009600	-2.570257
0.009700	-2.490409
0.009800	-2.458600
0.009900	-2.449187
0.010000	-2.418351
0.010100	-2.363497
0.010200	-2.335907
0.010300	-2.306695
0.010400	-2.243726
0.010500	-2.207697
0.010600	-2.127200
0.010700	-2.134666
0.010800	-2.125577
0.010900	-2.091821
0.011000	-2.039887
0.011100	-1.800345
0.011200	-1.569567
0.011300	-1.417013
0.011400	-1.733481
0.011500	-1.939267
0.011600	-1.968804
0.011700	-1.704593
0.011800	-1.546846
0.011900	-1.485176
0.012000	-1.544574
0.012100	-1.803916
0.012200	-1.899343
0.012300	-1.873376
0.012400	-1.756527
0.012500	-1.679925
0.012600	-1.687715
0.012700	-1.702970
0.012800	-1.830532
0.012900	-1.867859
0.013000	-1.865911
0.013100	-1.835725
0.013200	-1.837348
0.013300	-1.850006
0.013400	-1.788985
0.013500	-1.813653
0.013600	-1.796126
0.013700	-1.942513
0.013800	-1.808135
0.013900	-1.874350
0.014000	-1.606245
0.014100	-1.564374
0.014200	-1.387476
0.014300	-1.501080
0.014400	-1.705567
0.014500	-1.548794
0.014600	-1.431944
0.014700	-1.102818
0.014800	-1.156698
0.014900	-1.274197
0.015000	-1.519581
0.015100	-1.483228
0.015200	-1.347877
0.015300	-1.197920
0.015400	-1.220316
0.015500	-1.360861
0.015600	-1.498808
0.015700	-1.522503
0.015800	-1.520880
0.015900	-1.532889
0.016000	-1.609491
0.016100	-1.711410
0.016200	-1.798398
0.016300	-1.837348
0.016400	-1.822417
0.016500	-1.898369
0.016600	-2.017167
0.016700	-2.084355
0.016800	-2.092470
0.016900	-2.132718
0.017000	-2.160957
0.017100	-2.290790
0.017200	-2.457951
0.017300	-2.484242
0.017400	-2.493006
0.017500	-2.376805
0.017600	-2.444967
0.017700	-2.470285
0.017800	-2.445292
0.017900	-2.452433
0.018000	-2.438151
0.018100	-2.409912
0.018200	-2.399850
0.018300	-2.414456
0.018400	-2.390437
0.018500	-2.401473
0.018600	-2.381998
0.018700	-2.410561
0.018800	-2.419650
0.018900	-2.423869
0.019000	-2.456003
0.019100	-2.448538
0.019200	-2.512805
0.019300	-2.562142
0.019400	-2.660491
0.019500	-2.897762
0.019600	-3.037657
0.019700	-2.929246
0.019800	-2.682563
0.019900	-2.595250
0.020000	-2.725408
0.020100	-2.999681
0.020200	-3.203520
0.020300	-3.179825
0.020400	-3.028894
0.020500	-2.848749
0.020600	-2.924378
0.020700	-3.090889
0.020800	-3.279797
0.020900	-3.343741
0.021000	-3.272981
0.021100	-3.263244
0.021200	-3.245067
0.021300	-3.319072
0.021400	-3.380094
0.021500	-3.419044
0.021600	-3.418070
0.021700	-3.435923
0.021800	-3.491102
0.021900	-3.568353
0.022000	-3.630998
0.022100	-3.590425
0.022200	-3.616067
0.022300	-3.655991
0.022400	-3.751419
0.022500	-3.776088
0.022600	-3.694942
0.022700	-3.573222
0.022800	-3.634893
0.022900	-3.818609
0.023000	-4.021475
0.023100	-4.073733
0.023200	-3.914037
0.023300	-3.728698
0.023400	-3.689748
0.023500	-3.791993
0.023600	-3.980577
0.023700	-4.079576
0.023800	-3.988691
0.023900	-3.821854
0.024000	-3.736813
0.024100	-3.774140
0.024200	-3.796537
0.024300	-3.822179
0.024400	-3.814389
0.024500	-3.782904
0.024600	-3.738436
0.024700	-3.672870
0.024800	-3.623533
0.024900	-3.491102
0.025000	-3.376848
0.025100	-3.299922
0.025200	-3.239224
0.025300	-3.195730
0.025400	-3.092188
0.025500	-2.885103
0.025600	-2.763708
0.025700	-2.509559
0.025800	-2.507612
0.025900	-2.465741
0.026000	-2.394657
0.026100	-2.316757
0.026200	-2.235286
0.026300	-2.088900
0.026400	-2.035992
0.026500	-2.006131
0.026600	-2.077539
0.026700	-1.992823
0.026800	-1.997043
0.026900	-2.026255
0.027000	-1.986007
0.027100	-1.957119
0.027200	-1.890904
0.027300	-1.948030
0.027400	-1.884088
0.027500	-2.028852
0.027600	-1.875324
0.027700	-1.918169
0.027800	-1.541653
0.027900	-1.419935
0.028000	-1.353720
0.028100	-1.605920
0.028200	-1.913300
0.028300	-1.686741
0.028400	-1.516985
0.028500	-1.323858
0.028600	-1.259266
0.028700	-1.476412
0.028800	-1.552689
0.028900	-1.685768
0.029000	-1.462779
0.029100	-1.423180
0.029200	-1.258617
0.029300	-1.370273
0.029400	-1.467973
0.029500	-1.504326
0.029600	-1.510493
0.029700	-1.478684
0.029800	-1.479982
0.029900	-1.487772
0.030000	-1.499457
0.030100	-1.523476
0.030200	-1.511467
0.030300	-1.653309
0.030400	-1.641624
0.030500	-1.677653
0.030600	-1.691610
0.030700	-1.627667
0.030800	-1.562751
0.030900	-1.577032
0.031000	-1.741596
0.031100	-1.883439
0.031200	-1.851305
0.031300	-1.700374
0.031400	-1.578331
0.031500	-1.686417
0.031600	-1.920441
0.031700	-2.094417
0.031800	-2.086627
0.031900	-2.000938
0.032000	-1.879544
0.032100	-1.934398
0.032200	-2.073320
0.032300	-2.191143
0.032400	-2.173291
0.032500	-2.213215
0.032600	-2.164203
0.032700	-2.201530
0.032800	-2.208671
0.032900	-2.249568
0.033000	-2.241454
0.033100	-2.232365
0.033200	-2.260279
0.033300	-2.294685
0.033400	-2.299879
0.033500	-2.256709
0.033600	-2.279105
0.033700	-2.284948
0.033800	-2.454380
0.033900	-2.523517
0.034000	-2.541369
0.034100	-2.576424
0.034200	-2.460547
0.034300	-2.570581
0.034400	-2.605961
0.034500	-2.603364
0.034600	-2.621216
0.034700	-2.633550
0.034800	-2.697493
0.034900	-2.705283
0.035000	-2.734821
0.035100	-2.745207
0.035200	-2.762086
0.035300	-2.744558
0.035400	-2.771498
0.035500	-2.757541
0.035600	-2.744233
0.035700	-2.752023
0.035800	-2.746830
0.035900	-2.797465
0.036000	-2.756892
0.036100	-2.894840
0.036200	-3.196379
0.036300	-3.191510
0.036400	-3.068493
0.036500	-2.817265
0.036600	-2.863031
0.036700	-3.035385
0.036800	-3.368734
0.036900	-3.545957
0.037000	-3.471627
0.037100	-3.321020
0.037200	-3.233382
0.037300	-3.356399
0.037400	-3.500190
0.037500	-3.657290
0.037600	-3.635542
0.037700	-3.614769
0.037800	-3.543036
0.037900	-3.534272
0.038000	-3.507331
0.038100	-3.460267
0.038200	-3.419693
0.038300	-3.372629
0.038400	-3.356399
0.038500	-3.381068
0.038600	-3.420343
0.038700	-3.418070
0.038800	-3.392428
0.038900	-3.424887
0.039000	-3.501813
0.039100	-3.535570
0.039200	-3.522911
0.039300	-3.393402
0.039400	-3.361268
0.039500	-3.512200
0.039600	-3.699486
0.039700	-3.871516
0.039800	-3.851392
0.039900	-3.679686
0.040000	-3.532974
0.040100	-3.562511
0.040200	-3.722856
0.040300	-3.901702
0.040400	-3.941627
0.040500	-3.799783
0.040600	-3.657290
0.040700	-3.600812
0.040800	-3.597891
0.040900	-3.638788
0.041000	-3.590101
0.041100	-3.566406
0.041200	-3.536219
0.041300	-3.454749
0.041400	-3.404438
0.041500	-3.346013
0.041600	-3.247014
0.041700	-3.174307
0.041800	-3.148990
0.041900	-3.173983
0.042000	-3.187291
0.042100	-3.110364
0.042200	-2.993839
0.042300	-2.833819
0.042400	-2.819537
0.042500	-2.863031
0.042600	-2.848425
0.042700	-2.775069
0.042800	-2.691326
0.042900	-2.582915
0.043000	-2.475803
0.043100	-2.429387
0.043200	-2.402447
0.043300	-2.392709
0.043400	-2.335907
0.043500	-2.314485
0.043600	-2.301826
0.043700	-2.213864
0.043800	-2.219382
0.043900	-2.137912
0.044000	-2.217110
0.044100	-2.184002
0.044200	-2.228146
0.044300	-2.083382
0.044400	-2.046379
0.044500	-1.692259
0.044600	-1.548794
0.044700	-1.571839
0.044800	-2.032097
0.044900	-2.016517
0.045000	-1.861691
0.045100	-1.615009
0.045200	-1.514713
0.045300	-1.510168
0.045400	-1.684145
0.045500	-1.818522
0.045600	-1.804889
0.045700	-1.611438
0.045800	-1.585796
0.045900	-1.553987
0.046000	-1.613386
0.046100	-1.706216
0.046200	-1.693558
0.046300	-1.642923
0.046400	-1.649414
0.046500	-1.654932
0.046600	-1.651686
0.046700	-1.605596
0.046800	-1.523801
0.046900	-1.606245
0.047000	-1.675706
0.047100	-1.695181
0.047200	-1.678951
0.047300	-1.665319
0.047400	-1.568269
0.047500	-1.582226
0.047600	-1.669538
0.047700	-1.998990
0.047800	-1.978217
0.047900	-1.908756
0.048000	-1.656231
0.048100	-1.662722
0.048200	-1.825014
0.048300	-2.132394
0.048400	-2.239831
0.048500	-2.125902
0.048600	-1.968804
0.048700	-1.906159
0.048800	-2.002560
0.048900	-2.154465
0.049000	-2.174914
0.049100	-2.153492
0.049200	-2.094742
0.049300	-2.068126
0.049400	-2.168422
0.049500	-2.251840
0.049600	-2.297931
0.049700	-2.246322
0.049800	-2.264824
0.049900	-2.369664
0.050000	-2.409588
0.050100	-2.430361
0.050200	-2.456652
0.050300	-2.503068
0.050400	-2.572204
0.050500	-2.730926
0.050600	-2.789351
0.050700	-2.782534
0.050800	-2.762410
0.050900	-2.712749
0.051000	-2.728978
0.051100	-2.734821
0.051200	-2.717618
0.051300	-2.722811
0.051400	-2.706582
0.051500	-2.704634
0.051600	-2.713073
0.051700	-2.681264
0.051800	-2.655947
0.051900	-2.657570
0.052000	-2.659842
0.052100	-2.646858
0.052200	-2.621541
0.052300	-2.603040
0.052400	-2.604338
0.052500	-2.623488
0.052600	-2.660166
0.052700	-2.731250
0.052800	-2.893542
0.052900	-3.171386
0.053000	-3.121076
0.053100	-2.911070
0.053200	-2.725408
0.053300	-2.776043
0.053400	-3.113286
0.053500	-3.324590
0.053600	-3.425536
0.053700	-3.264867
0.053800	-3.126918
0.053900	-3.116856
0.054000	-3.276876
0.054100	-3.447932
0.054200	-3.548878
0.054300	-3.483312
0.054400	-3.409307
0.054500	-3.358996
0.054600	-3.422939
0.054700	-3.444362
0.054800	-3.427808
0.054900	-3.408333
0.055000	-3.331731
0.055100	-3.331082
0.055200	-3.387235
0.055300	-3.394376
0.055400	-3.326213
0.055500	-3.250585
0.055600	-3.277850
0.055700	-3.234031
0.055800	-3.246690
0.055900	-3.141849
0.056000	-2.930869
0.056100	-2.884454
0.056200	-2.998707
0.056300	-3.160026
0.056400	-3.287912
0.056500	-3.157429
0.056600	-2.948721
0.056700	-2.818888
0.056800	-2.924378
0.056900	-3.170737
0.057000	-3.343091
0.057100	-3.331082
0.057200	-3.189563
0.057300	-3.092188
0.057400	-3.151262
0.057500	-3.231110
0.057600	-3.334328
0.057700	-3.358022
0.057800	-3.342767
0.057900	-3.337573
0.058000	-3.324590
0.058100	-3.338547
0.058200	-3.320695
0.058300	-3.233057
0.058400	-3.218126
0.058500	-3.227539
0.058600	-3.259673
0.058700	-3.233382
0.058800	-3.067195
0.058900	-2.960406
0.059000	-2.805580
0.059100	-2.843232
0.059200	-2.835442
0.059300	-2.792921
0.059400	-2.734171
0.059500	-2.643612
0.059600	-2.557273
0.059700	-2.460872
0.059800	-2.433931
0.059900	-2.450810
0.060000	-2.467364
0.060100	-2.400499
0.060200	-2.425492
0.060300	-2.352786
0.060400	-2.305072
0.060500	-2.295659
0.060600	-2.249244
0.060700	-2.255086
0.060800	-2.281053
0.060900	-2.346619
0.061000	-2.242103
0.061100	-2.177835
0.061200	-1.810407
0.061300	-1.956470
0.061400	-1.962312
0.061500	-2.482619
0.061600	-2.238857
0.061700	-2.162904
0.061800	-1.794178
0.061900	-1.760746
0.062000	-1.881166
0.062100	-1.953873
0.062200	-2.031124
0.062300	-1.878570
0.062400	-1.735753
0.062500	-1.553663
0.062600	-1.602025
0.062700	-1.619877
0.062800	-1.677653
0.062900	-1.661424
0.063000	-1.584498
0.063100	-1.590665
0.063200	-1.556259
0.063300	-1.583524
0.063400	-1.608192
0.063500	-1.658178
0.063600	-1.620202
0.063700	-1.756527
0.063800	-1.766913
0.063900	-1.836374
0.064000	-1.734780
0.064100	-1.761071
0.064200	-1.681873
0.064300	-1.852603
0.064400	-2.041835
0.064500	-2.008403
0.064600	-1.879868
0.064700	-1.622474
0.064800	-1.746789
0.064900	-1.917844
0.065000	-2.180757
0.065100	-2.196661
0.065200	-2.086627
0.065300	-1.879219
0.065400	-1.851305
0.065500	-1.986331
0.065600	-2.105453
0.065700	-2.108374
0.065800	-2.107401
0.065900	-2.020412
0.066000	-2.021386
0.066100	-2.064880
0.066200	-2.150895
0.066300	-2.189520
0.066400	-2.172967
0.066500	-2.187573
0.066600	-2.221005
0.066700	-2.242103
0.066800	-2.199582
0.066900	-2.225224
0.067000	-2.207372
0.067100	-2.295659
0.067200	-2.388814
0.067300	-2.388165
0.067400	-2.401798
0.067500	-2.258332
0.067600	-2.339802
0.067700	-2.359926
0.067800	-2.346619
0.067900	-2.364795
0.068000	-2.379077
0.068100	-2.429712
0.068200	-2.441072
0.068300	-2.447564
0.068400	-2.481321
0.068500	-2.483917
0.068600	-2.511832
0.068700	-2.550457
0.068800	-2.568309
0.068900	-2.585837
0.069000	-2.609531
0.069100	-2.648806
0.069200	-2.677369
0.069300	-2.634849
0.069400	-2.768577
0.069500	-3.016559
0.069600	-3.177878
0.069700	-3.054860
0.069800	-2.765007
0.069900	-2.693923
0.070000	-2.739365
0.070100	-3.070116
0.070200	-3.230461
0.070300	-3.154508
0.070400	-2.960082
0.070500	-2.824730
0.070600	-2.811098
0.070700	-2.880234
0.070800	-3.005848
0.070900	-2.981504
0.071000	-2.904578
0.071100	-2.803308
0.071200	-2.788377
0.071300	-2.778964
0.071400	-2.808501
0.071500	-2.799413
0.071600	-2.816616
0.071700	-2.824730
0.071800	-2.864979
0.071900	-2.894191
0.072000	-2.931194
0.072100	-2.901657
0.072200	-2.900683
0.072300	-2.932492
0.072400	-2.970144
0.072500	-2.945151
0.072600	-2.814993
0.072700	-2.713073
0.072800	-2.769226
0.072900	-2.906201
0.073000	-3.069791
0.073100	-3.096732
0.073200	-2.911070
0.073300	-2.716968
0.073400	-2.683861
0.073500	-2.825379
0.073600	-3.064273
0.073700	-3.160026
0.073800	-3.099004
0.073900	-2.943203
0.074000	-2.886401
0.074100	-2.911394
0.074200	-2.928273
0.074300	-2.941256
0.074400	-2.958134
0.074500	-2.939958
0.074600	-2.888673
0.074700	-2.852969
0.074800	-2.810773
0.074900	-2.720539
0.075000	-2.633875
0.075100	-2.602390
0.075200	-2.637770
0.075300	-2.657245
0.075400	-2.615698
0.075500	-2.441397
0.075600	-2.430686
0.075700	-2.198284
0.075800	-2.258981
0.075900	-2.247621
0.076000	-2.215811
0.076100	-2.188222
0.076200	-2.096040
0.076300	-2.023983
0.076400	-1.951276
0.076500	-1.966207
0.076600	-2.003210
0.076700	-2.035668
0.076800	-2.000938
0.076900	-2.057090
0.077000	-1.987305
0.077100	-1.964584
0.077200	-1.942837
0.077300	-1.973023
0.077400	-2.022360
0.077500	-1.996069
0.077600	-2.035668
0.077700	-1.911028
0.077800	-1.668565
0.077900	-1.451094
0.078000	-1.413443
0.078100	-1.765290
0.078200	-1.951925
0.078300	-1.767562
0.078400	-1.494913
0.078500	-1.408250
0.078600	-1.312822
0.078700	-1.493615
0.078800	-1.611763
0.078900	-1.664994
0.079000	-1.442006
0.079100	-1.352097
0.079200	-1.236221
0.079300	-1.279390
0.079400	-1.342684
0.079500	-1.350798
0.079600	-1.380985
0.079700	-1.363133
0.079800	-1.374493
0.079900	-1.411495
0.080000	-1.443629
0.080100	-1.400784
0.080200	-1.538407
0.080300	-1.664345
0.080400	-1.702646
0.080500	-1.752956
0.080600	-1.699725
0.080700	-1.645844
0.080800	-1.641624
0.080900	-1.707515
0.081000	-1.994770
0.081100	-2.141482
0.081200	-2.088575
0.081300	-1.946083
0.081400	-1.747763
0.081500	-1.929529
0.081600	-2.173291
0.081700	-2.365120
0.081800	-2.307019
0.081900	-2.172317
0.082000	-2.056117
0.082100	-2.107076
0.082200	-2.260929
0.082300	-2.357330
0.082400	-2.379726
0.082500	-2.394657
0.082600	-2.311564
0.082700	-2.402771
0.082800	-2.454705
0.082900	-2.497225
0.083000	-2.484567
0.083100	-2.467364
0.083200	-2.517025
0.083300	-2.534552
0.083400	-2.510533
0.083500	-2.472557
0.083600	-2.446266
0.083700	-2.456328
0.083800	-2.579345
0.083900	-2.631927
0.084000	-2.628032
0.084100	-2.638095
0.084200	-2.514428
0.084300	-2.542992
0.084400	-2.576748
0.084500	-2.547860
0.084600	-2.570581
0.084700	-2.531956
0.084800	-2.541044
0.084900	-2.572529
0.085000	-2.569283
0.085100	-2.578047
0.085200	-2.575125
0.085300	-2.577073
0.085400	-2.557273
0.085500	-2.561168
0.085600	-2.524166
0.085700	-2.510209
0.085800	-2.466390
0.085900	-2.461846
0.086000	-2.417053
0.086100	-2.549483
0.086200	-2.740338
0.086300	-2.791298
0.086400	-2.556624
0.086500	-2.349215
0.086600	-2.306046
0.086700	-2.518323
0.086800	-2.822458
0.086900	-2.997409
0.087000	-2.908473
0.087100	-2.778964
0.087200	-2.722486
0.087300	-2.857838
0.087400	-3.053887
0.087500	-3.222671
0.087600	-3.210336
0.087700	-3.167491
0.087800	-3.158727
0.087900	-3.184694
0.088000	-3.200599
0.088100	-3.224293
0.088200	-3.184370
0.088300	-3.170412
0.088400	-3.179501
0.088500	-3.203845
0.088600	-3.272007
0.088700	-3.252857
0.088800	-3.214556
0.088900	-3.259024
0.089000	-3.302518
0.089100	-3.354452
0.089200	-3.338547
0.089300	-3.161649
0.089400	-3.109066
0.089500	-3.275253
0.089600	-3.433975
0.089700	-3.590750
0.089800	-3.547255
0.089900	-3.360294
0.090000	-3.202222
0.090100	-3.245716
0.090200	-3.424562
0.090300	-3.618339
0.090400	-3.644631
0.090500	-3.522587
0.090600	-3.377497
0.090700	-3.315177
0.090800	-3.323292
0.090900	-3.395674
0.091000	-3.418070
0.091100	-3.418395
0.091200	-3.399894
0.091300	-3.357373
0.091400	-3.301869
0.091500	-3.269086
0.091600	-3.159377
0.091700	-3.091863
0.091800	-3.076932
0.091900	-3.082125
0.092000	-3.097056
0.092100	-2.984750
0.092200	-2.846802
0.092300	-2.701713
0.092400	-2.606935
0.092500	-2.614725
0.092600	-2.602715
0.092700	-2.517025
0.092800	-2.426141
0.092900	-2.296957
0.093000	-2.201205
0.093100	-2.179458
0.093200	-2.104479
0.093300	-2.114542
0.093400	-2.078513
0.093500	-2.067152
0.093600	-2.003210
0.093700	-1.984708
0.093800	-1.931801
0.093900	-1.888307
0.094000	-1.920116
0.094100	-1.886360
0.094200	-1.912651
0.094300	-1.810083
0.094400	-1.678302
0.094500	-1.417662
0.094600	-1.234598
0.094700	-1.383906
0.094800	-1.669214
0.094900	-1.834102
0.095000	-1.517958
0.095100	-1.349500
0.095200	-1.162216
0.095300	-1.212851
0.095400	-1.373519
0.095500	-1.532889
0.095600	-1.553338
0.095700	-1.400135
0.095800	-1.335219
0.095900	-1.270627
0.096000	-1.368001
0.096100	-1.340412
0.096200	-1.422207
0.096300	-1.377090
0.096400	-1.381309
0.096500	-1.393319
0.096600	-1.400784
0.096700	-1.417013
0.096800	-1.375142
0.096900	-1.479333
0.097000	-1.517309
0.097100	-1.633834
0.097200	-1.682846
0.097300	-1.626369
0.097400	-1.634484
0.097500	-1.595858
0.097600	-1.707190
0.097700	-1.961988
0.097800	-1.991200
0.097900	-1.867534
0.098000	-1.737052
0.098100	-1.650388
0.098200	-1.870131
0.098300	-2.021711
0.098400	-2.124928
0.098500	-1.998990
0.098600	-1.891228
0.098700	-1.812355
0.098800	-1.913949
0.098900	-2.021062
0.099000	-2.024957
0.099100	-2.023983
0.099200	-2.038265
0.099300	-2.025281
0.099400	-2.057090
0.099500	-2.077539
0.099600	-2.079162
0.099700	-2.029825
0.099800	-2.052871
0.099900	-2.120059
0.100000	-2.133367
0.100100	-2.111620
0.100200	-2.102532
0.100300	-2.098312
0.100400	-2.125577
0.100500	-2.267745
0.100600	-2.293062
0.100700	-2.319354
0.100800	-2.311239
0.100900	-2.226847
0.101000	-2.272938
0.101100	-2.277158
0.101200	-2.257358
0.101300	-2.246971
0.101400	-2.230093
0.101500	-2.237559
0.101600	-2.253139
0.101700	-2.234962
0.101800	-2.214838
0.101900	-2.201530
0.102000	-2.186924
0.102100	-2.177835
0.102200	-2.171993
0.102300	-2.180432
0.102400	-2.138561
0.102500	-2.199582
0.102600	-2.189520
0.102700	-2.245024
0.102800	-2.441072
0.102900	-2.689054
0.103000	-2.641665
0.103100	-2.454705
0.103200	-2.324222
0.103300	-2.351487
0.103400	-2.669255
0.103500	-2.891595
0.103600	-3.024674
0.103700	-2.902955
0.103800	-2.820511
0.103900	-2.813045
0.104000	-2.970144
0.104100	-3.154508
0.104200	-3.209687
0.104300	-3.187291
0.104400	-3.150613
0.104500	-3.144770
0.104600	-3.183720
0.104700	-3.198976
0.104800	-3.212933
0.104900	-3.224293
0.105000	-3.220398
0.105100	-3.272981
0.105200	-3.308685
0.105300	-3.318098
0.105400	-3.293755
0.105500	-3.257401
0.105600	-3.329783
0.105700	-3.395999
0.105800	-3.405412
0.105900	-3.357373
0.106000	-3.200923
0.106100	-3.284666
0.106200	-3.413851
0.106300	-3.607628
0.106400	-3.718312
0.106500	-3.607628
0.106600	-3.429106
0.106700	-3.363216
0.106800	-3.465784
0.106900	-3.645280
0.107000	-3.735190
0.107100	-3.705328
0.107200	-3.557317
0.107300	-3.481040
0.107400	-3.490453
0.107500	-3.502787
0.107600	-3.494673
0.107700	-3.470329
0.107800	-3.487532
0.107900	-3.478119
0.108000	-3.467732
0.108100	-3.448906
0.108200	-3.378147
0.108300	-3.271034
0.108400	-3.259998
0.108500	-3.297974
0.108600	-3.307063
0.108700	-3.277850
0.108800	-3.113935
0.108900	-3.029218
0.109000	-2.819861
0.109100	-2.821809
0.109200	-2.820186
0.109300	-2.806554
0.109400	-2.727680
0.109500	-2.607908
0.109600	-2.520271
0.109700	-2.422571
0.109800	-2.425168
0.109900	-2.393683
0.110000	-2.356031
0.110100	-2.276509
0.110200	-2.270017
0.110300	-2.251516
0.110400	-2.153816
0.110500	-2.152842
0.110600	-2.053845
0.110700	-2.060012
0.110800	-2.102532
0.110900	-2.009701
0.111000	-2.047677
0.111100	-1.754579
0.111200	-1.611763
0.111300	-1.382932
0.111400	-1.696154
0.111500	-1.946732
0.111600	-1.886684
0.111700	-1.602999
0.111800	-1.457586
0.111900	-1.389099
0.112000	-1.497834
0.112100	-1.675381
0.112200	-1.769510
0.112300	-1.625395
0.112400	-1.570541
0.112500	-1.407600
0.112600	-1.494264
0.112700	-1.575734
0.112800	-1.623448
0.112900	-1.600078
0.113000	-1.548145
0.113100	-1.551390
0.113200	-1.566321
0.113300	-1.581252
0.113400	-1.591314
0.113500	-1.645844
0.113600	-1.686092
0.113700	-1.654932
0.113800	-1.693233
0.113900	-1.727639
0.114000	-1.658503
0.114100	-1.664021
0.114200	-1.637080
0.114300	-1.794827
0.114400	-1.993472
0.114500	-1.919792
0.114600	-1.798722
0.114700	-1.545548
0.114800	-1.652011
0.114900	-1.835400
0.115000	-2.087601
0.115100	-2.104479
0.115200	-2.001262
0.115300	-1.843190
0.115400	-1.834751
0.115500	-2.007754
0.115600	-2.186274
0.115700	-2.198609
0.115800	-2.214189
0.115900	-2.155114
0.116000	-2.246322
0.116100	-2.343048
0.116200	-2.447239
0.116300	-2.480672
0.116400	-2.452757
0.116500	-2.493979
0.116600	-2.565063
0.116700	-2.590705
0.116800	-2.593302
0.116900	-2.578371
0.117000	-2.586486
0.117100	-2.681264
0.117200	-2.765981
0.117300	-2.775718
0.117400	-2.773446
0.117500	-2.671202
0.117600	-2.662438
0.117700	-2.681264
0.117800	-2.663737
0.117900	-2.642639
0.118000	-2.623813
0.118100	-2.629655
0.118200	-2.607259
0.118300	-2.589082
0.118400	-2.576099
0.118500	-2.539421
0.118600	-2.551431
0.118700	-2.524166
0.118800	-2.531631
0.118900	-2.527412
0.119000	-2.502094
0.119100	-2.525139
0.119200	-2.548834
0.119300	-2.533579
0.119400	-2.607259
0.119500	-2.854917
0.119600	-2.948721
0.119700	-2.831222
0.119800	-2.545588
0.119900	-2.459898
0.120000	-2.515077
0.120100	-2.831871
0.120200	-2.909122
0.120300	-2.863680
0.120400	-2.610180
0.120500	-2.424194
0.120600	-2.424519
0.120700	-2.557598
0.120800	-2.692300
0.120900	-2.712424
0.121000	-2.624462
0.121100	-2.601092
0.121200	-2.604338
0.121300	-2.661140
0.121400	-2.690353
0.121500	-2.691975
0.121600	-2.713723
0.121700	-2.686133
0.121800	-2.720863
0.121900	-2.825379
0.122000	-2.877313
0.122100	-2.867900
0.122200	-2.838038
0.122300	-2.881857
0.122400	-2.950020
0.122500	-2.951967
0.122600	-2.853294
0.122700	-2.736443
0.122800	-2.852320
0.122900	-2.980855
0.123000	-3.143796
0.123100	-3.170412
0.123200	-2.993839
0.123300	-2.809475
0.123400	-2.785131
0.123500	-2.927299
0.123600	-3.146718
0.123700	-3.210012
0.123800	-3.130164
0.123900	-2.972091
0.124000	-2.893217
0.124100	-2.923728
0.124200	-2.942554
0.124300	-2.964301
0.124400	-2.929571
0.124500	-2.902955
0.124600	-2.848100
0.124700	-2.792272
0.124800	-2.734171
0.124900	-2.623164
0.125000	-2.557273
0.125100	-2.526113
0.125200	-2.460223
0.125300	-2.468337
0.125400	-2.413483
0.125500	-2.257683
0.125600	-2.280079
0.125700	-2.154465
0.125800	-2.090522
0.125900	-2.045081
0.126000	-2.015219
0.126100	-1.949329
0.126200	-1.828259
0.126300	-1.747763
0.126400	-1.686741
0.126500	-1.662073
0.126600	-1.717901
0.126700	-1.718550
0.126800	-1.703620
0.126900	-1.728937
0.127000	-1.618254
0.127100	-1.691286
0.127200	-1.575734
0.127300	-1.719849
0.127400	-1.600727
0.127500	-1.696803
0.127600	-1.661749
0.127700	-1.630589
0.127800	-1.334569
0.127900	-1.170655
0.128000	-1.126512
0.128100	-1.457911
0.128200	-1.641624
0.128300	-1.508221
0.128400	-1.254722
0.128500	-1.186884
0.128600	-1.131381
0.128700	-1.337166
0.128800	-1.429347
0.128900	-1.408250
0.129000	-1.260889
0.129100	-1.151505
0.129200	-1.092106
0.129300	-1.193376
0.129400	-1.253099
0.129500	-1.305357
0.129600	-1.282636
0.129700	-1.284259
0.129800	-1.310226
0.129900	-1.340736
0.130000	-1.357939
0.130100	-1.422856
0.130200	-1.442980
0.130300	-1.750684
0.130400	-1.641949
0.130500	-1.799372
0.130600	-1.758474
0.130700	-1.713682
0.130800	-1.770808
0.130900	-1.790608
0.131000	-2.152842
0.131100	-2.224575
0.131200	-2.204776
0.131300	-2.038914
0.131400	-1.933424
0.131500	-2.043782
0.131600	-2.236585
0.131700	-2.369989
0.131800	-2.273587
0.131900	-2.120059
0.132000	-1.978866
0.132100	-2.066503
0.132200	-2.153167
0.132300	-2.237883
0.132400	-2.179134
0.132500	-2.212890
0.132600	-2.164852
0.132700	-2.252165
0.132800	-2.283974
0.132900	-2.345320
0.133000	-2.321301
0.133100	-2.333635
0.133200	-2.373234
0.133300	-2.411860
0.133400	-2.366743
0.133500	-2.343697
0.133600	-2.359602
0.133700	-2.372261
0.133800	-2.501120
0.133900	-2.531956
0.134000	-2.496252
0.134100	-2.493655
0.134200	-2.358953
0.134300	-2.409263
0.134400	-2.412509
0.134500	-2.399526
0.134600	-2.423220
0.134700	-2.398227
0.134800	-2.415755
0.134900	-2.461846
0.135000	-2.450485
0.135100	-2.488137
0.135200	-2.487163
0.135300	-2.537474
0.135400	-2.500471
0.135500	-2.520271
0.135600	-2.549159
0.135700	-2.550457
0.135800	-2.617970
0.135900	-2.623488
0.136000	-2.686133
0.136100	-2.909771
0.136200	-3.124971
0.136300	-3.222995
0.136400	-2.926974
0.136500	-2.801685
0.136600	-2.758840
0.136700	-3.059080
0.136800	-3.320370
0.136900	-3.419693
0.137000	-3.322643
0.137100	-3.156780
0.137200	-3.113286
0.137300	-3.211310
0.137400	-3.390156
0.137500	-3.427808
0.137600	-3.412553
0.137700	-3.349908
0.137800	-3.307712
0.137900	-3.323292
0.138000	-3.331731
0.138100	-3.355750
0.138200	-3.351206
0.138300	-3.356075
0.138400	-3.391455
0.138500	-3.442090
0.138600	-3.531026
0.138700	-3.482338
0.138800	-3.497594
0.138900	-3.526482
0.139000	-3.557317
0.139100	-3.564134
0.139200	-3.497594
0.139300	-3.357049
0.139400	-3.269086
0.139500	-3.353803
0.139600	-3.511876
0.139700	-3.645605
0.139800	-3.550826
0.139900	-3.353154
0.140000	-3.225267
0.140100	-3.279473
0.140200	-3.479417
0.140300	-3.667027
0.140400	-3.636841
0.140500	-3.494673
0.140600	-3.425211
0.140700	-3.399894
0.140800	-3.422615
0.140900	-3.443388
0.141000	-3.448581
0.141100	-3.448257
0.141200	-3.390481
0.141300	-3.355750
0.141400	-3.288237
0.141500	-3.168140
0.141600	-3.062326
0.141700	-3.012340
0.141800	-3.033113
0.141900	-3.041877
0.142000	-3.028894
0.142100	-2.914965
0.142200	-2.755918
0.142300	-2.749102
0.142400	-2.496252
0.142500	-2.501445
0.142600	-2.426466
0.142700	-2.313186
0.142800	-2.185950
0.142900	-2.086952
0.143000	-1.930178
0.143100	-1.950952
0.143200	-1.925634
0.143300	-1.880517
0.143400	-1.867209
0.143500	-1.869806
0.143600	-1.882465
0.143700	-1.858446
0.143800	-1.856498
0.143900	-1.805539
0.144000	-1.850656
0.144100	-1.832154
0.144200	-1.913625
0.144300	-1.818522
0.144400	-1.837023
0.144500	-1.395266
0.144600	-1.405004
0.144700	-1.476412
0.144800	-1.846111
0.144900	-1.867209
0.145000	-1.695505
0.145100	-1.549118
0.145200	-1.406302
0.145300	-1.471543
0.145400	-1.626694
0.145500	-1.680574
0.145600	-1.729911
0.145700	-1.519581
0.145800	-1.525424
0.145900	-1.393319
0.146000	-1.525424
0.146100	-1.537758
0.146200	-1.537433
0.146300	-1.561777
0.146400	-1.547495
0.146500	-1.544899
0.146600	-1.547820
0.146700	-1.553987
0.146800	-1.522178
0.146900	-1.645519
0.147000	-1.689338
0.147100	-1.678951
0.147200	-1.727639
0.147300	-1.664994
0.147400	-1.646493
0.147500	-1.624422
0.147600	-1.753930
0.147700	-2.015219
0.147800	-1.978541
0.147900	-1.875973
0.148000	-1.609166
0.148100	-1.631887
0.148200	-1.781520
0.148300	-2.047353
0.148400	-2.103181
0.148500	-2.025281
0.148600	-1.813329
0.148700	-1.735753
0.148800	-1.859744
0.148900	-1.969128
0.149000	-2.007429
0.149100	-1.985682
0.149200	-1.948680
0.149300	-1.915897
0.149400	-1.934398
0.149500	-1.973997
0.149600	-2.014245
0.149700	-1.961014
0.149800	-1.966207
0.149900	-2.002560
0.150000	-1.991525
0.150100	-1.947381
0.150200	-1.939916
0.150300	-1.925634
0.150400	-1.980164
0.150500	-2.085005
0.150600	-2.123630
0.150700	-2.121358
0.150800	-2.023009
0.150900	-2.055467
0.151000	-2.097339
0.151100	-2.130771
0.151200	-2.139859
0.151300	-2.126227
0.151400	-2.184652
0.151500	-2.181730
0.151600	-2.226847
0.151700	-2.205425
0.151800	-2.259306
0.151900	-2.276184
0.152000	-2.278131
0.152100	-2.295010
0.152200	-2.249893
0.152300	-2.300203
0.152400	-2.248594
0.152500	-2.330714
0.152600	-2.306695
0.152700	-2.420299
0.152800	-2.628357
0.152900	-2.810124
0.153000	-2.756243
0.153100	-2.485540
0.153200	-2.364146
0.153300	-2.371611
0.153400	-2.678992
0.153500	-2.885103
0.153600	-2.949371
0.153700	-2.822458
0.153800	-2.688405
0.153900	-2.703336
0.154000	-2.817265
0.154100	-3.041877
0.154200	-3.090565
0.154300	-3.086345
0.154400	-3.013638
0.154500	-3.051290
0.154600	-3.088617
0.154700	-3.148016
0.154800	-3.202546
0.154900	-3.202871
0.155000	-3.191835
0.155100	-3.249286
0.155200	-3.341793
0.155300	-3.374252
0.155400	-3.392104
0.155500	-3.368084
0.155600	-3.472276
0.155700	-3.525833
0.155800	-3.552124
0.155900	-3.457994
0.156000	-3.323616
0.156100	-3.378796
0.156200	-3.519666
0.156300	-3.713118
0.156400	-3.809845
0.156500	-3.666703
0.156600	-3.448257
0.156700	-3.365163
0.156800	-3.483961
0.156900	-3.693319
0.157000	-3.807897
0.157100	-3.799783
0.157200	-3.660536
0.157300	-3.546931
0.157400	-3.527780
0.157500	-3.563809
0.157600	-3.607953
0.157700	-3.626454
0.157800	-3.586205
0.157900	-3.524534
0.158000	-3.435923
0.158100	-3.343091
0.158200	-3.200923
0.158300	-3.108092
0.158400	-3.060703
0.158500	-3.046746
0.158600	-3.025648
0.158700	-2.970793
0.158800	-2.789351
0.158900	-2.702038
0.159000	-2.687431
0.159100	-2.509235
0.159200	-2.516051
0.159300	-2.508586
0.159400	-2.434905
0.159500	-2.361874
0.159600	-2.262876
0.159700	-2.207048
0.159800	-2.227496
0.159900	-2.228146
0.160000	-2.241129
0.160100	-2.232690
0.160200	-2.272614
0.160300	-2.261253
0.160400	-2.237234
0.160500	-2.217759
0.160600	-2.241454
0.160700	-2.299554
0.160800	-2.291115
0.160900	-2.333960
0.161000	-2.230418
0.161100	-2.061959
0.161200	-1.790608
0.161300	-1.740947
0.161400	-2.066179
0.161500	-2.311564
0.161600	-2.425492
0.161700	-2.034370
0.161800	-2.023658
0.161900	-1.840269
0.162000	-2.050923
0.162100	-2.182379
0.162200	-2.267745
0.162300	-2.225549
0.162400	-2.069749
0.162500	-1.985682
0.162600	-1.973997
0.162700	-2.134341
0.162800	-2.130771
0.162900	-2.178809
0.163000	-2.142131
0.163100	-2.134017
0.163200	-2.160957
0.163300	-2.141482
0.163400	-2.129797
0.163500	-2.107076
0.163600	-2.270666
0.163700	-2.162255
0.163800	-2.226847
0.163900	-2.148947
0.164000	-2.096365
0.164100	-1.962961
0.164200	-1.987630
0.164300	-2.087601
0.164400	-2.236909
0.164500	-2.148298
0.164600	-1.975295
0.164700	-1.759123
0.164800	-1.806188
0.164900	-1.978541
0.165000	-2.159009
0.165100	-2.109997
0.165200	-1.997367
0.165300	-1.820794
0.165400	-1.830207
0.165500	-1.944785
0.165600	-2.070723
0.165700	-2.063257
0.165800	-2.113568
0.165900	-2.071047
0.166000	-2.141157
0.166100	-2.208022
0.166200	-2.248270
0.166300	-2.270341
0.166400	-2.245998
0.166500	-2.295010
0.166600	-2.332986
0.166700	-2.332986
0.166800	-2.319678
0.166900	-2.308967
0.167000	-2.278781
0.167100	-2.393683
0.167200	-2.478724
0.167300	-2.455029
0.167400	-2.429063
0.167500	-2.296633
0.167600	-2.363497
0.167700	-2.386542
0.167800	-2.344346
0.167900	-2.352461
0.168000	-2.341750
0.168100	-2.363497
0.168200	-2.372585
0.168300	-2.393683
0.168400	-2.388165
0.168500	-2.409588
0.168600	-2.426466
0.168700	-2.448213
0.168800	-2.470609
0.168900	-2.481645
0.169000	-2.482619
0.169100	-2.475803
0.169200	-2.418027
0.169300	-2.478399
0.169400	-2.561168
0.169500	-2.800386
0.169600	-2.901007
0.169700	-2.740014
0.169800	-2.451459
0.169900	-2.294361
0.170000	-2.404070
0.170100	-2.704310
0.170200	-2.818239
0.170300	-2.847127
0.170400	-2.641665
0.170500	-2.513454
0.170600	-2.530657
0.170700	-2.737417
0.170800	-2.847451
0.170900	-2.870172
0.171000	-2.778964
0.171100	-2.754296
0.171200	-2.767279
0.171300	-2.787403
0.171400	-2.806878
0.171500	-2.782210
0.171600	-2.763384
0.171700	-2.769876
0.171800	-2.817589
0.171900	-2.876988
0.172000	-2.851022
0.172100	-2.831222
0.172200	-2.837714
0.172300	-2.906525
0.172400	-2.939308
0.172500	-2.943203
0.172600	-2.810449
0.172700	-2.723460
0.172800	-2.837714
0.172900	-2.979557
0.173000	-3.169439
0.173100	-3.181773
0.173200	-3.027595
0.173300	-2.849723
0.173400	-2.850048
0.173500	-3.018832
0.173600	-3.249936
0.173700	-3.342442
0.173800	-3.256427
0.173900	-3.136006
0.174000	-3.075634
0.174100	-3.089591
0.174200	-3.150937
0.174300	-3.186966
0.174400	-3.183720
0.174500	-3.129190
0.174600	-3.087968
0.174700	-3.054860
0.174800	-2.984426
0.174900	-2.899709
0.175000	-2.843556
0.175100	-2.831222
0.175200	-2.837389
0.175300	-2.864005
0.175400	-2.796491
0.175500	-2.630629
0.175600	-2.601417
0.175700	-2.416079
0.175800	-2.434905
0.175900	-2.408939
0.176000	-2.354084
0.176100	-2.306046
0.176200	-2.209969
0.176300	-2.071047
0.176400	-2.095067
0.176500	-2.048327
0.176600	-2.121033
0.176700	-2.043458
0.176800	-2.118437
0.176900	-2.051572
0.177000	-2.065530
0.177100	-2.017167
0.177200	-2.040861
0.177300	-2.038914
0.177400	-2.048327
0.177500	-2.122656
0.177600	-2.075916
0.177700	-2.096365
0.177800	-1.799372
0.177900	-1.670512
0.178000	-1.636756
0.178100	-2.050599
0.178200	-2.149921
0.178300	-2.035992
0.178400	-1.712383
0.178500	-1.577032
0.178600	-1.568918
0.178700	-1.687066
0.178800	-1.810407
0.178900	-1.833128
0.179000	-1.664670
0.179100	-1.536135
0.179200	-1.446550
0.179300	-1.505949
0.179400	-1.473491
0.179500	-1.566970
0.179600	-1.537758
0.179700	-1.537758
0.179800	-1.541653
0.179900	-1.564049
0.180000	-1.553663
0.180100	-1.594560
0.180200	-1.664670
0.180300	-1.744192
0.180400	-1.739324
0.180500	-1.768861
0.180600	-1.859419
0.180700	-1.704918
0.180800	-1.811057
0.180900	-1.696479
0.181000	-2.029825
0.181100	-2.086952
0.181200	-2.048002
0.181300	-1.860393
0.181400	-1.732183
0.181500	-1.859419
0.181600	-2.043782
0.181700	-2.200881
0.181800	-2.142456
0.181900	-1.968804
0.182000	-1.820145
0.182100	-1.872078
0.182200	-1.984384
0.182300	-2.077864
0.182400	-2.039563
0.182500	-2.059362
0.182600	-1.993148
0.182700	-2.056117
0.182800	-2.106427
0.182900	-2.181081
0.183000	-2.167124
0.183100	-2.148623
0.183200	-2.193740
0.183300	-2.204451
0.183400	-2.202179
0.183500	-2.188547
0.183600	-2.199907
0.183700	-2.225224
0.183800	-2.381674
0.183900	-2.430361
0.184000	-2.419650
0.184100	-2.327468
0.184200	-2.311239
0.184300	-2.399850
0.184400	-2.414132
0.184500	-2.407316
0.184600	-2.412184
0.184700	-2.427115
0.184800	-2.462819
0.184900	-2.486514
0.185000	-2.514753
0.185100	-2.537798
0.185200	-2.581292
0.185300	-2.598495
0.185400	-2.619269
0.185500	-2.615049
0.185600	-2.637121
0.185700	-2.655622
0.185800	-2.693274
0.185900	-2.720214
0.186000	-2.720863
0.186100	-2.924702
0.186200	-3.147691
0.186300	-3.192160
0.186400	-2.958134
0.186500	-2.755269
0.186600	-2.710477
0.186700	-2.926974
0.186800	-3.211635
0.186900	-3.319397
0.187000	-3.230785
0.187100	-3.087968
0.187200	-3.042851
0.187300	-3.141849
0.187400	-3.330108
0.187500	-3.452801
0.187600	-3.409307
0.187700	-3.362242
0.187800	-3.408658
0.187900	-3.405412
0.188000	-3.456371
0.188100	-3.460591
0.188200	-3.482014
0.188300	-3.474873
0.188400	-3.476171
0.188500	-3.529079
0.188600	-3.556019
0.188700	-3.507981
0.188800	-3.455073
0.188900	-3.464811
0.189000	-3.483961
0.189100	-3.495322
0.189200	-3.416772
0.189300	-3.256752
0.189400	-3.146069
0.189500	-3.275578
0.189600	-3.438844
0.189700	-3.573871
0.189800	-3.494348
0.189900	-3.277525
0.190000	-3.128866
0.190100	-3.165544
0.190200	-3.349908
0.190300	-3.525508
0.190400	-3.542062
0.190500	-3.410280
0.190600	-3.263893
0.190700	-3.221372
0.190800	-3.259349
0.190900	-3.305764
0.191000	-3.331406
0.191100	-3.332705
0.191200	-3.275902
0.191300	-3.233057
0.191400	-3.203520
0.191500	-3.120102
0.191600	-3.000979
0.191700	-2.972091
0.191800	-2.984426
0.191900	-2.964951
0.192000	-2.951643
0.192100	-2.800062
0.192200	-2.663737
0.192300	-2.659517
0.192400	-2.393359
0.192500	-2.440099
0.192600	-2.380051
0.192700	-2.301501
0.192800	-2.215162
0.192900	-2.074942
0.193000	-2.004183
0.193100	-1.979515
0.193200	-1.960040
0.193300	-1.988603
0.193400	-1.894799
0.193500	-1.952575
0.193600	-1.855524
0.193700	-1.855849
0.193800	-1.777300
0.193900	-1.807811
0.194000	-1.835725
0.194100	-1.833128
0.194200	-1.805539
0.194300	-1.789959
0.194400	-1.601052
0.194500	-1.259915
0.194600	-1.191104
0.194700	-1.356316
0.194800	-1.690961
0.194900	-1.627992
0.195000	-1.440383
0.195100	-1.119047
0.195200	-0.943772
0.195300	-1.023620
0.195400	-1.154102
0.195500	-1.232975
0.195600	-1.135600
0.195700	-0.962598
0.195800	-0.889243
0.195900	-0.804202
0.196000	-0.898655
0.196100	-0.890866
0.196200	-0.928517
0.196300	-0.914560
0.196400	-0.909367
0.196500	-0.938255
0.196600	-0.960002
0.196700	-0.957729
0.196800	-1.006741
0.196900	-1.024269
0.197000	-1.195648
0.197100	-1.176173
0.197200	-1.214474
0.197300	-1.169357
0.197400	-1.137548
0.197500	-1.170331
0.197600	-1.295619
0.197700	-1.662722
0.197800	-1.618579
0.197900	-1.555610
0.198000	-1.340412
0.198100	-1.403056
0.198200	-1.603973
0.198300	-1.877271
0.198400	-1.943486
0.198500	-1.851954
0.198600	-1.672135
0.198700	-1.612087
0.198800	-1.774379
0.198900	-1.900641
0.199000	-1.961014
0.199100	-1.904536
0.199200	-1.887983
0.199300	-1.902589
0.199400	-1.989577
0.199500	-2.059362
0.199600	-2.102532
0.199700	-2.094742
0.199800	-2.131420
0.199900	-2.201854
0.200000	-2.241778
0.200100	-2.241129
0.200200	-2.242427
0.200300	-2.311239
0.200400	-2.354409
0.200500	-2.524166
0.200600	-2.558247
0.200700	-2.578371
0.200800	-2.460872
0.200900	-2.571879
0.201000	-2.642639
0.201100	-2.668605
0.201200	-2.692949
0.201300	-2.723135
0.201400	-2.751374
0.201500	-2.802009
0.201600	-2.816616
0.201700	-2.848100
0.201800	-2.885427
0.201900	-2.940931
0.202000	-2.952941
0.202100	-2.995786
0.202200	-3.003251
0.202300	-3.061677
0.202400	-3.104197
0.202500	-3.164570
0.202600	-3.232733
0.202700	-3.318098
0.202800	-3.587179
0.202900	-3.791019
0.203000	-3.679361
0.203100	-3.490453
0.203200	-3.290509
0.203300	-3.349583
0.203400	-3.626454
0.203500	-3.826399
0.203600	-3.866972
0.203700	-3.708250
0.203800	-3.565757
0.203900	-3.519666
0.204000	-3.738761
0.204100	-3.882552
0.204200	-3.894886
0.204300	-3.888070
0.204400	-3.784852
0.204500	-3.766675
0.204600	-3.786799
0.204700	-3.772842
0.204800	-3.758560
0.204900	-3.669299
0.205000	-3.604707
0.205100	-3.605681
0.205200	-3.580038
0.205300	-3.556993
0.205400	-3.487532
0.205500	-3.402815
0.205600	-3.366137
0.205700	-3.344714
0.205800	-3.278499
0.205900	-3.119777
0.206000	-2.894840
0.206100	-2.845828
0.206200	-2.939958
0.206300	-3.067519
0.206400	-3.094784
0.206500	-2.892893
0.206600	-2.614075
0.206700	-2.480022
0.206800	-2.587459
0.206900	-2.792272
0.207000	-2.903604
0.207100	-2.814344
0.207200	-2.612452
0.207300	-2.497550
0.207400	-2.461196
0.207500	-2.508261
0.207600	-2.514428
0.207700	-2.451459
0.207800	-2.374208
0.207900	-2.277807
0.208000	-2.240155
0.208100	-2.167773
0.208200	-2.026255
0.208300	-1.941539
0.208400	-1.864937
0.208500	-1.895448
0.208600	-1.877271
0.208700	-1.852928
0.208800	-1.699076
0.208900	-1.643896
0.209000	-1.540355
0.209100	-1.457262
0.209200	-1.460832
0.209300	-1.430970
0.209400	-1.356966
0.209500	-1.249204
0.209600	-1.075877
0.209700	-1.046990
0.209800	-1.051209
0.209900	-1.059648
0.210000	-1.063543
0.210100	-1.011610
0.210200	-1.036927
0.210300	-1.000574
0.210400	-0.947018
0.210500	-0.945395
0.210600	-0.871066
0.210700	-0.952536
0.210800	-0.944097
0.210900	-1.052507
0.211000	-0.906445
0.211100	-0.802904
0.211200	-0.436451
0.211300	-0.502990
0.211400	-0.715591
0.211500	-1.079448
0.211600	-1.036927
0.211700	-0.787973
0.211800	-0.710723
0.211900	-0.588680
0.212000	-0.827247
0.212100	-0.950264
0.212200	-1.042770
0.212300	-0.997328
0.212400	-0.852565
0.212500	-0.799983
0.212600	-0.969739
0.212700	-1.095028
0.212800	-1.213176
0.212900	-1.242388
0.213000	-1.292049
0.213100	-1.310875
0.213200	-1.387152
0.213300	-1.442006
0.213400	-1.467324
0.213500	-1.578655
0.213600	-1.740622
0.213700	-1.727963
0.213800	-1.830532
0.213900	-1.800670
0.214000	-1.789959
0.214100	-1.723095
0.214200	-1.746465
0.214300	-1.911353
0.214400	-2.131095
0.214500	-2.080460
0.214600	-1.944135
0.214700	-1.740622
0.214800	-1.837997
0.214900	-2.018140
0.215000	-2.276833
0.215100	-2.259630
0.215200	-2.108699
0.215300	-1.939267
0.215400	-1.922713
0.215500	-2.088250
0.215600	-2.228470
0.215700	-2.202504
0.215800	-2.229769
0.215900	-2.142131
0.216000	-2.216461
0.216100	-2.269043
0.216200	-2.342074
0.216300	-2.376480
0.216400	-2.340451
0.216500	-2.396280
0.216600	-2.429387
0.216700	-2.430686
0.216800	-2.409912
0.216900	-2.424519
0.217000	-2.437177
0.217100	-2.579345
0.217200	-2.691651
0.217300	-2.677045
0.217400	-2.642314
0.217500	-2.504042
0.217600	-2.589407
0.217700	-2.602390
0.217800	-2.605961
0.217900	-2.589732
0.218000	-2.612777
0.218100	-2.579020
0.218200	-2.570581
0.218300	-2.573502
0.218400	-2.542018
0.218500	-2.566686
0.218600	-2.561817
0.218700	-2.555326
0.218800	-2.551755
0.218900	-2.554027
0.219000	-2.595250
0.219100	-2.598495
0.219200	-2.604662
0.219300	-2.655297
0.219400	-2.774744
0.219500	-3.046421
0.219600	-3.109391
0.219700	-2.974039
0.219800	-2.711775
0.219900	-2.643288
0.220000	-2.808826
0.220100	-3.103873
0.220200	-3.264867
0.220300	-3.227539
0.220400	-3.031166
0.220500	-2.886401
0.220600	-2.924378
0.220700	-3.052913
0.220800	-3.192809
0.220900	-3.170088
0.221000	-3.116531
0.221100	-3.057132
0.221200	-2.998707
0.221300	-3.016884
0.221400	-3.018507
0.221500	-3.003251
0.221600	-2.973065
0.221700	-2.924378
0.221800	-2.940282
0.221900	-2.971118
0.222000	-2.925351
0.222100	-2.852320
0.222200	-2.880234
0.222300	-2.893867
0.222400	-2.889972
0.222500	-2.834468
0.222600	-2.703336
0.222700	-2.594600
0.222800	-2.672176
0.222900	-2.861408
0.223000	-3.045447
0.223100	-3.053887
0.223200	-2.855566
0.223300	-2.709828
0.223400	-2.696195
0.223500	-2.891595
0.223600	-3.091863
0.223700	-3.168465
0.223800	-3.085696
0.223900	-2.961705
0.224000	-2.924378
0.224100	-2.951967
0.224200	-2.980531
0.224300	-3.050316
0.224400	-3.048693
0.224500	-3.033113
0.224600	-2.984750
0.224700	-2.952616
0.224800	-2.879585
0.224900	-2.753646
0.225000	-2.712749
0.225100	-2.717942
0.225200	-2.724758
0.225300	-2.723460
0.225400	-2.621541
0.225500	-2.446590
0.225600	-2.434581
0.225700	-2.178160
0.225800	-2.231716
0.225900	-2.195038
0.226000	-2.134341
0.226100	-2.032422
0.226200	-1.960689
0.226300	-1.798398
0.226400	-1.776651
0.226500	-1.829558
0.226600	-1.811381
0.226700	-1.843515
0.226800	-1.827286
0.226900	-1.839295
0.227000	-1.798073
0.227100	-1.769185
0.227200	-1.766913
0.227300	-1.760746
0.227400	-1.831181
0.227500	-1.883763
0.227600	-1.795152
0.227700	-1.819171
0.227800	-1.425128
0.227900	-1.369300
0.228000	-1.252450
0.228100	-1.816574
0.228200	-1.854875
0.228300	-1.729911
0.228400	-1.518932
0.228500	-1.261214
0.228600	-1.323858
0.228700	-1.441682
0.228800	-1.631238
0.228900	-1.578006
0.229000	-1.442006
0.229100	-1.331324
0.229200	-1.196946
0.229300	-1.345605
0.229400	-1.353071
0.229500	-1.432593
0.229600	-1.390073
0.229700	-1.384880
0.229800	-1.397538
0.229900	-1.405977
0.230000	-1.418636
0.230100	-1.406627
0.230200	-1.504975
0.230300	-1.596183
0.230400	-1.612412
0.230500	-1.674083
0.230600	-1.632536
0.230700	-1.592288
0.230800	-1.655581
0.230900	-1.624746
0.231000	-1.961014
0.231100	-1.999639
0.231200	-1.950952
0.231300	-1.754579
0.231400	-1.656555
0.231500	-1.797424
0.231600	-2.007429
0.231700	-2.162580
0.231800	-2.128499
0.231900	-1.984708
0.232000	-1.914274
0.232100	-1.965558
0.232200	-2.128499
0.232300	-2.229769
0.232400	-2.201205
0.232500	-2.254112
0.232600	-2.221329
0.232700	-2.297931
0.232800	-2.356031
0.232900	-2.415430
0.233000	-2.455354
0.233100	-2.436528
0.233200	-2.501769
0.233300	-2.538772
0.233400	-2.530333
0.233500	-2.520920
0.233600	-2.528061
0.233700	-2.555650
0.233800	-2.706906
0.233900	-2.771174
0.234000	-2.768253
0.234100	-2.620892
0.234200	-2.639717
0.234300	-2.734496
0.234400	-2.758840
0.234500	-2.780262
0.234600	-2.803632
0.234700	-2.825379
0.234800	-2.872444
0.234900	-2.864005
0.235000	-2.901007
0.235100	-2.900034
0.235200	-2.891595
0.235300	-2.875365
0.235400	-2.876664
0.235500	-2.858487
0.235600	-2.844205
0.235700	-2.848100
0.235800	-2.857838
0.235900	-2.839661
0.236000	-2.863680
0.236100	-3.006497
0.236200	-3.151262
0.236300	-3.177553
0.236400	-2.867251
0.236500	-2.725083
0.236600	-2.644262
0.236700	-2.821160
0.236800	-3.127567
0.236900	-3.202222
0.237000	-3.097056
0.237100	-2.881208
0.237200	-2.795842
0.237300	-2.885752
0.237400	-3.055185
0.237500	-3.102899
0.237600	-3.081801
0.237700	-2.966573
0.237800	-2.954564
0.237900	-2.934440
0.238000	-2.955862
0.238100	-2.949046
0.238200	-2.893867
0.238300	-2.874067
0.238400	-2.854267
0.238500	-2.931843
0.238600	-2.995461
0.238700	-2.938010
0.238800	-2.875041
0.238900	-2.925027
0.239000	-2.933790
0.239100	-2.954564
0.239200	-2.842907
0.239300	-2.693923
0.239400	-2.661140
0.239500	-2.774420
0.239600	-2.950020
0.239700	-3.105820
0.239800	-3.017209
0.239900	-2.801360
0.240000	-2.692300
0.240100	-2.753971
0.240200	-2.921456
0.240300	-3.079204
0.240400	-3.128216
0.240500	-3.002927
0.240600	-2.902306
0.240700	-2.866926
0.240800	-2.937685
0.240900	-3.000006
0.241000	-3.049018
0.241100	-3.058431
0.241200	-3.046421
0.241300	-3.021753
0.241400	-2.997409
0.241500	-2.923404
0.241600	-2.861733
0.241700	-2.820511
0.241800	-2.869847
0.241900	-2.863031
0.242000	-2.888998
0.242100	-2.757217
0.242200	-2.670228
0.242300	-2.684510
0.242400	-2.465416
0.242500	-2.544614
0.242600	-2.506314
0.242700	-2.437502
0.242800	-2.371287
0.242900	-2.258981
0.243000	-2.218733
0.243100	-2.188222
0.243200	-2.205425
0.243300	-2.218408
0.243400	-2.184002
0.243500	-2.194714
0.243600	-2.191143
0.243700	-2.132394
0.243800	-2.122332
0.243900	-2.139534
0.244000	-2.123305
0.244100	-2.168422
0.244200	-2.094417
0.244300	-2.079162
0.244400	-1.878894
0.244500	-1.671486
0.244600	-1.351448
0.244700	-1.694856
0.244800	-1.956470
0.244900	-1.991200
0.245000	-1.767562
0.245100	-1.588717
0.245200	-1.379686
0.245300	-1.415715
0.245400	-1.533214
0.245500	-1.576383
0.245600	-1.557233
0.245700	-1.368651
0.245800	-1.268030
0.245900	-1.263486
0.246000	-1.245958
0.246100	-1.217071
0.246200	-1.197920
0.246300	-1.210254
0.246400	-1.135276
0.246500	-1.146636
0.246600	-1.112555
0.246700	-1.097624
0.246800	-1.051209
0.246900	-1.200192
0.247000	-1.216097
0.247100	-1.227457
0.247200	-1.217071
0.247300	-1.144689
0.247400	-1.118398
0.247500	-1.090484
0.247600	-1.209930
0.247700	-1.489395
0.247800	-1.400460
0.247900	-1.325156
0.248000	-1.082369
0.248100	-1.101844
0.248200	-1.238818
0.248300	-1.450770
0.248400	-1.470894
0.248500	-1.385853
0.248600	-1.212526
0.248700	-1.160593
0.248800	-1.246608
0.248900	-1.367028
0.249000	-1.363782
0.249100	-1.337166
0.249200	-1.305357
0.249300	-1.352097
0.249400	-1.425777
0.249500	-1.480956
0.249600	-1.495562
0.249700	-1.465376
0.249800	-1.530942
0.249900	-1.588717
0.250000	-1.623772
0.250100	-1.643247
0.250200	-1.633510
0.250300	-1.636106
0.250400	-1.739648
0.250500	-1.924336
0.250600	-1.977243
0.250700	-1.997692
0.250800	-1.941214
0.250900	-2.006455
0.251000	-2.098962
0.251100	-2.102857
0.251200	-2.125577
0.251300	-2.166150
0.251400	-2.200556
0.251500	-2.261902
0.251600	-2.305721
0.251700	-2.307019
0.251800	-2.353110
0.251900	-2.378752
0.252000	-2.404070
0.252100	-2.410561
0.252200	-2.440099
0.252300	-2.432958
0.252400	-2.438476
0.252500	-2.452433
0.252600	-2.521894
0.252700	-2.545588
0.252800	-2.805904
0.252900	-2.977285
0.253000	-2.925676
0.253100	-2.646209
0.253200	-2.494629
0.253300	-2.614075
0.253400	-2.839661
0.253500	-3.069791
0.253600	-3.094784
0.253700	-2.902630
0.253800	-2.730926
0.253900	-2.728004
0.254000	-2.884454
0.254100	-2.995786
0.254200	-3.003901
0.254300	-2.955213
0.254400	-2.923079
0.254500	-2.891919
0.254600	-2.929895
0.254700	-2.932168
0.254800	-2.927948
0.254900	-2.895165
0.255000	-2.887375
0.255100	-2.947748
0.255200	-2.966249
0.255300	-2.985399
0.255400	-2.961705
0.255500	-2.954239
0.255600	-2.988645
0.255700	-3.007471
0.255800	-3.075958
0.255900	-2.944502
0.256000	-2.850372
0.256100	-2.872120
0.256200	-2.986049
0.256300	-3.163596
0.256400	-3.251234
0.256500	-3.109715
0.256600	-2.943528
0.256700	-2.872444
0.256800	-2.986049
0.256900	-3.182747
0.257000	-3.308036
0.257100	-3.262594
0.257200	-3.158078
0.257300	-3.101276
0.257400	-3.113935
0.257500	-3.159701
0.257600	-3.184370
0.257700	-3.186317
0.257800	-3.162298
0.257900	-3.144121
0.258000	-3.119777
0.258100	-3.088942
0.258200	-2.976960
0.258300	-2.891919
0.258400	-2.867575
0.258500	-2.884454
0.258600	-2.900683
0.258700	-2.866602
0.258800	-2.690353
0.258900	-2.625111
0.259000	-2.424843
0.259100	-2.448213
0.259200	-2.408614
0.259300	-2.403096
0.259400	-2.314160
0.259500	-2.250217
0.259600	-2.086303
0.259700	-2.061635
0.259800	-2.081110
0.259900	-2.054818
0.260000	-2.098312
0.260100	-2.076241
0.260200	-2.127200
0.260300	-2.077215
0.260400	-2.058064
0.260500	-2.087926
0.260600	-2.106427
0.260700	-2.130446
0.260800	-2.252489
0.260900	-2.242752
0.261000	-2.238532
0.261100	-1.993148
0.261200	-1.840269
0.261300	-1.805539
0.261400	-2.085329
0.261500	-2.455354
0.261600	-2.254437
0.261700	-2.085005
0.261800	-1.874026
0.261900	-1.819496
0.262000	-1.994770
0.262100	-2.126551
0.262200	-2.209644
0.262300	-2.073320
0.262400	-1.978866
0.262500	-1.872727
0.262600	-1.946408
0.262700	-2.018140
0.262800	-2.006455
0.262900	-1.954522
0.263000	-1.944785
0.263100	-1.929205
0.263200	-1.936021
0.263300	-1.945434
0.263400	-1.910703
0.263500	-1.952575
0.263600	-2.016193
0.263700	-2.066503
0.263800	-2.081110
0.263900	-2.116489
0.264000	-1.965883
0.264100	-2.035992
0.264200	-1.886035
0.264300	-2.240480
0.264400	-2.345320
0.264500	-2.293387
0.264600	-2.098637
0.264700	-1.956794
0.264800	-1.996069
0.264900	-2.202179
0.265000	-2.374533
0.265100	-2.327468
0.265200	-2.162255
0.265300	-1.977892
0.265400	-2.013272
0.265500	-2.143754
0.265600	-2.248594
0.265700	-2.166150
0.265800	-2.147324
0.265900	-2.072995
0.266000	-2.114866
0.266100	-2.144403
0.266200	-2.168747
0.266300	-2.133043
0.266400	-2.084680
0.266500	-2.108699
0.266600	-2.153492
0.266700	-2.135315
0.266800	-2.139210
0.266900	-2.110971
0.267000	-2.079811
0.267100	-2.171344
0.267200	-2.272938
0.267300	-2.251840
0.267400	-2.237883
0.267500	-2.187573
0.267600	-2.164527
0.267700	-2.179458
0.267800	-2.161606
0.267900	-2.179134
0.268000	-2.214189
0.268100	-2.242427
0.268200	-2.260604
0.268300	-2.306370
0.268400	-2.330389
0.268500	-2.357654
0.268600	-2.391411
0.268700	-2.388165
0.268800	-2.434256
0.268900	-2.449836
0.269000	-2.496252
0.269100	-2.511832
0.269200	-2.562467
0.269300	-2.578696
0.269400	-2.710477
0.269500	-2.965924
0.269600	-3.068493
0.269700	-2.919184
0.269800	-2.704634
0.269900	-2.602390
0.270000	-2.765981
0.270100	-3.115558
0.270200	-3.283043
0.270300	-3.236303
0.270400	-3.096732
0.270500	-3.011042
0.270600	-3.110364
0.270700	-3.290184
0.270800	-3.433326
0.270900	-3.459617
0.271000	-3.405412
0.271100	-3.383015
0.271200	-3.416123
0.271300	-3.484935
0.271400	-3.524859
0.271500	-3.520315
0.271600	-3.497918
0.271700	-3.494673
0.271800	-3.528754
0.271900	-3.616717
0.272000	-3.595943
0.272100	-3.594645
0.272200	-3.599838
0.272300	-3.614769
0.272400	-3.606005
0.272500	-3.625156
0.272600	-3.465460
0.272700	-3.397622
0.272800	-3.409631
0.272900	-3.568353
0.273000	-3.732593
0.273100	-3.693319
0.273200	-3.481689
0.273300	-3.300895
0.273400	-3.296027
0.273500	-3.457670
0.273600	-3.613146
0.273700	-3.650798
0.273800	-3.513174
0.273900	-3.382691
0.274000	-3.332380
0.274100	-3.353803
0.274200	-3.403140
0.274300	-3.412228
0.274400	-3.394376
0.274500	-3.357698
0.274600	-3.264867
0.274700	-3.235005
0.274800	-3.144121
0.274900	-3.017858
0.275000	-2.947423
0.275100	-2.948721
0.275200	-2.942554
0.275300	-2.891595
0.275400	-2.770200
0.275500	-2.629655
0.275600	-2.578371
0.275700	-2.337855
0.275800	-2.327468
0.275900	-2.271964
0.276000	-2.213864
0.276100	-2.063257
0.276200	-1.958742
0.276300	-1.763992
0.276400	-1.701348
0.276500	-1.687066
0.276600	-1.639677
0.276700	-1.556908
0.276800	-1.575734
0.276900	-1.450445
0.277000	-1.451094
0.277100	-1.311849
0.277200	-1.286207
0.277300	-1.226808
0.277400	-1.178445
0.277500	-1.221290
0.277600	-1.062894
0.277700	-1.100546
0.277800	-0.656517
0.277900	-0.621463
0.278000	-0.477673
0.278100	-1.017128
0.278200	-0.929491
0.278300	-0.811668
0.278400	-0.550704
0.278500	-0.354981
0.278600	-0.370561
0.278700	-0.524088
0.278800	-0.660412
0.278900	-0.606207
0.279000	-0.504288
0.279100	-0.379324
0.279200	-0.303372
0.279300	-0.345243
0.279400	-0.343620
0.279500	-0.371210
0.279600	-0.297854
0.279700	-0.341673
0.279800	-0.304021
0.279900	-0.292661
0.280000	-0.285845
0.280100	-0.304671
0.280200	-0.324470
0.280300	-0.494551
0.280400	-0.422818
0.280500	-0.567906
0.280600	-0.495849
0.280700	-0.427038
0.280800	-0.424441
0.280900	-0.462417
0.281000	-0.765901
0.281100	-0.793166
0.281200	-0.751620
0.281300	-0.555572
0.281400	-0.523114
0.281500	-0.636393
0.281600	-0.900278
0.281700	-1.048937
0.281800	-1.037252
0.281900	-0.930140
0.282000	-0.883076
0.282100	-0.967142
0.282200	-1.129109
0.282300	-1.240765
0.282400	-1.192078
0.282500	-1.263161
0.282600	-1.259915
0.282700	-1.408250
0.282800	-1.448173
0.282900	-1.563400
0.283000	-1.593262
0.283100	-1.663371
0.283200	-1.733157
0.283300	-1.806512
0.283400	-1.805214
0.283500	-1.867859
0.283600	-1.914274
0.283700	-2.007429
0.283800	-2.196337
0.283900	-2.276509
0.284000	-2.340127
0.284100	-2.290790
0.284200	-2.340776
0.284300	-2.460547
0.284400	-2.507612
0.284500	-2.587135
0.284600	-2.611803
0.284700	-2.681264
0.284800	-2.749751
0.284900	-2.781561
0.285000	-2.868874
0.285100	-2.916263
0.285200	-2.977285
0.285300	-3.005848
0.285400	-3.058431
0.285500	-3.123672
0.285600	-3.141200
0.285700	-3.207740
0.285800	-3.302194
0.285900	-3.363216
0.286000	-3.485260
0.286100	-3.670273
0.286200	-3.977006
0.286300	-3.957531
0.286400	-3.767324
0.286500	-3.611523
0.286600	-3.617366
0.286700	-3.854638
0.286800	-4.071136
0.286900	-4.122096
0.287000	-3.961426
0.287100	-3.729348
0.287200	-3.654368
0.287300	-3.732918
0.287400	-3.895211
0.287500	-3.929617
0.287600	-3.875086
0.287700	-3.792966
0.287800	-3.704030
0.287900	-3.691047
0.288000	-3.699810
0.288100	-3.680335
0.288200	-3.633595
0.288300	-3.580038
0.288400	-3.572248
0.288500	-3.603733
0.288600	-3.521938
0.288700	-3.510902
0.288800	-3.409307
0.288900	-3.396648
0.289000	-3.390156
0.289100	-3.350881
0.289200	-3.244093
0.289300	-3.050965
0.289400	-2.957810
0.289500	-3.051615
0.289600	-3.172684
0.289700	-3.261945
0.289800	-3.100302
0.289900	-2.822458
0.290000	-2.649455
0.290100	-2.656920
0.290200	-2.813045
0.290300	-2.915938
0.290400	-2.857513
0.290500	-2.704634
0.290600	-2.565063
0.290700	-2.499497
0.290800	-2.473855
0.290900	-2.483268
0.291000	-2.474504
0.291100	-2.421597
0.291200	-2.391411
0.291300	-2.329091
0.291400	-2.252489
0.291500	-2.135639
0.291600	-2.039887
0.291700	-2.016842
0.291800	-2.025606
0.291900	-2.017491
0.292000	-2.041835
0.292100	-1.887009
0.292200	-1.790283
0.292300	-1.763667
0.292400	-1.581252
0.292500	-1.616307
0.292600	-1.585472
0.292700	-1.524775
0.292800	-1.407600
0.292900	-1.299514
0.293000	-1.277118
0.293100	-1.282636
0.293200	-1.311524
0.293300	-1.314445
0.293400	-1.315094
0.293500	-1.395591
0.293600	-1.399810
0.293700	-1.388775
0.293800	-1.383257
0.293900	-1.402732
0.294000	-1.455639
0.294100	-1.575085
0.294200	-1.584822
0.294300	-1.609491
0.294400	-1.446550
0.294500	-1.184937
0.294600	-1.167085
0.294700	-1.313147
0.294800	-1.802293
0.294900	-1.727639
0.295000	-1.647791
0.295100	-1.275495
0.295200	-1.316068
0.295300	-1.292698
0.295400	-1.467648
0.295500	-1.637080
0.295600	-1.508870
0.295700	-1.385853
0.295800	-1.235247
0.295900	-1.298865
0.296000	-1.283935
0.296100	-1.346903
0.296200	-1.379037
0.296300	-1.343333
0.296400	-1.318989
0.296500	-1.366054
0.296600	-1.389424
0.296700	-1.406302
0.296800	-1.438111
0.296900	-1.548794
0.297000	-1.551066
0.297100	-1.585796
0.297200	-1.568269
0.297300	-1.543925
0.297400	-1.462130
0.297500	-1.496536
0.297600	-1.584498
0.297700	-1.889281
0.297800	-1.818522
0.297900	-1.741920
0.298000	-1.556584
0.298100	-1.591639
0.298200	-1.779247
0.298300	-2.030475
0.298400	-2.087601
0.298500	-2.057740
0.298600	-1.864288
0.298700	-1.843839
0.298800	-1.990551
0.298900	-2.118112
0.299000	-2.177835
0.299100	-2.153492
0.299200	-2.170370
0.299300	-2.170370
0.299400	-2.251516
0.299500	-2.341101
0.299600	-2.379726
0.299700	-2.372910
0.299800	-2.381349
0.299900	-2.420624
0.300000	-2.431659
0.300100	-2.403096
0.300200	-2.407965
0.300300	-2.387191
0.300400	-2.459574
0.300500	-2.608233
0.300600	-2.596223
0.300700	-2.592977
0.300800	-2.421922
0.300900	-2.475478
0.301000	-2.537474
0.301100	-2.521569
0.301200	-2.531956
0.301300	-2.496252
0.301400	-2.483268
0.301500	-2.467364
0.301600	-2.441397
0.301700	-2.434581
0.301800	-2.401798
0.301900	-2.406666
0.302000	-2.386542
0.302100	-2.393683
0.302200	-2.374208
0.302300	-2.379401
0.302400	-2.381998
0.302500	-2.375506
0.302600	-2.391736
0.302700	-2.446590
0.302800	-2.661465
0.302900	-2.799737
0.303000	-2.718267
0.303100	-2.447239
0.303200	-2.277158
0.303300	-2.317731
0.303400	-2.598495
0.303500	-2.784482
0.303600	-2.753322
0.303700	-2.574152
0.303800	-2.379401
0.303900	-2.422896
0.304000	-2.552729
0.304100	-2.697169
0.304200	-2.766630
0.304300	-2.657245
0.304400	-2.600118
0.304500	-2.591030
0.304600	-2.609531
0.304700	-2.667307
0.304800	-2.656920
0.304900	-2.660166
0.305000	-2.655947
0.305100	-2.687107
0.305200	-2.712749
0.305300	-2.753646
0.305400	-2.712749
0.305500	-2.734821
0.305600	-2.770849
0.305700	-2.789026
0.305800	-2.772472
0.305900	-2.650429
0.306000	-2.523841
0.306100	-2.492032
0.306200	-2.635173
0.306300	-2.777341
0.306400	-2.824081
0.306500	-2.646209
0.306600	-2.451459
0.306700	-2.368041
0.306800	-2.439125
0.306900	-2.623813
0.307000	-2.741961
0.307100	-2.679966
0.307200	-2.532605
0.307300	-2.421597
0.307400	-2.407316
0.307500	-2.446266
0.307600	-2.478399
0.307700	-2.473206
0.307800	-2.435554
0.307900	-2.393683
0.308000	-2.353759
0.308100	-2.258332
0.308200	-2.138885
0.308300	-2.075267
0.308400	-2.067802
0.308500	-2.096689
0.308600	-2.111296
0.308700	-2.106102
0.308800	-1.957768
0.308900	-1.920441
0.309000	-1.900966
0.309100	-1.797749
0.309200	-1.838971
0.309300	-1.831830
0.309400	-1.794827
0.309500	-1.780221
0.309600	-1.695830
0.309700	-1.728288
0.309800	-1.746140
0.309900	-1.838321
0.310000	-1.925310
0.310100	-1.947706
0.310200	-2.106752
0.310300	-2.080136
0.310400	-2.188871
0.310500	-2.199582
0.310600	-2.408614
0.310700	-2.412834
0.310800	-2.545913
0.310900	-2.544939
0.311000	-2.578371
0.311100	-2.405368
0.311200	-2.204451
0.311300	-2.308967
0.311400	-2.583564
0.311500	-2.969819
0.311600	-2.885103
0.311700	-2.662763
0.311800	-2.505989
0.311900	-2.382647
0.312000	-2.667307
0.312100	-2.750401
0.312200	-2.948721
0.312300	-2.780262
0.312400	-2.720214
0.312500	-2.596548
0.312600	-2.586486
0.312700	-2.661140
0.312800	-2.571879
0.312900	-2.663087
0.313000	-2.626734
0.313100	-2.650753
0.313200	-2.589082
0.313300	-2.571230
0.313400	-2.479049
0.313500	-2.423545
0.313600	-2.576424
0.313700	-2.566362
0.313800	-2.641340
0.313900	-2.588109
0.314000	-2.477426
0.314100	-2.426466
0.314200	-2.370638
0.314300	-2.629006
0.314400	-2.700415
0.314500	-2.684510
0.314600	-2.485540
0.314700	-2.282026
0.314800	-2.332337
0.314900	-2.504042
0.315000	-2.674773
0.315100	-2.639717
0.315200	-2.516700
0.315300	-2.288518
0.315400	-2.290141
0.315500	-2.384595
0.315600	-2.466714
0.315700	-2.386867
0.315800	-2.348566
0.315900	-2.260279
0.316000	-2.283000
0.316100	-2.275210
0.316200	-2.277482
0.316300	-2.219706
0.316400	-2.157711
0.316500	-2.163878
0.316600	-2.162904
0.316700	-2.120059
0.316800	-2.043133
0.316900	-1.986331
0.317000	-1.945109
0.317100	-2.031124
0.317200	-2.070723
0.317300	-2.016842
0.317400	-1.960689
0.317500	-1.779247
0.317600	-1.803916
0.317700	-1.785415
0.317800	-1.714006
0.317900	-1.674407
0.318000	-1.652660
0.318100	-1.613710
0.318200	-1.561128
0.318300	-1.515362
0.318400	-1.506273
0.318500	-1.444927
0.318600	-1.434216
0.318700	-1.383257
0.318800	-1.360211
0.318900	-1.301462
0.319000	-1.296918
0.319100	-1.304708
0.319200	-1.358913
0.319300	-1.386503
0.319400	-1.509195
0.319500	-1.785090
0.319600	-1.908431
0.319700	-1.757500
0.319800	-1.588717
0.319900	-1.538407
0.320000	-1.797424
0.320100	-2.114542
0.320200	-2.328766
0.320300	-2.299879
0.320400	-2.160308
0.320500	-2.133367
0.320600	-2.264174
0.320700	-2.534877
0.320800	-2.721188
0.320900	-2.808501
0.321000	-2.834468
0.321100	-2.878936
0.321200	-2.975662
0.321300	-3.110364
0.321400	-3.194756
0.321500	-3.256103
0.321600	-3.306738
0.321700	-3.373278
0.321800	-3.471302
0.321900	-3.577117
0.322000	-3.584907
0.322100	-3.636516
0.322200	-3.670922
0.322300	-3.767649
0.322400	-3.811792
0.322500	-3.782580
0.322600	-3.699486
0.322700	-3.583284
0.322800	-3.722856
0.322900	-3.878332
0.323000	-4.086067
0.323100	-4.104569
0.323200	-3.931240
0.323300	-3.804002
0.323400	-3.832890
0.323500	-4.034458
0.323600	-4.249334
0.323700	-4.338920
0.323800	-4.263291
0.323900	-4.150335
0.324000	-4.131509
0.324100	-4.161371
0.324200	-4.220121
0.324300	-4.229210
0.324400	-4.216875
0.324500	-4.198699
0.324600	-4.137352
0.324700	-4.100349
0.324800	-3.997780
0.324900	-3.862428
0.325000	-3.790694
0.325100	-3.763104
0.325200	-3.701109
0.325300	-3.659237
0.325400	-3.494023
0.325500	-3.335626
0.325600	-3.243769
0.325700	-2.977285
0.325800	-2.943853
0.325900	-2.883155
0.326000	-2.798764
0.326100	-2.671851
0.326200	-2.563440
0.326300	-2.404394
0.326400	-2.362199
0.326500	-2.341101
0.326600	-2.361225
0.326700	-2.325845
0.326800	-2.321301
0.326900	-2.262227
0.327000	-2.214513
0.327100	-2.189520
0.327200	-2.155114
0.327300	-2.212566
0.327400	-2.181081
0.327500	-2.245349
0.327600	-2.224251
0.327700	-2.218733
0.327800	-1.931477
0.327900	-1.770484
0.328000	-1.860718
0.328100	-2.273587
0.328200	-2.373559
0.328300	-2.169721
0.328400	-1.976269
0.328500	-1.889930
0.328600	-1.807486
0.328700	-1.991525
0.328800	-2.040861
0.328900	-2.046379
0.329000	-1.843515
0.329100	-1.685768
0.329200	-1.587095
0.329300	-1.621825
0.329400	-1.596183
0.329500	-1.564698
0.329600	-1.574436
0.329700	-1.539705
0.329800	-1.514713
0.329900	-1.528020
0.330000	-1.482579
0.330100	-1.505949
0.330200	-1.513090
0.330300	-1.616632
0.330400	-1.572164
0.330500	-1.624097
0.330600	-1.566646
0.330700	-1.527047
0.330800	-1.535810
0.330900	-1.563075
0.331000	-1.848708
0.331100	-1.853577
0.331200	-1.840594
0.331300	-1.656555
0.331400	-1.609491
0.331500	-1.732508
0.331600	-2.026580
0.331700	-2.159659
0.331800	-2.120059
0.331900	-1.966532
0.332000	-1.883763
0.332100	-1.953873
0.332200	-2.069749
0.332300	-2.141157
0.332400	-2.080460
0.332500	-2.096365
0.332600	-2.030150
0.332700	-2.071697
0.332800	-2.076890
0.332900	-2.067477
0.333000	-2.041510
0.333100	-2.021062
0.333200	-2.029825
0.333300	-2.015544
0.333400	-1.986656
0.333500	-1.930503
0.333600	-1.880193
0.333700	-1.883114
0.333800	-2.021062
0.333900	-2.036317
0.334000	-1.984059
0.334100	-1.877271
0.334200	-1.841243
0.334300	-1.887333
0.334400	-1.880842
0.334500	-1.862665
0.334600	-1.863639
0.334700	-1.885386
0.334800	-1.889606
0.334900	-1.893176
0.335000	-1.909730
0.335100	-1.936670
0.335200	-1.982761
0.335300	-2.032747
0.335400	-2.055467
0.335500	-2.167449
0.335600	-2.195687
0.335700	-2.286895
0.335800	-2.323573
0.335900	-2.443994
0.336000	-2.493330
0.336100	-2.813370
0.336200	-3.059080
0.336300	-3.214880
0.336400	-3.021104
0.336500	-2.890621
0.336600	-2.946774
0.336700	-3.240523
0.336800	-3.543360
0.336900	-3.629375
0.337000	-3.570301
0.337100	-3.426185
0.337200	-3.442090
0.337300	-3.514472
0.337400	-3.729348
0.337500	-3.831267
0.337600	-3.803678
0.337700	-3.770245
0.337800	-3.744928
0.337900	-3.750770
0.338000	-3.772842
0.338100	-3.797835
0.338200	-3.817959
0.338300	-3.802055
0.338400	-3.835812
0.338500	-3.851067
0.338600	-3.893912
0.338700	-3.845549
0.338800	-3.838733
0.338900	-3.798484
0.339000	-3.860156
0.339100	-3.838084
0.339200	-3.785501
0.339300	-3.576468
0.339400	-3.529079
0.339500	-3.618339
0.339600	-3.746551
0.339700	-3.881578
0.339800	-3.727075
0.339900	-3.514148
0.340000	-3.368734
0.340100	-3.452152
0.340200	-3.628726
0.340300	-3.749472
0.340400	-3.728049
0.340500	-3.608926
0.340600	-3.497594
0.340700	-3.472601
0.340800	-3.480715
0.340900	-3.532974
0.341000	-3.534921
0.341100	-3.512525
0.341200	-3.491427
0.341300	-3.448257
0.341400	-3.401841
0.341500	-3.314528
0.341600	-3.237601
0.341700	-3.222021
0.341800	-3.273306
0.341900	-3.277201
0.342000	-3.315177
0.342100	-3.182747
0.342200	-3.133085
0.342300	-3.142498
0.342400	-2.942230
0.342500	-2.981180
0.342600	-2.974039
0.342700	-2.925676
0.342800	-2.841609
0.342900	-2.723135
0.343000	-2.677369
0.343100	-2.648157
0.343200	-2.670553
0.343300	-2.634200
0.343400	-2.608557
0.343500	-2.623164
0.343600	-2.616347
0.343700	-2.582266
0.343800	-2.542667
0.343900	-2.570257
0.344000	-2.502094
0.344100	-2.596872
0.344200	-2.579020
0.344300	-2.627383
0.344400	-2.366743
0.344500	-2.170694
0.344600	-2.018465
0.344700	-2.264499
0.344800	-2.553378
0.344900	-2.487488
0.345000	-2.328117
0.345100	-2.118112
0.345200	-2.009377
0.345300	-2.076890
0.345400	-2.176862
0.345500	-2.315134
0.345600	-2.156088
0.345700	-2.035668
0.345800	-1.818522
0.345900	-1.863964
0.346000	-1.796775
0.346100	-1.815276
0.346200	-1.761071
0.346300	-1.668565
0.346400	-1.653309
0.346500	-1.626369
0.346600	-1.590665
0.346700	-1.533863
0.346800	-1.559505
0.346900	-1.619553
0.347000	-1.624097
0.347100	-1.686092
0.347200	-1.687391
0.347300	-1.590016
0.347400	-1.507896
0.347500	-1.505949
0.347600	-1.639352
0.347700	-1.894799
0.347800	-1.799047
0.347900	-1.679276
0.348000	-1.438111
0.348100	-1.448173
0.348200	-1.544899
0.348300	-1.754255
0.348400	-1.744192
0.348500	-1.566321
0.348600	-1.315419
0.348700	-1.255371
0.348800	-1.361834
0.348900	-1.438436
0.349000	-1.416689
0.349100	-1.353720
0.349200	-1.335219
0.349300	-1.321586
0.349400	-1.347228
0.349500	-1.357939
0.349600	-1.349500
0.349700	-1.242063
0.349800	-1.194025
0.349900	-1.182665
0.350000	-1.136250
0.350100	-1.040822
0.350200	-0.975581
0.350300	-0.915209
0.350400	-0.901577
0.350500	-0.956431
0.350600	-0.910990
0.350700	-0.871715
0.350800	-0.653272
0.350900	-0.687353
0.351000	-0.666904
0.351100	-0.608479
0.351200	-0.579267
0.351300	-0.513701
0.351400	-0.490007
0.351500	-0.459496
0.351600	-0.416327
0.351700	-0.400747
0.351800	-0.347515
0.351900	-0.305644
0.352000	-0.293310
0.352100	-0.255659
0.352200	-0.242351
0.352300	-0.218657
0.352400	-0.191716
0.352500	-0.203401
0.352600	-0.214112
0.352700	-0.313434
0.352800	-0.534475
0.352900	-0.732470
0.353000	-0.650675
0.353100	-0.406914
0.353200	-0.338752
0.353300	-0.466312
0.353400	-0.833415
0.353500	-1.077825
0.353600	-1.158321
0.353700	-1.089185
0.353800	-1.014207
0.353900	-1.143390
0.354000	-1.415066
0.354100	-1.639677
0.354200	-1.827935
0.354300	-1.823715
0.354400	-1.925959
0.354500	-2.034045
0.354600	-2.194064
0.354700	-2.350189
0.354800	-2.439449
0.354900	-2.550457
0.355000	-2.630954
0.355100	-2.779613
0.355200	-2.948072
0.355300	-3.038307
0.355400	-3.109391
0.355500	-3.182422
0.355600	-3.317125
0.355700	-3.501489
0.355800	-3.612497
0.355900	-3.595943
0.356000	-3.544983
0.356100	-3.655991
0.356200	-3.880929
0.356300	-4.153581
0.356400	-4.323340
0.356500	-4.205190
0.356600	-4.068215
0.356700	-4.072759
0.356800	-4.276275
0.356900	-4.542111
0.357000	-4.688500
0.357100	-4.639487
0.357200	-4.509328
0.357300	-4.442463
0.357400	-4.492449
0.357500	-4.523610
0.357600	-4.549901
0.357700	-4.513223
0.357800	-4.454148
0.357900	-4.345412
0.358000	-4.301268
0.358100	-4.198049
0.358200	-4.059127
0.358300	-3.952338
0.358400	-3.901053
0.358500	-3.863726
0.358600	-3.841005
0.358700	-3.764403
0.358800	-3.595943
0.358900	-3.540764
0.359000	-3.386261
0.359100	-3.352504
0.359200	-3.346662
0.359300	-3.293755
0.359400	-3.177878
0.359500	-3.077581
0.359600	-2.913342
0.359700	-2.896788
0.359800	-2.816291
0.359900	-2.829599
0.360000	-2.743584
0.360100	-2.703660
0.360200	-2.636796
0.360300	-2.622839
0.360400	-2.498199
0.360500	-2.519946
0.360600	-2.411211
0.360700	-2.492032
0.360800	-2.450810
0.360900	-2.463793
0.361000	-2.411860
0.361100	-2.077539
0.361200	-1.908107
0.361300	-1.821443
0.361400	-2.157062
0.361500	-2.413158
0.361600	-2.217759
0.361700	-1.973673
0.361800	-1.781195
0.361900	-1.707515
0.362000	-1.852279
0.362100	-1.973673
0.362200	-2.034045
0.362300	-1.866560
0.362400	-1.720823
0.362500	-1.549443
0.362600	-1.592937
0.362700	-1.695505
0.362800	-1.673758
0.362900	-1.701672
0.363000	-1.673109
0.363100	-1.656555
0.363200	-1.725691
0.363300	-1.804565
0.363400	-1.793854
0.363500	-1.837023
0.363600	-1.888956
0.363700	-1.882789
0.363800	-1.963610
0.363900	-1.986656
0.364000	-1.926283
0.364100	-1.908431
0.364200	-1.947706
0.364300	-2.143754
0.364400	-2.325196
0.364500	-2.256709
0.364600	-2.149597
0.364700	-1.897720
0.364800	-2.064880
0.364900	-2.217110
0.365000	-2.468662
0.365100	-2.408939
0.365200	-2.280079
0.365300	-2.078837
0.365400	-2.109024
0.365500	-2.252489
0.365600	-2.345969
0.365700	-2.332012
0.365800	-2.293387
0.365900	-2.216461
0.366000	-2.220031
0.366100	-2.241129
0.366200	-2.270341
0.366300	-2.290790
0.366400	-2.263850
0.366500	-2.255086
0.366600	-2.256709
0.366700	-2.276184
0.366800	-2.246322
0.366900	-2.235936
0.367000	-2.257034
0.367100	-2.394332
0.367200	-2.485540
0.367300	-2.507287
0.367400	-2.465416
0.367500	-2.384595
0.367600	-2.471908
0.367700	-2.515727
0.367800	-2.493979
0.367900	-2.506638
0.368000	-2.511182
0.368100	-2.493330
0.368200	-2.497550
0.368300	-2.470609
0.368400	-2.481645
0.368500	-2.470285
0.368600	-2.448538
0.368700	-2.438476
0.368800	-2.458275
0.368900	-2.427764
0.369000	-2.441072
0.369100	-2.360900
0.369200	-2.436204
0.369300	-2.427440
0.369400	-2.575774
0.369500	-2.844854
0.369600	-2.944177
0.369700	-2.761761
0.369800	-2.503717
0.369900	-2.452433
0.370000	-2.577722
0.370100	-2.947423
0.370200	-3.074985
0.370300	-3.059729
0.370400	-2.882506
0.370500	-2.772472
0.370600	-2.871146
0.370700	-3.088617
0.370800	-3.196704
0.370900	-3.213258
0.371000	-3.175930
0.371100	-3.108741
0.371200	-3.170412
0.371300	-3.210661
0.371400	-3.261621
0.371500	-3.260647
0.371600	-3.261296
0.371700	-3.311607
0.371800	-3.369058
0.371900	-3.388858
0.372000	-3.365812
0.372100	-3.375550
0.372200	-3.402490
0.372300	-3.461565
0.372400	-3.485584
0.372500	-3.445660
0.372600	-3.256103
0.372700	-3.182097
0.372800	-3.294079
0.372900	-3.430729
0.373000	-3.577766
0.373100	-3.528105
0.373200	-3.330757
0.373300	-3.124646
0.373400	-3.142498
0.373500	-3.301220
0.373600	-3.491427
0.373700	-3.525508
0.373800	-3.415149
0.373900	-3.289210
0.374000	-3.233382
0.374100	-3.255778
0.374200	-3.339846
0.374300	-3.346662
0.374400	-3.353478
0.374500	-3.337573
0.374600	-3.285965
0.374700	-3.280122
0.374800	-3.166193
0.374900	-3.098030
0.375000	-3.068818
0.375100	-3.094460
0.375200	-3.136980
0.375300	-3.133085
0.375400	-3.050316
0.375500	-2.908473
0.375600	-2.896788
0.375700	-2.752023
0.375800	-2.760138
0.375900	-2.767928
0.376000	-2.708529
0.376100	-2.615049
0.376200	-2.555650
0.376300	-2.419001
0.376400	-2.439774
0.376500	-2.407965
0.376600	-2.398227
0.376700	-2.437502
0.376800	-2.411535
0.376900	-2.372261
0.377000	-2.358304
0.377100	-2.239831
0.377200	-2.296308
0.377300	-2.144079
0.377400	-2.226523
0.377500	-2.109348
0.377600	-2.131095
0.377700	-1.966856
0.377800	-1.645519
0.377900	-1.505949
0.378000	-1.512765
0.378100	-1.879868
0.378200	-1.991525
0.378300	-1.769185
0.378400	-1.510493
0.378500	-1.246932
0.378600	-1.335219
0.378700	-1.426751
0.378800	-1.590340
0.378900	-1.628966
0.379000	-1.423505
0.379100	-1.276794
0.379200	-1.283285
0.379300	-1.437787
0.379400	-1.414092
0.379500	-1.484202
0.379600	-1.479982
0.379700	-1.548145
0.379800	-1.565672
0.379900	-1.606894
0.380000	-1.624746
0.380100	-1.629615
0.380200	-1.732183
0.380300	-1.868508
0.380400	-1.873701
0.380500	-1.950952
0.380600	-1.919143
0.380700	-1.921090
0.380800	-1.940241
0.380900	-2.052871
0.381000	-2.357654
0.381100	-2.403096
0.381200	-2.364471
0.381300	-2.137912
0.381400	-2.171019
0.381500	-2.245998
0.381600	-2.562467
0.381700	-2.686782
0.381800	-2.647832
0.381900	-2.470609
0.382000	-2.404070
0.382100	-2.495602
0.382200	-2.693274
0.382300	-2.764682
0.382400	-2.754620
0.382500	-2.794544
0.382600	-2.775718
0.382700	-2.868549
0.382800	-2.900034
0.382900	-2.955538
0.383000	-2.919509
0.383100	-2.938659
0.383200	-2.999681
0.383300	-3.002602
0.383400	-3.009419
0.383500	-2.957485
0.383600	-2.934764
0.383700	-2.978908
0.383800	-3.137954
0.383900	-3.184694
0.384000	-3.130813
0.384100	-3.056483
0.384200	-3.059729
0.384300	-3.131787
0.384400	-3.138928
0.384500	-3.117181
0.384600	-3.105820
0.384700	-3.112961
0.384800	-3.096083
0.384900	-3.083099
0.385000	-3.057132
0.385100	-2.999356
0.385200	-3.012015
0.385300	-2.957161
0.385400	-2.969170
0.385500	-2.921781
0.385600	-2.906850
0.385700	-2.868224
0.385800	-2.879585
0.385900	-2.926000
0.386000	-2.896463
0.386100	-3.095758
0.386200	-3.300571
0.386300	-3.320695
0.386400	-3.033762
0.386500	-2.841284
0.386600	-2.810449
0.386700	-3.117181
0.386800	-3.362242
0.386900	-3.472925
0.387000	-3.326538
0.387100	-3.145419
0.387200	-3.095433
0.387300	-3.183071
0.387400	-3.330433
0.387500	-3.431054
0.387600	-3.444037
0.387700	-3.350557
0.387800	-3.344714
0.387900	-3.363216
0.388000	-3.352180
0.388100	-3.374576
0.388200	-3.389832
0.388300	-3.385937
0.388400	-3.435598
0.388500	-3.507981
0.388600	-3.537193
0.388700	-3.552124
0.388800	-3.558616
0.388900	-3.643008
0.389000	-3.692020
0.389100	-3.778360
0.389200	-3.742006
0.389300	-3.640736
0.389400	-3.638464
0.389500	-3.795888
0.389600	-4.036081
0.389700	-4.221420
0.389800	-4.112359
0.389900	-3.935135
0.390000	-3.845549
0.390100	-3.939354
0.390200	-4.154879
0.390300	-4.332104
0.390400	-4.364238
0.390500	-4.253554
0.390600	-4.166240
0.390700	-4.169810
0.390800	-4.235377
0.390900	-4.272704
0.391000	-4.270757
0.391100	-4.239596
0.391200	-4.207462
0.391300	-4.175328
0.391400	-4.099700
0.391500	-3.943574
0.391600	-3.809196
0.391700	-3.757911
0.391800	-3.745577
0.391900	-3.702082
0.392000	-3.678712
0.392100	-3.512849
0.392200	-3.425211
0.392300	-3.383015
0.392400	-3.169763
0.392500	-3.197028
0.392600	-3.198651
0.392700	-3.117505
0.392800	-3.029867
0.392900	-2.951318
0.393000	-2.920807
0.393100	-2.877962
0.393200	-2.906850
0.393300	-2.883805
0.393400	-2.897762
0.393500	-2.891270
0.393600	-2.846153
0.393700	-2.827651
0.393800	-2.800711
0.393900	-2.773446
0.394000	-2.783184
0.394100	-2.742611
0.394200	-2.753971
0.394300	-2.692300
0.394400	-2.517999
0.394500	-2.182379
0.394600	-2.147649
0.394700	-2.354084
0.394800	-2.639068
0.394900	-2.647507
0.395000	-2.406017
0.395100	-2.242103
0.395200	-2.060336
0.395300	-2.256709
0.395400	-2.414132
0.395500	-2.540070
0.395600	-2.478075
0.395700	-2.335907
0.395800	-2.200881
0.395900	-2.256709
0.396000	-2.218084
0.396100	-2.229444
0.396200	-2.270666
0.396300	-2.263201
0.396400	-2.285272
0.396500	-2.292413
0.396600	-2.239181
0.396700	-2.258656
0.396800	-2.231391
0.396900	-2.385893
0.397000	-2.390113
0.397100	-2.438476
0.397200	-2.506963
0.397300	-2.371936
0.397400	-2.357005
0.397500	-2.332661
0.397600	-2.476127
0.397700	-2.711775
0.397800	-2.682563
0.397900	-2.609207
0.398000	-2.345969
0.398100	-2.390113
0.398200	-2.553703
0.398300	-2.778315
0.398400	-2.820186
0.398500	-2.702687
0.398600	-2.507612
0.398700	-2.494304
0.398800	-2.589732
0.398900	-2.681589
0.399000	-2.633550
0.399100	-2.623164
0.399200	-2.547536
0.399300	-2.548185
0.399400	-2.540395
0.399500	-2.539421
0.399600	-2.535526
0.399700	-2.481970
0.399800	-2.476127
0.399900	-2.499173
0.400000	-2.502419
0.400100	-2.456977
0.400200	-2.444967
0.400300	-2.428089
0.400400	-2.505989
0.400500	-2.627383
0.400600	-2.583240
0.400700	-2.575125
0.400800	-2.414781
0.400900	-2.501445
0.401000	-2.506963
0.401100	-2.480672
0.401200	-2.483593
0.401300	-2.491707
0.401400	-2.501445
0.401500	-2.474180
0.401600	-2.487488
0.401700	-2.506638
0.401800	-2.578696
0.401900	-2.576748
0.402000	-2.622839
0.402100	-2.624137
0.402200	-2.651078
0.402300	-2.638744
0.402400	-2.650429
0.402500	-2.710801
0.402600	-2.702687
0.402700	-2.796167
0.402800	-3.037008
0.402900	-3.234680
0.403000	-3.132761
0.403100	-2.885752
0.403200	-2.840310
0.403300	-2.904578
0.403400	-3.267788
0.403500	-3.508630
0.403600	-3.512200
0.403700	-3.389507
0.403800	-3.285315
0.403900	-3.367760
0.404000	-3.544334
0.404100	-3.718636
0.404200	-3.772193
0.404300	-3.803678
0.404400	-3.756288
0.404500	-3.775439
0.404600	-3.827372
0.404700	-3.880929
0.404800	-3.917607
0.404900	-3.925073
0.405000	-3.927994
0.405100	-3.996157
0.405200	-4.044520
0.405300	-4.057179
0.405400	-4.039651
0.405500	-4.029914
0.405600	-4.067890
0.405700	-4.139949
0.405800	-4.166565
0.405900	-4.053609
0.406000	-3.977006
0.406100	-4.021150
0.406200	-4.176627
0.406300	-4.367808
0.406400	-4.439542
0.406500	-4.286337
0.406600	-4.083146
0.406700	-4.056530
0.406800	-4.195128
0.406900	-4.389880
0.407000	-4.467456
0.407100	-4.366510
0.407200	-4.238298
0.407300	-4.141247
0.407400	-4.129562
0.407500	-4.135404
0.407600	-4.109437
0.407700	-4.019203
0.407800	-3.973111
0.407900	-3.915011
0.408000	-3.860480
0.408100	-3.728374
0.408200	-3.595618
0.408300	-3.490453
0.408400	-3.473574
0.408500	-3.490128
0.408600	-3.493050
0.408700	-3.459942
0.408800	-3.297650
0.408900	-3.292781
0.409000	-3.183720
0.409100	-3.106794
0.409200	-3.136656
0.409300	-3.098030
0.409400	-3.039280
0.409500	-3.003901
0.409600	-2.864005
0.409700	-2.864979
0.409800	-2.851671
0.409900	-2.883805
0.410000	-2.915938
0.410100	-2.884778
0.410200	-2.909771
0.410300	-2.887700
0.410400	-2.842582
0.410500	-2.868224
0.410600	-2.786105
0.410700	-2.920158
0.410800	-2.813370
0.410900	-2.949046
0.411000	-2.774095
0.411100	-2.701713
0.411200	-2.311239
0.411300	-2.500147
0.411400	-2.708529
0.411500	-3.062975
0.411600	-2.849074
0.411700	-2.685484
0.411800	-2.537474
0.411900	-2.465741
0.412000	-2.605312
0.412100	-2.785456
0.412200	-2.807852
0.412300	-2.695870
0.412400	-2.579994
0.412500	-2.534877
0.412600	-2.554677
0.412700	-2.660491
0.412800	-2.688080
0.412900	-2.691651
0.413000	-2.723135
0.413100	-2.757866
0.413200	-2.787728
0.413300	-2.826678
0.413400	-2.804606
0.413500	-2.865628
0.413600	-3.039280
0.413700	-3.012664
0.413800	-3.134059
0.413900	-3.108741
0.414000	-3.100627
0.414100	-3.038307
0.414200	-3.139252
0.414300	-3.364514
0.414400	-3.597891
0.414500	-3.503112
0.414600	-3.356724
0.414700	-3.171386
0.414800	-3.281096
0.414900	-3.471952
0.415000	-3.649500
0.415100	-3.562511
0.415200	-3.402490
0.415300	-3.213258
0.415400	-3.227539
0.415500	-3.348934
0.415600	-3.368409
0.415700	-3.297325
0.415800	-3.254155
0.415900	-3.165544
0.416000	-3.230785
0.416100	-3.242470
0.416200	-3.271358
0.416300	-3.272007
0.416400	-3.242146
0.416500	-3.237277
0.416600	-3.259673
0.416700	-3.267788
0.416800	-3.234356
0.416900	-3.224943
0.417000	-3.240847
0.417100	-3.361917
0.417200	-3.464486
0.417300	-3.463188
0.417400	-3.471952
0.417500	-3.362891
0.417600	-3.428782
0.417700	-3.434624
0.417800	-3.409631
0.417900	-3.423588
0.418000	-3.446309
0.418100	-3.431703
0.418200	-3.460267
0.418300	-3.458319
0.418400	-3.487207
0.418500	-3.506682
0.418600	-3.536869
0.418700	-3.580363
0.418800	-3.576468
0.418900	-3.634569
0.419000	-3.640087
0.419100	-3.693968
0.419200	-3.739734
0.419300	-3.832566
0.419400	-3.956882
0.419500	-4.262318
0.419600	-4.371054
0.419700	-4.198699
0.419800	-4.041274
0.419900	-3.966944
0.420000	-4.187014
0.420100	-4.453824
0.420200	-4.634943
0.420300	-4.574570
0.420400	-4.438893
0.420500	-4.363588
0.420600	-4.444411
0.420700	-4.637540
0.420800	-4.734267
0.420900	-4.787174
0.421000	-4.702457
0.421100	-4.672271
0.421200	-4.683631
0.421300	-4.734591
0.421400	-4.762181
0.421500	-4.749198
0.421600	-4.696939
0.421700	-4.677139
0.421800	-4.709274
0.421900	-4.740434
0.422000	-4.670648
0.422100	-4.660585
0.422200	-4.603134
0.422300	-4.623258
0.422400	-4.601186
0.422500	-4.591773
0.422600	-4.437919
0.422700	-4.293802
0.422800	-4.422014
0.422900	-4.584632
0.423000	-4.722582
0.423100	-4.653769
0.423200	-4.433375
0.423300	-4.243167
0.423400	-4.232780
0.423500	-4.357746
0.423600	-4.503485
0.423700	-4.503810
0.423800	-4.368457
0.423900	-4.187987
0.424000	-4.104244
0.424100	-4.087041
0.424200	-4.130860
0.424300	-4.132808
0.424400	-4.109762
0.424500	-4.058802
0.424600	-4.002973
0.424700	-3.943249
0.424800	-3.837110
0.424900	-3.735839
0.425000	-3.692345
0.425100	-3.672870
0.425200	-3.674168
0.425300	-3.689099
0.425400	-3.596917
0.425500	-3.486558
0.425600	-3.478119
0.425700	-3.259349
0.425800	-3.318748
0.425900	-3.289860
0.426000	-3.269735
0.426100	-3.194107
0.426200	-3.136331
0.426300	-3.025323
0.426400	-3.064598
0.426500	-3.084073
0.426600	-3.118154
0.426700	-3.128866
0.426800	-3.136331
0.426900	-3.119453
0.427000	-3.041552
0.427100	-3.049342
0.427200	-2.995786
0.427300	-3.031815
0.427400	-3.046746
0.427500	-3.087968
0.427600	-2.975662
0.427700	-2.955538
0.427800	-2.518323
0.427900	-2.564414
0.428000	-2.491707
0.428100	-3.015261
0.428200	-2.998707
0.428300	-2.960406
0.428400	-2.735145
0.428500	-2.572853
0.428600	-2.645235
0.428700	-2.814668
0.428800	-2.975662
0.428900	-2.962678
0.429000	-2.924378
0.429100	-2.837064
0.429200	-2.806878
0.429300	-2.863680
0.429400	-2.935738
0.429500	-2.939958
0.429600	-2.983776
0.429700	-2.987022
0.429800	-2.997409
0.429900	-2.995137
0.430000	-3.011042
0.430100	-2.987996
0.430200	-3.024999
0.430300	-3.181773
0.430400	-3.173009
0.430500	-3.255129
0.430600	-3.177229
0.430700	-3.134708
0.430800	-3.143147
0.430900	-3.159377
0.431000	-3.469679
0.431100	-3.447932
0.431200	-3.439818
0.431300	-3.217802
0.431400	-3.151262
0.431500	-3.248962
0.431600	-3.420667
0.431700	-3.461240
0.431800	-3.332056
0.431900	-3.172035
0.432000	-3.056808
0.432100	-3.084398
0.432200	-3.155157
0.432300	-3.117505
0.432400	-3.075958
0.432500	-3.040903
0.432600	-2.991891
0.432700	-3.006173
0.432800	-3.002278
0.432900	-3.023376
0.433000	-2.963003
0.433100	-2.960731
0.433200	-2.960082
0.433300	-2.959757
0.433400	-2.928922
0.433500	-2.889972
0.433600	-2.880883
0.433700	-2.926325
0.433800	-3.061352
0.433900	-3.085696
0.434000	-3.080503
0.434100	-2.971767
0.434200	-3.046746
0.434300	-3.136331
0.434400	-3.165219
0.434500	-3.198327
0.434600	-3.229487
0.434700	-3.274604
0.434800	-3.323941
0.434900	-3.379445
0.435000	-3.399894
0.435100	-3.457021
0.435200	-3.471302
0.435300	-3.525184
0.435400	-3.561862
0.435500	-3.628402
0.435600	-3.630998
0.435700	-3.656640
0.435800	-3.678712
0.435900	-3.718312
0.436000	-3.767973
0.436100	-3.954610
0.436200	-4.225639
0.436300	-4.197076
0.436400	-3.991613
0.436500	-3.764078
0.436600	-3.801406
0.436700	-3.993236
0.436800	-4.308409
0.436900	-4.346710
0.437000	-4.216226
0.437100	-4.067890
0.437200	-4.057828
0.437300	-4.188312
0.437400	-4.390205
0.437500	-4.492774
0.437600	-4.477518
0.437700	-4.471027
0.437800	-4.457719
0.437900	-4.557367
0.438000	-4.637540
0.438100	-4.656041
0.438200	-4.692720
0.438300	-4.710572
0.438400	-4.781656
0.438500	-4.875138
0.438600	-4.949793
0.438700	-4.920255
0.438800	-4.904351
0.438900	-4.951740
0.439000	-5.023150
0.439100	-5.046195
0.439200	-4.991340
0.439300	-4.885849
0.439400	-4.886174
0.439500	-4.968944
0.439600	-5.133834
0.439700	-5.227965
0.439800	-5.076707
0.439900	-4.863128
0.440000	-4.752119
0.440100	-4.825151
0.440200	-4.960180
0.440300	-5.072162
0.440400	-5.024123
0.440500	-4.872541
0.440600	-4.737837
0.440700	-4.697264
0.440800	-4.699536
0.440900	-4.708624
0.441000	-4.648900
0.441100	-4.609950
0.441200	-4.578465
0.441300	-4.531724
0.441400	-4.490177
0.441500	-4.356448
0.441600	-4.267186
0.441700	-4.256150
0.441800	-4.313927
0.441900	-4.343464
0.442000	-4.350930
0.442100	-4.250308
0.442200	-4.179223
0.442300	-4.162670
0.442400	-4.039002
0.442500	-4.119175
0.442600	-4.129237
0.442700	-4.050038
0.442800	-3.988691
0.442900	-3.905922
0.443000	-3.919879
0.443100	-3.907870
0.443200	-3.955584
0.443300	-3.979928
0.443400	-3.998429
0.443500	-4.021150
0.443600	-4.032186
0.443700	-4.011088
0.443800	-4.005245
0.443900	-4.047442
0.444000	-4.038029
0.444100	-4.095805
0.444200	-4.126316
0.444300	-4.070487
0.444400	-3.917607
0.444500	-3.544659
0.444600	-3.507981
0.444700	-3.635867
0.444800	-3.891316
0.444900	-3.790045
0.445000	-3.505708
0.445100	-3.205468
0.445200	-3.126918
0.445300	-3.151262
0.445400	-3.353478
0.445500	-3.329783
0.445600	-3.275578
0.445700	-3.057457
0.445800	-3.032789
0.445900	-3.019156
0.446000	-3.126594
0.446100	-3.103873
0.446200	-3.062001
0.446300	-3.055185
0.446400	-3.062001
0.446500	-3.069142
0.446600	-3.081152
0.446700	-3.085371
0.446800	-3.060703
0.446900	-3.167491
0.447000	-3.094460
0.447100	-3.215205
0.447200	-3.189563
0.447300	-3.041228
0.447400	-3.033762
0.447500	-2.960731
0.447600	-3.196379
0.447700	-3.295053
0.447800	-3.314853
0.447900	-3.174632
0.448000	-2.998707
0.448100	-3.015261
0.448200	-3.216503
0.448300	-3.486882
0.448400	-3.529079
0.448500	-3.447932
0.448600	-3.279797
0.448700	-3.281745
0.448800	-3.428782
0.448900	-3.588802
0.449000	-3.590425
0.449100	-3.623857
0.449200	-3.554721
0.449300	-3.595943
0.449400	-3.686502
0.449500	-3.734541
0.449600	-3.810819
0.449700	-3.766350
0.449800	-3.789396
0.449900	-3.857559
0.450000	-3.893912
0.450100	-3.899755
0.450200	-3.905273
0.450300	-3.912414
0.450400	-4.015308
0.450500	-4.150660
0.450600	-4.125991
0.450700	-4.117877
0.450800	-4.005895
0.450900	-4.086392
0.451000	-4.101972
0.451100	-4.100674
0.451200	-4.100674
0.451300	-4.096129
0.451400	-4.116578
0.451500	-4.106841
0.451600	-4.115280
0.451700	-4.097752
0.451800	-4.106841
0.451900	-4.081848
0.452000	-4.057828
0.452100	-4.025045
0.452200	-4.018229
0.452300	-3.939030
0.452400	-3.875086
0.452500	-3.867621
0.452600	-3.805301
0.452700	-3.852041
0.452800	-3.997780
0.452900	-4.106516
0.453000	-3.945522
0.453100	-3.614769
0.453200	-3.436247
0.453300	-3.493699
0.453400	-3.776412
0.453500	-3.970190
0.453600	-4.004272
0.453700	-3.839382
0.453800	-3.725453
0.453900	-3.786475
0.454000	-3.973111
0.454100	-4.178250
0.454200	-4.237649
0.454300	-4.148388
0.454400	-4.162994
0.454500	-4.132483
0.454600	-4.251282
0.454700	-4.316848
0.454800	-4.349956
0.454900	-4.384037
0.455000	-4.403188
0.455100	-4.485308
0.455200	-4.554445
0.455300	-4.554121
0.455400	-4.523285
0.455500	-4.523610
0.455600	-4.566131
0.455700	-4.595343
0.455800	-4.628127
0.455900	-4.532374
0.456000	-4.409680
0.456100	-4.463561
0.456200	-4.637864
0.456300	-4.832617
0.456400	-4.904351
0.456500	-4.756339
0.456600	-4.573921
0.456700	-4.562885
0.456800	-4.676815
0.456900	-4.895911
0.457000	-4.971865
0.457100	-4.951416
0.457200	-4.773217
0.457300	-4.666103
0.457400	-4.667726
0.457500	-4.674867
0.457600	-4.672920
0.457700	-4.608327
0.457800	-4.541787
0.457900	-4.485308
0.458000	-4.385985
0.458100	-4.267511
0.458200	-4.102621
0.458300	-3.995832
0.458400	-3.977006
0.458500	-3.965970
0.458600	-3.969541
0.458700	-3.925397
0.458800	-3.759859
0.458900	-3.734216
0.459000	-3.544659
0.459100	-3.565107
0.459200	-3.556993
0.459300	-3.544334
0.459400	-3.503761
0.459500	-3.441765
0.459600	-3.312905
0.459700	-3.299272
0.459800	-3.252857
0.459900	-3.329134
0.460000	-3.319721
0.460100	-3.288561
0.460200	-3.349259
0.460300	-3.291158
0.460400	-3.272981
0.460500	-3.295377
0.460600	-3.287263
0.460700	-3.313879
0.460800	-3.324915
0.460900	-3.346986
0.461000	-3.249611
0.461100	-2.991891
0.461200	-2.825379
0.461300	-2.638095
0.461400	-3.159052
0.461500	-3.236952
0.461600	-3.202222
0.461700	-2.884454
0.461800	-2.768253
0.461900	-2.718916
0.462000	-2.826678
0.462100	-2.940931
0.462200	-2.946125
0.462300	-2.741637
0.462400	-2.577722
0.462500	-2.517349
0.462600	-2.468337
0.462700	-2.521569
0.462800	-2.517999
0.462900	-2.572853
0.463000	-2.569607
0.463100	-2.581617
0.463200	-2.575774
0.463300	-2.582915
0.463400	-2.605961
0.463500	-2.636147
0.463600	-2.902306
0.463700	-2.918535
0.463800	-3.005848
0.463900	-3.016559
0.464000	-3.013638
0.464100	-3.015586
0.464200	-3.076283
0.464300	-3.377173
0.464400	-3.521613
0.464500	-3.497269
0.464600	-3.371006
0.464700	-3.292132
0.464800	-3.386586
0.464900	-3.692994
0.465000	-3.898781
0.465100	-3.925722
0.465200	-3.817959
0.465300	-3.692345
0.465400	-3.779009
0.465500	-3.949417
0.465600	-4.068540
0.465700	-4.077628
0.465800	-4.120798
0.465900	-4.130860
0.466000	-4.236026
0.466100	-4.296075
0.466200	-4.387932
0.466300	-4.435647
0.466400	-4.459017
0.466500	-4.507380
0.466600	-4.566455
0.466700	-4.548278
0.466800	-4.544059
0.466900	-4.570026
0.467000	-4.573596
0.467100	-4.720959
0.467200	-4.774840
0.467300	-4.731021
0.467400	-4.650523
0.467500	-4.600212
0.467600	-4.681684
0.467700	-4.691421
0.467800	-4.658638
0.467900	-4.680061
0.468000	-4.670972
0.468100	-4.657989
0.468200	-4.633969
0.468300	-4.630723
0.468400	-4.643707
0.468500	-4.620661
0.468600	-4.617740
0.468700	-4.580412
0.468800	-4.557042
0.468900	-4.522311
0.469000	-4.513872
0.469100	-4.479466
0.469200	-4.505757
0.469300	-4.515820
0.469400	-4.623907
0.469500	-4.829695
0.469600	-4.855987
0.469700	-4.677139
0.469800	-4.433375
0.469900	-4.418768
0.470000	-4.548928
0.470100	-4.921554
0.470200	-5.041327
0.470300	-4.948495
0.470400	-4.810220
0.470500	-4.794640
0.470600	-4.897210
0.470700	-5.064697
0.470800	-5.191936
0.470900	-5.243870
0.471000	-5.222447
0.471100	-5.215306
0.471200	-5.314630
0.471300	-5.372082
0.471400	-5.398374
0.471500	-5.396426
0.471600	-5.441544
0.471700	-5.452580
0.471800	-5.503216
0.471900	-5.619744
0.472000	-5.592153
0.472100	-5.522042
0.472200	-5.498023
0.472300	-5.532104
0.472400	-5.550281
0.472500	-5.506462
0.472600	-5.392531
0.472700	-5.240948
0.472800	-5.339623
0.472900	-5.534052
0.473000	-5.667783
0.473100	-5.615524
0.473200	-5.350010
0.473300	-5.174408
0.473400	-5.158178
0.473500	-5.255555
0.473600	-5.393505
0.473700	-5.354230
0.473800	-5.152660
0.473900	-4.959206
0.474000	-4.846574
0.474100	-4.814440
0.474200	-4.804053
0.474300	-4.741083
0.474400	-4.699536
0.474500	-4.621635
0.474600	-4.566780
0.474700	-4.512249
0.474800	-4.393126
0.474900	-4.257124
0.475000	-4.176302
0.475100	-4.159748
0.475200	-4.122745
0.475300	-4.092234
0.475400	-3.989016
0.475500	-3.837759
0.475600	-3.826723
0.475700	-3.594645
0.475800	-3.665404
0.475900	-3.667352
0.476000	-3.624182
0.476100	-3.556668
0.476200	-3.503761
0.476300	-3.419369
0.476400	-3.416448
0.476500	-3.417746
0.476600	-3.462214
0.476700	-3.420343
0.476800	-3.453775
0.476900	-3.416123
0.477000	-3.401517
0.477100	-3.345363
0.477200	-3.319397
0.477300	-3.314528
0.477400	-3.285965
0.477500	-3.351531
0.477600	-3.178852
0.477700	-3.181773
0.477800	-2.720214
0.477900	-2.746506
0.478000	-2.676720
0.478100	-3.221048
0.478200	-3.103873
0.478300	-3.053237
0.478400	-2.823756
0.478500	-2.650429
0.478600	-2.728653
0.478700	-2.885427
0.478800	-3.059080
0.478900	-2.972091
0.479000	-2.941580
0.479100	-2.756243
0.479200	-2.820511
0.479300	-2.881208
0.479400	-2.997734
0.479500	-2.998058
0.479600	-3.006497
0.479700	-3.003901
0.479800	-3.019481
0.479900	-3.060054
0.480000	-3.059729
0.480100	-3.127567
0.480200	-3.132761
0.480300	-3.209038
0.480400	-3.253506
0.480500	-3.324590
0.480600	-3.308685
0.480700	-3.218451
0.480800	-3.283368
0.480900	-3.334003
0.481000	-3.705004
0.481100	-3.651447
0.481200	-3.619638
0.481300	-3.427483
0.481400	-3.373927
0.481500	-3.518692
0.481600	-3.746551
0.481700	-3.841005
0.481800	-3.738111
0.481900	-3.567704
0.482000	-3.446959
0.482100	-3.507331
0.482200	-3.622234
0.482300	-3.670922
0.482400	-3.620612
0.482500	-3.573547
0.482600	-3.574196
0.482700	-3.621261
0.482800	-3.654368
0.482900	-3.745577
0.483000	-3.725777
0.483100	-3.724154
0.483200	-3.734866
0.483300	-3.751095
0.483400	-3.740708
0.483500	-3.696564
0.483600	-3.696564
0.483700	-3.740708
0.483800	-3.870542
0.483900	-3.911765
0.484000	-3.910791
0.484100	-3.793940
0.484200	-3.828995
0.484300	-3.863726
0.484400	-3.868595
0.484500	-3.863077
0.484600	-3.872165
0.484700	-3.867296
0.484800	-3.859182
0.484900	-3.861454
0.485000	-3.844900
0.485100	-3.835487
0.485200	-3.831917
0.485300	-3.799458
0.485400	-3.817959
0.485500	-3.861778
0.485600	-3.890667
0.485700	-3.894886
0.485800	-3.986744
0.485900	-4.006544
0.486000	-4.059776
0.486100	-4.278871
0.486200	-4.556718
0.486300	-4.521013
0.486400	-4.318471
0.486500	-4.177925
0.486600	-4.235052
0.486700	-4.401890
0.486800	-4.616766
0.486900	-4.696615
0.487000	-4.558990
0.487100	-4.382090
0.487200	-4.318146
0.487300	-4.373326
0.487400	-4.466482
0.487500	-4.514521
0.487600	-4.505108
0.487700	-4.412926
0.487800	-4.347359
0.487900	-4.397345
0.488000	-4.446358
0.488100	-4.456420
0.488200	-4.466807
0.488300	-4.457069
0.488400	-4.532698
0.488500	-4.572298
0.488600	-4.619363
0.488700	-4.636241
0.488800	-4.636566
0.488900	-4.682333
0.489000	-4.734591
0.489100	-4.791070
0.489200	-4.738486
0.489300	-4.651172
0.489400	-4.665454
0.489500	-4.805027
0.489600	-5.013737
0.489700	-5.146169
0.489800	-5.087094
0.489900	-4.893315
0.490000	-4.811843
0.490100	-4.932590
0.490200	-5.131887
0.490300	-5.235755
0.490400	-5.252958
0.490500	-5.179601
0.490600	-5.117929
0.490700	-5.109166
0.490800	-5.106893
0.490900	-5.131887
0.491000	-5.093261
0.491100	-5.073461
0.491200	-5.026720
0.491300	-4.958232
0.491400	-4.879682
0.491500	-4.732319
0.491600	-4.632996
0.491700	-4.592747
0.491800	-4.586255
0.491900	-4.589176
0.492000	-4.587229
0.492100	-4.479791
0.492200	-4.439542
0.492300	-4.356772
0.492400	-4.226938
0.492500	-4.277248
0.492600	-4.316848
0.492700	-4.240570
0.492800	-4.194154
0.492900	-4.122745
0.493000	-4.143844
0.493100	-4.140598
0.493200	-4.166889
0.493300	-4.207138
0.493400	-4.248685
0.493500	-4.270108
0.493600	-4.307760
0.493700	-4.245439
0.493800	-4.350280
0.493900	-4.259721
0.494000	-4.391178
0.494100	-4.352877
0.494200	-4.345087
0.494300	-4.285363
0.494400	-4.098402
0.494500	-3.892290
0.494600	-3.709548
0.494700	-4.025045
0.494800	-4.244141
0.494900	-4.136703
0.495000	-3.982524
0.495100	-3.768622
0.495200	-3.656316
0.495300	-3.700135
0.495400	-3.801406
0.495500	-3.808222
0.495600	-3.672221
0.495700	-3.500515
0.495800	-3.325564
0.495900	-3.353803
0.496000	-3.271683
0.496100	-3.331731
0.496200	-3.230461
0.496300	-3.200599
0.496400	-3.129839
0.496500	-3.105171
0.496600	-3.072713
0.496700	-3.003251
0.496800	-2.994163
0.496900	-3.055834
0.497000	-3.081152
0.497100	-3.083748
0.497200	-3.060378
0.497300	-2.978908
0.497400	-2.894516
0.497500	-2.963652
0.497600	-3.063300
0.497700	-3.353154
0.497800	-3.258375
0.497900	-3.092837
0.498000	-2.883480
0.498100	-2.958459
0.498200	-3.137629
0.498300	-3.415798
0.498400	-3.396972
0.498500	-3.252208
0.498600	-3.113286
0.498700	-3.126269
0.498800	-3.273306
0.498900	-3.342118
0.499000	-3.292132
0.499100	-3.285640
0.499200	-3.272981
0.499300	-3.358671
0.499400	-3.438519
0.499500	-3.477470
0.499600	-3.525184
0.499700	-3.513498
0.499800	-3.549852
0.499900	-3.611523
0.500000	-3.656316
0.500100	-3.650149
0.500200	-3.632946
0.500300	-3.615418
0.500400	-3.724803
0.500500	-3.857559
0.500600	-3.857559
0.500700	-3.809196
0.500800	-3.701109
0.500900	-3.785176
0.501000	-3.831267
0.501100	-3.835487
0.501200	-3.850093
0.501300	-3.868270
0.501400	-3.879306
0.501500	-3.912738
0.501600	-3.947144
0.501700	-3.955584
0.501800	-3.976357
0.501900	-3.990964
0.502000	-4.007842
0.502100	-4.057828
0.502200	-4.053284
0.502300	-4.066267
0.502400	-4.028940
0.502500	-4.074382
0.502600	-4.032186
0.502700	-4.154555
0.502800	-4.347035
0.502900	-4.507056
0.503000	-4.347035
0.503100	-4.193505
0.503200	-4.052635
0.503300	-4.206489
0.503400	-4.561586
0.503500	-4.818010
0.503600	-4.853066
0.503700	-4.773542
0.503800	-4.689798
0.503900	-4.793342
0.504000	-4.975435
0.504100	-5.208490
0.504200	-5.288014
0.504300	-5.298401
0.504400	-5.299699
0.504500	-5.344817
0.504600	-5.419148
0.504700	-5.492505
0.504800	-5.488285
0.504900	-5.458747
0.505000	-5.485688
0.505100	-5.478223
0.505200	-5.539570
0.505300	-5.568783
0.505400	-5.511980
0.505500	-5.479521
0.505600	-5.441544
0.505700	-5.448361
0.505800	-5.428236
0.505900	-5.290286
0.506000	-5.109490
0.506100	-5.142274
0.506200	-5.313332
0.506300	-5.473029
0.506400	-5.471406
0.506500	-5.239650
0.506600	-5.001402
0.506700	-4.967321
0.506800	-5.098779
0.506900	-5.325341
0.507000	-5.382794
0.507100	-5.287040
0.507200	-5.147142
0.507300	-5.101700
0.507400	-5.186093
0.507500	-5.295155
0.507600	-5.357476
0.507700	-5.333132
0.507800	-5.313981
0.507900	-5.314955
0.508000	-5.322420
0.508100	-5.259125
0.508200	-5.133185
0.508300	-5.068267
0.508400	-5.058854
0.508500	-5.069241
0.508600	-5.061127
0.508700	-5.025097
0.508800	-4.856961
0.508900	-4.798860
0.509000	-4.571649
0.509100	-4.626179
0.509200	-4.627153
0.509300	-4.555095
0.509400	-4.474922
0.509500	-4.391828
0.509600	-4.264914
0.509700	-4.244465
0.509800	-4.236675
0.509900	-4.264590
0.510000	-4.303215
0.510100	-4.226613
0.510200	-4.287311
0.510300	-4.185715
0.510400	-4.192207
0.510500	-4.162345
0.510600	-4.134755
0.510700	-4.179223
0.510800	-4.171433
0.510900	-4.253878
0.511000	-4.082821
0.511100	-3.947144
0.511200	-3.642683
0.511300	-3.766026
0.511400	-4.004272
0.511500	-4.322366
0.511600	-4.168837
0.511700	-3.942925
0.511800	-3.766026
0.511900	-3.685853
0.512000	-3.824776
0.512100	-3.992586
0.512200	-4.043222
0.512300	-3.918256
0.512400	-3.727400
0.512500	-3.611523
0.512600	-3.538167
0.512700	-3.608277
0.512800	-3.564783
0.512900	-3.625480
0.513000	-3.581661
0.513100	-3.546931
0.513200	-3.486558
0.513300	-3.502138
0.513400	-3.532324
0.513500	-3.595618
0.513600	-3.606005
0.513700	-3.669624
0.513800	-3.632946
0.513900	-3.659237
0.514000	-3.493699
0.514100	-3.474548
0.514200	-3.358347
0.514300	-3.629051
0.514400	-3.717338
0.514500	-3.576143
0.514600	-3.364839
0.514700	-3.157429
0.514800	-3.238251
0.514900	-3.411903
0.515000	-3.593671
0.515100	-3.488181
0.515200	-3.298948
0.515300	-3.088617
0.515400	-3.111013
0.515500	-3.238900
0.515600	-3.334003
0.515700	-3.286938
0.515800	-3.287263
0.515900	-3.226566
0.516000	-3.318423
0.516100	-3.399894
0.516200	-3.435273
0.516300	-3.449231
0.516400	-3.448906
0.516500	-3.515446
0.516600	-3.577766
0.516700	-3.596268
0.516800	-3.561537
0.516900	-3.542711
0.517000	-3.553098
0.517100	-3.694942
0.517200	-3.744279
0.517300	-3.713443
0.517400	-3.691371
0.517500	-3.642034
0.517600	-3.633595
0.517700	-3.629700
0.517800	-3.585232
0.517900	-3.587504
0.518000	-3.570625
0.518100	-3.560888
0.518200	-3.567704
0.518300	-3.561537
0.518400	-3.573871
0.518500	-3.574845
0.518600	-3.569327
0.518700	-3.563160
0.518800	-3.576143
0.518900	-3.568353
0.519000	-3.604058
0.519100	-3.656316
0.519200	-3.696889
0.519300	-3.736813
0.519400	-3.911765
0.519500	-4.141571
0.519600	-4.319445
0.519700	-4.092884
0.519800	-3.959154
0.519900	-3.946820
0.520000	-4.131185
0.520100	-4.427857
0.520200	-4.536269
0.520300	-4.509003
0.520400	-4.354500
0.520500	-4.314251
0.520600	-4.396047
0.520700	-4.513872
0.520800	-4.642409
0.520900	-4.661235
0.521000	-4.646304
0.521100	-4.567104
0.521200	-4.559963
0.521300	-4.575544
0.521400	-4.597940
0.521500	-4.590150
0.521600	-4.638838
0.521700	-4.631048
0.521800	-4.622284
0.521900	-4.695965
0.522000	-4.719985
0.522100	-4.731995
0.522200	-4.777761
0.522300	-4.851443
0.522400	-4.865725
0.522500	-4.840731
0.522600	-4.760883
0.522700	-4.690447
0.522800	-4.827423
0.522900	-5.085471
0.523000	-5.203945
0.523100	-5.198752
0.523200	-4.975111
0.523300	-4.830345
0.523400	-4.874489
0.523500	-5.080277
0.523600	-5.269188
0.523700	-5.289961
0.523800	-5.186742
0.523900	-5.042950
0.524000	-5.017307
0.524100	-5.069566
0.524200	-5.129290
0.524300	-5.127342
0.524400	-5.099428
0.524500	-5.067943
0.524600	-5.041327
0.524700	-4.997507
0.524800	-4.931616
0.524900	-4.800483
0.525000	-4.750496
0.525100	-4.774840
0.525200	-4.784253
0.525300	-4.779060
0.525400	-4.685579
0.525500	-4.552823
0.525600	-4.497643
0.525700	-4.350280
0.525800	-4.412926
0.525900	-4.416496
0.526000	-4.341841
0.526100	-4.272704
0.526200	-4.193181
0.526300	-4.125991
0.526400	-4.086067
0.526500	-4.061074
0.526600	-4.114306
0.526700	-4.063995
0.526800	-4.108788
0.526900	-4.047442
0.527000	-4.037704
0.527100	-3.964672
0.527200	-4.002973
0.527300	-3.971813
0.527400	-3.997780
0.527500	-3.985446
0.527600	-3.992262
0.527700	-3.782904
0.527800	-3.532324
0.527900	-3.316475
0.528000	-3.527456
0.528100	-3.734216
0.528200	-3.882552
0.528300	-3.566081
0.528400	-3.453450
0.528500	-3.310958
0.528600	-3.333354
0.528700	-3.438844
0.528800	-3.568029
0.528900	-3.480715
0.529000	-3.326862
0.529100	-3.245391
0.529200	-3.250909
0.529300	-3.253181
0.529400	-3.329459
0.529500	-3.350232
0.529600	-3.349908
0.529700	-3.366786
0.529800	-3.395350
0.529900	-3.408008
0.530000	-3.418720
0.530100	-3.479742
0.530200	-3.548229
0.530300	-3.582635
0.530400	-3.629700
0.530500	-3.643008
0.530600	-3.671896
0.530700	-3.511876
0.530800	-3.602759
0.530900	-3.554396
0.531000	-3.936433
0.531100	-3.925722
0.531200	-3.780632
0.531300	-3.484935
0.531400	-3.450854
0.531500	-3.564458
0.531600	-3.870542
0.531700	-3.916633
0.531800	-3.811143
0.531900	-3.606654
0.532000	-3.574520
0.532100	-3.699810
0.532200	-3.846848
0.532300	-3.895860
0.532400	-3.878657
0.532500	-3.863077
0.532600	-3.892290
0.532700	-3.988691
0.532800	-4.059127
0.532900	-4.051986
0.533000	-4.014658
0.533100	-4.051661
0.533200	-4.125342
0.533300	-4.188312
0.533400	-4.185066
0.533500	-4.150011
0.533600	-4.145142
0.533700	-4.213305
0.533800	-4.383713
0.533900	-4.406434
0.534000	-4.414873
0.534100	-4.446033
0.534200	-4.373975
0.534300	-4.475895
0.534400	-4.491800
0.534500	-4.523934
0.534600	-4.570026
0.534700	-4.606704
0.534800	-4.629750
0.534900	-4.656690
0.535000	-4.704080
0.535100	-4.743031
0.535200	-4.739460
0.535300	-4.770945
0.535400	-4.781981
0.535500	-4.789771
0.535600	-4.837161
0.535700	-4.810869
0.535800	-4.842679
0.535900	-4.880656
0.536000	-4.904026
0.536100	-5.099752
0.536200	-5.284443
0.536300	-5.256853
0.536400	-4.991665
0.536500	-4.795938
0.536600	-4.830020
0.536700	-5.068592
0.536800	-5.276978
0.536900	-5.302620
0.537000	-5.170837
0.537100	-5.017956
0.537200	-4.965048
0.537300	-5.051713
0.537400	-5.245493
0.537500	-5.293856
0.537600	-5.315604
0.537700	-5.295155
0.537800	-5.260424
0.537900	-5.284119
0.538000	-5.320797
0.538100	-5.369485
0.538200	-5.336377
0.538300	-5.363643
0.538400	-5.345141
0.538500	-5.370784
0.538600	-5.409734
0.538700	-5.406164
0.538800	-5.427262
0.538900	-5.404541
0.539000	-5.438623
0.539100	-5.496724
0.539200	-5.408436
0.539300	-5.222122
0.539400	-5.164995
0.539500	-5.308463
0.539600	-5.543465
0.539700	-5.569108
0.539800	-5.464265
0.539900	-5.196480
0.540000	-5.082874
0.540100	-5.201349
0.540200	-5.401944
0.540300	-5.553852
0.540400	-5.526262
0.540500	-5.372731
0.540600	-5.299699
0.540700	-5.296453
0.540800	-5.383443
0.540900	-5.427911
0.541000	-5.419797
0.541100	-5.435377
0.541200	-5.400321
0.541300	-5.401620
0.541400	-5.359748
0.541500	-5.254906
0.541600	-5.177004
0.541700	-5.158178
0.541800	-5.176031
0.541900	-5.178627
0.542000	-5.194208
0.542100	-5.057556
0.542200	-4.974786
0.542300	-4.764453
0.542400	-4.745303
0.542500	-4.768998
0.542600	-4.770296
0.542700	-4.690772
0.542800	-4.608652
0.542900	-4.458692
0.543000	-4.391828
0.543100	-4.370080
0.543200	-4.311979
0.543300	-4.347359
0.543400	-4.202269
0.543500	-4.248360
0.543600	-4.065294
0.543700	-4.074058
0.543800	-4.000701
0.543900	-3.927994
0.544000	-3.937082
0.544100	-3.900729
0.544200	-4.018229
0.544300	-3.917283
0.544400	-3.812117
0.544500	-3.507331
0.544600	-3.573871
0.544700	-3.713767
0.544800	-4.084120
0.544900	-4.038029
0.545000	-3.811143
0.545100	-3.651447
0.545200	-3.501489
0.545300	-3.605681
0.545400	-3.771868
0.545500	-3.773816
0.545600	-3.821854
0.545700	-3.623533
0.545800	-3.603084
0.545900	-3.533623
0.546000	-3.610874
0.546100	-3.597891
0.546200	-3.626454
0.546300	-3.630998
0.546400	-3.567704
0.546500	-3.547255
0.546600	-3.552773
0.546700	-3.542387
0.546800	-3.624507
0.546900	-3.673519
0.547000	-3.671896
0.547100	-3.701109
0.547200	-3.739410
0.547300	-3.607628
0.547400	-3.656965
0.547500	-3.589776
0.547600	-3.827372
0.547700	-4.006868
0.547800	-3.966620
0.547900	-3.808222
0.548000	-3.652745
0.548100	-3.756937
0.548200	-3.904299
0.548300	-4.178899
0.548400	-4.160073
0.548500	-4.056530
0.548600	-3.881578
0.548700	-3.902027
0.548800	-4.008167
0.548900	-4.104569
0.549000	-4.052635
0.549100	-4.085093
0.549200	-4.047766
0.549300	-4.096454
0.549400	-4.130536
0.549500	-4.159099
0.549600	-4.118201
0.549700	-4.025694
0.549800	-4.024396
0.549900	-4.042248
0.550000	-3.975383
0.550100	-3.877683
0.550200	-3.779983
0.550300	-3.700459
0.550400	-3.709223
0.550500	-3.752069
0.550600	-3.710846
0.550700	-3.658913
0.550800	-3.647552
0.550900	-3.569327
0.551000	-3.571924
0.551100	-3.564134
0.551200	-3.574520
0.551300	-3.590750
0.551400	-3.564458
0.551500	-3.537842
0.551600	-3.579389
0.551700	-3.580688
0.551800	-3.575819
0.551900	-3.558616
0.552000	-3.562511
0.552100	-3.572898
0.552200	-3.556344
0.552300	-3.578415
0.552400	-3.558616
0.552500	-3.642683
0.552600	-3.660536
0.552700	-3.798160
0.552800	-4.051337
0.552900	-4.219797
0.553000	-4.095480
0.553100	-3.839707
0.553200	-3.770895
0.553300	-3.844575
0.553400	-4.201620
0.553500	-4.333402
0.553600	-4.369106
0.553700	-4.213954
0.553800	-4.140598
0.553900	-4.151309
0.554000	-4.290557
0.554100	-4.417794
0.554200	-4.452850
0.554300	-4.463237
0.554400	-4.439217
0.554500	-4.421040
0.554600	-4.471351
0.554700	-4.472000
0.554800	-4.473623
0.554900	-4.479791
0.555000	-4.462912
0.555100	-4.451876
0.555200	-4.502187
0.555300	-4.513872
0.555400	-4.489853
0.555500	-4.471027
0.555600	-4.516793
0.555700	-4.544059
0.555800	-4.549901
0.555900	-4.412926
0.556000	-4.260370
0.556100	-4.331454
0.556200	-4.532374
0.556300	-4.728749
0.556400	-4.737513
0.556500	-4.547305
0.556600	-4.365861
0.556700	-4.373975
0.556800	-4.541787
0.556900	-4.732968
0.557000	-4.776788
0.557100	-4.692070
0.557200	-4.523610
0.557300	-4.481413
0.557400	-4.498292
0.557500	-4.534321
0.557600	-4.535619
0.557700	-4.450902
0.557800	-4.426234
0.557900	-4.372352
0.558000	-4.345087
0.558100	-4.299645
0.558200	-4.139299
0.558300	-4.066592
0.558400	-4.040625
0.558500	-4.034133
0.558600	-4.039976
0.558700	-4.002649
0.558800	-3.832241
0.558900	-3.763104
0.559000	-3.505708
0.559100	-3.569327
0.559200	-3.559265
0.559300	-3.501164
0.559400	-3.371006
0.559500	-3.270060
0.559600	-3.121725
0.559700	-3.118803
0.559800	-3.090240
0.559900	-3.099328
0.560000	-3.049018
0.560100	-3.079529
0.560200	-3.100302
0.560300	-3.111013
0.560400	-3.108092
0.560500	-3.120102
0.560600	-3.150613
0.560700	-3.163272
0.560800	-3.257726
0.560900	-3.317774
0.561000	-3.229162
0.561100	-3.088942
0.561200	-2.799413
0.561300	-3.039280
0.561400	-3.279473
0.561500	-3.646578
0.561600	-3.448581
0.561700	-3.381717
0.561800	-3.221372
0.561900	-3.253831
0.562000	-3.523561
0.562100	-3.645280
0.562200	-3.754665
0.562300	-3.588478
0.562400	-3.604058
0.562500	-3.478443
0.562600	-3.642683
0.562700	-3.714417
0.562800	-3.786799
0.562900	-3.849120
0.563000	-3.849769
0.563100	-3.914037
0.563200	-3.992262
0.563300	-4.076654
0.563400	-4.133781
0.563500	-4.262318
0.563600	-4.304838
0.563700	-4.359693
0.563800	-4.513872
0.563900	-4.529452
0.564000	-4.525557
0.564100	-4.604107
0.564200	-4.639163
0.564300	-4.919606
0.564400	-5.058854
0.564500	-5.037107
0.564600	-4.781981
0.564700	-4.755365
0.564800	-4.792368
0.564900	-5.106893
0.565000	-5.229588
0.565100	-5.128965
0.565200	-4.897534
0.565300	-4.727450
0.565400	-4.749522
0.565500	-4.846899
0.565600	-4.886174
0.565700	-4.745303
0.565800	-4.672595
0.565900	-4.545032
0.566000	-4.608327
0.566100	-4.614494
0.566200	-4.624881
0.566300	-4.531724
0.566400	-4.473623
0.566500	-4.460315
0.566600	-4.519715
0.566700	-4.497318
0.566800	-4.464210
0.566900	-4.436945
0.567000	-4.420067
0.567100	-4.546006
0.567200	-4.606704
0.567300	-4.611573
0.567400	-4.609625
0.567500	-4.471027
0.567600	-4.537892
0.567700	-4.527180
0.567800	-4.526206
0.567900	-4.535944
0.568000	-4.529777
0.568100	-4.558341
0.568200	-4.562885
0.568300	-4.614494
0.568400	-4.618714
0.568500	-4.647927
0.568600	-4.650199
0.568700	-4.656366
0.568800	-4.675841
0.568900	-4.695641
0.569000	-4.698562
0.569100	-4.756339
0.569200	-4.822230
0.569300	-4.843977
0.569400	-5.069241
0.569500	-5.277302
0.569600	-5.335728
0.569700	-5.112736
0.569800	-4.929019
0.569900	-4.897210
0.570000	-5.071189
0.570100	-5.276004
0.570200	-5.382794
0.570300	-5.247765
0.570400	-5.057556
0.570500	-4.978681
0.570600	-5.024448
0.570700	-5.205568
0.570800	-5.338325
0.570900	-5.333781
0.571000	-5.269188
0.571100	-5.237053
0.571200	-5.258801
0.571300	-5.310410
0.571400	-5.371758
0.571500	-5.371108
0.571600	-5.412331
0.571700	-5.404866
0.571800	-5.468485
0.571900	-5.486662
0.572000	-5.572029
0.572100	-5.544439
0.572200	-5.572678
0.572300	-5.597996
0.572400	-5.640517
0.572500	-5.578196
0.572600	-5.427587
0.572700	-5.300673
0.572800	-5.355528
0.572900	-5.572678
0.573000	-5.627858
0.573100	-5.570081
0.573200	-5.294181
0.573300	-5.125070
0.573400	-5.148765
0.573500	-5.320148
0.573600	-5.494128
0.573700	-5.485688
0.573800	-5.341246
0.573900	-5.199726
0.574000	-5.140975
0.574100	-5.203296
0.574200	-5.263020
0.574300	-5.257502
0.574400	-5.207516
0.574500	-5.166942
0.574600	-5.107543
0.574700	-5.074759
0.574800	-5.040028
0.574900	-4.932265
0.575000	-4.868971
0.575100	-4.861830
0.575200	-4.847872
0.575300	-4.854039
0.575400	-4.669674
0.575500	-4.559314
0.575600	-4.418768
0.575700	-4.311979
0.575800	-4.355474
0.575900	-4.324314
0.576000	-4.243492
0.576100	-4.168512
0.576200	-4.064645
0.576300	-3.962075
0.576400	-3.963698
0.576500	-3.980577
0.576600	-3.976033
0.576700	-4.011412
0.576800	-3.998754
0.576900	-3.980901
0.577000	-3.941951
0.577100	-3.922476
0.577200	-3.908194
0.577300	-3.927669
0.577400	-4.004272
0.577500	-3.925073
0.577600	-4.021150
0.577700	-3.802055
0.577800	-3.703381
0.577900	-3.436247
0.578000	-3.718961
0.578100	-3.979278
0.578200	-4.059451
0.578300	-3.831267
0.578400	-3.630024
0.578500	-3.523236
0.578600	-3.468381
0.578700	-3.736164
0.578800	-3.805625
0.578900	-3.822179
0.579000	-3.626454
0.579100	-3.505059
0.579200	-3.451827
0.579300	-3.409307
0.579400	-3.470978
0.579500	-3.528105
0.579600	-3.575170
0.579700	-3.518692
0.579800	-3.505384
0.579900	-3.469679
0.580000	-3.475847
0.580100	-3.543685
0.580200	-3.604707
0.580300	-3.694617
0.580400	-3.684555
0.580500	-3.728049
0.580600	-3.712469
0.580700	-3.719285
0.580800	-3.652421
0.580900	-3.808871
0.581000	-3.948443
0.581100	-4.016606
0.581200	-3.834513
0.581300	-3.672870
0.581400	-3.626129
0.581500	-3.755964
0.581600	-3.990964
0.581700	-4.042897
0.581800	-3.927994
0.581900	-3.729672
0.582000	-3.685204
0.582100	-3.825425
0.582200	-3.942925
0.582300	-4.008816
0.582400	-3.975383
0.582500	-3.977006
0.582600	-3.960777
0.582700	-4.053609
0.582800	-4.105218
0.582900	-4.130211
0.583000	-4.056205
0.583100	-4.084769
0.583200	-4.123719
0.583300	-4.168512
0.583400	-4.137352
0.583500	-4.103595
0.583600	-4.081198
0.583700	-4.136053
0.583800	-4.260695
0.583900	-4.266537
0.584000	-4.208112
0.584100	-4.142870
0.584200	-4.085418
0.584300	-4.135080
0.584400	-4.085093
0.584500	-4.081523
0.584600	-4.066592
0.584700	-4.070163
0.584800	-4.074058
0.584900	-4.083146
0.585000	-4.073084
0.585100	-4.052635
0.585200	-4.073408
0.585300	-4.094506
0.585400	-4.128588
0.585500	-4.157152
0.585600	-4.175328
0.585700	-4.252255
0.585800	-4.307760
0.585900	-4.405785
0.586000	-4.397670
0.586100	-4.706352
0.586200	-4.831968
0.586300	-4.858908
0.586400	-4.658638
0.586500	-4.500889
0.586600	-4.560937
0.586700	-4.789122
0.586800	-4.981927
0.586900	-4.938108
0.587000	-4.817361
0.587100	-4.678762
0.587200	-4.659612
0.587300	-4.765752
0.587400	-4.937459
0.587500	-5.007569
0.587600	-4.975760
0.587700	-4.965048
0.587800	-4.952390
0.587900	-5.018930
0.588000	-5.054310
0.588100	-5.094884
0.588200	-5.107218
0.588300	-5.153634
0.588400	-5.170188
0.588500	-5.219201
0.588600	-5.300348
0.588700	-5.258152
0.588800	-5.301322
0.588900	-5.297102
0.589000	-5.347738
0.589100	-5.361695
0.589200	-5.318200
0.589300	-5.156231
0.589400	-5.128316
0.589500	-5.293856
0.589600	-5.519446
0.589700	-5.548659
0.589800	-5.473678
0.589900	-5.245168
0.590000	-5.158178
0.590100	-5.250037
0.590200	-5.431482
0.590300	-5.540219
0.590400	-5.481144
0.590500	-5.325666
0.590600	-5.246791
0.590700	-5.252634
0.590800	-5.333132
0.590900	-5.352607
0.591000	-5.315928
0.591100	-5.277951
0.591200	-5.273407
0.591300	-5.258152
0.591400	-5.226017
0.591500	-5.128316
0.591600	-5.016983
0.591700	-4.995235
0.591800	-5.030940
0.591900	-5.020228
0.592000	-5.002051
0.592100	-4.845276
0.592200	-4.740109
0.592300	-4.533672
0.592400	-4.546331
0.592500	-4.549901
0.592600	-4.523610
0.592700	-4.427532
0.592800	-4.379169
0.592900	-4.272380
0.593000	-4.184417
0.593100	-4.204541
0.593200	-4.163968
0.593300	-4.225964
0.593400	-4.159099
0.593500	-4.208761
0.593600	-4.113332
0.593700	-4.075680
0.593800	-4.032835
0.593900	-3.973436
0.594000	-3.992262
0.594100	-4.000377
0.594200	-3.991613
0.594300	-3.922801
0.594400	-3.680335
0.594500	-3.383340
0.594600	-3.285965
0.594700	-3.592048
0.594800	-3.772842
0.594900	-3.764403
0.595000	-3.492725
0.595100	-3.425536
0.595200	-3.238251
0.595300	-3.380094
0.595400	-3.485584
0.595500	-3.482987
0.595600	-3.383989
0.595700	-3.195405
0.595800	-3.121076
0.595900	-3.082125
0.596000	-3.146069
0.596100	-3.123672
0.596200	-3.136980
0.596300	-3.095758
0.596400	-3.044474
0.596500	-3.050965
0.596600	-3.034412
0.596700	-3.049667
0.596800	-3.095109
0.596900	-3.174632
0.597000	-3.228188
0.597100	-3.209687
0.597200	-3.300895
0.597300	-3.181448
0.597400	-3.200599
