LabVIEW Measurement	
Writer_Version	2
Reader_Version	2
Separator	Tab
Decimal_Separator	.
Multi_Headings	Yes
X_Columns	One
Time_Pref	Relative
Operator	as989
Description	Time Domain Data
Date	1903/12/31
Time	19:00:00
***End_of_Header***	
	
Channels	1	
Samples	15000	
Date	1903/12/31	
Time	19:00:00	
X_Dimension	Time	
X0	0.0000000000000000E+0	
Delta_X	0.000100	
***End_of_Header***		
X_Value	Untitled	Comment
0.000000	-1.116775	Tare Values:0.000000, 0.000000, 0.000000, 0.000000\0D\0A
0.000100	-1.203763
0.000200	-1.259915
0.000300	-1.262188
0.000400	-1.235896
0.000500	-1.201166
0.000600	-1.216421
0.000700	-1.381634
0.000800	-1.451094
0.000900	-1.392994
0.001000	-1.366054
0.001100	-1.364756
0.001200	-1.283285
0.001300	-1.282636
0.001400	-1.298216
0.001500	-1.331648
0.001600	-1.337166
0.001700	-1.329376
0.001800	-1.311524
0.001900	-1.359887
0.002000	-1.345281
0.002100	-1.357290
0.002200	-1.392994
0.002300	-1.392670
0.002400	-1.438436
0.002500	-1.419935
0.002600	-1.472517
0.002700	-1.471543
0.002800	-1.560479
0.002900	-1.560154
0.003000	-1.689987
0.003100	-1.965558
0.003200	-1.956794
0.003300	-1.679601
0.003400	-1.369949
0.003500	-1.404355
0.003600	-1.652660
0.003700	-2.042484
0.003800	-2.067802
0.003900	-1.951601
0.004000	-1.652985
0.004100	-1.532240
0.004200	-1.682522
0.004300	-1.867209
0.004400	-1.984384
0.004500	-1.911677
0.004600	-1.813004
0.004700	-1.715954
0.004800	-1.701672
0.004900	-1.796450
0.005000	-1.843839
0.005100	-1.778923
0.005200	-1.778274
0.005300	-1.749386
0.005400	-1.804240
0.005500	-1.865262
0.005600	-1.920441
0.005700	-1.825663
0.005800	-1.824364
0.005900	-1.864613
0.006000	-1.934723
0.006100	-1.886360
0.006200	-1.691610
0.006300	-1.561128
0.006400	-1.726340
0.006500	-2.028852
0.006600	-2.099611
0.006700	-1.992498
0.006800	-1.679925
0.006900	-1.509844
0.007000	-1.603973
0.007100	-1.907458
0.007200	-2.134341
0.007300	-2.058064
0.007400	-1.855849
0.007500	-1.650388
0.007600	-1.651037
0.007700	-1.749710
0.007800	-1.853901
0.007900	-1.850331
0.008000	-1.769510
0.008100	-1.723744
0.008200	-1.709462
0.008300	-1.746789
0.008400	-1.710436
0.008500	-1.588068
0.008600	-1.571839
0.008700	-1.604622
0.008800	-1.640975
0.008900	-1.728288
0.009000	-1.687391
0.009100	-1.566646
0.009200	-1.553987
0.009300	-1.391371
0.009400	-1.532889
0.009500	-1.593586
0.009600	-1.570865
0.009700	-1.506923
0.009800	-1.408574
0.009900	-1.384230
0.010000	-1.395266
0.010100	-1.434216
0.010200	-1.507572
0.010300	-1.482579
0.010400	-1.528020
0.010500	-1.479658
0.010600	-1.446875
0.010700	-1.459858
0.010800	-1.366054
0.010900	-1.455314
0.011000	-1.410846
0.011100	-1.556908
0.011200	-1.348202
0.011300	-1.314445
0.011400	-1.000574
0.011500	-0.841854
0.011600	-1.021672
0.011700	-1.529968
0.011800	-1.673109
0.011900	-1.236870
0.012000	-1.080746
0.012100	-0.885997
0.012200	-1.003820
0.012300	-1.212851
0.012400	-1.396565
0.012500	-1.307629
0.012600	-1.112231
0.012700	-1.007390
0.012800	-0.975906
0.012900	-1.079448
0.013000	-1.145662
0.013100	-1.182989
0.013200	-1.162865
0.013300	-1.091782
0.013400	-1.093405
0.013500	-1.127486
0.013600	-1.173901
0.013700	-1.240441
0.013800	-1.285882
0.013900	-1.329051
0.014000	-1.307304
0.014100	-1.391047
0.014200	-1.322560
0.014300	-1.259591
0.014400	-1.251152
0.014500	-1.360861
0.014600	-1.661099
0.014700	-1.720498
0.014800	-1.484851
0.014900	-1.248880
0.015000	-1.231028
0.015100	-1.470245
0.015200	-1.810732
0.015300	-1.866560
0.015400	-1.654283
0.015500	-1.404355
0.015600	-1.363457
0.015700	-1.507247
0.015800	-1.705892
0.015900	-1.716278
0.016000	-1.603648
0.016100	-1.561128
0.016200	-1.496211
0.016300	-1.590665
0.016400	-1.640001
0.016500	-1.602674
0.016600	-1.520555
0.016700	-1.525748
0.016800	-1.568918
0.016900	-1.639677
0.017000	-1.583524
0.017100	-1.538407
0.017200	-1.528345
0.017300	-1.560803
0.017400	-1.724718
0.017500	-1.718875
0.017600	-1.651686
0.017700	-1.589042
0.017800	-1.495562
0.017900	-1.487772
0.018000	-1.463104
0.018100	-1.446875
0.018200	-1.433242
0.018300	-1.427725
0.018400	-1.432269
0.018500	-1.429023
0.018600	-1.454016
0.018700	-1.449472
0.018800	-1.408574
0.018900	-1.442331
0.019000	-1.442331
0.019100	-1.410846
0.019200	-1.373844
0.019300	-1.384230
0.019400	-1.405653
0.019500	-1.380985
0.019600	-1.438111
0.019700	-1.622474
0.019800	-1.825338
0.019900	-1.694531
0.020000	-1.340736
0.020100	-1.097300
0.020200	-1.204736
0.020300	-1.504651
0.020400	-1.780221
0.020500	-1.790608
0.020600	-1.565023
0.020700	-1.298541
0.020800	-1.233300
0.020900	-1.384555
0.021000	-1.583200
0.021100	-1.652336
0.021200	-1.616307
0.021300	-1.487448
0.021400	-1.408899
0.021500	-1.447199
0.021600	-1.469271
0.021700	-1.529643
0.021800	-1.506273
0.021900	-1.530293
0.022000	-1.466025
0.022100	-1.483553
0.022200	-1.583200
0.022300	-1.573137
0.022400	-1.529319
0.022500	-1.564698
0.022600	-1.576708
0.022700	-1.601052
0.022800	-1.479658
0.022900	-1.337815
0.023000	-1.329376
0.023100	-1.586770
0.023200	-1.876622
0.023300	-1.927906
0.023400	-1.763343
0.023500	-1.450770
0.023600	-1.385204
0.023700	-1.588717
0.023800	-1.894150
0.023900	-2.080136
0.024000	-1.996069
0.024100	-1.757176
0.024200	-1.608192
0.024300	-1.642274
0.024400	-1.781844
0.024500	-1.850656
0.024600	-1.818197
0.024700	-1.761395
0.024800	-1.711734
0.024900	-1.689013
0.025000	-1.660775
0.025100	-1.562426
0.025200	-1.474464
0.025300	-1.497185
0.025400	-1.570216
0.025500	-1.597157
0.025600	-1.630589
0.025700	-1.506923
0.025800	-1.447199
0.025900	-1.376116
0.026000	-1.380660
0.026100	-1.508221
0.026200	-1.563400
0.026300	-1.523476
0.026400	-1.468946
0.026500	-1.409223
0.026600	-1.386827
0.026700	-1.412145
0.026800	-1.496536
0.026900	-1.519257
0.027000	-1.587744
0.027100	-1.602350
0.027200	-1.617281
0.027300	-1.565672
0.027400	-1.564374
0.027500	-1.559830
0.027600	-1.578980
0.027700	-1.689013
0.027800	-1.649739
0.027900	-1.627667
0.028000	-1.406951
0.028100	-1.198245
0.028200	-1.131705
0.028300	-1.452393
0.028400	-1.909730
0.028500	-1.734780
0.028600	-1.477710
0.028700	-1.244985
0.028800	-1.193051
0.028900	-1.353071
0.029000	-1.561777
0.029100	-1.733157
0.029200	-1.529968
0.029300	-1.444927
0.029400	-1.312822
0.029500	-1.345930
0.029600	-1.362808
0.029700	-1.399486
0.029800	-1.446550
0.029900	-1.437462
0.030000	-1.408574
0.030100	-1.373195
0.030200	-1.361185
0.030300	-1.345281
0.030400	-1.459858
0.030500	-1.389099
0.030600	-1.453042
0.030700	-1.481281
0.030800	-1.439734
0.030900	-1.318340
0.031000	-1.243362
0.031100	-1.249204
0.031200	-1.371572
0.031300	-1.622149
0.031400	-1.516660
0.031500	-1.241414
0.031600	-1.014207
0.031700	-1.072631
0.031800	-1.326130
0.031900	-1.608517
0.032000	-1.524450
0.032100	-1.318016
0.032200	-1.086264
0.032300	-1.115152
0.032400	-1.317691
0.032500	-1.432593
0.032600	-1.373195
0.032700	-1.300488
0.032800	-1.275820
0.032900	-1.301137
0.033000	-1.352746
0.033100	-1.375467
0.033200	-1.346254
0.033300	-1.242388
0.033400	-1.265758
0.033500	-1.334245
0.033600	-1.351448
0.033700	-1.303409
0.033800	-1.252125
0.033900	-1.268030
0.034000	-1.390398
0.034100	-1.555610
0.034200	-1.510818
0.034300	-1.464078
0.034400	-1.268030
0.034500	-1.346254
0.034600	-1.414417
0.034700	-1.374168
0.034800	-1.361834
0.034900	-1.356641
0.035000	-1.344631
0.035100	-1.348202
0.035200	-1.344307
0.035300	-1.368651
0.035400	-1.378063
0.035500	-1.386827
0.035600	-1.391047
0.035700	-1.392994
0.035800	-1.388125
0.035900	-1.377090
0.036000	-1.404679
0.036100	-1.411495
0.036200	-1.456937
0.036300	-1.438760
0.036400	-1.731209
0.036500	-1.829882
0.036600	-1.565997
0.036700	-1.265433
0.036800	-1.166760
0.036900	-1.327753
0.037000	-1.667591
0.037100	-1.870131
0.037200	-1.759772
0.037300	-1.509195
0.037400	-1.374168
0.037500	-1.419935
0.037600	-1.654608
0.037700	-1.816574
0.037800	-1.831830
0.037900	-1.744192
0.038000	-1.678951
0.038100	-1.667266
0.038200	-1.686741
0.038300	-1.711734
0.038400	-1.712383
0.038500	-1.701672
0.038600	-1.725367
0.038700	-1.725042
0.038800	-1.752956
0.038900	-1.776651
0.039000	-1.766264
0.039100	-1.698102
0.039200	-1.736403
0.039300	-1.776975
0.039400	-1.805214
0.039500	-1.657204
0.039600	-1.495562
0.039700	-1.583524
0.039800	-1.860069
0.039900	-2.042160
0.040000	-2.009701
0.040100	-1.736727
0.040200	-1.452717
0.040300	-1.456937
0.040400	-1.703295
0.040500	-1.990875
0.040600	-2.030475
0.040700	-1.867859
0.040800	-1.647142
0.040900	-1.634484
0.041000	-1.713682
0.041100	-1.809434
0.041200	-1.824364
0.041300	-1.763667
0.041400	-1.766589
0.041500	-1.749710
0.041600	-1.755228
0.041700	-1.684794
0.041800	-1.571839
0.041900	-1.494264
0.042000	-1.504651
0.042100	-1.581901
0.042200	-1.635457
0.042300	-1.603648
0.042400	-1.401109
0.042500	-1.375791
0.042600	-1.192078
0.042700	-1.342035
0.042800	-1.413767
0.042900	-1.401433
0.043000	-1.349176
0.043100	-1.294321
0.043200	-1.228756
0.043300	-1.239467
0.043400	-1.304708
0.043500	-1.384230
0.043600	-1.424154
0.043700	-1.426751
0.043800	-1.414417
0.043900	-1.444927
0.044000	-1.401109
0.044100	-1.356966
0.044200	-1.415390
0.044300	-1.347877
0.044400	-1.539056
0.044500	-1.404030
0.044600	-1.416364
0.044700	-1.103467
0.044800	-0.915534
0.044900	-1.030436
0.045000	-1.405004
0.045100	-1.749061
0.045200	-1.387801
0.045300	-1.144364
0.045400	-0.849644
0.045500	-0.871391
0.045600	-1.131705
0.045700	-1.333920
0.045800	-1.323534
0.045900	-1.158970
0.046000	-0.966818
0.046100	-0.948966
0.046200	-0.984021
0.046300	-1.116450
0.046400	-1.093080
0.046500	-1.196946
0.046600	-1.135276
0.046700	-1.099896
0.046800	-1.122293
0.046900	-1.115152
0.047000	-1.156049
0.047100	-1.150207
0.047200	-1.315419
0.047300	-1.268355
0.047400	-1.317691
0.047500	-1.304383
0.047600	-1.217071
0.047700	-1.179094
0.047800	-1.176498
0.047900	-1.488421
0.048000	-1.584822
0.048100	-1.482904
0.048200	-1.208307
0.048300	-1.078149
0.048400	-1.233300
0.048500	-1.529643
0.048600	-1.767238
0.048700	-1.579305
0.048800	-1.307954
0.048900	-1.174550
0.049000	-1.286207
0.049100	-1.513739
0.049200	-1.578006
0.049300	-1.419610
0.049400	-1.416040
0.049500	-1.343333
0.049600	-1.480631
0.049700	-1.552040
0.049800	-1.601701
0.049900	-1.501080
0.050000	-1.442655
0.050100	-1.486149
0.050200	-1.555285
0.050300	-1.537433
0.050400	-1.474140
0.050500	-1.474464
0.050600	-1.493939
0.050700	-1.621176
0.050800	-1.696154
0.050900	-1.617930
0.051000	-1.589691
0.051100	-1.432269
0.051200	-1.526073
0.051300	-1.513414
0.051400	-1.507896
0.051500	-1.512765
0.051600	-1.518283
0.051700	-1.534512
0.051800	-1.572164
0.051900	-1.567620
0.052000	-1.626369
0.052100	-1.615333
0.052200	-1.674732
0.052300	-1.683496
0.052400	-1.675706
0.052500	-1.684794
0.052600	-1.671486
0.052700	-1.741596
0.052800	-1.740622
0.052900	-1.761720
0.053000	-1.878245
0.053100	-2.062284
0.053200	-2.124279
0.053300	-1.735753
0.053400	-1.479982
0.053500	-1.398512
0.053600	-1.635457
0.053700	-1.939267
0.053800	-1.992498
0.053900	-1.855849
0.054000	-1.567620
0.054100	-1.427725
0.054200	-1.502703
0.054300	-1.663696
0.054400	-1.800670
0.054500	-1.708813
0.054600	-1.613386
0.054700	-1.521853
0.054800	-1.506273
0.054900	-1.533214
0.055000	-1.572488
0.055100	-1.554961
0.055200	-1.567620
0.055300	-1.578655
0.055400	-1.550417
0.055500	-1.643247
0.055600	-1.694531
0.055700	-1.666617
0.055800	-1.652660
0.055900	-1.711410
0.056000	-1.781520
0.056100	-1.753605
0.056200	-1.615658
0.056300	-1.554961
0.056400	-1.753930
0.056500	-2.091496
0.056600	-2.229119
0.056700	-2.155439
0.056800	-1.850656
0.056900	-1.689987
0.057000	-1.816899
0.057100	-2.102207
0.057200	-2.317081
0.057300	-2.255411
0.057400	-2.000613
0.057500	-1.849357
0.057600	-1.856823
0.057700	-1.958417
0.057800	-2.001262
0.057900	-1.958742
0.058000	-1.894474
0.058100	-1.884737
0.058200	-1.827935
0.058300	-1.821119
0.058400	-1.733157
0.058500	-1.590016
0.058600	-1.573462
0.058700	-1.593586
0.058800	-1.621825
0.058900	-1.670512
0.059000	-1.581252
0.059100	-1.457262
0.059200	-1.468297
0.059300	-1.249204
0.059400	-1.397863
0.059500	-1.420259
0.059600	-1.394617
0.059700	-1.323209
0.059800	-1.243686
0.059900	-1.196946
0.060000	-1.198569
0.060100	-1.286531
0.060200	-1.319639
0.060300	-1.280040
0.060400	-1.346903
0.060500	-1.268030
0.060600	-1.333271
0.060700	-1.207333
0.060800	-1.302760
0.060900	-1.225834
0.061000	-1.304059
0.061100	-1.255371
0.061200	-1.197596
0.061300	-1.097624
0.061400	-0.764603
0.061500	-0.748374
0.061600	-0.908393
0.061700	-1.327104
0.061800	-1.477061
0.061900	-1.058350
0.062000	-0.843152
0.062100	-0.628279
0.062200	-0.827897
0.062300	-0.965195
0.062400	-1.095352
0.062500	-1.059973
0.062600	-0.814913
0.062700	-0.737987
0.062800	-0.663009
0.062900	-0.831467
0.063000	-0.793166
0.063100	-0.877558
0.063200	-0.915858
0.063300	-0.929491
0.063400	-0.913911
0.063500	-0.963572
0.063600	-0.975906
0.063700	-0.987916
0.063800	-1.080746
0.063900	-1.233300
0.064000	-1.096326
0.064100	-1.178770
0.064200	-1.095677
0.064300	-1.052183
0.064400	-0.973959
0.064500	-1.077500
0.064600	-1.370598
0.064700	-1.361834
0.064800	-1.148259
0.064900	-0.837634
0.065000	-0.866522
0.065100	-1.012259
0.065200	-1.384880
0.065300	-1.370598
0.065400	-1.194674
0.065500	-0.934684
0.065600	-0.932412
0.065700	-1.126512
0.065800	-1.288479
0.065900	-1.277767
0.066000	-1.138846
0.066100	-1.178770
0.066200	-1.189157
0.066300	-1.300164
0.066400	-1.329701
0.066500	-1.277118
0.066600	-1.231352
0.066700	-1.234923
0.066800	-1.341386
0.066900	-1.379362
0.067000	-1.361185
0.067100	-1.316068
0.067200	-1.297567
0.067300	-1.375142
0.067400	-1.537433
0.067500	-1.540030
0.067600	-1.502054
0.067700	-1.467324
0.067800	-1.327104
0.067900	-1.417338
0.068000	-1.406951
0.068100	-1.415066
0.068200	-1.406627
0.068300	-1.426102
0.068400	-1.456937
0.068500	-1.472192
0.068600	-1.496536
0.068700	-1.501080
0.068800	-1.468297
0.068900	-1.479333
0.069000	-1.489071
0.069100	-1.524125
0.069200	-1.478359
0.069300	-1.511467
0.069400	-1.529643
0.069500	-1.528994
0.069600	-1.581901
0.069700	-1.803916
0.069800	-2.014245
0.069900	-1.952899
0.070000	-1.572488
0.070100	-1.409872
0.070200	-1.449796
0.070300	-1.805539
0.070400	-2.063907
0.070500	-2.084031
0.070600	-1.895123
0.070700	-1.688689
0.070800	-1.657854
0.070900	-1.837997
0.071000	-2.040212
0.071100	-2.077215
0.071200	-1.991200
0.071300	-1.911677
0.071400	-1.853252
0.071500	-1.899343
0.071600	-1.958093
0.071700	-1.938618
0.071800	-1.916546
0.071900	-1.880842
0.072000	-1.836374
0.072100	-1.871429
0.072200	-1.946083
0.072300	-1.922064
0.072400	-1.901940
0.072500	-1.848384
0.072600	-1.962637
0.072700	-1.980813
0.072800	-1.932775
0.072900	-1.770808
0.073000	-1.736078
0.073100	-1.974322
0.073200	-2.226198
0.073300	-2.278131
0.073400	-2.081434
0.073500	-1.783142
0.073600	-1.712383
0.073700	-1.910703
0.073800	-2.188871
0.073900	-2.316108
0.074000	-2.172967
0.074100	-1.956470
0.074200	-1.853901
0.074300	-1.924336
0.074400	-2.017167
0.074500	-2.024307
0.074600	-1.957119
0.074700	-1.907458
0.074800	-1.887009
0.074900	-1.868508
0.075000	-1.825663
0.075100	-1.745491
0.075200	-1.621176
0.075300	-1.608517
0.075400	-1.660775
0.075500	-1.706865
0.075600	-1.741920
0.075700	-1.565672
0.075800	-1.495238
0.075900	-1.281338
0.076000	-1.337491
0.076100	-1.460832
0.076200	-1.497834
0.076300	-1.440708
0.076400	-1.343009
0.076500	-1.272899
0.076600	-1.265109
0.076700	-1.282636
0.076800	-1.418312
0.076900	-1.411495
0.077000	-1.438760
0.077100	-1.400784
0.077200	-1.392345
0.077300	-1.325481
0.077400	-1.321261
0.077500	-1.342035
0.077600	-1.335543
0.077700	-1.453691
0.077800	-1.369624
0.077900	-1.373195
0.078000	-1.085615
0.078100	-0.892164
0.078200	-0.881453
0.078300	-1.260565
0.078400	-1.637405
0.078500	-1.512765
0.078600	-1.200192
0.078700	-0.964546
0.078800	-0.889567
0.078900	-1.140794
0.079000	-1.323209
0.079100	-1.477061
0.079200	-1.261538
0.079300	-1.155075
0.079400	-1.023944
0.079500	-1.093729
0.079600	-1.122617
0.079700	-1.202789
0.079800	-1.251476
0.079900	-1.226808
0.080000	-1.203114
0.080100	-1.233624
0.080200	-1.235572
0.080300	-1.316393
0.080400	-1.330025
0.080500	-1.486474
0.080600	-1.388775
0.080700	-1.457586
0.080800	-1.413118
0.080900	-1.373519
0.081000	-1.308603
0.081100	-1.306655
0.081200	-1.473815
0.081300	-1.623772
0.081400	-1.543600
0.081500	-1.259591
0.081600	-0.993109
0.081700	-1.060947
0.081800	-1.275495
0.081900	-1.524450
0.082000	-1.387801
0.082100	-1.129109
0.082200	-0.884049
0.082300	-0.904823
0.082400	-1.085615
0.082500	-1.188832
0.082600	-1.110283
0.082700	-0.999925
0.082800	-0.942149
0.082900	-0.963247
0.083000	-1.027190
0.083100	-1.046990
0.083200	-0.978827
0.083300	-0.921052
0.083400	-0.918455
0.083500	-1.006417
0.083600	-1.024593
0.083700	-0.970064
0.083800	-0.971686
0.083900	-0.995056
0.084000	-1.160269
0.084100	-1.310875
0.084200	-1.269653
0.084300	-1.243037
0.084400	-1.173901
0.084500	-1.138522
0.084600	-1.206684
0.084700	-1.190779
0.084800	-1.228756
0.084900	-1.224861
0.085000	-1.253748
0.085100	-1.261538
0.085200	-1.304708
0.085300	-1.311524
0.085400	-1.363457
0.085500	-1.358913
0.085600	-1.371247
0.085700	-1.364756
0.085800	-1.372870
0.085900	-1.371572
0.086000	-1.334245
0.086100	-1.433567
0.086200	-1.356966
0.086300	-1.491343
0.086400	-1.675706
0.086500	-1.815276
0.086600	-1.516011
0.086700	-1.197271
0.086800	-1.137223
0.086900	-1.268030
0.087000	-1.640975
0.087100	-1.779897
0.087200	-1.709462
0.087300	-1.451094
0.087400	-1.273548
0.087500	-1.310226
0.087600	-1.532565
0.087700	-1.701023
0.087800	-1.649090
0.087900	-1.604297
0.088000	-1.510818
0.088100	-1.556259
0.088200	-1.570865
0.088300	-1.650713
0.088400	-1.666617
0.088500	-1.621500
0.088600	-1.672784
0.088700	-1.626044
0.088800	-1.723744
0.088900	-1.731858
0.089000	-1.754579
0.089100	-1.731209
0.089200	-1.804240
0.089300	-1.865262
0.089400	-1.876622
0.089500	-1.734780
0.089600	-1.592937
0.089700	-1.725042
0.089800	-2.020088
0.089900	-2.180432
0.090000	-2.123954
0.090100	-1.865262
0.090200	-1.610789
0.090300	-1.661099
0.090400	-1.915897
0.090500	-2.180107
0.090600	-2.174265
0.090700	-1.932775
0.090800	-1.733481
0.090900	-1.652336
0.091000	-1.738350
0.091100	-1.823391
0.091200	-1.798073
0.091300	-1.727639
0.091400	-1.692908
0.091500	-1.652985
0.091600	-1.639352
0.091700	-1.553663
0.091800	-1.439409
0.091900	-1.376765
0.092000	-1.404679
0.092100	-1.471219
0.092200	-1.537433
0.092300	-1.500106
0.092400	-1.338464
0.092500	-1.312173
0.092600	-1.233624
0.092700	-1.409548
0.092800	-1.505624
0.092900	-1.517958
0.093000	-1.503352
0.093100	-1.493939
0.093200	-1.393968
0.093300	-1.417987
0.093400	-1.489071
0.093500	-1.602674
0.093600	-1.684145
0.093700	-1.722770
0.093800	-1.770808
0.093900	-1.810732
0.094000	-1.721472
0.094100	-1.848708
0.094200	-1.767887
0.094300	-1.957119
0.094400	-1.914923
0.094500	-2.032097
0.094600	-1.822417
0.094700	-1.644221
0.094800	-1.322235
0.094900	-1.468297
0.095000	-1.850980
0.095100	-2.093119
0.095200	-1.802617
0.095300	-1.504651
0.095400	-1.230703
0.095500	-1.341061
0.095600	-1.509195
0.095700	-1.762045
0.095800	-1.653309
0.095900	-1.535486
0.096000	-1.299839
0.096100	-1.307304
0.096200	-1.386503
0.096300	-1.461157
0.096400	-1.562426
0.096500	-1.554636
0.096600	-1.565347
0.096700	-1.530617
0.096800	-1.589042
0.096900	-1.569567
0.097000	-1.620851
0.097100	-1.618579
0.097200	-1.730560
0.097300	-1.681873
0.097400	-1.709138
0.097500	-1.602999
0.097600	-1.497510
0.097700	-1.343658
0.097800	-1.353395
0.097900	-1.540355
0.098000	-1.644546
0.098100	-1.474140
0.098200	-1.140469
0.098300	-0.966493
0.098400	-1.093405
0.098500	-1.395266
0.098600	-1.533214
0.098700	-1.328402
0.098800	-1.003820
0.098900	-0.833415
0.099000	-0.913911
0.099100	-1.106063
0.099200	-1.102818
0.099300	-0.924622
0.099400	-0.855162
0.099500	-0.777911
0.099600	-0.884698
0.099700	-0.898331
0.099800	-0.924622
0.099900	-0.773367
0.100000	-0.689949
0.100100	-0.773367
0.100200	-0.857758
0.100300	-0.857109
0.100400	-0.807123
0.100500	-0.798684
0.100600	-0.849644
0.100700	-1.020698
0.100800	-1.104765
0.100900	-1.105090
0.101000	-1.112880
0.101100	-0.991811
0.101200	-1.075877
0.101300	-1.133978
0.101400	-1.118722
0.101500	-1.151830
0.101600	-1.148908
0.101700	-1.169032
0.101800	-1.186560
0.101900	-1.211228
0.102000	-1.203763
0.102100	-1.209605
0.102200	-1.200841
0.102300	-1.222264
0.102400	-1.194999
0.102500	-1.165787
0.102600	-1.218693
0.102700	-1.207333
0.102800	-1.265758
0.102900	-1.212851
0.103000	-1.349500
0.103100	-1.557233
0.103200	-1.557233
0.103300	-1.245958
0.103400	-1.013882
0.103500	-0.974283
0.103600	-1.283935
0.103700	-1.589367
0.103800	-1.677004
0.103900	-1.510168
0.104000	-1.253748
0.104100	-1.151505
0.104200	-1.296269
0.104300	-1.571515
0.104400	-1.689663
0.104500	-1.608842
0.104600	-1.514063
0.104700	-1.474789
0.104800	-1.505949
0.104900	-1.577357
0.105000	-1.630589
0.105100	-1.632211
0.105200	-1.640651
0.105300	-1.637405
0.105400	-1.643572
0.105500	-1.698426
0.105600	-1.787362
0.105700	-1.756851
0.105800	-1.746465
0.105900	-1.726340
0.106000	-1.775028
0.106100	-1.744517
0.106200	-1.563400
0.106300	-1.514063
0.106400	-1.699400
0.106500	-2.005157
0.106600	-2.109673
0.106700	-2.021711
0.106800	-1.712708
0.106900	-1.556908
0.107000	-1.674407
0.107100	-1.966207
0.107200	-2.191468
0.107300	-2.161931
0.107400	-1.921739
0.107500	-1.742894
0.107600	-1.776975
0.107700	-1.888632
0.107800	-1.926608
0.107900	-1.899668
0.108000	-1.810083
0.108100	-1.798073
0.108200	-1.751982
0.108300	-1.731534
0.108400	-1.649414
0.108500	-1.493615
0.108600	-1.426426
0.108700	-1.450445
0.108800	-1.475438
0.108900	-1.509519
0.109000	-1.387152
0.109100	-1.260240
0.109200	-1.126837
0.109300	-1.117424
0.109400	-1.273872
0.109500	-1.310226
0.109600	-1.301787
0.109700	-1.258942
0.109800	-1.213176
0.109900	-1.098923
0.110000	-1.146312
0.110100	-1.230703
0.110200	-1.294321
0.110300	-1.292049
0.110400	-1.317691
0.110500	-1.272574
0.110600	-1.304383
0.110700	-1.223562
0.110800	-1.326130
0.110900	-1.206035
0.111000	-1.381634
0.111100	-1.287180
0.111200	-1.321911
0.111300	-1.131056
0.111400	-0.899305
0.111500	-0.821080
0.111600	-0.977204
0.111700	-1.536135
0.111800	-1.503028
0.111900	-1.234923
0.112000	-0.892813
0.112100	-0.808097
0.112200	-0.946694
0.112300	-1.191104
0.112400	-1.355667
0.112500	-1.252450
0.112600	-1.063219
0.112700	-0.891515
0.112800	-0.885023
0.112900	-1.003496
0.113000	-1.046340
0.113100	-1.201491
0.113200	-1.156374
0.113300	-1.123915
0.113400	-1.077825
0.113500	-1.105414
0.113600	-1.095352
0.113700	-1.212851
0.113800	-1.272574
0.113900	-1.374493
0.114000	-1.257968
0.114100	-1.307304
0.114200	-1.262837
0.114300	-1.172603
0.114400	-1.182989
0.114500	-1.280689
0.114600	-1.566970
0.114700	-1.590340
0.114800	-1.397538
0.114900	-1.109958
0.115000	-1.166760
0.115100	-1.293997
0.115200	-1.728937
0.115300	-1.761071
0.115400	-1.566970
0.115500	-1.289452
0.115600	-1.244335
0.115700	-1.396240
0.115800	-1.496536
0.115900	-1.462130
0.116000	-1.281662
0.116100	-1.256020
0.116200	-1.219992
0.116300	-1.303085
0.116400	-1.294646
0.116500	-1.221939
0.116600	-1.084316
0.116700	-1.058350
0.116800	-1.115801
0.116900	-1.106063
0.117000	-1.001873
0.117100	-0.888269
0.117200	-0.834713
0.117300	-0.849644
0.117400	-0.967467
0.117500	-0.910340
0.117600	-0.850617
0.117700	-0.763629
0.117800	-0.603611
0.117900	-0.664632
0.118000	-0.660737
0.118100	-0.676966
0.118200	-0.679238
0.118300	-0.716890
0.118400	-0.710398
0.118500	-0.741558
0.118600	-0.774341
0.118700	-0.818808
0.118800	-0.863925
0.118900	-0.881453
0.119000	-0.914235
0.119100	-0.929491
0.119200	-0.929491
0.119300	-0.958054
0.119400	-0.991811
0.119500	-1.039200
0.119600	-1.053806
0.119700	-1.275171
0.119800	-1.522178
0.119900	-1.395915
0.120000	-1.054130
0.120100	-0.857434
0.120200	-1.007066
0.120300	-1.260565
0.120400	-1.603324
0.120500	-1.555610
0.120600	-1.362483
0.120700	-1.121643
0.120800	-1.142092
0.120900	-1.298216
0.121000	-1.493290
0.121100	-1.581577
0.121200	-1.484526
0.121300	-1.432269
0.121400	-1.421557
0.121500	-1.398512
0.121600	-1.463104
0.121700	-1.498808
0.121800	-1.493290
0.121900	-1.506273
0.122000	-1.479658
0.122100	-1.481605
0.122200	-1.522503
0.122300	-1.529319
0.122400	-1.500106
0.122500	-1.569242
0.122600	-1.599104
0.122700	-1.654608
0.122800	-1.527371
0.122900	-1.361510
0.123000	-1.328402
0.123100	-1.584173
0.123200	-1.837672
0.123300	-1.850331
0.123400	-1.633185
0.123500	-1.324183
0.123600	-1.223887
0.123700	-1.404355
0.123800	-1.696803
0.123900	-1.788336
0.124000	-1.637405
0.124100	-1.428374
0.124200	-1.327753
0.124300	-1.405328
0.124400	-1.496211
0.124500	-1.525748
0.124600	-1.524450
0.124700	-1.540355
0.124800	-1.581901
0.124900	-1.585147
0.125000	-1.571190
0.125100	-1.536784
0.125200	-1.471868
0.125300	-1.512765
0.125400	-1.586445
0.125500	-1.665643
0.125600	-1.722770
0.125700	-1.594560
0.125800	-1.587744
0.125900	-1.461157
0.126000	-1.566970
0.126100	-1.733157
0.126200	-1.770159
0.126300	-1.769835
0.126400	-1.724393
0.126500	-1.659152
0.126600	-1.661749
0.126700	-1.699725
0.126800	-1.792880
0.126900	-1.846111
0.127000	-1.838971
0.127100	-1.924985
0.127200	-1.813004
0.127300	-1.890579
0.127400	-1.775028
0.127500	-1.817548
0.127600	-1.779247
0.127700	-1.826637
0.127800	-1.827610
0.127900	-1.669214
0.128000	-1.479333
0.128100	-1.258942
0.128200	-1.202140
0.128300	-1.552689
0.128400	-1.888956
0.128500	-1.711410
0.128600	-1.330350
0.128700	-1.047963
0.128800	-0.950913
0.128900	-1.142741
0.129000	-1.215448
0.129100	-1.276145
0.129200	-1.083992
0.129300	-0.910990
0.129400	-0.734417
0.129500	-0.775314
0.129600	-0.834064
0.129700	-0.834713
0.129800	-0.885672
0.129900	-0.844775
0.130000	-0.805500
0.130100	-0.801281
0.130200	-0.845099
0.130300	-0.759085
0.130400	-0.901901
0.130500	-0.912937
0.130600	-1.015830
0.130700	-0.964221
0.130800	-1.010636
0.130900	-0.902550
0.131000	-0.837309
0.131100	-0.826274
0.131200	-1.030760
0.131300	-1.293997
0.131400	-1.229729
0.131500	-0.991161
0.131600	-0.782131
0.131700	-0.921701
0.131800	-1.187209
0.131900	-1.460832
0.132000	-1.372870
0.132100	-1.155400
0.132200	-0.947343
0.132300	-1.025892
0.132400	-1.243362
0.132500	-1.332946
0.132600	-1.243686
0.132700	-1.141118
0.132800	-1.115801
0.132900	-1.153777
0.133000	-1.202789
0.133100	-1.187209
0.133200	-1.110608
0.133300	-0.996679
0.133400	-1.010636
0.133500	-1.057376
0.133600	-1.053157
0.133700	-0.958379
0.133800	-0.918455
0.133900	-0.914560
0.134000	-1.027839
0.134100	-1.156374
0.134200	-1.096326
0.134300	-1.081071
0.134400	-0.898655
0.134500	-0.980775
0.134600	-1.033682
0.134700	-1.036927
0.134800	-1.092756
0.134900	-1.115476
0.135000	-1.130083
0.135100	-1.176498
0.135200	-1.198894
0.135300	-1.210254
0.135400	-1.234598
0.135500	-1.267381
0.135600	-1.297242
0.135700	-1.293347
0.135800	-1.310226
0.135900	-1.293672
0.136000	-1.308278
0.136100	-1.290751
0.136200	-1.335219
0.136300	-1.391371
0.136400	-1.627667
0.136500	-1.737052
0.136600	-1.472192
0.136700	-1.168059
0.136800	-1.075553
0.136900	-1.251476
0.137000	-1.579305
0.137100	-1.756851
0.137200	-1.669214
0.137300	-1.434541
0.137400	-1.318989
0.137500	-1.402407
0.137600	-1.615333
0.137700	-1.784441
0.137800	-1.780221
0.137900	-1.623772
0.138000	-1.613061
0.138100	-1.596832
0.138200	-1.622149
0.138300	-1.691935
0.138400	-1.712059
0.138500	-1.715954
0.138600	-1.729911
0.138700	-1.728613
0.138800	-1.765940
0.138900	-1.802617
0.139000	-1.721796
0.139100	-1.734455
0.139200	-1.725042
0.139300	-1.804240
0.139400	-1.788985
0.139500	-1.674083
0.139600	-1.545223
0.139700	-1.654608
0.139800	-1.915572
0.139900	-2.089224
0.140000	-2.070074
0.140100	-1.800670
0.140200	-1.575085
0.140300	-1.617930
0.140400	-1.854875
0.140500	-2.125902
0.140600	-2.134666
0.140700	-1.920441
0.140800	-1.729586
0.140900	-1.711734
0.141000	-1.825987
0.141100	-1.889606
0.141200	-1.852603
0.141300	-1.791906
0.141400	-1.777625
0.141500	-1.720823
0.141600	-1.699076
0.141700	-1.575085
0.141800	-1.458235
0.141900	-1.422856
0.142000	-1.452068
0.142100	-1.500431
0.142200	-1.525099
0.142300	-1.493939
0.142400	-1.329051
0.142500	-1.332946
0.142600	-1.252125
0.142700	-1.236870
0.142800	-1.301137
0.142900	-1.290102
0.143000	-1.247257
0.143100	-1.200517
0.143200	-1.103791
0.143300	-1.141443
0.143400	-1.232001
0.143500	-1.296918
0.143600	-1.328078
0.143700	-1.318665
0.143800	-1.359562
0.143900	-1.310550
0.144000	-1.273872
0.144100	-1.253099
0.144200	-1.262188
0.144300	-1.304059
0.144400	-1.358588
0.144500	-1.250827
0.144600	-1.236870
0.144700	-0.925596
0.144800	-0.753243
0.144900	-0.791219
0.145000	-1.383906
0.145100	-1.456288
0.145200	-1.324507
0.145300	-0.955782
0.145400	-0.809071
0.145500	-0.764928
0.145600	-1.033682
0.145700	-1.123915
0.145800	-1.168059
0.145900	-0.916832
0.146000	-0.810045
0.146100	-0.761682
0.146200	-0.834064
0.146300	-0.935658
0.146400	-0.928842
0.146500	-0.929815
0.146600	-0.879830
0.146700	-0.878207
0.146800	-0.892488
0.146900	-0.870092
0.147000	-0.936956
0.147100	-1.003496
0.147200	-1.108985
0.147300	-1.036603
0.147400	-1.103142
0.147500	-1.054455
0.147600	-0.971037
0.147700	-0.841204
0.147800	-0.908393
0.147900	-1.145013
0.148000	-1.252125
0.148100	-1.061271
0.148200	-0.735715
0.148300	-0.659439
0.148400	-0.763629
0.148500	-1.067763
0.148600	-1.187534
0.148700	-0.984670
0.148800	-0.730847
0.148900	-0.631525
0.149000	-0.785376
0.149100	-1.024269
0.149200	-1.115801
0.149300	-0.996355
0.149400	-0.980450
0.149500	-0.994083
0.149600	-1.134951
0.149700	-1.218044
0.149800	-1.279066
0.149900	-1.232001
0.150000	-1.162541
0.150100	-1.247257
0.150200	-1.323534
0.150300	-1.327104
0.150400	-1.280689
0.150500	-1.319963
0.150600	-1.349500
0.150700	-1.543925
0.150800	-1.649739
0.150900	-1.618904
0.151000	-1.577032
0.151100	-1.421233
0.151200	-1.502378
0.151300	-1.526398
0.151400	-1.517958
0.151500	-1.516660
0.151600	-1.527047
0.151700	-1.525099
0.151800	-1.548145
0.151900	-1.541653
0.152000	-1.569242
0.152100	-1.534837
0.152200	-1.542951
0.152300	-1.545223
0.152400	-1.528670
0.152500	-1.543600
0.152600	-1.572813
0.152700	-1.626694
0.152800	-1.689338
0.152900	-1.693882
0.153000	-1.895123
0.153100	-2.099286
0.153200	-2.220031
0.153300	-1.900641
0.153400	-1.690312
0.153500	-1.686092
0.153600	-1.965558
0.153700	-2.320327
0.153800	-2.426141
0.153900	-2.266771
0.154000	-1.983085
0.154100	-1.952899
0.154200	-2.115191
0.154300	-2.339802
0.154400	-2.468662
0.154500	-2.402447
0.154600	-2.320976
0.154700	-2.292413
0.154800	-2.369989
0.154900	-2.430686
0.155000	-2.479373
0.155100	-2.466714
0.155200	-2.508586
0.155300	-2.559221
0.155400	-2.536824
0.155500	-2.590381
0.155600	-2.569607
0.155700	-2.537798
0.155800	-2.578371
0.155900	-2.573827
0.156000	-2.606285
0.156100	-2.519622
0.156200	-2.339802
0.156300	-2.261253
0.156400	-2.395306
0.156500	-2.634849
0.156600	-2.704959
0.156700	-2.564089
0.156800	-2.253788
0.156900	-2.042160
0.157000	-2.171344
0.157100	-2.453082
0.157200	-2.587459
0.157300	-2.502743
0.157400	-2.239831
0.157500	-2.047028
0.157600	-2.045405
0.157700	-2.099286
0.157800	-2.139210
0.157900	-2.097014
0.158000	-2.038914
0.158100	-1.955496
0.158200	-1.876947
0.158300	-1.820794
0.158400	-1.690312
0.158500	-1.588717
0.158600	-1.534837
0.158700	-1.546846
0.158800	-1.580278
0.158900	-1.578006
0.159000	-1.483228
0.159100	-1.324183
0.159200	-1.360861
0.159300	-1.155400
0.159400	-1.242713
0.159500	-1.252125
0.159600	-1.200192
0.159700	-1.111257
0.159800	-1.069061
0.159900	-1.010636
0.160000	-1.094379
0.160100	-1.152154
0.160200	-1.241090
0.160300	-1.234273
0.160400	-1.280040
0.160500	-1.222913
0.160600	-1.224536
0.160700	-1.178121
0.160800	-1.247581
0.160900	-1.236221
0.161000	-1.343658
0.161100	-1.366703
0.161200	-1.296918
0.161300	-1.213825
0.161400	-0.870417
0.161500	-0.778560
0.161600	-0.911639
0.161700	-1.524450
0.161800	-1.455314
0.161900	-1.077500
0.162000	-0.839257
0.162100	-0.628928
0.162200	-0.797710
0.162300	-1.045367
0.162400	-1.247581
0.162500	-1.035629
0.162600	-0.863276
0.162700	-0.675343
0.162800	-0.676641
0.162900	-0.727276
0.163000	-0.843152
0.163100	-0.896708
0.163200	-0.785052
0.163300	-0.751944
0.163400	-0.764928
0.163500	-0.809720
0.163600	-0.805500
0.163700	-0.786675
0.163800	-0.887295
0.163900	-0.950913
0.164000	-0.931438
0.164100	-0.874961
0.164200	-0.847372
0.164300	-0.677615
0.164400	-0.673396
0.164500	-0.689949
0.164600	-1.114178
0.164700	-0.977204
0.164800	-0.867496
0.164900	-0.559792
0.165000	-0.552002
0.165100	-0.753567
0.165200	-1.154751
0.165300	-1.184288
0.165400	-0.956431
0.165500	-0.697415
0.165600	-0.635095
0.165700	-0.818808
0.165800	-1.004145
0.165900	-1.028813
0.166000	-0.908393
0.166100	-0.837309
0.166200	-0.767200
0.166300	-0.922025
0.166400	-1.002846
0.166500	-1.050235
0.166600	-0.945395
0.166700	-0.901252
0.166800	-0.980450
0.166900	-0.997653
0.167000	-0.998951
0.167100	-0.969414
0.167200	-0.953185
0.167300	-1.067114
0.167400	-1.244011
0.167500	-1.256345
0.167600	-1.223238
0.167700	-1.044068
0.167800	-1.113204
0.167900	-1.231677
0.168000	-1.259266
0.168100	-1.295944
0.168200	-1.280689
0.168300	-1.324832
0.168400	-1.365080
0.168500	-1.430646
0.168600	-1.465701
0.168700	-1.476087
0.168800	-1.540355
0.168900	-1.580278
0.169000	-1.596183
0.169100	-1.607219
0.169200	-1.622149
0.169300	-1.621500
0.169400	-1.668565
0.169500	-1.657204
0.169600	-1.686741
0.169700	-1.881166
0.169800	-2.134017
0.169900	-1.928231
0.170000	-1.625395
0.170100	-1.333596
0.170200	-1.490044
0.170300	-1.771782
0.170400	-2.099611
0.170500	-2.085654
0.170600	-1.816574
0.170700	-1.590665
0.170800	-1.584173
0.170900	-1.839620
0.171000	-2.077864
0.171100	-2.149272
0.171200	-2.007429
0.171300	-1.938293
0.171400	-1.902913
0.171500	-1.945758
0.171600	-2.008403
0.171700	-2.053845
0.171800	-2.060661
0.171900	-2.022685
0.172000	-2.055143
0.172100	-2.069749
0.172200	-2.082408
0.172300	-2.112919
0.172400	-2.022360
0.172500	-2.081759
0.172600	-2.088250
0.172700	-2.142456
0.172800	-2.031448
0.172900	-1.848708
0.173000	-1.911028
0.173100	-2.152518
0.173200	-2.385244
0.173300	-2.504042
0.173400	-2.293062
0.173500	-2.012298
0.173600	-1.930503
0.173700	-2.140508
0.173800	-2.452108
0.173900	-2.629331
0.174000	-2.563440
0.174100	-2.340776
0.174200	-2.232041
0.174300	-2.310914
0.174400	-2.423220
0.174500	-2.531631
0.174600	-2.542992
0.174700	-2.507937
0.174800	-2.489111
0.174900	-2.443669
0.175000	-2.417702
0.175100	-2.377779
0.175200	-2.280728
0.175300	-2.273263
0.175400	-2.311239
0.175500	-2.334609
0.175600	-2.310590
0.175700	-2.099286
0.175800	-2.000613
0.175900	-2.065205
0.176000	-1.983735
0.176100	-2.047677
0.176200	-2.023009
0.176300	-1.982112
0.176400	-1.905510
0.176500	-1.763992
0.176600	-1.734455
0.176700	-1.751009
0.176800	-1.827286
0.176900	-1.836049
0.177000	-1.811706
0.177100	-1.810083
0.177200	-1.819820
0.177300	-1.759123
0.177400	-1.826961
0.177500	-1.778274
0.177600	-1.851305
0.177700	-1.856174
0.177800	-1.900966
0.177900	-1.785090
0.178000	-1.626694
0.178100	-1.377090
0.178200	-1.320612
0.178300	-1.746789
0.178400	-2.100584
0.178500	-2.037940
0.178600	-1.575734
0.178700	-1.317691
0.178800	-1.291725
0.178900	-1.495562
0.179000	-1.743543
0.179100	-1.759772
0.179200	-1.532889
0.179300	-1.338464
0.179400	-1.128784
0.179500	-1.124565
0.179600	-1.187534
0.179700	-1.280040
0.179800	-1.226159
0.179900	-1.206684
0.180000	-1.106388
0.180100	-1.098923
0.180200	-1.086913
0.180300	-1.109958
0.180400	-1.096001
0.180500	-1.255696
0.180600	-1.208307
0.180700	-1.141118
0.180800	-1.132030
0.180900	-0.967467
0.181000	-0.949939
0.181100	-0.944097
0.181200	-1.046990
0.181300	-1.332297
0.181400	-1.161567
0.181500	-0.966493
0.181600	-0.651973
0.181700	-0.759085
0.181800	-0.981749
0.181900	-1.197596
0.182000	-1.096975
0.182100	-0.880803
0.182200	-0.633147
0.182300	-0.639315
0.182400	-0.775639
0.182500	-0.889567
0.182600	-0.823028
0.182700	-0.758111
0.182800	-0.700660
0.182900	-0.694169
0.183000	-0.727276
0.183100	-0.746751
0.183200	-0.708126
0.183300	-0.643859
0.183400	-0.645482
0.183500	-0.701634
0.183600	-0.709100
0.183700	-0.625682
0.183800	-0.635744
0.183900	-0.633147
0.184000	-0.761682
0.184100	-0.882751
0.184200	-0.836011
0.184300	-0.815563
0.184400	-0.638016
0.184500	-0.753567
0.184600	-0.790570
0.184700	-0.797710
0.184800	-0.817835
0.184900	-0.824651
0.185000	-0.824326
0.185100	-0.854837
0.185200	-0.870741
0.185300	-0.889567
0.185400	-0.887295
0.185500	-0.931438
0.185600	-0.931438
0.185700	-0.958054
0.185800	-0.944097
0.185900	-0.992135
0.186000	-1.034655
0.186100	-1.095028
0.186200	-1.104116
0.186300	-1.225834
0.186400	-1.515686
0.186500	-1.653634
0.186600	-1.388450
0.186700	-1.131381
0.186800	-0.972011
0.186900	-1.274522
0.187000	-1.602999
0.187100	-1.851629
0.187200	-1.722445
0.187300	-1.497510
0.187400	-1.317367
0.187500	-1.428698
0.187600	-1.628641
0.187700	-1.817548
0.187800	-1.829558
0.187900	-1.713682
0.188000	-1.714006
0.188100	-1.697777
0.188200	-1.763667
0.188300	-1.801644
0.188400	-1.812030
0.188500	-1.821443
0.188600	-1.838971
0.188700	-1.879868
0.188800	-1.945109
0.188900	-1.916546
0.189000	-1.836699
0.189100	-1.843190
0.189200	-1.914274
0.189300	-1.990875
0.189400	-1.981463
0.189500	-1.789634
0.189600	-1.699076
0.189700	-1.830856
0.189800	-2.071047
0.189900	-2.233664
0.190000	-2.204127
0.190100	-1.881166
0.190200	-1.646169
0.190300	-1.685768
0.190400	-1.925310
0.190500	-2.158360
0.190600	-2.174914
0.190700	-1.989577
0.190800	-1.787687
0.190900	-1.710760
0.191000	-1.800345
0.191100	-1.874999
0.191200	-1.871429
0.191300	-1.843839
0.191400	-1.839620
0.191500	-1.823715
0.191600	-1.805214
0.191700	-1.708813
0.191800	-1.605596
0.191900	-1.571190
0.192000	-1.634808
0.192100	-1.710760
0.192200	-1.756202
0.192300	-1.716278
0.192400	-1.553338
0.192500	-1.608192
0.192600	-1.578655
0.192700	-1.584822
0.192800	-1.655906
0.192900	-1.646493
0.193000	-1.635782
0.193100	-1.637080
0.193200	-1.532565
0.193300	-1.596832
0.193400	-1.658503
0.193500	-1.796126
0.193600	-1.760422
0.193700	-1.848708
0.193800	-1.870780
0.193900	-1.921739
0.194000	-1.852279
0.194100	-1.868508
0.194200	-1.850006
0.194300	-1.944785
0.194400	-2.003859
0.194500	-2.005482
0.194600	-1.917844
0.194700	-1.685118
0.194800	-1.468297
0.194900	-1.525748
0.195000	-2.057090
0.195100	-2.255735
0.195200	-1.984708
0.195300	-1.630913
0.195400	-1.464402
0.195500	-1.509844
0.195600	-1.718550
0.195700	-1.909405
0.195800	-1.896097
0.195900	-1.629615
0.196000	-1.507896
0.196100	-1.447849
0.196200	-1.568593
0.196300	-1.610789
0.196400	-1.681548
0.196500	-1.577032
0.196600	-1.559505
0.196700	-1.509844
0.196800	-1.540679
0.196900	-1.507896
0.197000	-1.531591
0.197100	-1.482579
0.197200	-1.650388
0.197300	-1.503352
0.197400	-1.610140
0.197500	-1.531915
0.197600	-1.398188
0.197700	-1.333920
0.197800	-1.321261
0.197900	-1.592612
0.198000	-1.616956
0.198100	-1.474789
0.198200	-1.219343
0.198300	-0.951562
0.198400	-1.194999
0.198500	-1.435839
0.198600	-1.578980
0.198700	-1.399486
0.198800	-1.170655
0.198900	-1.005118
0.199000	-1.090808
0.199100	-1.240441
0.199200	-1.322235
0.199300	-1.196622
0.199400	-1.138197
0.199500	-1.056402
0.199600	-1.173252
0.199700	-1.203763
0.199800	-1.243362
0.199900	-1.181367
0.200000	-1.129758
0.200100	-1.161892
0.200200	-1.194999
0.200300	-1.202789
0.200400	-1.154751
0.200500	-1.159295
0.200600	-1.158970
0.200700	-1.302436
0.200800	-1.349500
0.200900	-1.317042
0.201000	-1.293997
0.201100	-1.149882
0.201200	-1.211877
0.201300	-1.251152
0.201400	-1.243037
0.201500	-1.232975
0.201600	-1.239142
0.201700	-1.247581
0.201800	-1.275820
0.201900	-1.277443
0.202000	-1.304383
0.202100	-1.302760
0.202200	-1.337166
0.202300	-1.364106
0.202400	-1.362159
0.202500	-1.409548
0.202600	-1.387476
0.202700	-1.445577
0.202800	-1.440383
0.202900	-1.482904
0.203000	-1.610789
0.203100	-1.885386
0.203200	-1.865262
0.203300	-1.578331
0.203400	-1.296269
0.203500	-1.346254
0.203600	-1.596183
0.203700	-1.956145
0.203800	-2.007429
0.203900	-1.800345
0.204000	-1.548469
0.204100	-1.479009
0.204200	-1.665643
0.204300	-1.913300
0.204400	-2.026904
0.204500	-1.960365
0.204600	-1.821119
0.204700	-1.728288
0.204800	-1.750684
0.204900	-1.811381
0.205000	-1.860718
0.205100	-1.841243
0.205200	-1.785739
0.205300	-1.825663
0.205400	-1.860718
0.205500	-1.861042
0.205600	-1.850331
0.205700	-1.781520
0.205800	-1.774703
0.205900	-1.813329
0.206000	-1.842866
0.206100	-1.755877
0.206200	-1.544250
0.206300	-1.477061
0.206400	-1.697453
0.206500	-1.926933
0.206600	-2.060012
0.206700	-1.941863
0.206800	-1.677978
0.206900	-1.562102
0.207000	-1.712383
0.207100	-2.011649
0.207200	-2.227496
0.207300	-2.205749
0.207400	-2.007429
0.207500	-1.859744
0.207600	-1.871754
0.207700	-1.936021
0.207800	-1.980489
0.207900	-1.942837
0.208000	-1.908756
0.208100	-1.874675
0.208200	-1.833453
0.208300	-1.765290
0.208400	-1.675381
0.208500	-1.584173
0.208600	-1.567620
0.208700	-1.605271
0.208800	-1.655906
0.208900	-1.714980
0.209000	-1.586121
0.209100	-1.481930
0.209200	-1.549118
0.209300	-1.371572
0.209400	-1.445577
0.209500	-1.485825
0.209600	-1.460183
0.209700	-1.407276
0.209800	-1.337166
0.209900	-1.296269
0.210000	-1.319639
0.210100	-1.428049
0.210200	-1.407276
0.210300	-1.406951
0.210400	-1.347228
0.210500	-1.383257
0.210600	-1.218693
0.210700	-1.233300
0.210800	-1.107037
0.210900	-1.168059
0.211000	-1.140794
0.211100	-1.140469
0.211200	-1.028813
0.211300	-0.793491
0.211400	-0.508508
0.211500	-0.268642
0.211600	-0.538045
0.211700	-0.965195
0.211800	-0.968765
0.211900	-0.708775
0.212000	-0.386465
0.212100	-0.317005
0.212200	-0.433854
0.212300	-0.671448
0.212400	-0.749348
0.212500	-0.603935
0.212600	-0.432880
0.212700	-0.256308
0.212800	-0.347515
0.212900	-0.376728
0.213000	-0.460470
0.213100	-0.392308
0.213200	-0.342971
0.213300	-0.292986
0.213400	-0.276432
0.213500	-0.314084
0.213600	-0.306294
0.213700	-0.310513
0.213800	-0.363420
0.213900	-0.543563
0.214000	-0.540966
0.214100	-0.491305
0.214200	-0.487735
0.214300	-0.344270
0.214400	-0.454627
0.214500	-0.471181
0.214600	-0.881128
0.214700	-0.840231
0.214800	-0.749023
0.214900	-0.515649
0.215000	-0.522465
0.215100	-0.793166
0.215200	-1.077500
0.215300	-1.140794
0.215400	-0.986942
0.215500	-0.841529
0.215600	-0.843477
0.215700	-1.026216
0.215800	-1.227457
0.215900	-1.256670
0.216000	-1.247581
0.216100	-1.230703
0.216200	-1.250827
0.216300	-1.412469
0.216400	-1.487123
0.216500	-1.560803
0.216600	-1.482579
0.216700	-1.498483
0.216800	-1.609815
0.216900	-1.669538
0.217000	-1.684145
0.217100	-1.689663
0.217200	-1.717252
0.217300	-1.823066
0.217400	-2.005806
0.217500	-2.022685
0.217600	-2.012622
0.217700	-1.886684
0.217800	-1.890255
0.217900	-2.008403
0.218000	-2.028202
0.218100	-2.058064
0.218200	-2.066503
0.218300	-2.100260
0.218400	-2.134017
0.218500	-2.175888
0.218600	-2.189196
0.218700	-2.187573
0.218800	-2.220356
0.218900	-2.199582
0.219000	-2.225224
0.219100	-2.199582
0.219200	-2.183353
0.219300	-2.196012
0.219400	-2.151544
0.219500	-2.231391
0.219600	-2.189520
0.219700	-2.448213
0.219800	-2.598171
0.219900	-2.464442
0.220000	-2.103181
0.220100	-1.889930
0.220200	-1.949978
0.220300	-2.259955
0.220400	-2.502743
0.220500	-2.415430
0.220600	-2.165501
0.220700	-1.894474
0.220800	-1.922713
0.220900	-2.096040
0.221000	-2.244699
0.221100	-2.221005
0.221200	-2.025606
0.221300	-1.920766
0.221400	-1.894799
0.221500	-1.874675
0.221600	-1.867534
0.221700	-1.820794
0.221800	-1.745166
0.221900	-1.669863
0.222000	-1.658178
0.222100	-1.613386
0.222200	-1.646493
0.222300	-1.516336
0.222400	-1.452393
0.222500	-1.429997
0.222600	-1.476736
0.222700	-1.423180
0.222800	-1.252775
0.222900	-1.071982
0.223000	-1.062894
0.223100	-1.237844
0.223200	-1.424479
0.223300	-1.459534
0.223400	-1.210579
0.223500	-0.926245
0.223600	-0.826598
0.223700	-0.986617
0.223800	-1.221615
0.223900	-1.315744
0.224000	-1.176173
0.224100	-0.915209
0.224200	-0.790894
0.224300	-0.847047
0.224400	-0.928842
0.224500	-0.979152
0.224600	-0.941825
0.224700	-0.894436
0.224800	-0.857434
0.224900	-0.795114
0.225000	-0.742856
0.225100	-0.626656
0.225200	-0.527983
0.225300	-0.539992
0.225400	-0.578618
0.225500	-0.622761
0.225600	-0.638016
0.225700	-0.481568
0.225800	-0.441644
0.225900	-0.484489
0.226000	-0.342971
0.226100	-0.447162
0.226200	-0.455601
0.226300	-0.452355
0.226400	-0.402045
0.226500	-0.350437
0.226600	-0.361797
0.226700	-0.413081
0.226800	-0.481243
0.226900	-0.550704
0.227000	-0.514675
0.227100	-0.655544
0.227200	-0.589653
0.227300	-0.639964
0.227400	-0.593224
0.227500	-0.632498
0.227600	-0.778885
0.227700	-0.747725
0.227800	-0.982398
0.227900	-0.689949
0.228000	-0.840231
0.228100	-0.326418
0.228200	-0.565310
0.228300	-0.819133
0.228400	-1.281013
0.228500	-1.256994
0.228600	-0.848345
0.228700	-0.764928
0.228800	-0.653272
0.228900	-0.995056
0.229000	-1.194999
0.229100	-1.304059
0.229200	-1.148259
0.229300	-0.960326
0.229400	-0.929166
0.229500	-0.998627
0.229600	-1.166111
0.229700	-1.245309
0.229800	-1.261863
0.229900	-1.256670
0.230000	-1.294321
0.230100	-1.360861
0.230200	-1.369300
0.230300	-1.446550
0.230400	-1.397214
0.230500	-1.647791
0.230600	-1.592937
0.230700	-1.681873
0.230800	-1.626044
0.230900	-1.528345
0.231000	-1.495887
0.231100	-1.478359
0.231200	-1.658827
0.231300	-1.887658
0.231400	-1.735429
0.231500	-1.529643
0.231600	-1.254722
0.231700	-1.334569
0.231800	-1.565997
0.231900	-1.779897
0.232000	-1.712383
0.232100	-1.480631
0.232200	-1.253424
0.232300	-1.261863
0.232400	-1.444278
0.232500	-1.573137
0.232600	-1.544899
0.232700	-1.521204
0.232800	-1.423830
0.232900	-1.504001
0.233000	-1.602350
0.233100	-1.659476
0.233200	-1.680899
0.233300	-1.633834
0.233400	-1.687066
0.233500	-1.758474
0.233600	-1.736403
0.233700	-1.677004
0.233800	-1.653959
0.233900	-1.659152
0.234000	-1.772431
0.234100	-1.866236
0.234200	-1.811057
0.234300	-1.747114
0.234400	-1.517958
0.234500	-1.568269
0.234600	-1.591963
0.234700	-1.569567
0.234800	-1.564049
0.234900	-1.541978
0.235000	-1.561128
0.235100	-1.566970
0.235200	-1.539705
0.235300	-1.506923
0.235400	-1.500106
0.235500	-1.460507
0.235600	-1.465051
0.235700	-1.397538
0.235800	-1.385529
0.235900	-1.310226
0.236000	-1.369949
0.236100	-1.334569
0.236200	-1.349500
0.236300	-1.377739
0.236400	-1.594235
0.236500	-1.683820
0.236600	-1.401433
0.236700	-1.066789
0.236800	-0.956431
0.236900	-1.184937
0.237000	-1.492316
0.237100	-1.622474
0.237200	-1.477061
0.237300	-1.145987
0.237400	-0.959028
0.237500	-1.022970
0.237600	-1.174875
0.237700	-1.284908
0.237800	-1.174875
0.237900	-1.043744
0.238000	-0.909367
0.238100	-0.897357
0.238200	-0.884698
0.238300	-0.905147
0.238400	-0.872364
0.238500	-0.830169
0.238600	-0.753892
0.238700	-0.807448
0.238800	-0.816536
0.238900	-0.771095
0.239000	-0.714942
0.239100	-0.679238
0.239200	-0.705529
0.239300	-0.679887
0.239400	-0.671124
0.239500	-0.501043
0.239600	-0.360823
0.239700	-0.502666
0.239800	-0.661061
0.239900	-0.803878
0.240000	-0.806150
0.240100	-0.555248
0.240200	-0.304671
0.240300	-0.362446
0.240400	-0.598417
0.240500	-0.833090
0.240600	-0.856460
0.240700	-0.734417
0.240800	-0.558818
0.240900	-0.539992
0.241000	-0.618866
0.241100	-0.717539
0.241200	-0.774016
0.241300	-0.770121
0.241400	-0.788298
0.241500	-0.809071
0.241600	-0.803228
0.241700	-0.768174
0.241800	-0.704555
0.241900	-0.715591
0.242000	-0.799983
0.242100	-0.906770
0.242200	-1.031085
0.242300	-1.054130
0.242400	-0.944097
0.242500	-1.044068
0.242600	-0.961949
0.242700	-1.037577
0.242800	-1.075877
0.242900	-1.131705
0.243000	-1.141768
0.243100	-1.142741
0.243200	-1.073605
0.243300	-1.170980
0.243400	-1.243362
0.243500	-1.437787
0.243600	-1.442655
0.243700	-1.538732
0.243800	-1.575410
0.243900	-1.677004
0.244000	-1.630589
0.244100	-1.738350
0.244200	-1.801644
0.244300	-1.887983
0.244400	-2.001587
0.244500	-1.971400
0.244600	-2.019114
0.244700	-1.722121
0.244800	-1.514063
0.244900	-1.721147
0.245000	-2.136613
0.245100	-2.338504
0.245200	-2.082732
0.245300	-1.783467
0.245400	-1.568918
0.245500	-1.703295
0.245600	-1.923687
0.245700	-1.997692
0.245800	-1.925310
0.245900	-1.585472
0.246000	-1.442980
0.246100	-1.380335
0.246200	-1.550741
0.246300	-1.561777
0.246400	-1.637729
0.246500	-1.542627
0.246600	-1.474789
0.246700	-1.466025
0.246800	-1.456288
0.246900	-1.468622
0.247000	-1.367352
0.247100	-1.437137
0.247200	-1.582226
0.247300	-1.536784
0.247400	-1.488097
0.247500	-1.430970
0.247600	-1.219343
0.247700	-1.149233
0.247800	-1.135925
0.247900	-1.379362
0.248000	-1.451094
0.248100	-1.327429
0.248200	-1.083018
0.248300	-0.889243
0.248400	-1.082369
0.248500	-1.364756
0.248600	-1.484526
0.248700	-1.354044
0.248800	-1.149557
0.248900	-1.003820
0.249000	-1.116126
0.249100	-1.273548
0.249200	-1.335868
0.249300	-1.259266
0.249400	-1.221939
0.249500	-1.172278
0.249600	-1.256020
0.249700	-1.305682
0.249800	-1.308278
0.249900	-1.281662
0.250000	-1.247906
0.250100	-1.273872
0.250200	-1.298865
0.250300	-1.280364
0.250400	-1.251476
0.250500	-1.287505
0.250600	-1.302760
0.250700	-1.468297
0.250800	-1.527696
0.250900	-1.509519
0.251000	-1.480307
0.251100	-1.397538
0.251200	-1.489720
0.251300	-1.529643
0.251400	-1.528670
0.251500	-1.569892
0.251600	-1.595858
0.251700	-1.654283
0.251800	-1.690312
0.251900	-1.722121
0.252000	-1.773405
0.252100	-1.812030
0.252200	-1.837672
0.252300	-1.841243
0.252400	-1.857472
0.252500	-1.899668
0.252600	-1.919792
0.252700	-2.002560
0.252800	-2.016517
0.252900	-2.085978
0.253000	-2.256709
0.253100	-2.503392
0.253200	-2.492032
0.253300	-2.222303
0.253400	-1.964584
0.253500	-1.998990
0.253600	-2.280079
0.253700	-2.660815
0.253800	-2.668281
0.253900	-2.482944
0.254000	-2.193091
0.254100	-2.109024
0.254200	-2.259306
0.254300	-2.483268
0.254400	-2.528710
0.254500	-2.404070
0.254600	-2.264499
0.254700	-2.163554
0.254800	-2.179458
0.254900	-2.202828
0.255000	-2.244050
0.255100	-2.182704
0.255200	-2.113243
0.255300	-2.062284
0.255400	-2.088250
0.255500	-2.126876
0.255600	-2.058389
0.255700	-2.015219
0.255800	-2.011973
0.255900	-2.031448
0.256000	-2.089224
0.256100	-1.936346
0.256200	-1.772107
0.256300	-1.648441
0.256400	-1.834102
0.256500	-2.031124
0.256600	-2.146675
0.256700	-1.997692
0.256800	-1.687715
0.256900	-1.508221
0.257000	-1.605920
0.257100	-1.843839
0.257200	-2.040537
0.257300	-1.990226
0.257400	-1.758799
0.257500	-1.585796
0.257600	-1.584173
0.257700	-1.662073
0.257800	-1.685443
0.257900	-1.658503
0.258000	-1.634484
0.258100	-1.606569
0.258200	-1.546197
0.258300	-1.493615
0.258400	-1.391696
0.258500	-1.273223
0.258600	-1.246283
0.258700	-1.319314
0.258800	-1.382283
0.258900	-1.428698
0.259000	-1.374818
0.259100	-1.261863
0.259200	-1.343982
0.259300	-1.154751
0.259400	-1.323209
0.259500	-1.397538
0.259600	-1.390073
0.259700	-1.361834
0.259800	-1.303409
0.259900	-1.262512
0.260000	-1.351772
0.260100	-1.442331
0.260200	-1.552364
0.260300	-1.511467
0.260400	-1.547495
0.260500	-1.600078
0.260600	-1.536460
0.260700	-1.555610
0.260800	-1.555610
0.260900	-1.585147
0.261000	-1.654608
0.261100	-1.643572
0.261200	-1.656880
0.261300	-1.485500
0.261400	-1.237195
0.261500	-1.071982
0.261600	-1.322884
0.261700	-1.856174
0.261800	-1.903563
0.261900	-1.539381
0.262000	-1.252450
0.262100	-1.184612
0.262200	-1.374493
0.262300	-1.619877
0.262400	-1.752632
0.262500	-1.559180
0.262600	-1.380660
0.262700	-1.118398
0.262800	-1.180393
0.262900	-1.290751
0.263000	-1.326130
0.263100	-1.318340
0.263200	-1.240441
0.263300	-1.178770
0.263400	-1.143066
0.263500	-1.170006
0.263600	-1.144040
0.263700	-1.175849
0.263800	-1.215123
0.263900	-1.365080
0.264000	-1.273872
0.264100	-1.325156
0.264200	-1.249853
0.264300	-1.164488
0.264400	-1.138522
0.264500	-1.211553
0.264600	-1.512441
0.264700	-1.475114
0.264800	-1.347228
0.264900	-1.016154
0.265000	-1.028164
0.265100	-1.203114
0.265200	-1.478035
0.265300	-1.485825
0.265400	-1.293023
0.265500	-1.043744
0.265600	-0.933710
0.265700	-1.072631
0.265800	-1.233949
0.265900	-1.222588
0.266000	-1.156698
0.266100	-1.068737
0.266200	-1.050235
0.266300	-1.117748
0.266400	-1.150856
0.266500	-1.183314
0.266600	-1.090484
0.266700	-1.049586
0.266800	-1.073930
0.266900	-1.087562
0.267000	-1.082044
0.267100	-1.066464
0.267200	-1.068737
0.267300	-1.130732
0.267400	-1.274846
0.267500	-1.271600
0.267600	-1.241090
0.267700	-1.053806
0.267800	-1.056727
0.267900	-1.123266
0.268000	-1.151830
0.268100	-1.138522
0.268200	-1.130407
0.268300	-1.134627
0.268400	-1.134951
0.268500	-1.148908
0.268600	-1.113529
0.268700	-1.144040
0.268800	-1.138197
0.268900	-1.123591
0.269000	-1.120020
0.269100	-1.150531
0.269200	-1.132030
0.269300	-1.148259
0.269400	-1.150207
0.269500	-1.158646
0.269600	-1.152479
0.269700	-1.362159
0.269800	-1.498808
0.269900	-1.334245
0.270000	-0.982722
0.270100	-0.776288
0.270200	-0.923324
0.270300	-1.215772
0.270400	-1.487448
0.270500	-1.439085
0.270600	-1.209281
0.270700	-1.045691
0.270800	-1.072956
0.270900	-1.270302
0.271000	-1.503677
0.271100	-1.525748
0.271200	-1.449147
0.271300	-1.328402
0.271400	-1.343333
0.271500	-1.397863
0.271600	-1.430970
0.271700	-1.467324
0.271800	-1.464727
0.271900	-1.460507
0.272000	-1.510818
0.272100	-1.581252
0.272200	-1.608842
0.272300	-1.545873
0.272400	-1.503677
0.272500	-1.562751
0.272600	-1.624097
0.272700	-1.603324
0.272800	-1.510168
0.272900	-1.357615
0.273000	-1.393968
0.273100	-1.555285
0.273200	-1.750035
0.273300	-1.805863
0.273400	-1.561777
0.273500	-1.332622
0.273600	-1.249529
0.273700	-1.415715
0.273800	-1.643896
0.273900	-1.746140
0.274000	-1.647467
0.274100	-1.452068
0.274200	-1.331324
0.274300	-1.342035
0.274400	-1.347877
0.274500	-1.362483
0.274600	-1.299190
0.274700	-1.254722
0.274800	-1.178121
0.274900	-1.055429
0.275000	-0.937281
0.275100	-0.769147
0.275200	-0.645157
0.275300	-0.620164
0.275400	-0.623085
0.275500	-0.594198
0.275600	-0.546484
0.275700	-0.324146
0.275800	-0.261826
0.275900	-0.158609
0.276000	0.006279
0.276100	0.007252
0.276200	-0.018390
0.276300	0.060159
0.276400	0.127672
0.276500	0.233486
0.276600	0.223748
0.276700	0.248741
0.276800	0.166622
0.276900	0.212063
0.277000	0.177009
0.277100	0.177333
0.277200	0.170517
0.277300	0.241600
0.277400	0.257180
0.277500	0.249066
0.277600	0.204923
0.277700	0.141305
0.277800	0.137410
0.277900	0.213362
0.278000	0.315605
0.278100	0.654793
0.278200	0.507433
0.278300	0.194536
0.278400	-0.192365
0.278500	-0.004757
0.278600	0.301323
0.278700	0.436674
0.278800	0.450955
0.278900	0.205247
0.279000	-0.023258
0.279100	-0.132967
0.279200	0.031921
0.279300	0.115663
0.279400	0.136111
0.279500	-0.028776
0.279600	-0.168671
0.279700	-0.301749
0.279800	-0.353683
0.279900	-0.435802
0.280000	-0.527658
0.280100	-0.663334
0.280200	-0.752594
0.280300	-0.851591
0.280400	-0.914560
0.280500	-1.223887
0.280600	-1.208956
0.280700	-1.415390
0.280800	-1.382932
0.280900	-1.339114
0.281000	-1.320288
0.281100	-1.386178
0.281200	-1.675381
0.281300	-1.892851
0.281400	-1.797749
0.281500	-1.606894
0.281600	-1.467324
0.281700	-1.617605
0.281800	-1.874026
0.281900	-2.088575
0.282000	-2.002885
0.282100	-1.818522
0.282200	-1.605920
0.282300	-1.638703
0.282400	-1.827935
0.282500	-1.912651
0.282600	-1.803267
0.282700	-1.737701
0.282800	-1.652660
0.282900	-1.692584
0.283000	-1.745491
0.283100	-1.747763
0.283200	-1.711734
0.283300	-1.626369
0.283400	-1.614359
0.283500	-1.655257
0.283600	-1.632211
0.283700	-1.581901
0.283800	-1.555935
0.283900	-1.532889
0.284000	-1.647791
0.284100	-1.761720
0.284200	-1.746465
0.284300	-1.686741
0.284400	-1.498159
0.284500	-1.633510
0.284600	-1.692259
0.284700	-1.713682
0.284800	-1.708164
0.284900	-1.745815
0.285000	-1.770484
0.285100	-1.807486
0.285200	-1.823715
0.285300	-1.861367
0.285400	-1.898369
0.285500	-1.944135
0.285600	-1.982436
0.285700	-2.058389
0.285800	-2.133692
0.285900	-2.232041
0.286000	-2.333311
0.286100	-2.448538
0.286200	-2.522543
0.286300	-2.680290
0.286400	-2.987996
0.286500	-3.092837
0.286600	-2.936712
0.286700	-2.603040
0.286800	-2.633875
0.286900	-2.839337
0.287000	-3.284991
0.287100	-3.372304
0.287200	-3.282069
0.287300	-2.954239
0.287400	-2.808826
0.287500	-2.941256
0.287600	-3.162947
0.287700	-3.260322
0.287800	-3.207415
0.287900	-3.012015
0.288000	-2.912043
0.288100	-2.881857
0.288200	-2.925676
0.288300	-2.963977
0.288400	-2.916588
0.288500	-2.855566
0.288600	-2.824406
0.288700	-2.881208
0.288800	-2.898086
0.288900	-2.855566
0.289000	-2.749102
0.289100	-2.653675
0.289200	-2.636147
0.289300	-2.651727
0.289400	-2.599145
0.289500	-2.414781
0.289600	-2.262551
0.289700	-2.375831
0.289800	-2.548509
0.289900	-2.664710
0.290000	-2.629980
0.290100	-2.314485
0.290200	-2.067152
0.290300	-2.067802
0.290400	-2.224251
0.290500	-2.412834
0.290600	-2.380700
0.290700	-2.159334
0.290800	-1.917520
0.290900	-1.836374
0.291000	-1.876622
0.291100	-1.904861
0.291200	-1.867859
0.291300	-1.768212
0.291400	-1.677978
0.291500	-1.627992
0.291600	-1.573137
0.291700	-1.452393
0.291800	-1.305032
0.291900	-1.197271
0.292000	-1.186884
0.292100	-1.201815
0.292200	-1.184937
0.292300	-1.084316
0.292400	-0.881777
0.292500	-0.871715
0.292600	-0.643859
0.292700	-0.674369
0.292800	-0.688976
0.292900	-0.639639
0.293000	-0.562064
0.293100	-0.455926
0.293200	-0.332909
0.293300	-0.348814
0.293400	-0.363420
0.293500	-0.439048
0.293600	-0.441320
0.293700	-0.460794
0.293800	-0.485787
0.293900	-0.420871
0.294000	-0.415028
0.294100	-0.469883
0.294200	-0.427687
0.294300	-0.594847
0.294400	-0.564985
0.294500	-0.663334
0.294600	-0.531553
0.294700	-0.427363
0.294800	-0.230666
0.294900	-0.458522
0.295000	-0.949290
0.295100	-1.194674
0.295200	-0.867820
0.295300	-0.536097
0.295400	-0.401071
0.295500	-0.525711
0.295600	-0.772718
0.295700	-0.999276
0.295800	-0.938904
0.295900	-0.689300
0.296000	-0.538045
0.296100	-0.537720
0.296200	-0.738312
0.296300	-0.764279
0.296400	-0.834713
0.296500	-0.749997
0.296600	-0.762331
0.296700	-0.752918
0.296800	-0.788622
0.296900	-0.777586
0.297000	-0.784078
0.297100	-0.882426
0.297200	-0.932412
0.297300	-0.960975
0.297400	-0.993109
0.297500	-1.045367
0.297600	-0.972985
0.297700	-0.987266
0.297800	-1.120345
0.297900	-1.399810
0.298000	-1.536135
0.298100	-1.403381
0.298200	-1.198245
0.298300	-1.063868
0.298400	-1.290426
0.298500	-1.567944
0.298600	-1.732508
0.298700	-1.590665
0.298800	-1.377090
0.298900	-1.235247
0.299000	-1.385529
0.299100	-1.575085
0.299200	-1.617281
0.299300	-1.502703
0.299400	-1.436164
0.299500	-1.332946
0.299600	-1.391047
0.299700	-1.417338
0.299800	-1.434216
0.299900	-1.367677
0.300000	-1.278741
0.300100	-1.286531
0.300200	-1.303085
0.300300	-1.275820
0.300400	-1.232975
0.300500	-1.245958
0.300600	-1.281662
0.300700	-1.448498
0.300800	-1.472517
0.300900	-1.416040
0.301000	-1.246608
0.301100	-1.201491
0.301200	-1.297242
0.301300	-1.292374
0.301400	-1.244660
0.301500	-1.226483
0.301600	-1.237195
0.301700	-1.199219
0.301800	-1.191429
0.301900	-1.178770
0.302000	-1.176173
0.302100	-1.185911
0.302200	-1.182665
0.302300	-1.183963
0.302400	-1.205061
0.302500	-1.226159
0.302600	-1.268679
0.302700	-1.290426
0.302800	-1.317042
0.302900	-1.315744
0.303000	-1.446875
0.303100	-1.660775
0.303200	-1.565347
0.303300	-1.227457
0.303400	-0.955782
0.303500	-0.953185
0.303600	-1.195973
0.303700	-1.564698
0.303800	-1.509195
0.303900	-1.256670
0.304000	-0.968116
0.304100	-0.898980
0.304200	-1.020049
0.304300	-1.219992
0.304400	-1.282312
0.304500	-1.193376
0.304600	-1.053157
0.304700	-1.034006
0.304800	-1.021997
0.304900	-1.041796
0.305000	-1.050884
0.305100	-1.036927
0.305200	-0.998951
0.305300	-0.963572
0.305400	-1.033357
0.305500	-1.055753
0.305600	-1.046990
0.305700	-0.992784
0.305800	-1.009338
0.305900	-1.031085
0.306000	-1.005118
0.306100	-0.904498
0.306200	-0.714293
0.306300	-0.690274
0.306400	-0.889567
0.306500	-1.126512
0.306600	-1.265109
0.306700	-1.141443
0.306800	-0.873987
0.306900	-0.739610
0.307000	-0.883076
0.307100	-1.192727
0.307200	-1.418636
0.307300	-1.378388
0.307400	-1.161892
0.307500	-1.008689
0.307600	-1.023944
0.307700	-1.133328
0.307800	-1.210904
0.307900	-1.231352
0.308000	-1.210254
0.308100	-1.185586
0.308200	-1.174550
0.308300	-1.138846
0.308400	-1.053481
0.308500	-0.929166
0.308600	-0.923973
0.308700	-0.994407
0.308800	-1.023295
0.308900	-1.021348
0.309000	-0.876584
0.309100	-0.783429
0.309200	-0.757138
0.309300	-0.606856
0.309400	-0.769796
0.309500	-0.789271
0.309600	-0.749348
0.309700	-0.706828
0.309800	-0.654894
0.309900	-0.626656
0.310000	-0.705205
0.310100	-0.780183
0.310200	-0.868469
0.310300	-0.840231
0.310400	-0.924297
0.310500	-0.910665
0.310600	-0.895734
0.310700	-0.949290
0.310800	-0.938904
0.310900	-1.019400
0.311000	-1.082694
0.311100	-1.131381
0.311200	-1.079123
0.311300	-0.939877
0.311400	-0.727276
0.311500	-0.599391
0.311600	-0.972011
0.311700	-1.382932
0.311800	-1.458235
0.311900	-1.026216
0.312000	-0.774665
0.312100	-0.711372
0.312200	-0.873338
0.312300	-1.139171
0.312400	-1.252775
0.312500	-1.150856
0.312600	-0.841204
0.312700	-0.836660
0.312800	-0.862627
0.312900	-1.061920
0.313000	-1.139820
0.313100	-1.167734
0.313200	-1.109634
0.313300	-1.103467
0.313400	-1.104116
0.313500	-1.082369
0.313600	-1.080746
0.313700	-1.095028
0.313800	-1.178121
0.313900	-1.214799
0.314000	-1.190130
0.314100	-1.149233
0.314200	-1.024918
0.314300	-0.864250
0.314400	-0.826598
0.314500	-0.869443
0.314600	-1.120020
0.314700	-0.993109
0.314800	-0.774665
0.314900	-0.398150
0.315000	-0.378351
0.315100	-0.539019
0.315200	-0.806474
0.315300	-0.805825
0.315400	-0.550054
0.315500	-0.251115
0.315600	-0.128423
0.315700	-0.282275
0.315800	-0.450083
0.315900	-0.398150
0.316000	-0.288766
0.316100	-0.176136
0.316200	-0.123879
0.316300	-0.174513
0.316400	-0.191716
0.316500	-0.169969
0.316600	-0.130695
0.316700	-0.154714
0.316800	-0.216060
0.316900	-0.249816
0.317000	-0.254360
0.317100	-0.231964
0.317200	-0.278380
0.317300	-0.351735
0.317400	-0.545835
0.317500	-0.545186
0.317600	-0.496498
0.317700	-0.490331
0.317800	-0.425740
0.317900	-0.503639
0.318000	-0.519868
0.318100	-0.543238
0.318200	-0.562064
0.318300	-0.613997
0.318400	-0.662360
0.318500	-0.733443
0.318600	-0.755839
0.318700	-0.835362
0.318800	-0.900278
0.318900	-0.933710
0.319000	-0.984345
0.319100	-1.032383
0.319200	-1.093405
0.319300	-1.101519
0.319400	-1.215123
0.319500	-1.239467
0.319600	-1.339114
0.319700	-1.564049
0.319800	-1.779247
0.319900	-1.649739
0.320000	-1.351448
0.320100	-1.175199
0.320200	-1.381634
0.320300	-1.780546
0.320400	-2.111620
0.320500	-2.121682
0.320600	-1.911028
0.320700	-1.758474
0.320800	-1.841567
0.320900	-2.126876
0.321000	-2.381024
0.321100	-2.509884
0.321200	-2.445616
0.321300	-2.354733
0.321400	-2.330065
0.321500	-2.428089
0.321600	-2.480022
0.321700	-2.524815
0.321800	-2.502743
0.321900	-2.498199
0.322000	-2.506638
0.322100	-2.589407
0.322200	-2.617321
0.322300	-2.609856
0.322400	-2.581292
0.322500	-2.616672
0.322600	-2.659517
0.322700	-2.669904
0.322800	-2.565712
0.322900	-2.394981
0.323000	-2.466390
0.323100	-2.650753
0.323200	-2.895490
0.323300	-2.957810
0.323400	-2.741637
0.323500	-2.441721
0.323600	-2.350838
0.323700	-2.517349
0.323800	-2.778639
0.323900	-2.891919
0.324000	-2.765331
0.324100	-2.499822
0.324200	-2.364471
0.324300	-2.354733
0.324400	-2.405693
0.324500	-2.419325
0.324600	-2.375506
0.324700	-2.305721
0.324800	-2.204451
0.324900	-2.124604
0.325000	-2.044432
0.325100	-1.893501
0.325200	-1.786713
0.325300	-1.721147
0.325400	-1.735104
0.325500	-1.720823
0.325600	-1.692584
0.325700	-1.490044
0.325800	-1.438760
0.325900	-1.262188
0.326000	-1.281987
0.326100	-1.357290
0.326200	-1.406951
0.326300	-1.424154
0.326400	-1.364106
0.326500	-1.292374
0.326600	-1.315094
0.326700	-1.389748
0.326800	-1.496861
0.326900	-1.603648
0.327000	-1.628966
0.327100	-1.694207
0.327200	-1.706865
0.327300	-1.662073
0.327400	-1.692908
0.327500	-1.690312
0.327600	-1.711410
0.327700	-1.800345
0.327800	-1.773405
0.327900	-1.770808
0.328000	-1.465376
0.328100	-1.263486
0.328200	-1.151505
0.328300	-1.611438
0.328400	-1.833128
0.328500	-1.677328
0.328600	-1.249853
0.328700	-1.013882
0.328800	-1.062245
0.328900	-1.146961
0.329000	-1.416040
0.329100	-1.355992
0.329200	-1.239142
0.329300	-0.940202
0.329400	-0.873663
0.329500	-0.923648
0.329600	-1.063219
0.329700	-1.125863
0.329800	-1.118398
0.329900	-1.069710
0.330000	-1.033682
0.330100	-1.011935
0.330200	-0.998627
0.330300	-0.986293
0.330400	-1.045367
0.330500	-1.130083
0.330600	-1.164488
0.330700	-1.102168
0.330800	-1.165137
0.330900	-1.007715
0.331000	-0.920402
0.331100	-0.939553
0.331200	-1.066140
0.331300	-1.324832
0.331400	-1.134627
0.331500	-0.990512
0.331600	-0.680861
0.331700	-0.901577
0.331800	-1.075228
0.331900	-1.342359
0.332000	-1.272899
0.332100	-1.072631
0.332200	-0.885672
0.332300	-0.898006
0.332400	-1.062569
0.332500	-1.181367
0.332600	-1.113204
0.332700	-1.117424
0.332800	-1.004469
0.332900	-1.027190
0.333000	-1.058674
0.333100	-1.087562
0.333200	-1.111257
0.333300	-1.043744
0.333400	-1.034980
0.333500	-1.039849
0.333600	-1.030436
0.333700	-0.996355
0.333800	-0.986293
0.333900	-0.982722
0.334000	-1.147285
0.334100	-1.294970
0.334200	-1.269653
0.334300	-1.177796
0.334400	-1.034980
0.334500	-1.122293
0.334600	-1.154751
0.334700	-1.146961
0.334800	-1.159620
0.334900	-1.191753
0.335000	-1.190779
0.335100	-1.212851
0.335200	-1.253748
0.335300	-1.251801
0.335400	-1.275820
0.335500	-1.299190
0.335600	-1.310226
0.335700	-1.325156
0.335800	-1.361834
0.335900	-1.387476
0.336000	-1.407600
0.336100	-1.504975
0.336200	-1.507247
0.336300	-1.689987
0.336400	-1.932451
0.336500	-2.007105
0.336600	-1.731534
0.336700	-1.438436
0.336800	-1.293347
0.336900	-1.524125
0.337000	-1.912002
0.337100	-2.050274
0.337200	-1.906484
0.337300	-1.608517
0.337400	-1.435514
0.337500	-1.514713
0.337600	-1.704918
0.337700	-1.807811
0.337800	-1.776002
0.337900	-1.656555
0.338000	-1.592937
0.338100	-1.583200
0.338200	-1.618254
0.338300	-1.627992
0.338400	-1.607543
0.338500	-1.590989
0.338600	-1.603648
0.338700	-1.690312
0.338800	-1.734455
0.338900	-1.718226
0.339000	-1.663371
0.339100	-1.691286
0.339200	-1.774054
0.339300	-1.825663
0.339400	-1.814952
0.339500	-1.618254
0.339600	-1.507247
0.339700	-1.686417
0.339800	-1.904536
0.339900	-2.116489
0.340000	-2.058389
0.340100	-1.754255
0.340200	-1.546197
0.340300	-1.578980
0.340400	-1.843515
0.340500	-2.080785
0.340600	-2.087601
0.340700	-1.935696
0.340800	-1.728288
0.340900	-1.716928
0.341000	-1.771133
0.341100	-1.847410
0.341200	-1.878570
0.341300	-1.854226
0.341400	-1.816574
0.341500	-1.785415
0.341600	-1.752632
0.341700	-1.684469
0.341800	-1.541978
0.341900	-1.517634
0.342000	-1.557557
0.342100	-1.625071
0.342200	-1.677004
0.342300	-1.641300
0.342400	-1.503677
0.342500	-1.544574
0.342600	-1.346579
0.342700	-1.492316
0.342800	-1.553013
0.342900	-1.576059
0.343000	-1.511467
0.343100	-1.471543
0.343200	-1.387801
0.343300	-1.451094
0.343400	-1.471543
0.343500	-1.543276
0.343600	-1.568918
0.343700	-1.648441
0.343800	-1.739973
0.343900	-1.646493
0.344000	-1.738999
0.344100	-1.617605
0.344200	-1.770159
0.344300	-1.683820
0.344400	-1.894474
0.344500	-1.823391
0.344600	-1.827610
0.344700	-1.547495
0.344800	-1.356316
0.344900	-1.615658
0.345000	-2.038589
0.345100	-2.398227
0.345200	-2.052871
0.345300	-1.785090
0.345400	-1.592937
0.345500	-1.701348
0.345600	-1.999639
0.345700	-2.157387
0.345800	-2.184002
0.345900	-1.953224
0.346000	-1.839295
0.346100	-1.823066
0.346200	-1.945434
0.346300	-2.022360
0.346400	-1.971076
0.346500	-1.980813
0.346600	-1.906484
0.346700	-1.941539
0.346800	-1.910379
0.346900	-1.933424
0.347000	-1.818847
0.347100	-1.915248
0.347200	-1.886035
0.347300	-2.016517
0.347400	-1.893825
0.347500	-1.921415
0.347600	-1.693233
0.347700	-1.700049
0.347800	-1.678627
0.347900	-2.007105
0.348000	-2.007105
0.348100	-1.827286
0.348200	-1.585472
0.348300	-1.416689
0.348400	-1.643896
0.348500	-1.841892
0.348600	-2.042160
0.348700	-1.830856
0.348800	-1.597157
0.348900	-1.430646
0.349000	-1.576708
0.349100	-1.750035
0.349200	-1.796126
0.349300	-1.644221
0.349400	-1.618254
0.349500	-1.544899
0.349600	-1.662073
0.349700	-1.733157
0.349800	-1.743868
0.349900	-1.695830
0.350000	-1.643247
0.350100	-1.630589
0.350200	-1.680574
0.350300	-1.640975
0.350400	-1.626369
0.350500	-1.585472
0.350600	-1.574436
0.350700	-1.763667
0.350800	-1.834751
0.350900	-1.810083
0.351000	-1.602025
0.351100	-1.628641
0.351200	-1.764966
0.351300	-1.771133
0.351400	-1.763018
0.351500	-1.799696
0.351600	-1.830856
0.351700	-1.847734
0.351800	-1.835725
0.351900	-1.860069
0.352000	-1.832804
0.352100	-1.829233
0.352200	-1.850656
0.352300	-1.850980
0.352400	-1.836699
0.352500	-1.831181
0.352600	-1.802617
0.352700	-1.804240
0.352800	-1.794503
0.352900	-1.802293
0.353000	-1.940241
0.353100	-2.189845
0.353200	-2.147000
0.353300	-1.820794
0.353400	-1.600402
0.353500	-1.588717
0.353600	-1.936346
0.353700	-2.213864
0.353800	-2.279430
0.353900	-2.038914
0.354000	-1.803916
0.354100	-1.738675
0.354200	-1.952899
0.354300	-2.124928
0.354400	-2.266771
0.354500	-2.192766
0.354600	-2.039563
0.354700	-2.010350
0.354800	-2.028852
0.354900	-2.121682
0.355000	-2.132718
0.355100	-2.106752
0.355200	-2.063907
0.355300	-2.069100
0.355400	-2.120384
0.355500	-2.132718
0.355600	-2.078513
0.355700	-2.058064
0.355800	-2.009052
0.355900	-2.115515
0.356000	-2.112919
0.356100	-2.034370
0.356200	-1.861042
0.356300	-1.798398
0.356400	-1.976594
0.356500	-2.168098
0.356600	-2.294036
0.356700	-2.147649
0.356800	-1.827286
0.356900	-1.685768
0.357000	-1.767238
0.357100	-2.035343
0.357200	-2.213215
0.357300	-2.146675
0.357400	-1.930503
0.357500	-1.751982
0.357600	-1.735753
0.357700	-1.829882
0.357800	-1.882465
0.357900	-1.870131
0.358000	-1.788660
0.358100	-1.727639
0.358200	-1.690961
0.358300	-1.648116
0.358400	-1.535810
0.358500	-1.418312
0.358600	-1.380011
0.358700	-1.429023
0.358800	-1.454665
0.358900	-1.471543
0.359000	-1.339438
0.359100	-1.214149
0.359200	-1.265758
0.359300	-1.021348
0.359400	-1.134951
0.359500	-1.172603
0.359600	-1.138846
0.359700	-1.079448
0.359800	-1.037901
0.359900	-0.962598
0.360000	-1.077176
0.360100	-1.114178
0.360200	-1.194025
0.360300	-1.170331
0.360400	-1.238493
0.360500	-1.234598
0.360600	-1.175849
0.360700	-1.230054
0.360800	-1.181691
0.360900	-1.330674
0.361000	-1.320288
0.361100	-1.414741
0.361200	-1.366378
0.361300	-1.267705
0.361400	-1.044393
0.361500	-1.045042
0.361600	-1.331973
0.361700	-1.936346
0.361800	-1.918169
0.361900	-1.696803
0.362000	-1.400460
0.362100	-1.496861
0.362200	-1.616632
0.362300	-2.023983
0.362400	-2.154465
0.362500	-2.069100
0.362600	-1.930178
0.362700	-1.774379
0.362800	-1.936670
0.362900	-2.060336
0.363000	-2.243401
0.363100	-2.239506
0.363200	-2.262551
0.363300	-2.237234
0.363400	-2.246322
0.363500	-2.255086
0.363600	-2.280728
0.363700	-2.283000
0.363800	-2.417378
0.363900	-2.470934
0.364000	-2.448862
0.364100	-2.414132
0.364200	-2.352786
0.364300	-2.205100
0.364400	-2.238857
0.364500	-2.245673
0.364600	-2.546887
0.364700	-2.399526
0.364800	-2.236585
0.364900	-1.901615
0.365000	-1.858121
0.365100	-2.025606
0.365200	-2.221979
0.365300	-2.208671
0.365400	-1.980489
0.365500	-1.659476
0.365600	-1.569892
0.365700	-1.706865
0.365800	-1.795477
0.365900	-1.749386
0.366000	-1.592288
0.366100	-1.492316
0.366200	-1.421233
0.366300	-1.439085
0.366400	-1.434541
0.366500	-1.419610
0.366600	-1.293672
0.366700	-1.225510
0.366800	-1.171304
0.366900	-1.167085
0.367000	-1.088536
0.367100	-1.024918
0.367200	-0.992784
0.367300	-1.055429
0.367400	-1.178121
0.367500	-1.172278
0.367600	-1.103142
0.367700	-0.906770
0.367800	-0.979801
0.367900	-1.051858
0.368000	-1.080746
0.368100	-1.075877
0.368200	-1.067438
0.368300	-1.102493
0.368400	-1.145662
0.368500	-1.155725
0.368600	-1.179419
0.368700	-1.197596
0.368800	-1.236546
0.368900	-1.228431
0.369000	-1.282312
0.369100	-1.305357
0.369200	-1.386178
0.369300	-1.410522
0.369400	-1.493939
0.369500	-1.595858
0.369600	-1.659476
0.369700	-1.971076
0.369800	-2.161282
0.369900	-2.082083
0.370000	-1.754904
0.370100	-1.593586
0.370200	-1.791257
0.370300	-2.105453
0.370400	-2.445292
0.370500	-2.363172
0.370600	-2.179458
0.370700	-1.995420
0.370800	-2.057090
0.370900	-2.308967
0.371000	-2.500471
0.371100	-2.564739
0.371200	-2.450810
0.371300	-2.401798
0.371400	-2.351812
0.371500	-2.472232
0.371600	-2.498848
0.371700	-2.477426
0.371800	-2.443669
0.371900	-2.431010
0.372000	-2.444318
0.372100	-2.447564
0.372200	-2.452757
0.372300	-2.376480
0.372400	-2.321301
0.372500	-2.333960
0.372600	-2.370638
0.372700	-2.330065
0.372800	-2.201530
0.372900	-2.055143
0.373000	-2.072346
0.373100	-2.293387
0.373200	-2.557598
0.373300	-2.629980
0.373400	-2.403421
0.373500	-2.138236
0.373600	-2.073644
0.373700	-2.319354
0.373800	-2.627383
0.373900	-2.769551
0.374000	-2.657245
0.374100	-2.436528
0.374200	-2.353110
0.374300	-2.376480
0.374400	-2.485216
0.374500	-2.558572
0.374600	-2.516376
0.374700	-2.476452
0.374800	-2.450161
0.374900	-2.421597
0.375000	-2.373559
0.375100	-2.270341
0.375200	-2.235936
0.375300	-2.297282
0.375400	-2.385244
0.375500	-2.446590
0.375600	-2.472557
0.375700	-2.333960
0.375800	-2.350838
0.375900	-2.406017
0.376000	-2.282676
0.376100	-2.415430
0.376200	-2.465741
0.376300	-2.482619
0.376400	-2.460547
0.376500	-2.418027
0.376600	-2.465416
0.376700	-2.637121
0.376800	-2.673799
0.376900	-2.817265
0.377000	-2.762086
0.377100	-2.861408
0.377200	-2.793246
0.377300	-2.789026
0.377400	-2.845828
0.377500	-2.784806
0.377600	-2.892893
0.377700	-2.852644
0.377800	-2.967223
0.377900	-2.749427
0.378000	-2.649455
0.378100	-2.281377
0.378200	-2.324871
0.378300	-2.836415
0.378400	-3.073686
0.378500	-2.984101
0.378600	-2.612128
0.378700	-2.377779
0.378800	-2.407965
0.378900	-2.534877
0.379000	-2.859136
0.379100	-2.759164
0.379200	-2.659192
0.379300	-2.357979
0.379400	-2.407316
0.379500	-2.445941
0.379600	-2.617970
0.379700	-2.614075
0.379800	-2.582591
0.379900	-2.543316
0.380000	-2.517674
0.380100	-2.499497
0.380200	-2.517025
0.380300	-2.534877
0.380400	-2.533579
0.380500	-2.607259
0.380600	-2.600767
0.380700	-2.622515
0.380800	-2.638744
0.380900	-2.508586
0.381000	-2.390762
0.381100	-2.423545
0.381200	-2.563765
0.381300	-2.853618
0.381400	-2.625436
0.381500	-2.430036
0.381600	-2.174914
0.381700	-2.317406
0.381800	-2.572204
0.381900	-2.832196
0.382000	-2.739040
0.382100	-2.494629
0.382200	-2.240804
0.382300	-2.258656
0.382400	-2.485865
0.382500	-2.573827
0.382600	-2.460223
0.382700	-2.389464
0.382800	-2.295984
0.382900	-2.339153
0.383000	-2.394657
0.383100	-2.410237
0.383200	-2.345969
0.383300	-2.217759
0.383400	-2.209644
0.383500	-2.195038
0.383600	-2.180107
0.383700	-2.135639
0.383800	-2.095067
0.383900	-2.058713
0.384000	-2.181406
0.384100	-2.232365
0.384200	-2.166475
0.384300	-2.048976
0.384400	-1.862341
0.384500	-1.920766
0.384600	-1.931152
0.384700	-1.871104
0.384800	-1.871754
0.384900	-1.867859
0.385000	-1.847085
0.385100	-1.847085
0.385200	-1.861367
0.385300	-1.872078
0.385400	-1.871104
0.385500	-1.888307
0.385600	-1.893825
0.385700	-1.903238
0.385800	-1.910703
0.385900	-1.948680
0.386000	-1.947706
0.386100	-1.989577
0.386200	-2.025281
0.386300	-2.152518
0.386400	-2.358628
0.386500	-2.489435
0.386600	-2.182704
0.386700	-1.921415
0.386800	-1.830856
0.386900	-2.070398
0.387000	-2.402447
0.387100	-2.554677
0.387200	-2.357654
0.387300	-2.084031
0.387400	-1.959715
0.387500	-2.037940
0.387600	-2.238208
0.387700	-2.338179
0.387800	-2.277482
0.387900	-2.131420
0.388000	-2.034694
0.388100	-1.998016
0.388200	-2.047677
0.388300	-2.050923
0.388400	-2.009701
0.388500	-1.969778
0.388600	-1.916221
0.388700	-1.950303
0.388800	-2.020737
0.388900	-1.939591
0.389000	-1.842541
0.389100	-1.821443
0.389200	-1.783792
0.389300	-1.815925
0.389400	-1.762045
0.389500	-1.561777
0.389600	-1.440383
0.389700	-1.527371
0.389800	-1.674083
0.389900	-1.811706
0.390000	-1.769185
0.390100	-1.456612
0.390200	-1.262837
0.390300	-1.306655
0.390400	-1.561452
0.390500	-1.794178
0.390600	-1.837023
0.390700	-1.687391
0.390800	-1.520555
0.390900	-1.496536
0.391000	-1.527696
0.391100	-1.604947
0.391200	-1.634484
0.391300	-1.648765
0.391400	-1.632861
0.391500	-1.591963
0.391600	-1.561777
0.391700	-1.552364
0.391800	-1.468297
0.391900	-1.459209
0.392000	-1.530617
0.392100	-1.591314
0.392200	-1.633510
0.392300	-1.607543
0.392400	-1.518283
0.392500	-1.497185
0.392600	-1.454989
0.392700	-1.646169
0.392800	-1.735753
0.392900	-1.781195
0.393000	-1.785415
0.393100	-1.788011
0.393200	-1.723744
0.393300	-1.808460
0.393400	-1.895448
0.393500	-2.025281
0.393600	-2.132069
0.393700	-2.169721
0.393800	-2.275859
0.393900	-2.214838
0.394000	-2.313186
0.394100	-2.268069
0.394200	-2.400499
0.394300	-2.413807
0.394400	-2.560844
0.394500	-2.567984
0.394600	-2.504042
0.394700	-2.206399
0.394800	-2.091496
0.394900	-2.222628
0.395000	-2.818239
0.395100	-2.848425
0.395200	-2.664061
0.395300	-2.208022
0.395400	-2.339478
0.395500	-2.211267
0.395600	-2.403745
0.395700	-2.606610
0.395800	-2.481645
0.395900	-2.287869
0.396000	-2.105453
0.396100	-2.059038
0.396200	-2.117787
0.396300	-2.285272
0.396400	-2.272938
0.396500	-2.283325
0.396600	-2.262876
0.396700	-2.276833
0.396800	-2.255411
0.396900	-2.305072
0.397000	-2.301826
0.397100	-2.426466
0.397200	-2.493655
0.397300	-2.581942
0.397400	-2.546237
0.397500	-2.598820
0.397600	-2.405693
0.397700	-2.483593
0.397800	-2.417702
0.397900	-2.790974
0.398000	-2.786429
0.398100	-2.650104
0.398200	-2.346294
0.398300	-2.272614
0.398400	-2.386542
0.398500	-2.664061
0.398600	-2.755269
0.398700	-2.568958
0.398800	-2.300528
0.398900	-2.167773
0.399000	-2.252489
0.399100	-2.392709
0.399200	-2.415755
0.399300	-2.270017
0.399400	-2.247945
0.399500	-2.171993
0.399600	-2.229119
0.399700	-2.251191
0.399800	-2.243726
0.399900	-2.190819
0.400000	-2.132718
0.400100	-2.149272
0.400200	-2.172317
0.400300	-2.138885
0.400400	-2.075916
0.400500	-2.088250
0.400600	-2.076565
0.400700	-2.239831
0.400800	-2.259630
0.400900	-2.218408
0.401000	-2.185625
0.401100	-2.060661
0.401200	-2.158685
0.401300	-2.180757
0.401400	-2.211592
0.401500	-2.261253
0.401600	-2.311239
0.401700	-2.357979
0.401800	-2.392060
0.401900	-2.481321
0.402000	-2.526762
0.402100	-2.597522
0.402200	-2.613102
0.402300	-2.670878
0.402400	-2.690028
0.402500	-2.712749
0.402600	-2.706582
0.402700	-2.791623
0.402800	-2.795842
0.402900	-2.859785
0.403000	-3.054860
0.403100	-3.284666
0.403200	-3.235329
0.403300	-2.828950
0.403400	-2.629980
0.403500	-2.618620
0.403600	-3.003901
0.403700	-3.246041
0.403800	-3.285640
0.403900	-3.000330
0.404000	-2.769551
0.404100	-2.721837
0.404200	-2.864329
0.404300	-3.044798
0.404400	-3.132111
0.404500	-2.999681
0.404600	-2.867575
0.404700	-2.806229
0.404800	-2.810773
0.404900	-2.835442
0.405000	-2.831222
0.405100	-2.762410
0.405200	-2.720214
0.405300	-2.727030
0.405400	-2.802983
0.405500	-2.813694
0.405600	-2.713073
0.405700	-2.637445
0.405800	-2.609531
0.405900	-2.662763
0.406000	-2.647507
0.406100	-2.541044
0.406200	-2.324871
0.406300	-2.285597
0.406400	-2.477426
0.406500	-2.671527
0.406600	-2.824081
0.406700	-2.660815
0.406800	-2.351487
0.406900	-2.184327
0.407000	-2.303124
0.407100	-2.591354
0.407200	-2.764682
0.407300	-2.724434
0.407400	-2.509884
0.407500	-2.362523
0.407600	-2.357979
0.407700	-2.433607
0.407800	-2.521894
0.407900	-2.575774
0.408000	-2.530657
0.408100	-2.510858
0.408200	-2.488137
0.408300	-2.506638
0.408400	-2.485216
0.408500	-2.369015
0.408600	-2.313836
0.408700	-2.350189
0.408800	-2.409588
0.408900	-2.456977
0.409000	-2.299229
0.409100	-2.169072
0.409200	-1.984708
0.409300	-2.013272
0.409400	-2.184327
0.409500	-2.215811
0.409600	-2.219382
0.409700	-2.146675
0.409800	-2.095716
0.409900	-2.072021
0.410000	-2.118112
0.410100	-2.188871
0.410200	-2.222303
0.410300	-2.260929
0.410400	-2.259306
0.410500	-2.268719
0.410600	-2.257358
0.410700	-2.192766
0.410800	-2.224251
0.410900	-2.212890
0.411000	-2.251516
0.411100	-2.300203
0.411200	-2.158685
0.411300	-2.114866
0.411400	-1.640975
0.411500	-1.717901
0.411600	-1.743868
0.411700	-2.408289
0.411800	-2.250217
0.411900	-1.965558
0.412000	-1.526073
0.412100	-1.425777
0.412200	-1.575734
0.412300	-1.783467
0.412400	-1.980164
0.412500	-1.796450
0.412600	-1.627992
0.412700	-1.404355
0.412800	-1.446550
0.412900	-1.524450
0.413000	-1.636431
0.413100	-1.700698
0.413200	-1.654932
0.413300	-1.615658
0.413400	-1.637729
0.413500	-1.677653
0.413600	-1.745166
0.413700	-1.771133
0.413800	-1.804240
0.413900	-1.941539
0.414000	-1.955496
0.414100	-1.995095
0.414200	-1.979515
0.414300	-1.841567
0.414400	-1.945434
0.414500	-1.965883
0.414600	-2.388165
0.414700	-2.274561
0.414800	-2.213215
0.414900	-1.943162
0.415000	-1.983085
0.415100	-2.171668
0.415200	-2.486839
0.415300	-2.555975
0.415400	-2.430686
0.415500	-2.180107
0.415600	-2.094742
0.415700	-2.279105
0.415800	-2.417702
0.415900	-2.438151
0.416000	-2.346619
0.416100	-2.271640
0.416200	-2.200881
0.416300	-2.246647
0.416400	-2.293062
0.416500	-2.301826
0.416600	-2.224575
0.416700	-2.179783
0.416800	-2.203153
0.416900	-2.248270
0.417000	-2.225874
0.417100	-2.234962
0.417200	-2.229119
0.417300	-2.329740
0.417400	-2.538772
0.417500	-2.578696
0.417600	-2.561168
0.417700	-2.476452
0.417800	-2.479049
0.417900	-2.585837
0.418000	-2.603040
0.418100	-2.614400
0.418200	-2.614075
0.418300	-2.642963
0.418400	-2.715995
0.418500	-2.746181
0.418600	-2.797141
0.418700	-2.812071
0.418800	-2.848100
0.418900	-2.857189
0.419000	-2.910096
0.419100	-2.918210
0.419200	-2.961380
0.419300	-2.976636
0.419400	-3.031166
0.419500	-3.084398
0.419600	-3.152236
0.419700	-3.366137
0.419800	-3.516744
0.419900	-3.381717
0.420000	-3.021428
0.420100	-2.818888
0.420200	-2.968521
0.420300	-3.341793
0.420400	-3.573871
0.420500	-3.505708
0.420600	-3.306089
0.420700	-3.087968
0.420800	-3.071739
0.420900	-3.319721
0.421000	-3.485909
0.421100	-3.540764
0.421200	-3.438519
0.421300	-3.300571
0.421400	-3.222995
0.421500	-3.259673
0.421600	-3.283692
0.421700	-3.280447
0.421800	-3.265840
0.421900	-3.257726
0.422000	-3.280122
0.422100	-3.312580
0.422200	-3.359645
0.422300	-3.314203
0.422400	-3.340819
0.422500	-3.365488
0.422600	-3.385612
0.422700	-3.359645
0.422800	-3.188914
0.422900	-3.051290
0.423000	-3.087643
0.423100	-3.262919
0.423200	-3.404113
0.423300	-3.436896
0.423400	-3.180475
0.423500	-2.918210
0.423600	-2.822458
0.423700	-2.956187
0.423800	-3.161324
0.423900	-3.245716
0.424000	-3.146718
0.424100	-2.959757
0.424200	-2.849074
0.424300	-2.852969
0.424400	-2.923079
0.424500	-2.944826
0.424600	-2.945151
0.424700	-2.908473
0.424800	-2.885427
0.424900	-2.861084
0.425000	-2.803308
0.425100	-2.728653
0.425200	-2.593627
0.425300	-2.605636
0.425400	-2.707555
0.425500	-2.729627
0.425600	-2.751050
0.425700	-2.601417
0.425800	-2.594276
0.425900	-2.438800
0.426000	-2.541369
0.426100	-2.670228
0.426200	-2.724109
0.426300	-2.707555
0.426400	-2.728653
0.426500	-2.667956
0.426600	-2.706906
0.426700	-2.747155
0.426800	-2.845504
0.426900	-2.890296
0.427000	-2.988970
0.427100	-3.041228
0.427200	-3.007471
0.427300	-3.060378
0.427400	-3.019805
0.427500	-3.087643
0.427600	-3.061027
0.427700	-3.178852
0.427800	-3.169114
0.427900	-3.119128
0.428000	-2.943203
0.428100	-2.601092
0.428200	-2.673799
0.428300	-2.928922
0.428400	-3.423264
0.428500	-3.092512
0.428600	-2.860434
0.428700	-2.529034
0.428800	-2.595899
0.428900	-2.709178
0.429000	-2.892244
0.429100	-2.929895
0.429200	-2.729952
0.429300	-2.548185
0.429400	-2.416079
0.429500	-2.517349
0.429600	-2.565712
0.429700	-2.595899
0.429800	-2.593627
0.429900	-2.644911
0.430000	-2.606935
0.430100	-2.613426
0.430200	-2.613426
0.430300	-2.615374
0.430400	-2.632577
0.430500	-2.843232
0.430600	-2.791623
0.430700	-2.839661
0.430800	-2.767928
0.430900	-2.665684
0.431000	-2.598820
0.431100	-2.654973
0.431200	-2.869847
0.431300	-3.027271
0.431400	-2.905227
0.431500	-2.767279
0.431600	-2.505015
0.431700	-2.700415
0.431800	-2.936387
0.431900	-3.179501
0.432000	-3.105171
0.432100	-2.918535
0.432200	-2.738716
0.432300	-2.787728
0.432400	-2.981504
0.432500	-3.053562
0.432600	-2.927299
0.432700	-2.905876
0.432800	-2.829274
0.432900	-2.882182
0.433000	-2.887700
0.433100	-2.919184
0.433200	-2.853943
0.433300	-2.777341
0.433400	-2.798439
0.433500	-2.847776
0.433600	-2.841284
0.433700	-2.771823
0.433800	-2.736443
0.433900	-2.726057
0.434000	-2.839986
0.434100	-2.935089
0.434200	-2.855241
0.434300	-2.771174
0.434400	-2.582591
0.434500	-2.609207
0.434600	-2.606285
0.434700	-2.543316
0.434800	-2.533579
0.434900	-2.532605
0.435000	-2.535202
0.435100	-2.561817
0.435200	-2.554677
0.435300	-2.597522
0.435400	-2.626410
0.435500	-2.646534
0.435600	-2.673474
0.435700	-2.739365
0.435800	-2.759164
0.435900	-2.801360
0.436000	-2.825379
0.436100	-2.887375
0.436200	-2.953915
0.436300	-3.064922
0.436400	-3.376524
0.436500	-3.441441
0.436600	-3.222021
0.436700	-2.916588
0.436800	-2.827976
0.436900	-3.108092
0.437000	-3.473899
0.437100	-3.627103
0.437200	-3.434300
0.437300	-3.179501
0.437400	-3.078555
0.437500	-3.151587
0.437600	-3.391455
0.437700	-3.521938
0.437800	-3.467732
0.437900	-3.326862
0.438000	-3.256752
0.438100	-3.299272
0.438200	-3.369383
0.438300	-3.412877
0.438400	-3.438844
0.438500	-3.421966
0.438600	-3.459617
0.438700	-3.554396
0.438800	-3.676440
0.438900	-3.656316
0.439000	-3.590425
0.439100	-3.630998
0.439200	-3.682607
0.439300	-3.721558
0.439400	-3.704679
0.439500	-3.547580
0.439600	-3.405736
0.439700	-3.574845
0.439800	-3.729997
0.439900	-3.912089
0.440000	-3.850093
0.440100	-3.589451
0.440200	-3.371330
0.440300	-3.405087
0.440400	-3.651123
0.440500	-3.875736
0.440600	-3.903650
0.440700	-3.734541
0.440800	-3.551799
0.440900	-3.534272
0.441000	-3.576793
0.441100	-3.688450
0.441200	-3.725777
0.441300	-3.689424
0.441400	-3.671247
0.441500	-3.618339
0.441600	-3.618664
0.441700	-3.565757
0.441800	-3.428457
0.441900	-3.339521
0.442000	-3.310958
0.442100	-3.230461
0.442200	-3.166842
0.442300	-3.098355
0.442400	-2.926325
0.442500	-2.918860
0.442600	-2.786754
0.442700	-2.739689
0.442800	-2.732548
0.442900	-2.727680
0.443000	-2.628357
0.443100	-2.582915
0.443200	-2.496252
0.443300	-2.578696
0.443400	-2.644586
0.443500	-2.733847
0.443600	-2.752348
0.443700	-2.776043
0.443800	-2.815317
0.443900	-2.773771
0.444000	-2.796167
0.444100	-2.802659
0.444200	-2.872769
0.444300	-2.974688
0.444400	-2.978259
0.444500	-3.113935
0.444600	-2.942230
0.444700	-2.743260
0.444800	-2.557273
0.444900	-2.772148
0.445000	-3.184370
0.445100	-3.395999
0.445200	-3.080827
0.445300	-2.799088
0.445400	-2.651402
0.445500	-2.729627
0.445600	-2.935089
0.445700	-3.062975
0.445800	-3.016235
0.445900	-2.770525
0.446000	-2.621216
0.446100	-2.593951
0.446200	-2.703336
0.446300	-2.712100
0.446400	-2.719240
0.446500	-2.684185
0.446600	-2.637770
0.446700	-2.654973
0.446800	-2.670553
0.446900	-2.719565
0.447000	-2.750076
0.447100	-2.830573
0.447200	-2.948397
0.447300	-2.887375
0.447400	-2.961056
0.447500	-2.941580
0.447600	-2.833819
0.447700	-2.820186
0.447800	-2.868224
0.447900	-3.071414
0.448000	-3.091214
0.448100	-2.873418
0.448200	-2.641016
0.448300	-2.438151
0.448400	-2.656271
0.448500	-2.867900
0.448600	-3.059729
0.448700	-2.874716
0.448800	-2.687107
0.448900	-2.604013
0.449000	-2.790324
0.449100	-3.005848
0.449200	-3.081476
0.449300	-2.984426
0.449400	-3.009094
0.449500	-2.977934
0.449600	-3.111338
0.449700	-3.167167
0.449800	-3.183071
0.449900	-3.123997
0.450000	-3.082450
0.450100	-3.128866
0.450200	-3.160350
0.450300	-3.152885
0.450400	-3.120751
0.450500	-3.090889
0.450600	-3.103873
0.450700	-3.263244
0.450800	-3.261945
0.450900	-3.196704
0.451000	-3.101601
0.451100	-2.949046
0.451200	-3.011691
0.451300	-2.960406
0.451400	-2.925676
0.451500	-2.871470
0.451600	-2.865952
0.451700	-2.831547
0.451800	-2.805580
0.451900	-2.763059
0.452000	-2.744883
0.452100	-2.724434
0.452200	-2.714696
0.452300	-2.646534
0.452400	-2.609856
0.452500	-2.557598
0.452600	-2.526113
0.452700	-2.518648
0.452800	-2.558572
0.452900	-2.527736
0.453000	-2.703011
0.453100	-2.917561
0.453200	-2.890945
0.453300	-2.534228
0.453400	-2.312537
0.453500	-2.381674
0.453600	-2.705933
0.453700	-3.042526
0.453800	-3.068168
0.453900	-2.917237
0.454000	-2.687107
0.454100	-2.724758
0.454200	-2.855241
0.454300	-3.120426
0.454400	-3.210661
0.454500	-3.167816
0.454600	-3.056808
0.454700	-3.070116
0.454800	-3.114584
0.454900	-3.164570
0.455000	-3.172360
0.455100	-3.131787
0.455200	-3.088617
0.455300	-3.099004
0.455400	-3.160026
0.455500	-3.167491
0.455600	-3.079529
0.455700	-3.026622
0.455800	-2.978259
0.455900	-2.988970
0.456000	-2.949371
0.456100	-2.912043
0.456200	-2.683536
0.456300	-2.645885
0.456400	-2.838363
0.456500	-3.058431
0.456600	-3.215205
0.456700	-3.073362
0.456800	-2.826353
0.456900	-2.754620
0.457000	-2.921456
0.457100	-3.242146
0.457200	-3.448257
0.457300	-3.411254
0.457400	-3.232083
0.457500	-3.141524
0.457600	-3.181124
0.457700	-3.280447
0.457800	-3.397622
0.457900	-3.439169
0.458000	-3.434624
0.458100	-3.451827
0.458200	-3.457670
0.458300	-3.461565
0.458400	-3.362242
0.458500	-3.298299
0.458600	-3.346013
0.458700	-3.436247
0.458800	-3.490778
0.458900	-3.509603
0.459000	-3.405736
0.459100	-3.281096
0.459200	-3.311931
0.459300	-3.073686
0.459400	-3.152885
0.459500	-3.129190
0.459600	-3.098679
0.459700	-3.020454
0.459800	-2.942230
0.459900	-2.905876
0.460000	-2.958134
0.460100	-3.030841
0.460200	-3.082450
0.460300	-3.154508
0.460400	-3.209038
0.460500	-3.266165
0.460600	-3.263244
0.460700	-3.308361
0.460800	-3.352504
0.460900	-3.410930
0.461000	-3.531675
0.461100	-3.573871
0.461200	-3.590101
0.461300	-3.459293
0.461400	-3.270709
0.461500	-3.289210
0.461600	-3.638788
0.461700	-4.171433
0.461800	-4.141571
0.461900	-3.839382
0.462000	-3.437221
0.462100	-3.371006
0.462200	-3.447283
0.462300	-3.618015
0.462400	-3.695591
0.462500	-3.428133
0.462600	-3.158403
0.462700	-2.866277
0.462800	-2.837389
0.462900	-2.776367
0.463000	-2.852320
0.463100	-2.681264
0.463200	-2.634849
0.463300	-2.562467
0.463400	-2.551755
0.463500	-2.541044
0.463600	-2.587135
0.463700	-2.605636
0.463800	-2.598171
0.463900	-2.822458
0.464000	-2.742935
0.464100	-2.839986
0.464200	-2.684835
0.464300	-2.692300
0.464400	-2.606935
0.464500	-2.790324
0.464600	-3.000655
0.464700	-2.964626
0.464800	-2.788701
0.464900	-2.563440
0.465000	-2.596872
0.465100	-2.862057
0.465200	-3.145419
0.465300	-3.189238
0.465400	-2.972741
0.465500	-2.762410
0.465600	-2.689054
0.465700	-2.910745
0.465800	-3.076608
0.465900	-3.068168
0.466000	-2.960406
0.466100	-2.908148
0.466200	-2.858487
0.466300	-2.946774
0.466400	-2.999356
0.466500	-3.019156
0.466600	-2.945151
0.466700	-2.909447
0.466800	-2.931194
0.466900	-2.933141
0.467000	-2.880559
0.467100	-2.831871
0.467200	-2.791947
0.467300	-2.860110
0.467400	-2.997084
0.467500	-2.972416
0.467600	-2.876015
0.467700	-2.686458
0.467800	-2.718916
0.467900	-2.778639
0.468000	-2.744233
0.468100	-2.749102
0.468200	-2.716319
0.468300	-2.727680
0.468400	-2.700090
0.468500	-2.705283
0.468600	-2.730926
0.468700	-2.751374
0.468800	-2.760787
0.468900	-2.795518
0.469000	-2.805904
0.469100	-2.860759
0.469200	-2.862057
0.469300	-2.945151
0.469400	-2.956187
0.469500	-3.058431
0.469600	-3.089915
0.469700	-3.363540
0.469800	-3.527456
0.469900	-3.345688
0.470000	-3.021104
0.470100	-2.795842
0.470200	-3.033438
0.470300	-3.322967
0.470400	-3.639113
0.470500	-3.549527
0.470600	-3.265191
0.470700	-2.979881
0.470800	-2.973714
0.470900	-3.168140
0.471000	-3.332056
0.471100	-3.360294
0.471200	-3.226890
0.471300	-3.063624
0.471400	-3.016235
0.471500	-3.009094
0.471600	-3.056483
0.471700	-3.053887
0.471800	-3.013638
0.471900	-2.977285
0.472000	-3.025648
0.472100	-3.089266
0.472200	-3.111013
0.472300	-3.079204
0.472400	-2.996111
0.472500	-3.050965
0.472600	-3.086994
0.472700	-3.118803
0.472800	-3.017209
0.472900	-2.904578
0.473000	-2.969495
0.473100	-3.163596
0.473200	-3.382366
0.473300	-3.480066
0.473400	-3.232408
0.473500	-2.925351
0.473600	-2.901332
0.473700	-3.108092
0.473800	-3.397622
0.473900	-3.526482
0.474000	-3.467083
0.474100	-3.259998
0.474200	-3.148990
0.474300	-3.200599
0.474400	-3.338547
0.474500	-3.395674
0.474600	-3.403140
0.474700	-3.375225
0.474800	-3.350232
0.474900	-3.330108
0.475000	-3.291158
0.475100	-3.249611
0.475200	-3.105820
0.475300	-3.050965
0.475400	-3.169439
0.475500	-3.248962
0.475600	-3.286614
0.475700	-3.160026
0.475800	-3.149314
0.475900	-3.188914
0.476000	-3.034736
0.476100	-3.156131
0.476200	-3.195730
0.476300	-3.176255
0.476400	-3.143147
0.476500	-3.030841
0.476600	-3.088617
0.476700	-3.101601
0.476800	-3.268112
0.476900	-3.262270
0.477000	-3.324265
0.477100	-3.322967
0.477200	-3.272981
0.477300	-3.249286
0.477400	-3.190212
0.477500	-3.330108
0.477600	-3.245391
0.477700	-3.400543
0.477800	-3.292456
0.477900	-3.316800
0.478000	-3.082125
0.478100	-2.803632
0.478200	-3.012340
0.478300	-3.291482
0.478400	-3.755964
0.478500	-3.465460
0.478600	-3.219425
0.478700	-2.909122
0.478800	-2.803308
0.478900	-3.077581
0.479000	-3.161324
0.479100	-3.297974
0.479200	-3.019481
0.479300	-2.864005
0.479400	-2.703985
0.479500	-2.734821
0.479600	-2.871795
0.479700	-2.907824
0.479800	-2.980531
0.479900	-2.898411
0.480000	-2.865303
0.480100	-2.827002
0.480200	-2.836415
0.480300	-2.828625
0.480400	-2.895165
0.480500	-3.037982
0.480600	-3.075958
0.480700	-3.037333
0.480800	-3.010068
0.480900	-2.908148
0.481000	-2.818239
0.481100	-2.914965
0.481200	-3.139577
0.481300	-3.313554
0.481400	-3.237277
0.481500	-3.062975
0.481600	-2.902630
0.481700	-3.058106
0.481800	-3.353803
0.481900	-3.611523
0.482000	-3.532324
0.482100	-3.414175
0.482200	-3.267139
0.482300	-3.357049
0.482400	-3.505708
0.482500	-3.645929
0.482600	-3.626129
0.482700	-3.630349
0.482800	-3.567704
0.482900	-3.628077
0.483000	-3.685204
0.483100	-3.702732
0.483200	-3.675142
0.483300	-3.607628
0.483400	-3.580038
0.483500	-3.555045
0.483600	-3.518043
0.483700	-3.422290
0.483800	-3.347636
0.483900	-3.264542
0.484000	-3.359645
0.484100	-3.438519
0.484200	-3.331406
0.484300	-3.210985
0.484400	-3.012664
0.484500	-3.086345
0.484600	-3.099653
0.484700	-3.052913
0.484800	-3.040903
0.484900	-3.029218
0.485000	-3.019805
0.485100	-3.009419
0.485200	-3.011691
0.485300	-3.028244
0.485400	-3.078880
0.485500	-3.056808
0.485600	-3.111663
0.485700	-3.110364
0.485800	-3.177878
0.485900	-3.162947
0.486000	-3.217802
0.486100	-3.309010
0.486200	-3.367111
0.486300	-3.508305
0.486400	-3.745252
0.486500	-3.862752
0.486600	-3.571275
0.486700	-3.296351
0.486800	-3.226566
0.486900	-3.465784
0.487000	-3.842952
0.487100	-4.002324
0.487200	-3.798809
0.487300	-3.519990
0.487400	-3.368084
0.487500	-3.476496
0.487600	-3.699161
0.487700	-3.832566
0.487800	-3.789720
0.487900	-3.734216
0.488000	-3.645605
0.488100	-3.703056
0.488200	-3.749147
0.488300	-3.797511
0.488400	-3.808871
0.488500	-3.792317
0.488600	-3.783553
0.488700	-3.848146
0.488800	-3.831917
0.488900	-3.805950
0.489000	-3.758560
0.489100	-3.750446
0.489200	-3.777386
0.489300	-3.794914
0.489400	-3.778035
0.489500	-3.579389
0.489600	-3.569976
0.489700	-3.713767
0.489800	-3.977656
0.489900	-4.175653
0.490000	-4.195128
0.490100	-3.953312
0.490200	-3.749796
0.490300	-3.861454
0.490400	-4.137027
0.490500	-4.328533
0.490600	-4.341841
0.490700	-4.189610
0.490800	-4.048091
0.490900	-4.002649
0.491000	-4.041924
0.491100	-4.103270
0.491200	-4.100998
0.491300	-4.053933
0.491400	-4.037704
0.491500	-4.019852
0.491600	-4.009140
0.491700	-3.917607
0.491800	-3.783553
0.491900	-3.736164
0.492000	-3.771868
0.492100	-3.862428
0.492200	-3.887421
0.492300	-3.858208
0.492400	-3.698512
0.492500	-3.717013
0.492600	-3.532649
0.492700	-3.623857
0.492800	-3.668650
0.492900	-3.646578
0.493000	-3.582310
0.493100	-3.543360
0.493200	-3.403140
0.493300	-3.471627
0.493400	-3.436247
0.493500	-3.500190
0.493600	-3.477145
0.493700	-3.502463
0.493800	-3.470978
0.493900	-3.422939
0.494000	-3.382042
0.494100	-3.322967
0.494200	-3.350557
0.494300	-3.322643
0.494400	-3.395674
0.494500	-3.318098
0.494600	-3.259349
0.494700	-2.961705
0.494800	-2.872769
0.494900	-2.905552
0.495000	-3.581337
0.495100	-3.634569
0.495200	-3.423264
0.495300	-2.981829
0.495400	-2.798114
0.495500	-2.806554
0.495600	-3.017209
0.495700	-3.155157
0.495800	-3.069467
0.495900	-2.834468
0.496000	-2.592653
0.496100	-2.601741
0.496200	-2.638095
0.496300	-2.698792
0.496400	-2.582591
0.496500	-2.568634
0.496600	-2.523841
0.496700	-2.494629
0.496800	-2.492681
0.496900	-2.479373
0.497000	-2.395955
0.497100	-2.520595
0.497200	-2.525789
0.497300	-2.597197
0.497400	-2.601741
0.497500	-2.553703
0.497600	-2.466714
0.497700	-2.403745
0.497800	-2.555975
0.497900	-2.839661
0.498000	-2.945151
0.498100	-2.794544
0.498200	-2.555326
0.498300	-2.436204
0.498400	-2.644586
0.498500	-2.953266
0.498600	-3.134708
0.498700	-2.979881
0.498800	-2.773121
0.498900	-2.674773
0.499000	-2.818888
0.499100	-3.029867
0.499200	-3.073362
0.499300	-2.963003
0.499400	-2.919833
0.499500	-2.839986
0.499600	-2.955862
0.499700	-2.983776
0.499800	-2.989294
0.499900	-2.909771
0.500000	-2.816616
0.500100	-2.839012
0.500200	-2.825055
0.500300	-2.807527
0.500400	-2.738716
0.500500	-2.702687
0.500600	-2.705933
0.500700	-2.875690
0.500800	-2.925027
0.500900	-2.891270
0.501000	-2.721837
0.501100	-2.756243
0.501200	-2.878287
0.501300	-2.908473
0.501400	-2.897437
0.501500	-2.907499
0.501600	-2.940607
0.501700	-2.954564
0.501800	-2.991891
0.501900	-3.043825
0.502000	-3.058431
0.502100	-3.106469
0.502200	-3.147042
0.502300	-3.171386
0.502400	-3.167167
0.502500	-3.197678
0.502600	-3.183720
0.502700	-3.269735
0.502800	-3.292781
0.502900	-3.348609
0.503000	-3.550826
0.503100	-3.774140
0.503200	-3.731944
0.503300	-3.438844
0.503400	-3.161324
0.503500	-3.193458
0.503600	-3.494997
0.503700	-3.882227
0.503800	-3.879955
0.503900	-3.688450
0.504000	-3.399245
0.504100	-3.399894
0.504200	-3.556993
0.504300	-3.834513
0.504400	-3.930591
0.504500	-3.826399
0.504600	-3.736164
0.504700	-3.665080
0.504800	-3.766350
0.504900	-3.855611
0.505000	-3.846848
0.505100	-3.813740
0.505200	-3.735839
0.505300	-3.716689
0.505400	-3.767649
0.505500	-3.777062
0.505600	-3.717987
0.505700	-3.685853
0.505800	-3.678388
0.505900	-3.726426
0.506000	-3.747849
0.506100	-3.669299
0.506200	-3.466758
0.506300	-3.371979
0.506400	-3.537842
0.506500	-3.736813
0.506600	-3.867296
0.506700	-3.650149
0.506800	-3.342118
0.506900	-3.173334
0.507000	-3.271683
0.507100	-3.548878
0.507200	-3.722856
0.507300	-3.668001
0.507400	-3.429756
0.507500	-3.274604
0.507600	-3.310633
0.507700	-3.392753
0.507800	-3.454749
0.507900	-3.434624
0.508000	-3.375550
0.508100	-3.311282
0.508200	-3.279473
0.508300	-3.262270
0.508400	-3.144770
0.508500	-3.040903
0.508600	-3.040254
0.508700	-3.094135
0.508800	-3.119128
0.508900	-3.163921
0.509000	-3.039605
0.509100	-2.971442
0.509200	-3.025323
0.509300	-2.872444
0.509400	-3.010068
0.509500	-3.084398
0.509600	-3.108741
0.509700	-3.094460
0.509800	-3.100627
0.509900	-3.092512
0.510000	-3.213258
0.510100	-3.322967
0.510200	-3.457345
0.510300	-3.494673
0.510400	-3.627103
0.510500	-3.630674
0.510600	-3.671247
0.510700	-3.696240
0.510800	-3.776088
0.510900	-3.771868
0.511000	-3.803028
0.511100	-3.870867
0.511200	-3.914361
0.511300	-3.705328
0.511400	-3.502463
0.511500	-3.483637
0.511600	-3.769272
0.511700	-4.246088
0.511800	-4.240570
0.511900	-3.993236
0.512000	-3.654693
0.512100	-3.686502
0.512200	-3.845225
0.512300	-4.121123
0.512400	-4.301268
0.512500	-4.180522
0.512600	-3.976682
0.512700	-3.921178
0.512800	-3.978305
0.512900	-4.153581
0.513000	-4.186040
0.513100	-4.297048
0.513200	-4.287311
0.513300	-4.308084
0.513400	-4.336323
0.513500	-4.385660
0.513600	-4.419742
0.513700	-4.492774
0.513800	-4.548603
0.513900	-4.663507
0.514000	-4.618714
0.514100	-4.623258
0.514200	-4.551849
0.514300	-4.376572
0.514400	-4.423637
0.514500	-4.358720
0.514600	-4.707975
0.514700	-4.495046
0.514800	-4.291530
0.514900	-3.948443
0.515000	-3.882877
0.515100	-4.060425
0.515200	-4.194154
0.515300	-4.112683
0.515400	-3.784527
0.515500	-3.417097
0.515600	-3.271034
0.515700	-3.348285
0.515800	-3.402815
0.515900	-3.303492
0.516000	-3.167491
0.516100	-3.104522
0.516200	-3.065247
0.516300	-3.130813
0.516400	-3.141849
0.516500	-3.143472
0.516600	-3.087643
0.516700	-3.040903
0.516800	-3.056159
0.516900	-3.076283
0.517000	-3.022727
0.517100	-2.986698
0.517200	-2.968846
0.517300	-3.024999
0.517400	-3.166193
0.517500	-3.154183
0.517600	-3.099004
0.517700	-2.932817
0.517800	-3.048693
0.517900	-3.131462
0.518000	-3.143472
0.518100	-3.151587
0.518200	-3.158403
0.518300	-3.224618
0.518400	-3.238900
0.518500	-3.237926
0.518600	-3.289535
0.518700	-3.310308
0.518800	-3.353154
0.518900	-3.340495
0.519000	-3.392104
0.519100	-3.450854
0.519200	-3.517393
0.519300	-3.552449
0.519400	-3.672545
0.519500	-3.700135
0.519600	-3.809196
0.519700	-4.041599
0.519800	-4.279196
0.519900	-4.138326
0.520000	-3.831267
0.520100	-3.745252
0.520200	-3.909817
0.520300	-4.296724
0.520400	-4.581062
0.520500	-4.530751
0.520600	-4.285039
0.520700	-4.118850
0.520800	-4.210384
0.520900	-4.385985
0.521000	-4.577491
0.521100	-4.588203
0.521200	-4.513223
0.521300	-4.378519
0.521400	-4.406434
0.521500	-4.448306
0.521600	-4.486607
0.521700	-4.472974
0.521800	-4.441814
0.521900	-4.391503
0.522000	-4.389231
0.522100	-4.425585
0.522200	-4.355149
0.522300	-4.355149
0.522400	-4.292504
0.522500	-4.327559
0.522600	-4.359044
0.522700	-4.346710
0.522800	-4.199023
0.522900	-4.077628
0.523000	-4.125991
0.523100	-4.341517
0.523200	-4.542436
0.523300	-4.565481
0.523400	-4.306461
0.523500	-4.040625
0.523600	-4.011737
0.523700	-4.208436
0.523800	-4.477518
0.523900	-4.526206
0.524000	-4.383388
0.524100	-4.159099
0.524200	-4.021475
0.524300	-4.036406
0.524400	-4.078277
0.524500	-4.058477
0.524600	-3.972787
0.524700	-3.853015
0.524800	-3.741682
0.524900	-3.645605
0.525000	-3.548554
0.525100	-3.435598
0.525200	-3.309984
0.525300	-3.290833
0.525400	-3.338872
0.525500	-3.359970
0.525600	-3.368084
0.525700	-3.211635
0.525800	-3.166842
0.525900	-2.956836
0.526000	-3.015261
0.526100	-3.086020
0.526200	-3.113610
0.526300	-3.022727
0.526400	-2.943528
0.526500	-2.792596
0.526600	-2.796167
0.526700	-2.817914
0.526800	-2.817265
0.526900	-2.877313
0.527000	-2.782534
0.527100	-2.864654
0.527200	-2.702038
0.527300	-2.739365
0.527400	-2.646858
0.527500	-2.678343
0.527600	-2.729303
0.527700	-2.703336
0.527800	-2.796167
0.527900	-2.628032
0.528000	-2.470609
0.528100	-2.132069
0.528200	-2.290790
0.528300	-2.661140
0.528400	-3.033438
0.528500	-2.950669
0.528600	-2.475154
0.528700	-2.434905
0.528800	-2.413158
0.528900	-2.730926
0.529000	-3.034412
0.529100	-3.142174
0.529200	-2.970144
0.529300	-2.846802
0.529400	-2.863356
0.529500	-2.938010
0.529600	-3.159052
0.529700	-3.190537
0.529800	-3.232083
0.529900	-3.208064
0.530000	-3.235654
0.530100	-3.280447
0.530200	-3.329459
0.530300	-3.384314
0.530400	-3.461889
0.530500	-3.518692
0.530600	-3.639113
0.530700	-3.587828
0.530800	-3.660211
0.530900	-3.477145
0.531000	-3.485584
0.531100	-3.491102
0.531200	-3.733567
0.531300	-3.881578
0.531400	-3.722531
0.531500	-3.488830
0.531600	-3.300895
0.531700	-3.390481
0.531800	-3.621585
0.531900	-3.817635
0.532000	-3.711820
0.532100	-3.454424
0.532200	-3.230785
0.532300	-3.271034
0.532400	-3.466109
0.532500	-3.551799
0.532600	-3.449231
0.532700	-3.358996
0.532800	-3.263568
0.532900	-3.286614
0.533000	-3.288237
0.533100	-3.274279
0.533200	-3.209038
0.533300	-3.151587
0.533400	-3.180150
0.533500	-3.202546
0.533600	-3.211310
0.533700	-3.177553
0.533800	-3.184694
0.533900	-3.204494
0.534000	-3.362566
0.534100	-3.466434
0.534200	-3.399569
0.534300	-3.369058
0.534400	-3.370681
0.534500	-3.312256
0.534600	-3.302194
0.534700	-3.279797
0.534800	-3.301869
0.534900	-3.300246
0.535000	-3.286289
0.535100	-3.293430
0.535200	-3.286614
0.535300	-3.296676
0.535400	-3.294079
0.535500	-3.300246
0.535600	-3.291158
0.535700	-3.302843
0.535800	-3.289860
0.535900	-3.305115
0.536000	-3.291807
0.536100	-3.307712
0.536200	-3.311282
0.536300	-3.377497
0.536400	-3.609900
0.536500	-3.677739
0.536600	-3.388209
0.536700	-3.114908
0.536800	-2.963977
0.536900	-3.214231
0.537000	-3.488505
0.537100	-3.656965
0.537200	-3.488181
0.537300	-3.238575
0.537400	-3.059080
0.537500	-3.155806
0.537600	-3.372304
0.537700	-3.511876
0.537800	-3.539465
0.537900	-3.420667
0.538000	-3.342118
0.538100	-3.351531
0.538200	-3.415474
0.538300	-3.487532
0.538400	-3.492400
0.538500	-3.461565
0.538600	-3.477470
0.538700	-3.553422
0.538800	-3.629375
0.538900	-3.652745
0.539000	-3.640087
0.539100	-3.658588
0.539200	-3.728374
0.539300	-3.773491
0.539400	-3.793291
0.539500	-3.602759
0.539600	-3.593996
0.539700	-3.735190
0.539800	-3.999078
0.539900	-4.215577
0.540000	-4.198049
0.540100	-3.973436
0.540200	-3.801406
0.540300	-3.901702
0.540400	-4.162670
0.540500	-4.431752
0.540600	-4.462587
0.540700	-4.315550
0.540800	-4.178899
0.540900	-4.157801
0.541000	-4.248036
0.541100	-4.363913
0.541200	-4.430129
0.541300	-4.434348
0.541400	-4.417145
0.541500	-4.408057
0.541600	-4.421689
0.541700	-4.397995
0.541800	-4.292179
0.541900	-4.284065
0.542000	-4.348982
0.542100	-4.427857
0.542200	-4.502836
0.542300	-4.497318
0.542400	-4.369431
0.542500	-4.423962
0.542600	-4.243816
0.542700	-4.402214
0.542800	-4.447656
0.542900	-4.484335
0.543000	-4.447332
0.543100	-4.393450
0.543200	-4.302566
0.543300	-4.347359
0.543400	-4.375274
0.543500	-4.415847
0.543600	-4.445709
0.543700	-4.401565
0.543800	-4.409355
0.543900	-4.278871
0.544000	-4.260045
0.544100	-4.183118
0.544200	-4.207138
0.544300	-4.147414
0.544400	-4.210708
0.544500	-4.092559
0.544600	-4.047442
0.544700	-3.613471
0.544800	-3.523561
0.544900	-3.504085
0.545000	-4.036730
0.545100	-4.085093
0.545200	-3.725453
0.545300	-3.376199
0.545400	-3.182422
0.545500	-3.343416
0.545600	-3.481689
0.545700	-3.740383
0.545800	-3.617690
0.545900	-3.437870
0.546000	-3.186966
0.546100	-3.264542
0.546200	-3.328161
0.546300	-3.416772
0.546400	-3.487207
0.546500	-3.467083
0.546600	-3.475847
0.546700	-3.478443
0.546800	-3.507981
0.546900	-3.537518
0.547000	-3.579389
0.547100	-3.717338
0.547200	-3.809845
0.547300	-3.838084
0.547400	-3.835162
0.547500	-3.765052
0.547600	-3.623533
0.547700	-3.698187
0.547800	-3.730971
0.547900	-4.071461
0.548000	-4.046792
0.548100	-3.915984
0.548200	-3.712145
0.548300	-3.584258
0.548400	-3.816986
0.548500	-4.076654
0.548600	-4.190584
0.548700	-4.027317
0.548800	-3.810169
0.548900	-3.689748
0.549000	-3.807248
0.549100	-3.990639
0.549200	-4.066592
0.549300	-3.947794
0.549400	-3.947794
0.549500	-3.888394
0.549600	-3.973436
0.549700	-4.033809
0.549800	-4.082172
0.549900	-4.057504
0.550000	-4.021150
0.550100	-4.100674
0.550200	-4.153581
0.550300	-4.163319
0.550400	-4.138001
0.550500	-4.159748
0.550600	-4.176627
0.550700	-4.362290
0.550800	-4.408057
0.550900	-4.343140
0.551000	-4.148063
0.551100	-4.154230
0.551200	-4.215577
0.551300	-4.197725
0.551400	-4.140598
0.551500	-4.118850
0.551600	-4.119500
0.551700	-4.067566
0.551800	-4.051986
0.551900	-4.018878
0.552000	-4.010763
0.552100	-3.976357
0.552200	-3.990314
0.552300	-3.969216
0.552400	-3.982200
0.552500	-3.967593
0.552600	-3.962075
0.552700	-3.978954
0.552800	-3.985446
0.552900	-4.028940
0.553000	-4.158775
0.553100	-4.385011
0.553200	-4.301268
0.553300	-3.975708
0.553400	-3.750446
0.553500	-3.792317
0.553600	-4.135729
0.553700	-4.453824
0.553800	-4.477843
0.553900	-4.255501
0.554000	-4.005570
0.554100	-3.961751
0.554200	-4.101647
0.554300	-4.312304
0.554400	-4.386634
0.554500	-4.290557
0.554600	-4.147089
0.554700	-4.128913
0.554800	-4.171433
0.554900	-4.230833
0.555000	-4.264265
0.555100	-4.250957
0.555200	-4.244790
0.555300	-4.264590
0.555400	-4.370729
0.555500	-4.420067
0.555600	-4.350280
0.555700	-4.333402
0.555800	-4.360343
0.555900	-4.423312
0.556000	-4.368457
0.556100	-4.314901
0.556200	-4.089962
0.556300	-4.013360
0.556400	-4.161371
0.556500	-4.339894
0.556600	-4.444735
0.556700	-4.222069
0.556800	-3.917932
0.556900	-3.780632
0.557000	-3.908843
0.557100	-4.153906
0.557200	-4.311655
0.557300	-4.227911
0.557400	-3.976357
0.557500	-3.808222
0.557600	-3.781930
0.557700	-3.843602
0.557800	-3.896509
0.557900	-3.854313
0.558000	-3.772842
0.558100	-3.701758
0.558200	-3.643982
0.558300	-3.623857
0.558400	-3.502138
0.558500	-3.391455
0.558600	-3.362891
0.558700	-3.414825
0.558800	-3.484935
0.558900	-3.520639
0.559000	-3.409956
0.559100	-3.305440
0.559200	-3.314528
0.559300	-3.149314
0.559400	-3.264867
0.559500	-3.321993
0.559600	-3.285640
0.559700	-3.216503
0.559800	-3.155482
0.559900	-3.089266
0.560000	-3.109066
0.560100	-3.180150
0.560200	-3.207740
0.560300	-3.202222
0.560400	-3.228838
0.560500	-3.216828
0.560600	-3.183720
0.560700	-3.124646
0.560800	-3.109066
0.560900	-3.109715
0.561000	-3.083099
0.561100	-3.153534
0.561200	-3.014612
0.561300	-2.994488
0.561400	-2.506638
0.561500	-2.638095
0.561600	-2.675422
0.561700	-3.265840
0.561800	-3.128866
0.561900	-2.837389
0.562000	-2.628032
0.562100	-2.460547
0.562200	-2.718267
0.562300	-2.892893
0.562400	-3.086020
0.562500	-2.881208
0.562600	-2.703336
0.562700	-2.592653
0.562800	-2.600443
0.562900	-2.766305
0.563000	-2.854917
0.563100	-2.876015
0.563200	-2.853618
0.563300	-2.893867
0.563400	-2.935089
0.563500	-2.995137
0.563600	-3.065247
0.563700	-3.085371
0.563800	-3.306413
0.563900	-3.333029
0.564000	-3.466758
0.564100	-3.509928
0.564200	-3.472276
0.564300	-3.405736
0.564400	-3.489479
0.564500	-3.688774
0.564600	-3.986744
0.564700	-3.942276
0.564800	-3.806924
0.564900	-3.502138
0.565000	-3.539141
0.565100	-3.711820
0.565200	-4.025694
0.565300	-4.063671
0.565400	-3.914037
0.565500	-3.652421
0.565600	-3.618664
0.565700	-3.804327
0.565800	-3.989016
0.565900	-3.993560
0.566000	-3.854313
0.566100	-3.790045
0.566200	-3.739410
0.566300	-3.816336
0.566400	-3.833540
0.566500	-3.854313
0.566600	-3.773167
0.566700	-3.701758
0.566800	-3.712469
0.566900	-3.722207
0.567000	-3.692669
0.567100	-3.641060
0.567200	-3.620612
0.567300	-3.721558
0.567400	-3.905273
0.567500	-3.898457
0.567600	-3.880280
0.567700	-3.698512
0.567800	-3.823477
0.567900	-3.914361
0.568000	-3.937082
0.568100	-3.958830
0.568200	-3.983823
0.568300	-4.026019
0.568400	-4.072435
0.568500	-4.087690
0.568600	-4.125991
0.568700	-4.179548
0.568800	-4.218174
0.568900	-4.235377
0.569000	-4.253878
0.569100	-4.260695
0.569200	-4.260695
0.569300	-4.314251
0.569400	-4.375274
0.569500	-4.441489
0.569600	-4.462587
0.569700	-4.706677
0.569800	-4.897534
0.569900	-4.693044
0.570000	-4.411627
0.570100	-4.255177
0.570200	-4.354825
0.570300	-4.736539
0.570400	-4.940704
0.570500	-4.847548
0.570600	-4.534970
0.570700	-4.341517
0.570800	-4.307760
0.570900	-4.493748
0.571000	-4.694992
0.571100	-4.698238
0.571200	-4.605730
0.571300	-4.471351
0.571400	-4.427857
0.571500	-4.454148
0.571600	-4.513548
0.571700	-4.495695
0.571800	-4.493423
0.571900	-4.475895
0.572000	-4.459991
0.572100	-4.545032
0.572200	-4.520039
0.572300	-4.546006
0.572400	-4.529452
0.572500	-4.571649
0.572600	-4.642733
0.572700	-4.649225
0.572800	-4.550875
0.572900	-4.410978
0.573000	-4.511275
0.573100	-4.684929
0.573200	-4.890718
0.573300	-4.946547
0.573400	-4.693693
0.573500	-4.424935
0.573600	-4.329831
0.573700	-4.503810
0.573800	-4.733618
0.573900	-4.826125
0.574000	-4.707975
0.574100	-4.455122
0.574200	-4.315550
0.574300	-4.311005
0.574400	-4.378844
0.574500	-4.438243
0.574600	-4.410329
0.574700	-4.353202
0.574800	-4.304189
0.574900	-4.243816
0.575000	-4.179548
0.575100	-4.043871
0.575200	-3.962075
0.575300	-3.976682
0.575400	-4.011412
0.575500	-4.003298
0.575600	-4.007193
0.575700	-3.822504
0.575800	-3.813091
0.575900	-3.639113
0.576000	-3.632297
0.576100	-3.680011
0.576200	-3.704679
0.576300	-3.683906
0.576400	-3.628077
0.576500	-3.529728
0.576600	-3.536544
0.576700	-3.533623
0.576800	-3.635218
0.576900	-3.623533
0.577000	-3.663457
0.577100	-3.661509
0.577200	-3.596592
0.577300	-3.532974
0.577400	-3.488181
0.577500	-3.491102
0.577600	-3.441441
0.577700	-3.485909
0.577800	-3.462214
0.577900	-3.294728
0.578000	-3.091863
0.578100	-2.816616
0.578200	-2.851346
0.578300	-3.253831
0.578400	-3.580038
0.578500	-3.324265
0.578600	-2.970793
0.578700	-2.750401
0.578800	-2.719240
0.578900	-2.899060
0.579000	-3.052913
0.579100	-3.077257
0.579200	-2.821484
0.579300	-2.646209
0.579400	-2.563116
0.579500	-2.619593
0.579600	-2.666658
0.579700	-2.650104
0.579800	-2.676395
0.579900	-2.648481
0.580000	-2.664386
0.580100	-2.667632
0.580200	-2.674773
0.580300	-2.676720
0.580400	-2.790324
0.580500	-2.866602
0.580600	-3.042526
0.580700	-3.050641
0.580800	-3.132111
0.580900	-3.048693
0.581000	-3.061352
0.581100	-3.177229
0.581200	-3.439818
0.581300	-3.709223
0.581400	-3.563160
0.581500	-3.467732
0.581600	-3.254480
0.581700	-3.490128
0.581800	-3.730971
0.581900	-4.035432
0.582000	-3.977006
0.582100	-3.828995
0.582200	-3.658588
0.582300	-3.761157
0.582400	-3.977656
0.582500	-4.119824
0.582600	-4.055232
0.582700	-4.064645
0.582800	-4.064645
0.582900	-4.142221
0.583000	-4.228885
0.583100	-4.282117
0.583200	-4.314901
0.583300	-4.285363
0.583400	-4.308409
0.583500	-4.344113
0.583600	-4.332104
0.583700	-4.295750
0.583800	-4.303215
0.583900	-4.294127
0.584000	-4.427857
0.584100	-4.501538
0.584200	-4.410654
0.584300	-4.274327
0.584400	-4.162345
0.584500	-4.259396
0.584600	-4.250957
0.584700	-4.204541
0.584800	-4.223367
0.584900	-4.223043
0.585000	-4.197725
0.585100	-4.168512
0.585200	-4.163643
0.585300	-4.157476
0.585400	-4.127290
0.585500	-4.085743
0.585600	-4.053933
0.585700	-4.010763
0.585800	-3.953312
0.585900	-3.923450
0.586000	-3.852690
0.586100	-3.840031
0.586200	-3.777062
0.586300	-3.838733
0.586400	-3.973436
0.586500	-3.998104
0.586600	-3.683581
0.586700	-3.288561
0.586800	-3.196704
0.586900	-3.330757
0.587000	-3.669624
0.587100	-3.695591
0.587200	-3.496295
0.587300	-3.226241
0.587400	-3.110689
0.587500	-3.214231
0.587600	-3.400867
0.587700	-3.503436
0.587800	-3.413526
0.587900	-3.314528
0.588000	-3.211310
0.588100	-3.252208
0.588200	-3.273955
0.588300	-3.284017
0.588400	-3.253831
0.588500	-3.201573
0.588600	-3.181448
0.588700	-3.239549
0.588800	-3.305764
0.588900	-3.255454
0.589000	-3.222995
0.589100	-3.242146
0.589200	-3.290184
0.589300	-3.385612
0.589400	-3.386910
0.589500	-3.248962
0.589600	-3.146718
0.589700	-3.308361
0.589800	-3.585556
0.589900	-3.808871
0.590000	-3.789396
0.590100	-3.584583
0.590200	-3.487207
0.590300	-3.656965
0.590400	-3.994209
0.590500	-4.321717
0.590600	-4.385336
0.590700	-4.287960
0.590800	-4.203892
0.590900	-4.256150
0.591000	-4.390529
0.591100	-4.527829
0.591200	-4.574570
0.591300	-4.581711
0.591400	-4.592422
0.591500	-4.600537
0.591600	-4.640461
0.591700	-4.637540
0.591800	-4.556393
0.591900	-4.556068
0.592000	-4.660585
0.592100	-4.748224
0.592200	-4.842030
0.592300	-4.831643
0.592400	-4.737513
0.592500	-4.781007
0.592600	-4.583334
0.592700	-4.744004
0.592800	-4.822879
0.592900	-4.830994
0.593000	-4.785552
0.593100	-4.764778
0.593200	-4.684929
0.593300	-4.760558
0.593400	-4.803404
0.593500	-4.942003
0.593600	-4.946547
0.593700	-4.997183
0.593800	-4.996209
0.593900	-5.001727
0.594000	-4.942977
0.594100	-5.009842
0.594200	-4.923501
0.594300	-5.018281
0.594400	-4.944599
0.594500	-5.003674
0.594600	-4.745627
0.594700	-4.539839
0.594800	-4.261668
0.594900	-4.432725
0.595000	-4.879033
0.595100	-4.936485
0.595200	-4.657340
0.595300	-4.257449
0.595400	-4.142221
0.595500	-4.136053
0.595600	-4.462587
0.595700	-4.567429
0.595800	-4.551200
0.595900	-4.266862
0.596000	-4.199348
0.596100	-4.135404
0.596200	-4.277573
0.596300	-4.363588
0.596400	-4.380792
0.596500	-4.323015
0.596600	-4.277573
0.596700	-4.232780
0.596800	-4.269783
0.596900	-4.299645
0.597000	-4.259072
0.597100	-4.374949
0.597200	-4.351579
0.597300	-4.429155
0.597400	-4.363913
0.597500	-4.431427
0.597600	-4.265239
