LabVIEW Measurement	
Writer_Version	2
Reader_Version	2
Separator	Tab
Decimal_Separator	.
Multi_Headings	Yes
X_Columns	One
Time_Pref	Relative
Operator	as989
Description	Time Domain Data
Date	1903/12/31
Time	19:00:00
***End_of_Header***	
	
Channels	1	
Samples	15000	
Date	1903/12/31	
Time	19:00:00	
X_Dimension	Time	
X0	0.0000000000000000E+0	
Delta_X	0.000100	
***End_of_Header***		
X_Value	Untitled	Comment
0.000000	-1.090808	Tare Values:0.000000, 0.000000, 0.000000, 0.000000\0D\0A
0.000100	-1.387152
0.000200	-1.717901
0.000300	-1.773080
0.000400	-1.530942
0.000500	-1.265758
0.000600	-1.199219
0.000700	-1.338140
0.000800	-1.568593
0.000900	-1.638379
0.001000	-1.583849
0.001100	-1.544899
0.001200	-1.463429
0.001300	-1.468946
0.001400	-1.527047
0.001500	-1.536460
0.001600	-1.604947
0.001700	-1.576708
0.001800	-1.609491
0.001900	-1.627343
0.002000	-1.685768
0.002100	-1.629615
0.002200	-1.678627
0.002300	-1.681873
0.002400	-1.767887
0.002500	-1.729586
0.002600	-1.715954
0.002700	-1.521529
0.002800	-1.500756
0.002900	-1.694531
0.003000	-1.914598
0.003100	-2.063257
0.003200	-1.942837
0.003300	-1.667591
0.003400	-1.527047
0.003500	-1.633185
0.003600	-1.869157
0.003700	-2.031124
0.003800	-1.982436
0.003900	-1.815601
0.004000	-1.663047
0.004100	-1.645519
0.004200	-1.690961
0.004300	-1.763018
0.004400	-1.772107
0.004500	-1.742570
0.004600	-1.716278
0.004700	-1.674732
0.004800	-1.655581
0.004900	-1.525099
0.005000	-1.438760
0.005100	-1.443304
0.005200	-1.516985
0.005300	-1.559505
0.005400	-1.580278
0.005500	-1.480956
0.005600	-1.407276
0.005700	-1.434541
0.005800	-1.239142
0.005900	-1.347877
0.006000	-1.387152
0.006100	-1.410522
0.006200	-1.372870
0.006300	-1.354693
0.006400	-1.331973
0.006500	-1.374168
0.006600	-1.440059
0.006700	-1.570865
0.006800	-1.562751
0.006900	-1.635782
0.007000	-1.660126
0.007100	-1.601701
0.007200	-1.685768
0.007300	-1.620851
0.007400	-1.728613
0.007500	-1.718550
0.007600	-1.812355
0.007700	-1.818522
0.007800	-1.556259
0.007900	-1.358588
0.008000	-1.207009
0.008100	-1.559180
0.008200	-2.031124
0.008300	-2.051572
0.008400	-1.756527
0.008500	-1.407276
0.008600	-1.319639
0.008700	-1.410522
0.008800	-1.652336
0.008900	-1.826961
0.009000	-1.705892
0.009100	-1.522503
0.009200	-1.365405
0.009300	-1.386827
0.009400	-1.403381
0.009500	-1.448498
0.009600	-1.446875
0.009700	-1.438111
0.009800	-1.390722
0.009900	-1.325156
0.010000	-1.283285
0.010100	-1.256020
0.010200	-1.208307
0.010300	-1.368975
0.010400	-1.293672
0.010500	-1.331324
0.010600	-1.214474
0.010700	-1.160593
0.010800	-1.079448
0.010900	-1.020049
0.011000	-1.160918
0.011100	-1.433567
0.011200	-1.335868
0.011300	-1.205386
0.011400	-0.920078
0.011500	-0.914235
0.011600	-1.065815
0.011700	-1.402407
0.011800	-1.356316
0.011900	-1.143390
0.012000	-0.923648
0.012100	-0.898655
0.012200	-1.037577
0.012300	-1.121643
0.012400	-1.081720
0.012500	-0.950264
0.012600	-0.940851
0.012700	-0.907095
0.012800	-0.983696
0.012900	-0.983047
0.013000	-0.945395
0.013100	-0.839906
0.013200	-0.795438
0.013300	-0.857758
0.013400	-0.882751
0.013500	-0.843801
0.013600	-0.801281
0.013700	-0.789596
0.013800	-0.868469
0.013900	-1.030111
0.014000	-1.045691
0.014100	-1.022321
0.014200	-0.853214
0.014300	-0.885023
0.014400	-0.974932
0.014500	-0.980775
0.014600	-0.987916
0.014700	-0.990837
0.014800	-1.023620
0.014900	-1.042770
0.015000	-1.035629
0.015100	-1.068412
0.015200	-1.068412
0.015300	-1.066140
0.015400	-1.056078
0.015500	-1.050884
0.015600	-1.067763
0.015700	-1.013558
0.015800	-1.084641
0.015900	-1.099896
0.016000	-1.133653
0.016100	-1.149882
0.016200	-1.386827
0.016300	-1.620202
0.016400	-1.423505
0.016500	-1.120994
0.016600	-0.875610
0.016700	-1.088536
0.016800	-1.424479
0.016900	-1.680899
0.017000	-1.670188
0.017100	-1.444278
0.017200	-1.259915
0.017300	-1.291075
0.017400	-1.525099
0.017500	-1.649414
0.017600	-1.736727
0.017700	-1.673433
0.017800	-1.643572
0.017900	-1.627992
0.018000	-1.675381
0.018100	-1.760746
0.018200	-1.758474
0.018300	-1.769835
0.018400	-1.775352
0.018500	-1.860393
0.018600	-1.874675
0.018700	-1.953873
0.018800	-1.854551
0.018900	-1.850331
0.019000	-1.884737
0.019100	-1.960365
0.019200	-1.932775
0.019300	-1.821443
0.019400	-1.603648
0.019500	-1.639028
0.019600	-1.855849
0.019700	-2.049625
0.019800	-2.145052
0.019900	-1.883114
0.020000	-1.555610
0.020100	-1.516011
0.020200	-1.713682
0.020300	-1.935696
0.020400	-1.981138
0.020500	-1.828584
0.020600	-1.589691
0.020700	-1.482904
0.020800	-1.521529
0.020900	-1.625720
0.021000	-1.636106
0.021100	-1.528994
0.021200	-1.448498
0.021300	-1.437462
0.021400	-1.425777
0.021500	-1.364431
0.021600	-1.217395
0.021700	-1.120345
0.021800	-1.141443
0.021900	-1.209281
0.022000	-1.237519
0.022100	-1.256670
0.022200	-1.093080
0.022300	-1.028488
0.022400	-1.010961
0.022500	-0.849644
0.022600	-0.950264
0.022700	-0.953510
0.022800	-0.896059
0.022900	-0.822703
0.023000	-0.794789
0.023100	-0.775964
0.023200	-0.831467
0.023300	-0.921376
0.023400	-0.984345
0.023500	-0.958379
0.023600	-1.091782
0.023700	-1.009013
0.023800	-1.094703
0.023900	-1.043419
0.024000	-1.107037
0.024100	-1.031085
0.024200	-1.189157
0.024300	-1.197920
0.024400	-1.127486
0.024500	-0.966169
0.024600	-0.620813
0.024700	-0.735715
0.024800	-1.031410
0.024900	-1.443954
0.025000	-1.334569
0.025100	-0.926245
0.025200	-0.748699
0.025300	-0.701959
0.025400	-0.852565
0.025500	-1.084316
0.025600	-1.094703
0.025700	-0.971037
0.025800	-0.679563
0.025900	-0.652298
0.026000	-0.720135
0.026100	-0.820431
0.026200	-0.843801
0.026300	-0.870092
0.026400	-0.854188
0.026500	-0.807448
0.026600	-0.843477
0.026700	-0.883400
0.026800	-0.887295
0.026900	-0.919429
0.027000	-0.958379
0.027100	-1.033682
0.027200	-1.084641
0.027300	-1.156698
0.027400	-0.957729
0.027500	-0.974932
0.027600	-0.876584
0.027700	-1.109958
0.027800	-1.339438
0.027900	-1.223238
0.028000	-1.016479
0.028100	-0.810369
0.028200	-0.899954
0.028300	-1.200841
0.028400	-1.463104
0.028500	-1.399810
0.028600	-1.201491
0.028700	-0.973309
0.028800	-1.046665
0.028900	-1.238493
0.029000	-1.433567
0.029100	-1.380011
0.029200	-1.303734
0.029300	-1.241414
0.029400	-1.307629
0.029500	-1.389748
0.029600	-1.439734
0.029700	-1.416364
0.029800	-1.336841
0.029900	-1.320288
0.030000	-1.321586
0.030100	-1.338789
0.030200	-1.294646
0.030300	-1.306655
0.030400	-1.303085
0.030500	-1.420259
0.030600	-1.583200
0.030700	-1.532889
0.030800	-1.500106
0.030900	-1.352421
0.031000	-1.464078
0.031100	-1.519906
0.031200	-1.493939
0.031300	-1.536784
0.031400	-1.563400
0.031500	-1.568593
0.031600	-1.603324
0.031700	-1.633185
0.031800	-1.703620
0.031900	-1.727314
0.032000	-1.760422
0.032100	-1.772107
0.032200	-1.793529
0.032300	-1.793529
0.032400	-1.825014
0.032500	-1.812030
0.032600	-1.899018
0.032700	-1.878570
0.032800	-1.994446
0.032900	-2.179134
0.033000	-2.242427
0.033100	-1.996718
0.033200	-1.590989
0.033300	-1.477710
0.033400	-1.663047
0.033500	-1.963610
0.033600	-2.108050
0.033700	-1.912976
0.033800	-1.673109
0.033900	-1.454989
0.034000	-1.500756
0.034100	-1.694856
0.034200	-1.805539
0.034300	-1.795801
0.034400	-1.661749
0.034500	-1.578331
0.034600	-1.537758
0.034700	-1.588068
0.034800	-1.631562
0.034900	-1.618904
0.035000	-1.597481
0.035100	-1.569242
0.035200	-1.600402
0.035300	-1.643896
0.035400	-1.647142
0.035500	-1.612737
0.035600	-1.610464
0.035700	-1.658503
0.035800	-1.677653
0.035900	-1.663371
0.036000	-1.472517
0.036100	-1.377414
0.036200	-1.482904
0.036300	-1.726990
0.036400	-1.940565
0.036500	-1.910054
0.036600	-1.626044
0.036700	-1.405977
0.036800	-1.444603
0.036900	-1.673758
0.037000	-1.942513
0.037100	-1.983085
0.037200	-1.835076
0.037300	-1.618904
0.037400	-1.548145
0.037500	-1.575410
0.037600	-1.671811
0.037700	-1.685768
0.037800	-1.655257
0.037900	-1.620527
0.038000	-1.586770
0.038100	-1.561452
0.038200	-1.477386
0.038300	-1.393643
0.038400	-1.388775
0.038500	-1.471543
0.038600	-1.522178
0.038700	-1.553013
0.038800	-1.527696
0.038900	-1.377739
0.039000	-1.391696
0.039100	-1.247257
0.039200	-1.265109
0.039300	-1.330999
0.039400	-1.353395
0.039500	-1.308278
0.039600	-1.266083
0.039700	-1.181042
0.039800	-1.232001
0.039900	-1.266732
0.040000	-1.347553
0.040100	-1.313796
0.040200	-1.353071
0.040300	-1.331324
0.040400	-1.324507
0.040500	-1.209930
0.040600	-1.302436
0.040700	-1.246608
0.040800	-1.308603
0.040900	-1.314445
0.041000	-1.303085
0.041100	-1.189157
0.041200	-0.979476
0.041300	-0.913262
0.041400	-0.982073
0.041500	-1.607868
0.041600	-1.824040
0.041700	-1.531915
0.041800	-1.239791
0.041900	-1.043419
0.042000	-1.248230
0.042100	-1.458560
0.042200	-1.681223
0.042300	-1.606245
0.042400	-1.475438
0.042500	-1.223562
0.042600	-1.256020
0.042700	-1.319963
0.042800	-1.360211
0.042900	-1.304383
0.043000	-1.292698
0.043100	-1.214149
0.043200	-1.146312
0.043300	-1.104765
0.043400	-1.079448
0.043500	-1.046016
0.043600	-1.106388
0.043700	-1.193376
0.043800	-1.141443
0.043900	-1.092431
0.044000	-1.048937
0.044100	-0.886321
0.044200	-0.923648
0.044300	-0.909367
0.044400	-1.234598
0.044500	-1.214799
0.044600	-1.081720
0.044700	-0.838608
0.044800	-0.713319
0.044900	-0.884049
0.045000	-1.170655
0.045100	-1.327104
0.045200	-1.152479
0.045300	-0.962598
0.045400	-0.754866
0.045500	-0.903200
0.045600	-1.084641
0.045700	-1.174226
0.045800	-1.040822
0.045900	-1.025567
0.046000	-0.958054
0.046100	-1.047314
0.046200	-1.065815
0.046300	-1.114827
0.046400	-1.041796
0.046500	-0.986293
0.046600	-1.014531
0.046700	-1.070359
0.046800	-1.094054
0.046900	-1.022321
0.047000	-1.017128
0.047100	-1.072956
0.047200	-1.249853
0.047300	-1.342035
0.047400	-1.285882
0.047500	-1.192402
0.047600	-1.104441
0.047700	-1.195324
0.047800	-1.197920
0.047900	-1.150207
0.048000	-1.167085
0.048100	-1.186235
0.048200	-1.163839
0.048300	-1.198245
0.048400	-1.211877
0.048500	-1.212851
0.048600	-1.185262
0.048700	-1.182340
0.048800	-1.200517
0.048900	-1.184937
0.049000	-1.162216
0.049100	-1.154102
0.049200	-1.165462
0.049300	-1.241739
0.049400	-1.240441
0.049500	-1.388775
0.049600	-1.646818
0.049700	-1.631238
0.049800	-1.322560
0.049900	-1.012908
0.050000	-1.064842
0.050100	-1.287505
0.050200	-1.624097
0.050300	-1.707839
0.050400	-1.505300
0.050500	-1.291725
0.050600	-1.193376
0.050700	-1.352421
0.050800	-1.544899
0.050900	-1.680574
0.051000	-1.573462
0.051100	-1.500431
0.051200	-1.437462
0.051300	-1.508546
0.051400	-1.541328
0.051500	-1.564698
0.051600	-1.547171
0.051700	-1.500431
0.051800	-1.534512
0.051900	-1.570865
0.052000	-1.621176
0.052100	-1.590016
0.052200	-1.562751
0.052300	-1.599104
0.052400	-1.664994
0.052500	-1.712383
0.052600	-1.630913
0.052700	-1.460507
0.052800	-1.415715
0.052900	-1.585147
0.053000	-1.865911
0.053100	-1.971725
0.053200	-1.829882
0.053300	-1.540679
0.053400	-1.393968
0.053500	-1.508221
0.053600	-1.764317
0.053700	-1.955820
0.053800	-1.924985
0.053900	-1.709462
0.054000	-1.544574
0.054100	-1.549443
0.054200	-1.623448
0.054300	-1.698751
0.054400	-1.667266
0.054500	-1.618254
0.054600	-1.558856
0.054700	-1.509844
0.054800	-1.506598
0.054900	-1.423505
0.055000	-1.282961
0.055100	-1.268355
0.055200	-1.305682
0.055300	-1.332297
0.055400	-1.349825
0.055500	-1.250827
0.055600	-1.167085
0.055700	-1.160593
0.055800	-0.955782
0.055900	-1.079123
0.056000	-1.107037
0.056100	-1.078474
0.056200	-1.008040
0.056300	-0.977529
0.056400	-0.919753
0.056500	-0.945720
0.056600	-1.018426
0.056700	-1.097624
0.056800	-1.147935
0.056900	-1.131705
0.057000	-1.151180
0.057100	-1.127486
0.057200	-1.096001
0.057300	-1.162865
0.057400	-1.115152
0.057500	-1.231028
0.057600	-1.183314
0.057700	-1.236221
0.057800	-1.081071
0.057900	-0.797386
0.058000	-0.779209
0.058100	-1.008040
0.058200	-1.564698
0.058300	-1.535810
0.058400	-1.322884
0.058500	-0.984021
0.058600	-0.847696
0.058700	-1.064842
0.058800	-1.261538
0.058900	-1.431295
0.059000	-1.273872
0.059100	-1.131381
0.059200	-0.920727
0.059300	-0.975581
0.059400	-1.013882
0.059500	-1.044068
0.059600	-1.041796
0.059700	-1.001223
0.059800	-0.987591
0.059900	-0.984670
0.060000	-1.011610
0.060100	-1.027515
0.060200	-1.042770
0.060300	-1.117099
0.060400	-1.238818
0.060500	-1.261863
0.060600	-1.241739
0.060700	-1.203438
0.060800	-1.103142
0.060900	-1.138197
0.061000	-1.233624
0.061100	-1.602350
0.061200	-1.519906
0.061300	-1.467324
0.061400	-1.197271
0.061500	-1.231677
0.061600	-1.435839
0.061700	-1.764317
0.061800	-1.853577
0.061900	-1.679601
0.062000	-1.446550
0.062100	-1.402732
0.062200	-1.518608
0.062300	-1.684794
0.062400	-1.680250
0.062500	-1.566646
0.062600	-1.534188
0.062700	-1.433242
0.062800	-1.496536
0.062900	-1.451744
0.063000	-1.464402
0.063100	-1.397214
0.063200	-1.335543
0.063300	-1.344631
0.063400	-1.307304
0.063500	-1.198894
0.063600	-1.173577
0.063700	-1.139820
0.063800	-1.206035
0.063900	-1.339114
0.064000	-1.265758
0.064100	-1.167085
0.064200	-0.954808
0.064300	-0.949615
0.064400	-0.963572
0.064500	-0.891515
0.064600	-0.840555
0.064700	-0.776613
0.064800	-0.763305
0.064900	-0.755515
0.065000	-0.721758
0.065100	-0.738312
0.065200	-0.713319
0.065300	-0.749023
0.065400	-0.737663
0.065500	-0.786999
0.065600	-0.810694
0.065700	-0.854512
0.065800	-0.875610
0.065900	-0.945395
0.066000	-1.021672
0.066100	-1.040822
0.066200	-1.226159
0.066300	-1.496536
0.066400	-1.321586
0.066500	-1.039849
0.066600	-0.820107
0.066700	-0.953834
0.066800	-1.253424
0.066900	-1.481281
0.067000	-1.464727
0.067100	-1.179744
0.067200	-0.993433
0.067300	-0.990188
0.067400	-1.175849
0.067500	-1.377739
0.067600	-1.445577
0.067700	-1.389748
0.067800	-1.309577
0.067900	-1.334245
0.068000	-1.407276
0.068100	-1.507572
0.068200	-1.535161
0.068300	-1.570541
0.068400	-1.603973
0.068500	-1.694531
0.068600	-1.755553
0.068700	-1.769510
0.068800	-1.823391
0.068900	-1.801319
0.069000	-1.873376
0.069100	-1.879544
0.069200	-1.890904
0.069300	-1.763018
0.069400	-1.601701
0.069500	-1.627018
0.069600	-1.812679
0.069700	-1.987305
0.069800	-2.043133
0.069900	-1.781844
0.070000	-1.453367
0.070100	-1.337166
0.070200	-1.466674
0.070300	-1.679601
0.070400	-1.783792
0.070500	-1.651686
0.070600	-1.418636
0.070700	-1.270302
0.070800	-1.292049
0.070900	-1.367028
0.071000	-1.414092
0.071100	-1.401109
0.071200	-1.358588
0.071300	-1.358264
0.071400	-1.312498
0.071500	-1.249853
0.071600	-1.121968
0.071700	-0.988889
0.071800	-1.021997
0.071900	-1.072631
0.072000	-1.110932
0.072100	-1.124889
0.072200	-0.952536
0.072300	-0.889567
0.072400	-0.799333
0.072500	-0.804851
0.072600	-0.917806
0.072700	-0.989538
0.072800	-0.968116
0.072900	-0.941176
0.073000	-0.878856
0.073100	-0.912288
0.073200	-0.928517
0.073300	-0.989863
0.073400	-0.997978
0.073500	-1.016803
0.073600	-1.040173
0.073700	-0.987591
0.073800	-0.998627
0.073900	-0.960002
0.074000	-1.078474
0.074100	-0.975581
0.074200	-1.133978
0.074300	-1.119371
0.074400	-1.043419
0.074500	-0.862951
0.074600	-0.550379
0.074700	-0.632174
0.074800	-0.863925
0.074900	-1.415390
0.075000	-1.171954
0.075100	-0.870741
0.075200	-0.618866
0.075300	-0.533176
0.075400	-0.849319
0.075500	-1.019400
0.075600	-1.135925
0.075700	-0.855811
0.075800	-0.749348
0.075900	-0.604909
0.076000	-0.721434
0.076100	-0.895734
0.076200	-0.834064
0.076300	-0.875935
0.076400	-0.836985
0.076500	-0.862951
0.076600	-0.877882
0.076700	-0.885997
0.076800	-0.855486
0.076900	-0.822379
0.077000	-0.967142
0.077100	-1.006092
0.077200	-1.031085
0.077300	-1.025892
0.077400	-0.880803
0.077500	-0.793166
0.077600	-0.788622
0.077700	-1.006417
0.077800	-1.244985
0.077900	-1.132355
0.078000	-0.955782
0.078100	-0.681186
0.078200	-0.774665
0.078300	-1.070359
0.078400	-1.297567
0.078500	-1.270951
0.078600	-1.047963
0.078700	-0.830493
0.078800	-0.871066
0.078900	-1.083018
0.079000	-1.168059
0.079100	-1.078474
0.079200	-0.964221
0.079300	-0.968765
0.079400	-0.986617
0.079500	-1.081071
0.079600	-1.089185
0.079700	-1.011285
0.079800	-0.963896
0.079900	-1.004469
0.080000	-1.074254
0.080100	-1.112555
0.080200	-1.064192
0.080300	-1.061596
0.080400	-1.052507
0.080500	-1.179094
0.080600	-1.309577
0.080700	-1.281987
0.080800	-1.239142
0.080900	-1.238818
0.081000	-1.171629
0.081100	-1.242388
0.081200	-1.220966
0.081300	-1.295944
0.081400	-1.325156
0.081500	-1.331973
0.081600	-1.355992
0.081700	-1.402732
0.081800	-1.435839
0.081900	-1.462779
0.082000	-1.462779
0.082100	-1.469271
0.082200	-1.428374
0.082300	-1.430970
0.082400	-1.418636
0.082500	-1.438111
0.082600	-1.456937
0.082700	-1.458235
0.082800	-1.500106
0.082900	-1.764317
0.083000	-1.839620
0.083100	-1.549118
0.083200	-1.228431
0.083300	-1.060622
0.083400	-1.319314
0.083500	-1.630913
0.083600	-1.823715
0.083700	-1.682197
0.083800	-1.415066
0.083900	-1.245634
0.084000	-1.336841
0.084100	-1.545548
0.084200	-1.737052
0.084300	-1.732832
0.084400	-1.613386
0.084500	-1.495887
0.084600	-1.552364
0.084700	-1.582550
0.084800	-1.644870
0.084900	-1.656555
0.085000	-1.642923
0.085100	-1.644870
0.085200	-1.723744
0.085300	-1.798073
0.085400	-1.756851
0.085500	-1.808460
0.085600	-1.776002
0.085700	-1.840269
0.085800	-1.912976
0.085900	-1.876622
0.086000	-1.726340
0.086100	-1.586770
0.086200	-1.688689
0.086300	-1.896746
0.086400	-2.068126
0.086500	-2.024957
0.086600	-1.683171
0.086700	-1.431295
0.086800	-1.465701
0.086900	-1.667266
0.087000	-1.886035
0.087100	-1.909405
0.087200	-1.721472
0.087300	-1.503028
0.087400	-1.461806
0.087500	-1.544250
0.087600	-1.624097
0.087700	-1.633185
0.087800	-1.587419
0.087900	-1.558531
0.088000	-1.536460
0.088100	-1.545223
0.088200	-1.528020
0.088300	-1.431619
0.088400	-1.377414
0.088500	-1.429347
0.088600	-1.483553
0.088700	-1.530617
0.088800	-1.514388
0.088900	-1.379362
0.089000	-1.396889
0.089100	-1.188507
0.089200	-1.350798
0.089300	-1.415390
0.089400	-1.431944
0.089500	-1.380011
0.089600	-1.308278
0.089700	-1.175524
0.089800	-1.208956
0.089900	-1.216421
0.090000	-1.317042
0.090100	-1.292374
0.090200	-1.241739
0.090300	-1.302760
0.090400	-1.151830
0.090500	-1.220966
0.090600	-1.096975
0.090700	-1.166436
0.090800	-1.134951
0.090900	-1.105414
0.091000	-1.209281
0.091100	-0.970388
0.091200	-0.841529
0.091300	-0.468909
0.091400	-0.771095
0.091500	-1.080097
0.091600	-1.389748
0.091700	-1.198894
0.091800	-0.772069
0.091900	-0.689625
0.092000	-0.596470
0.092100	-0.984021
0.092200	-1.058025
0.092300	-1.074579
0.092400	-0.902875
0.092500	-0.711047
0.092600	-0.715591
0.092700	-0.755190
0.092800	-0.929166
0.092900	-0.912613
0.093000	-0.917157
0.093100	-0.859381
0.093200	-0.852240
0.093300	-0.838608
0.093400	-0.879505
0.093500	-0.900603
0.093600	-1.042121
0.093700	-1.003171
0.093800	-1.128135
0.093900	-1.011610
0.094000	-1.069710
0.094100	-0.886971
0.094200	-0.937605
0.094300	-0.877882
0.094400	-1.195648
0.094500	-1.247257
0.094600	-1.100546
0.094700	-0.893787
0.094800	-0.697415
0.094900	-0.934035
0.095000	-1.150856
0.095100	-1.333920
0.095200	-1.193701
0.095300	-0.972660
0.095400	-0.817510
0.095500	-0.902226
0.095600	-1.106063
0.095700	-1.193051
0.095800	-1.100546
0.095900	-1.077500
0.096000	-1.031085
0.096100	-1.102493
0.096200	-1.143390
0.096300	-1.176822
0.096400	-1.130407
0.096500	-1.060947
0.096600	-1.063219
0.096700	-1.105414
0.096800	-1.098923
0.096900	-1.014856
0.097000	-0.998302
0.097100	-1.003171
0.097200	-1.158970
0.097300	-1.205061
0.097400	-1.133004
0.097500	-1.110608
0.097600	-1.004145
0.097700	-1.039524
0.097800	-1.049586
0.097900	-1.027515
0.098000	-1.037577
0.098100	-1.043744
0.098200	-1.034980
0.098300	-1.069710
0.098400	-1.086264
0.098500	-1.112880
0.098600	-1.121319
0.098700	-1.112555
0.098800	-1.170655
0.098900	-1.165137
0.099000	-1.197271
0.099100	-1.184937
0.099200	-1.253099
0.099300	-1.268679
0.099400	-1.334569
0.099500	-1.471868
0.099600	-1.772431
0.099700	-1.765940
0.099800	-1.479982
0.099900	-1.213176
0.100000	-1.267705
0.100100	-1.529968
0.100200	-1.828259
0.100300	-1.874675
0.100400	-1.677978
0.100500	-1.450770
0.100600	-1.421557
0.100700	-1.562102
0.100800	-1.763992
0.100900	-1.831505
0.101000	-1.802617
0.101100	-1.650388
0.101200	-1.638703
0.101300	-1.649090
0.101400	-1.679601
0.101500	-1.691610
0.101600	-1.655581
0.101700	-1.642923
0.101800	-1.639352
0.101900	-1.691935
0.102000	-1.688689
0.102100	-1.680899
0.102200	-1.660775
0.102300	-1.689987
0.102400	-1.757825
0.102500	-1.783142
0.102600	-1.730235
0.102700	-1.539381
0.102800	-1.500756
0.102900	-1.673758
0.103000	-1.882465
0.103100	-1.968804
0.103200	-1.797099
0.103300	-1.458884
0.103400	-1.276794
0.103500	-1.348202
0.103600	-1.557882
0.103700	-1.698102
0.103800	-1.635457
0.103900	-1.424154
0.104000	-1.259266
0.104100	-1.246608
0.104200	-1.329376
0.104300	-1.403056
0.104400	-1.408250
0.104500	-1.377739
0.104600	-1.396565
0.104700	-1.369949
0.104800	-1.350474
0.104900	-1.323209
0.105000	-1.228106
0.105100	-1.189157
0.105200	-1.252450
0.105300	-1.302436
0.105400	-1.353720
0.105500	-1.288803
0.105600	-1.160593
0.105700	-1.046990
0.105800	-1.034980
0.105900	-1.150207
0.106000	-1.176498
0.106100	-1.167734
0.106200	-1.079123
0.106300	-1.053481
0.106400	-0.975906
0.106500	-1.048288
0.106600	-1.101844
0.106700	-1.180393
0.106800	-1.213176
0.106900	-1.227782
0.107000	-1.301137
0.107100	-1.257643
0.107200	-1.353071
0.107300	-1.281013
0.107400	-1.386503
0.107500	-1.368001
0.107600	-1.489720
0.107700	-1.373195
0.107800	-1.339114
0.107900	-1.052183
0.108000	-1.047314
0.108100	-1.221290
0.108200	-1.769835
0.108300	-1.724068
0.108400	-1.494264
0.108500	-1.100221
0.108600	-1.099247
0.108700	-1.218693
0.108800	-1.441357
0.108900	-1.586770
0.109000	-1.419285
0.109100	-1.242713
0.109200	-1.060947
0.109300	-1.133978
0.109400	-1.211228
0.109500	-1.258293
0.109600	-1.249204
0.109700	-1.216746
0.109800	-1.181042
0.109900	-1.199219
0.110000	-1.223238
0.110100	-1.220316
0.110200	-1.162865
0.110300	-1.272574
0.110400	-1.344956
0.110500	-1.407600
0.110600	-1.358913
0.110700	-1.373519
0.110800	-1.165462
0.110900	-1.289777
0.111000	-1.268030
0.111100	-1.657854
0.111200	-1.583849
0.111300	-1.435839
0.111400	-1.170655
0.111500	-1.191104
0.111600	-1.391047
0.111700	-1.667916
0.111800	-1.688689
0.111900	-1.446875
0.112000	-1.201815
0.112100	-1.127161
0.112200	-1.293672
0.112300	-1.386827
0.112400	-1.389424
0.112500	-1.220316
0.112600	-1.185911
0.112700	-1.158970
0.112800	-1.252775
0.112900	-1.271600
0.113000	-1.245634
0.113100	-1.185911
0.113200	-1.180068
0.113300	-1.269004
0.113400	-1.293997
0.113500	-1.297567
0.113600	-1.256345
0.113700	-1.262837
0.113800	-1.331648
0.113900	-1.494588
0.114000	-1.492316
0.114100	-1.442980
0.114200	-1.432593
0.114300	-1.369300
0.114400	-1.395915
0.114500	-1.370923
0.114600	-1.377739
0.114700	-1.386178
0.114800	-1.389424
0.114900	-1.401109
0.115000	-1.415390
0.115100	-1.449472
0.115200	-1.444278
0.115300	-1.460507
0.115400	-1.457911
0.115500	-1.472841
0.115600	-1.484202
0.115700	-1.440708
0.115800	-1.496211
0.115900	-1.482254
0.116000	-1.558531
0.116100	-1.549443
0.116200	-1.722121
0.116300	-1.942513
0.116400	-1.693558
0.116500	-1.492316
0.116600	-1.176822
0.116700	-1.395266
0.116800	-1.730885
0.116900	-1.979515
0.117000	-1.959066
0.117100	-1.682197
0.117200	-1.552689
0.117300	-1.577357
0.117400	-1.825987
0.117500	-2.065854
0.117600	-2.116164
0.117700	-2.036317
0.117800	-1.929854
0.117900	-1.975945
0.118000	-2.047353
0.118100	-2.125577
0.118200	-2.146026
0.118300	-2.134017
0.118400	-2.116489
0.118500	-2.129797
0.118600	-2.198609
0.118700	-2.212566
0.118800	-2.205425
0.118900	-2.153167
0.119000	-2.186599
0.119100	-2.191792
0.119200	-2.180432
0.119300	-2.102532
0.119400	-1.891878
0.119500	-1.946732
0.119600	-2.120709
0.119700	-2.323249
0.119800	-2.406017
0.119900	-2.131420
0.120000	-1.833453
0.120100	-1.745166
0.120200	-1.923038
0.120300	-2.179458
0.120400	-2.301501
0.120500	-2.162255
0.120600	-1.901940
0.120700	-1.754904
0.120800	-1.804889
0.120900	-1.904536
0.121000	-1.994770
0.121100	-1.974646
0.121200	-1.941863
0.121300	-1.954198
0.121400	-1.926283
0.121500	-1.936346
0.121600	-1.886684
0.121700	-1.822092
0.121800	-1.839295
0.121900	-1.883114
0.122000	-1.942188
0.122100	-1.999639
0.122200	-1.863314
0.122300	-1.821443
0.122400	-1.662398
0.122500	-1.728288
0.122600	-1.815276
0.122700	-1.842541
0.122800	-1.759772
0.122900	-1.647791
0.123000	-1.549443
0.123100	-1.483553
0.123200	-1.508870
0.123300	-1.559830
0.123400	-1.601701
0.123500	-1.562751
0.123600	-1.617281
0.123700	-1.542951
0.123800	-1.524125
0.123900	-1.503352
0.124000	-1.482904
0.124100	-1.547495
0.124200	-1.539381
0.124300	-1.649414
0.124400	-1.460507
0.124500	-1.383906
0.124600	-1.120020
0.124700	-1.120020
0.124800	-1.512116
0.124900	-1.844164
0.125000	-1.858121
0.125100	-1.424154
0.125200	-1.300813
0.125300	-1.152479
0.125400	-1.392345
0.125500	-1.564374
0.125600	-1.598130
0.125700	-1.426102
0.125800	-1.126188
0.125900	-1.085615
0.126000	-1.145338
0.126100	-1.277767
0.126200	-1.293672
0.126300	-1.233624
0.126400	-1.186560
0.126500	-1.121319
0.126600	-1.137223
0.126700	-1.143715
0.126800	-1.168708
0.126900	-1.126188
0.127000	-1.334245
0.127100	-1.248555
0.127200	-1.368001
0.127300	-1.259591
0.127400	-1.242713
0.127500	-1.134951
0.127600	-1.211228
0.127700	-1.262512
0.127800	-1.530293
0.127900	-1.374168
0.128000	-1.179744
0.128100	-0.918130
0.128200	-1.029137
0.128300	-1.260240
0.128400	-1.483553
0.128500	-1.384230
0.128600	-1.175524
0.128700	-0.941825
0.128800	-0.960326
0.128900	-1.133328
0.129000	-1.245958
0.129100	-1.176822
0.129200	-1.095677
0.129300	-1.070684
0.129400	-1.083992
0.129500	-1.157672
0.129600	-1.213500
0.129700	-1.256670
0.129800	-1.164813
0.129900	-1.153452
0.130000	-1.211877
0.130100	-1.198894
0.130200	-1.160269
0.130300	-1.150531
0.130400	-1.157023
0.130500	-1.289452
0.130600	-1.418636
0.130700	-1.403056
0.130800	-1.258942
0.130900	-1.159295
0.131000	-1.256670
0.131100	-1.304383
0.131200	-1.306331
0.131300	-1.306655
0.131400	-1.304708
0.131500	-1.338789
0.131600	-1.333271
0.131700	-1.364106
0.131800	-1.393319
0.131900	-1.388450
0.132000	-1.453691
0.132100	-1.410846
0.132200	-1.459534
0.132300	-1.413118
0.132400	-1.441032
0.132500	-1.444927
0.132600	-1.492641
0.132700	-1.513739
0.132800	-1.549768
0.132900	-1.825338
0.133000	-1.901940
0.133100	-1.701672
0.133200	-1.345930
0.133300	-1.282961
0.133400	-1.498808
0.133500	-1.891878
0.133600	-2.078837
0.133700	-1.950303
0.133800	-1.696803
0.133900	-1.484202
0.134000	-1.587419
0.134100	-1.781195
0.134200	-1.964909
0.134300	-1.918493
0.134400	-1.793854
0.134500	-1.675706
0.134600	-1.675056
0.134700	-1.704593
0.134800	-1.701672
0.134900	-1.699076
0.135000	-1.683171
0.135100	-1.666617
0.135200	-1.728613
0.135300	-1.768536
0.135400	-1.742894
0.135500	-1.740622
0.135600	-1.703295
0.135700	-1.759448
0.135800	-1.786064
0.135900	-1.761395
0.136000	-1.647467
0.136100	-1.535810
0.136200	-1.710111
0.136300	-1.910703
0.136400	-2.095391
0.136500	-2.125577
0.136600	-1.837023
0.136700	-1.645195
0.136800	-1.699400
0.136900	-1.938618
0.137000	-2.206723
0.137100	-2.263525
0.137200	-2.123305
0.137300	-1.901940
0.137400	-1.823066
0.137500	-1.910054
0.137600	-1.995420
0.137700	-1.978866
0.137800	-1.930828
0.137900	-1.858121
0.138000	-1.822742
0.138100	-1.777625
0.138200	-1.706541
0.138300	-1.553663
0.138400	-1.466350
0.138500	-1.460183
0.138600	-1.466025
0.138700	-1.470245
0.138800	-1.441682
0.138900	-1.239467
0.139000	-1.240116
0.139100	-1.018751
0.139200	-1.173252
0.139300	-1.223562
0.139400	-1.255371
0.139500	-1.214149
0.139600	-1.185586
0.139700	-1.107037
0.139800	-1.105739
0.139900	-1.116126
0.140000	-1.283610
0.140100	-1.295619
0.140200	-1.363457
0.140300	-1.357939
0.140400	-1.361834
0.140500	-1.317367
0.140600	-1.380985
0.140700	-1.343333
0.140800	-1.481930
0.140900	-1.429347
0.141000	-1.545548
0.141100	-1.378713
0.141200	-1.180717
0.141300	-0.967142
0.141400	-1.091782
0.141500	-1.656555
0.141600	-1.808135
0.141700	-1.645844
0.141800	-1.187209
0.141900	-0.996355
0.142000	-1.087238
0.142100	-1.286531
0.142200	-1.605271
0.142300	-1.544574
0.142400	-1.365729
0.142500	-1.195324
0.142600	-1.194025
0.142700	-1.229080
0.142800	-1.319639
0.142900	-1.419935
0.143000	-1.363457
0.143100	-1.344631
0.143200	-1.339763
0.143300	-1.353395
0.143400	-1.381634
0.143500	-1.389424
0.143600	-1.452393
0.143700	-1.592288
0.143800	-1.589042
0.143900	-1.643572
0.144000	-1.628966
0.144100	-1.529319
0.144200	-1.498159
0.144300	-1.530293
0.144400	-1.790283
0.144500	-1.961663
0.144600	-1.835400
0.144700	-1.629615
0.144800	-1.463429
0.144900	-1.670837
0.145000	-1.951601
0.145100	-2.148298
0.145200	-1.994446
0.145300	-1.775028
0.145400	-1.593262
0.145500	-1.689987
0.145600	-1.845138
0.145700	-1.897396
0.145800	-1.770159
0.145900	-1.682846
0.146000	-1.590340
0.146100	-1.665968
0.146200	-1.707839
0.146300	-1.731209
0.146400	-1.654608
0.146500	-1.566321
0.146600	-1.511467
0.146700	-1.541004
0.146800	-1.500431
0.146900	-1.383906
0.147000	-1.380011
0.147100	-1.410846
0.147200	-1.581252
0.147300	-1.625395
0.147400	-1.562426
0.147500	-1.491343
0.147600	-1.387152
0.147700	-1.508221
0.147800	-1.502378
0.147900	-1.489395
0.148000	-1.506273
0.148100	-1.480631
0.148200	-1.490044
0.148300	-1.499782
0.148400	-1.518608
0.148500	-1.545548
0.148600	-1.542627
0.148700	-1.556908
0.148800	-1.561452
0.148900	-1.535486
0.149000	-1.589367
0.149100	-1.567295
0.149200	-1.644546
0.149300	-1.644546
0.149400	-1.695181
0.149500	-1.781520
0.149600	-2.074942
0.149700	-2.077539
0.149800	-1.703620
0.149900	-1.422531
0.150000	-1.364106
0.150100	-1.657204
0.150200	-1.892851
0.150300	-2.027229
0.150400	-1.816250
0.150500	-1.561777
0.150600	-1.443304
0.150700	-1.582550
0.150800	-1.776975
0.150900	-1.874675
0.151000	-1.829233
0.151100	-1.738999
0.151200	-1.682197
0.151300	-1.697128
0.151400	-1.747114
0.151500	-1.781844
0.151600	-1.795477
0.151700	-1.785739
0.151800	-1.828909
0.151900	-1.881816
0.152000	-1.946083
0.152100	-1.928556
0.152200	-1.931477
0.152300	-1.921739
0.152400	-1.980489
0.152500	-1.992823
0.152600	-1.958742
0.152700	-1.765290
0.152800	-1.724393
0.152900	-1.919467
0.153000	-2.124928
0.153100	-2.246647
0.153200	-2.145052
0.153300	-1.818197
0.153400	-1.635457
0.153500	-1.715305
0.153600	-1.913300
0.153700	-2.098312
0.153800	-2.073969
0.153900	-1.901940
0.154000	-1.726340
0.154100	-1.681873
0.154200	-1.743543
0.154300	-1.771133
0.154400	-1.751658
0.154500	-1.716603
0.154600	-1.709138
0.154700	-1.644546
0.154800	-1.613061
0.154900	-1.475438
0.155000	-1.388775
0.155100	-1.375142
0.155200	-1.416689
0.155300	-1.427075
0.155400	-1.454016
0.155500	-1.392345
0.155600	-1.261214
0.155700	-1.291400
0.155800	-1.070035
0.155900	-1.183639
0.156000	-1.203438
0.156100	-1.180068
0.156200	-1.129433
0.156300	-1.085615
0.156400	-1.009663
0.156500	-1.063868
0.156600	-1.085290
0.156700	-1.180393
0.156800	-1.150531
0.156900	-1.255696
0.157000	-1.223887
0.157100	-1.210904
0.157200	-1.180393
0.157300	-1.197920
0.157400	-1.198894
0.157500	-1.254722
0.157600	-1.354369
0.157700	-1.242713
0.157800	-1.152154
0.157900	-0.829195
0.158000	-0.735391
0.158100	-1.004794
0.158200	-1.355343
0.158300	-1.538407
0.158400	-1.100546
0.158500	-0.897033
0.158600	-0.691897
0.158700	-0.876259
0.158800	-1.145338
0.158900	-1.255047
0.159000	-1.214474
0.159100	-0.975906
0.159200	-0.889243
0.159300	-0.824651
0.159400	-0.972985
0.159500	-0.932737
0.159600	-1.027515
0.159700	-0.987591
0.159800	-0.976231
0.159900	-0.916832
0.160000	-0.942149
0.160100	-0.963572
0.160200	-0.920402
0.160300	-1.061271
0.160400	-1.139171
0.160500	-1.109634
0.160600	-1.093080
0.160700	-1.054455
0.160800	-0.920727
0.160900	-1.001223
0.161000	-1.000574
0.161100	-1.367677
0.161200	-1.249204
0.161300	-1.143390
0.161400	-0.858083
0.161500	-0.854837
0.161600	-1.038550
0.161700	-1.353720
0.161800	-1.352421
0.161900	-1.193376
0.162000	-0.968441
0.162100	-0.967467
0.162200	-1.127486
0.162300	-1.250503
0.162400	-1.244335
0.162500	-1.121643
0.162600	-1.164488
0.162700	-1.164813
0.162800	-1.283285
0.162900	-1.298865
0.163000	-1.317367
0.163100	-1.239142
0.163200	-1.240441
0.163300	-1.301462
0.163400	-1.329051
0.163500	-1.305032
0.163600	-1.284259
0.163700	-1.289452
0.163800	-1.368001
0.163900	-1.533538
0.164000	-1.544899
0.164100	-1.480307
0.164200	-1.284259
0.164300	-1.356966
0.164400	-1.443629
0.164500	-1.415715
0.164600	-1.399161
0.164700	-1.399486
0.164800	-1.406951
0.164900	-1.399161
0.165000	-1.449472
0.165100	-1.466025
0.165200	-1.496861
0.165300	-1.462130
0.165400	-1.504651
0.165500	-1.493939
0.165600	-1.552040
0.165700	-1.541978
0.165800	-1.600402
0.165900	-1.606245
0.166000	-1.634808
0.166100	-1.717901
0.166200	-1.927906
0.166300	-2.165177
0.166400	-2.032097
0.166500	-1.684145
0.166600	-1.418312
0.166700	-1.486474
0.166800	-1.798398
0.166900	-1.968155
0.167000	-1.941214
0.167100	-1.633834
0.167200	-1.413767
0.167300	-1.345281
0.167400	-1.517634
0.167500	-1.658178
0.167600	-1.694856
0.167700	-1.590989
0.167800	-1.495562
0.167900	-1.456612
0.168000	-1.536460
0.168100	-1.596832
0.168200	-1.569242
0.168300	-1.553987
0.168400	-1.517309
0.168500	-1.555285
0.168600	-1.637080
0.168700	-1.664994
0.168800	-1.636756
0.168900	-1.569892
0.169000	-1.616956
0.169100	-1.641949
0.169200	-1.641300
0.169300	-1.495887
0.169400	-1.281987
0.169500	-1.299190
0.169600	-1.515686
0.169700	-1.741920
0.169800	-1.819171
0.169900	-1.584822
0.170000	-1.288154
0.170100	-1.215772
0.170200	-1.400135
0.170300	-1.650713
0.170400	-1.761395
0.170500	-1.685768
0.170600	-1.467324
0.170700	-1.375791
0.170800	-1.440383
0.170900	-1.580278
0.171000	-1.659152
0.171100	-1.641949
0.171200	-1.615658
0.171300	-1.635133
0.171400	-1.628316
0.171500	-1.599104
0.171600	-1.503677
0.171700	-1.455963
0.171800	-1.472517
0.171900	-1.527371
0.172000	-1.581577
0.172100	-1.614035
0.172200	-1.475438
0.172300	-1.396565
0.172400	-1.406951
0.172500	-1.231677
0.172600	-1.303734
0.172700	-1.333920
0.172800	-1.242713
0.172900	-1.144689
0.173000	-1.100221
0.173100	-1.031085
0.173200	-1.110608
0.173300	-1.158321
0.173400	-1.160269
0.173500	-1.102493
0.173600	-1.147935
0.173700	-1.133978
0.173800	-1.088211
0.173900	-1.105090
0.174000	-1.010961
0.174100	-1.094054
0.174200	-1.026216
0.174300	-1.091457
0.174400	-0.861004
0.174500	-0.790245
0.174600	-0.433854
0.174700	-0.544861
0.174800	-0.835687
0.174900	-1.325156
0.175000	-1.131705
0.175100	-0.848670
0.175200	-0.576670
0.175300	-0.580241
0.175400	-0.812966
0.175500	-1.179419
0.175600	-1.198569
0.175700	-1.120345
0.175800	-0.904823
0.175900	-0.887295
0.176000	-0.908068
0.176100	-1.108985
0.176200	-1.191104
0.176300	-1.203438
0.176400	-1.175849
0.176500	-1.157023
0.176600	-1.186884
0.176700	-1.245634
0.176800	-1.259266
0.176900	-1.229080
0.177000	-1.460183
0.177100	-1.457262
0.177200	-1.532889
0.177300	-1.433892
0.177400	-1.395915
0.177500	-1.290426
0.177600	-1.294646
0.177700	-1.469920
0.177800	-1.710760
0.177900	-1.591314
0.178000	-1.401758
0.178100	-1.090808
0.178200	-1.204412
0.178300	-1.439409
0.178400	-1.713682
0.178500	-1.612737
0.178600	-1.397863
0.178700	-1.157347
0.178800	-1.186560
0.178900	-1.391371
0.179000	-1.542627
0.179100	-1.492966
0.179200	-1.423505
0.179300	-1.374818
0.179400	-1.391371
0.179500	-1.486149
0.179600	-1.532240
0.179700	-1.568593
0.179800	-1.443629
0.179900	-1.431944
0.180000	-1.502703
0.180100	-1.522503
0.180200	-1.507572
0.180300	-1.506273
0.180400	-1.528670
0.180500	-1.661424
0.180600	-1.796126
0.180700	-1.772756
0.180800	-1.711410
0.180900	-1.540679
0.181000	-1.652985
0.181100	-1.689987
0.181200	-1.685118
0.181300	-1.687066
0.181400	-1.672460
0.181500	-1.695830
0.181600	-1.683820
0.181700	-1.701348
0.181800	-1.712059
0.181900	-1.679925
0.182000	-1.672784
0.182100	-1.669214
0.182200	-1.658503
0.182300	-1.638703
0.182400	-1.618904
0.182500	-1.637405
0.182600	-1.692584
0.182700	-1.667266
0.182800	-1.758799
0.182900	-2.001262
0.183000	-2.135639
0.183100	-1.917844
0.183200	-1.622474
0.183300	-1.497834
0.183400	-1.686417
0.183500	-2.040861
0.183600	-2.203802
0.183700	-2.114866
0.183800	-1.817548
0.183900	-1.695181
0.184000	-1.753605
0.184100	-1.996718
0.184200	-2.165501
0.184300	-2.112919
0.184400	-1.985682
0.184500	-1.852603
0.184600	-1.850980
0.184700	-1.892527
0.184800	-1.933100
0.184900	-1.914598
0.185000	-1.898369
0.185100	-1.889930
0.185200	-1.914923
0.185300	-1.929854
0.185400	-1.954198
0.185500	-1.982761
0.185600	-1.981463
0.185700	-1.974646
0.185800	-2.021386
0.185900	-1.991849
0.186000	-1.870131
0.186100	-1.696154
0.186200	-1.876947
0.186300	-2.072346
0.186400	-2.247621
0.186500	-2.265148
0.186600	-1.980489
0.186700	-1.759448
0.186800	-1.800994
0.186900	-2.020412
0.187000	-2.258332
0.187100	-2.296308
0.187200	-2.167449
0.187300	-1.957443
0.187400	-1.901291
0.187500	-1.982436
0.187600	-2.109348
0.187700	-2.157711
0.187800	-2.101883
0.187900	-2.054818
0.188000	-2.006131
0.188100	-1.967181
0.188200	-1.909405
0.188300	-1.788985
0.188400	-1.747114
0.188500	-1.783467
0.188600	-1.833453
0.188700	-1.889930
0.188800	-1.863314
0.188900	-1.690961
0.189000	-1.692259
0.189100	-1.571839
0.189200	-1.578331
0.189300	-1.613710
0.189400	-1.588068
0.189500	-1.502378
0.189600	-1.420259
0.189700	-1.332946
0.189800	-1.280040
0.189900	-1.259915
0.190000	-1.370923
0.190100	-1.391696
0.190200	-1.360861
0.190300	-1.398188
0.190400	-1.338140
0.190500	-1.299839
0.190600	-1.264135
0.190700	-1.322884
0.190800	-1.313796
0.190900	-1.386503
0.191000	-1.448822
0.191100	-1.290426
0.191200	-1.068087
0.191300	-0.832441
0.191400	-0.928517
0.191500	-1.283285
0.191600	-1.580278
0.191700	-1.432918
0.191800	-0.991161
0.191900	-0.868794
0.192000	-0.826923
0.192100	-1.071658
0.192200	-1.197271
0.192300	-1.294646
0.192400	-1.012259
0.192500	-0.927543
0.192600	-0.852240
0.192700	-0.955457
0.192800	-1.043419
0.192900	-1.067114
0.193000	-1.062894
0.193100	-1.013882
0.193200	-0.987916
0.193300	-1.013882
0.193400	-1.060297
0.193500	-1.081071
0.193600	-1.126188
0.193700	-1.265758
0.193800	-1.193376
0.193900	-1.228756
0.194000	-1.139820
0.194100	-1.045691
0.194200	-1.025892
0.194300	-1.065491
0.194400	-1.233624
0.194500	-1.361185
0.194600	-1.171629
0.194700	-0.974932
0.194800	-0.812966
0.194900	-0.952212
0.195000	-1.244985
0.195100	-1.405977
0.195200	-1.214799
0.195300	-1.005118
0.195400	-0.857109
0.195500	-0.994732
0.195600	-1.140469
0.195700	-1.245309
0.195800	-1.132679
0.195900	-1.125863
0.196000	-1.059973
0.196100	-1.175199
0.196200	-1.238168
0.196300	-1.313147
0.196400	-1.259266
0.196500	-1.188507
0.196600	-1.194674
0.196700	-1.233300
0.196800	-1.242713
0.196900	-1.200192
0.197000	-1.172603
0.197100	-1.214149
0.197200	-1.377414
0.197300	-1.447849
0.197400	-1.379037
0.197500	-1.315094
0.197600	-1.187858
0.197700	-1.291400
0.197800	-1.292049
0.197900	-1.260889
0.198000	-1.271925
0.198100	-1.273872
0.198200	-1.318340
0.198300	-1.293023
0.198400	-1.331973
0.198500	-1.317367
0.198600	-1.353395
0.198700	-1.377414
0.198800	-1.379686
0.198900	-1.383257
0.199000	-1.376440
0.199100	-1.371572
0.199200	-1.421233
0.199300	-1.413443
0.199400	-1.422856
0.199500	-1.506598
0.199600	-1.779897
0.199700	-1.712383
0.199800	-1.390073
0.199900	-1.086913
0.200000	-1.068737
0.200100	-1.352746
0.200200	-1.649090
0.200300	-1.726665
0.200400	-1.486474
0.200500	-1.229080
0.200600	-1.152479
0.200700	-1.281013
0.200800	-1.504651
0.200900	-1.608517
0.201000	-1.552040
0.201100	-1.429672
0.201200	-1.406951
0.201300	-1.374818
0.201400	-1.429672
0.201500	-1.456612
0.201600	-1.481281
0.201700	-1.443954
0.201800	-1.428698
0.201900	-1.476087
0.202000	-1.489395
0.202100	-1.485500
0.202200	-1.483228
0.202300	-1.456612
0.202400	-1.526722
0.202500	-1.534512
0.202600	-1.534188
0.202700	-1.382283
0.202800	-1.352097
0.202900	-1.521529
0.203000	-1.790932
0.203100	-1.928556
0.203200	-1.842541
0.203300	-1.551715
0.203400	-1.383257
0.203500	-1.476412
0.203600	-1.730560
0.203700	-1.927257
0.203800	-1.867209
0.203900	-1.682522
0.204000	-1.498808
0.204100	-1.442655
0.204200	-1.529643
0.204300	-1.613710
0.204400	-1.589367
0.204500	-1.519906
0.204600	-1.483553
0.204700	-1.432593
0.204800	-1.402083
0.204900	-1.300488
0.205000	-1.200517
0.205100	-1.203114
0.205200	-1.258293
0.205300	-1.298216
0.205400	-1.354693
0.205500	-1.277767
0.205600	-1.141443
0.205700	-1.186560
0.205800	-0.973959
0.205900	-1.117099
0.206000	-1.169357
0.206100	-1.166760
0.206200	-1.147285
0.206300	-1.094379
0.206400	-1.067114
0.206500	-1.094703
0.206600	-1.162216
0.206700	-1.316393
0.206800	-1.290426
0.206900	-1.369300
0.207000	-1.339438
0.207100	-1.353395
0.207200	-1.326130
0.207300	-1.343982
0.207400	-1.357615
0.207500	-1.382932
0.207600	-1.462455
0.207700	-1.387476
0.207800	-1.227133
0.207900	-0.974932
0.208000	-0.823028
0.208100	-1.041147
0.208200	-1.536460
0.208300	-1.616632
0.208400	-1.214799
0.208500	-0.923324
0.208600	-0.684107
0.208700	-0.927868
0.208800	-1.104116
0.208900	-1.302111
0.209000	-1.125863
0.209100	-0.993109
0.209200	-0.791868
0.209300	-0.865548
0.209400	-0.980126
0.209500	-1.079123
0.209600	-1.117424
0.209700	-1.129758
0.209800	-1.071333
0.209900	-1.090159
0.210000	-1.112555
0.210100	-1.118073
0.210200	-1.126512
0.210300	-1.214149
0.210400	-1.326779
0.210500	-1.282961
0.210600	-1.281662
0.210700	-1.192727
0.210800	-1.168708
0.210900	-1.105414
0.211000	-1.255047
0.211100	-1.449147
0.211200	-1.481281
0.211300	-1.293023
0.211400	-1.057052
0.211500	-0.931114
0.211600	-1.182989
0.211700	-1.441682
0.211800	-1.506598
0.211900	-1.293347
0.212000	-1.080746
0.212100	-0.958054
0.212200	-1.128460
0.212300	-1.238818
0.212400	-1.256345
0.212500	-1.108336
0.212600	-1.091133
0.212700	-1.050235
0.212800	-1.136250
0.212900	-1.161892
0.213000	-1.191429
0.213100	-1.113853
0.213200	-1.078149
0.213300	-1.100221
0.213400	-1.132355
0.213500	-1.072307
0.213600	-1.008364
0.213700	-1.005118
0.213800	-1.056078
0.213900	-1.193701
0.214000	-1.183963
0.214100	-1.098273
0.214200	-0.911963
0.214300	-0.926570
0.214400	-1.021672
0.214500	-0.997653
0.214600	-0.988565
0.214700	-1.016479
0.214800	-0.990188
0.214900	-0.980775
0.215000	-1.016154
0.215100	-1.026216
0.215200	-1.071009
0.215300	-1.047639
0.215400	-1.100870
0.215500	-1.126188
0.215600	-1.140145
0.215700	-1.149233
0.215800	-1.180068
0.215900	-1.176498
0.216000	-1.191104
0.216100	-1.203763
0.216200	-1.372221
0.216300	-1.628966
0.216400	-1.466025
0.216500	-1.165137
0.216600	-0.912937
0.216700	-1.027515
0.216800	-1.322235
0.216900	-1.597481
0.217000	-1.549118
0.217100	-1.286531
0.217200	-1.078149
0.217300	-1.083992
0.217400	-1.293672
0.217500	-1.493290
0.217600	-1.541978
0.217700	-1.465376
0.217800	-1.301787
0.217900	-1.273872
0.218000	-1.304708
0.218100	-1.358588
0.218200	-1.350474
0.218300	-1.381958
0.218400	-1.384555
0.218500	-1.450445
0.218600	-1.503028
0.218700	-1.525424
0.218800	-1.548145
0.218900	-1.558856
0.219000	-1.595209
0.219100	-1.619228
0.219200	-1.647142
0.219300	-1.518283
0.219400	-1.327753
0.219500	-1.392345
0.219600	-1.589367
0.219700	-1.844489
0.219800	-1.938293
0.219900	-1.755228
0.220000	-1.478359
0.220100	-1.402732
0.220200	-1.630913
0.220300	-1.865911
0.220400	-1.986331
0.220500	-1.869157
0.220600	-1.703295
0.220700	-1.597157
0.220800	-1.622474
0.220900	-1.708488
0.221000	-1.722445
0.221100	-1.707190
0.221200	-1.666293
0.221300	-1.632536
0.221400	-1.580927
0.221500	-1.508546
0.221600	-1.378063
0.221700	-1.284259
0.221800	-1.273223
0.221900	-1.333596
0.222000	-1.346579
0.222100	-1.355992
0.222200	-1.218044
0.222300	-1.131705
0.222400	-1.144040
0.222500	-0.986293
0.222600	-1.092756
0.222700	-1.135600
0.222800	-1.090484
0.222900	-1.055753
0.223000	-0.970713
0.223100	-0.965195
0.223200	-1.004469
0.223300	-1.080097
0.223400	-1.119371
0.223500	-1.111581
0.223600	-1.118073
0.223700	-1.138846
0.223800	-1.044717
0.223900	-1.043744
0.224000	-0.996030
0.224100	-1.014207
0.224200	-1.022970
0.224300	-1.061596
0.224400	-0.922999
0.224500	-0.787324
0.224600	-0.487735
0.224700	-0.543887
0.224800	-0.793166
0.224900	-1.281013
0.225000	-1.113529
0.225100	-0.820756
0.225200	-0.492604
0.225300	-0.560117
0.225400	-0.707152
0.225500	-0.951887
0.225600	-1.030436
0.225700	-0.859056
0.225800	-0.650999
0.225900	-0.656193
0.226000	-0.681835
0.226100	-0.781806
0.226200	-0.857109
0.226300	-0.886971
0.226400	-0.838932
0.226500	-0.831792
0.226600	-0.831792
0.226700	-0.926245
0.226800	-0.862627
0.226900	-0.976880
0.227000	-0.953510
0.227100	-1.140145
0.227200	-1.097624
0.227300	-1.115152
0.227400	-1.055753
0.227500	-0.990188
0.227600	-1.091133
0.227700	-1.179094
0.227800	-1.545873
0.227900	-1.422207
0.228000	-1.291400
0.228100	-1.042121
0.228200	-1.184612
0.228300	-1.479658
0.228400	-1.804889
0.228500	-1.741596
0.228600	-1.576708
0.228700	-1.445252
0.228800	-1.561452
0.228900	-1.760097
0.229000	-1.879868
0.229100	-1.833453
0.229200	-1.780221
0.229300	-1.739648
0.229400	-1.774379
0.229500	-1.869806
0.229600	-1.896746
0.229700	-1.879868
0.229800	-1.714331
0.229900	-1.682522
0.230000	-1.725042
0.230100	-1.711734
0.230200	-1.634159
0.230300	-1.581252
0.230400	-1.550417
0.230500	-1.649090
0.230600	-1.765615
0.230700	-1.704269
0.230800	-1.628316
0.230900	-1.404030
0.231000	-1.441032
0.231100	-1.445901
0.231200	-1.391371
0.231300	-1.351772
0.231400	-1.295944
0.231500	-1.243037
0.231600	-1.192727
0.231700	-1.158646
0.231800	-1.086589
0.231900	-1.052183
0.232000	-1.011935
0.232100	-0.962598
0.232200	-0.931763
0.232300	-0.845099
0.232400	-0.806474
0.232500	-0.752594
0.232600	-0.731171
0.232700	-0.727925
0.232800	-0.672422
0.232900	-0.925596
0.233000	-0.894761
0.233100	-0.656517
0.233200	-0.217683
0.233300	-0.082981
0.233400	-0.184900
0.233500	-0.550704
0.233600	-0.674045
0.233700	-0.571152
0.233800	-0.319277
0.233900	-0.144976
0.234000	-0.223525
0.234100	-0.424117
0.234200	-0.633147
0.234300	-0.631525
0.234400	-0.575372
0.234500	-0.483515
0.234600	-0.480594
0.234700	-0.568231
0.234800	-0.649377
0.234900	-0.682159
0.235000	-0.668851
0.235100	-0.679238
0.235200	-0.785376
0.235300	-0.887295
0.235400	-0.883400
0.235500	-0.961949
0.235600	-0.988889
0.235700	-1.095352
0.235800	-1.215448
0.235900	-1.266083
0.236000	-1.175849
0.236100	-1.055429
0.236200	-1.206035
0.236300	-1.449472
0.236400	-1.648441
0.236500	-1.715629
0.236600	-1.462779
0.236700	-1.248880
0.236800	-1.284259
0.236900	-1.536460
0.237000	-1.809109
0.237100	-1.871104
0.237200	-1.763667
0.237300	-1.576059
0.237400	-1.555935
0.237500	-1.665319
0.237600	-1.818847
0.237700	-1.906159
0.237800	-1.881491
0.237900	-1.870455
0.238000	-1.867859
0.238100	-1.876298
0.238200	-1.829882
0.238300	-1.737376
0.238400	-1.705243
0.238500	-1.730235
0.238600	-1.810083
0.238700	-1.885386
0.238800	-1.911677
0.238900	-1.777300
0.239000	-1.766264
0.239100	-1.639028
0.239200	-1.693882
0.239300	-1.781195
0.239400	-1.829558
0.239500	-1.802942
0.239600	-1.768861
0.239700	-1.719200
0.239800	-1.735429
0.239900	-1.797749
0.240000	-1.892851
0.240100	-1.937968
0.240200	-1.926933
0.240300	-1.945434
0.240400	-1.909081
0.240500	-1.892527
0.240600	-1.911028
0.240700	-1.835725
0.240800	-1.945109
0.240900	-1.846111
0.241000	-1.949653
0.241100	-1.699076
0.241200	-1.610464
0.241300	-1.290751
0.241400	-1.397538
0.241500	-1.907458
0.241600	-2.109024
0.241700	-1.942513
0.241800	-1.493290
0.241900	-1.356966
0.242000	-1.254722
0.242100	-1.491343
0.242200	-1.711085
0.242300	-1.603648
0.242400	-1.469920
0.242500	-1.175199
0.242600	-1.155400
0.242700	-1.214474
0.242800	-1.337815
0.242900	-1.343009
0.243000	-1.350474
0.243100	-1.295295
0.243200	-1.265758
0.243300	-1.276469
0.243400	-1.313796
0.243500	-1.306980
0.243600	-1.263486
0.243700	-1.501405
0.243800	-1.331324
0.243900	-1.442331
0.244000	-1.358913
0.244100	-1.265758
0.244200	-1.272899
0.244300	-1.232651
0.244400	-1.496861
0.244500	-1.574760
0.244600	-1.478359
0.244700	-1.254073
0.244800	-1.056078
0.244900	-1.197596
0.245000	-1.438111
0.245100	-1.592937
0.245200	-1.464078
0.245300	-1.264784
0.245400	-1.074904
0.245500	-1.171954
0.245600	-1.334894
0.245700	-1.416364
0.245800	-1.307954
0.245900	-1.295944
0.246000	-1.209605
0.246100	-1.265433
0.246200	-1.341386
0.246300	-1.381958
0.246400	-1.357939
0.246500	-1.281662
0.246600	-1.295619
0.246700	-1.306331
0.246800	-1.271600
0.246900	-1.215123
0.247000	-1.218044
0.247100	-1.207333
0.247200	-1.376440
0.247300	-1.412145
0.247400	-1.382283
0.247500	-1.273872
0.247600	-1.190130
0.247700	-1.327429
0.247800	-1.347228
0.247900	-1.353720
0.248000	-1.385529
0.248100	-1.393319
0.248200	-1.430970
0.248300	-1.479658
0.248400	-1.530293
0.248500	-1.536784
0.248600	-1.543925
0.248700	-1.589042
0.248800	-1.632211
0.248900	-1.612087
0.249000	-1.614035
0.249100	-1.642923
0.249200	-1.661749
0.249300	-1.697777
0.249400	-1.628316
0.249500	-1.800345
0.249600	-1.974646
0.249700	-2.024632
0.249800	-1.635133
0.249900	-1.424154
0.250000	-1.384880
0.250100	-1.638054
0.250200	-1.980489
0.250300	-2.024957
0.250400	-1.877921
0.250500	-1.655906
0.250600	-1.551390
0.250700	-1.690636
0.250800	-1.869157
0.250900	-2.009377
0.251000	-1.924336
0.251100	-1.821119
0.251200	-1.776002
0.251300	-1.809109
0.251400	-1.864288
0.251500	-1.867209
0.251600	-1.836699
0.251700	-1.825338
0.251800	-1.809758
0.251900	-1.815276
0.252000	-1.838971
0.252100	-1.806188
0.252200	-1.704593
0.252300	-1.739324
0.252400	-1.714006
0.252500	-1.768861
0.252600	-1.644221
0.252700	-1.501729
0.252800	-1.385204
0.252900	-1.547171
0.253000	-1.791582
0.253100	-1.896422
0.253200	-1.791906
0.253300	-1.476412
0.253400	-1.320288
0.253500	-1.432269
0.253600	-1.672135
0.253700	-1.848708
0.253800	-1.770808
0.253900	-1.590989
0.254000	-1.454665
0.254100	-1.433242
0.254200	-1.524125
0.254300	-1.589691
0.254400	-1.578655
0.254500	-1.534837
0.254600	-1.520880
0.254700	-1.479333
0.254800	-1.468297
0.254900	-1.420908
0.255000	-1.306006
0.255100	-1.285557
0.255200	-1.342035
0.255300	-1.434216
0.255400	-1.537758
0.255500	-1.510168
0.255600	-1.421882
0.255700	-1.497834
0.255800	-1.337166
0.255900	-1.516660
0.256000	-1.582226
0.256100	-1.604297
0.256200	-1.568269
0.256300	-1.550417
0.256400	-1.524450
0.256500	-1.588393
0.256600	-1.668889
0.256700	-1.730560
0.256800	-1.740298
0.256900	-1.736403
0.257000	-1.825014
0.257100	-1.704269
0.257200	-1.762045
0.257300	-1.684145
0.257400	-1.780870
0.257500	-1.784765
0.257600	-1.834751
0.257700	-1.802293
0.257800	-1.674083
0.257900	-1.410197
0.258000	-1.335868
0.258100	-1.376116
0.258200	-2.045081
0.258300	-1.962961
0.258400	-1.757825
0.258500	-1.292698
0.258600	-1.256670
0.258700	-1.345605
0.258800	-1.563400
0.258900	-1.698102
0.259000	-1.569242
0.259100	-1.318016
0.259200	-1.161567
0.259300	-1.149557
0.259400	-1.231677
0.259500	-1.252450
0.259600	-1.287180
0.259700	-1.215123
0.259800	-1.132030
0.259900	-1.112231
0.260000	-1.082694
0.260100	-1.037577
0.260200	-0.924622
0.260300	-0.978827
0.260400	-1.016803
0.260500	-0.948966
0.260600	-0.926245
0.260700	-0.885023
0.260800	-0.719811
0.260900	-0.729548
0.261000	-0.767200
0.261100	-1.087562
0.261200	-1.113529
0.261300	-1.003820
0.261400	-0.749672
0.261500	-0.710723
0.261600	-0.948641
0.261700	-1.320612
0.261800	-1.353720
0.261900	-1.165787
0.262000	-0.995381
0.262100	-0.971362
0.262200	-1.165787
0.262300	-1.336841
0.262400	-1.402407
0.262500	-1.233949
0.262600	-1.209930
0.262700	-1.159944
0.262800	-1.297892
0.262900	-1.353395
0.263000	-1.331973
0.263100	-1.221290
0.263200	-1.146961
0.263300	-1.174226
0.263400	-1.184612
0.263500	-1.109309
0.263600	-1.010312
0.263700	-0.956107
0.263800	-0.973309
0.263900	-1.106388
0.264000	-1.069386
0.264100	-0.987266
0.264200	-0.759410
0.264300	-0.801281
0.264400	-0.874312
0.264500	-0.857434
0.264600	-0.817835
0.264700	-0.818159
0.264800	-0.763954
0.264900	-0.794465
0.265000	-0.806799
0.265100	-0.802579
0.265200	-0.787324
0.265300	-0.800956
0.265400	-0.806799
0.265500	-0.827897
0.265600	-0.784403
0.265700	-0.820756
0.265800	-0.786026
0.265900	-0.870417
0.266000	-0.851591
0.266100	-0.915209
0.266200	-1.105414
0.266300	-1.318340
0.266400	-1.228431
0.266500	-0.838932
0.266600	-0.736040
0.266700	-0.816212
0.266800	-1.257319
0.266900	-1.497185
0.267000	-1.502378
0.267100	-1.302436
0.267200	-1.066140
0.267300	-1.071658
0.267400	-1.229080
0.267500	-1.481930
0.267600	-1.519906
0.267700	-1.467648
0.267800	-1.355667
0.267900	-1.324507
0.268000	-1.384880
0.268100	-1.466025
0.268200	-1.480307
0.268300	-1.443304
0.268400	-1.409223
0.268500	-1.454340
0.268600	-1.503677
0.268700	-1.578980
0.268800	-1.539705
0.268900	-1.558531
0.269000	-1.538407
0.269100	-1.567944
0.269200	-1.553013
0.269300	-1.505949
0.269400	-1.304383
0.269500	-1.321586
0.269600	-1.504001
0.269700	-1.700049
0.269800	-1.778923
0.269900	-1.552689
0.270000	-1.238168
0.270100	-1.113529
0.270200	-1.298541
0.270300	-1.573787
0.270400	-1.724068
0.270500	-1.642274
0.270600	-1.438111
0.270700	-1.347228
0.270800	-1.392345
0.270900	-1.535810
0.271000	-1.636106
0.271100	-1.620851
0.271200	-1.582226
0.271300	-1.546846
0.271400	-1.535810
0.271500	-1.504651
0.271600	-1.415390
0.271700	-1.370273
0.271800	-1.379686
0.271900	-1.439085
0.272000	-1.488097
0.272100	-1.526722
0.272200	-1.371247
0.272300	-1.325156
0.272400	-1.407600
0.272500	-1.251801
0.272600	-1.369949
0.272700	-1.453042
0.272800	-1.470245
0.272900	-1.463429
0.273000	-1.440059
0.273100	-1.477710
0.273200	-1.606894
0.273300	-1.712059
0.273400	-1.817224
0.273500	-1.855524
0.273600	-1.901615
0.273700	-1.951601
0.273800	-1.899992
0.273900	-1.978217
0.274000	-1.961988
0.274100	-2.044107
0.274200	-2.068451
0.274300	-2.062284
0.274400	-2.037291
0.274500	-1.754255
0.274600	-1.541004
0.274700	-1.457586
0.274800	-1.866885
0.274900	-2.170694
0.275000	-2.071697
0.275100	-1.733157
0.275200	-1.254073
0.275300	-1.310875
0.275400	-1.403056
0.275500	-1.615982
0.275600	-1.637729
0.275700	-1.445901
0.275800	-1.214149
0.275900	-1.072631
0.276000	-1.148908
0.276100	-1.216421
0.276200	-1.266732
0.276300	-1.275495
0.276400	-1.217395
0.276500	-1.162541
0.276600	-1.164813
0.276700	-1.238168
0.276800	-1.229080
0.276900	-1.314770
0.277000	-1.386503
0.277100	-1.479982
0.277200	-1.401433
0.277300	-1.480956
0.277400	-1.382932
0.277500	-1.305682
0.277600	-1.373844
0.277700	-1.425128
0.277800	-1.752307
0.277900	-1.571839
0.278000	-1.417987
0.278100	-1.096651
0.278200	-1.168383
0.278300	-1.403705
0.278400	-1.663371
0.278500	-1.581252
0.278600	-1.329051
0.278700	-1.078799
0.278800	-1.100870
0.278900	-1.285233
0.279000	-1.407925
0.279100	-1.367677
0.279200	-1.304708
0.279300	-1.236546
0.279400	-1.284259
0.279500	-1.353720
0.279600	-1.417987
0.279700	-1.383581
0.279800	-1.275820
0.279900	-1.292698
0.280000	-1.335219
0.280100	-1.318016
0.280200	-1.238493
0.280300	-1.219992
0.280400	-1.223887
0.280500	-1.318016
0.280600	-1.454340
0.280700	-1.429672
0.280800	-1.349176
0.280900	-1.158646
0.281000	-1.244985
0.281100	-1.304708
0.281200	-1.271925
0.281300	-1.273548
0.281400	-1.286531
0.281500	-1.307304
0.281600	-1.337815
0.281700	-1.320937
0.281800	-1.363133
0.281900	-1.367677
0.282000	-1.426426
0.282100	-1.442006
0.282200	-1.463753
0.282300	-1.491667
0.282400	-1.519257
0.282500	-1.592937
0.282600	-1.619228
0.282700	-1.680899
0.282800	-1.737701
0.282900	-1.984708
0.283000	-2.168422
0.283100	-1.883763
0.283200	-1.671161
0.283300	-1.486149
0.283400	-1.779247
0.283500	-2.134017
0.283600	-2.370962
0.283700	-2.276509
0.283800	-1.981138
0.283900	-1.841892
0.284000	-1.954198
0.284100	-2.186599
0.284200	-2.351163
0.284300	-2.338504
0.284400	-2.282026
0.284500	-2.151869
0.284600	-2.196012
0.284700	-2.216136
0.284800	-2.268394
0.284900	-2.303774
0.285000	-2.274886
0.285100	-2.251840
0.285200	-2.304098
0.285300	-2.321626
0.285400	-2.335907
0.285500	-2.250866
0.285600	-2.221005
0.285700	-2.239181
0.285800	-2.268719
0.285900	-2.232690
0.286000	-2.096365
0.286100	-1.904212
0.286200	-2.049300
0.286300	-2.301501
0.286400	-2.483917
0.286500	-2.479373
0.286600	-2.172642
0.286700	-1.955820
0.286800	-1.970102
0.286900	-2.252814
0.287000	-2.507937
0.287100	-2.598171
0.287200	-2.443994
0.287300	-2.251516
0.287400	-2.212241
0.287500	-2.293711
0.287600	-2.369015
0.287700	-2.401798
0.287800	-2.343048
0.287900	-2.314809
0.288000	-2.262551
0.288100	-2.229119
0.288200	-2.137912
0.288300	-1.986656
0.288400	-1.939916
0.288500	-1.938293
0.288600	-1.969128
0.288700	-2.001262
0.288800	-1.967505
0.288900	-1.783467
0.289000	-1.769510
0.289100	-1.659476
0.289200	-1.663696
0.289300	-1.686092
0.289400	-1.708488
0.289500	-1.692584
0.289600	-1.650064
0.289700	-1.575085
0.289800	-1.564374
0.289900	-1.647791
0.290000	-1.708164
0.290100	-1.778598
0.290200	-1.726665
0.290300	-1.860393
0.290400	-1.850331
0.290500	-1.813004
0.290600	-1.877921
0.290700	-1.827610
0.290800	-1.931801
0.290900	-1.930503
0.291000	-1.972374
0.291100	-1.923362
0.291200	-1.645844
0.291300	-1.500756
0.291400	-1.499133
0.291500	-2.061635
0.291600	-2.292413
0.291700	-2.151544
0.291800	-1.765940
0.291900	-1.574760
0.292000	-1.634808
0.292100	-1.888632
0.292200	-2.054818
0.292300	-2.119086
0.292400	-1.834751
0.292500	-1.731534
0.292600	-1.600402
0.292700	-1.736078
0.292800	-1.794503
0.292900	-1.841892
0.293000	-1.777300
0.293100	-1.689987
0.293200	-1.643896
0.293300	-1.609166
0.293400	-1.629290
0.293500	-1.520880
0.293600	-1.659476
0.293700	-1.713357
0.293800	-1.696154
0.293900	-1.661424
0.294000	-1.593586
0.294100	-1.497185
0.294200	-1.467648
0.294300	-1.477710
0.294400	-1.766913
0.294500	-1.862990
0.294600	-1.761720
0.294700	-1.480631
0.294800	-1.338789
0.294900	-1.482904
0.295000	-1.816899
0.295100	-2.013921
0.295200	-1.875649
0.295300	-1.649414
0.295400	-1.478359
0.295500	-1.553987
0.295600	-1.742894
0.295700	-1.839620
0.295800	-1.726016
0.295900	-1.690961
0.296000	-1.584822
0.296100	-1.655581
0.296200	-1.683820
0.296300	-1.721472
0.296400	-1.690636
0.296500	-1.610789
0.296600	-1.625720
0.296700	-1.651037
0.296800	-1.602999
0.296900	-1.586121
0.297000	-1.588068
0.297100	-1.644221
0.297200	-1.784116
0.297300	-1.884088
0.297400	-1.865262
0.297500	-1.800670
0.297600	-1.663047
0.297700	-1.759448
0.297800	-1.753930
0.297900	-1.734455
0.298000	-1.750684
0.298100	-1.768536
0.298200	-1.753605
0.298300	-1.773405
0.298400	-1.800021
0.298500	-1.842866
0.298600	-1.857472
0.298700	-1.911677
0.298800	-1.922388
0.298900	-1.995744
0.299000	-2.011324
0.299100	-2.046055
0.299200	-2.114217
0.299300	-2.114217
0.299400	-2.229119
0.299500	-2.348566
0.299600	-2.640042
0.299700	-2.638419
0.299800	-2.311564
0.299900	-2.063257
0.300000	-2.012298
0.300100	-2.369989
0.300200	-2.706906
0.300300	-2.800386
0.300400	-2.656271
0.300500	-2.336556
0.300600	-2.217110
0.300700	-2.358628
0.300800	-2.619593
0.300900	-2.796816
0.301000	-2.807203
0.301100	-2.714372
0.301200	-2.659192
0.301300	-2.655947
0.301400	-2.756568
0.301500	-2.792596
0.301600	-2.860759
0.301700	-2.857513
0.301800	-2.878936
0.301900	-2.900683
0.302000	-2.987671
0.302100	-2.962354
0.302200	-2.968196
0.302300	-2.996760
0.302400	-3.070116
0.302500	-3.105820
0.302600	-3.056159
0.302700	-2.901981
0.302800	-2.816616
0.302900	-3.069142
0.303000	-3.296027
0.303100	-3.475197
0.303200	-3.400218
0.303300	-3.112312
0.303400	-2.950020
0.303500	-3.048693
0.303600	-3.320695
0.303700	-3.552449
0.303800	-3.569327
0.303900	-3.383015
0.304000	-3.188589
0.304100	-3.146069
0.304200	-3.192484
0.304300	-3.255778
0.304400	-3.294079
0.304500	-3.236952
0.304600	-3.221048
0.304700	-3.133085
0.304800	-3.088617
0.304900	-2.971767
0.305000	-2.852644
0.305100	-2.818563
0.305200	-2.868874
0.305300	-2.874716
0.305400	-2.931194
0.305500	-2.821484
0.305600	-2.678992
0.305700	-2.713073
0.305800	-2.469636
0.305900	-2.585512
0.306000	-2.605961
0.306100	-2.586161
0.306200	-2.511507
0.306300	-2.443020
0.306400	-2.350514
0.306500	-2.332337
0.306600	-2.351487
0.306700	-2.433931
0.306800	-2.368690
0.306900	-2.442046
0.307000	-2.367392
0.307100	-2.361549
0.307200	-2.260279
0.307300	-2.279430
0.307400	-2.250542
0.307500	-2.319354
0.307600	-2.280079
0.307700	-2.290141
0.307800	-2.071372
0.307900	-1.920766
0.308000	-1.658827
0.308100	-1.965558
0.308200	-2.335258
0.308300	-2.367392
0.308400	-2.114542
0.308500	-1.756851
0.308600	-1.719524
0.308700	-1.806837
0.308800	-2.063257
0.308900	-2.175563
0.309000	-2.058064
0.309100	-1.866236
0.309200	-1.700049
0.309300	-1.757500
0.309400	-1.885386
0.309500	-1.967181
0.309600	-2.042809
0.309700	-2.002560
0.309800	-2.025606
0.309900	-2.042484
0.310000	-2.062284
0.310100	-2.050599
0.310200	-2.116814
0.310300	-2.120384
0.310400	-2.338829
0.310500	-2.289816
0.310600	-2.307344
0.310700	-2.290141
0.310800	-2.139210
0.310900	-2.197959
0.311000	-2.230418
0.311100	-2.639393
0.311200	-2.550457
0.311300	-2.430036
0.311400	-2.184327
0.311500	-2.146351
0.311600	-2.366094
0.311700	-2.680290
0.311800	-2.721188
0.311900	-2.563765
0.312000	-2.388490
0.312100	-2.339153
0.312200	-2.499822
0.312300	-2.642963
0.312400	-2.695546
0.312500	-2.567984
0.312600	-2.567984
0.312700	-2.555001
0.312800	-2.708205
0.312900	-2.784157
0.313000	-2.775718
0.313100	-2.699765
0.313200	-2.640367
0.313300	-2.698143
0.313400	-2.747155
0.313500	-2.695546
0.313600	-2.646858
0.313700	-2.604338
0.313800	-2.644262
0.313900	-2.793246
0.314000	-2.804931
0.314100	-2.721188
0.314200	-2.496901
0.314300	-2.489435
0.314400	-2.586486
0.314500	-2.569283
0.314600	-2.553703
0.314700	-2.542018
0.314800	-2.528710
0.314900	-2.546237
0.315000	-2.549159
0.315100	-2.560519
0.315200	-2.532929
0.315300	-2.514104
0.315400	-2.515727
0.315500	-2.497874
0.315600	-2.463469
0.315700	-2.461521
0.315800	-2.388490
0.315900	-2.445292
0.316000	-2.416729
0.316100	-2.495927
0.316200	-2.659192
0.316300	-2.859136
0.316400	-2.735470
0.316500	-2.334609
0.316600	-2.093444
0.316700	-2.169721
0.316800	-2.453406
0.316900	-2.738391
0.317000	-2.706582
0.317100	-2.473206
0.317200	-2.214838
0.317300	-2.222952
0.317400	-2.385244
0.317500	-2.580968
0.317600	-2.646209
0.317700	-2.586810
0.317800	-2.466065
0.317900	-2.477750
0.318000	-2.520595
0.318100	-2.589082
0.318200	-2.565063
0.318300	-2.539746
0.318400	-2.533903
0.318500	-2.592977
0.318600	-2.634200
0.318700	-2.661140
0.318800	-2.617321
0.318900	-2.628682
0.319000	-2.715345
0.319100	-2.804931
0.319200	-2.834468
0.319300	-2.725408
0.319400	-2.596872
0.319500	-2.621541
0.319600	-2.849723
0.319700	-3.102899
0.319800	-3.262270
0.319900	-3.086345
0.320000	-2.809150
0.320100	-2.759813
0.320200	-3.014612
0.320300	-3.288237
0.320400	-3.456371
0.320500	-3.369383
0.320600	-3.164894
0.320700	-3.067519
0.320800	-3.110364
0.320900	-3.215530
0.321000	-3.242146
0.321100	-3.219425
0.321200	-3.162947
0.321300	-3.132761
0.321400	-3.130489
0.321500	-3.111663
0.321600	-3.000330
0.321700	-2.915938
0.321800	-2.911070
0.321900	-2.972741
0.322000	-3.037008
0.322100	-3.096083
0.322200	-2.951643
0.322300	-2.859461
0.322400	-2.876664
0.322500	-2.748778
0.322600	-2.852320
0.322700	-2.880559
0.322800	-2.822458
0.322900	-2.754296
0.323000	-2.662763
0.323100	-2.650104
0.323200	-2.656271
0.323300	-2.713723
0.323400	-2.750401
0.323500	-2.714696
0.323600	-2.743584
0.323700	-2.720863
0.323800	-2.664710
0.323900	-2.682563
0.324000	-2.630629
0.324100	-2.726381
0.324200	-2.687431
0.324300	-2.808826
0.324400	-2.562791
0.324500	-2.552404
0.324600	-2.083382
0.324700	-2.204776
0.324800	-2.344996
0.324900	-2.982803
0.325000	-2.713398
0.325100	-2.454056
0.325200	-2.079162
0.325300	-2.016517
0.325400	-2.238857
0.325500	-2.433282
0.325600	-2.566362
0.325700	-2.403421
0.325800	-2.138561
0.325900	-2.019114
0.326000	-2.083382
0.326100	-2.181406
0.326200	-2.253463
0.326300	-2.259630
0.326400	-2.173616
0.326500	-2.187573
0.326600	-2.154141
0.326700	-2.206399
0.326800	-2.200881
0.326900	-2.251840
0.327000	-2.209969
0.327100	-2.337530
0.327200	-2.215811
0.327300	-2.278781
0.327400	-2.173940
0.327500	-2.148623
0.327600	-2.175563
0.327700	-2.295010
0.327800	-2.670553
0.327900	-2.526438
0.328000	-2.381998
0.328100	-2.120709
0.328200	-2.275535
0.328300	-2.551755
0.328400	-2.891595
0.328500	-2.843232
0.328600	-2.639068
0.328700	-2.450485
0.328800	-2.503392
0.328900	-2.779288
0.329000	-2.964301
0.329100	-2.951643
0.329200	-2.839012
0.329300	-2.801036
0.329400	-2.869523
0.329500	-3.010068
0.329600	-3.086994
0.329700	-3.070765
0.329800	-2.961380
0.329900	-2.970793
0.330000	-3.040254
0.330100	-3.069791
0.330200	-3.027595
0.330300	-3.013314
0.330400	-3.023700
0.330500	-3.136656
0.330600	-3.326213
0.330700	-3.340819
0.330800	-3.267463
0.330900	-3.089915
0.331000	-3.190861
0.331100	-3.251234
0.331200	-3.248313
0.331300	-3.276227
0.331400	-3.278824
0.331500	-3.279797
0.331600	-3.308685
0.331700	-3.315502
0.331800	-3.313230
0.331900	-3.314853
0.332000	-3.339196
0.332100	-3.343416
0.332200	-3.334977
0.332300	-3.333029
0.332400	-3.308685
0.332500	-3.314853
0.332600	-3.278824
0.332700	-3.373927
0.332800	-3.377173
0.332900	-3.680984
0.333000	-3.758885
0.333100	-3.599189
0.333200	-3.235654
0.333300	-3.062650
0.333400	-3.270709
0.333500	-3.598540
0.333600	-3.801730
0.333700	-3.667352
0.333800	-3.394051
0.333900	-3.184370
0.334000	-3.247014
0.334100	-3.477794
0.334200	-3.678712
0.334300	-3.672870
0.334400	-3.559265
0.334500	-3.472276
0.334600	-3.456371
0.334700	-3.479417
0.334800	-3.535895
0.334900	-3.544009
0.335000	-3.575170
0.335100	-3.517718
0.335200	-3.552449
0.335300	-3.591723
0.335400	-3.633595
0.335500	-3.530377
0.335600	-3.555695
0.335700	-3.554072
0.335800	-3.579714
0.335900	-3.531026
0.336000	-3.392104
0.336100	-3.245391
0.336200	-3.292132
0.336300	-3.482987
0.336400	-3.662483
0.336500	-3.671247
0.336600	-3.372953
0.336700	-3.120751
0.336800	-3.110689
0.336900	-3.328485
0.337000	-3.588153
0.337100	-3.686827
0.337200	-3.512200
0.337300	-3.282394
0.337400	-3.225267
0.337500	-3.295377
0.337600	-3.388858
0.337700	-3.419693
0.337800	-3.403140
0.337900	-3.389507
0.338000	-3.330108
0.338100	-3.325239
0.338200	-3.285315
0.338300	-3.148016
0.338400	-3.112312
0.338500	-3.175930
0.338600	-3.255778
0.338700	-3.329459
0.338800	-3.340495
0.338900	-3.210985
0.339000	-3.265516
0.339100	-3.163921
0.339200	-3.242146
0.339300	-3.320370
0.339400	-3.360944
0.339500	-3.325564
0.339600	-3.289860
0.339700	-3.163596
0.339800	-3.184694
0.339900	-3.259998
0.340000	-3.332056
0.340100	-3.373927
0.340200	-3.369058
0.340300	-3.357373
0.340400	-3.367760
0.340500	-3.237601
0.340600	-3.334652
0.340700	-3.253831
0.340800	-3.333678
0.340900	-3.296351
0.341000	-3.276227
0.341100	-3.270384
0.341200	-2.986373
0.341300	-2.922430
0.341400	-2.803308
0.341500	-3.467083
0.341600	-3.605031
0.341700	-3.402815
0.341800	-3.061677
0.341900	-2.858162
0.342000	-2.870497
0.342100	-3.125620
0.342200	-3.394700
0.342300	-3.383340
0.342400	-3.210661
0.342500	-3.064922
0.342600	-2.914965
0.342700	-3.083099
0.342800	-3.058106
0.342900	-3.169114
0.343000	-3.127567
0.343100	-3.129190
0.343200	-3.094784
0.343300	-3.085047
0.343400	-3.096407
0.343500	-3.061352
0.343600	-3.099978
0.343700	-3.187615
0.343800	-3.157754
0.343900	-3.171711
0.344000	-3.107443
0.344100	-3.028569
0.344200	-2.962678
0.344300	-2.932817
0.344400	-3.256427
0.344500	-3.333029
0.344600	-3.207090
0.344700	-3.000006
0.344800	-2.757866
0.344900	-3.002278
0.345000	-3.267788
0.345100	-3.482663
0.345200	-3.318423
0.345300	-3.125944
0.345400	-2.963652
0.345500	-3.065247
0.345600	-3.246690
0.345700	-3.329783
0.345800	-3.227215
0.345900	-3.180150
0.346000	-3.117830
0.346100	-3.214231
0.346200	-3.267463
0.346300	-3.294404
0.346400	-3.281745
0.346500	-3.207415
0.346600	-3.214880
0.346700	-3.242146
0.346800	-3.194756
0.346900	-3.116207
0.347000	-3.137629
0.347100	-3.148665
0.347200	-3.264542
0.347300	-3.331082
0.347400	-3.263893
0.347500	-3.107768
0.347600	-3.019156
0.347700	-3.118803
0.347800	-3.128216
0.347900	-3.097381
0.348000	-3.086994
0.348100	-3.097706
0.348200	-3.094135
0.348300	-3.103548
0.348400	-3.113935
0.348500	-3.124321
0.348600	-3.146718
0.348700	-3.158078
0.348800	-3.135682
0.348900	-3.130813
0.349000	-3.135033
0.349100	-3.175930
0.349200	-3.151911
0.349300	-3.170737
0.349400	-3.170412
0.349500	-3.291807
0.349600	-3.594645
0.349700	-3.598215
0.349800	-3.305764
0.349900	-3.016235
0.350000	-2.963652
0.350100	-3.238251
0.350200	-3.541413
0.350300	-3.668326
0.350400	-3.470329
0.350500	-3.232408
0.350600	-3.151587
0.350700	-3.288886
0.350800	-3.513823
0.350900	-3.582960
0.351000	-3.557317
0.351100	-3.447608
0.351200	-3.408982
0.351300	-3.403464
0.351400	-3.470653
0.351500	-3.530377
0.351600	-3.544009
0.351700	-3.476171
0.351800	-3.471952
0.351900	-3.549527
0.352000	-3.605031
0.352100	-3.604707
0.352200	-3.589127
0.352300	-3.578415
0.352400	-3.647877
0.352500	-3.645929
0.352600	-3.614769
0.352700	-3.439493
0.352800	-3.404438
0.352900	-3.573222
0.353000	-3.782255
0.353100	-3.962725
0.353200	-3.863077
0.353300	-3.575170
0.353400	-3.372953
0.353500	-3.489155
0.353600	-3.755314
0.353700	-3.965970
0.353800	-3.953312
0.353900	-3.772517
0.354000	-3.600163
0.354100	-3.611848
0.354200	-3.688125
0.354300	-3.760183
0.354400	-3.742980
0.354500	-3.659237
0.354600	-3.637815
0.354700	-3.601461
0.354800	-3.596592
0.354900	-3.515771
0.355000	-3.375874
0.355100	-3.347311
0.355200	-3.402490
0.355300	-3.457670
0.355400	-3.531026
0.355500	-3.445660
0.355600	-3.358671
0.355700	-3.428457
0.355800	-3.227215
0.355900	-3.370032
0.356000	-3.443064
0.356100	-3.455722
0.356200	-3.423264
0.356300	-3.379769
0.356400	-3.326538
0.356500	-3.370032
0.356600	-3.444362
0.356700	-3.556344
0.356800	-3.554072
0.356900	-3.599513
0.357000	-3.568029
0.357100	-3.588802
0.357200	-3.533623
0.357300	-3.606330
0.357400	-3.571275
0.357500	-3.664431
0.357600	-3.651123
0.357700	-3.642359
0.357800	-3.473250
0.357900	-3.192160
0.358000	-3.023051
0.358100	-3.293755
0.358200	-3.806599
0.358300	-3.874113
0.358400	-3.577442
0.358500	-3.232083
0.358600	-3.069142
0.358700	-3.276227
0.358800	-3.463188
0.358900	-3.711171
0.359000	-3.544334
0.359100	-3.351531
0.359200	-3.174307
0.359300	-3.144446
0.359400	-3.211310
0.359500	-3.331731
0.359600	-3.338547
0.359700	-3.291482
0.359800	-3.243444
0.359900	-3.220398
0.360000	-3.245716
0.360100	-3.218775
0.360200	-3.239549
0.360300	-3.252532
0.360400	-3.395025
0.360500	-3.270709
0.360600	-3.390156
0.360700	-3.353803
0.360800	-3.211635
0.360900	-3.235978
0.361000	-3.218775
0.361100	-3.569976
0.361200	-3.502463
0.361300	-3.369383
0.361400	-3.052913
0.361500	-3.018832
0.361600	-3.152560
0.361700	-3.506033
0.361800	-3.520964
0.361900	-3.309984
0.362000	-3.068818
0.362100	-2.989944
0.362200	-3.114259
0.362300	-3.215205
0.362400	-3.263568
0.362500	-3.127892
0.362600	-3.119453
0.362700	-3.012664
0.362800	-3.054211
0.362900	-3.055185
0.363000	-3.040579
0.363100	-3.012340
0.363200	-2.939958
0.363300	-2.940931
0.363400	-2.923728
0.363500	-2.871146
0.363600	-2.819861
0.363700	-2.792596
0.363800	-2.832196
0.363900	-3.023376
0.364000	-3.025323
0.364100	-2.985075
0.364200	-2.780911
0.364300	-2.837064
0.364400	-2.959757
0.364500	-2.979232
0.364600	-2.987347
0.364700	-3.017858
0.364800	-3.037333
0.364900	-3.070116
0.365000	-3.116207
0.365100	-3.130489
0.365200	-3.144121
0.365300	-3.203845
0.365400	-3.235005
0.365500	-3.265840
0.365600	-3.274279
0.365700	-3.330108
0.365800	-3.353478
0.365900	-3.425861
0.366000	-3.472925
0.366100	-3.531026
0.366200	-3.787448
0.366300	-4.002649
0.366400	-3.963698
0.366500	-3.623857
0.366600	-3.481365
0.366700	-3.558291
0.366800	-3.849769
0.366900	-4.141247
0.367000	-4.128263
0.367100	-3.889693
0.367200	-3.647228
0.367300	-3.634244
0.367400	-3.764078
0.367500	-3.940004
0.367600	-3.999727
0.367700	-3.873139
0.367800	-3.742656
0.367900	-3.713767
0.368000	-3.702732
0.368100	-3.734541
0.368200	-3.719610
0.368300	-3.714092
0.368400	-3.702732
0.368500	-3.691696
0.368600	-3.712145
0.368700	-3.680660
0.368800	-3.717013
0.368900	-3.669624
0.369000	-3.701433
0.369100	-3.732918
0.369200	-3.703381
0.369300	-3.584583
0.369400	-3.448581
0.369500	-3.416123
0.369600	-3.629051
0.369700	-3.905273
0.369800	-3.965321
0.369900	-3.796537
0.370000	-3.499866
0.370100	-3.433651
0.370200	-3.640411
0.370300	-3.992586
0.370400	-4.126640
0.370500	-4.017580
0.370600	-3.854962
0.370700	-3.759209
0.370800	-3.824451
0.370900	-3.864375
0.371000	-3.919555
0.371100	-3.914361
0.371200	-3.895860
0.371300	-3.865024
0.371400	-3.828671
0.371500	-3.762455
0.371600	-3.645929
0.371700	-3.523885
0.371800	-3.543685
0.371900	-3.582960
0.372000	-3.610874
0.372100	-3.613146
0.372200	-3.430080
0.372300	-3.352504
0.372400	-3.312580
0.372500	-3.166517
0.372600	-3.231110
0.372700	-3.263893
0.372800	-3.210336
0.372900	-3.163272
0.373000	-3.095758
0.373100	-3.052588
0.373200	-3.117830
0.373300	-3.148990
0.373400	-3.205468
0.373500	-3.203195
0.373600	-3.287912
0.373700	-3.336924
0.373800	-3.242470
0.373900	-3.356724
0.374000	-3.230785
0.374100	-3.404113
0.374200	-3.347311
0.374300	-3.478443
0.374400	-3.424238
0.374500	-3.265840
0.374600	-3.010068
0.374700	-3.017209
0.374800	-3.460591
0.374900	-3.876709
0.375000	-3.841330
0.375100	-3.519666
0.375200	-3.194107
0.375300	-3.259024
0.375400	-3.345688
0.375500	-3.625805
0.375600	-3.726426
0.375700	-3.599513
0.375800	-3.374576
0.375900	-3.238900
0.376000	-3.311931
0.376100	-3.413526
0.376200	-3.481040
0.376300	-3.427159
0.376400	-3.364514
0.376500	-3.347636
0.376600	-3.312580
0.376700	-3.302194
0.376800	-3.209038
0.376900	-3.289535
0.377000	-3.270709
0.377100	-3.380419
0.377200	-3.333354
0.377300	-3.369058
0.377400	-3.268437
0.377500	-3.216179
0.377600	-3.291158
0.377700	-3.438519
0.377800	-3.756613
0.377900	-3.697214
0.378000	-3.476171
0.378100	-3.274929
0.378200	-3.306738
0.378300	-3.591723
0.378400	-3.845549
0.378500	-3.804002
0.378600	-3.576793
0.378700	-3.386261
0.378800	-3.427808
0.378900	-3.623208
0.379000	-3.693643
0.379100	-3.649824
0.379200	-3.619638
0.379300	-3.570301
0.379400	-3.601461
0.379500	-3.655991
0.379600	-3.669299
0.379700	-3.586530
0.379800	-3.506682
0.379900	-3.518043
0.380000	-3.553747
0.380100	-3.572573
0.380200	-3.522262
0.380300	-3.494997
0.380400	-3.450204
0.380500	-3.525508
0.380600	-3.668975
0.380700	-3.633595
0.380800	-3.600163
0.380900	-3.530377
0.381000	-3.398595
0.381100	-3.451178
0.381200	-3.429431
0.381300	-3.407035
0.381400	-3.394700
0.381500	-3.396972
0.381600	-3.406061
0.381700	-3.418395
0.381800	-3.434624
0.381900	-3.425536
0.382000	-3.461565
0.382100	-3.490128
0.382200	-3.494023
0.382300	-3.503761
0.382400	-3.531026
0.382500	-3.548229
0.382600	-3.629700
0.382700	-3.668975
0.382800	-3.699810
0.382900	-4.000377
0.383000	-4.064969
0.383100	-3.881578
0.383200	-3.474873
0.383300	-3.402490
0.383400	-3.525184
0.383500	-3.940328
0.383600	-4.148712
0.383700	-4.082172
0.383800	-3.800756
0.383900	-3.616717
0.384000	-3.644306
0.384100	-3.882227
0.384200	-4.002973
0.384300	-4.017580
0.384400	-3.888394
0.384500	-3.803353
0.384600	-3.790370
0.384700	-3.851716
0.384800	-3.886122
0.384900	-3.859182
0.385000	-3.811792
0.385100	-3.770570
0.385200	-3.812766
0.385300	-3.899106
0.385400	-3.831267
0.385500	-3.778360
0.385600	-3.732593
0.385700	-3.784527
0.385800	-3.819258
0.385900	-3.797511
0.386000	-3.667676
0.386100	-3.538491
0.386200	-3.642683
0.386300	-3.822828
0.386400	-4.039327
0.386500	-4.070163
0.386600	-3.837110
0.386700	-3.567055
0.386800	-3.590425
0.386900	-3.823477
0.387000	-4.032186
0.387100	-4.098726
0.387200	-3.946495
0.387300	-3.758560
0.387400	-3.669624
0.387500	-3.742006
0.387600	-3.841330
0.387700	-3.872490
0.387800	-3.834189
0.387900	-3.776088
0.388000	-3.730646
0.388100	-3.750770
0.388200	-3.722531
0.388300	-3.621261
0.388400	-3.518043
0.388500	-3.516744
0.388600	-3.582960
0.388700	-3.656640
0.388800	-3.626454
0.388900	-3.476171
0.389000	-3.447932
0.389100	-3.253831
0.389200	-3.341468
0.389300	-3.401192
0.389400	-3.395674
0.389500	-3.329459
0.389600	-3.258050
0.389700	-3.146718
0.389800	-3.132436
0.389900	-3.143147
0.390000	-3.212608
0.390100	-3.239549
0.390200	-3.210012
0.390300	-3.227539
0.390400	-3.184370
0.390500	-3.088617
0.390600	-3.180475
0.390700	-3.114584
0.390800	-3.261945
0.390900	-3.203845
0.391000	-3.260322
0.391100	-3.069142
0.391200	-2.900683
0.391300	-2.571230
0.391400	-2.765331
0.391500	-3.182422
0.391600	-3.541413
0.391700	-3.261621
0.391800	-2.919833
0.391900	-2.727680
0.392000	-2.725732
0.392100	-2.971118
0.392200	-3.247988
0.392300	-3.222995
0.392400	-3.060703
0.392500	-2.792596
0.392600	-2.784482
0.392700	-2.803632
0.392800	-3.016235
0.392900	-3.092188
0.393000	-3.119777
0.393100	-3.057132
0.393200	-3.048369
0.393300	-3.084398
0.393400	-3.132761
0.393500	-3.112961
0.393600	-3.222346
0.393700	-3.355750
0.393800	-3.362242
0.393900	-3.363865
0.394000	-3.395350
0.394100	-3.270709
0.394200	-3.266489
0.394300	-3.233382
0.394400	-3.480715
0.394500	-3.654693
0.394600	-3.499217
0.394700	-3.278824
0.394800	-3.106794
0.394900	-3.205792
0.395000	-3.473899
0.395100	-3.678063
0.395200	-3.535570
0.395300	-3.359645
0.395400	-3.187940
0.395500	-3.274929
0.395600	-3.448257
0.395700	-3.548229
0.395800	-3.474873
0.395900	-3.435598
0.396000	-3.407684
0.396100	-3.494673
0.396200	-3.579714
0.396300	-3.579389
0.396400	-3.533623
0.396500	-3.497918
0.396600	-3.605681
0.396700	-3.652421
0.396800	-3.669948
0.396900	-3.654044
0.397000	-3.641385
0.397100	-3.667027
0.397200	-3.803678
0.397300	-3.869569
0.397400	-3.818933
0.397500	-3.785825
0.397600	-3.746875
0.397700	-3.706302
0.397800	-3.709548
0.397900	-3.691047
0.398000	-3.671247
0.398100	-3.677414
0.398200	-3.700459
0.398300	-3.701109
0.398400	-3.707600
0.398500	-3.697214
0.398600	-3.741357
0.398700	-3.764727
0.398800	-3.775114
0.398900	-3.782904
0.399000	-3.783878
0.399100	-3.824451
0.399200	-3.844251
0.399300	-3.870867
0.399400	-3.880280
0.399500	-4.007193
0.399600	-4.271731
0.399700	-4.304189
0.399800	-4.056205
0.399900	-3.675791
0.400000	-3.645605
0.400100	-3.827048
0.400200	-4.228236
0.400300	-4.333727
0.400400	-4.144168
0.400500	-3.873139
0.400600	-3.758236
0.400700	-3.874762
0.400800	-4.075356
0.400900	-4.169486
0.401000	-4.153581
0.401100	-4.018878
0.401200	-4.000377
0.401300	-3.969541
0.401400	-4.010439
0.401500	-4.015308
0.401600	-4.018229
0.401700	-3.999078
0.401800	-3.998754
0.401900	-4.072435
0.402000	-4.074382
0.402100	-4.083471
0.402200	-4.050038
0.402300	-4.067241
0.402400	-4.122421
0.402500	-4.115605
0.402600	-4.108464
0.402700	-3.892614
0.402800	-3.839382
0.402900	-3.927669
0.403000	-4.128588
0.403100	-4.288284
0.403200	-4.243816
0.403300	-3.974410
0.403400	-3.780632
0.403500	-3.929292
0.403600	-4.186689
0.403700	-4.414224
0.403800	-4.392801
0.403900	-4.264265
0.404000	-4.135404
0.404100	-4.164617
0.404200	-4.262642
0.404300	-4.375274
0.404400	-4.386959
0.404500	-4.336323
0.404600	-4.311330
0.404700	-4.276924
0.404800	-4.276275
0.404900	-4.219472
0.405000	-4.067241
0.405100	-3.983823
0.405200	-4.005245
0.405300	-4.013035
0.405400	-4.018229
0.405500	-3.892290
0.405600	-3.758885
0.405700	-3.707925
0.405800	-3.566730
0.405900	-3.674493
0.406000	-3.689099
0.406100	-3.695591
0.406200	-3.651447
0.406300	-3.604707
0.406400	-3.571924
0.406500	-3.592697
0.406600	-3.687801
0.406700	-3.745577
0.406800	-3.753042
0.406900	-3.817635
0.407000	-3.801081
0.407100	-3.807248
0.407200	-3.795563
0.407300	-3.806599
0.407400	-3.865349
0.407500	-3.804651
0.407600	-4.011737
0.407700	-3.806274
0.407800	-3.935459
0.407900	-3.455398
0.408000	-3.547255
0.408100	-3.556668
0.408200	-4.187014
0.408300	-4.291855
0.408400	-3.951040
0.408500	-3.733892
0.408600	-3.491427
0.408700	-3.729997
0.408800	-3.872165
0.408900	-3.982849
0.409000	-3.885473
0.409100	-3.617041
0.409200	-3.488830
0.409300	-3.424238
0.409400	-3.511226
0.409500	-3.497594
0.409600	-3.400218
0.409700	-3.355101
0.409800	-3.217802
0.409900	-3.180475
0.410000	-3.105496
0.410100	-3.113286
0.410200	-3.014287
0.410300	-3.079204
0.410400	-3.275253
0.410500	-3.060054
0.410600	-3.189563
0.410700	-3.014612
0.410800	-3.038956
0.410900	-2.965924
0.411000	-3.066870
0.411100	-3.359321
0.411200	-3.318423
0.411300	-3.160675
0.411400	-2.905227
0.411500	-2.808176
0.411600	-3.008120
0.411700	-3.294728
0.411800	-3.360294
0.411900	-3.153859
0.412000	-2.949371
0.412100	-2.875690
0.412200	-3.023051
0.412300	-3.220398
0.412400	-3.232733
0.412500	-3.154832
0.412600	-3.134059
0.412700	-3.104846
0.412800	-3.214231
0.412900	-3.262919
0.413000	-3.248962
0.413100	-3.203520
0.413200	-3.167167
0.413300	-3.230136
0.413400	-3.231759
0.413500	-3.211959
0.413600	-3.187615
0.413700	-3.187291
0.413800	-3.216503
0.413900	-3.354127
0.414000	-3.342118
0.414100	-3.297974
0.414200	-3.220398
0.414300	-3.109715
0.414400	-3.151262
0.414500	-3.138928
0.414600	-3.136006
0.414700	-3.152236
0.414800	-3.170088
0.414900	-3.194756
0.415000	-3.241821
0.415100	-3.275578
0.415200	-3.328810
0.415300	-3.355750
0.415400	-3.388209
0.415500	-3.404438
0.415600	-3.437870
0.415700	-3.498243
0.415800	-3.511876
0.415900	-3.594645
0.416000	-3.630998
0.416100	-3.685853
0.416200	-3.866323
0.416300	-4.055232
0.416400	-4.060750
0.416500	-3.628077
0.416600	-3.442739
0.416700	-3.516744
0.416800	-3.810819
0.416900	-4.137352
0.417000	-4.074058
0.417100	-3.853339
0.417200	-3.581012
0.417300	-3.592048
0.417400	-3.760183
0.417500	-3.942276
0.417600	-3.989990
0.417700	-3.868595
0.417800	-3.777386
0.417900	-3.740708
0.418000	-3.826074
0.418100	-3.924099
0.418200	-3.940977
0.418300	-3.968567
0.418400	-3.927020
0.418500	-3.978305
0.418600	-4.092234
0.418700	-4.191233
0.418800	-4.160073
0.418900	-4.124044
0.419000	-4.132158
0.419100	-4.215577
0.419200	-4.281468
0.419300	-4.246088
0.419400	-4.150011
0.419500	-4.155204
0.419600	-4.346385
0.419700	-4.602484
0.419800	-4.747250
0.419900	-4.547954
0.420000	-4.240246
0.420100	-4.144493
0.420200	-4.310356
0.420300	-4.574245
0.420400	-4.705378
0.420500	-4.589176
0.420600	-4.351579
0.420700	-4.212980
0.420800	-4.243492
0.420900	-4.354175
0.421000	-4.424286
0.421100	-4.389231
0.421200	-4.344113
0.421300	-4.289907
0.421400	-4.273353
0.421500	-4.212656
0.421600	-4.141247
0.421700	-3.986744
0.421800	-3.976682
0.421900	-4.029914
0.422000	-4.064645
0.422100	-4.081198
0.422200	-3.931889
0.422300	-3.848470
0.422400	-3.683581
0.422500	-3.721558
0.422600	-3.840680
0.422700	-3.892939
0.422800	-3.888070
0.422900	-3.822828
0.423000	-3.731295
0.423100	-3.748174
0.423200	-3.792642
0.423300	-3.900729
0.423400	-3.925722
0.423500	-3.909493
0.423600	-3.944223
0.423700	-3.869893
0.423800	-3.878332
0.423900	-3.791343
0.424000	-3.863726
0.424100	-3.788747
0.424200	-3.951364
0.424300	-3.857234
0.424400	-3.856585
0.424500	-3.600812
0.424600	-3.385937
0.424700	-3.245391
0.424800	-3.678388
0.424900	-4.072435
0.425000	-3.941951
0.425100	-3.653070
0.425200	-3.208713
0.425300	-3.203195
0.425400	-3.268762
0.425500	-3.441116
0.425600	-3.579389
0.425700	-3.227215
0.425800	-3.059729
0.425900	-2.821809
0.426000	-2.936712
0.426100	-2.985075
0.426200	-3.137954
0.426300	-3.075634
0.426400	-3.065896
0.426500	-3.039930
0.426600	-3.088293
0.426700	-3.120426
0.426800	-3.166842
0.426900	-3.206441
0.427000	-3.358996
0.427100	-3.431378
0.427200	-3.406385
0.427300	-3.421316
0.427400	-3.365163
0.427500	-3.316800
0.427600	-3.358347
0.427700	-3.464162
0.427800	-3.825749
0.427900	-3.685204
0.428000	-3.522262
0.428100	-3.257726
0.428200	-3.354776
0.428300	-3.625480
0.428400	-3.902676
0.428500	-3.889044
0.428600	-3.734541
0.428700	-3.509603
0.428800	-3.512200
0.428900	-3.769272
0.429000	-3.899430
0.429100	-3.894886
0.429200	-3.828995
0.429300	-3.739410
0.429400	-3.745252
0.429500	-3.792642
0.429600	-3.837110
0.429700	-3.810494
0.429800	-3.729997
0.429900	-3.715066
0.430000	-3.742656
0.430100	-3.735190
0.430200	-3.689424
0.430300	-3.641385
0.430400	-3.635867
0.430500	-3.689424
0.430600	-3.846198
0.430700	-3.816986
0.430800	-3.787773
0.430900	-3.737787
0.431000	-3.652096
0.431100	-3.722207
0.431200	-3.718636
0.431300	-3.736488
0.431400	-3.763429
0.431500	-3.753367
0.431600	-3.767649
0.431700	-3.766999
0.431800	-3.783878
0.431900	-3.793615
0.432000	-3.774140
0.432100	-3.736813
0.432200	-3.758560
0.432300	-3.726102
0.432400	-3.754990
0.432500	-3.685204
0.432600	-3.731944
0.432700	-3.727400
0.432800	-3.795563
0.432900	-4.044845
0.433000	-4.169486
0.433100	-3.941302
0.433200	-3.539790
0.433300	-3.398595
0.433400	-3.553098
0.433500	-3.938705
0.433600	-4.140273
0.433700	-4.099700
0.433800	-3.858857
0.433900	-3.660860
0.434000	-3.701433
0.434100	-3.866647
0.434200	-4.014009
0.434300	-4.033809
0.434400	-3.935784
0.434500	-3.826399
0.434600	-3.767973
0.434700	-3.811468
0.434800	-3.864051
0.434900	-3.854638
0.435000	-3.854962
0.435100	-3.851716
0.435200	-3.869244
0.435300	-3.951689
0.435400	-3.911115
0.435500	-3.942600
0.435600	-3.953312
0.435700	-4.025370
0.435800	-4.052959
0.435900	-4.046468
0.436000	-3.932214
0.436100	-3.776088
0.436200	-3.878657
0.436300	-4.069189
0.436400	-4.272055
0.436500	-4.298022
0.436600	-4.024396
0.436700	-3.726102
0.436800	-3.701758
0.436900	-3.882877
0.437000	-4.118201
0.437100	-4.154230
0.437200	-4.019852
0.437300	-3.828346
0.437400	-3.741682
0.437500	-3.768622
0.437600	-3.854313
0.437700	-3.884499
0.437800	-3.848470
0.437900	-3.794914
0.438000	-3.748174
0.438100	-3.715715
0.438200	-3.660536
0.438300	-3.566406
0.438400	-3.448257
0.438500	-3.425861
0.438600	-3.450854
0.438700	-3.472601
0.438800	-3.448581
0.438900	-3.269086
0.439000	-3.218126
0.439100	-3.035710
0.439200	-3.146069
0.439300	-3.221372
0.439400	-3.240847
0.439500	-3.223320
0.439600	-3.163596
0.439700	-3.105171
0.439800	-3.098030
0.439900	-3.165219
0.440000	-3.257401
0.440100	-3.321993
0.440200	-3.317774
0.440300	-3.379445
0.440400	-3.365488
0.440500	-3.333029
0.440600	-3.359970
0.440700	-3.372629
0.440800	-3.435273
0.440900	-3.489155
0.441000	-3.496945
0.441100	-3.440142
0.441200	-3.188265
0.441300	-3.043500
0.441400	-3.074011
0.441500	-3.642359
0.441600	-3.956233
0.441700	-3.727075
0.441800	-3.373602
0.441900	-3.177553
0.442000	-3.161649
0.442100	-3.463512
0.442200	-3.697538
0.442300	-3.778685
0.442400	-3.553747
0.442500	-3.423913
0.442600	-3.379445
0.442700	-3.390481
0.442800	-3.560563
0.442900	-3.580688
0.443000	-3.567055
0.443100	-3.489804
0.443200	-3.497594
0.443300	-3.490778
0.443400	-3.508305
0.443500	-3.450854
0.443600	-3.473250
0.443700	-3.668975
0.443800	-3.596917
0.443900	-3.636841
0.444000	-3.586530
0.444100	-3.484610
0.444200	-3.374901
0.444300	-3.380094
0.444400	-3.624182
0.444500	-3.759209
0.444600	-3.665404
0.444700	-3.433326
0.444800	-3.175930
0.444900	-3.331406
0.445000	-3.608926
0.445100	-3.849444
0.445200	-3.759859
0.445300	-3.585232
0.445400	-3.414825
0.445500	-3.489155
0.445600	-3.679686
0.445700	-3.778685
0.445800	-3.742656
0.445900	-3.719610
0.446000	-3.651123
0.446100	-3.719935
0.446200	-3.777711
0.446300	-3.840680
0.446400	-3.778360
0.446500	-3.750446
0.446600	-3.803353
0.446700	-3.852041
0.446800	-3.885149
0.446900	-3.830294
0.447000	-3.795888
0.447100	-3.766999
0.447200	-3.898781
0.447300	-3.976033
0.447400	-3.910142
0.447500	-3.865998
0.447600	-3.742980
0.447700	-3.747849
0.447800	-3.778035
0.447900	-3.790045
0.448000	-3.800107
0.448100	-3.816336
0.448200	-3.868595
0.448300	-3.904299
0.448400	-3.945846
0.448500	-3.958830
0.448600	-4.006544
0.448700	-4.046143
0.448800	-4.065943
0.448900	-4.086392
0.449000	-4.077953
0.449100	-4.105867
0.449200	-4.110736
0.449300	-4.114631
0.449400	-4.138975
0.449500	-4.246737
0.449600	-4.482063
0.449700	-4.496344
0.449800	-4.264914
0.449900	-3.911765
0.450000	-3.847172
0.450100	-4.150335
0.450200	-4.476869
0.450300	-4.637215
0.450400	-4.449279
0.450500	-4.179548
0.450600	-4.064320
0.450700	-4.181496
0.450800	-4.389231
0.450900	-4.507705
0.451000	-4.464860
0.451100	-4.361641
0.451200	-4.266862
0.451300	-4.279196
0.451400	-4.341192
0.451500	-4.360992
0.451600	-4.388257
0.451700	-4.313927
0.451800	-4.335025
0.451900	-4.366185
0.452000	-4.403188
0.452100	-4.384362
0.452200	-4.291855
0.452300	-4.235377
0.452400	-4.193505
0.452500	-4.155853
0.452600	-4.101647
0.452700	-3.963374
0.452800	-3.845874
0.452900	-3.971488
0.453000	-4.172407
0.453100	-4.309383
0.453200	-4.278547
0.453300	-3.989341
0.453400	-3.760832
0.453500	-3.828995
0.453600	-4.062372
0.453700	-4.231806
0.453800	-4.199023
0.453900	-4.027642
0.454000	-3.825749
0.454100	-3.731620
0.454200	-3.749472
0.454300	-3.814714
0.454400	-3.813740
0.454500	-3.779983
0.454600	-3.711171
0.454700	-3.644955
0.454800	-3.632946
0.454900	-3.586530
0.455000	-3.477470
0.455100	-3.408333
0.455200	-3.438195
0.455300	-3.484610
0.455400	-3.518692
0.455500	-3.460916
0.455600	-3.320695
0.455700	-3.284991
0.455800	-3.187291
0.455900	-3.316800
0.456000	-3.396648
0.456100	-3.416448
0.456200	-3.412228
0.456300	-3.397622
0.456400	-3.358996
0.456500	-3.395025
0.456600	-3.472276
0.456700	-3.568029
0.456800	-3.635218
0.456900	-3.661509
0.457000	-3.746226
0.457100	-3.710197
0.457200	-3.723830
0.457300	-3.763429
0.457400	-3.838408
0.457500	-3.885473
0.457600	-3.991288
0.457700	-3.901702
0.457800	-3.896185
0.457900	-3.523561
0.458000	-3.466434
0.458100	-3.600487
0.458200	-4.148388
0.458300	-4.220770
0.458400	-3.922151
0.458500	-3.547580
0.458600	-3.358022
0.458700	-3.346662
0.458800	-3.605681
0.458900	-3.683581
0.459000	-3.664755
0.459100	-3.410605
0.459200	-3.312580
0.459300	-3.213258
0.459400	-3.244093
0.459500	-3.309659
0.459600	-3.268762
0.459700	-3.297000
0.459800	-3.250909
0.459900	-3.228513
0.460000	-3.187615
0.460100	-3.141849
0.460200	-3.086994
0.460300	-3.212933
0.460400	-3.286289
0.460500	-3.202871
0.460600	-3.221697
0.460700	-3.129190
0.460800	-3.049992
0.460900	-2.971442
0.461000	-3.051615
0.461100	-3.293755
0.461200	-3.291158
0.461300	-3.036684
0.461400	-2.760138
0.461500	-2.667632
0.461600	-2.819537
0.461700	-3.076283
0.461800	-3.168140
0.461900	-2.953915
0.462000	-2.742611
0.462100	-2.663412
0.462200	-2.814344
0.462300	-2.996435
0.462400	-3.002602
0.462500	-2.920158
0.462600	-2.874067
0.462700	-2.811747
0.462800	-2.921132
0.462900	-2.945800
0.463000	-2.906850
0.463100	-2.790974
0.463200	-2.762086
0.463300	-2.817265
0.463400	-2.844205
0.463500	-2.829924
0.463600	-2.782859
0.463700	-2.773121
0.463800	-2.832845
0.463900	-2.975013
0.464000	-3.019156
0.464100	-2.965275
0.464200	-2.954888
0.464300	-2.830897
0.464400	-2.897762
0.464500	-2.904578
0.464600	-2.892893
0.464700	-2.872120
0.464800	-2.884778
0.464900	-2.854917
0.465000	-2.841609
0.465100	-2.810773
0.465200	-2.795518
0.465300	-2.821484
0.465400	-2.819861
0.465500	-2.834143
0.465600	-2.836091
0.465700	-2.887050
0.465800	-2.903929
0.465900	-2.961705
0.466000	-3.038307
0.466100	-3.112961
0.466200	-3.358347
0.466300	-3.682932
0.466400	-3.647552
0.466500	-3.427483
0.466600	-3.290184
0.466700	-3.457345
0.466800	-3.832241
0.466900	-4.166240
0.467000	-4.224341
0.467100	-4.038678
0.467200	-3.859831
0.467300	-3.859831
0.467400	-4.017255
0.467500	-4.255826
0.467600	-4.329507
0.467700	-4.327884
0.467800	-4.247387
0.467900	-4.198049
0.468000	-4.274652
0.468100	-4.348658
0.468200	-4.339569
0.468300	-4.342490
0.468400	-4.337622
0.468500	-4.365211
0.468600	-4.422014
0.468700	-4.518741
0.468800	-4.442138
0.468900	-4.452525
0.469000	-4.439217
0.469100	-4.545682
0.469200	-4.567429
0.469300	-4.510626
0.469400	-4.244790
0.469500	-4.255501
0.469600	-4.474922
0.469700	-4.750172
0.469800	-4.805351
0.469900	-4.655392
0.470000	-4.324963
0.470100	-4.206164
0.470200	-4.384362
0.470300	-4.664156
0.470400	-4.777112
0.470500	-4.611248
0.470600	-4.380142
0.470700	-4.234728
0.470800	-4.276275
0.470900	-4.323664
0.471000	-4.387283
0.471100	-4.300943
0.471200	-4.219148
0.471300	-4.226938
0.471400	-4.228885
0.471500	-4.216226
0.471600	-4.125018
0.471700	-3.979278
0.471800	-3.958505
0.471900	-3.999078
0.472000	-4.073084
0.472100	-4.100024
0.472200	-3.953636
0.472300	-3.878657
0.472400	-3.688774
0.472500	-3.732918
0.472600	-3.836785
0.472700	-3.864051
0.472800	-3.808222
0.472900	-3.712145
0.473000	-3.638464
0.473100	-3.604707
0.473200	-3.683906
0.473300	-3.725777
0.473400	-3.792642
0.473500	-3.724154
0.473600	-3.852041
0.473700	-3.746875
0.473800	-3.816012
0.473900	-3.721882
0.474000	-3.783229
0.474100	-3.787124
0.474200	-3.825425
0.474300	-3.861454
0.474400	-3.794265
0.474500	-3.599838
0.474600	-3.407684
0.474700	-3.251883
0.474800	-3.711495
0.474900	-4.053933
0.475000	-4.130860
0.475100	-3.668001
0.475200	-3.440791
0.475300	-3.390156
0.475400	-3.573871
0.475500	-3.849444
0.475600	-3.993560
0.475700	-3.856910
0.475800	-3.696889
0.475900	-3.512525
0.476000	-3.614769
0.476100	-3.684879
0.476200	-3.740383
0.476300	-3.720908
0.476400	-3.740059
0.476500	-3.703056
0.476600	-3.730646
0.476700	-3.767649
0.476800	-3.740383
0.476900	-3.811468
0.477000	-3.876385
0.477100	-4.016930
0.477200	-3.867296
0.477300	-4.014983
0.477400	-3.815687
0.477500	-3.766026
0.477600	-3.677414
0.477700	-3.824451
0.477800	-4.116903
0.477900	-3.989341
0.478000	-3.779334
0.478100	-3.501489
0.478200	-3.548229
0.478300	-3.782580
0.478400	-4.126316
0.478500	-4.099051
0.478600	-3.860805
0.478700	-3.638788
0.478800	-3.690073
0.478900	-3.898457
0.479000	-4.058477
0.479100	-4.024396
0.479200	-3.955259
0.479300	-3.893263
0.479400	-3.922151
0.479500	-4.018229
0.479600	-4.116254
0.479700	-4.175978
0.479800	-4.107165
0.479900	-4.076979
0.480000	-4.108139
0.480100	-4.164617
0.480200	-4.171433
0.480300	-4.207787
0.480400	-4.210384
0.480500	-4.317497
0.480600	-4.513223
0.480700	-4.542760
0.480800	-4.546655
0.480900	-4.389880
0.481000	-4.501862
0.481100	-4.604107
0.481200	-4.596642
0.481300	-4.617740
0.481400	-4.602160
0.481500	-4.634618
0.481600	-4.609950
0.481700	-4.631697
0.481800	-4.607353
0.481900	-4.615468
0.482000	-4.636241
0.482100	-4.647277
0.482200	-4.640786
0.482300	-4.677789
0.482400	-4.667077
0.482500	-4.688175
0.482600	-4.655717
0.482700	-4.681034
0.482800	-4.693369
0.482900	-4.909219
0.483000	-5.037432
0.483100	-4.794640
0.483200	-4.432076
0.483300	-4.241219
0.483400	-4.398319
0.483500	-4.698562
0.483600	-4.919606
0.483700	-4.795614
0.483800	-4.518741
0.483900	-4.277248
0.484000	-4.254203
0.484100	-4.439217
0.484200	-4.536918
0.484300	-4.564508
0.484400	-4.409355
0.484500	-4.340867
0.484600	-4.293802
0.484700	-4.308733
0.484800	-4.359044
0.484900	-4.355798
0.485000	-4.302566
0.485100	-4.209735
0.485200	-4.247062
0.485300	-4.263616
0.485400	-4.317173
0.485500	-4.250957
0.485600	-4.206813
0.485700	-4.163643
0.485800	-4.178574
0.485900	-4.145142
0.486000	-4.005245
0.486100	-3.821205
0.486200	-3.836785
0.486300	-4.010763
0.486400	-4.193181
0.486500	-4.223692
0.486600	-3.950066
0.486700	-3.654693
0.486800	-3.615094
0.486900	-3.796861
0.487000	-4.041274
0.487100	-4.120149
0.487200	-3.946820
0.487300	-3.706951
0.487400	-3.612172
0.487500	-3.624182
0.487600	-3.695591
0.487700	-3.720584
0.487800	-3.692020
0.487900	-3.616067
0.488000	-3.536219
0.488100	-3.481365
0.488200	-3.386261
0.488300	-3.277525
0.488400	-3.233706
0.488500	-3.272657
0.488600	-3.295702
0.488700	-3.276227
0.488800	-3.272981
0.488900	-3.119128
0.489000	-3.135682
0.489100	-3.135682
0.489200	-3.022727
0.489300	-3.085371
0.489400	-3.107118
0.489500	-3.126918
0.489600	-3.114259
0.489700	-3.057782
0.489800	-3.096083
0.489900	-3.205468
0.490000	-3.316151
0.490100	-3.433651
0.490200	-3.403464
0.490300	-3.572898
0.490400	-3.448906
0.490500	-3.535570
0.490600	-3.454749
0.490700	-3.581661
0.490800	-3.578740
0.490900	-3.656316
0.491000	-3.723180
0.491100	-3.536219
0.491200	-3.472925
0.491300	-3.113286
0.491400	-3.220074
0.491500	-3.564458
0.491600	-3.906571
0.491700	-3.675791
0.491800	-3.389507
0.491900	-3.253506
0.492000	-3.212608
0.492100	-3.480391
0.492200	-3.648201
0.492300	-3.675466
0.492400	-3.541413
0.492500	-3.368084
0.492600	-3.271683
0.492700	-3.401192
0.492800	-3.514148
0.492900	-3.547255
0.493000	-3.564134
0.493100	-3.535246
0.493200	-3.534921
0.493300	-3.527780
0.493400	-3.545308
0.493500	-3.556019
0.493600	-3.647552
0.493700	-3.657614
0.493800	-3.690722
0.493900	-3.685529
0.494000	-3.641060
0.494100	-3.505384
0.494200	-3.503761
0.494300	-3.422615
0.494400	-3.681958
0.494500	-3.751744
0.494600	-3.606330
0.494700	-3.369058
0.494800	-3.139577
0.494900	-3.308361
0.495000	-3.526806
0.495100	-3.728374
0.495200	-3.612172
0.495300	-3.377173
0.495400	-3.151911
0.495500	-3.253181
0.495600	-3.452801
0.495700	-3.562186
0.495800	-3.487532
0.495900	-3.437221
0.496000	-3.332056
0.496100	-3.371330
0.496200	-3.403789
0.496300	-3.472601
0.496400	-3.460591
0.496500	-3.382691
0.496600	-3.370357
0.496700	-3.377497
0.496800	-3.351206
0.496900	-3.330433
0.497000	-3.335301
0.497100	-3.348934
0.497200	-3.494673
0.497300	-3.580038
0.497400	-3.546282
0.497500	-3.512849
0.497600	-3.342442
0.497700	-3.455073
0.497800	-3.515121
0.497900	-3.503761
0.498000	-3.532649
0.498100	-3.549527
0.498200	-3.565107
0.498300	-3.565107
0.498400	-3.595294
0.498500	-3.582960
0.498600	-3.612821
0.498700	-3.600812
0.498800	-3.607953
0.498900	-3.572573
0.499000	-3.566406
0.499100	-3.553747
0.499200	-3.528105
0.499300	-3.584907
0.499400	-3.551150
0.499500	-3.694617
0.499600	-3.897807
0.499700	-3.923774
0.499800	-3.638139
0.499900	-3.272657
0.500000	-3.209363
0.500100	-3.399245
0.500200	-3.787448
0.500300	-3.875086
0.500400	-3.692020
0.500500	-3.397297
0.500600	-3.306089
0.500700	-3.395999
0.500800	-3.625156
0.500900	-3.745577
0.501000	-3.745901
0.501100	-3.633595
0.501200	-3.607304
0.501300	-3.627103
0.501400	-3.682932
0.501500	-3.747849
0.501600	-3.755314
0.501700	-3.783553
0.501800	-3.831267
0.501900	-3.873788
0.502000	-4.004272
0.502100	-3.997131
0.502200	-3.952662
0.502300	-4.017255
0.502400	-4.108139
0.502500	-4.176627
0.502600	-4.187014
0.502700	-3.992262
0.502800	-3.973761
0.502900	-4.121123
0.503000	-4.368457
0.503100	-4.586255
0.503200	-4.481089
0.503300	-4.227262
0.503400	-4.001675
0.503500	-4.079251
0.503600	-4.346710
0.503700	-4.574894
0.503800	-4.553796
0.503900	-4.336648
0.504000	-4.131509
0.504100	-4.063346
0.504200	-4.093208
0.504300	-4.170784
0.504400	-4.143844
0.504500	-4.084120
0.504600	-4.013685
0.504700	-3.937082
0.504800	-3.938056
0.504900	-3.871191
0.505000	-3.765701
0.505100	-3.739734
0.505200	-3.793615
0.505300	-3.879306
0.505400	-3.938056
0.505500	-3.861454
0.505600	-3.760508
0.505700	-3.807248
0.505800	-3.664755
0.505900	-3.773491
0.506000	-3.832241
0.506100	-3.845225
0.506200	-3.813091
0.506300	-3.797835
0.506400	-3.728374
0.506500	-3.760508
0.506600	-3.819582
0.506700	-3.902352
0.506800	-3.886447
0.506900	-3.944872
0.507000	-3.955584
0.507100	-3.949092
0.507200	-3.893912
0.507300	-3.875411
0.507400	-3.848795
0.507500	-3.894886
0.507600	-3.916958
0.507700	-3.863726
0.507800	-3.748498
0.507900	-3.529079
0.508000	-3.250909
0.508100	-3.423588
0.508200	-3.797835
0.508300	-3.949092
0.508400	-3.567380
0.508500	-3.202871
0.508600	-3.016884
0.508700	-3.067195
0.508800	-3.157429
0.508900	-3.320370
0.509000	-3.151587
0.509100	-2.923404
0.509200	-2.737093
0.509300	-2.752348
0.509400	-2.844530
0.509500	-2.903604
0.509600	-2.870497
0.509700	-2.793895
0.509800	-2.737417
0.509900	-2.749427
0.510000	-2.743909
0.510100	-2.757866
0.510200	-2.751374
0.510300	-2.822458
0.510400	-2.909771
0.510500	-2.821809
0.510600	-2.891595
0.510700	-2.835117
0.510800	-2.741312
0.510900	-2.777990
0.511000	-2.811098
0.511100	-3.168140
0.511200	-3.156131
0.511300	-3.032464
0.511400	-2.838363
0.511500	-2.744558
0.511600	-3.040903
0.511700	-3.369383
0.511800	-3.530052
0.511900	-3.383664
0.512000	-3.183396
0.512100	-3.108417
0.512200	-3.269411
0.512300	-3.521613
0.512400	-3.605031
0.512500	-3.574845
0.512600	-3.550826
0.512700	-3.512525
0.512800	-3.647877
0.512900	-3.705653
0.513000	-3.786799
0.513100	-3.774790
0.513200	-3.748498
0.513300	-3.775763
0.513400	-3.792642
0.513500	-3.770570
0.513600	-3.749472
0.513700	-3.743305
0.513800	-3.812441
0.513900	-3.992586
0.514000	-4.028940
0.514100	-3.987069
0.514200	-3.815038
0.514300	-3.800432
0.514400	-3.897807
0.514500	-3.921827
0.514600	-3.921502
0.514700	-3.957531
0.514800	-3.979603
0.514900	-4.053609
0.515000	-4.057828
0.515100	-4.110736
0.515200	-4.121447
0.515300	-4.180846
0.515400	-4.189935
0.515500	-4.212980
0.515600	-4.240570
0.515700	-4.245764
0.515800	-4.296075
0.515900	-4.291855
0.516000	-4.347684
0.516100	-4.406109
0.516200	-4.561262
0.516300	-4.829046
0.516400	-4.760558
0.516500	-4.452525
0.516600	-4.173056
0.516700	-4.226938
0.516800	-4.555744
0.516900	-4.844951
0.517000	-4.888446
0.517100	-4.603783
0.517200	-4.355474
0.517300	-4.281144
0.517400	-4.448955
0.517500	-4.579439
0.517600	-4.608327
0.517700	-4.518741
0.517800	-4.417794
0.517900	-4.333727
0.518000	-4.354175
0.518100	-4.354175
0.518200	-4.337622
0.518300	-4.280494
0.518400	-4.241544
0.518500	-4.191558
0.518600	-4.249659
0.518700	-4.247062
0.518800	-4.258747
0.518900	-4.209735
0.519000	-4.243167
0.519100	-4.265888
0.519200	-4.262967
0.519300	-4.215577
0.519400	-4.065943
0.519500	-4.110411
0.519600	-4.293802
0.519700	-4.512898
0.519800	-4.679736
0.519900	-4.525557
0.520000	-4.265239
0.520100	-4.130860
0.520200	-4.301268
0.520300	-4.556068
0.520400	-4.720309
0.520500	-4.660585
0.520600	-4.461289
0.520700	-4.324314
0.520800	-4.322366
0.520900	-4.355149
0.521000	-4.399293
0.521100	-4.398968
0.521200	-4.359044
0.521300	-4.334376
0.521400	-4.270432
0.521500	-4.207462
0.521600	-4.159099
0.521700	-4.036406
0.521800	-3.997780
0.521900	-4.031861
0.522000	-4.067566
0.522100	-4.092234
0.522200	-3.916309
0.522300	-3.816336
0.522400	-3.625156
0.522500	-3.680335
0.522600	-3.780957
0.522700	-3.828671
0.522800	-3.816986
0.522900	-3.752069
0.523000	-3.668001
0.523100	-3.665729
0.523200	-3.688450
0.523300	-3.745901
0.523400	-3.776737
0.523500	-3.805625
0.523600	-3.833215
0.523700	-3.805625
0.523800	-3.724803
0.523900	-3.679037
0.524000	-3.632946
0.524100	-3.680660
0.524200	-3.703705
0.524300	-3.826399
0.524400	-3.711820
0.524500	-3.624831
0.524600	-3.366462
0.524700	-3.292781
0.524800	-3.642683
0.524900	-4.084120
0.525000	-4.181820
0.525100	-3.780632
0.525200	-3.544009
0.525300	-3.507656
0.525400	-3.609251
0.525500	-3.848470
0.525600	-4.012711
0.525700	-3.852041
0.525800	-3.658913
0.525900	-3.443713
0.526000	-3.544659
0.526100	-3.551799
0.526200	-3.611848
0.526300	-3.582635
0.526400	-3.525184
0.526500	-3.475197
0.526600	-3.452152
0.526700	-3.425861
0.526800	-3.397946
0.526900	-3.353154
0.527000	-3.441441
0.527100	-3.499866
0.527200	-3.433651
0.527300	-3.370032
0.527400	-3.223644
0.527500	-3.034412
0.527600	-3.051615
0.527700	-3.099978
0.527800	-3.431703
0.527900	-3.141849
0.528000	-2.955862
0.528100	-2.601417
0.528200	-2.638419
0.528300	-2.830573
0.528400	-3.050641
0.528500	-2.985724
0.528600	-2.746830
0.528700	-2.494953
0.528800	-2.452108
0.528900	-2.632901
0.529000	-2.711126
0.529100	-2.638744
0.529200	-2.567011
0.529300	-2.494629
0.529400	-2.495927
0.529500	-2.544290
0.529600	-2.581292
0.529700	-2.565063
0.529800	-2.482619
0.529900	-2.484567
0.530000	-2.550782
0.530100	-2.585187
0.530200	-2.575125
0.530300	-2.583889
0.530400	-2.591030
0.530500	-2.718916
0.530600	-2.897437
0.530700	-2.930220
0.530800	-2.913666
0.530900	-2.823432
0.531000	-2.868224
0.531100	-2.946449
0.531200	-2.949695
0.531300	-2.996111
0.531400	-3.015910
0.531500	-3.041552
0.531600	-3.092188
0.531700	-3.140551
0.531800	-3.192160
0.531900	-3.187615
0.532000	-3.255129
0.532100	-3.264867
0.532200	-3.321344
0.532300	-3.371006
0.532400	-3.418720
0.532500	-3.467732
0.532600	-3.473899
0.532700	-3.586855
0.532800	-3.614444
0.532900	-3.896509
0.533000	-4.134106
0.533100	-3.957207
0.533200	-3.694942
0.533300	-3.500190
0.533400	-3.808222
0.533500	-4.142545
0.533600	-4.482712
0.533700	-4.439217
0.533800	-4.295425
0.533900	-4.125991
0.534000	-4.261668
0.534100	-4.498292
0.534200	-4.737837
0.534300	-4.803079
0.534400	-4.747250
0.534500	-4.716739
0.534600	-4.765103
0.534700	-4.853390
0.534800	-4.949468
0.534900	-4.962452
0.535000	-4.968619
0.535100	-4.967645
0.535200	-5.043274
0.535300	-5.148441
0.535400	-5.136756
0.535500	-5.026071
0.535600	-4.963101
0.535700	-4.994261
0.535800	-5.018605
0.535900	-5.024448
0.536000	-4.819633
0.536100	-4.649549
0.536200	-4.677789
0.536300	-4.851118
0.536400	-5.031914
0.536500	-5.018281
0.536600	-4.727450
0.536700	-4.430129
0.536800	-4.348008
0.536900	-4.528479
0.537000	-4.763480
0.537100	-4.815089
0.537200	-4.607029
0.537300	-4.374300
0.537400	-4.285363
0.537500	-4.349631
0.537600	-4.405460
0.537700	-4.434673
0.537800	-4.355798
0.537900	-4.282117
0.538000	-4.224666
0.538100	-4.207462
0.538200	-4.199672
0.538300	-3.977656
0.538400	-3.918256
0.538500	-3.977006
0.538600	-4.068540
0.538700	-4.116254
0.538800	-4.098726
0.538900	-3.954610
0.539000	-3.969216
0.539100	-3.957531
0.539200	-3.806274
0.539300	-3.845874
0.539400	-3.905273
0.539500	-3.869244
0.539600	-3.822504
0.539700	-3.721233
0.539800	-3.751095
0.539900	-3.784203
0.540000	-3.866323
0.540100	-3.847821
0.540200	-3.831592
0.540300	-3.912089
0.540400	-3.786150
0.540500	-3.834513
0.540600	-3.721882
0.540700	-3.832890
0.540800	-3.795238
0.540900	-3.880280
0.541000	-3.968892
0.541100	-3.793940
0.541200	-3.712145
0.541300	-3.354452
0.541400	-3.497269
0.541500	-3.911765
0.541600	-4.328209
0.541700	-4.149686
0.541800	-3.830618
0.541900	-3.545632
0.542000	-3.627752
0.542100	-3.716689
0.542200	-4.084444
0.542300	-4.001675
0.542400	-3.903001
0.542500	-3.667352
0.542600	-3.592373
0.542700	-3.641710
0.542800	-3.683906
0.542900	-3.713767
0.543000	-3.623533
0.543100	-3.618989
0.543200	-3.562511
0.543300	-3.544009
0.543400	-3.527780
0.543500	-3.485584
0.543600	-3.500840
0.543700	-3.488505
0.543800	-3.590425
0.543900	-3.558616
0.544000	-3.559914
0.544100	-3.362891
0.544200	-3.255454
0.544300	-3.241172
0.544400	-3.426834
0.544500	-3.612497
0.544600	-3.452152
0.544700	-3.274929
0.544800	-2.970468
0.544900	-3.131462
0.545000	-3.327836
0.545100	-3.547580
0.545200	-3.451178
0.545300	-3.209687
0.545400	-2.971442
0.545500	-3.012340
0.545600	-3.167167
0.545700	-3.247664
0.545800	-3.128216
0.545900	-3.049992
0.546000	-2.921781
0.546100	-2.945151
0.546200	-2.960731
0.546300	-2.996760
0.546400	-2.943203
0.546500	-2.859136
0.546600	-2.819212
0.546700	-2.812396
0.546800	-2.772797
0.546900	-2.717618
0.547000	-2.724434
0.547100	-2.695546
0.547200	-2.844205
0.547300	-2.929571
0.547400	-2.899709
0.547500	-2.923079
0.547600	-2.768902
0.547700	-2.859136
0.547800	-2.889647
0.547900	-2.888673
0.548000	-2.922430
0.548100	-2.934440
0.548200	-2.972416
0.548300	-2.976960
0.548400	-3.017533
0.548500	-3.050641
0.548600	-3.065572
0.548700	-3.090565
0.548800	-3.056808
0.548900	-3.084398
0.549000	-3.082125
0.549100	-3.134384
0.549200	-3.180799
0.549300	-3.222021
0.549400	-3.260971
0.549500	-3.381068
0.549600	-3.703705
0.549700	-3.686178
0.549800	-3.523236
0.549900	-3.162947
0.550000	-3.157754
0.550100	-3.377822
0.550200	-3.697214
0.550300	-3.852041
0.550400	-3.636841
0.550500	-3.400867
0.550600	-3.283043
0.550700	-3.401192
0.550800	-3.604382
0.550900	-3.714417
0.551000	-3.728049
0.551100	-3.606654
0.551200	-3.580688
0.551300	-3.590750
0.551400	-3.626129
0.551500	-3.661185
0.551600	-3.672221
0.551700	-3.697863
0.551800	-3.716689
0.551900	-3.786150
0.552000	-3.891640
0.552100	-3.882552
0.552200	-3.886122
0.552300	-3.854638
0.552400	-3.887745
0.552500	-3.899755
0.552600	-3.898132
0.552700	-3.748498
0.552800	-3.719285
0.552900	-3.844575
0.553000	-4.028291
0.553100	-4.195777
0.553200	-4.136703
0.553300	-3.869893
0.553400	-3.707925
0.553500	-3.794589
0.553600	-4.034133
0.553700	-4.254527
0.553800	-4.298022
0.553900	-4.176302
0.554000	-4.071136
0.554100	-4.078277
0.554200	-4.191882
0.554300	-4.319769
0.554400	-4.415198
0.554500	-4.465509
0.554600	-4.507705
0.554700	-4.536918
0.554800	-4.565481
0.554900	-4.579114
0.555000	-4.553472
0.555100	-4.548278
0.555200	-4.646304
0.555300	-4.695641
0.555400	-4.686552
0.555500	-4.657340
0.555600	-4.612547
0.555700	-4.745303
0.555800	-4.668700
0.555900	-4.730372
0.556000	-4.754391
0.556100	-4.772893
0.556200	-4.747575
0.556300	-4.707326
0.556400	-4.669349
0.556500	-4.693369
0.556600	-4.707975
0.556700	-4.769322
0.556800	-4.738162
0.556900	-4.743680
0.557000	-4.736863
0.557100	-4.661559
0.557200	-4.627478
0.557300	-4.593071
0.557400	-4.525233
0.557500	-4.664156
0.557600	-4.567104
0.557700	-4.623258
0.557800	-4.396047
0.557900	-4.248360
0.558000	-3.950066
0.558100	-4.221744
0.558200	-4.700510
0.558300	-4.756663
0.558400	-4.558341
0.558500	-4.173381
0.558600	-4.076005
0.558700	-4.126316
0.558800	-4.293478
0.558900	-4.548603
0.559000	-4.408057
0.559100	-4.231806
0.559200	-4.016606
0.559300	-3.962075
0.559400	-4.010763
0.559500	-3.979603
0.559600	-4.026668
0.559700	-3.932214
0.559800	-3.888719
0.559900	-3.801081
0.560000	-3.781281
0.560100	-3.725128
0.560200	-3.659886
0.560300	-3.772193
0.560400	-3.781930
0.560500	-3.801730
0.560600	-3.718312
0.560700	-3.693319
0.560800	-3.486882
0.560900	-3.440142
0.561000	-3.515121
0.561100	-3.688125
0.561200	-3.718961
0.561300	-3.514472
0.561400	-3.269735
0.561500	-3.144770
0.561600	-3.364514
0.561700	-3.577117
0.561800	-3.652421
0.561900	-3.423913
0.562000	-3.236303
0.562100	-3.111338
0.562200	-3.251234
0.562300	-3.409307
0.562400	-3.406061
0.562500	-3.294728
0.562600	-3.255778
0.562700	-3.205468
0.562800	-3.303817
0.562900	-3.317774
0.563000	-3.315177
0.563100	-3.235978
0.563200	-3.197028
0.563300	-3.198327
0.563400	-3.192160
0.563500	-3.161649
0.563600	-3.117505
0.563700	-3.093486
0.563800	-3.136656
0.563900	-3.323292
0.564000	-3.377497
0.564100	-3.315826
0.564200	-3.279148
0.564300	-3.220398
0.564400	-3.322318
0.564500	-3.383015
0.564600	-3.386910
0.564700	-3.439818
0.564800	-3.493374
0.564900	-3.527456
0.565000	-3.565107
0.565100	-3.594645
0.565200	-3.651123
0.565300	-3.709872
0.565400	-3.755639
0.565500	-3.815038
0.565600	-3.861454
0.565700	-3.914361
0.565800	-3.963374
0.565900	-4.015308
0.566000	-4.134431
0.566100	-4.156827
0.566200	-4.391828
0.566300	-4.618389
0.566400	-4.599888
0.566500	-4.289907
0.566600	-4.057828
0.566700	-4.087690
0.566800	-4.412276
0.566900	-4.751145
0.567000	-4.731345
0.567100	-4.498292
0.567200	-4.258747
0.567300	-4.275626
0.567400	-4.448630
0.567500	-4.630723
0.567600	-4.697913
0.567700	-4.597291
0.567800	-4.461289
0.567900	-4.413899
0.568000	-4.459991
0.568100	-4.508354
0.568200	-4.504459
0.568300	-4.439542
0.568400	-4.379818
0.568500	-4.432076
0.568600	-4.480764
0.568700	-4.519066
0.568800	-4.413250
0.568900	-4.360343
0.569000	-4.327559
0.569100	-4.415847
0.569200	-4.396372
0.569300	-4.333077
0.569400	-4.151958
0.569500	-4.145142
0.569600	-4.353851
0.569700	-4.552823
0.569800	-4.666428
0.569900	-4.461289
0.570000	-4.180846
0.570100	-4.037379
0.570200	-4.220121
0.570300	-4.487581
0.570400	-4.636241
0.570500	-4.552823
0.570600	-4.316523
0.570700	-4.174030
0.570800	-4.192531
0.570900	-4.263291
0.571000	-4.335999
0.571100	-4.299320
0.571200	-4.232131
0.571300	-4.184417
0.571400	-4.136703
0.571500	-4.122745
0.571600	-3.958830
0.571700	-3.891965
0.571800	-3.852365
0.571900	-3.897807
0.572000	-3.934486
0.572100	-3.948767
0.572200	-3.797835
0.572300	-3.685204
0.572400	-3.691371
0.572500	-3.465135
0.572600	-3.510902
0.572700	-3.526806
0.572800	-3.430405
0.572900	-3.296351
0.573000	-3.210012
0.573100	-3.160999
0.573200	-3.193782
0.573300	-3.214880
0.573400	-3.204494
0.573500	-3.169439
0.573600	-3.202546
0.573700	-3.127567
0.573800	-3.167816
0.573900	-3.078880
0.574000	-3.145095
0.574100	-3.042851
0.574200	-3.125944
0.574300	-3.076608
0.574400	-3.009094
0.574500	-2.806878
0.574600	-2.508261
0.574700	-2.412509
0.574800	-2.718591
0.574900	-3.046421
0.575000	-2.984750
0.575100	-2.580643
0.575200	-2.280404
0.575300	-2.214189
0.575400	-2.331688
0.575500	-2.574152
0.575600	-2.573502
0.575700	-2.521894
0.575800	-2.214189
0.575900	-2.156088
0.576000	-2.185625
0.576100	-2.395955
0.576200	-2.454705
0.576300	-2.475154
0.576400	-2.362523
0.576500	-2.364471
0.576600	-2.398552
0.576700	-2.462170
0.576800	-2.516700
0.576900	-2.567984
0.577000	-2.701064
0.577100	-2.791623
0.577200	-2.732873
0.577300	-2.849074
0.577400	-2.755594
0.577500	-2.720214
0.577600	-2.722162
0.577700	-2.929895
0.577800	-3.219425
0.577900	-3.206117
0.578000	-3.067519
0.578100	-2.845828
0.578200	-2.907175
0.578300	-3.174632
0.578400	-3.524534
0.578500	-3.546606
0.578600	-3.341468
0.578700	-3.161324
0.578800	-3.173658
0.578900	-3.409307
0.579000	-3.607304
0.579100	-3.609251
0.579200	-3.614120
0.579300	-3.581661
0.579400	-3.599189
0.579500	-3.696564
0.579600	-3.790045
0.579700	-3.853339
0.579800	-3.819258
0.579900	-3.823153
0.580000	-3.904948
0.580100	-3.931889
0.580200	-3.948118
0.580300	-3.951689
0.580400	-3.955584
0.580500	-4.033484
0.580600	-4.208112
0.580700	-4.246737
0.580800	-4.199997
0.580900	-4.013360
0.581000	-4.080874
0.581100	-4.161047
0.581200	-4.168837
0.581300	-4.165915
0.581400	-4.168837
0.581500	-4.176302
0.581600	-4.186689
0.581700	-4.195128
0.581800	-4.216875
0.581900	-4.216226
0.582000	-4.204541
0.582100	-4.245764
0.582200	-4.260370
0.582300	-4.312304
0.582400	-4.311330
0.582500	-4.410004
0.582600	-4.459666
0.582700	-4.523285
0.582800	-4.605406
0.582900	-4.823528
0.583000	-5.066969
0.583100	-4.855662
0.583200	-4.632022
0.583300	-4.470053
0.583400	-4.657989
0.583500	-5.016009
0.583600	-5.269837
0.583700	-5.235755
0.583800	-4.994261
0.583900	-4.839108
0.584000	-4.871567
0.584100	-5.082874
0.584200	-5.268538
0.584300	-5.320797
0.584400	-5.229588
0.584500	-5.111762
0.584600	-5.118254
0.584700	-5.137729
0.584800	-5.166293
0.584900	-5.168241
0.585000	-5.152336
0.585100	-5.130913
0.585200	-5.097480
0.585300	-5.104297
0.585400	-5.082225
0.585500	-5.061127
0.585600	-5.004648
0.585700	-5.000753
0.585800	-4.931616
0.585900	-4.902728
0.586000	-4.728100
0.586100	-4.477194
0.586200	-4.452525
0.586300	-4.599238
0.586400	-4.764453
0.586500	-4.727775
0.586600	-4.416496
0.586700	-4.055556
0.586800	-3.969541
0.586900	-4.141896
0.587000	-4.378844
0.587100	-4.396696
0.587200	-4.233754
0.587300	-3.993236
0.587400	-3.912089
0.587500	-3.946171
0.587600	-3.977331
0.587700	-3.977980
0.587800	-3.942925
0.587900	-3.896834
0.588000	-3.857559
0.588100	-3.824451
0.588200	-3.724154
0.588300	-3.568029
0.588400	-3.486233
0.588500	-3.537518
0.588600	-3.605031
0.588700	-3.628726
0.588800	-3.600812
0.588900	-3.444686
0.589000	-3.433326
0.589100	-3.424562
0.589200	-3.331406
0.589300	-3.413526
0.589400	-3.480066
0.589500	-3.445660
0.589600	-3.402490
0.589700	-3.343416
0.589800	-3.370357
0.589900	-3.425861
0.590000	-3.587179
0.590100	-3.652745
0.590200	-3.653719
0.590300	-3.779009
0.590400	-3.708574
0.590500	-3.763429
0.590600	-3.780957
0.590700	-3.844575
0.590800	-3.896509
0.590900	-3.944872
0.591000	-4.090936
0.591100	-3.920853
0.591200	-3.832566
0.591300	-3.484610
0.591400	-3.683906
0.591500	-3.979278
0.591600	-4.410654
0.591700	-4.071136
0.591800	-3.811792
0.591900	-3.569002
0.592000	-3.584258
0.592100	-3.754016
0.592200	-3.967269
0.592300	-3.936109
0.592400	-3.810494
0.592500	-3.555045
0.592600	-3.527780
0.592700	-3.594320
0.592800	-3.657939
0.592900	-3.732918
0.593000	-3.794914
0.593100	-3.769272
0.593200	-3.763104
0.593300	-3.738111
0.593400	-3.712145
0.593500	-3.691047
0.593600	-3.776412
0.593700	-3.855287
0.593800	-3.816336
0.593900	-3.819258
0.594000	-3.729023
0.594100	-3.556993
0.594200	-3.455722
0.594300	-3.345688
0.594400	-3.611523
0.594500	-3.665404
0.594600	-3.433326
0.594700	-3.122049
0.594800	-2.870821
0.594900	-2.923404
0.595000	-3.143147
0.595100	-3.329459
0.595200	-3.150937
0.595300	-2.869198
0.595400	-2.615698
0.595500	-2.701388
0.595600	-2.877637
0.595700	-2.962029
0.595800	-2.823432
0.595900	-2.771823
0.596000	-2.705283
0.596100	-2.817265
0.596200	-2.873418
0.596300	-2.905227
0.596400	-2.857838
0.596500	-2.791947
0.596600	-2.821160
0.596700	-2.932492
0.596800	-2.958783
0.596900	-2.925676
0.597000	-2.952616
0.597100	-2.992216
0.597200	-3.178852
0.597300	-3.334003
0.597400	-3.360619
