LabVIEW Measurement	
Writer_Version	2
Reader_Version	2
Separator	Tab
Decimal_Separator	.
Multi_Headings	Yes
X_Columns	One
Time_Pref	Relative
Operator	as989
Description	Time Domain Data
Date	1903/12/31
Time	19:00:00
***End_of_Header***	
	
Channels	1	
Samples	15000	
Date	1903/12/31	
Time	19:00:00	
X_Dimension	Time	
X0	0.0000000000000000E+0	
Delta_X	0.000100	
***End_of_Header***		
X_Value	Untitled	Comment
0.000000	-1.519581	Tare Values:0.000000, 0.000000, 0.000000, 0.000000\0D\0A
0.000100	-1.228431
0.000200	-1.100870
0.000300	-1.069386
0.000400	-1.640001
0.000500	-1.839944
0.000600	-1.603324
0.000700	-1.248555
0.000800	-1.112555
0.000900	-1.039849
0.001000	-1.334245
0.001100	-1.518283
0.001200	-1.575410
0.001300	-1.333920
0.001400	-1.185586
0.001500	-1.141768
0.001600	-1.149557
0.001700	-1.323858
0.001800	-1.316068
0.001900	-1.439734
0.002000	-1.350149
0.002100	-1.317367
0.002200	-1.321586
0.002300	-1.364106
0.002400	-1.361834
0.002500	-1.415390
0.002600	-1.540355
0.002700	-1.514713
0.002800	-1.550741
0.002900	-1.565997
0.003000	-1.381309
0.003100	-1.421233
0.003200	-1.374168
0.003300	-1.701997
0.003400	-1.771782
0.003500	-1.670512
0.003600	-1.432918
0.003700	-1.258617
0.003800	-1.386503
0.003900	-1.701997
0.004000	-1.880842
0.004100	-1.747438
0.004200	-1.523152
0.004300	-1.317367
0.004400	-1.417338
0.004500	-1.583524
0.004600	-1.680899
0.004700	-1.603648
0.004800	-1.555285
0.004900	-1.479333
0.005000	-1.537109
0.005100	-1.615333
0.005200	-1.667591
0.005300	-1.636431
0.005400	-1.591963
0.005500	-1.599753
0.005600	-1.623772
0.005700	-1.623448
0.005800	-1.582226
0.005900	-1.601052
0.006000	-1.581901
0.006100	-1.711085
0.006200	-1.771457
0.006300	-1.732183
0.006400	-1.675056
0.006500	-1.561777
0.006600	-1.651037
0.006700	-1.647467
0.006800	-1.625071
0.006900	-1.657854
0.007000	-1.645844
0.007100	-1.646493
0.007200	-1.637080
0.007300	-1.671811
0.007400	-1.673433
0.007500	-1.675056
0.007600	-1.674083
0.007700	-1.677653
0.007800	-1.664021
0.007900	-1.683820
0.008000	-1.692259
0.008100	-1.732508
0.008200	-1.748412
0.008300	-1.765290
0.008400	-1.909405
0.008500	-2.129472
0.008600	-2.172317
0.008700	-1.973023
0.008800	-1.690312
0.008900	-1.663047
0.009000	-1.844164
0.009100	-2.167773
0.009200	-2.235286
0.009300	-2.141157
0.009400	-1.903887
0.009500	-1.813004
0.009600	-1.842866
0.009700	-1.973348
0.009800	-2.096365
0.009900	-2.094417
0.010000	-2.013596
0.010100	-1.929529
0.010200	-1.924985
0.010300	-1.928231
0.010400	-1.959066
0.010500	-1.938293
0.010600	-1.917195
0.010700	-1.928880
0.010800	-1.930178
0.010900	-1.983085
0.011000	-1.951925
0.011100	-1.935372
0.011200	-1.895448
0.011300	-1.938618
0.011400	-1.989577
0.011500	-1.964260
0.011600	-1.851305
0.011700	-1.733806
0.011800	-1.801319
0.011900	-1.998016
0.012000	-2.175239
0.012100	-2.155764
0.012200	-1.923362
0.012300	-1.744192
0.012400	-1.792880
0.012500	-1.980164
0.012600	-2.170370
0.012700	-2.222952
0.012800	-2.110971
0.012900	-1.988279
0.013000	-1.929205
0.013100	-1.940890
0.013200	-2.017816
0.013300	-2.048976
0.013400	-2.030799
0.013500	-1.992498
0.013600	-1.953224
0.013700	-1.920441
0.013800	-1.831830
0.013900	-1.692259
0.014000	-1.635782
0.014100	-1.631887
0.014200	-1.606569
0.014300	-1.571515
0.014400	-1.503352
0.014500	-1.361185
0.014600	-1.317691
0.014700	-1.099896
0.014800	-1.135925
0.014900	-1.162216
0.015000	-1.103142
0.015100	-1.051858
0.015200	-0.969414
0.015300	-0.875610
0.015400	-0.864250
0.015500	-0.837309
0.015600	-0.924947
0.015700	-0.884698
0.015800	-0.975581
0.015900	-0.924297
0.016000	-0.941176
0.016100	-0.890541
0.016200	-0.870092
0.016300	-0.915209
0.016400	-0.890866
0.016500	-1.026216
0.016600	-0.946694
0.016700	-0.941500
0.016800	-0.561739
0.016900	-0.536097
0.017000	-0.577969
0.017100	-1.021997
0.017200	-1.156698
0.017300	-0.961949
0.017400	-0.702283
0.017500	-0.524088
0.017600	-0.514350
0.017700	-0.759410
0.017800	-0.854188
0.017900	-0.947992
0.018000	-0.695467
0.018100	-0.628603
0.018200	-0.524737
0.018300	-0.634446
0.018400	-0.658789
0.018500	-0.642885
0.018600	-0.708126
0.018700	-0.634121
0.018800	-0.650350
0.018900	-0.664956
0.019000	-0.700011
0.019100	-0.654894
0.019200	-0.737338
0.019300	-0.834713
0.019400	-0.779534
0.019500	-0.877882
0.019600	-0.765252
0.019700	-0.763305
0.019800	-0.675992
0.019900	-0.782455
0.020000	-1.042121
0.020100	-1.040822
0.020200	-0.952536
0.020300	-0.742532
0.020400	-0.616918
0.020500	-0.780183
0.020600	-1.038875
0.020700	-1.135600
0.020800	-1.028813
0.020900	-0.851267
0.021000	-0.732145
0.021100	-0.828870
0.021200	-0.954159
0.021300	-0.987266
0.021400	-0.912288
0.021500	-0.916508
0.021600	-0.909691
0.021700	-0.978827
0.021800	-1.009338
0.021900	-0.988240
0.022000	-0.947667
0.022100	-0.960975
0.022200	-1.038550
0.022300	-1.079123
0.022400	-1.092106
0.022500	-1.038875
0.022600	-1.008364
0.022700	-1.039524
0.022800	-1.189481
0.022900	-1.235896
0.023000	-1.245309
0.023100	-1.248880
0.023200	-1.146961
0.023300	-1.197920
0.023400	-1.205061
0.023500	-1.170006
0.023600	-1.201815
0.023700	-1.197596
0.023800	-1.208956
0.023900	-1.224536
0.024000	-1.233624
0.024100	-1.264135
0.024200	-1.296918
0.024300	-1.278092
0.024400	-1.324507
0.024500	-1.333596
0.024600	-1.351123
0.024700	-1.343009
0.024800	-1.383906
0.024900	-1.472192
0.025000	-1.456937
0.025100	-1.691935
0.025200	-1.882465
0.025300	-1.889606
0.025400	-1.613710
0.025500	-1.422856
0.025600	-1.469920
0.025700	-1.689987
0.025800	-2.005482
0.025900	-2.114217
0.026000	-1.956145
0.026100	-1.747763
0.026200	-1.706541
0.026300	-1.856823
0.026400	-2.028852
0.026500	-2.133692
0.026600	-2.068775
0.026700	-2.027229
0.026800	-1.908107
0.026900	-1.985682
0.027000	-2.037940
0.027100	-2.012947
0.027200	-2.024957
0.027300	-2.001587
0.027400	-2.041835
0.027500	-2.070074
0.027600	-2.124604
0.027700	-2.047677
0.027800	-2.048651
0.027900	-2.079162
0.028000	-2.135964
0.028100	-2.144403
0.028200	-2.035992
0.028300	-1.885386
0.028400	-1.836699
0.028500	-1.923362
0.028600	-2.096040
0.028700	-2.209320
0.028800	-2.043782
0.028900	-1.790932
0.029000	-1.648441
0.029100	-1.731209
0.029200	-1.907133
0.029300	-2.046704
0.029400	-2.051248
0.029500	-1.903887
0.029600	-1.761395
0.029700	-1.731534
0.029800	-1.775352
0.029900	-1.821119
0.030000	-1.777300
0.030100	-1.752307
0.030200	-1.707190
0.030300	-1.635782
0.030400	-1.576059
0.030500	-1.515362
0.030600	-1.398188
0.030700	-1.350474
0.030800	-1.330999
0.030900	-1.317691
0.031000	-1.330350
0.031100	-1.182989
0.031200	-1.092756
0.031300	-0.880803
0.031400	-0.875286
0.031500	-0.904498
0.031600	-0.925271
0.031700	-0.877882
0.031800	-0.808097
0.031900	-0.770770
0.032000	-0.658140
0.032100	-0.709100
0.032200	-0.689625
0.032300	-0.714942
0.032400	-0.729548
0.032500	-0.757787
0.032600	-0.772069
0.032700	-0.688651
0.032800	-0.721434
0.032900	-0.663009
0.033000	-0.729224
0.033100	-0.764603
0.033200	-0.743505
0.033300	-0.794140
0.033400	-0.537720
0.033500	-0.399124
0.033600	-0.203401
0.033700	-0.650026
0.033800	-0.819457
0.033900	-0.943123
0.034000	-0.631525
0.034100	-0.347191
0.034200	-0.306618
0.034300	-0.284871
0.034400	-0.658789
0.034500	-0.657816
0.034600	-0.697090
0.034700	-0.474752
0.034800	-0.329014
0.034900	-0.359200
0.035000	-0.360823
0.035100	-0.479620
0.035200	-0.444565
0.035300	-0.497797
0.035400	-0.451706
0.035500	-0.466637
0.035600	-0.505587
0.035700	-0.491954
0.035800	-0.530580
0.035900	-0.575696
0.036000	-0.714942
0.036100	-0.701310
0.036200	-0.797386
0.036300	-0.699687
0.036400	-0.701310
0.036500	-0.679238
0.036600	-0.902550
0.036700	-1.128135
0.036800	-1.048288
0.036900	-0.956107
0.037000	-0.729873
0.037100	-0.798360
0.037200	-0.977529
0.037300	-1.196622
0.037400	-1.255371
0.037500	-1.110608
0.037600	-0.928517
0.037700	-0.911314
0.037800	-1.051534
0.037900	-1.154102
0.038000	-1.142417
0.038100	-1.134951
0.038200	-1.092756
0.038300	-1.108011
0.038400	-1.161567
0.038500	-1.180393
0.038600	-1.213176
0.038700	-1.185262
0.038800	-1.122942
0.038900	-1.109634
0.039000	-1.111581
0.039100	-1.122617
0.039200	-1.133004
0.039300	-1.114178
0.039400	-1.219018
0.039500	-1.343658
0.039600	-1.332297
0.039700	-1.306331
0.039800	-1.286856
0.039900	-1.251152
0.040000	-1.226159
0.040100	-1.211877
0.040200	-1.231352
0.040300	-1.204087
0.040400	-1.206684
0.040500	-1.242713
0.040600	-1.228106
0.040700	-1.268355
0.040800	-1.251801
0.040900	-1.289777
0.041000	-1.270627
0.041100	-1.296269
0.041200	-1.285233
0.041300	-1.286531
0.041400	-1.286207
0.041500	-1.319314
0.041600	-1.378388
0.041700	-1.418636
0.041800	-1.638379
0.041900	-1.832154
0.042000	-1.737052
0.042100	-1.484851
0.042200	-1.335219
0.042300	-1.445252
0.042400	-1.733157
0.042500	-1.936021
0.042600	-1.881816
0.042700	-1.698751
0.042800	-1.545223
0.042900	-1.553987
0.043000	-1.738675
0.043100	-1.881166
0.043200	-1.931477
0.043300	-1.826637
0.043400	-1.815276
0.043500	-1.801968
0.043600	-1.873052
0.043700	-1.888307
0.043800	-1.875649
0.043900	-1.876947
0.044000	-1.880517
0.044100	-1.944785
0.044200	-2.034045
0.044300	-1.988603
0.044400	-1.971076
0.044500	-1.952899
0.044600	-1.999315
0.044700	-2.031773
0.044800	-2.001587
0.044900	-1.894150
0.045000	-1.714980
0.045100	-1.797424
0.045200	-1.925959
0.045300	-2.109673
0.045400	-2.167124
0.045500	-1.961663
0.045600	-1.763992
0.045700	-1.703620
0.045800	-1.840594
0.045900	-2.077539
0.046000	-2.168422
0.046100	-2.074942
0.046200	-1.911353
0.046300	-1.854551
0.046400	-1.862990
0.046500	-1.921090
0.046600	-1.955820
0.046700	-1.926608
0.046800	-1.859419
0.046900	-1.848059
0.047000	-1.825663
0.047100	-1.783792
0.047200	-1.633510
0.047300	-1.556259
0.047400	-1.560154
0.047500	-1.578006
0.047600	-1.603324
0.047700	-1.589691
0.047800	-1.440059
0.047900	-1.406627
0.048000	-1.219343
0.048100	-1.307304
0.048200	-1.291075
0.048300	-1.269328
0.048400	-1.202789
0.048500	-1.124565
0.048600	-1.058674
0.048700	-1.062894
0.048800	-1.058350
0.048900	-1.092106
0.049000	-1.080097
0.049100	-1.096326
0.049200	-1.080746
0.049300	-1.094703
0.049400	-1.067438
0.049500	-1.079448
0.049600	-1.140145
0.049700	-1.093729
0.049800	-1.232001
0.049900	-1.165787
0.050000	-1.186884
0.050100	-0.902226
0.050200	-0.709100
0.050300	-0.724680
0.050400	-1.086913
0.050500	-1.337491
0.050600	-1.208307
0.050700	-0.969090
0.050800	-0.750971
0.050900	-0.675019
0.051000	-0.962923
0.051100	-1.058674
0.051200	-1.102818
0.051300	-0.939877
0.051400	-0.774341
0.051500	-0.709749
0.051600	-0.739610
0.051700	-0.857758
0.051800	-0.806799
0.051900	-0.830493
0.052000	-0.816212
0.052100	-0.811343
0.052200	-0.811668
0.052300	-0.844775
0.052400	-0.845749
0.052500	-0.794465
0.052600	-0.965844
0.052700	-0.903849
0.052800	-1.073930
0.052900	-0.972985
0.053000	-0.995056
0.053100	-0.922350
0.053200	-0.985319
0.053300	-1.196622
0.053400	-1.326130
0.053500	-1.276145
0.053600	-1.058350
0.053700	-0.932087
0.053800	-1.005768
0.053900	-1.261538
0.054000	-1.468297
0.054100	-1.408574
0.054200	-1.190455
0.054300	-1.014207
0.054400	-1.092106
0.054500	-1.249204
0.054600	-1.354369
0.054700	-1.292049
0.054800	-1.235572
0.054900	-1.158321
0.055000	-1.193051
0.055100	-1.260889
0.055200	-1.323209
0.055300	-1.323858
0.055400	-1.267056
0.055500	-1.259591
0.055600	-1.267381
0.055700	-1.254073
0.055800	-1.194350
0.055900	-1.192402
0.056000	-1.157672
0.056100	-1.224536
0.056200	-1.294970
0.056300	-1.290102
0.056400	-1.229405
0.056500	-1.113529
0.056600	-1.162865
0.056700	-1.157347
0.056800	-1.114178
0.056900	-1.100546
0.057000	-1.103142
0.057100	-1.077500
0.057200	-1.075553
0.057300	-1.060947
0.057400	-1.110283
0.057500	-1.083992
0.057600	-1.118073
0.057700	-1.117424
0.057800	-1.124240
0.057900	-1.167409
0.058000	-1.174226
0.058100	-1.234598
0.058200	-1.252450
0.058300	-1.295295
0.058400	-1.408899
0.058500	-1.681548
0.058600	-1.777949
0.058700	-1.598779
0.058800	-1.366703
0.058900	-1.301462
0.059000	-1.516336
0.059100	-1.822417
0.059200	-1.940890
0.059300	-1.829558
0.059400	-1.633834
0.059500	-1.565347
0.059600	-1.656231
0.059700	-1.797099
0.059800	-1.931152
0.059900	-1.878570
0.060000	-1.788660
0.060100	-1.683496
0.060200	-1.751982
0.060300	-1.776002
0.060400	-1.785739
0.060500	-1.800670
0.060600	-1.780546
0.060700	-1.785415
0.060800	-1.786064
0.060900	-1.843515
0.061000	-1.854875
0.061100	-1.824040
0.061200	-1.830207
0.061300	-1.873052
0.061400	-1.896097
0.061500	-1.855524
0.061600	-1.680574
0.061700	-1.573462
0.061800	-1.669214
0.061900	-1.845138
0.062000	-2.018465
0.062100	-1.950303
0.062200	-1.719200
0.062300	-1.564374
0.062400	-1.608192
0.062500	-1.822092
0.062600	-2.039238
0.062700	-2.087926
0.062800	-1.971076
0.062900	-1.805539
0.063000	-1.771133
0.063100	-1.827610
0.063200	-1.907458
0.063300	-1.922713
0.063400	-1.907458
0.063500	-1.860393
0.063600	-1.782493
0.063700	-1.763018
0.063800	-1.737701
0.063900	-1.649739
0.064000	-1.603324
0.064100	-1.583849
0.064200	-1.561777
0.064300	-1.550092
0.064400	-1.468622
0.064500	-1.305357
0.064600	-1.216421
0.064700	-1.143390
0.064800	-1.177796
0.064900	-1.186884
0.065000	-1.159295
0.065100	-1.058350
0.065200	-1.025892
0.065300	-0.904498
0.065400	-0.922675
0.065500	-0.951238
0.065600	-0.986293
0.065700	-1.002522
0.065800	-0.970064
0.065900	-0.985643
0.066000	-0.894436
0.066100	-0.913911
0.066200	-0.908393
0.066300	-0.888593
0.066400	-1.036927
0.066500	-0.942799
0.066600	-1.097300
0.066700	-0.865873
0.066800	-0.757138
0.066900	-0.456575
0.067000	-0.725004
0.067100	-1.037901
0.067200	-1.163190
0.067300	-1.064842
0.067400	-0.739286
0.067500	-0.671773
0.067600	-0.674045
0.067700	-0.872040
0.067800	-1.022646
0.067900	-0.900928
0.068000	-0.835037
0.068100	-0.631200
0.068200	-0.683133
0.068300	-0.690923
0.068400	-0.817185
0.068500	-0.769796
0.068600	-0.778236
0.068700	-0.798684
0.068800	-0.784403
0.068900	-0.776288
0.069000	-0.782455
0.069100	-0.886646
0.069200	-0.890541
0.069300	-1.096001
0.069400	-1.065166
0.069500	-1.046016
0.069600	-1.031410
0.069700	-0.871391
0.069800	-0.975906
0.069900	-0.949615
0.070000	-1.322560
0.070100	-1.258617
0.070200	-1.201166
0.070300	-0.938904
0.070400	-0.904823
0.070500	-1.031085
0.070600	-1.286856
0.070700	-1.386503
0.070800	-1.283610
0.070900	-1.062245
0.071000	-0.964870
0.071100	-1.072631
0.071200	-1.194999
0.071300	-1.241090
0.071400	-1.185911
0.071500	-1.197920
0.071600	-1.158970
0.071700	-1.189806
0.071800	-1.230054
0.071900	-1.269653
0.072000	-1.238493
0.072100	-1.229080
0.072200	-1.241414
0.072300	-1.259915
0.072400	-1.202140
0.072500	-1.158321
0.072600	-1.161892
0.072700	-1.202464
0.072800	-1.343982
0.072900	-1.343658
0.073000	-1.325806
0.073100	-1.298865
0.073200	-1.199868
0.073300	-1.258942
0.073400	-1.230054
0.073500	-1.231677
0.073600	-1.239791
0.073700	-1.251152
0.073800	-1.264135
0.073900	-1.241414
0.074000	-1.260889
0.074100	-1.272250
0.074200	-1.299190
0.074300	-1.262188
0.074400	-1.305357
0.074500	-1.305357
0.074600	-1.331324
0.074700	-1.327429
0.074800	-1.371247
0.074900	-1.439085
0.075000	-1.428049
0.075100	-1.679276
0.075200	-1.909730
0.075300	-1.900966
0.075400	-1.640651
0.075500	-1.402407
0.075600	-1.511142
0.075700	-1.718875
0.075800	-2.048651
0.075900	-2.098962
0.076000	-1.950303
0.076100	-1.761395
0.076200	-1.747114
0.076300	-1.887658
0.076400	-2.026904
0.076500	-2.101234
0.076600	-2.066179
0.076700	-1.963935
0.076800	-1.928880
0.076900	-1.959715
0.077000	-1.983085
0.077100	-1.985033
0.077200	-1.960040
0.077300	-1.955820
0.077400	-1.965558
0.077500	-1.996718
0.077600	-1.942188
0.077700	-1.945434
0.077800	-1.927906
0.077900	-1.977568
0.078000	-1.984708
0.078100	-2.021386
0.078200	-1.919467
0.078300	-1.760422
0.078400	-1.697777
0.078500	-1.857147
0.078600	-2.049950
0.078700	-2.155114
0.078800	-2.003210
0.078900	-1.777625
0.079000	-1.675056
0.079100	-1.801644
0.079200	-1.982436
0.079300	-2.113568
0.079400	-2.060336
0.079500	-1.864288
0.079600	-1.761720
0.079700	-1.727963
0.079800	-1.766589
0.079900	-1.786713
0.080000	-1.767887
0.080100	-1.711410
0.080200	-1.667591
0.080300	-1.640001
0.080400	-1.561128
0.080500	-1.415390
0.080600	-1.326455
0.080700	-1.302760
0.080800	-1.331324
0.080900	-1.335868
0.081000	-1.343009
0.081100	-1.213825
0.081200	-1.130732
0.081300	-1.121319
0.081400	-0.941500
0.081500	-0.978178
0.081600	-1.000250
0.081700	-0.951562
0.081800	-0.869119
0.081900	-0.806150
0.082000	-0.750646
0.082100	-0.770121
0.082200	-0.761033
0.082300	-0.812966
0.082400	-0.806799
0.082500	-0.830818
0.082600	-0.859056
0.082700	-0.800632
0.082800	-0.868469
0.082900	-0.751620
0.083000	-0.857434
0.083100	-0.840555
0.083200	-0.921052
0.083300	-0.816536
0.083400	-0.741882
0.083500	-0.428336
0.083600	-0.384518
0.083700	-0.665281
0.083800	-1.038550
0.083900	-0.931114
0.084000	-0.794789
0.084100	-0.468909
0.084200	-0.451706
0.084300	-0.534150
0.084400	-0.774341
0.084500	-0.867496
0.084600	-0.755839
0.084700	-0.578618
0.084800	-0.519868
0.084900	-0.542914
0.085000	-0.579267
0.085100	-0.710073
0.085200	-0.699687
0.085300	-0.691897
0.085400	-0.689949
0.085500	-0.728250
0.085600	-0.783104
0.085700	-0.809071
0.085800	-0.829195
0.085900	-0.956756
0.086000	-1.046340
0.086100	-1.120670
0.086200	-1.123266
0.086300	-1.068412
0.086400	-1.022321
0.086500	-1.021672
0.086600	-1.249853
0.086700	-1.436488
0.086800	-1.358588
0.086900	-1.242063
0.087000	-0.997004
0.087100	-1.090808
0.087200	-1.286856
0.087300	-1.537433
0.087400	-1.555935
0.087500	-1.419610
0.087600	-1.246608
0.087700	-1.246283
0.087800	-1.423505
0.087900	-1.539056
0.088000	-1.515686
0.088100	-1.513414
0.088200	-1.473166
0.088300	-1.503352
0.088400	-1.559180
0.088500	-1.591963
0.088600	-1.624097
0.088700	-1.559830
0.088800	-1.578006
0.088900	-1.590340
0.089000	-1.579629
0.089100	-1.549768
0.089200	-1.520231
0.089300	-1.492641
0.089400	-1.576383
0.089500	-1.720173
0.089600	-1.733481
0.089700	-1.665643
0.089800	-1.501729
0.089900	-1.572164
0.090000	-1.618254
0.090100	-1.574111
0.090200	-1.578006
0.090300	-1.577032
0.090400	-1.554636
0.090500	-1.537433
0.090600	-1.558207
0.090700	-1.557233
0.090800	-1.547495
0.090900	-1.516336
0.091000	-1.545548
0.091100	-1.531915
0.091200	-1.549443
0.091300	-1.519906
0.091400	-1.549443
0.091500	-1.533538
0.091600	-1.620851
0.091700	-1.654283
0.091800	-1.886360
0.091900	-2.095716
0.092000	-1.923362
0.092100	-1.701672
0.092200	-1.519581
0.092300	-1.635457
0.092400	-1.963286
0.092500	-2.161282
0.092600	-2.116489
0.092700	-1.916871
0.092800	-1.758799
0.092900	-1.730885
0.093000	-1.906808
0.093100	-2.101558
0.093200	-2.071047
0.093300	-1.980813
0.093400	-1.885061
0.093500	-1.881491
0.093600	-1.917195
0.093700	-1.900317
0.093800	-1.900966
0.093900	-1.874350
0.094000	-1.841892
0.094100	-1.860393
0.094200	-1.876298
0.094300	-1.927257
0.094400	-1.836049
0.094500	-1.806837
0.094600	-1.851954
0.094700	-1.866885
0.094800	-1.861042
0.094900	-1.731534
0.095000	-1.546197
0.095100	-1.626369
0.095200	-1.795477
0.095300	-1.985033
0.095400	-2.004508
0.095500	-1.805539
0.095600	-1.621176
0.095700	-1.596832
0.095800	-1.758474
0.095900	-1.999315
0.096000	-2.084355
0.096100	-2.008403
0.096200	-1.841243
0.096300	-1.800994
0.096400	-1.791906
0.096500	-1.865262
0.096600	-1.914274
0.096700	-1.878245
0.096800	-1.866236
0.096900	-1.834102
0.097000	-1.798398
0.097100	-1.752632
0.097200	-1.601376
0.097300	-1.548794
0.097400	-1.540679
0.097500	-1.561777
0.097600	-1.615333
0.097700	-1.580278
0.097800	-1.448498
0.097900	-1.389748
0.098000	-1.178770
0.098100	-1.225834
0.098200	-1.223562
0.098300	-1.189481
0.098400	-1.086913
0.098500	-1.013558
0.098600	-0.904173
0.098700	-0.906445
0.098800	-0.867171
0.098900	-0.915209
0.099000	-0.910665
0.099100	-0.957405
0.099200	-0.996355
0.099300	-0.938904
0.099400	-0.964870
0.099500	-0.923973
0.099600	-0.991486
0.099700	-1.005443
0.099800	-1.034006
0.099900	-1.081071
0.100000	-1.017777
0.100100	-0.898655
0.100200	-0.513377
0.100300	-0.774990
0.100400	-0.963247
0.100500	-1.316068
0.100600	-1.105739
0.100700	-0.940202
0.100800	-0.636069
0.100900	-0.684756
0.101000	-0.749997
0.101100	-1.024593
0.101200	-0.940851
0.101300	-0.881453
0.101400	-0.705854
0.101500	-0.608155
0.101600	-0.675668
0.101700	-0.695143
0.101800	-0.762656
0.101900	-0.690598
0.102000	-0.721434
0.102100	-0.720135
0.102200	-0.749023
0.102300	-0.788298
0.102400	-0.749997
0.102500	-0.810694
0.102600	-0.974283
0.102700	-0.985968
0.102800	-1.021672
0.102900	-1.042121
0.103000	-0.896383
0.103100	-0.928192
0.103200	-0.952861
0.103300	-1.214799
0.103400	-1.384230
0.103500	-1.280364
0.103600	-1.089834
0.103700	-0.935658
0.103800	-1.064192
0.103900	-1.314445
0.104000	-1.507247
0.104100	-1.438111
0.104200	-1.258293
0.104300	-1.117748
0.104400	-1.153128
0.104500	-1.292698
0.104600	-1.355667
0.104700	-1.278417
0.104800	-1.300813
0.104900	-1.228756
0.105000	-1.281013
0.105100	-1.314770
0.105200	-1.346254
0.105300	-1.332297
0.105400	-1.268355
0.105500	-1.273548
0.105600	-1.323209
0.105700	-1.305357
0.105800	-1.265758
0.105900	-1.239142
0.106000	-1.216097
0.106100	-1.374493
0.106200	-1.425452
0.106300	-1.424803
0.106400	-1.287505
0.106500	-1.268030
0.106600	-1.342035
0.106700	-1.348851
0.106800	-1.337491
0.106900	-1.340087
0.107000	-1.340736
0.107100	-1.364756
0.107200	-1.368975
0.107300	-1.413767
0.107400	-1.440708
0.107500	-1.466350
0.107600	-1.489395
0.107700	-1.536460
0.107800	-1.578655
0.107900	-1.586121
0.108000	-1.590665
0.108100	-1.680250
0.108200	-1.720498
0.108300	-1.751658
0.108400	-1.908756
0.108500	-2.146675
0.108600	-2.248919
0.108700	-1.942188
0.108800	-1.733481
0.108900	-1.609815
0.109000	-1.826637
0.109100	-2.196986
0.109200	-2.330389
0.109300	-2.203153
0.109400	-1.956470
0.109500	-1.830207
0.109600	-1.903887
0.109700	-2.065854
0.109800	-2.204451
0.109900	-2.156737
0.110000	-2.054169
0.110100	-1.957443
0.110200	-1.984708
0.110300	-2.014245
0.110400	-1.998990
0.110500	-1.975945
0.110600	-1.943486
0.110700	-1.925959
0.110800	-1.945434
0.110900	-2.010675
0.111000	-1.916221
0.111100	-1.927582
0.111200	-1.901291
0.111300	-1.943162
0.111400	-1.946408
0.111500	-1.863964
0.111600	-1.695505
0.111700	-1.614035
0.111800	-1.725042
0.111900	-1.896097
0.112000	-2.063907
0.112100	-1.966532
0.112200	-1.679601
0.112300	-1.509519
0.112400	-1.537433
0.112500	-1.720498
0.112600	-1.902913
0.112700	-1.894474
0.112800	-1.726016
0.112900	-1.560479
0.113000	-1.507896
0.113100	-1.564049
0.113200	-1.596507
0.113300	-1.584173
0.113400	-1.538732
0.113500	-1.490044
0.113600	-1.467324
0.113700	-1.433892
0.113800	-1.327753
0.113900	-1.196946
0.114000	-1.152803
0.114100	-1.171954
0.114200	-1.208307
0.114300	-1.227133
0.114400	-1.131056
0.114500	-1.039849
0.114600	-1.049262
0.114700	-0.844126
0.114800	-0.937605
0.114900	-0.935658
0.115000	-0.922025
0.115100	-0.851267
0.115200	-0.806799
0.115300	-0.756489
0.115400	-0.759734
0.115500	-0.809720
0.115600	-0.825949
0.115700	-0.902550
0.115800	-0.914560
0.115900	-0.923973
0.116000	-0.930140
0.116100	-0.912288
0.116200	-0.988240
0.116300	-0.932737
0.116400	-1.061271
0.116500	-0.982073
0.116600	-1.057052
0.116700	-0.890216
0.116800	-0.710723
0.116900	-0.620164
0.117000	-0.720135
0.117100	-1.236221
0.117200	-1.235247
0.117300	-1.126837
0.117400	-0.770446
0.117500	-0.652622
0.117600	-0.770121
0.117700	-0.941176
0.117800	-1.164164
0.117900	-1.058674
0.118000	-0.837959
0.118100	-0.730847
0.118200	-0.670474
0.118300	-0.785376
0.118400	-0.854188
0.118500	-0.903849
0.118600	-0.908393
0.118700	-0.863925
0.118800	-0.909042
0.118900	-0.926245
0.119000	-0.946694
0.119100	-0.929815
0.119200	-1.088211
0.119300	-1.166436
0.119400	-1.191753
0.119500	-1.224211
0.119600	-1.181691
0.119700	-1.149233
0.119800	-1.083018
0.119900	-1.252125
0.120000	-1.432269
0.120100	-1.472517
0.120200	-1.348526
0.120300	-1.157672
0.120400	-1.045042
0.120500	-1.226159
0.120600	-1.457911
0.120700	-1.552364
0.120800	-1.417662
0.120900	-1.191104
0.121000	-1.108985
0.121100	-1.232975
0.121200	-1.342035
0.121300	-1.393319
0.121400	-1.309577
0.121500	-1.274522
0.121600	-1.201815
0.121700	-1.255371
0.121800	-1.296269
0.121900	-1.350474
0.122000	-1.267381
0.122100	-1.238493
0.122200	-1.268679
0.122300	-1.296593
0.122400	-1.259266
0.122500	-1.191104
0.122600	-1.157997
0.122700	-1.217720
0.122800	-1.368326
0.122900	-1.368651
0.123000	-1.298865
0.123100	-1.187858
0.123200	-1.192402
0.123300	-1.251801
0.123400	-1.237195
0.123500	-1.226483
0.123600	-1.224211
0.123700	-1.197920
0.123800	-1.205061
0.123900	-1.200841
0.124000	-1.192727
0.124100	-1.181042
0.124200	-1.166436
0.124300	-1.197271
0.124400	-1.154426
0.124500	-1.151830
0.124600	-1.157023
0.124700	-1.199219
0.124800	-1.209281
0.124900	-1.254398
0.125000	-1.278092
0.125100	-1.492316
0.125200	-1.778274
0.125300	-1.690636
0.125400	-1.493290
0.125500	-1.301462
0.125600	-1.373519
0.125700	-1.691286
0.125800	-1.929854
0.125900	-1.954198
0.126000	-1.797749
0.126100	-1.639352
0.126200	-1.590340
0.126300	-1.759448
0.126400	-1.947706
0.126500	-1.990551
0.126600	-1.957119
0.126700	-1.848059
0.126800	-1.868508
0.126900	-1.860069
0.127000	-1.895773
0.127100	-1.906159
0.127200	-1.886684
0.127300	-1.906808
0.127400	-1.920116
0.127500	-1.948355
0.127600	-1.933749
0.127700	-1.924011
0.127800	-1.887658
0.127900	-1.928556
0.128000	-1.960365
0.128100	-1.940241
0.128200	-1.890904
0.128300	-1.696803
0.128400	-1.740947
0.128500	-1.872078
0.128600	-2.070398
0.128700	-2.157062
0.128800	-1.990226
0.128900	-1.765940
0.129000	-1.657204
0.129100	-1.764317
0.129200	-1.991200
0.129300	-2.140508
0.129400	-2.085978
0.129500	-1.899018
0.129600	-1.777949
0.129700	-1.775028
0.129800	-1.831830
0.129900	-1.867209
0.130000	-1.843190
0.130100	-1.813978
0.130200	-1.770808
0.130300	-1.704918
0.130400	-1.626044
0.130500	-1.461481
0.130600	-1.412469
0.130700	-1.393319
0.130800	-1.405977
0.130900	-1.372870
0.131000	-1.358588
0.131100	-1.220641
0.131200	-1.136574
0.131300	-1.132355
0.131400	-0.970388
0.131500	-0.997328
0.131600	-0.998951
0.131700	-0.953185
0.131800	-0.902875
0.131900	-0.806474
0.132000	-0.763954
0.132100	-0.794789
0.132200	-0.835362
0.132300	-0.925596
0.132400	-0.884049
0.132500	-0.983047
0.132600	-0.916508
0.132700	-0.975581
0.132800	-0.935333
0.132900	-1.037901
0.133000	-1.017777
0.133100	-1.104765
0.133200	-1.114178
0.133300	-1.033032
0.133400	-0.877233
0.133500	-0.580565
0.133600	-0.588031
0.133700	-0.917806
0.133800	-1.255047
0.133900	-1.227133
0.134000	-0.876584
0.134100	-0.675668
0.134200	-0.487735
0.134300	-0.691572
0.134400	-0.857109
0.134500	-0.953185
0.134600	-0.844775
0.134700	-0.654245
0.134800	-0.581539
0.134900	-0.513377
0.135000	-0.675019
0.135100	-0.652622
0.135200	-0.742856
0.135300	-0.741558
0.135400	-0.765577
0.135500	-0.733119
0.135600	-0.758761
0.135700	-0.784403
0.135800	-0.742532
0.135900	-0.954484
0.136000	-0.985643
0.136100	-1.017453
0.136200	-1.035629
0.136300	-0.974608
0.136400	-0.923648
0.136500	-0.940202
0.136600	-1.118722
0.136700	-1.331648
0.136800	-1.276145
0.136900	-1.096001
0.137000	-0.914235
0.137100	-0.955782
0.137200	-1.199868
0.137300	-1.450445
0.137400	-1.405977
0.137500	-1.230054
0.137600	-1.027190
0.137700	-1.063219
0.137800	-1.258942
0.137900	-1.392994
0.138000	-1.344631
0.138100	-1.293023
0.138200	-1.244335
0.138300	-1.277443
0.138400	-1.312822
0.138500	-1.380011
0.138600	-1.373844
0.138700	-1.286856
0.138800	-1.303734
0.138900	-1.343982
0.139000	-1.353395
0.139100	-1.281987
0.139200	-1.272250
0.139300	-1.219343
0.139400	-1.330350
0.139500	-1.434541
0.139600	-1.393643
0.139700	-1.318665
0.139800	-1.122617
0.139900	-1.172278
0.140000	-1.157997
0.140100	-1.134302
0.140200	-1.138846
0.140300	-1.132679
0.140400	-1.114503
0.140500	-1.093405
0.140600	-1.102818
0.140700	-1.097300
0.140800	-1.108011
0.140900	-1.115152
0.141000	-1.141443
0.141100	-1.162216
0.141200	-1.149233
0.141300	-1.132030
0.141400	-1.133004
0.141500	-1.170331
0.141600	-1.157347
0.141700	-1.211553
0.141800	-1.465051
0.141900	-1.622799
0.142000	-1.450770
0.142100	-1.194674
0.142200	-1.087238
0.142300	-1.270627
0.142400	-1.569242
0.142500	-1.797749
0.142600	-1.723419
0.142700	-1.560803
0.142800	-1.438111
0.142900	-1.523476
0.143000	-1.713033
0.143100	-1.907458
0.143200	-1.929529
0.143300	-1.843515
0.143400	-1.764966
0.143500	-1.805539
0.143600	-1.895773
0.143700	-1.939267
0.143800	-1.908431
0.143900	-1.910703
0.144000	-1.899668
0.144100	-1.942513
0.144200	-2.011324
0.144300	-1.994121
0.144400	-1.981138
0.144500	-1.913949
0.144600	-1.991849
0.144700	-2.020412
0.144800	-2.039887
0.144900	-1.888956
0.145000	-1.767238
0.145100	-1.850331
0.145200	-2.042160
0.145300	-2.252489
0.145400	-2.270991
0.145500	-2.006131
0.145600	-1.779897
0.145700	-1.731534
0.145800	-1.916221
0.145900	-2.141157
0.146000	-2.207697
0.146100	-2.043458
0.146200	-1.798722
0.146300	-1.690312
0.146400	-1.721796
0.146500	-1.798722
0.146600	-1.816899
0.146700	-1.781195
0.146800	-1.740947
0.146900	-1.675056
0.147000	-1.643247
0.147100	-1.571839
0.147200	-1.468946
0.147300	-1.407600
0.147400	-1.397214
0.147500	-1.416040
0.147600	-1.423180
0.147700	-1.389748
0.147800	-1.234598
0.147900	-1.188832
0.148000	-1.023295
0.148100	-1.066140
0.148200	-1.068737
0.148300	-1.069061
0.148400	-0.998627
0.148500	-0.972336
0.148600	-0.865548
0.148700	-0.862302
0.148800	-0.900928
0.148900	-1.021023
0.149000	-1.044068
0.149100	-1.068412
0.149200	-1.097624
0.149300	-1.092756
0.149400	-1.048937
0.149500	-1.107037
0.149600	-1.104441
0.149700	-1.156374
0.149800	-1.274846
0.149900	-1.218369
0.150000	-1.260889
0.150100	-0.985319
0.150200	-0.886646
0.150300	-0.795763
0.150400	-1.274522
0.150500	-1.451094
0.150600	-1.320937
0.150700	-1.127161
0.150800	-0.883400
0.150900	-0.921052
0.151000	-1.073281
0.151100	-1.230703
0.151200	-1.210254
0.151300	-1.047963
0.151400	-0.872040
0.151500	-0.813940
0.151600	-0.894111
0.151700	-0.912613
0.151800	-1.001223
0.151900	-0.947343
0.152000	-0.904498
0.152100	-0.896383
0.152200	-0.902550
0.152300	-0.921052
0.152400	-0.887295
0.152500	-0.975906
0.152600	-0.989538
0.152700	-1.036927
0.152800	-0.989214
0.152900	-0.950589
0.153000	-0.744154
0.153100	-0.708775
0.153200	-0.667229
0.153300	-0.937281
0.153400	-0.995056
0.153500	-0.892813
0.153600	-0.726302
0.153700	-0.483515
0.153800	-0.662684
0.153900	-0.898980
0.154000	-1.123591
0.154100	-1.063543
0.154200	-0.841204
0.154300	-0.684756
0.154400	-0.735066
0.154500	-0.924297
0.154600	-1.053806
0.154700	-1.012259
0.154800	-1.003171
0.154900	-0.900928
0.155000	-0.947667
0.155100	-0.984345
0.155200	-1.045691
0.155300	-1.039200
0.155400	-0.990188
0.155500	-0.992135
0.155600	-1.010312
0.155700	-0.989863
0.155800	-0.949939
0.155900	-0.927868
0.156000	-0.936307
0.156100	-1.029137
0.156200	-1.098923
0.156300	-1.061596
0.156400	-0.973634
0.156500	-0.898655
0.156600	-0.957729
0.156700	-0.952861
0.156800	-0.955782
0.156900	-0.985319
0.157000	-0.978827
0.157100	-0.992784
0.157200	-0.995706
0.157300	-1.024269
0.157400	-1.027839
0.157500	-1.034980
0.157600	-1.076851
0.157700	-1.081071
0.157800	-1.109634
0.157900	-1.132355
0.158000	-1.142417
0.158100	-1.165462
0.158200	-1.218369
0.158300	-1.246283
0.158400	-1.419285
0.158500	-1.690961
0.158600	-1.746465
0.158700	-1.455639
0.158800	-1.243362
0.158900	-1.243362
0.159000	-1.462779
0.159100	-1.855200
0.159200	-1.924661
0.159300	-1.866236
0.159400	-1.626369
0.159500	-1.553013
0.159600	-1.603324
0.159700	-1.822092
0.159800	-1.954847
0.159900	-1.935372
0.160000	-1.852279
0.160100	-1.780546
0.160200	-1.779897
0.160300	-1.814302
0.160400	-1.833128
0.160500	-1.789634
0.160600	-1.745815
0.160700	-1.756202
0.160800	-1.766913
0.160900	-1.791257
0.161000	-1.730560
0.161100	-1.687391
0.161200	-1.637080
0.161300	-1.659152
0.161400	-1.649739
0.161500	-1.571515
0.161600	-1.403056
0.161700	-1.306980
0.161800	-1.488097
0.161900	-1.679601
0.162000	-1.817548
0.162100	-1.700374
0.162200	-1.439085
0.162300	-1.253748
0.162400	-1.256670
0.162500	-1.441032
0.162600	-1.616307
0.162700	-1.591963
0.162800	-1.430321
0.162900	-1.243686
0.163000	-1.191104
0.163100	-1.213825
0.163200	-1.266732
0.163300	-1.301787
0.163400	-1.247906
0.163500	-1.255371
0.163600	-1.182665
0.163700	-1.165137
0.163800	-1.064842
0.163900	-0.976555
0.164000	-0.980126
0.164100	-0.989538
0.164200	-1.036603
0.164300	-1.116126
0.164400	-1.026541
0.164500	-0.939877
0.164600	-0.965519
0.164700	-0.794465
0.164800	-0.927219
0.164900	-0.935333
0.165000	-0.937930
0.165100	-0.893787
0.165200	-0.857109
0.165300	-0.821080
0.165400	-0.819133
0.165500	-0.847696
0.165600	-0.960975
0.165700	-0.944422
0.165800	-1.080421
0.165900	-1.053157
0.166000	-1.114827
0.166100	-1.108011
0.166200	-1.164813
0.166300	-1.219343
0.166400	-1.259591
0.166500	-1.348526
0.166600	-1.277118
0.166700	-1.164164
0.166800	-0.974608
0.166900	-0.668851
0.167000	-1.075877
0.167100	-1.332297
0.167200	-1.546846
0.167300	-1.192402
0.167400	-0.991161
0.167500	-0.695467
0.167600	-0.842178
0.167700	-1.065815
0.167800	-1.272574
0.167900	-1.257643
0.168000	-1.057052
0.168100	-0.930789
0.168200	-0.838932
0.168300	-1.014207
0.168400	-1.033682
0.168500	-1.070359
0.168600	-1.128460
0.168700	-1.060622
0.168800	-1.091782
0.168900	-1.120020
0.169000	-1.170006
0.169100	-1.122942
0.169200	-1.312498
0.169300	-1.387801
0.169400	-1.369949
0.169500	-1.419935
0.169600	-1.304059
0.169700	-1.301787
0.169800	-1.206035
0.169900	-1.417987
0.170000	-1.619228
0.170100	-1.609815
0.170200	-1.488746
0.170300	-1.219018
0.170400	-1.188183
0.170500	-1.298216
0.170600	-1.616307
0.170700	-1.661749
0.170800	-1.541653
0.170900	-1.308278
0.171000	-1.227133
0.171100	-1.312822
0.171200	-1.431619
0.171300	-1.457262
0.171400	-1.368975
0.171500	-1.344307
0.171600	-1.293347
0.171700	-1.350149
0.171800	-1.408250
0.171900	-1.414092
0.172000	-1.357939
0.172100	-1.330999
0.172200	-1.376765
0.172300	-1.417987
0.172400	-1.357615
0.172500	-1.312822
0.172600	-1.281662
0.172700	-1.320288
0.172800	-1.495887
0.172900	-1.505949
0.173000	-1.473815
0.173100	-1.296593
0.173200	-1.341386
0.173300	-1.427400
0.173400	-1.406302
0.173500	-1.417987
0.173600	-1.417987
0.173700	-1.378388
0.173800	-1.354369
0.173900	-1.333920
0.174000	-1.308927
0.174100	-1.261863
0.174200	-1.202789
0.174300	-1.218693
0.174400	-1.178121
0.174500	-1.201166
0.174600	-1.202464
0.174700	-1.192727
0.174800	-1.271276
0.174900	-1.245958
0.175000	-1.351772
0.175100	-1.531591
0.175200	-1.851954
0.175300	-1.778598
0.175400	-1.515686
0.175500	-1.358913
0.175600	-1.382608
0.175700	-1.767562
0.175800	-2.022685
0.175900	-2.111945
0.176000	-1.962637
0.176100	-1.799047
0.176200	-1.780870
0.176300	-1.922388
0.176400	-2.080785
0.176500	-2.170370
0.176600	-2.113568
0.176700	-2.007105
0.176800	-1.982112
0.176900	-2.000938
0.177000	-1.996069
0.177100	-1.973997
0.177200	-1.935372
0.177300	-1.899343
0.177400	-1.903563
0.177500	-1.990226
0.177600	-1.953548
0.177700	-1.923687
0.177800	-1.903887
0.177900	-1.864288
0.178000	-1.934398
0.178100	-1.909730
0.178200	-1.834102
0.178300	-1.646818
0.178400	-1.651037
0.178500	-1.788011
0.178600	-1.985033
0.178700	-2.060661
0.178800	-1.887333
0.178900	-1.624097
0.179000	-1.532889
0.179100	-1.653309
0.179200	-1.852928
0.179300	-1.967505
0.179400	-1.876298
0.179500	-1.742570
0.179600	-1.626369
0.179700	-1.612737
0.179800	-1.658178
0.179900	-1.698426
0.180000	-1.692584
0.180100	-1.658827
0.180200	-1.606894
0.180300	-1.582875
0.180400	-1.540679
0.180500	-1.422207
0.180600	-1.305357
0.180700	-1.278092
0.180800	-1.321261
0.180900	-1.277767
0.181000	-1.317042
0.181100	-1.145987
0.181200	-1.096975
0.181300	-0.972011
0.181400	-0.936632
0.181500	-1.003820
0.181600	-1.030111
0.181700	-0.995381
0.181800	-0.969414
0.181900	-0.934035
0.182000	-0.909691
0.182100	-0.962923
0.182200	-1.062894
0.182300	-1.145013
0.182400	-1.152803
0.182500	-1.276145
0.182600	-1.240116
0.182700	-1.299514
0.182800	-1.284584
0.182900	-1.415715
0.183000	-1.445252
0.183100	-1.574111
0.183200	-1.550092
0.183300	-1.558856
0.183400	-1.356316
0.183500	-1.158321
0.183600	-1.172603
0.183700	-1.481605
0.183800	-1.894799
0.183900	-1.714331
0.184000	-1.582550
0.184100	-1.209605
0.184200	-1.231028
0.184300	-1.262512
0.184400	-1.481281
0.184500	-1.541328
0.184600	-1.414417
0.184700	-1.327753
0.184800	-1.197920
0.184900	-1.172603
0.185000	-1.215448
0.185100	-1.201166
0.185200	-1.232651
0.185300	-1.224536
0.185400	-1.256994
0.185500	-1.210579
0.185600	-1.226159
0.185700	-1.144040
0.185800	-1.260240
0.185900	-1.205386
0.186000	-1.296269
0.186100	-1.273872
0.186200	-1.210254
0.186300	-1.146636
0.186400	-1.072307
0.186500	-1.072956
0.186600	-1.171954
0.186700	-1.418636
0.186800	-1.341386
0.186900	-1.100546
0.187000	-0.871715
0.187100	-0.872040
0.187200	-1.100870
0.187300	-1.309577
0.187400	-1.257643
0.187500	-1.047314
0.187600	-0.875610
0.187700	-0.901252
0.187800	-1.078799
0.187900	-1.146961
0.188000	-1.107037
0.188100	-1.101844
0.188200	-1.105414
0.188300	-1.186884
0.188400	-1.273872
0.188500	-1.309901
0.188600	-1.288479
0.188700	-1.268355
0.188800	-1.320937
0.188900	-1.404679
0.189000	-1.446226
0.189100	-1.414417
0.189200	-1.392020
0.189300	-1.424154
0.189400	-1.559180
0.189500	-1.702321
0.189600	-1.688364
0.189700	-1.656555
0.189800	-1.596507
0.189900	-1.547495
0.190000	-1.566321
0.190100	-1.553013
0.190200	-1.555610
0.190300	-1.551066
0.190400	-1.553013
0.190500	-1.545548
0.190600	-1.538407
0.190700	-1.523801
0.190800	-1.505949
0.190900	-1.473815
0.191000	-1.452068
0.191100	-1.441357
0.191200	-1.401433
0.191300	-1.430321
0.191400	-1.427075
0.191500	-1.482904
0.191600	-1.455639
0.191700	-1.534188
0.191800	-1.799372
0.191900	-1.912002
0.192000	-1.770484
0.192100	-1.487448
0.192200	-1.384880
0.192300	-1.511467
0.192400	-1.761395
0.192500	-1.936346
0.192600	-1.847410
0.192700	-1.648765
0.192800	-1.500431
0.192900	-1.502054
0.193000	-1.644870
0.193100	-1.766589
0.193200	-1.749061
0.193300	-1.662073
0.193400	-1.626369
0.193500	-1.615009
0.193600	-1.617930
0.193700	-1.625071
0.193800	-1.619877
0.193900	-1.602025
0.194000	-1.605596
0.194100	-1.647467
0.194200	-1.658178
0.194300	-1.713357
0.194400	-1.702970
0.194500	-1.716278
0.194600	-1.732183
0.194700	-1.788336
0.194800	-1.821119
0.194900	-1.683171
0.195000	-1.604947
0.195100	-1.632536
0.195200	-1.865911
0.195300	-2.037291
0.195400	-2.072021
0.195500	-1.844813
0.195600	-1.626369
0.195700	-1.651037
0.195800	-1.908107
0.195900	-2.124279
0.196000	-2.163229
0.196100	-2.006131
0.196200	-1.844813
0.196300	-1.826312
0.196400	-1.873701
0.196500	-1.895773
0.196600	-1.860393
0.196700	-1.783467
0.196800	-1.777949
0.196900	-1.742570
0.197000	-1.687391
0.197100	-1.595209
0.197200	-1.426426
0.197300	-1.321586
0.197400	-1.274197
0.197500	-1.255047
0.197600	-1.222588
0.197700	-1.148584
0.197800	-0.978178
0.197900	-0.893462
0.198000	-0.688976
0.198100	-0.758111
0.198200	-0.754541
0.198300	-0.748049
0.198400	-0.677615
0.198500	-0.638665
0.198600	-0.581864
0.198700	-0.564985
0.198800	-0.636393
0.198900	-0.700985
0.199000	-0.769472
0.199100	-0.805176
0.199200	-0.834064
0.199300	-0.866197
0.199400	-0.880154
0.199500	-0.919753
0.199600	-0.958054
0.199700	-1.071009
0.199800	-1.129109
0.199900	-1.144040
0.200000	-1.033682
0.200100	-0.828870
0.200200	-0.674045
0.200300	-0.749348
0.200400	-1.217395
0.200500	-1.358264
0.200600	-1.235896
0.200700	-0.850617
0.200800	-0.768498
0.200900	-0.622761
0.201000	-0.843801
0.201100	-0.975257
0.201200	-0.969739
0.201300	-0.756489
0.201400	-0.592250
0.201500	-0.520518
0.201600	-0.484814
0.201700	-0.571801
0.201800	-0.610102
0.201900	-0.607505
0.202000	-0.610427
0.202100	-0.593224
0.202200	-0.605883
0.202300	-0.630226
0.202400	-0.702608
0.202500	-0.716890
0.202600	-0.902550
0.202700	-0.827572
0.202800	-0.947667
0.202900	-0.959677
0.203000	-0.919104
0.203100	-0.936307
0.203200	-0.943123
0.203300	-1.251152
0.203400	-1.357939
0.203500	-1.268355
0.203600	-1.033357
0.203700	-0.934684
0.203800	-1.029462
0.203900	-1.321261
0.204000	-1.461157
0.204100	-1.307954
0.204200	-1.035305
0.204300	-0.920078
0.204400	-0.997004
0.204500	-1.164488
0.204600	-1.185586
0.204700	-1.057376
0.204800	-1.046016
0.204900	-0.945395
0.205000	-1.014207
0.205100	-1.009338
0.205200	-0.993433
0.205300	-0.922675
0.205400	-0.845424
0.205500	-0.839582
0.205600	-0.831792
0.205700	-0.779209
0.205800	-0.725004
0.205900	-0.651324
0.206000	-0.669176
0.206100	-0.850942
0.206200	-0.904498
0.206300	-0.899629
0.206400	-0.900603
0.206500	-0.912613
0.206600	-0.892488
0.206700	-0.871715
0.206800	-0.919429
0.206900	-0.948966
0.207000	-0.997978
0.207100	-1.056727
0.207200	-1.129109
0.207300	-1.180393
0.207400	-1.259266
0.207500	-1.293347
0.207600	-1.330999
0.207700	-1.361510
0.207800	-1.392994
0.207900	-1.458235
0.208000	-1.507896
0.208100	-1.557233
0.208200	-1.614684
0.208300	-1.579305
0.208400	-1.813329
0.208500	-2.008403
0.208600	-2.098962
0.208700	-1.856174
0.208800	-1.609166
0.208900	-1.595209
0.209000	-1.743543
0.209100	-2.090847
0.209200	-2.113243
0.209300	-2.047677
0.209400	-1.837997
0.209500	-1.759123
0.209600	-1.828909
0.209700	-1.993797
0.209800	-2.130771
0.209900	-2.064231
0.210000	-2.008403
0.210100	-1.948680
0.210200	-1.980164
0.210300	-1.987954
0.210400	-1.987954
0.210500	-1.976594
0.210600	-1.946732
0.210700	-1.931801
0.210800	-1.889281
0.210900	-1.954847
0.211000	-1.955171
0.211100	-1.852928
0.211200	-1.815925
0.211300	-1.770159
0.211400	-1.776326
0.211500	-1.718875
0.211600	-1.597806
0.211700	-1.482904
0.211800	-1.604947
0.211900	-1.878894
0.212000	-1.995420
0.212100	-1.932775
0.212200	-1.678627
0.212300	-1.516336
0.212400	-1.609166
0.212500	-1.879219
0.212600	-2.063907
0.212700	-2.030150
0.212800	-1.804240
0.212900	-1.657204
0.213000	-1.631238
0.213100	-1.688689
0.213200	-1.723095
0.213300	-1.737701
0.213400	-1.698102
0.213500	-1.675056
0.213600	-1.621176
0.213700	-1.579954
0.213800	-1.497185
0.213900	-1.380985
0.214000	-1.353395
0.214100	-1.354369
0.214200	-1.338464
0.214300	-1.373844
0.214400	-1.255047
0.214500	-1.153452
0.214600	-1.085290
0.214700	-0.941176
0.214800	-1.019725
0.214900	-1.058350
0.215000	-1.057052
0.215100	-1.010961
0.215200	-0.945395
0.215300	-0.901577
0.215400	-0.919753
0.215500	-1.027190
0.215600	-1.060622
0.215700	-1.083343
0.215800	-1.090484
0.215900	-1.091457
0.216000	-1.100221
0.216100	-1.108660
0.216200	-1.156374
0.216300	-1.135925
0.216400	-1.300488
0.216500	-1.233949
0.216600	-1.306006
0.216700	-1.100221
0.216800	-0.918130
0.216900	-0.862951
0.217000	-1.009338
0.217100	-1.493939
0.217200	-1.505949
0.217300	-1.320612
0.217400	-1.071982
0.217500	-1.021672
0.217600	-1.059324
0.217700	-1.279715
0.217800	-1.355667
0.217900	-1.350474
0.218000	-1.127486
0.218100	-1.107686
0.218200	-0.976555
0.218300	-1.168383
0.218400	-1.202789
0.218500	-1.259591
0.218600	-1.298541
0.218700	-1.268679
0.218800	-1.250827
0.218900	-1.262837
0.219000	-1.232975
0.219100	-1.282961
0.219200	-1.401758
0.219300	-1.367352
0.219400	-1.417013
0.219500	-1.416689
0.219600	-1.340412
0.219700	-1.323209
0.219800	-1.315419
0.219900	-1.463753
0.220000	-1.683496
0.220100	-1.726665
0.220200	-1.515362
0.220300	-1.306006
0.220400	-1.270951
0.220500	-1.447849
0.220600	-1.721147
0.220700	-1.742570
0.220800	-1.554961
0.220900	-1.311849
0.221000	-1.263810
0.221100	-1.413443
0.221200	-1.468622
0.221300	-1.449147
0.221400	-1.424803
0.221500	-1.406302
0.221600	-1.387801
0.221700	-1.404355
0.221800	-1.418961
0.221900	-1.409548
0.222000	-1.378713
0.222100	-1.396240
0.222200	-1.432269
0.222300	-1.452393
0.222400	-1.394617
0.222500	-1.361185
0.222600	-1.345930
0.222700	-1.408899
0.222800	-1.504326
0.222900	-1.492316
0.223000	-1.434541
0.223100	-1.376440
0.223200	-1.220966
0.223300	-1.240765
0.223400	-1.201166
0.223500	-1.164488
0.223600	-1.162865
0.223700	-1.134627
0.223800	-1.133328
0.223900	-1.147610
0.224000	-1.175524
0.224100	-1.181042
0.224200	-1.193376
0.224300	-1.217395
0.224400	-1.256345
0.224500	-1.267381
0.224600	-1.323209
0.224700	-1.339763
0.224800	-1.388450
0.224900	-1.438436
0.225000	-1.458884
0.225100	-1.706216
0.225200	-1.905186
0.225300	-1.837672
0.225400	-1.531591
0.225500	-1.408574
0.225600	-1.472841
0.225700	-1.668565
0.225800	-1.943162
0.225900	-1.911677
0.226000	-1.755553
0.226100	-1.550092
0.226200	-1.527696
0.226300	-1.664670
0.226400	-1.829558
0.226500	-1.900641
0.226600	-1.824040
0.226700	-1.730235
0.226800	-1.711085
0.226900	-1.721472
0.227000	-1.744517
0.227100	-1.751658
0.227200	-1.757500
0.227300	-1.793529
0.227400	-1.819820
0.227500	-1.818522
0.227600	-1.842216
0.227700	-1.828259
0.227800	-1.806837
0.227900	-1.825663
0.228000	-1.886684
0.228100	-1.904536
0.228200	-1.808460
0.228300	-1.669214
0.228400	-1.638054
0.228500	-1.837997
0.228600	-2.059687
0.228700	-2.106427
0.228800	-1.942837
0.228900	-1.677328
0.229000	-1.618904
0.229100	-1.788011
0.229200	-2.043133
0.229300	-2.156413
0.229400	-2.079162
0.229500	-1.927257
0.229600	-1.885061
0.229700	-1.902264
0.229800	-1.932451
0.229900	-1.943811
0.230000	-1.936346
0.230100	-1.966856
0.230200	-1.968804
0.230300	-1.926608
0.230400	-1.870131
0.230500	-1.761395
0.230600	-1.680899
0.230700	-1.683496
0.230800	-1.716278
0.230900	-1.747438
0.231000	-1.752956
0.231100	-1.610140
0.231200	-1.543276
0.231300	-1.364431
0.231400	-1.448173
0.231500	-1.505624
0.231600	-1.521204
0.231700	-1.461157
0.231800	-1.404679
0.231900	-1.347877
0.232000	-1.339763
0.232100	-1.326455
0.232200	-1.389099
0.232300	-1.387801
0.232400	-1.431295
0.232500	-1.432269
0.232600	-1.466674
0.232700	-1.396565
0.232800	-1.443954
0.232900	-1.383581
0.233000	-1.432593
0.233100	-1.473815
0.233200	-1.479658
0.233300	-1.441032
0.233400	-1.219992
0.233500	-0.988889
0.233600	-0.917157
0.233700	-1.178445
0.233800	-1.509195
0.233900	-1.319963
0.234000	-1.162865
0.234100	-0.891839
0.234200	-0.867496
0.234300	-0.997653
0.234400	-1.139495
0.234500	-1.264460
0.234600	-1.055429
0.234700	-0.957080
0.234800	-0.800307
0.234900	-0.876584
0.235000	-0.995381
0.235100	-1.058999
0.235200	-1.036278
0.235300	-1.041796
0.235400	-0.992784
0.235500	-1.020698
0.235600	-1.054455
0.235700	-1.031410
0.235800	-1.098273
0.235900	-1.199868
0.236000	-1.195973
0.236100	-1.317691
0.236200	-1.331648
0.236300	-1.273548
0.236400	-1.260565
0.236500	-1.176498
0.236600	-1.356316
0.236700	-1.575734
0.236800	-1.522178
0.236900	-1.314121
0.237000	-1.106063
0.237100	-1.129433
0.237200	-1.376116
0.237300	-1.571515
0.237400	-1.484851
0.237500	-1.234273
0.237600	-1.073281
0.237700	-1.111257
0.237800	-1.237195
0.237900	-1.311849
0.238000	-1.240441
0.238100	-1.239142
0.238200	-1.173252
0.238300	-1.246283
0.238400	-1.263810
0.238500	-1.281662
0.238600	-1.240765
0.238700	-1.189806
0.238800	-1.191753
0.238900	-1.232975
0.239000	-1.220641
0.239100	-1.159295
0.239200	-1.121319
0.239300	-1.107362
0.239400	-1.239467
0.239500	-1.359238
0.239600	-1.329376
0.239700	-1.289452
0.239800	-1.161242
0.239900	-1.204087
0.240000	-1.226159
0.240100	-1.191429
0.240200	-1.212202
0.240300	-1.205386
0.240400	-1.182340
0.240500	-1.181367
0.240600	-1.185911
0.240700	-1.165462
0.240800	-1.158970
0.240900	-1.161242
0.241000	-1.176173
0.241100	-1.173252
0.241200	-1.155400
0.241300	-1.166111
0.241400	-1.164488
0.241500	-1.234273
0.241600	-1.293997
0.241700	-1.344956
0.241800	-1.649414
0.241900	-1.729911
0.242000	-1.644221
0.242100	-1.300488
0.242200	-1.282961
0.242300	-1.411495
0.242400	-1.762369
0.242500	-1.961014
0.242600	-1.910054
0.242700	-1.706216
0.242800	-1.522178
0.242900	-1.582226
0.243000	-1.780870
0.243100	-1.969778
0.243200	-1.986331
0.243300	-1.913300
0.243400	-1.868508
0.243500	-1.886360
0.243600	-1.915897
0.243700	-1.951925
0.243800	-1.963935
0.243900	-1.960365
0.244000	-2.024957
0.244100	-2.049625
0.244200	-2.107725
0.244300	-2.181406
0.244400	-2.125902
0.244500	-2.170370
0.244600	-2.171668
0.244700	-2.229119
0.244800	-2.210618
0.244900	-2.112919
0.245000	-1.991200
0.245100	-2.041186
0.245200	-2.283325
0.245300	-2.436528
0.245400	-2.479049
0.245500	-2.229444
0.245600	-1.991849
0.245700	-1.980813
0.245800	-2.193415
0.245900	-2.406666
0.246000	-2.443994
0.246100	-2.291439
0.246200	-2.143754
0.246300	-2.101558
0.246400	-2.118112
0.246500	-2.170694
0.246600	-2.144728
0.246700	-2.123954
0.246800	-2.121682
0.246900	-2.086627
0.247000	-2.068126
0.247100	-1.986656
0.247200	-1.915897
0.247300	-1.808135
0.247400	-1.820469
0.247500	-1.824364
0.247600	-1.806188
0.247700	-1.778923
0.247800	-1.597806
0.247900	-1.480631
0.248000	-1.376765
0.248100	-1.471543
0.248200	-1.459858
0.248300	-1.448173
0.248400	-1.394293
0.248500	-1.376116
0.248600	-1.305032
0.248700	-1.281338
0.248800	-1.317367
0.248900	-1.379362
0.249000	-1.467973
0.249100	-1.404355
0.249200	-1.514388
0.249300	-1.413118
0.249400	-1.478035
0.249500	-1.412794
0.249600	-1.434541
0.249700	-1.453691
0.249800	-1.473166
0.249900	-1.427400
0.250000	-1.331324
0.250100	-1.127161
0.250200	-0.940202
0.250300	-1.021672
0.250400	-1.417662
0.250500	-1.617605
0.250600	-1.451744
0.250700	-1.146636
0.250800	-0.960002
0.250900	-0.973959
0.251000	-1.124565
0.251100	-1.343009
0.251200	-1.294970
0.251300	-1.174226
0.251400	-0.932087
0.251500	-0.866522
0.251600	-0.862302
0.251700	-0.903200
0.251800	-0.943123
0.251900	-0.881453
0.252000	-0.910016
0.252100	-0.836660
0.252200	-0.831792
0.252300	-0.821080
0.252400	-0.754217
0.252500	-0.874636
0.252600	-0.854188
0.252700	-0.898655
0.252800	-0.842827
0.252900	-0.904823
0.253000	-0.764279
0.253100	-0.771744
0.253200	-0.845099
0.253300	-0.989538
0.253400	-1.150531
0.253500	-1.046340
0.253600	-0.857434
0.253700	-0.713319
0.253800	-0.840231
0.253900	-1.086913
0.254000	-1.261863
0.254100	-1.129758
0.254200	-0.944746
0.254300	-0.831142
0.254400	-0.963896
0.254500	-1.111581
0.254600	-1.126188
0.254700	-1.095352
0.254800	-1.093080
0.254900	-1.034006
0.255000	-1.112880
0.255100	-1.135276
0.255200	-1.144689
0.255300	-1.077176
0.255400	-1.020049
0.255500	-1.094054
0.255600	-1.100221
0.255700	-1.058350
0.255800	-1.006417
0.255900	-0.989538
0.256000	-1.009338
0.256100	-1.096326
0.256200	-1.117424
0.256300	-1.043419
0.256400	-1.020049
0.256500	-0.937281
0.256600	-0.911639
0.256700	-0.907744
0.256800	-0.862951
0.256900	-0.835687
0.257000	-0.821405
0.257100	-0.752594
0.257200	-0.729224
0.257300	-0.673720
0.257400	-0.599066
0.257500	-0.544861
0.257600	-0.489358
0.257700	-0.427687
0.257800	-0.371535
0.257900	-0.293310
0.258000	-0.286494
0.258100	-0.226771
0.258200	-0.240728
0.258300	-0.183277
0.258400	-0.313759
0.258500	-0.511429
0.258600	-0.509482
0.258700	-0.201454
0.258800	0.090345
0.258900	0.139682
0.259000	-0.084604
0.259100	-0.357253
0.259200	-0.409186
0.259300	-0.243974
0.259400	-0.032022
0.259500	0.046527
0.259600	-0.038514
0.259700	-0.182953
0.259800	-0.315706
0.259900	-0.211191
0.260000	-0.157635
0.260100	-0.073893
0.260200	-0.134265
0.260300	-0.159583
0.260400	-0.158284
0.260500	-0.180356
0.260600	-0.150170
0.260700	-0.176461
0.260800	-0.180031
0.260900	-0.240728
0.261000	-0.181005
0.261100	-0.182953
0.261200	-0.235210
0.261300	-0.304021
0.261400	-0.358227
0.261500	-0.361797
0.261600	-0.219955
0.261700	-0.182953
0.261800	-0.313434
0.261900	-0.560117
0.262000	-0.740909
0.262100	-0.692871
0.262200	-0.496823
0.262300	-0.384193
0.262400	-0.519544
0.262500	-0.808097
0.262600	-1.060622
0.262700	-1.080421
0.262800	-0.991161
0.262900	-0.917157
0.263000	-0.991486
0.263100	-1.134951
0.263200	-1.251152
0.263300	-1.290751
0.263400	-1.297892
0.263500	-1.349500
0.263600	-1.379037
0.263700	-1.447524
0.263800	-1.458884
0.263900	-1.411171
0.264000	-1.432918
0.264100	-1.494264
0.264200	-1.592937
0.264300	-1.703944
0.264400	-1.640001
0.264500	-1.564049
0.264600	-1.504975
0.264700	-1.481281
0.264800	-1.641300
0.264900	-1.693882
0.265000	-1.682846
0.265100	-1.671811
0.265200	-1.684145
0.265300	-1.663371
0.265400	-1.694207
0.265500	-1.785415
0.265600	-1.889606
0.265700	-1.865911
0.265800	-1.967830
0.265900	-1.932126
0.266000	-2.013921
0.266100	-1.976269
0.266200	-2.044432
0.266300	-2.008078
0.266400	-2.113892
0.266500	-2.141482
0.266600	-2.109673
0.266700	-2.012298
0.266800	-1.761395
0.266900	-1.558531
0.267000	-1.849357
0.267100	-2.134990
0.267200	-2.266446
0.267300	-2.073644
0.267400	-1.794178
0.267500	-1.699076
0.267600	-1.762694
0.267700	-2.025281
0.267800	-2.040537
0.267900	-2.046055
0.268000	-1.775352
0.268100	-1.722121
0.268200	-1.627667
0.268300	-1.713682
0.268400	-1.715954
0.268500	-1.791906
0.268600	-1.653309
0.268700	-1.581577
0.268800	-1.540679
0.268900	-1.534512
0.269000	-1.547820
0.269100	-1.479333
0.269200	-1.662398
0.269300	-1.702970
0.269400	-1.683496
0.269500	-1.713682
0.269600	-1.588393
0.269700	-1.554961
0.269800	-1.454016
0.269900	-1.598779
0.270000	-1.845138
0.270100	-1.850006
0.270200	-1.720823
0.270300	-1.431619
0.270400	-1.394942
0.270500	-1.575410
0.270600	-1.869157
0.270700	-1.850980
0.270800	-1.686741
0.270900	-1.461157
0.271000	-1.444278
0.271100	-1.542302
0.271200	-1.655257
0.271300	-1.641949
0.271400	-1.579305
0.271500	-1.498483
0.271600	-1.470569
0.271700	-1.536135
0.271800	-1.579629
0.271900	-1.578655
0.272000	-1.499457
0.272100	-1.476412
0.272200	-1.525424
0.272300	-1.532240
0.272400	-1.498808
0.272500	-1.492966
0.272600	-1.490044
0.272700	-1.579629
0.272800	-1.693233
0.272900	-1.699076
0.273000	-1.699400
0.273100	-1.628316
0.273200	-1.598779
0.273300	-1.604297
0.273400	-1.625720
0.273500	-1.642274
0.273600	-1.619877
0.273700	-1.645844
0.273800	-1.642274
0.273900	-1.667266
0.274000	-1.681548
0.274100	-1.688689
0.274200	-1.707515
0.274300	-1.715305
0.274400	-1.767887
0.274500	-1.778274
0.274600	-1.808135
0.274700	-1.843839
0.274800	-1.891553
0.274900	-1.918818
0.275000	-1.976594
0.275100	-2.210294
0.275200	-2.470285
0.275300	-2.354409
0.275400	-2.075592
0.275500	-1.907782
0.275600	-1.989902
0.275700	-2.250217
0.275800	-2.535202
0.275900	-2.540070
0.276000	-2.351487
0.276100	-2.173616
0.276200	-2.144403
0.276300	-2.296957
0.276400	-2.454705
0.276500	-2.544290
0.276600	-2.477101
0.276700	-2.405693
0.276800	-2.326494
0.276900	-2.342399
0.277000	-2.392709
0.277100	-2.379401
0.277200	-2.375182
0.277300	-2.335258
0.277400	-2.340127
0.277500	-2.400175
0.277600	-2.392060
0.277700	-2.409263
0.277800	-2.326494
0.277900	-2.322924
0.278000	-2.312862
0.278100	-2.322599
0.278200	-2.200881
0.278300	-2.080460
0.278400	-2.095391
0.278500	-2.238532
0.278600	-2.370962
0.278700	-2.444967
0.278800	-2.230093
0.278900	-1.951601
0.279000	-1.908431
0.279100	-2.083706
0.279200	-2.270991
0.279300	-2.364146
0.279400	-2.225224
0.279500	-2.101883
0.279600	-1.991525
0.279700	-2.012947
0.279800	-2.066503
0.279900	-2.121033
0.280000	-2.124928
0.280100	-2.085005
0.280200	-2.054169
0.280300	-2.015868
0.280400	-1.954522
0.280500	-1.909081
0.280600	-1.811706
0.280700	-1.776326
0.280800	-1.742570
0.280900	-1.736727
0.281000	-1.761720
0.281100	-1.602674
0.281200	-1.556584
0.281300	-1.348851
0.281400	-1.403381
0.281500	-1.467973
0.281600	-1.485500
0.281700	-1.459858
0.281800	-1.407276
0.281900	-1.328402
0.282000	-1.322560
0.282100	-1.347877
0.282200	-1.445901
0.282300	-1.488421
0.282400	-1.527696
0.282500	-1.540355
0.282600	-1.597481
0.282700	-1.539705
0.282800	-1.612412
0.282900	-1.535810
0.283000	-1.639028
0.283100	-1.698102
0.283200	-1.745491
0.283300	-1.609166
0.283400	-1.476736
0.283500	-1.202789
0.283600	-1.241739
0.283700	-1.556584
0.283800	-2.022685
0.283900	-1.795801
0.284000	-1.563075
0.284100	-1.283610
0.284200	-1.227133
0.284300	-1.372221
0.284400	-1.538083
0.284500	-1.651686
0.284600	-1.399161
0.284700	-1.251152
0.284800	-1.119047
0.284900	-1.103791
0.285000	-1.191429
0.285100	-1.254073
0.285200	-1.232326
0.285300	-1.164813
0.285400	-1.101195
0.285500	-1.106388
0.285600	-1.083018
0.285700	-1.002522
0.285800	-0.993109
0.285900	-1.100870
0.286000	-1.098923
0.286100	-1.142417
0.286200	-1.044393
0.286300	-0.929166
0.286400	-0.798684
0.286500	-0.800307
0.286600	-0.940202
0.286700	-1.174550
0.286800	-1.111906
0.286900	-0.896059
0.287000	-0.637692
0.287100	-0.749997
0.287200	-0.984670
0.287300	-1.226808
0.287400	-1.119047
0.287500	-0.890866
0.287600	-0.702283
0.287700	-0.765577
0.287800	-0.901901
0.287900	-0.975581
0.288000	-0.887620
0.288100	-0.848021
0.288200	-0.715916
0.288300	-0.731171
0.288400	-0.804851
0.288500	-0.847047
0.288600	-0.779858
0.288700	-0.687028
0.288800	-0.684431
0.288900	-0.707152
0.289000	-0.741233
0.289100	-0.690274
0.289200	-0.687028
0.289300	-0.670474
0.289400	-0.797386
0.289500	-0.951238
0.289600	-0.947343
0.289700	-0.941825
0.289800	-0.802579
0.289900	-0.873338
0.290000	-0.925271
0.290100	-0.960651
0.290200	-1.033032
0.290300	-1.059973
0.290400	-1.072631
0.290500	-1.138846
0.290600	-1.188832
0.290700	-1.231352
0.290800	-1.248880
0.290900	-1.330350
0.291000	-1.365405
0.291100	-1.397538
0.291200	-1.416040
0.291300	-1.466350
0.291400	-1.495887
0.291500	-1.543276
0.291600	-1.594560
0.291700	-1.731858
0.291800	-1.956145
0.291900	-2.113892
0.292000	-1.887983
0.292100	-1.578331
0.292200	-1.494588
0.292300	-1.687715
0.292400	-2.028852
0.292500	-2.198609
0.292600	-2.135639
0.292700	-1.874999
0.292800	-1.718875
0.292900	-1.759123
0.293000	-1.974646
0.293100	-2.099286
0.293200	-2.116164
0.293300	-2.002885
0.293400	-1.875973
0.293500	-1.912326
0.293600	-1.973023
0.293700	-1.988279
0.293800	-1.945109
0.293900	-1.886035
0.294000	-1.852928
0.294100	-1.862016
0.294200	-1.872727
0.294300	-1.791257
0.294400	-1.765290
0.294500	-1.731209
0.294600	-1.737701
0.294700	-1.734130
0.294800	-1.699725
0.294900	-1.509844
0.295000	-1.339438
0.295100	-1.404679
0.295200	-1.595858
0.295300	-1.720173
0.295400	-1.687715
0.295500	-1.392994
0.295600	-1.137873
0.295700	-1.134951
0.295800	-1.356641
0.295900	-1.535486
0.296000	-1.552040
0.296100	-1.373844
0.296200	-1.206035
0.296300	-1.153452
0.296400	-1.186235
0.296500	-1.225510
0.296600	-1.253424
0.296700	-1.232001
0.296800	-1.183639
0.296900	-1.110283
0.297000	-1.106388
0.297100	-1.046990
0.297200	-0.921701
0.297300	-0.862951
0.297400	-0.892488
0.297500	-0.935333
0.297600	-0.974932
0.297700	-0.953834
0.297800	-0.829844
0.297900	-0.809720
0.298000	-0.618866
0.298100	-0.730847
0.298200	-0.764603
0.298300	-0.720460
0.298400	-0.673396
0.298500	-0.602637
0.298600	-0.471506
0.298700	-0.530255
0.298800	-0.548432
0.298900	-0.666579
0.299000	-0.657167
0.299100	-0.713319
0.299200	-0.694818
0.299300	-0.751295
0.299400	-0.717539
0.299500	-0.777262
0.299600	-0.812966
0.299700	-0.931763
0.299800	-0.987916
0.299900	-0.977204
0.300000	-0.923973
0.300100	-0.728575
0.300200	-0.587057
0.300300	-0.734092
0.300400	-1.180393
0.300500	-1.450770
0.300600	-1.159620
0.300700	-1.046340
0.300800	-0.715591
0.300900	-0.867820
0.301000	-1.076202
0.301100	-1.266732
0.301200	-1.347877
0.301300	-1.135276
0.301400	-1.008689
0.301500	-0.912613
0.301600	-1.024593
0.301700	-1.136574
0.301800	-1.236546
0.301900	-1.229729
0.302000	-1.196297
0.302100	-1.189157
0.302200	-1.249529
0.302300	-1.291725
0.302400	-1.284259
0.302500	-1.352421
0.302600	-1.569567
0.302700	-1.479658
0.302800	-1.552364
0.302900	-1.453691
0.303000	-1.466025
0.303100	-1.387476
0.303200	-1.486474
0.303300	-1.703944
0.303400	-1.766589
0.303500	-1.648441
0.303600	-1.328078
0.303700	-1.197271
0.303800	-1.302760
0.303900	-1.634159
0.304000	-1.755877
0.304100	-1.582226
0.304200	-1.405328
0.304300	-1.311849
0.304400	-1.414417
0.304500	-1.560479
0.304600	-1.666293
0.304700	-1.666617
0.304800	-1.648765
0.304900	-1.579305
0.305000	-1.638703
0.305100	-1.703620
0.305200	-1.730235
0.305300	-1.658178
0.305400	-1.606245
0.305500	-1.662398
0.305600	-1.696154
0.305700	-1.675381
0.305800	-1.602025
0.305900	-1.598779
0.306000	-1.630264
0.306100	-1.773730
0.306200	-1.821119
0.306300	-1.815276
0.306400	-1.805863
0.306500	-1.689338
0.306600	-1.759772
0.306700	-1.786713
0.306800	-1.785739
0.306900	-1.791257
0.307000	-1.800994
0.307100	-1.829233
0.307200	-1.856823
0.307300	-1.860718
0.307400	-1.871104
0.307500	-1.887009
0.307600	-1.923038
0.307700	-1.947706
0.307800	-1.965233
0.307900	-1.984059
0.308000	-1.990551
0.308100	-2.078837
0.308200	-2.089224
0.308300	-2.147649
0.308400	-2.285921
0.308500	-2.524490
0.308600	-2.535202
0.308700	-2.216461
0.308800	-1.997043
0.308900	-1.936670
0.309000	-2.233664
0.309100	-2.499822
0.309200	-2.587459
0.309300	-2.445616
0.309400	-2.176212
0.309500	-2.081110
0.309600	-2.147324
0.309700	-2.373559
0.309800	-2.482944
0.309900	-2.423869
0.310000	-2.343697
0.310100	-2.222952
0.310200	-2.259306
0.310300	-2.281702
0.310400	-2.256709
0.310500	-2.258656
0.310600	-2.245673
0.310700	-2.214513
0.310800	-2.181081
0.310900	-2.172967
0.311000	-2.082083
0.311100	-2.071697
0.311200	-2.052546
0.311300	-2.087926
0.311400	-2.073644
0.311500	-1.940890
0.311600	-1.747114
0.311700	-1.656880
0.311800	-1.825663
0.311900	-2.047028
0.312000	-2.177835
0.312100	-2.052871
0.312200	-1.727639
0.312300	-1.533538
0.312400	-1.589691
0.312500	-1.796126
0.312600	-1.981463
0.312700	-1.959391
0.312800	-1.805214
0.312900	-1.622149
0.313000	-1.598130
0.313100	-1.651037
0.313200	-1.723744
0.313300	-1.694207
0.313400	-1.650064
0.313500	-1.627667
0.313600	-1.573787
0.313700	-1.543925
0.313800	-1.426751
0.313900	-1.340412
0.314000	-1.296593
0.314100	-1.336192
0.314200	-1.369624
0.314300	-1.386178
0.314400	-1.253424
0.314500	-1.117099
0.314600	-1.165462
0.314700	-0.974608
0.314800	-1.076851
0.314900	-1.116775
0.315000	-1.058999
0.315100	-1.040822
0.315200	-0.983696
0.315300	-0.923324
0.315400	-0.966169
0.315500	-1.008689
0.315600	-1.093405
0.315700	-1.108336
0.315800	-1.163839
0.315900	-1.158646
0.316000	-1.212851
0.316100	-1.197271
0.316200	-1.245958
0.316300	-1.199868
0.316400	-1.372221
0.316500	-1.339438
0.316600	-1.395591
0.316700	-1.278741
0.316800	-1.055104
0.316900	-0.890216
0.317000	-1.099247
0.317100	-1.545223
0.317200	-1.607868
0.317300	-1.376765
0.317400	-1.133978
0.317500	-0.941500
0.317600	-1.039200
0.317700	-1.230054
0.317800	-1.406302
0.317900	-1.284584
0.318000	-1.155075
0.318100	-0.971686
0.318200	-1.028164
0.318300	-1.029787
0.318400	-1.081395
0.318500	-1.147285
0.318600	-1.099247
0.318700	-1.072631
0.318800	-1.059973
0.318900	-1.097949
0.319000	-1.083667
0.319100	-1.120020
0.319200	-1.191753
0.319300	-1.358588
0.319400	-1.325481
0.319500	-1.364756
0.319600	-1.276145
0.319700	-1.214799
0.319800	-1.231352
0.319900	-1.302760
0.320000	-1.601052
0.320100	-1.555610
0.320200	-1.445252
0.320300	-1.177796
0.320400	-1.119047
0.320500	-1.378063
0.320600	-1.660126
0.320700	-1.728937
0.320800	-1.565672
0.320900	-1.385853
0.321000	-1.347228
0.321100	-1.471543
0.321200	-1.614035
0.321300	-1.607868
0.321400	-1.585147
0.321500	-1.512765
0.321600	-1.509519
0.321700	-1.601052
0.321800	-1.640001
0.321900	-1.664670
0.322000	-1.559830
0.322100	-1.541978
0.322200	-1.588717
0.322300	-1.586121
0.322400	-1.548469
0.322500	-1.506923
0.322600	-1.492316
0.322700	-1.536135
0.322800	-1.681223
0.322900	-1.669538
0.323000	-1.626044
0.323100	-1.455314
0.323200	-1.472841
0.323300	-1.477061
0.323400	-1.461157
0.323500	-1.429023
0.323600	-1.392020
0.323700	-1.359887
0.323800	-1.382608
0.323900	-1.396889
0.324000	-1.385204
0.324100	-1.385204
0.324200	-1.374168
0.324300	-1.385529
0.324400	-1.344956
0.324500	-1.364756
0.324600	-1.352421
0.324700	-1.379686
0.324800	-1.417987
0.324900	-1.414741
0.325000	-1.473166
0.325100	-1.664345
0.325200	-1.895123
0.325300	-1.793204
0.325400	-1.490044
0.325500	-1.344307
0.325600	-1.420584
0.325700	-1.793529
0.325800	-1.977243
0.325900	-2.056117
0.326000	-1.863964
0.326100	-1.698102
0.326200	-1.722445
0.326300	-1.894474
0.326400	-2.106102
0.326500	-2.153167
0.326600	-2.142131
0.326700	-2.068451
0.326800	-2.043782
0.326900	-2.104804
0.327000	-2.165177
0.327100	-2.187897
0.327200	-2.196661
0.327300	-2.176212
0.327400	-2.202179
0.327500	-2.249244
0.327600	-2.259306
0.327700	-2.207048
0.327800	-2.210618
0.327900	-2.174265
0.328000	-2.237883
0.328100	-2.210943
0.328200	-2.131095
0.328300	-1.935696
0.328400	-1.974646
0.328500	-2.131420
0.328600	-2.306695
0.328700	-2.385244
0.328800	-2.172642
0.328900	-1.894474
0.329000	-1.797099
0.329100	-1.943162
0.329200	-2.149597
0.329300	-2.208346
0.329400	-2.084031
0.329500	-1.872403
0.329600	-1.730885
0.329700	-1.731534
0.329800	-1.741596
0.329900	-1.742570
0.330000	-1.668889
0.330100	-1.589367
0.330200	-1.541978
0.330300	-1.467324
0.330400	-1.394617
0.330500	-1.278741
0.330600	-1.133328
0.330700	-1.109309
0.330800	-1.105090
0.330900	-1.129433
0.331000	-1.127161
0.331100	-0.936956
0.331200	-0.862302
0.331300	-0.663009
0.331400	-0.778885
0.331500	-0.820107
0.331600	-0.837959
0.331700	-0.818159
0.331800	-0.783104
0.331900	-0.700336
0.332000	-0.686054
0.332100	-0.717863
0.332200	-0.796088
0.332300	-0.831467
0.332400	-0.825300
0.332500	-0.884374
0.332600	-0.849968
0.332700	-0.872689
0.332800	-0.839582
0.332900	-0.875286
0.333000	-0.875610
0.333100	-0.974283
0.333200	-0.948317
0.333300	-0.969414
0.333400	-0.727601
0.333500	-0.608804
0.333600	-0.518895
0.333700	-1.021348
0.333800	-1.333596
0.333900	-1.279715
0.334000	-1.083992
0.334100	-0.919429
0.334200	-0.967791
0.334300	-1.165462
0.334400	-1.349825
0.334500	-1.526722
0.334600	-1.353071
0.334700	-1.318665
0.334800	-1.198569
0.334900	-1.267056
0.335000	-1.339438
0.335100	-1.413118
0.335200	-1.479658
0.335300	-1.423180
0.335400	-1.456937
0.335500	-1.455639
0.335600	-1.493939
0.335700	-1.523152
0.335800	-1.504975
0.335900	-1.727314
0.336000	-1.660450
0.336100	-1.751009
0.336200	-1.695505
0.336300	-1.664670
0.336400	-1.542302
0.336500	-1.565997
0.336600	-1.706541
0.336700	-1.908107
0.336800	-1.822092
0.336900	-1.601052
0.337000	-1.361834
0.337100	-1.383257
0.337200	-1.623123
0.337300	-1.780870
0.337400	-1.659476
0.337500	-1.429023
0.337600	-1.227457
0.337700	-1.232001
0.337800	-1.297242
0.337900	-1.323858
0.338000	-1.195648
0.338100	-1.123266
0.338200	-0.986293
0.338300	-0.973634
0.338400	-0.990837
0.338500	-1.002197
0.338600	-0.889243
0.338700	-0.772069
0.338800	-0.762656
0.338900	-0.774016
0.339000	-0.749348
0.339100	-0.688651
0.339200	-0.659114
0.339300	-0.657167
0.339400	-0.746427
0.339500	-0.842503
0.339600	-0.822379
0.339700	-0.800307
0.339800	-0.664956
0.339900	-0.752269
0.340000	-0.762006
0.340100	-0.741233
0.340200	-0.774341
0.340300	-0.750646
0.340400	-0.752269
0.340500	-0.760059
0.340600	-0.770121
0.340700	-0.813940
0.340800	-0.777262
0.340900	-0.843152
0.341000	-0.840555
0.341100	-0.855811
0.341200	-0.856135
0.341300	-0.880154
0.341400	-0.951238
0.341500	-0.970713
0.341600	-1.021997
0.341700	-1.133978
0.341800	-1.383581
0.341900	-1.480631
0.342000	-1.248880
0.342100	-1.014856
0.342200	-0.913586
0.342300	-1.101844
0.342400	-1.380335
0.342500	-1.507896
0.342600	-1.441682
0.342700	-1.260889
0.342800	-1.153777
0.342900	-1.253424
0.343000	-1.456612
0.343100	-1.563725
0.343200	-1.610789
0.343300	-1.530293
0.343400	-1.522503
0.343500	-1.558856
0.343600	-1.660126
0.343700	-1.688689
0.343800	-1.723095
0.343900	-1.722121
0.344000	-1.750684
0.344100	-1.800994
0.344200	-1.923687
0.344300	-1.898694
0.344400	-1.939267
0.344500	-1.981463
0.344600	-2.059038
0.344700	-2.138561
0.344800	-2.119735
0.344900	-2.022035
0.345000	-1.911353
0.345100	-2.068775
0.345200	-2.275535
0.345300	-2.421922
0.345400	-2.447564
0.345500	-2.170694
0.345600	-1.931801
0.345700	-1.983085
0.345800	-2.190494
0.345900	-2.357654
0.346000	-2.334609
0.346100	-2.174914
0.346200	-1.987954
0.346300	-1.934723
0.346400	-1.986331
0.346500	-2.001587
0.346600	-1.981463
0.346700	-1.938618
0.346800	-1.884737
0.346900	-1.845138
0.347000	-1.821119
0.347100	-1.796775
0.347200	-1.709787
0.347300	-1.599753
0.347400	-1.598779
0.347500	-1.604297
0.347600	-1.629615
0.347700	-1.591639
0.347800	-1.426102
0.347900	-1.307304
0.348000	-1.213176
0.348100	-1.322235
0.348200	-1.339114
0.348300	-1.338140
0.348400	-1.310875
0.348500	-1.245309
0.348600	-1.190779
0.348700	-1.246932
0.348800	-1.341710
0.348900	-1.403056
0.349000	-1.476736
0.349100	-1.488097
0.349200	-1.592288
0.349300	-1.561777
0.349400	-1.607219
0.349500	-1.631887
0.349600	-1.690961
0.349700	-1.787037
0.349800	-1.855524
0.349900	-1.859095
0.350000	-1.822742
0.350100	-1.519906
0.350200	-1.495887
0.350300	-1.552364
0.350400	-2.054818
0.350500	-2.204776
0.350600	-1.995420
0.350700	-1.756851
0.350800	-1.512441
0.350900	-1.643896
0.351000	-1.817873
0.351100	-1.960689
0.351200	-1.932126
0.351300	-1.733157
0.351400	-1.597157
0.351500	-1.553338
0.351600	-1.554636
0.351700	-1.716928
0.351800	-1.723095
0.351900	-1.693558
0.352000	-1.606894
0.352100	-1.611763
0.352200	-1.631562
0.352300	-1.640326
0.352400	-1.640651
0.352500	-1.746789
0.352600	-1.798398
0.352700	-1.809434
0.352800	-1.799696
0.352900	-1.751982
0.353000	-1.635782
0.353100	-1.612087
0.353200	-1.629615
0.353300	-1.874026
0.353400	-1.923687
0.353500	-1.775677
0.353600	-1.458884
0.353700	-1.335543
0.353800	-1.394293
0.353900	-1.711410
0.354000	-1.760746
0.354100	-1.553338
0.354200	-1.321911
0.354300	-1.163515
0.354400	-1.249204
0.354500	-1.332946
0.354600	-1.364756
0.354700	-1.256670
0.354800	-1.184612
0.354900	-1.102168
0.355000	-1.165787
0.355100	-1.180393
0.355200	-1.216421
0.355300	-1.110608
0.355400	-1.061596
0.355500	-1.064842
0.355600	-1.070359
0.355700	-1.056727
0.355800	-0.997328
0.355900	-1.002197
0.356000	-1.005768
0.356100	-1.114178
0.356200	-1.152154
0.356300	-1.107686
0.356400	-1.071658
0.356500	-0.965519
0.356600	-1.032708
0.356700	-1.049911
0.356800	-1.056402
0.356900	-1.073605
0.357000	-1.093405
0.357100	-1.085939
0.357200	-1.149233
0.357300	-1.144689
0.357400	-1.176498
0.357500	-1.137223
0.357600	-1.149557
0.357700	-1.177796
0.357800	-1.208307
0.357900	-1.229729
0.358000	-1.279066
0.358100	-1.352097
0.358200	-1.403381
0.358300	-1.428049
0.358400	-1.662722
0.358500	-1.893825
0.358600	-1.903563
0.358700	-1.705243
0.358800	-1.439409
0.358900	-1.491992
0.359000	-1.735104
0.359100	-2.069100
0.359200	-2.166150
0.359300	-1.995744
0.359400	-1.778274
0.359500	-1.728613
0.359600	-1.872403
0.359700	-2.042484
0.359800	-2.180757
0.359900	-2.122656
0.360000	-2.023009
0.360100	-1.995420
0.360200	-2.011324
0.360300	-2.053195
0.360400	-2.077864
0.360500	-2.070074
0.360600	-2.004183
0.360700	-2.021386
0.360800	-2.011973
0.360900	-2.063582
0.361000	-2.061310
0.361100	-1.995744
0.361200	-1.997692
0.361300	-2.055467
0.361400	-2.100909
0.361500	-2.009052
0.361600	-1.830532
0.361700	-1.804240
0.361800	-1.920116
0.361900	-2.144079
0.362000	-2.299879
0.362100	-2.169072
0.362200	-1.908431
0.362300	-1.755553
0.362400	-1.873052
0.362500	-2.119735
0.362600	-2.302151
0.362700	-2.274886
0.362800	-2.072995
0.362900	-1.918818
0.363000	-1.898369
0.363100	-1.982112
0.363200	-2.055792
0.363300	-2.036317
0.363400	-2.022360
0.363500	-1.960365
0.363600	-1.895123
0.363700	-1.844489
0.363800	-1.766913
0.363900	-1.663047
0.364000	-1.596183
0.364100	-1.577682
0.364200	-1.582226
0.364300	-1.601052
0.364400	-1.441032
0.364500	-1.369949
0.364600	-1.233300
0.364700	-1.257319
0.364800	-1.335543
0.364900	-1.355667
0.365000	-1.314770
0.365100	-1.231677
0.365200	-1.147285
0.365300	-1.071658
0.365400	-1.116126
0.365500	-1.139171
0.365600	-1.168383
0.365700	-1.110283
0.365800	-1.143390
0.365900	-1.092106
0.366000	-1.121319
0.366100	-1.040498
0.366200	-1.111906
0.366300	-1.095352
0.366400	-1.197920
0.366500	-1.189157
0.366600	-1.145013
0.366700	-1.026216
0.366800	-0.822379
0.366900	-0.756489
0.367000	-1.024593
0.367100	-1.434216
0.367200	-1.472841
0.367300	-1.111581
0.367400	-0.958054
0.367500	-0.780832
0.367600	-0.902550
0.367700	-1.088211
0.367800	-1.270627
0.367900	-1.180393
0.368000	-0.989214
0.368100	-0.916832
0.368200	-0.898331
0.368300	-0.941176
0.368400	-1.049586
0.368500	-1.045042
0.368600	-0.980775
0.368700	-0.917806
0.368800	-0.883076
0.368900	-0.905147
0.369000	-0.887944
0.369100	-0.858407
0.369200	-1.040173
0.369300	-0.967467
0.369400	-1.039524
0.369500	-0.892488
0.369600	-0.933061
0.369700	-0.831142
0.369800	-0.830493
0.369900	-1.015830
0.370000	-1.216097
0.370100	-1.193376
0.370200	-1.084316
0.370300	-0.849968
0.370400	-0.937930
0.370500	-1.132679
0.370600	-1.438111
0.370700	-1.443304
0.370800	-1.313472
0.370900	-1.190130
0.371000	-1.212202
0.371100	-1.366054
0.371200	-1.502054
0.371300	-1.521853
0.371400	-1.556259
0.371500	-1.530617
0.371600	-1.524125
0.371700	-1.600402
0.371800	-1.662073
0.371900	-1.699725
0.372000	-1.622474
0.372100	-1.638379
0.372200	-1.679925
0.372300	-1.670512
0.372400	-1.620851
0.372500	-1.612737
0.372600	-1.607868
0.372700	-1.696154
0.372800	-1.754579
0.372900	-1.729911
0.373000	-1.672784
0.373100	-1.646818
0.373200	-1.528994
0.373300	-1.533863
0.373400	-1.488097
0.373500	-1.476412
0.373600	-1.423180
0.373700	-1.397214
0.373800	-1.393968
0.373900	-1.404030
0.374000	-1.403381
0.374100	-1.379037
0.374200	-1.430321
0.374300	-1.450121
0.374400	-1.480631
0.374500	-1.445577
0.374600	-1.471543
0.374700	-1.526073
0.374800	-1.529319
0.374900	-1.619228
0.375000	-1.639028
0.375100	-1.895123
0.375200	-2.099935
0.375300	-1.987954
0.375400	-1.701672
0.375500	-1.547820
0.375600	-1.701348
0.375700	-1.967505
0.375800	-2.233664
0.375900	-2.177835
0.376000	-2.032422
0.376100	-1.856174
0.376200	-1.883114
0.376300	-2.058064
0.376400	-2.222952
0.376500	-2.287220
0.376600	-2.210618
0.376700	-2.196337
0.376800	-2.148947
0.376900	-2.221979
0.377000	-2.244699
0.377100	-2.276833
0.377200	-2.307669
0.377300	-2.338829
0.377400	-2.394332
0.377500	-2.434256
0.377600	-2.479049
0.377700	-2.412834
0.377800	-2.438476
0.377900	-2.516051
0.378000	-2.581942
0.378100	-2.576099
0.378200	-2.459898
0.378300	-2.311564
0.378400	-2.345320
0.378500	-2.493330
0.378600	-2.673799
0.378700	-2.699765
0.378800	-2.471259
0.378900	-2.196337
0.379000	-2.125577
0.379100	-2.266446
0.379200	-2.465416
0.379300	-2.505664
0.379400	-2.359602
0.379500	-2.135639
0.379600	-2.057740
0.379700	-2.036966
0.379800	-2.044756
0.379900	-2.062933
0.380000	-1.970751
0.380100	-1.877271
0.380200	-1.805863
0.380300	-1.723419
0.380400	-1.664670
0.380500	-1.509195
0.380600	-1.352097
0.380700	-1.294970
0.380800	-1.286856
0.380900	-1.291725
0.381000	-1.248880
0.381100	-1.027515
0.381200	-0.946694
0.381300	-0.738961
0.381400	-0.838932
0.381500	-0.883725
0.381600	-0.902875
0.381700	-0.863601
0.381800	-0.834064
0.381900	-0.816212
0.382000	-0.789596
0.382100	-0.855811
0.382200	-0.968441
0.382300	-1.008364
0.382400	-1.076202
0.382500	-1.119696
0.382600	-1.171954
0.382700	-1.103791
0.382800	-1.188183
0.382900	-1.123591
0.383000	-1.273548
0.383100	-1.285882
0.383200	-1.352421
0.383300	-1.271600
0.383400	-1.112880
0.383500	-0.859706
0.383600	-0.912288
0.383700	-1.279715
0.383800	-1.602674
0.383900	-1.474464
0.384000	-1.202789
0.384100	-0.969090
0.384200	-1.034006
0.384300	-1.183963
0.384400	-1.408250
0.384500	-1.405653
0.384600	-1.274846
0.384700	-1.105739
0.384800	-1.046665
0.384900	-0.991161
0.385000	-1.190779
0.385100	-1.170331
0.385200	-1.232975
0.385300	-1.223238
0.385400	-1.236221
0.385500	-1.272250
0.385600	-1.325156
0.385700	-1.344631
0.385800	-1.386178
0.385900	-1.638703
0.386000	-1.610789
0.386100	-1.712383
0.386200	-1.716603
0.386300	-1.606894
0.386400	-1.626694
0.386500	-1.627343
0.386600	-1.826312
0.386700	-2.005157
0.386800	-1.867534
0.386900	-1.667591
0.387000	-1.415390
0.387100	-1.500106
0.387200	-1.737701
0.387300	-1.923687
0.387400	-1.786713
0.387500	-1.563075
0.387600	-1.369949
0.387700	-1.436164
0.387800	-1.536135
0.387900	-1.638703
0.388000	-1.534188
0.388100	-1.500756
0.388200	-1.428049
0.388300	-1.483877
0.388400	-1.522178
0.388500	-1.545548
0.388600	-1.494264
0.388700	-1.453691
0.388800	-1.482904
0.388900	-1.542627
0.389000	-1.547820
0.389100	-1.524125
0.389200	-1.510493
0.389300	-1.531591
0.389400	-1.681223
0.389500	-1.744517
0.389600	-1.709787
0.389700	-1.662073
0.389800	-1.499133
0.389900	-1.513090
0.390000	-1.491667
0.390100	-1.420908
0.390200	-1.393643
0.390300	-1.327104
0.390400	-1.306655
0.390500	-1.276794
0.390600	-1.230054
0.390700	-1.207658
0.390800	-1.185262
0.390900	-1.160593
0.391000	-1.162216
0.391100	-1.142417
0.391200	-1.127810
0.391300	-1.089510
0.391400	-1.106388
0.391500	-1.115152
0.391600	-1.084641
0.391700	-1.222588
0.391800	-1.439409
0.391900	-1.535810
0.392000	-1.257319
0.392100	-0.930789
0.392200	-0.836660
0.392300	-1.003820
0.392400	-1.388125
0.392500	-1.535486
0.392600	-1.422207
0.392700	-1.191104
0.392800	-1.012908
0.392900	-1.129109
0.393000	-1.242388
0.393100	-1.419285
0.393200	-1.402732
0.393300	-1.301137
0.393400	-1.237519
0.393500	-1.247257
0.393600	-1.287180
0.393700	-1.313147
0.393800	-1.317691
0.393900	-1.290426
0.394000	-1.311524
0.394100	-1.376116
0.394200	-1.401109
0.394300	-1.478035
0.394400	-1.451744
0.394500	-1.488097
0.394600	-1.552040
0.394700	-1.631562
0.394800	-1.608842
0.394900	-1.478359
0.395000	-1.372870
0.395100	-1.479333
0.395200	-1.674407
0.395300	-1.798073
0.395400	-1.811706
0.395500	-1.550417
0.395600	-1.325806
0.395700	-1.370273
0.395800	-1.612412
0.395900	-1.816899
0.396000	-1.830532
0.396100	-1.709138
0.396200	-1.568593
0.396300	-1.512765
0.396400	-1.568269
0.396500	-1.657204
0.396600	-1.723095
0.396700	-1.736403
0.396800	-1.732508
0.396900	-1.718226
0.397000	-1.736727
0.397100	-1.732183
0.397200	-1.636106
0.397300	-1.578655
0.397400	-1.578006
0.397500	-1.613061
0.397600	-1.626044
0.397700	-1.542302
0.397800	-1.376116
0.397900	-1.263810
0.398000	-1.168383
0.398100	-1.244660
0.398200	-1.247906
0.398300	-1.249853
0.398400	-1.185586
0.398500	-1.105090
0.398600	-1.065166
0.398700	-1.025243
0.398800	-1.101844
0.398900	-1.157672
0.399000	-1.209281
0.399100	-1.183314
0.399200	-1.245958
0.399300	-1.177472
0.399400	-1.193701
0.399500	-1.160593
0.399600	-1.197596
0.399700	-1.309577
0.399800	-1.250178
0.399900	-1.336517
0.400000	-1.167409
0.400100	-0.964221
0.400200	-0.711047
0.400300	-0.848670
0.400400	-1.291400
0.400500	-1.376440
0.400600	-1.303085
0.400700	-0.778236
0.400800	-0.700660
0.400900	-0.667229
0.401000	-0.841529
0.401100	-0.948317
0.401200	-0.970713
0.401300	-0.735715
0.401400	-0.626331
0.401500	-0.560441
0.401600	-0.635420
0.401700	-0.696441
0.401800	-0.788947
0.401900	-0.764603
0.402000	-0.753892
0.402100	-0.769472
0.402200	-0.815887
0.402300	-0.858083
0.402400	-0.876259
0.402500	-0.971037
0.402600	-1.123915
0.402700	-1.054779
0.402800	-1.144689
0.402900	-1.127486
0.403000	-1.025243
0.403100	-1.054130
0.403200	-1.059973
0.403300	-1.333920
0.403400	-1.387152
0.403500	-1.262512
0.403600	-1.000574
0.403700	-0.877233
0.403800	-1.021997
0.403900	-1.281662
0.404000	-1.397863
0.404100	-1.254398
0.404200	-1.076202
0.404300	-0.979801
0.404400	-1.132355
0.404500	-1.283610
0.404600	-1.345605
0.404700	-1.295944
0.404800	-1.320937
0.404900	-1.324183
0.405000	-1.454016
0.405100	-1.531591
0.405200	-1.546197
0.405300	-1.496536
0.405400	-1.519581
0.405500	-1.594235
0.405600	-1.664021
0.405700	-1.661749
0.405800	-1.633834
0.405900	-1.639677
0.406000	-1.694856
0.406100	-1.876947
0.406200	-1.926283
0.406300	-1.898369
0.406400	-1.890255
0.406500	-1.793854
0.406600	-1.894150
0.406700	-1.898045
0.406800	-1.914598
0.406900	-1.949004
0.407000	-1.962312
0.407100	-1.997692
0.407200	-2.029825
0.407300	-2.031124
0.407400	-2.058713
0.407500	-2.082408
0.407600	-2.091821
0.407700	-2.044756
0.407800	-2.002885
0.407900	-2.000613
0.408000	-1.977243
0.408100	-1.953873
0.408200	-1.952575
0.408300	-1.934398
0.408400	-2.065205
0.408500	-2.254112
0.408600	-2.177835
0.408700	-1.881166
0.408800	-1.556908
0.408900	-1.556259
0.409000	-1.802617
0.409100	-2.059362
0.409200	-2.070723
0.409300	-1.878894
0.409400	-1.649739
0.409500	-1.555610
0.409600	-1.652336
0.409700	-1.827286
0.409800	-1.850331
0.409900	-1.758799
0.410000	-1.677653
0.410100	-1.671811
0.410200	-1.666293
0.410300	-1.688040
0.410400	-1.720173
0.410500	-1.707190
0.410600	-1.677004
0.410700	-1.690636
0.410800	-1.774379
0.410900	-1.782493
0.411000	-1.754255
0.411100	-1.706541
0.411200	-1.746140
0.411300	-1.781195
0.411400	-1.821768
0.411500	-1.755553
0.411600	-1.558856
0.411700	-1.528994
0.411800	-1.699076
0.411900	-1.939916
0.412000	-2.075267
0.412100	-1.954522
0.412200	-1.679601
0.412300	-1.560154
0.412400	-1.701672
0.412500	-1.969778
0.412600	-2.152518
0.412700	-2.121033
0.412800	-1.943811
0.412900	-1.824689
0.413000	-1.811706
0.413100	-1.848059
0.413200	-1.875649
0.413300	-1.848059
0.413400	-1.776975
0.413500	-1.696154
0.413600	-1.627992
0.413700	-1.557882
0.413800	-1.472841
0.413900	-1.306980
0.414000	-1.207982
0.414100	-1.202464
0.414200	-1.148259
0.414300	-1.138846
0.414400	-0.937605
0.414500	-0.760059
0.414600	-0.487410
0.414700	-0.453329
0.414800	-0.460470
0.414900	-0.430933
0.415000	-0.327067
0.415100	-0.203077
0.415200	-0.072919
0.415300	-0.008003
0.415400	-0.030724
0.415500	-0.057989
0.415600	-0.045654
0.415700	0.002059
0.415800	-0.023258
0.415900	-0.043707
0.416000	0.060159
0.416100	0.027376
0.416200	0.088722
0.416300	-0.017416
0.416400	-0.032022
0.416500	-0.063831
0.416600	-0.105053
0.416700	0.071520
0.416800	0.202326
0.416900	0.319500
0.417000	-0.181654
0.417100	-0.397501
0.417200	-0.621463
0.417300	-0.344919
0.417400	-0.166399
0.417500	-0.175487
0.417600	-0.310838
0.417700	-0.635744
0.417800	-0.737014
0.417900	-0.731820
0.418000	-0.610427
0.418100	-0.521491
0.418200	-0.613348
0.418300	-0.752594
0.418400	-0.943448
0.418500	-0.959352
0.418600	-1.069710
0.418700	-1.066140
0.418800	-1.148259
0.418900	-1.275495
0.419000	-1.344307
0.419100	-1.411171
0.419200	-1.558207
0.419300	-1.686741
0.419400	-1.791906
0.419500	-1.882789
0.419600	-1.874999
0.419700	-1.791582
0.419800	-1.846761
0.419900	-1.973997
0.420000	-2.278131
0.420100	-2.259306
0.420200	-2.140508
0.420300	-1.900641
0.420400	-1.942513
0.420500	-2.182704
0.420600	-2.444643
0.420700	-2.461846
0.420800	-2.270666
0.420900	-2.100260
0.421000	-2.049625
0.421100	-2.221654
0.421200	-2.363821
0.421300	-2.339153
0.421400	-2.286246
0.421500	-2.206723
0.421600	-2.205425
0.421700	-2.280404
0.421800	-2.314160
0.421900	-2.269692
0.422000	-2.193740
0.422100	-2.196661
0.422200	-2.225549
0.422300	-2.237234
0.422400	-2.235286
0.422500	-2.205749
0.422600	-2.196661
0.422700	-2.254761
0.422800	-2.371611
0.422900	-2.347268
0.423000	-2.292089
0.423100	-2.222303
0.423200	-2.097663
0.423300	-2.113892
0.423400	-2.096689
0.423500	-2.074942
0.423600	-2.037291
0.423700	-2.013272
0.423800	-2.014245
0.423900	-2.047353
0.424000	-2.066179
0.424100	-2.066179
0.424200	-2.079811
0.424300	-2.084355
0.424400	-2.124928
0.424500	-2.132394
0.424600	-2.159334
0.424700	-2.164203
0.424800	-2.124928
0.424900	-2.187573
0.425000	-2.168422
0.425100	-2.459249
0.425200	-2.540070
0.425300	-2.458275
0.425400	-2.099611
0.425500	-1.946083
0.425600	-2.054494
0.425700	-2.323898
0.425800	-2.592328
0.425900	-2.521894
0.426000	-2.316108
0.426100	-2.101883
0.426200	-2.113892
0.426300	-2.273263
0.426400	-2.435230
0.426500	-2.387191
0.426600	-2.310914
0.426700	-2.200881
0.426800	-2.157711
0.426900	-2.185625
0.427000	-2.209644
0.427100	-2.217759
0.427200	-2.208671
0.427300	-2.174265
0.427400	-2.221329
0.427500	-2.225549
0.427600	-2.267096
0.427700	-2.227496
0.427800	-2.193740
0.427900	-2.231067
0.428000	-2.252814
0.428100	-2.261253
0.428200	-2.149272
0.428300	-2.032422
0.428400	-2.070723
0.428500	-2.242752
0.428600	-2.420624
0.428700	-2.461196
0.428800	-2.226198
0.428900	-1.991525
0.429000	-1.938618
0.429100	-2.106102
0.429200	-2.292738
0.429300	-2.384595
0.429400	-2.306046
0.429500	-2.125253
0.429600	-2.028202
0.429700	-2.034045
0.429800	-2.122981
0.429900	-2.184327
0.430000	-2.163229
0.430100	-2.128174
0.430200	-2.053520
0.430300	-1.998341
0.430400	-1.956794
0.430500	-1.841892
0.430600	-1.724718
0.430700	-1.731858
0.430800	-1.745815
0.430900	-1.762045
0.431000	-1.712383
0.431100	-1.553338
0.431200	-1.536784
0.431300	-1.320937
0.431400	-1.431944
0.431500	-1.462779
0.431600	-1.478035
0.431700	-1.454665
0.431800	-1.391371
0.431900	-1.336517
0.432000	-1.307629
0.432100	-1.342684
0.432200	-1.410522
0.432300	-1.422531
0.432400	-1.446226
0.432500	-1.505300
0.432600	-1.475763
0.432700	-1.489395
0.432800	-1.466674
0.432900	-1.580603
0.433000	-1.538407
0.433100	-1.655581
0.433200	-1.626694
0.433300	-1.637080
0.433400	-1.388450
0.433500	-1.237519
0.433600	-1.273223
0.433700	-1.772756
0.433800	-2.027553
0.433900	-1.926933
0.434000	-1.694856
0.434100	-1.546197
0.434200	-1.550417
0.434300	-1.801319
0.434400	-1.996069
0.434500	-2.002560
0.434600	-1.889606
0.434700	-1.699076
0.434800	-1.657854
0.434900	-1.732508
0.435000	-1.863964
0.435100	-1.880517
0.435200	-1.930503
0.435300	-1.870455
0.435400	-1.874675
0.435500	-1.880193
0.435600	-1.888956
0.435700	-1.903563
0.435800	-1.948030
0.435900	-2.167773
0.436000	-2.023334
0.436100	-2.121033
0.436200	-2.003859
0.436300	-1.969453
0.436400	-1.918169
0.436500	-1.896422
0.436600	-2.144079
0.436700	-2.254112
0.436800	-2.115515
0.436900	-1.908107
0.437000	-1.711734
0.437100	-1.830856
0.437200	-2.071372
0.437300	-2.222303
0.437400	-2.077864
0.437500	-1.840918
0.437600	-1.698426
0.437700	-1.713682
0.437800	-1.832479
0.437900	-1.888632
0.438000	-1.765615
0.438100	-1.653959
0.438200	-1.531266
0.438300	-1.532565
0.438400	-1.557557
0.438500	-1.487772
0.438600	-1.405653
0.438700	-1.166111
0.438800	-1.106388
0.438900	-1.115476
0.439000	-1.081071
0.439100	-0.982398
0.439200	-0.887944
0.439300	-0.827572
0.439400	-0.931763
0.439500	-0.984994
0.439600	-0.932412
0.439700	-0.813290
0.439800	-0.757138
0.439900	-0.684431
0.440000	-0.638016
0.440100	-0.594522
0.440200	-0.553949
0.440300	-0.528957
0.440400	-0.531553
0.440500	-0.496174
0.440600	-0.497472
0.440700	-0.461444
0.440800	-0.449434
0.440900	-0.467611
0.441000	-0.506561
0.441100	-0.503964
0.441200	-0.545186
0.441300	-0.552002
0.441400	-0.633147
0.441500	-0.692221
0.441600	-0.752594
0.441700	-0.907419
0.441800	-1.212851
0.441900	-1.319639
0.442000	-1.107362
0.442100	-0.865548
0.442200	-0.844126
0.442300	-1.056078
0.442400	-1.462779
0.442500	-1.607219
0.442600	-1.562751
0.442700	-1.306655
0.442800	-1.268355
0.442900	-1.419935
0.443000	-1.651362
0.443100	-1.814627
0.443200	-1.800670
0.443300	-1.734455
0.443400	-1.714331
0.443500	-1.741271
0.443600	-1.842541
0.443700	-1.922713
0.443800	-1.955496
0.443900	-1.951601
0.444000	-1.969453
0.444100	-2.084355
0.444200	-2.093444
0.444300	-2.095716
0.444400	-2.109024
0.444500	-2.128499
0.444600	-2.209644
0.444700	-2.270341
0.444800	-2.270017
0.444900	-2.146675
0.445000	-2.038589
0.445100	-2.211916
0.445200	-2.422246
0.445300	-2.598495
0.445400	-2.608233
0.445500	-2.365444
0.445600	-2.212566
0.445700	-2.323898
0.445800	-2.595899
0.445900	-2.839661
0.446000	-2.855566
0.446100	-2.744558
0.446200	-2.601741
0.446300	-2.588433
0.446400	-2.714047
0.446500	-2.832196
0.446600	-2.861733
0.446700	-2.806554
0.446800	-2.762735
0.446900	-2.736443
0.447000	-2.760787
0.447100	-2.718267
0.447200	-2.566686
0.447300	-2.493330
0.447400	-2.537798
0.447500	-2.562142
0.447600	-2.627059
0.447700	-2.541044
0.447800	-2.382972
0.447900	-2.376156
0.448000	-2.196661
0.448100	-2.301501
0.448200	-2.329416
0.448300	-2.328766
0.448400	-2.272289
0.448500	-2.175563
0.448600	-2.114542
0.448700	-2.150246
0.448800	-2.160632
0.448900	-2.249568
0.449000	-2.233664
0.449100	-2.275210
0.449200	-2.330389
0.449300	-2.230093
0.449400	-2.318055
0.449500	-2.189196
0.449600	-2.338829
0.449700	-2.270991
0.449800	-2.396929
0.449900	-2.358628
0.450000	-2.294685
0.450100	-2.111296
0.450200	-1.903887
0.450300	-2.128823
0.450400	-2.530657
0.450500	-2.781561
0.450600	-2.482294
0.450700	-2.082408
0.450800	-2.004508
0.450900	-1.950627
0.451000	-2.250542
0.451100	-2.345969
0.451200	-2.360900
0.451300	-2.078513
0.451400	-1.918169
0.451500	-1.875324
0.451600	-1.900966
0.451700	-1.982761
0.451800	-1.953224
0.451900	-1.946408
0.452000	-1.813004
0.452100	-1.798398
0.452200	-1.790283
0.452300	-1.784765
0.452400	-1.788985
0.452500	-1.824689
0.452600	-1.897396
0.452700	-1.866236
0.452800	-1.940241
0.452900	-1.931801
0.453000	-1.782493
0.453100	-1.780870
0.453200	-1.775677
0.453300	-2.099611
0.453400	-2.118112
0.453500	-2.021711
0.453600	-1.766913
0.453700	-1.688040
0.453800	-1.834751
0.453900	-2.122007
0.454000	-2.255735
0.454100	-2.123954
0.454200	-1.897720
0.454300	-1.737701
0.454400	-1.863314
0.454500	-2.041186
0.454600	-2.130771
0.454700	-2.054494
0.454800	-2.007754
0.454900	-1.929854
0.455000	-2.012622
0.455100	-2.067802
0.455200	-2.039238
0.455300	-1.975945
0.455400	-1.966856
0.455500	-2.007754
0.455600	-2.016842
0.455700	-2.024632
0.455800	-1.987954
0.455900	-2.000938
0.456000	-2.022035
0.456100	-2.207048
0.456200	-2.257034
0.456300	-2.223277
0.456400	-2.196661
0.456500	-2.122981
0.456600	-2.162904
0.456700	-2.174589
0.456800	-2.146026
0.456900	-2.160632
0.457000	-2.141482
0.457100	-2.134666
0.457200	-2.150895
0.457300	-2.127849
0.457400	-2.157062
0.457500	-2.127849
0.457600	-2.181081
0.457700	-2.148947
0.457800	-2.137587
0.457900	-2.134990
0.458000	-2.128499
0.458100	-2.193740
0.458200	-2.194714
0.458300	-2.215487
0.458400	-2.413158
0.458500	-2.602390
0.458600	-2.587784
0.458700	-2.226847
0.458800	-2.014245
0.458900	-2.051572
0.459000	-2.328766
0.459100	-2.651078
0.459200	-2.665035
0.459300	-2.484567
0.459400	-2.201530
0.459500	-2.183678
0.459600	-2.315459
0.459700	-2.524815
0.459800	-2.622190
0.459900	-2.561168
0.460000	-2.482944
0.460100	-2.416079
0.460200	-2.459249
0.460300	-2.503392
0.460400	-2.522867
0.460500	-2.530657
0.460600	-2.491383
0.460700	-2.484891
0.460800	-2.500471
0.460900	-2.528385
0.461000	-2.453082
0.461100	-2.461846
0.461200	-2.425817
0.461300	-2.447889
0.461400	-2.444967
0.461500	-2.355382
0.461600	-2.148623
0.461700	-2.110322
0.461800	-2.267745
0.461900	-2.454380
0.462000	-2.555650
0.462100	-2.365769
0.462200	-2.079487
0.462300	-1.910379
0.462400	-1.999639
0.462500	-2.225549
0.462600	-2.422896
0.462700	-2.395955
0.462800	-2.195038
0.462900	-2.050599
0.463000	-2.049300
0.463100	-2.090847
0.463200	-2.170045
0.463300	-2.186599
0.463400	-2.180432
0.463500	-2.144403
0.463600	-2.121358
0.463700	-2.046704
0.463800	-1.942513
0.463900	-1.810407
0.464000	-1.789634
0.464100	-1.795152
0.464200	-1.790932
0.464300	-1.770484
0.464400	-1.619228
0.464500	-1.495887
0.464600	-1.358913
0.464700	-1.370598
0.464800	-1.421233
0.464900	-1.486474
0.465000	-1.450445
0.465100	-1.442006
0.465200	-1.363457
0.465300	-1.379362
0.465400	-1.377414
0.465500	-1.462455
0.465600	-1.513414
0.465700	-1.557882
0.465800	-1.630264
0.465900	-1.606569
0.466000	-1.607868
0.466100	-1.584173
0.466200	-1.623772
0.466300	-1.662398
0.466400	-1.684469
0.466500	-1.852279
0.466600	-1.662722
0.466700	-1.716278
0.466800	-1.239467
0.466900	-1.488746
0.467000	-1.482904
0.467100	-2.166799
0.467200	-1.998990
0.467300	-1.747763
0.467400	-1.520880
0.467500	-1.380985
0.467600	-1.584822
0.467700	-1.756202
0.467800	-1.908431
0.467900	-1.806837
0.468000	-1.589367
0.468100	-1.513414
0.468200	-1.475438
0.468300	-1.595209
0.468400	-1.562426
0.468500	-1.630264
0.468600	-1.661424
0.468700	-1.649414
0.468800	-1.649414
0.468900	-1.652985
0.469000	-1.673433
0.469100	-1.658178
0.469200	-1.807811
0.469300	-1.915248
0.469400	-1.865262
0.469500	-1.917195
0.469600	-1.743868
0.469700	-1.741271
0.469800	-1.694856
0.469900	-1.889930
0.470000	-2.119410
0.470100	-2.043133
0.470200	-1.879868
0.470300	-1.639352
0.470400	-1.662722
0.470500	-1.869481
0.470600	-2.165826
0.470700	-2.134341
0.470800	-2.011973
0.470900	-1.826312
0.471000	-1.864288
0.471100	-2.007105
0.471200	-2.163229
0.471300	-2.147324
0.471400	-2.119410
0.471500	-2.101883
0.471600	-2.139534
0.471700	-2.224900
0.471800	-2.218084
0.471900	-2.140184
0.472000	-2.074293
0.472100	-2.094093
0.472200	-2.148947
0.472300	-2.131420
0.472400	-2.088900
0.472500	-2.054169
0.472600	-2.052222
0.472700	-2.123954
0.472800	-2.274236
0.472900	-2.264824
0.473000	-2.248919
0.473100	-2.220031
0.473200	-2.135964
0.473300	-2.169072
0.473400	-2.169396
0.473500	-2.134990
0.473600	-2.165177
0.473700	-2.153816
0.473800	-2.179458
0.473900	-2.141807
0.474000	-2.145052
0.474100	-2.117138
0.474200	-2.082732
0.474300	-2.047353
0.474400	-1.988279
0.474500	-1.995744
0.474600	-1.969453
0.474700	-1.974322
0.474800	-1.972050
0.474900	-1.954198
0.475000	-1.991525
0.475100	-2.144728
0.475200	-2.321301
0.475300	-2.074293
0.475400	-1.753605
0.475500	-1.535810
0.475600	-1.621176
0.475700	-1.938293
0.475800	-2.086627
0.475900	-2.067802
0.476000	-1.787362
0.476100	-1.593911
0.476200	-1.604297
0.476300	-1.779247
0.476400	-1.965233
0.476500	-1.982112
0.476600	-1.923687
0.476700	-1.840918
0.476800	-1.827286
0.476900	-1.894474
0.477000	-1.945109
0.477100	-1.983085
0.477200	-1.994121
0.477300	-1.990226
0.477400	-2.072021
0.477500	-2.147000
0.477600	-2.162255
0.477700	-2.123630
0.477800	-2.140508
0.477900	-2.176212
0.478000	-2.285921
0.478100	-2.295010
0.478200	-2.175888
0.478300	-2.040537
0.478400	-2.093444
0.478500	-2.298580
0.478600	-2.548834
0.478700	-2.620892
0.478800	-2.405044
0.478900	-2.179134
0.479000	-2.167773
0.479100	-2.406017
0.479200	-2.699441
0.479300	-2.838687
0.479400	-2.793895
0.479500	-2.646209
0.479600	-2.606610
0.479700	-2.657894
0.479800	-2.757217
0.479900	-2.834143
0.480000	-2.823756
0.480100	-2.839012
0.480200	-2.825704
0.480300	-2.830573
0.480400	-2.802009
0.480500	-2.688730
0.480600	-2.602390
0.480700	-2.604987
0.480800	-2.631278
0.480900	-2.664710
0.481000	-2.643937
0.481100	-2.487163
0.481200	-2.457626
0.481300	-2.236260
0.481400	-2.342074
0.481500	-2.423545
0.481600	-2.468337
0.481700	-2.411860
0.481800	-2.367716
0.481900	-2.317081
0.482000	-2.287869
0.482100	-2.349540
0.482200	-2.438151
0.482300	-2.413807
0.482400	-2.512156
0.482500	-2.471583
0.482600	-2.560519
0.482700	-2.463144
0.482800	-2.548509
0.482900	-2.468986
0.483000	-2.594600
0.483100	-2.593627
0.483200	-2.646534
0.483300	-2.622515
0.483400	-2.325521
0.483500	-2.131420
0.483600	-2.143429
0.483700	-2.530657
0.483800	-2.869198
0.483900	-2.690353
0.484000	-2.522218
0.484100	-2.219706
0.484200	-2.261902
0.484300	-2.339478
0.484400	-2.546562
0.484500	-2.546887
0.484600	-2.394981
0.484700	-2.170045
0.484800	-2.143754
0.484900	-2.135315
0.485000	-2.241778
0.485100	-2.228795
0.485200	-2.265148
0.485300	-2.186924
0.485400	-2.183678
0.485500	-2.150246
0.485600	-2.214513
0.485700	-2.178160
0.485800	-2.266771
0.485900	-2.333311
0.486000	-2.303449
0.486100	-2.344996
0.486200	-2.254437
0.486300	-2.242103
0.486400	-2.127525
0.486500	-2.163878
0.486600	-2.320003
0.486700	-2.538447
0.486800	-2.424194
0.486900	-2.198284
0.487000	-2.001587
0.487100	-2.120059
0.487200	-2.417053
0.487300	-2.638095
0.487400	-2.524490
0.487500	-2.361874
0.487600	-2.206399
0.487700	-2.283649
0.487800	-2.456977
0.487900	-2.572529
0.488000	-2.508586
0.488100	-2.503717
0.488200	-2.401149
0.488300	-2.471908
0.488400	-2.523841
0.488500	-2.507287
0.488600	-2.404070
0.488700	-2.308642
0.488800	-2.304098
0.488900	-2.294361
0.489000	-2.263201
0.489100	-2.183678
0.489200	-2.127849
0.489300	-2.101883
0.489400	-2.221329
0.489500	-2.296633
0.489600	-2.237559
0.489700	-2.187897
0.489800	-2.097339
0.489900	-2.081759
0.490000	-2.073644
0.490100	-2.041510
0.490200	-2.015544
0.490300	-2.002236
0.490400	-2.020737
0.490500	-2.026255
0.490600	-2.023983
0.490700	-2.066503
0.490800	-2.071697
0.490900	-2.092145
0.491000	-2.092794
0.491100	-2.113243
0.491200	-2.147324
0.491300	-2.215162
0.491400	-2.201854
0.491500	-2.307993
0.491600	-2.307993
0.491700	-2.490084
0.491800	-2.717618
0.491900	-2.811747
0.492000	-2.564414
0.492100	-2.275535
0.492200	-2.195363
0.492300	-2.346619
0.492400	-2.727355
0.492500	-2.808826
0.492600	-2.698792
0.492700	-2.427440
0.492800	-2.316432
0.492900	-2.354084
0.493000	-2.490409
0.493100	-2.637121
0.493200	-2.573502
0.493300	-2.512481
0.493400	-2.455354
0.493500	-2.385893
0.493600	-2.433931
0.493700	-2.461846
0.493800	-2.444967
0.493900	-2.374857
0.494000	-2.383296
0.494100	-2.394332
0.494200	-2.430686
0.494300	-2.397578
0.494400	-2.370638
0.494500	-2.366418
0.494600	-2.423869
0.494700	-2.438151
0.494800	-2.408614
0.494900	-2.227821
0.495000	-2.125253
0.495100	-2.266122
0.495200	-2.472232
0.495300	-2.635822
0.495400	-2.550132
0.495500	-2.272938
0.495600	-2.081434
0.495700	-2.125577
0.495800	-2.344022
0.495900	-2.558896
0.496000	-2.528061
0.496100	-2.388490
0.496200	-2.234637
0.496300	-2.207372
0.496400	-2.241129
0.496500	-2.296633
0.496600	-2.303124
0.496700	-2.236585
0.496800	-2.189520
0.496900	-2.142780
0.497000	-2.116814
0.497100	-2.055467
0.497200	-1.905835
0.497300	-1.835400
0.497400	-1.821443
0.497500	-1.853901
0.497600	-1.904861
0.497700	-1.800345
0.497800	-1.653634
0.497900	-1.575410
0.498000	-1.439734
0.498100	-1.562751
0.498200	-1.579954
0.498300	-1.559180
0.498400	-1.491992
0.498500	-1.379686
0.498600	-1.361834
0.498700	-1.338789
0.498800	-1.374493
0.498900	-1.427075
0.499000	-1.432269
0.499100	-1.489071
0.499200	-1.485176
0.499300	-1.475763
0.499400	-1.466999
0.499500	-1.478359
0.499600	-1.528994
0.499700	-1.574111
0.499800	-1.588717
0.499900	-1.602350
0.500000	-1.462779
0.500100	-1.252450
0.500200	-1.064842
0.500300	-1.256994
0.500400	-1.699725
0.500500	-1.914598
0.500600	-1.679925
0.500700	-1.431944
0.500800	-1.279715
0.500900	-1.333596
0.501000	-1.610140
0.501100	-1.755228
0.501200	-1.788011
0.501300	-1.680899
0.501400	-1.460832
0.501500	-1.528994
0.501600	-1.573787
0.501700	-1.637729
0.501800	-1.617930
0.501900	-1.621825
0.502000	-1.558531
0.502100	-1.615982
0.502200	-1.622149
0.502300	-1.682846
0.502400	-1.691935
0.502500	-1.800345
0.502600	-1.972050
0.502700	-1.947057
0.502800	-2.073969
0.502900	-1.989253
0.503000	-1.978217
0.503100	-1.951601
0.503200	-2.095716
0.503300	-2.446915
0.503400	-2.479049
0.503500	-2.345645
0.503600	-2.149597
0.503700	-2.061959
0.503800	-2.285921
0.503900	-2.546237
0.504000	-2.671202
0.504100	-2.495602
0.504200	-2.290466
0.504300	-2.181406
0.504400	-2.324222
0.504500	-2.457301
0.504600	-2.499497
0.504700	-2.327144
0.504800	-2.290141
0.504900	-2.225874
0.505000	-2.327468
0.505100	-2.368041
0.505200	-2.349540
0.505300	-2.270991
0.505400	-2.259306
0.505500	-2.315134
0.505600	-2.355382
0.505700	-2.313511
0.505800	-2.275859
0.505900	-2.247296
0.506000	-2.279430
0.506100	-2.441397
0.506200	-2.438800
0.506300	-2.420624
0.506400	-2.358953
0.506500	-2.245998
0.506600	-2.356031
0.506700	-2.347268
0.506800	-2.339153
0.506900	-2.352786
0.507000	-2.350838
0.507100	-2.376156
0.507200	-2.410886
0.507300	-2.395306
0.507400	-2.426141
0.507500	-2.419001
0.507600	-2.454705
0.507700	-2.457301
0.507800	-2.460547
0.507900	-2.461846
0.508000	-2.462819
0.508100	-2.499822
0.508200	-2.472881
0.508300	-2.548185
0.508400	-2.671851
0.508500	-2.916263
0.508600	-2.871795
0.508700	-2.564739
0.508800	-2.388814
0.508900	-2.416079
0.509000	-2.685484
0.509100	-2.997084
0.509200	-3.029218
0.509300	-2.803957
0.509400	-2.568958
0.509500	-2.502094
0.509600	-2.724434
0.509700	-2.895814
0.509800	-3.022727
0.509900	-2.946125
0.510000	-2.835766
0.510100	-2.815642
0.510200	-2.825704
0.510300	-2.872769
0.510400	-2.891595
0.510500	-2.848425
0.510600	-2.791298
0.510700	-2.773446
0.510800	-2.806554
0.510900	-2.878611
0.511000	-2.840310
0.511100	-2.792272
0.511200	-2.775393
0.511300	-2.817589
0.511400	-2.823432
0.511500	-2.745207
0.511600	-2.604662
0.511700	-2.582591
0.511800	-2.772472
0.511900	-2.995461
0.512000	-3.140551
0.512100	-3.032789
0.512200	-2.762410
0.512300	-2.678343
0.512400	-2.862057
0.512500	-3.134708
0.512600	-3.307712
0.512700	-3.245391
0.512800	-3.043500
0.512900	-2.881532
0.513000	-2.906850
0.513100	-2.994812
0.513200	-3.049018
0.513300	-2.994812
0.513400	-2.926000
0.513500	-2.831547
0.513600	-2.765007
0.513700	-2.693274
0.513800	-2.616997
0.513900	-2.460223
0.514000	-2.363172
0.514100	-2.335258
0.514200	-2.310265
0.514300	-2.287869
0.514400	-2.088250
0.514500	-1.958417
0.514600	-1.775677
0.514700	-1.764317
0.514800	-1.814627
0.514900	-1.814302
0.515000	-1.757176
0.515100	-1.689987
0.515200	-1.556584
0.515300	-1.534837
0.515400	-1.562751
0.515500	-1.631562
0.515600	-1.673109
0.515700	-1.636431
0.515800	-1.691935
0.515900	-1.632536
0.516000	-1.605920
0.516100	-1.626369
0.516200	-1.589042
0.516300	-1.680250
0.516400	-1.630913
0.516500	-1.836049
0.516600	-1.620851
0.516700	-1.685768
0.516800	-1.283610
0.516900	-1.403705
0.517000	-1.557233
0.517100	-2.177511
0.517200	-2.079162
0.517300	-1.836049
0.517400	-1.609491
0.517500	-1.524775
0.517600	-1.727314
0.517700	-1.930503
0.517800	-2.078837
0.517900	-2.009377
0.518000	-1.776651
0.518100	-1.739973
0.518200	-1.709462
0.518300	-1.850331
0.518400	-1.962312
0.518500	-2.018790
0.518600	-1.991525
0.518700	-2.011973
0.518800	-1.972374
0.518900	-2.030150
0.519000	-2.057415
0.519100	-2.133043
0.519200	-2.183029
0.519300	-2.263850
0.519400	-2.284623
0.519500	-2.332986
0.519600	-2.302151
0.519700	-2.265148
0.519800	-2.284623
0.519900	-2.458600
0.520000	-2.698143
0.520100	-2.708205
0.520200	-2.621865
0.520300	-2.425168
0.520400	-2.522543
0.520500	-2.773771
0.520600	-3.087319
0.520700	-3.112636
0.520800	-2.984101
0.520900	-2.851022
0.521000	-2.858487
0.521100	-3.074335
0.521200	-3.234680
0.521300	-3.267139
0.521400	-3.247988
0.521500	-3.195081
0.521600	-3.224618
0.521700	-3.294728
0.521800	-3.328161
0.521900	-3.301220
0.522000	-3.252857
0.522100	-3.315502
0.522200	-3.363540
0.522300	-3.372953
0.522400	-3.346013
0.522500	-3.313554
0.522600	-3.299272
0.522700	-3.391455
0.522800	-3.507656
0.522900	-3.443388
0.523000	-3.357373
0.523100	-3.271034
0.523200	-3.112961
0.523300	-3.092512
0.523400	-2.983127
0.523500	-2.903280
0.523600	-2.827651
0.523700	-2.776692
0.523800	-2.740338
0.523900	-2.698143
0.524000	-2.673799
0.524100	-2.679641
0.524200	-2.654648
0.524300	-2.648157
0.524400	-2.616997
0.524500	-2.663412
0.524600	-2.651727
0.524700	-2.677694
0.524800	-2.700090
0.524900	-2.701388
0.525000	-2.727680
0.525100	-2.921781
0.525200	-3.020779
0.525300	-2.751374
0.525400	-2.419325
0.525500	-2.177186
0.525600	-2.333635
0.525700	-2.588109
0.525800	-2.729952
0.525900	-2.630629
0.526000	-2.357979
0.526100	-2.207048
0.526200	-2.228146
0.526300	-2.420948
0.526400	-2.570257
0.526500	-2.550132
0.526600	-2.543965
0.526700	-2.475803
0.526800	-2.464118
0.526900	-2.486189
0.527000	-2.537798
0.527100	-2.589407
0.527200	-2.562791
0.527300	-2.551106
0.527400	-2.586810
0.527500	-2.638095
0.527600	-2.619918
0.527700	-2.550132
0.527800	-2.579669
0.527900	-2.611479
0.528000	-2.641340
0.528100	-2.605312
0.528200	-2.490409
0.528300	-2.343048
0.528400	-2.472881
0.528500	-2.684510
0.528600	-2.855890
0.528700	-2.894516
0.528800	-2.669255
0.528900	-2.431984
0.529000	-2.442046
0.529100	-2.687431
0.529200	-2.906525
0.529300	-2.978583
0.529400	-2.868549
0.529500	-2.694897
0.529600	-2.644586
0.529700	-2.624137
0.529800	-2.688405
0.529900	-2.737417
0.530000	-2.729627
0.530100	-2.732548
0.530200	-2.652701
0.530300	-2.651078
0.530400	-2.595250
0.530500	-2.464442
0.530600	-2.359602
0.530700	-2.344996
0.530800	-2.384595
0.530900	-2.394008
0.531000	-2.332012
0.531100	-2.162255
0.531200	-2.075267
0.531300	-1.893501
0.531400	-1.996393
0.531500	-2.039887
0.531600	-2.074618
0.531700	-2.044756
0.531800	-2.028527
0.531900	-1.950303
0.532000	-1.938618
0.532100	-2.047353
0.532200	-2.065205
0.532300	-2.142780
0.532400	-2.110647
0.532500	-2.196986
0.532600	-2.096689
0.532700	-2.109024
0.532800	-2.066179
0.532900	-2.068126
0.533000	-2.088900
0.533100	-2.125253
0.533200	-2.131420
0.533300	-2.033396
0.533400	-1.743543
0.533500	-1.577357
0.533600	-1.600402
0.533700	-2.125577
0.533800	-2.367716
0.533900	-2.352136
0.534000	-1.905510
0.534100	-1.894799
0.534200	-1.890579
0.534300	-2.123954
0.534400	-2.315783
0.534500	-2.387516
0.534600	-2.144403
0.534700	-2.033396
0.534800	-1.924985
0.534900	-1.992174
0.535000	-2.019439
0.535100	-2.029501
0.535200	-1.943162
0.535300	-1.934723
0.535400	-1.917520
0.535500	-1.912326
0.535600	-1.916221
0.535700	-1.911028
0.535800	-1.958417
0.535900	-2.131744
0.536000	-2.060336
0.536100	-2.185625
0.536200	-2.152842
0.536300	-2.090847
0.536400	-2.056766
0.536500	-2.123305
0.536600	-2.398552
0.536700	-2.558572
0.536800	-2.375831
0.536900	-2.142780
0.537000	-1.997367
0.537100	-2.113892
0.537200	-2.341101
0.537300	-2.505664
0.537400	-2.352136
0.537500	-2.110971
0.537600	-1.943162
0.537700	-2.062933
0.537800	-2.274236
0.537900	-2.341101
0.538000	-2.233339
0.538100	-2.220031
0.538200	-2.190819
0.538300	-2.331363
0.538400	-2.369664
0.538500	-2.378103
0.538600	-2.291439
0.538700	-2.235286
0.538800	-2.327793
0.538900	-2.387841
0.539000	-2.339478
0.539100	-2.304423
0.539200	-2.272938
0.539300	-2.281053
0.539400	-2.411860
0.539500	-2.475803
0.539600	-2.459249
0.539700	-2.383621
0.539800	-2.244375
0.539900	-2.287544
0.540000	-2.323898
0.540100	-2.304098
0.540200	-2.316432
0.540300	-2.316432
0.540400	-2.326494
0.540500	-2.283649
0.540600	-2.306695
0.540700	-2.306046
0.540800	-2.286895
0.540900	-2.275535
0.541000	-2.238532
0.541100	-2.227496
0.541200	-2.179134
0.541300	-2.216461
0.541400	-2.216785
0.541500	-2.263850
0.541600	-2.319678
0.541700	-2.494629
0.541800	-2.799737
0.541900	-2.807203
0.542000	-2.590705
0.542100	-2.350838
0.542200	-2.372261
0.542300	-2.608882
0.542400	-3.004550
0.542500	-3.105496
0.542600	-2.993189
0.542700	-2.762410
0.542800	-2.665035
0.542900	-2.754620
0.543000	-2.912043
0.543100	-3.022402
0.543200	-2.985399
0.543300	-2.818888
0.543400	-2.715670
0.543500	-2.654648
0.543600	-2.674123
0.543700	-2.691002
0.543800	-2.669579
0.543900	-2.646209
0.544000	-2.617321
0.544100	-2.666982
0.544200	-2.755269
0.544300	-2.773771
0.544400	-2.737417
0.544500	-2.706906
0.544600	-2.755269
0.544700	-2.801036
0.544800	-2.783184
0.544900	-2.640042
0.545000	-2.600443
0.545100	-2.805904
0.545200	-3.078230
0.545300	-3.210012
0.545400	-3.138928
0.545500	-2.857189
0.545600	-2.667632
0.545700	-2.750401
0.545800	-2.995137
0.545900	-3.208713
0.546000	-3.165544
0.546100	-2.990917
0.546200	-2.798114
0.546300	-2.760138
0.546400	-2.800062
0.546500	-2.857513
0.546600	-2.859785
0.546700	-2.812071
0.546800	-2.752348
0.546900	-2.713723
0.547000	-2.715021
0.547100	-2.695870
0.547200	-2.569283
0.547300	-2.496576
0.547400	-2.520595
0.547500	-2.562791
0.547600	-2.607584
0.547700	-2.534877
0.547800	-2.432633
0.547900	-2.306695
0.548000	-2.177511
0.548100	-2.280728
0.548200	-2.308318
0.548300	-2.273263
0.548400	-2.166475
0.548500	-2.048002
0.548600	-1.965883
0.548700	-1.954847
0.548800	-1.955820
0.548900	-2.001587
0.549000	-1.965233
0.549100	-1.992498
0.549200	-1.973023
0.549300	-1.995744
0.549400	-1.938618
0.549500	-2.017491
0.549600	-2.027553
0.549700	-2.091172
0.549800	-2.124279
0.549900	-2.198933
0.550000	-2.074293
0.550100	-1.924661
0.550200	-1.806188
0.550300	-1.996718
0.550400	-2.548185
0.550500	-2.599794
0.550600	-2.369664
0.550700	-2.150246
0.550800	-1.981463
0.550900	-2.085329
0.551000	-2.303449
0.551100	-2.528061
0.551200	-2.445292
0.551300	-2.316108
0.551400	-2.049950
0.551500	-2.042160
0.551600	-2.016842
0.551700	-2.093444
0.551800	-2.109673
0.551900	-2.085329
0.552000	-2.082732
0.552100	-2.091821
0.552200	-2.151219
0.552300	-2.150895
0.552400	-2.270991
0.552500	-2.432633
0.552600	-2.521894
0.552700	-2.562467
0.552800	-2.652701
0.552900	-2.659192
0.553000	-2.593951
0.553100	-2.662114
0.553200	-2.694572
0.553300	-3.066870
0.553400	-3.140226
0.553500	-3.030517
0.553600	-2.787403
0.553700	-2.730926
0.553800	-2.958459
0.553900	-3.255778
0.554000	-3.380419
0.554100	-3.235654
0.554200	-3.098355
0.554300	-3.050965
0.554400	-3.239873
0.554500	-3.393402
0.554600	-3.447932
0.554700	-3.357373
0.554800	-3.382366
0.554900	-3.315177
0.555000	-3.405087
0.555100	-3.388209
0.555200	-3.364514
0.555300	-3.285315
0.555400	-3.251883
0.555500	-3.221048
0.555600	-3.149314
0.555700	-3.067844
0.555800	-2.987347
0.555900	-2.914315
0.556000	-2.898411
0.556100	-2.994163
0.556200	-2.932817
0.556300	-2.864329
0.556400	-2.782210
0.556500	-2.593627
0.556600	-2.604013
0.556700	-2.529034
0.556800	-2.461846
0.556900	-2.412834
0.557000	-2.369339
0.557100	-2.341101
0.557200	-2.296308
0.557300	-2.259630
0.557400	-2.240480
0.557500	-2.198284
0.557600	-2.187248
0.557700	-2.134017
0.557800	-2.156088
0.557900	-2.172967
0.558000	-2.131744
0.558100	-2.205425
0.558200	-2.187573
0.558300	-2.249893
0.558400	-2.384595
0.558500	-2.616672
0.558600	-2.485540
0.558700	-2.166799
0.558800	-1.987630
0.558900	-1.993797
0.559000	-2.292413
0.559100	-2.530333
0.559200	-2.528710
0.559300	-2.321950
0.559400	-2.089873
0.559500	-2.070074
0.559600	-2.160632
0.559700	-2.324222
0.559800	-2.348566
0.559900	-2.312862
0.560000	-2.214838
0.560100	-2.112919
0.560200	-2.126876
0.560300	-2.111620
0.560400	-2.084355
0.560500	-2.032422
0.560600	-1.966532
0.560700	-1.972374
0.560800	-1.961663
0.560900	-1.915248
0.561000	-1.826961
0.561100	-1.810732
0.561200	-1.793529
0.561300	-1.843839
0.561400	-1.833777
0.561500	-1.742570
0.561600	-1.564698
0.561700	-1.585147
0.561800	-1.754579
0.561900	-1.950627
0.562000	-2.075916
0.562100	-1.934073
0.562200	-1.655257
0.562300	-1.579629
0.562400	-1.756851
0.562500	-1.973023
0.562600	-2.117138
0.562700	-2.048976
0.562800	-1.896746
0.562900	-1.850331
0.563000	-1.868183
0.563100	-1.948355
0.563200	-1.993797
0.563300	-1.989902
0.563400	-1.966856
0.563500	-1.951601
0.563600	-1.923687
0.563700	-1.875324
0.563800	-1.806512
0.563900	-1.680899
0.564000	-1.636431
0.564100	-1.677978
0.564200	-1.700049
0.564300	-1.723744
0.564400	-1.540355
0.564500	-1.446226
0.564600	-1.274846
0.564700	-1.328402
0.564800	-1.403705
0.564900	-1.448498
0.565000	-1.425777
0.565100	-1.384230
0.565200	-1.327429
0.565300	-1.332622
0.565400	-1.410522
0.565500	-1.465701
0.565600	-1.535810
0.565700	-1.537758
0.565800	-1.658178
0.565900	-1.628966
0.566000	-1.654932
0.566100	-1.661749
0.566200	-1.631562
0.566300	-1.746140
0.566400	-1.749386
0.566500	-1.851629
0.566600	-1.701672
0.566700	-1.664021
0.566800	-1.343982
0.566900	-1.398188
0.567000	-1.657854
0.567100	-2.202504
0.567200	-2.034045
0.567300	-1.813329
0.567400	-1.551066
0.567500	-1.528345
0.567600	-1.718875
0.567700	-2.039887
0.567800	-2.149921
0.567900	-2.072995
0.568000	-1.918493
0.568100	-1.845462
0.568200	-1.882465
0.568300	-2.031124
0.568400	-2.053845
0.568500	-2.134666
0.568600	-2.148947
0.568700	-2.188547
0.568800	-2.258332
0.568900	-2.357979
0.569000	-2.362848
0.569100	-2.420299
0.569200	-2.563765
0.569300	-2.728978
0.569400	-2.796167
0.569500	-2.814019
0.569600	-2.782534
0.569700	-2.744883
0.569800	-2.795193
0.569900	-3.016235
0.570000	-3.370032
0.570100	-3.287587
0.570200	-3.185668
0.570300	-2.933790
0.570400	-3.109715
0.570500	-3.356075
0.570600	-3.663781
0.570700	-3.643332
0.570800	-3.494348
0.570900	-3.304466
0.571000	-3.318423
0.571100	-3.532000
0.571200	-3.653719
0.571300	-3.611848
0.571400	-3.493374
0.571500	-3.408333
0.571600	-3.380743
0.571700	-3.415474
0.571800	-3.437221
0.571900	-3.333678
0.572000	-3.194432
0.572100	-3.149964
0.572200	-3.136980
0.572300	-3.097381
0.572400	-3.009743
0.572500	-2.896463
0.572600	-2.755594
0.572700	-2.756568
0.572800	-2.793570
0.572900	-2.669255
0.573000	-2.514753
0.573100	-2.327468
0.573200	-2.207372
0.573300	-2.186274
0.573400	-2.112594
0.573500	-2.096365
0.573600	-2.063257
0.573700	-2.070074
0.573800	-2.103830
0.573900	-2.140508
0.574000	-2.168422
0.574100	-2.207697
0.574200	-2.260279
0.574300	-2.301177
0.574400	-2.305721
0.574500	-2.367392
0.574600	-2.438476
0.574700	-2.465741
0.574800	-2.540395
0.574900	-2.629006
0.575000	-2.750076
0.575100	-3.028244
0.575200	-3.190537
0.575300	-3.037657
0.575400	-2.765007
0.575500	-2.705933
0.575600	-2.868874
0.575700	-3.298948
0.575800	-3.497269
0.575900	-3.430080
0.576000	-3.183071
0.576100	-2.970793
0.576200	-2.975013
0.576300	-3.150613
0.576400	-3.282069
0.576500	-3.206441
0.576600	-3.063300
0.576700	-2.849723
0.576800	-2.831547
0.576900	-2.798764
0.577000	-2.753646
0.577100	-2.705608
0.577200	-2.597197
0.577300	-2.521244
0.577400	-2.510209
0.577500	-2.570906
0.577600	-2.442695
0.577700	-2.400499
0.577800	-2.333960
0.577900	-2.353435
0.578000	-2.357005
0.578100	-2.373559
0.578200	-2.202179
0.578300	-2.046055
0.578400	-2.146351
0.578500	-2.362848
0.578600	-2.594600
0.578700	-2.631603
0.578800	-2.411535
0.578900	-2.188222
0.579000	-2.171344
0.579100	-2.391736
0.579200	-2.631927
0.579300	-2.699116
0.579400	-2.510533
0.579500	-2.291115
0.579600	-2.168098
0.579700	-2.171019
0.579800	-2.254112
0.579900	-2.287544
0.580000	-2.258007
0.580100	-2.186924
0.580200	-2.122332
0.580300	-2.099935
0.580400	-2.072995
0.580500	-1.990551
0.580600	-1.909405
0.580700	-1.921090
0.580800	-1.946732
0.580900	-1.965883
0.581000	-1.941863
0.581100	-1.755553
0.581200	-1.705567
0.581300	-1.567944
0.581400	-1.670512
0.581500	-1.708164
0.581600	-1.722121
0.581700	-1.697128
0.581800	-1.664345
0.581900	-1.585796
0.582000	-1.589042
0.582100	-1.652011
0.582200	-1.766913
0.582300	-1.787362
0.582400	-1.891878
0.582500	-1.937319
0.582600	-1.942513
0.582700	-1.952250
0.582800	-1.993472
0.582900	-2.065530
0.583000	-2.060661
0.583100	-2.159659
0.583200	-2.090198
0.583300	-2.085329
0.583400	-1.865262
0.583500	-1.671161
0.583600	-1.769510
0.583700	-2.223601
0.583800	-2.494629
0.583900	-2.232690
0.584000	-1.882465
0.584100	-1.722445
0.584200	-1.741271
0.584300	-1.968479
0.584400	-2.174914
0.584500	-2.222952
0.584600	-1.969453
0.584700	-1.804889
0.584800	-1.693233
0.584900	-1.796450
0.585000	-1.901615
0.585100	-1.950627
0.585200	-1.946083
0.585300	-1.929854
0.585400	-1.879219
0.585500	-1.856174
0.585600	-1.817224
0.585700	-1.766913
0.585800	-1.807811
0.585900	-1.968155
0.586000	-1.883439
0.586100	-1.993472
0.586200	-1.913300
0.586300	-1.864288
0.586400	-1.837672
0.586500	-1.838321
0.586600	-2.198284
0.586700	-2.272938
0.586800	-2.194714
0.586900	-1.959391
0.587000	-1.823066
0.587100	-1.976269
0.587200	-2.245024
0.587300	-2.458275
0.587400	-2.388165
0.587500	-2.200232
0.587600	-2.047028
0.587700	-2.151219
0.587800	-2.342074
0.587900	-2.431659
0.588000	-2.340127
0.588100	-2.344346
0.588200	-2.289816
0.588300	-2.400824
0.588400	-2.443669
0.588500	-2.492357
0.588600	-2.440423
0.588700	-2.428414
0.588800	-2.502419
0.588900	-2.522867
0.589000	-2.517999
0.589100	-2.466714
0.589200	-2.510209
0.589300	-2.549159
0.589400	-2.708529
0.589500	-2.782534
0.589600	-2.743260
0.589700	-2.694572
0.589800	-2.554677
0.589900	-2.616997
0.590000	-2.606610
0.590100	-2.574476
0.590200	-2.548834
0.590300	-2.546237
0.590400	-2.554027
0.590500	-2.510533
0.590600	-2.496901
0.590700	-2.455354
0.590800	-2.459574
0.590900	-2.419001
0.591000	-2.433282
0.591100	-2.359277
0.591200	-2.369339
0.591300	-2.368366
0.591400	-2.375506
0.591500	-2.408939
0.591600	-2.420624
0.591700	-2.566362
0.591800	-2.761436
0.591900	-2.743260
0.592000	-2.408939
0.592100	-2.155114
0.592200	-2.020088
0.592300	-2.275535
0.592400	-2.517674
0.592500	-2.579669
0.592600	-2.381349
0.592700	-2.055143
0.592800	-1.982112
0.592900	-2.069749
0.593000	-2.264824
0.593100	-2.379401
0.593200	-2.339802
0.593300	-2.273263
0.593400	-2.203153
0.593500	-2.246647
0.593600	-2.309616
0.593700	-2.358304
0.593800	-2.376156
0.593900	-2.347592
0.594000	-2.393683
0.594100	-2.442695
0.594200	-2.517025
0.594300	-2.464767
0.594400	-2.473531
0.594500	-2.485865
0.594600	-2.544939
0.594700	-2.549483
0.594800	-2.456328
0.594900	-2.234313
0.595000	-2.173616
0.595100	-2.277807
0.595200	-2.500796
0.595300	-2.650104
0.595400	-2.570257
0.595500	-2.258656
0.595600	-2.047028
0.595700	-2.119735
0.595800	-2.383296
0.595900	-2.529359
0.596000	-2.461521
0.596100	-2.230093
0.596200	-2.070723
0.596300	-2.016842
0.596400	-2.047353
0.596500	-2.088575
0.596600	-2.036317
0.596700	-1.950627
0.596800	-1.876947
0.596900	-1.770159
0.597000	-1.740298
0.597100	-1.674732
0.597200	-1.526073
0.597300	-1.439085
0.597400	-1.427075
0.597500	-1.452393
