LabVIEW Measurement	
Writer_Version	2
Reader_Version	2
Separator	Tab
Decimal_Separator	.
Multi_Headings	Yes
X_Columns	One
Time_Pref	Relative
Operator	as989
Description	Time Domain Data
Date	1903/12/31
Time	19:00:00
***End_of_Header***	
	
Channels	1	
Samples	15000	
Date	1903/12/31	
Time	19:00:00	
X_Dimension	Time	
X0	0.0000000000000000E+0	
Delta_X	0.000100	
***End_of_Header***		
X_Value	Untitled	Comment
0.000000	-1.441357	Tare Values:0.000000, 0.000000, 0.000000, 0.000000\0D\0A
0.000100	-1.467973
0.000200	-1.619553
0.000300	-1.847734
0.000400	-1.914598
0.000500	-1.727639
0.000600	-1.541328
0.000700	-1.493615
0.000800	-1.762369
0.000900	-2.036642
0.001000	-2.193740
0.001100	-2.124928
0.001200	-2.025930
0.001300	-1.926283
0.001400	-2.033071
0.001500	-2.210943
0.001600	-2.376480
0.001700	-2.386542
0.001800	-2.399850
0.001900	-2.362848
0.002000	-2.399526
0.002100	-2.460223
0.002200	-2.485540
0.002300	-2.503392
0.002400	-2.487163
0.002500	-2.532605
0.002600	-2.598820
0.002700	-2.645560
0.002800	-2.602715
0.002900	-2.625760
0.003000	-2.593302
0.003100	-2.676720
0.003200	-2.678668
0.003300	-2.599145
0.003400	-2.428089
0.003500	-2.367392
0.003600	-2.471908
0.003700	-2.624137
0.003800	-2.775069
0.003900	-2.677694
0.004000	-2.444318
0.004100	-2.346943
0.004200	-2.443020
0.004300	-2.626734
0.004400	-2.775393
0.004500	-2.773121
0.004600	-2.678343
0.004700	-2.579669
0.004800	-2.607908
0.004900	-2.679966
0.005000	-2.701388
0.005100	-2.681264
0.005200	-2.641990
0.005300	-2.641665
0.005400	-2.612128
0.005500	-2.568958
0.005600	-2.525464
0.005700	-2.384919
0.005800	-2.286246
0.005900	-2.276833
0.006000	-2.265797
0.006100	-2.278781
0.006200	-2.126551
0.006300	-2.020412
0.006400	-1.810407
0.006500	-1.790283
0.006600	-1.838646
0.006700	-1.794503
0.006800	-1.708813
0.006900	-1.597481
0.007000	-1.523801
0.007100	-1.432269
0.007200	-1.407600
0.007300	-1.419285
0.007400	-1.400784
0.007500	-1.388125
0.007600	-1.362808
0.007700	-1.358588
0.007800	-1.351448
0.007900	-1.256345
0.008000	-1.322235
0.008100	-1.210254
0.008200	-1.332622
0.008300	-1.172603
0.008400	-1.217071
0.008500	-0.988240
0.008600	-0.778885
0.008700	-0.600689
0.008800	-0.756489
0.008900	-1.099896
0.009000	-1.069061
0.009100	-0.912613
0.009200	-0.655868
0.009300	-0.458847
0.009400	-0.562389
0.009500	-0.658789
0.009600	-0.830818
0.009700	-0.732145
0.009800	-0.604584
0.009900	-0.437749
0.010000	-0.426389
0.010100	-0.475076
0.010200	-0.464040
0.010300	-0.534475
0.010400	-0.441644
0.010500	-0.395878
0.010600	-0.406914
0.010700	-0.461119
0.010800	-0.461119
0.010900	-0.458847
0.011000	-0.572775
0.011100	-0.617243
0.011200	-0.659439
0.011300	-0.728575
0.011400	-0.712995
0.011500	-0.660088
0.011600	-0.687677
0.011700	-0.791219
0.011800	-1.026865
0.011900	-1.033357
0.012000	-0.939228
0.012100	-0.731820
0.012200	-0.675668
0.012300	-0.859381
0.012400	-1.134951
0.012500	-1.178770
0.012600	-1.065491
0.012700	-0.885023
0.012800	-0.886646
0.012900	-0.964221
0.013000	-1.101519
0.013100	-1.142092
0.013200	-1.138197
0.013300	-1.086913
0.013400	-1.042770
0.013500	-1.140794
0.013600	-1.194350
0.013700	-1.198894
0.013800	-1.154751
0.013900	-1.124565
0.014000	-1.147935
0.014100	-1.192727
0.014200	-1.179744
0.014300	-1.137873
0.014400	-1.112555
0.014500	-1.166111
0.014600	-1.288154
0.014700	-1.294646
0.014800	-1.281013
0.014900	-1.254398
0.015000	-1.197271
0.015100	-1.251152
0.015200	-1.241090
0.015300	-1.247581
0.015400	-1.217071
0.015500	-1.205386
0.015600	-1.219343
0.015700	-1.230378
0.015800	-1.214799
0.015900	-1.194350
0.016000	-1.187534
0.016100	-1.177147
0.016200	-1.179744
0.016300	-1.204412
0.016400	-1.225510
0.016500	-1.213500
0.016600	-1.277443
0.016700	-1.292698
0.016800	-1.362159
0.016900	-1.603648
0.017000	-1.810732
0.017100	-1.807811
0.017200	-1.586445
0.017300	-1.446226
0.017400	-1.506273
0.017500	-1.814627
0.017600	-1.999639
0.017700	-2.092470
0.017800	-1.977243
0.017900	-1.816574
0.018000	-1.784765
0.018100	-1.987630
0.018200	-2.144079
0.018300	-2.246971
0.018400	-2.212566
0.018500	-2.141157
0.018600	-2.123630
0.018700	-2.157711
0.018800	-2.273912
0.018900	-2.297282
0.019000	-2.315134
0.019100	-2.305072
0.019200	-2.386867
0.019300	-2.471908
0.019400	-2.562467
0.019500	-2.580968
0.019600	-2.593302
0.019700	-2.609207
0.019800	-2.716644
0.019900	-2.749102
0.020000	-2.686782
0.020100	-2.528385
0.020200	-2.568958
0.020300	-2.694897
0.020400	-2.860110
0.020500	-2.969495
0.020600	-2.834468
0.020700	-2.613426
0.020800	-2.494953
0.020900	-2.581942
0.021000	-2.747804
0.021100	-2.868224
0.021200	-2.814993
0.021300	-2.637121
0.021400	-2.502419
0.021500	-2.452433
0.021600	-2.475478
0.021700	-2.495278
0.021800	-2.477426
0.021900	-2.434256
0.022000	-2.336232
0.022100	-2.280079
0.022200	-2.221654
0.022300	-2.121033
0.022400	-1.996393
0.022500	-1.918493
0.022600	-1.885386
0.022700	-1.854875
0.022800	-1.808784
0.022900	-1.637729
0.023000	-1.542951
0.023100	-1.321911
0.023200	-1.351123
0.023300	-1.326779
0.023400	-1.298541
0.023500	-1.244011
0.023600	-1.166436
0.023700	-1.035305
0.023800	-1.033032
0.023900	-0.991161
0.024000	-1.060947
0.024100	-1.035954
0.024200	-1.053806
0.024300	-1.048937
0.024400	-1.013882
0.024500	-0.942799
0.024600	-0.960002
0.024700	-0.929166
0.024800	-1.000899
0.024900	-1.000899
0.025000	-1.041472
0.025100	-0.963572
0.025200	-0.767524
0.025300	-0.538370
0.025400	-0.418923
0.025500	-0.705529
0.025600	-0.939228
0.025700	-0.921052
0.025800	-0.727276
0.025900	-0.566933
0.026000	-0.422169
0.026100	-0.571801
0.026200	-0.681186
0.026300	-0.730197
0.026400	-0.589653
0.026500	-0.434503
0.026600	-0.365692
0.026700	-0.316680
0.026800	-0.366341
0.026900	-0.427038
0.027000	-0.383219
0.027100	-0.358227
0.027200	-0.280002
0.027300	-0.259229
0.027400	-0.243325
0.027500	-0.224174
0.027600	-0.243649
0.027700	-0.303048
0.027800	-0.333883
0.027900	-0.324795
0.028000	-0.326418
0.028100	-0.293310
0.028200	-0.275458
0.028300	-0.312136
0.028400	-0.450732
0.028500	-0.614646
0.028600	-0.578293
0.028700	-0.473453
0.028800	-0.231964
0.028900	-0.358876
0.029000	-0.495525
0.029100	-0.736040
0.029200	-0.715267
0.029300	-0.626656
0.029400	-0.464365
0.029500	-0.484164
0.029600	-0.568231
0.029700	-0.680536
0.029800	-0.670799
0.029900	-0.706503
0.030000	-0.623085
0.030100	-0.638990
0.030200	-0.695467
0.030300	-0.725653
0.030400	-0.712021
0.030500	-0.665606
0.030600	-0.716890
0.030700	-0.738312
0.030800	-0.728899
0.030900	-0.674694
0.031000	-0.634121
0.031100	-0.629902
0.031200	-0.704555
0.031300	-0.761033
0.031400	-0.726952
0.031500	-0.694169
0.031600	-0.571152
0.031700	-0.593873
0.031800	-0.597768
0.031900	-0.579267
0.032000	-0.552327
0.032100	-0.520842
0.032200	-0.527658
0.032300	-0.525062
0.032400	-0.548432
0.032500	-0.536747
0.032600	-0.551677
0.032700	-0.569529
0.032800	-0.616918
0.032900	-0.616594
0.033000	-0.638341
0.033100	-0.681835
0.033200	-0.709424
0.033300	-0.790570
0.033400	-0.814913
0.033500	-0.964546
0.033600	-1.217395
0.033700	-1.399810
0.033800	-1.305682
0.033900	-1.120670
0.034000	-1.090159
0.034100	-1.216097
0.034200	-1.538732
0.034300	-1.743219
0.034400	-1.729911
0.034500	-1.586445
0.034600	-1.506598
0.034700	-1.620527
0.034800	-1.794827
0.034900	-1.981138
0.035000	-1.996718
0.035100	-1.995095
0.035200	-1.988928
0.035300	-2.086952
0.035400	-2.119086
0.035500	-2.150570
0.035600	-2.177511
0.035700	-2.229769
0.035800	-2.302151
0.035900	-2.394332
0.036000	-2.522218
0.036100	-2.514428
0.036200	-2.505989
0.036300	-2.498524
0.036400	-2.583564
0.036500	-2.615374
0.036600	-2.601741
0.036700	-2.471259
0.036800	-2.418676
0.036900	-2.519946
0.037000	-2.676395
0.037100	-2.872444
0.037200	-2.892893
0.037300	-2.717618
0.037400	-2.563116
0.037500	-2.578371
0.037600	-2.735470
0.037700	-2.953590
0.037800	-3.045123
0.037900	-2.972416
0.038000	-2.861733
0.038100	-2.862707
0.038200	-2.906850
0.038300	-2.954239
0.038400	-2.937685
0.038500	-2.913991
0.038600	-2.900683
0.038700	-2.870172
0.038800	-2.859461
0.038900	-2.814993
0.039000	-2.684510
0.039100	-2.562467
0.039200	-2.526113
0.039300	-2.505015
0.039400	-2.496901
0.039500	-2.382647
0.039600	-2.177835
0.039700	-1.994446
0.039800	-1.871754
0.039900	-1.914598
0.040000	-1.852279
0.040100	-1.772431
0.040200	-1.645844
0.040300	-1.597806
0.040400	-1.445577
0.040500	-1.376116
0.040600	-1.376765
0.040700	-1.354369
0.040800	-1.375791
0.040900	-1.340736
0.041000	-1.422207
0.041100	-1.336517
0.041200	-1.335543
0.041300	-1.269977
0.041400	-1.258942
0.041500	-1.314121
0.041600	-1.294321
0.041700	-1.406951
0.041800	-1.228106
0.041900	-1.146312
0.042000	-0.779209
0.042100	-0.933386
0.042200	-1.193701
0.042300	-1.416364
0.042400	-1.269977
0.042500	-0.986942
0.042600	-0.875610
0.042700	-0.793491
0.042800	-1.002846
0.042900	-1.112555
0.043000	-1.117748
0.043100	-1.022321
0.043200	-0.821080
0.043300	-0.814589
0.043400	-0.765901
0.043500	-0.880154
0.043600	-0.807773
0.043700	-0.811992
0.043800	-0.795438
0.043900	-0.819782
0.044000	-0.797061
0.044100	-0.841529
0.044200	-0.799658
0.044300	-0.851916
0.044400	-0.911963
0.044500	-0.946694
0.044600	-0.909042
0.044700	-0.907744
0.044800	-0.805825
0.044900	-0.847696
0.045000	-0.856135
0.045100	-1.201166
0.045200	-1.230054
0.045300	-1.168059
0.045400	-0.967467
0.045500	-0.834713
0.045600	-0.987266
0.045700	-1.226159
0.045800	-1.373195
0.045900	-1.297892
0.046000	-1.138522
0.046100	-1.020374
0.046200	-1.104441
0.046300	-1.245958
0.046400	-1.311524
0.046500	-1.276469
0.046600	-1.274522
0.046700	-1.255371
0.046800	-1.330674
0.046900	-1.400460
0.047000	-1.437462
0.047100	-1.430646
0.047200	-1.403705
0.047300	-1.458235
0.047400	-1.504001
0.047500	-1.509844
0.047600	-1.470569
0.047700	-1.455963
0.047800	-1.469271
0.047900	-1.598779
0.048000	-1.628966
0.048100	-1.629615
0.048200	-1.639352
0.048300	-1.513414
0.048400	-1.562102
0.048500	-1.573787
0.048600	-1.575410
0.048700	-1.566970
0.048800	-1.580603
0.048900	-1.610789
0.049000	-1.605596
0.049100	-1.630264
0.049200	-1.625395
0.049300	-1.656555
0.049400	-1.675056
0.049500	-1.672784
0.049600	-1.683820
0.049700	-1.682197
0.049800	-1.708164
0.049900	-1.768536
0.050000	-1.823391
0.050100	-1.864613
0.050200	-2.057415
0.050300	-2.346943
0.050400	-2.373884
0.050500	-2.199582
0.050600	-1.997367
0.050700	-2.014895
0.050800	-2.212890
0.050900	-2.478724
0.051000	-2.628357
0.051100	-2.489111
0.051200	-2.298905
0.051300	-2.215811
0.051400	-2.293711
0.051500	-2.414456
0.051600	-2.501769
0.051700	-2.446915
0.051800	-2.393034
0.051900	-2.348241
0.052000	-2.346943
0.052100	-2.362523
0.052200	-2.354409
0.052300	-2.341425
0.052400	-2.315783
0.052500	-2.325196
0.052600	-2.369989
0.052700	-2.473531
0.052800	-2.439125
0.052900	-2.403421
0.053000	-2.409588
0.053100	-2.443344
0.053200	-2.453082
0.053300	-2.393359
0.053400	-2.237883
0.053500	-2.202179
0.053600	-2.300203
0.053700	-2.481321
0.053800	-2.644911
0.053900	-2.548509
0.054000	-2.347917
0.054100	-2.196661
0.054200	-2.239181
0.054300	-2.450810
0.054400	-2.603040
0.054500	-2.625760
0.054600	-2.488462
0.054700	-2.386867
0.054800	-2.369339
0.054900	-2.405368
0.055000	-2.424843
0.055100	-2.406666
0.055200	-2.370638
0.055300	-2.361225
0.055400	-2.310265
0.055500	-2.259955
0.055600	-2.183353
0.055700	-2.057090
0.055800	-2.000288
0.055900	-1.975620
0.056000	-1.976594
0.056100	-1.975295
0.056200	-1.828259
0.056300	-1.747114
0.056400	-1.533863
0.056500	-1.513414
0.056600	-1.510818
0.056700	-1.473491
0.056800	-1.378388
0.056900	-1.274197
0.057000	-1.175199
0.057100	-1.096975
0.057200	-1.056078
0.057300	-1.038875
0.057400	-1.034331
0.057500	-0.995381
0.057600	-0.987916
0.057700	-0.935333
0.057800	-0.928842
0.057900	-0.896708
0.058000	-0.861653
0.058100	-0.910016
0.058200	-0.879181
0.058300	-0.945395
0.058400	-0.775314
0.058500	-0.698713
0.058600	-0.341348
0.058700	-0.296881
0.058800	-0.362122
0.058900	-0.794789
0.059000	-0.751620
0.059100	-0.593548
0.059200	-0.330962
0.059300	-0.170943
0.059400	-0.175487
0.059500	-0.344270
0.059600	-0.434179
0.059700	-0.354007
0.059800	-0.244623
0.059900	-0.104404
0.060000	-0.100509
0.060100	-0.088175
0.060200	-0.133616
0.060300	-0.155688
0.060400	-0.162179
0.060500	-0.147898
0.060600	-0.178084
0.060700	-0.178408
0.060800	-0.180680
0.060900	-0.166723
0.061000	-0.265072
0.061100	-0.273511
0.061200	-0.304995
0.061300	-0.339725
0.061400	-0.340699
0.061500	-0.267344
0.061600	-0.353358
0.061700	-0.440021
0.061800	-0.747400
0.061900	-0.675019
0.062000	-0.596145
0.062100	-0.376403
0.062200	-0.405616
0.062300	-0.577969
0.062400	-0.831792
0.062500	-0.892813
0.062600	-0.815887
0.062700	-0.658465
0.062800	-0.643534
0.062900	-0.749023
0.063000	-0.845099
0.063100	-0.866197
0.063200	-0.861329
0.063300	-0.839257
0.063400	-0.841204
0.063500	-0.926245
0.063600	-0.969414
0.063700	-0.961624
0.063800	-0.920727
0.063900	-0.964221
0.064000	-1.023944
0.064100	-1.028488
0.064200	-1.017128
0.064300	-1.010312
0.064400	-1.011610
0.064500	-1.079448
0.064600	-1.209930
0.064700	-1.212202
0.064800	-1.215123
0.064900	-1.215123
0.065000	-1.169357
0.065100	-1.197271
0.065200	-1.206035
0.065300	-1.204412
0.065400	-1.210254
0.065500	-1.218044
0.065600	-1.249204
0.065700	-1.273548
0.065800	-1.298865
0.065900	-1.310875
0.066000	-1.335868
0.066100	-1.343009
0.066200	-1.336841
0.066300	-1.337166
0.066400	-1.347877
0.066500	-1.399161
0.066600	-1.421882
0.066700	-1.475763
0.066800	-1.524125
0.066900	-1.835400
0.067000	-1.992498
0.067100	-1.908107
0.067200	-1.706541
0.067300	-1.529319
0.067400	-1.631238
0.067500	-1.904212
0.067600	-2.125253
0.067700	-2.182704
0.067800	-2.019763
0.067900	-1.863964
0.068000	-1.857472
0.068100	-2.020412
0.068200	-2.152193
0.068300	-2.231391
0.068400	-2.195363
0.068500	-2.133043
0.068600	-2.171993
0.068700	-2.178160
0.068800	-2.226847
0.068900	-2.266446
0.069000	-2.262227
0.069100	-2.250542
0.069200	-2.317406
0.069300	-2.370313
0.069400	-2.395955
0.069500	-2.381998
0.069600	-2.350514
0.069700	-2.381024
0.069800	-2.439774
0.069900	-2.479373
0.070000	-2.326170
0.070100	-2.198284
0.070200	-2.206399
0.070300	-2.388814
0.070400	-2.576099
0.070500	-2.662763
0.070600	-2.486514
0.070700	-2.303124
0.070800	-2.281053
0.070900	-2.405368
0.071000	-2.600767
0.071100	-2.677045
0.071200	-2.595899
0.071300	-2.443344
0.071400	-2.400175
0.071500	-2.419001
0.071600	-2.446915
0.071700	-2.445941
0.071800	-2.444643
0.071900	-2.419325
0.072000	-2.375831
0.072100	-2.348566
0.072200	-2.271964
0.072300	-2.158685
0.072400	-2.025606
0.072500	-2.001911
0.072600	-1.976269
0.072700	-1.948680
0.072800	-1.907133
0.072900	-1.714980
0.073000	-1.638703
0.073100	-1.439734
0.073200	-1.461157
0.073300	-1.462455
0.073400	-1.409872
0.073500	-1.361510
0.073600	-1.279390
0.073700	-1.171629
0.073800	-1.156374
0.073900	-1.158970
0.074000	-1.209605
0.074100	-1.200841
0.074200	-1.218044
0.074300	-1.239791
0.074400	-1.312822
0.074500	-1.240116
0.074600	-1.322235
0.074700	-1.205710
0.074800	-1.338464
0.074900	-1.288803
0.075000	-1.337491
0.075100	-1.271276
0.075200	-1.002197
0.075300	-0.897033
0.075400	-0.701959
0.075500	-1.096651
0.075600	-1.327104
0.075700	-1.217395
0.075800	-1.021348
0.075900	-0.747076
0.076000	-0.733119
0.076100	-0.789921
0.076200	-0.937930
0.076300	-1.015180
0.076400	-0.899629
0.076500	-0.777586
0.076600	-0.698064
0.076700	-0.713319
0.076800	-0.774990
0.076900	-0.781481
0.077000	-0.834388
0.077100	-0.781806
0.077200	-0.792193
0.077300	-0.795763
0.077400	-0.815887
0.077500	-0.826598
0.077600	-0.818808
0.077700	-0.910340
0.077800	-0.914885
0.077900	-1.030111
0.078000	-0.967467
0.078100	-1.006092
0.078200	-0.911639
0.078300	-1.015830
0.078400	-1.121643
0.078500	-1.351448
0.078600	-1.285882
0.078700	-1.131381
0.078800	-0.920727
0.078900	-1.058674
0.079000	-1.272574
0.079100	-1.450445
0.079200	-1.407600
0.079300	-1.275495
0.079400	-1.123591
0.079500	-1.181691
0.079600	-1.321261
0.079700	-1.433892
0.079800	-1.412469
0.079900	-1.406951
0.080000	-1.360536
0.080100	-1.424479
0.080200	-1.488746
0.080300	-1.509519
0.080400	-1.459534
0.080500	-1.405004
0.080600	-1.438760
0.080700	-1.438111
0.080800	-1.450121
0.080900	-1.356966
0.081000	-1.341710
0.081100	-1.323209
0.081200	-1.429997
0.081300	-1.491992
0.081400	-1.486799
0.081500	-1.476736
0.081600	-1.432593
0.081700	-1.406302
0.081800	-1.437137
0.081900	-1.404679
0.082000	-1.404355
0.082100	-1.423180
0.082200	-1.427725
0.082300	-1.458884
0.082400	-1.440059
0.082500	-1.470245
0.082600	-1.458884
0.082700	-1.477061
0.082800	-1.510818
0.082900	-1.516011
0.083000	-1.542951
0.083100	-1.576708
0.083200	-1.625395
0.083300	-1.675381
0.083400	-1.718226
0.083500	-1.868183
0.083600	-2.137912
0.083700	-2.210943
0.083800	-2.071047
0.083900	-1.892851
0.084000	-1.834426
0.084100	-1.988279
0.084200	-2.278781
0.084300	-2.461846
0.084400	-2.368041
0.084500	-2.196986
0.084600	-2.027553
0.084700	-2.087601
0.084800	-2.265473
0.084900	-2.381024
0.085000	-2.362199
0.085100	-2.298905
0.085200	-2.196337
0.085300	-2.210943
0.085400	-2.238532
0.085500	-2.271640
0.085600	-2.267745
0.085700	-2.263850
0.085800	-2.260279
0.085900	-2.311888
0.086000	-2.417053
0.086100	-2.439125
0.086200	-2.408289
0.086300	-2.384595
0.086400	-2.412184
0.086500	-2.501769
0.086600	-2.460872
0.086700	-2.313836
0.086800	-2.276509
0.086900	-2.345320
0.087000	-2.540719
0.087100	-2.693274
0.087200	-2.660166
0.087300	-2.480347
0.087400	-2.316108
0.087500	-2.352786
0.087600	-2.506963
0.087700	-2.674448
0.087800	-2.726057
0.087900	-2.629980
0.088000	-2.521894
0.088100	-2.450161
0.088200	-2.469960
0.088300	-2.513454
0.088400	-2.495602
0.088500	-2.463144
0.088600	-2.424194
0.088700	-2.367067
0.088800	-2.316757
0.088900	-2.249568
0.089000	-2.129472
0.089100	-2.039563
0.089200	-2.002236
0.089300	-2.006455
0.089400	-1.990226
0.089500	-1.885711
0.089600	-1.752307
0.089700	-1.685118
0.089800	-1.538732
0.089900	-1.544899
0.090000	-1.541328
0.090100	-1.486149
0.090200	-1.387476
0.090300	-1.309901
0.090400	-1.223562
0.090500	-1.221939
0.090600	-1.172278
0.090700	-1.204736
0.090800	-1.181691
0.090900	-1.195973
0.091000	-1.179419
0.091100	-1.117748
0.091200	-1.079772
0.091300	-1.043095
0.091400	-1.047963
0.091500	-1.135600
0.091600	-1.062245
0.091700	-1.100221
0.091800	-0.949290
0.091900	-0.797710
0.092000	-0.516298
0.092100	-0.681186
0.092200	-0.938255
0.092300	-1.063868
0.092400	-0.788622
0.092500	-0.630226
0.092600	-0.505587
0.092700	-0.517272
0.092800	-0.699038
0.092900	-0.836660
0.093000	-0.822054
0.093100	-0.666255
0.093200	-0.560441
0.093300	-0.524413
0.093400	-0.576995
0.093500	-0.639315
0.093600	-0.607505
0.093700	-0.644183
0.093800	-0.608479
0.093900	-0.647429
0.094000	-0.675668
0.094100	-0.706178
0.094200	-0.643209
0.094300	-0.792842
0.094400	-0.760384
0.094500	-0.854188
0.094600	-0.849319
0.094700	-0.824002
0.094800	-0.774341
0.094900	-0.818808
0.095000	-0.832441
0.095100	-1.087887
0.095200	-1.117748
0.095300	-1.039849
0.095400	-0.839582
0.095500	-0.793816
0.095600	-0.948966
0.095700	-1.157023
0.095800	-1.242713
0.095900	-1.141118
0.096000	-0.974932
0.096100	-0.900603
0.096200	-0.965844
0.096300	-1.082369
0.096400	-1.119047
0.096500	-1.080097
0.096600	-1.061920
0.096700	-1.013233
0.096800	-1.109958
0.096900	-1.147285
0.097000	-1.182016
0.097100	-1.153128
0.097200	-1.145987
0.097300	-1.216421
0.097400	-1.221939
0.097500	-1.204087
0.097600	-1.155725
0.097700	-1.146636
0.097800	-1.175849
0.097900	-1.288479
0.098000	-1.275495
0.098100	-1.250827
0.098200	-1.285882
0.098300	-1.311524
0.098400	-1.319963
0.098500	-1.336517
0.098600	-1.351772
0.098700	-1.356641
0.098800	-1.374168
0.098900	-1.414417
0.099000	-1.422207
0.099100	-1.439085
0.099200	-1.426426
0.099300	-1.456937
0.099400	-1.496536
0.099500	-1.528020
0.099600	-1.529319
0.099700	-1.539705
0.099800	-1.564698
0.099900	-1.544250
0.100000	-1.590989
0.100100	-1.592937
0.100200	-1.783467
0.100300	-2.027878
0.100400	-2.001911
0.100500	-1.775028
0.100600	-1.528345
0.100700	-1.481281
0.100800	-1.726340
0.100900	-1.944460
0.101000	-1.973673
0.101100	-1.807811
0.101200	-1.573137
0.101300	-1.527696
0.101400	-1.625395
0.101500	-1.792880
0.101600	-1.826961
0.101700	-1.805539
0.101800	-1.786388
0.101900	-1.766913
0.102000	-1.817873
0.102100	-1.886360
0.102200	-1.931152
0.102300	-1.961014
0.102400	-1.972699
0.102500	-2.091496
0.102600	-2.146026
0.102700	-2.249568
0.102800	-2.244375
0.102900	-2.258007
0.103000	-2.303449
0.103100	-2.393683
0.103200	-2.407965
0.103300	-2.418351
0.103400	-2.245998
0.103500	-2.278131
0.103600	-2.404719
0.103700	-2.595250
0.103800	-2.722486
0.103900	-2.614725
0.104000	-2.412184
0.104100	-2.295659
0.104200	-2.402447
0.104300	-2.615374
0.104400	-2.790324
0.104500	-2.767603
0.104600	-2.616023
0.104700	-2.526438
0.104800	-2.523517
0.104900	-2.567335
0.105000	-2.603364
0.105100	-2.581292
0.105200	-2.536175
0.105300	-2.502094
0.105400	-2.474180
0.105500	-2.428089
0.105600	-2.324222
0.105700	-2.180107
0.105800	-2.134990
0.105900	-2.123954
0.106000	-2.115840
0.106100	-2.108374
0.106200	-1.931152
0.106300	-1.821443
0.106400	-1.661749
0.106500	-1.594560
0.106600	-1.570216
0.106700	-1.494913
0.106800	-1.416364
0.106900	-1.294646
0.107000	-1.142092
0.107100	-1.063868
0.107200	-1.050235
0.107300	-1.027190
0.107400	-1.039849
0.107500	-0.959028
0.107600	-1.035305
0.107700	-0.910990
0.107800	-0.951238
0.107900	-0.820107
0.108000	-0.926245
0.108100	-0.856135
0.108200	-0.883400
0.108300	-0.960326
0.108400	-0.804202
0.108500	-0.722407
0.108600	-0.351086
0.108700	-0.384193
0.108800	-0.494876
0.108900	-0.885672
0.109000	-0.967467
0.109100	-0.648727
0.109200	-0.488059
0.109300	-0.272212
0.109400	-0.484489
0.109500	-0.601014
0.109600	-0.776937
0.109700	-0.754866
0.109800	-0.571801
0.109900	-0.434503
0.110000	-0.420871
0.110100	-0.517921
0.110200	-0.521816
0.110300	-0.570179
0.110400	-0.538045
0.110500	-0.515000
0.110600	-0.516623
0.110700	-0.552976
0.110800	-0.543563
0.110900	-0.572126
0.111000	-0.630226
0.111100	-0.721434
0.111200	-0.650675
0.111300	-0.789271
0.111400	-0.665281
0.111500	-0.697739
0.111600	-0.617568
0.111700	-0.793816
0.111800	-1.050560
0.111900	-1.013233
0.112000	-0.927543
0.112100	-0.662360
0.112200	-0.733443
0.112300	-0.886971
0.112400	-1.122942
0.112500	-1.183963
0.112600	-1.059648
0.112700	-0.871391
0.112800	-0.816212
0.112900	-0.918455
0.113000	-1.068412
0.113100	-1.073605
0.113200	-1.067114
0.113300	-1.011610
0.113400	-1.013882
0.113500	-1.053481
0.113600	-1.095352
0.113700	-1.131056
0.113800	-1.092106
0.113900	-1.106388
0.114000	-1.150856
0.114100	-1.145338
0.114200	-1.077500
0.114300	-1.082369
0.114400	-1.071658
0.114500	-1.186884
0.114600	-1.318665
0.114700	-1.317042
0.114800	-1.310226
0.114900	-1.169682
0.115000	-1.245634
0.115100	-1.258942
0.115200	-1.226808
0.115300	-1.224211
0.115400	-1.215123
0.115500	-1.254073
0.115600	-1.246283
0.115700	-1.286207
0.115800	-1.273872
0.115900	-1.264784
0.116000	-1.277443
0.116100	-1.304708
0.116200	-1.275171
0.116300	-1.297242
0.116400	-1.299839
0.116500	-1.376765
0.116600	-1.364431
0.116700	-1.382283
0.116800	-1.485500
0.116900	-1.750360
0.117000	-1.953873
0.117100	-1.841243
0.117200	-1.662398
0.117300	-1.580278
0.117400	-1.659801
0.117500	-2.003210
0.117600	-2.234637
0.117700	-2.287869
0.117800	-2.120709
0.117900	-2.029825
0.118000	-2.041835
0.118100	-2.216461
0.118200	-2.375506
0.118300	-2.471583
0.118400	-2.443020
0.118500	-2.404070
0.118600	-2.402122
0.118700	-2.388165
0.118800	-2.421922
0.118900	-2.410886
0.119000	-2.419974
0.119100	-2.395631
0.119200	-2.394008
0.119300	-2.434905
0.119400	-2.373884
0.119500	-2.370962
0.119600	-2.306370
0.119700	-2.339802
0.119800	-2.353435
0.119900	-2.338179
0.120000	-2.194714
0.120100	-2.052871
0.120200	-2.100909
0.120300	-2.199582
0.120400	-2.394332
0.120500	-2.464118
0.120600	-2.289167
0.120700	-2.108050
0.120800	-2.037291
0.120900	-2.153816
0.121000	-2.370313
0.121100	-2.479049
0.121200	-2.444967
0.121300	-2.322599
0.121400	-2.265148
0.121500	-2.249568
0.121600	-2.287220
0.121700	-2.304098
0.121800	-2.347917
0.121900	-2.375182
0.122000	-2.326819
0.122100	-2.295334
0.122200	-2.214838
0.122300	-2.095716
0.122400	-2.016842
0.122500	-2.004833
0.122600	-2.016193
0.122700	-2.045730
0.122800	-1.967830
0.122900	-1.815601
0.123000	-1.779247
0.123100	-1.572488
0.123200	-1.584498
0.123300	-1.541978
0.123400	-1.499457
0.123500	-1.394617
0.123600	-1.324183
0.123700	-1.184288
0.123800	-1.145987
0.123900	-1.086589
0.124000	-1.120670
0.124100	-1.060622
0.124200	-1.064192
0.124300	-1.028164
0.124400	-1.040822
0.124500	-0.988889
0.124600	-0.992135
0.124700	-0.944422
0.124800	-1.009338
0.124900	-0.976880
0.125000	-1.012908
0.125100	-0.980775
0.125200	-0.780508
0.125300	-0.520518
0.125400	-0.596145
0.125500	-0.873338
0.125600	-1.097949
0.125700	-1.017453
0.125800	-0.840231
0.125900	-0.680212
0.126000	-0.619190
0.126100	-0.725004
0.126200	-0.916183
0.126300	-0.877558
0.126400	-0.829520
0.126500	-0.720460
0.126600	-0.700660
0.126700	-0.680536
0.126800	-0.746427
0.126900	-0.742207
0.127000	-0.761682
0.127100	-0.726952
0.127200	-0.766551
0.127300	-0.761682
0.127400	-0.729548
0.127500	-0.717863
0.127600	-0.737663
0.127700	-0.816861
0.127800	-0.793166
0.127900	-0.868469
0.128000	-0.865548
0.128100	-0.740584
0.128200	-0.700985
0.128300	-0.715591
0.128400	-0.976555
0.128500	-1.046340
0.128600	-1.020698
0.128700	-0.820756
0.128800	-0.700660
0.128900	-0.788622
0.129000	-1.039849
0.129100	-1.187209
0.129200	-1.125863
0.129300	-0.997978
0.129400	-0.867496
0.129500	-0.887620
0.129600	-1.002197
0.129700	-1.074579
0.129800	-1.029137
0.129900	-1.048288
0.130000	-1.007066
0.130100	-1.085615
0.130200	-1.094379
0.130300	-1.117099
0.130400	-1.088861
0.130500	-1.050560
0.130600	-1.080421
0.130700	-1.092756
0.130800	-1.081071
0.130900	-1.038550
0.131000	-1.014207
0.131100	-0.999276
0.131200	-1.115476
0.131300	-1.186235
0.131400	-1.164164
0.131500	-1.067114
0.131600	-1.031734
0.131700	-1.061920
0.131800	-1.068737
0.131900	-1.046665
0.132000	-1.042121
0.132100	-1.030111
0.132200	-1.009663
0.132300	-1.003171
0.132400	-1.000574
0.132500	-1.010312
0.132600	-0.997978
0.132700	-1.022321
0.132800	-0.992784
0.132900	-0.999925
0.133000	-0.980775
0.133100	-1.011935
0.133200	-0.988240
0.133300	-1.056078
0.133400	-1.033357
0.133500	-1.217395
0.133600	-1.470245
0.133700	-1.592288
0.133800	-1.389099
0.133900	-1.201491
0.134000	-1.127161
0.134100	-1.281987
0.134200	-1.608842
0.134300	-1.758474
0.134400	-1.691286
0.134500	-1.508221
0.134600	-1.427075
0.134700	-1.525099
0.134800	-1.702321
0.134900	-1.845462
0.135000	-1.842541
0.135100	-1.804889
0.135200	-1.804240
0.135300	-1.821119
0.135400	-1.876947
0.135500	-1.901615
0.135600	-1.913949
0.135700	-1.878570
0.135800	-1.922713
0.135900	-2.007105
0.136000	-2.084031
0.136100	-2.087601
0.136200	-2.049625
0.136300	-2.078188
0.136400	-2.168747
0.136500	-2.198609
0.136600	-2.165177
0.136700	-2.020412
0.136800	-1.938293
0.136900	-2.070398
0.137000	-2.263201
0.137100	-2.409588
0.137200	-2.369015
0.137300	-2.172317
0.137400	-2.031448
0.137500	-2.073644
0.137600	-2.246647
0.137700	-2.414781
0.137800	-2.431984
0.137900	-2.307993
0.138000	-2.202179
0.138100	-2.196012
0.138200	-2.244375
0.138300	-2.283325
0.138400	-2.278131
0.138500	-2.244375
0.138600	-2.222303
0.138700	-2.189520
0.138800	-2.149921
0.138900	-2.063907
0.139000	-1.964909
0.139100	-1.906484
0.139200	-1.906808
0.139300	-1.921090
0.139400	-1.926608
0.139500	-1.832154
0.139600	-1.704593
0.139700	-1.703944
0.139800	-1.505624
0.139900	-1.542951
0.140000	-1.519257
0.140100	-1.462779
0.140200	-1.381309
0.140300	-1.253748
0.140400	-1.208631
0.140500	-1.165787
0.140600	-1.169032
0.140700	-1.155075
0.140800	-1.119047
0.140900	-1.152154
0.141000	-1.094054
0.141100	-1.101844
0.141200	-1.085615
0.141300	-1.066464
0.141400	-1.120020
0.141500	-1.106063
0.141600	-1.163839
0.141700	-1.111257
0.141800	-1.037252
0.141900	-0.833739
0.142000	-0.682484
0.142100	-0.807123
0.142200	-1.188507
0.142300	-1.283285
0.142400	-1.108336
0.142500	-0.921701
0.142600	-0.708450
0.142700	-0.816861
0.142800	-0.969414
0.142900	-1.148908
0.143000	-1.161567
0.143100	-1.023620
0.143200	-0.921376
0.143300	-0.890541
0.143400	-0.958703
0.143500	-0.966169
0.143600	-1.052183
0.143700	-1.037252
0.143800	-0.997978
0.143900	-0.993109
0.144000	-1.048288
0.144100	-0.990188
0.144200	-0.946044
0.144300	-1.063543
0.144400	-1.100870
0.144500	-1.124889
0.144600	-1.106063
0.144700	-1.109309
0.144800	-0.996355
0.144900	-0.984670
0.145000	-1.002197
0.145100	-1.310550
0.145200	-1.325481
0.145300	-1.227782
0.145400	-0.988240
0.145500	-0.954484
0.145600	-1.099247
0.145700	-1.316393
0.145800	-1.398837
0.145900	-1.285557
0.146000	-1.145338
0.146100	-1.025567
0.146200	-1.116126
0.146300	-1.216421
0.146400	-1.251152
0.146500	-1.198569
0.146600	-1.194999
0.146700	-1.159620
0.146800	-1.209930
0.146900	-1.244660
0.147000	-1.287180
0.147100	-1.222264
0.147200	-1.216421
0.147300	-1.250827
0.147400	-1.259591
0.147500	-1.227457
0.147600	-1.189806
0.147700	-1.160593
0.147800	-1.175524
0.147900	-1.271276
0.148000	-1.293672
0.148100	-1.269653
0.148200	-1.104765
0.148300	-1.150856
0.148400	-1.195324
0.148500	-1.189481
0.148600	-1.173252
0.148700	-1.161242
0.148800	-1.169682
0.148900	-1.157997
0.149000	-1.204736
0.149100	-1.225185
0.149200	-1.229729
0.149300	-1.229729
0.149400	-1.242388
0.149500	-1.237844
0.149600	-1.271276
0.149700	-1.231352
0.149800	-1.281013
0.149900	-1.277118
0.150000	-1.342035
0.150100	-1.345930
0.150200	-1.534188
0.150300	-1.723095
0.150400	-1.637080
0.150500	-1.480956
0.150600	-1.280689
0.150700	-1.316393
0.150800	-1.520231
0.150900	-1.763992
0.151000	-1.815601
0.151100	-1.647467
0.151200	-1.519581
0.151300	-1.464727
0.151400	-1.614035
0.151500	-1.816899
0.151600	-1.895123
0.151700	-1.895448
0.151800	-1.830856
0.151900	-1.845138
0.152000	-1.875973
0.152100	-1.936021
0.152200	-1.994770
0.152300	-1.999639
0.152400	-2.002885
0.152500	-2.107076
0.152600	-2.162255
0.152700	-2.195038
0.152800	-2.157711
0.152900	-2.178484
0.153000	-2.243076
0.153100	-2.279105
0.153200	-2.335907
0.153300	-2.285921
0.153400	-2.155439
0.153500	-2.195363
0.153600	-2.326819
0.153700	-2.507287
0.153800	-2.647507
0.153900	-2.532280
0.154000	-2.341425
0.154100	-2.279754
0.154200	-2.398552
0.154300	-2.616672
0.154400	-2.763384
0.154500	-2.762086
0.154600	-2.662438
0.154700	-2.601741
0.154800	-2.629331
0.154900	-2.681264
0.155000	-2.742935
0.155100	-2.717618
0.155200	-2.720539
0.155300	-2.703660
0.155400	-2.682563
0.155500	-2.649455
0.155600	-2.525464
0.155700	-2.414781
0.155800	-2.348566
0.155900	-2.366743
0.156000	-2.352786
0.156100	-2.310914
0.156200	-2.123305
0.156300	-2.019114
0.156400	-1.881166
0.156500	-1.824689
0.156600	-1.810732
0.156700	-1.775677
0.156800	-1.674083
0.156900	-1.583200
0.157000	-1.464727
0.157100	-1.415390
0.157200	-1.401109
0.157300	-1.383581
0.157400	-1.406951
0.157500	-1.332297
0.157600	-1.359887
0.157700	-1.286531
0.157800	-1.207333
0.157900	-1.190130
0.158000	-1.106713
0.158100	-1.217720
0.158200	-1.105414
0.158300	-1.217071
0.158400	-0.972336
0.158500	-0.954484
0.158600	-0.630551
0.158700	-0.523114
0.158800	-0.815563
0.158900	-1.048612
0.159000	-1.066140
0.159100	-0.768498
0.159200	-0.661386
0.159300	-0.527334
0.159400	-0.642885
0.159500	-0.848670
0.159600	-0.842178
0.159700	-0.824975
0.159800	-0.576995
0.159900	-0.605883
0.160000	-0.556546
0.160100	-0.701634
0.160200	-0.701959
0.160300	-0.739286
0.160400	-0.662684
0.160500	-0.677291
0.160600	-0.665930
0.160700	-0.647104
0.160800	-0.655868
0.160900	-0.675343
0.161000	-0.771744
0.161100	-0.719811
0.161200	-0.800632
0.161300	-0.816536
0.161400	-0.728250
0.161500	-0.708775
0.161600	-0.698064
0.161700	-0.866197
0.161800	-1.051534
0.161900	-0.973959
0.162000	-0.877882
0.162100	-0.648403
0.162200	-0.739935
0.162300	-0.911639
0.162400	-1.146312
0.162500	-1.126188
0.162600	-1.009663
0.162700	-0.857758
0.162800	-0.865548
0.162900	-0.970713
0.163000	-1.129433
0.163100	-1.108660
0.163200	-1.080097
0.163300	-1.020374
0.163400	-1.070684
0.163500	-1.159944
0.163600	-1.213500
0.163700	-1.256994
0.163800	-1.226483
0.163900	-1.241739
0.164000	-1.299190
0.164100	-1.290102
0.164200	-1.268355
0.164300	-1.223562
0.164400	-1.183314
0.164500	-1.269653
0.164600	-1.354044
0.164700	-1.358264
0.164800	-1.281662
0.164900	-1.169032
0.165000	-1.223887
0.165100	-1.239791
0.165200	-1.230054
0.165300	-1.210904
0.165400	-1.205386
0.165500	-1.221290
0.165600	-1.213176
0.165700	-1.227782
0.165800	-1.205061
0.165900	-1.238818
0.166000	-1.255371
0.166100	-1.268679
0.166200	-1.286856
0.166300	-1.303409
0.166400	-1.324507
0.166500	-1.330674
0.166600	-1.386827
0.166700	-1.407600
0.166800	-1.484526
0.166900	-1.710760
0.167000	-1.844164
0.167100	-1.738675
0.167200	-1.446226
0.167300	-1.426102
0.167400	-1.523476
0.167500	-1.850980
0.167600	-2.015544
0.167700	-2.023009
0.167800	-1.802617
0.167900	-1.678627
0.168000	-1.738350
0.168100	-1.883114
0.168200	-2.039563
0.168300	-2.042484
0.168400	-2.036966
0.168500	-1.991525
0.168600	-1.956794
0.168700	-1.992823
0.168800	-2.023009
0.168900	-2.031773
0.169000	-2.008078
0.169100	-1.980164
0.169200	-2.033720
0.169300	-2.088250
0.169400	-2.074618
0.169500	-2.063907
0.169600	-2.056117
0.169700	-2.102532
0.169800	-2.145702
0.169900	-2.129797
0.170000	-2.017491
0.170100	-1.885061
0.170200	-1.920766
0.170300	-2.043133
0.170400	-2.217110
0.170500	-2.258656
0.170600	-2.065205
0.170700	-1.837997
0.170800	-1.825338
0.170900	-2.019114
0.171000	-2.240804
0.171100	-2.338829
0.171200	-2.280079
0.171300	-2.137587
0.171400	-2.072670
0.171500	-2.120384
0.171600	-2.180757
0.171700	-2.254761
0.171800	-2.239181
0.171900	-2.205100
0.172000	-2.156413
0.172100	-2.134017
0.172200	-2.092145
0.172300	-1.959715
0.172400	-1.882140
0.172500	-1.842866
0.172600	-1.839295
0.172700	-1.843190
0.172800	-1.751009
0.172900	-1.538083
0.173000	-1.492316
0.173100	-1.238168
0.173200	-1.290102
0.173300	-1.256020
0.173400	-1.198569
0.173500	-1.139495
0.173600	-1.026865
0.173700	-0.867496
0.173800	-0.854837
0.173900	-0.824651
0.174000	-0.868469
0.174100	-0.813290
0.174200	-0.821405
0.174300	-0.765577
0.174400	-0.759734
0.174500	-0.712995
0.174600	-0.726302
0.174700	-0.684756
0.174800	-0.745128
0.174900	-0.711372
0.175000	-0.729873
0.175100	-0.688002
0.175200	-0.462742
0.175300	-0.296556
0.175400	-0.218007
0.175500	-0.631200
0.175600	-0.736689
0.175700	-0.591601
0.175800	-0.381597
0.175900	-0.143029
0.176000	-0.200805
0.176100	-0.272212
0.176200	-0.486436
0.176300	-0.398475
0.176400	-0.227745
0.176500	-0.134590
0.176600	-0.004433
0.176700	-0.067077
0.176800	-0.127449
0.176900	-0.227745
0.177000	-0.201454
0.177100	-0.178733
0.177200	-0.131019
0.177300	-0.104079
0.177400	-0.097263
0.177500	-0.069349
0.177600	-0.194637
0.177700	-0.188146
0.177800	-0.246246
0.177900	-0.235210
0.178000	-0.275783
0.178100	-0.180680
0.178200	-0.232938
0.178300	-0.242026
0.178400	-0.484814
0.178500	-0.627954
0.178600	-0.568231
0.178700	-0.423468
0.178800	-0.325768
0.178900	-0.461768
0.179000	-0.725329
0.179100	-0.901252
0.179200	-0.873014
0.179300	-0.767849
0.179400	-0.677940
0.179500	-0.798360
0.179600	-0.922675
0.179700	-1.051534
0.179800	-1.042445
0.179900	-1.107362
0.180000	-1.079123
0.180100	-1.196622
0.180200	-1.261214
0.180300	-1.323534
0.180400	-1.348526
0.180500	-1.374168
0.180600	-1.428049
0.180700	-1.469271
0.180800	-1.471543
0.180900	-1.439409
0.181000	-1.438760
0.181100	-1.465701
0.181200	-1.651362
0.181300	-1.696154
0.181400	-1.692259
0.181500	-1.527696
0.181600	-1.566970
0.181700	-1.664021
0.181800	-1.684794
0.181900	-1.685443
0.182000	-1.715629
0.182100	-1.731858
0.182200	-1.753930
0.182300	-1.766913
0.182400	-1.767887
0.182500	-1.771457
0.182600	-1.775352
0.182700	-1.811706
0.182800	-1.791906
0.182900	-1.810407
0.183000	-1.824040
0.183100	-1.847410
0.183200	-1.821768
0.183300	-1.910054
0.183400	-1.834102
0.183500	-2.102207
0.183600	-2.249568
0.183700	-2.409588
0.183800	-2.130446
0.183900	-1.951601
0.184000	-1.964260
0.184100	-2.106427
0.184200	-2.390437
0.184300	-2.467688
0.184400	-2.365120
0.184500	-2.135639
0.184600	-2.074942
0.184700	-2.141482
0.184800	-2.303124
0.184900	-2.400499
0.185000	-2.361874
0.185100	-2.363497
0.185200	-2.334934
0.185300	-2.334934
0.185400	-2.350838
0.185500	-2.363172
0.185600	-2.359277
0.185700	-2.368041
0.185800	-2.374208
0.185900	-2.419650
0.186000	-2.443669
0.186100	-2.440099
0.186200	-2.410561
0.186300	-2.429063
0.186400	-2.466714
0.186500	-2.478075
0.186600	-2.398876
0.186700	-2.293062
0.186800	-2.222628
0.186900	-2.324871
0.187000	-2.527412
0.187100	-2.668281
0.187200	-2.612452
0.187300	-2.378428
0.187400	-2.242752
0.187500	-2.311888
0.187600	-2.483917
0.187700	-2.660491
0.187800	-2.685808
0.187900	-2.589732
0.188000	-2.519297
0.188100	-2.505015
0.188200	-2.520595
0.188300	-2.566686
0.188400	-2.569283
0.188500	-2.600118
0.188600	-2.553703
0.188700	-2.524815
0.188800	-2.460223
0.188900	-2.350189
0.189000	-2.205425
0.189100	-2.147974
0.189200	-2.139534
0.189300	-2.151869
0.189400	-2.120709
0.189500	-1.998341
0.189600	-1.868183
0.189700	-1.818197
0.189800	-1.664994
0.189900	-1.683171
0.190000	-1.648116
0.190100	-1.563075
0.190200	-1.489395
0.190300	-1.362483
0.190400	-1.316717
0.190500	-1.292374
0.190600	-1.313472
0.190700	-1.330999
0.190800	-1.330350
0.190900	-1.383906
0.191000	-1.368975
0.191100	-1.370598
0.191200	-1.325806
0.191300	-1.371572
0.191400	-1.351772
0.191500	-1.471868
0.191600	-1.405328
0.191700	-1.469596
0.191800	-1.255371
0.191900	-1.083018
0.192000	-0.834388
0.192100	-1.101519
0.192200	-1.433892
0.192300	-1.461806
0.192400	-1.311849
0.192500	-0.973959
0.192600	-0.875935
0.192700	-0.856460
0.192800	-1.031734
0.192900	-1.166760
0.193000	-1.051858
0.193100	-0.944097
0.193200	-0.697739
0.193300	-0.675019
0.193400	-0.591276
0.193500	-0.606856
0.193600	-0.535448
0.193700	-0.506236
0.193800	-0.457549
0.193900	-0.391009
0.194000	-0.323496
0.194100	-0.285196
0.194200	-0.164451
0.194300	-0.266370
0.194400	-0.218657
0.194500	-0.268967
0.194600	-0.221902
0.194700	-0.187497
0.194800	-0.019688
0.194900	-0.020986
0.195000	-0.113492
0.195100	-0.321873
0.195200	-0.305320
0.195300	-0.185225
0.195400	0.065028
0.195500	0.065028
0.195600	-0.062857
0.195700	-0.327716
0.195800	-0.356928
0.195900	-0.259229
0.196000	-0.075191
0.196100	-0.020013
0.196200	-0.132642
0.196300	-0.250141
0.196400	-0.273186
0.196500	-0.218981
0.196600	-0.230017
0.196700	-0.228069
0.196800	-0.327391
0.196900	-0.368289
0.197000	-0.400422
0.197100	-0.379000
0.197200	-0.414379
0.197300	-0.500393
0.197400	-0.531229
0.197500	-0.537396
0.197600	-0.558169
0.197700	-0.588355
0.197800	-0.650999
0.197900	-0.839582
0.198000	-0.938904
0.198100	-1.004469
0.198200	-0.910340
0.198300	-1.044393
0.198400	-1.146961
0.198500	-1.236870
0.198600	-1.272899
0.198700	-1.361185
0.198800	-1.414741
0.198900	-1.457911
0.199000	-1.506273
0.199100	-1.572164
0.199200	-1.612412
0.199300	-1.671811
0.199400	-1.696803
0.199500	-1.712059
0.199600	-1.762045
0.199700	-1.800994
0.199800	-1.845787
0.199900	-1.884088
0.200000	-1.889930
0.200100	-1.994770
0.200200	-2.230742
0.200300	-2.526438
0.200400	-2.469960
0.200500	-2.258656
0.200600	-2.071697
0.200700	-2.100909
0.200800	-2.390437
0.200900	-2.710477
0.201000	-2.722811
0.201100	-2.608233
0.201200	-2.401149
0.201300	-2.383946
0.201400	-2.492681
0.201500	-2.682887
0.201600	-2.718267
0.201700	-2.707555
0.201800	-2.599145
0.201900	-2.572529
0.202000	-2.605961
0.202100	-2.625111
0.202200	-2.598171
0.202300	-2.580643
0.202400	-2.512481
0.202500	-2.533903
0.202600	-2.539097
0.202700	-2.525139
0.202800	-2.456977
0.202900	-2.408614
0.203000	-2.420624
0.203100	-2.466065
0.203200	-2.392060
0.203300	-2.316432
0.203400	-2.052871
0.203500	-2.077864
0.203600	-2.182055
0.203700	-2.336881
0.203800	-2.416079
0.203900	-2.253139
0.204000	-2.012622
0.204100	-1.921415
0.204200	-2.056117
0.204300	-2.244699
0.204400	-2.388490
0.204500	-2.367392
0.204600	-2.255411
0.204700	-2.194389
0.204800	-2.220680
0.204900	-2.270991
0.205000	-2.331039
0.205100	-2.342724
0.205200	-2.342399
0.205300	-2.345969
0.205400	-2.333960
0.205500	-2.287869
0.205600	-2.215487
0.205700	-2.155764
0.205800	-2.151544
0.205900	-2.173940
0.206000	-2.214513
0.206100	-2.210618
0.206200	-2.095067
0.206300	-2.068451
0.206400	-1.937319
0.206500	-1.901940
0.206600	-1.900317
0.206700	-1.894799
0.206800	-1.804889
0.206900	-1.746789
0.207000	-1.601052
0.207100	-1.559830
0.207200	-1.555610
0.207300	-1.557557
0.207400	-1.589367
0.207500	-1.522503
0.207600	-1.585147
0.207700	-1.494588
0.207800	-1.498808
0.207900	-1.418961
0.208000	-1.452068
0.208100	-1.454016
0.208200	-1.492316
0.208300	-1.524775
0.208400	-1.436164
0.208500	-1.244011
0.208600	-0.926570
0.208700	-0.904173
0.208800	-1.172927
0.208900	-1.404679
0.209000	-1.396240
0.209100	-1.128460
0.209200	-0.980450
0.209300	-0.746751
0.209400	-0.968116
0.209500	-1.054455
0.209600	-1.205061
0.209700	-0.995381
0.209800	-0.883725
0.209900	-0.727925
0.210000	-0.698388
0.210100	-0.784403
0.210200	-0.806799
0.210300	-0.818484
0.210400	-0.808746
0.210500	-0.806474
0.210600	-0.804202
0.210700	-0.797710
0.210800	-0.796412
0.210900	-0.858083
0.211000	-0.921052
0.211100	-0.894761
0.211200	-0.948966
0.211300	-0.949290
0.211400	-0.934360
0.211500	-0.859706
0.211600	-0.936956
0.211700	-1.089510
0.211800	-1.283610
0.211900	-1.239142
0.212000	-1.086913
0.212100	-0.912613
0.212200	-0.962274
0.212300	-1.141443
0.212400	-1.326130
0.212500	-1.302436
0.212600	-1.165462
0.212700	-1.001548
0.212800	-0.975906
0.212900	-1.055429
0.213000	-1.117424
0.213100	-1.075553
0.213200	-1.063868
0.213300	-0.998627
0.213400	-1.017128
0.213500	-1.061271
0.213600	-1.077176
0.213700	-1.131705
0.213800	-1.096975
0.213900	-1.121319
0.214000	-1.126188
0.214100	-1.166436
0.214200	-1.151180
0.214300	-1.148584
0.214400	-1.129433
0.214500	-1.253099
0.214600	-1.328078
0.214700	-1.343658
0.214800	-1.285882
0.214900	-1.221615
0.215000	-1.272250
0.215100	-1.290751
0.215200	-1.284259
0.215300	-1.270627
0.215400	-1.253424
0.215500	-1.235247
0.215600	-1.216421
0.215700	-1.180068
0.215800	-1.165787
0.215900	-1.134951
0.216000	-1.121319
0.216100	-1.052832
0.216200	-1.072631
0.216300	-1.008040
0.216400	-1.010636
0.216500	-0.975906
0.216600	-0.999601
0.216700	-1.025243
0.216800	-1.091133
0.216900	-1.296269
0.217000	-1.395591
0.217100	-1.321586
0.217200	-1.006092
0.217300	-0.971037
0.217400	-1.046990
0.217500	-1.417338
0.217600	-1.567295
0.217700	-1.606245
0.217800	-1.453367
0.217900	-1.373844
0.218000	-1.447199
0.218100	-1.637080
0.218200	-1.797099
0.218300	-1.819496
0.218400	-1.841892
0.218500	-1.874350
0.218600	-1.873052
0.218700	-1.949329
0.218800	-2.006455
0.218900	-2.023334
0.219000	-2.028527
0.219100	-2.081759
0.219200	-2.155439
0.219300	-2.266446
0.219400	-2.261578
0.219500	-2.252814
0.219600	-2.291439
0.219700	-2.332986
0.219800	-2.411211
0.219900	-2.387191
0.220000	-2.290466
0.220100	-2.202179
0.220200	-2.320976
0.220300	-2.470609
0.220400	-2.654324
0.220500	-2.682238
0.220600	-2.530982
0.220700	-2.389464
0.220800	-2.428414
0.220900	-2.624137
0.221000	-2.846153
0.221100	-2.896139
0.221200	-2.844854
0.221300	-2.741312
0.221400	-2.716644
0.221500	-2.734496
0.221600	-2.815966
0.221700	-2.835442
0.221800	-2.811747
0.221900	-2.790000
0.222000	-2.753322
0.222100	-2.724758
0.222200	-2.591354
0.222300	-2.478075
0.222400	-2.373884
0.222500	-2.348891
0.222600	-2.337206
0.222700	-2.327793
0.222800	-2.224575
0.222900	-2.054818
0.223000	-2.024632
0.223100	-1.781844
0.223200	-1.814952
0.223300	-1.741271
0.223400	-1.682846
0.223500	-1.564698
0.223600	-1.450770
0.223700	-1.361834
0.223800	-1.320288
0.223900	-1.275820
0.224000	-1.261863
0.224100	-1.218369
0.224200	-1.183639
0.224300	-1.201815
0.224400	-1.111581
0.224500	-1.104441
0.224600	-1.023944
0.224700	-1.003496
0.224800	-1.000574
0.224900	-0.950264
0.225000	-1.014856
0.225100	-0.843477
0.225200	-0.661061
0.225300	-0.379000
0.225400	-0.495200
0.225500	-0.816212
0.225600	-0.941176
0.225700	-0.804527
0.225800	-0.638016
0.225900	-0.419248
0.226000	-0.426389
0.226100	-0.561090
0.226200	-0.694169
0.226300	-0.726627
0.226400	-0.584785
0.226500	-0.393281
0.226600	-0.433854
0.226700	-0.453329
0.226800	-0.536422
0.226900	-0.495525
0.227000	-0.504613
0.227100	-0.471830
0.227200	-0.517596
0.227300	-0.535773
0.227400	-0.556222
0.227500	-0.548432
0.227600	-0.697739
0.227700	-0.662360
0.227800	-0.758761
0.227900	-0.730847
0.228000	-0.755839
0.228100	-0.663983
0.228200	-0.642236
0.228300	-0.752594
0.228400	-1.009013
0.228500	-1.007715
0.228600	-0.946369
0.228700	-0.804851
0.228800	-0.720460
0.228900	-0.875286
0.229000	-1.107037
0.229100	-1.248230
0.229200	-1.182989
0.229300	-1.020698
0.229400	-0.901577
0.229500	-1.009987
0.229600	-1.147935
0.229700	-1.218693
0.229800	-1.180068
0.229900	-1.149882
0.230000	-1.084966
0.230100	-1.135600
0.230200	-1.170331
0.230300	-1.219667
0.230400	-1.186884
0.230500	-1.153777
0.230600	-1.193376
0.230700	-1.217395
0.230800	-1.216746
0.230900	-1.185262
0.231000	-1.181042
0.231100	-1.196946
0.231200	-1.358264
0.231300	-1.405328
0.231400	-1.432918
0.231500	-1.368651
0.231600	-1.392994
0.231700	-1.434541
0.231800	-1.457911
0.231900	-1.423505
0.232000	-1.427400
0.232100	-1.402083
0.232200	-1.408250
0.232300	-1.373195
0.232400	-1.377739
0.232500	-1.357939
0.232600	-1.357615
0.232700	-1.358588
0.232800	-1.333271
0.232900	-1.312173
0.233000	-1.347553
0.233100	-1.371247
0.233200	-1.356966
0.233300	-1.395915
0.233400	-1.425777
0.233500	-1.562102
0.233600	-1.862016
0.233700	-1.881816
0.233800	-1.662722
0.233900	-1.473815
0.234000	-1.456288
0.234100	-1.652336
0.234200	-1.965233
0.234300	-2.006131
0.234400	-1.886035
0.234500	-1.673109
0.234600	-1.629939
0.234700	-1.689663
0.234800	-1.889606
0.234900	-1.938293
0.235000	-1.911353
0.235100	-1.814627
0.235200	-1.779572
0.235300	-1.773405
0.235400	-1.787362
0.235500	-1.769185
0.235600	-1.736403
0.235700	-1.689987
0.235800	-1.651686
0.235900	-1.667591
0.236000	-1.660450
0.236100	-1.607543
0.236200	-1.578655
0.236300	-1.523152
0.236400	-1.578006
0.236500	-1.499133
0.236600	-1.402407
0.236700	-1.215448
0.236800	-1.186884
0.236900	-1.253099
0.237000	-1.413767
0.237100	-1.481605
0.237200	-1.354369
0.237300	-1.132355
0.237400	-0.991486
0.237500	-1.055753
0.237600	-1.231028
0.237700	-1.397214
0.237800	-1.388125
0.237900	-1.245634
0.238000	-1.153128
0.238100	-1.162216
0.238200	-1.241090
0.238300	-1.297567
0.238400	-1.361510
0.238500	-1.369949
0.238600	-1.372221
0.238700	-1.382283
0.238800	-1.374168
0.238900	-1.332946
0.239000	-1.279066
0.239100	-1.325806
0.239200	-1.409223
0.239300	-1.480956
0.239400	-1.537433
0.239500	-1.456288
0.239600	-1.410846
0.239700	-1.466999
0.239800	-1.325806
0.239900	-1.369300
0.240000	-1.382608
0.240100	-1.340087
0.240200	-1.309901
0.240300	-1.204736
0.240400	-1.206684
0.240500	-1.199219
0.240600	-1.287830
0.240700	-1.301787
0.240800	-1.357615
0.240900	-1.374493
0.241000	-1.440708
0.241100	-1.373195
0.241200	-1.479009
0.241300	-1.509195
0.241400	-1.550092
0.241500	-1.685768
0.241600	-1.675381
0.241700	-1.696803
0.241800	-1.582550
0.241900	-1.354693
0.242000	-1.216746
0.242100	-1.477061
0.242200	-1.818522
0.242300	-1.815601
0.242400	-1.679276
0.242500	-1.368651
0.242600	-1.375791
0.242700	-1.358588
0.242800	-1.576708
0.242900	-1.564374
0.243000	-1.528345
0.243100	-1.312822
0.243200	-1.150856
0.243300	-1.058025
0.243400	-1.082694
0.243500	-1.060297
0.243600	-1.027839
0.243700	-1.017453
0.243800	-0.937605
0.243900	-0.908068
0.244000	-0.859056
0.244100	-0.825300
0.244200	-0.762656
0.244300	-0.868469
0.244400	-0.852889
0.244500	-0.935333
0.244600	-0.866846
0.244700	-0.831792
0.244800	-0.698713
0.244900	-0.729548
0.245000	-0.769472
0.245100	-1.009338
0.245200	-0.949939
0.245300	-0.808097
0.245400	-0.600040
0.245500	-0.631525
0.245600	-0.735391
0.245700	-1.008364
0.245800	-0.976231
0.245900	-0.876909
0.246000	-0.674369
0.246100	-0.618217
0.246200	-0.775964
0.246300	-0.865548
0.246400	-0.895734
0.246500	-0.898980
0.246600	-0.858407
0.246700	-0.918130
0.246800	-0.995706
0.246900	-1.065815
0.247000	-1.128460
0.247100	-1.104116
0.247200	-1.161892
0.247300	-1.230703
0.247400	-1.286531
0.247500	-1.260240
0.247600	-1.290751
0.247700	-1.307954
0.247800	-1.413443
0.247900	-1.563725
0.248000	-1.588393
0.248100	-1.613710
0.248200	-1.491667
0.248300	-1.568269
0.248400	-1.642598
0.248500	-1.637405
0.248600	-1.637080
0.248700	-1.653959
0.248800	-1.632536
0.248900	-1.653634
0.249000	-1.634484
0.249100	-1.622149
0.249200	-1.628966
0.249300	-1.612412
0.249400	-1.598455
0.249500	-1.587419
0.249600	-1.584498
0.249700	-1.586121
0.249800	-1.563725
0.249900	-1.583524
0.250000	-1.536135
0.250100	-1.527371
0.250200	-1.736403
0.250300	-1.880193
0.250400	-1.718550
0.250500	-1.468622
0.250600	-1.242063
0.250700	-1.312822
0.250800	-1.519257
0.250900	-1.704593
0.251000	-1.649414
0.251100	-1.461806
0.251200	-1.280364
0.251300	-1.207333
0.251400	-1.354693
0.251500	-1.427725
0.251600	-1.452717
0.251700	-1.355018
0.251800	-1.243037
0.251900	-1.187209
0.252000	-1.203763
0.252100	-1.186884
0.252200	-1.154751
0.252300	-1.113529
0.252400	-1.079448
0.252500	-1.072956
0.252600	-1.063868
0.252700	-1.155725
0.252800	-1.078149
0.252900	-1.072956
0.253000	-1.097949
0.253100	-1.195973
0.253200	-1.191753
0.253300	-1.115152
0.253400	-0.998302
0.253500	-1.088211
0.253600	-1.280040
0.253700	-1.515037
0.253800	-1.604297
0.253900	-1.494913
0.254000	-1.318665
0.254100	-1.319639
0.254200	-1.496211
0.254300	-1.747114
0.254400	-1.890904
0.254500	-1.861042
0.254600	-1.756202
0.254700	-1.746465
0.254800	-1.784441
0.254900	-1.861691
0.255000	-1.916221
0.255100	-1.922713
0.255200	-1.912651
0.255300	-1.904212
0.255400	-1.897720
0.255500	-1.833453
0.255600	-1.718226
0.255700	-1.672460
0.255800	-1.675381
0.255900	-1.729262
0.256000	-1.758474
0.256100	-1.732832
0.256200	-1.601701
0.256300	-1.584498
0.256400	-1.451419
0.256500	-1.444927
0.256600	-1.459209
0.256700	-1.442980
0.256800	-1.375467
0.256900	-1.320937
0.257000	-1.195973
0.257100	-1.231677
0.257200	-1.233624
0.257300	-1.315419
0.257400	-1.337491
0.257500	-1.304383
0.257600	-1.390722
0.257700	-1.338140
0.257800	-1.439734
0.257900	-1.360536
0.258000	-1.473491
0.258100	-1.413767
0.258200	-1.543276
0.258300	-1.525424
0.258400	-1.548794
0.258500	-1.393319
0.258600	-1.196946
0.258700	-1.241090
0.258800	-1.561777
0.258900	-1.819820
0.259000	-1.648765
0.259100	-1.457586
0.259200	-1.298865
0.259300	-1.223238
0.259400	-1.432269
0.259500	-1.510168
0.259600	-1.566646
0.259700	-1.343333
0.259800	-1.174226
0.259900	-1.007390
0.260000	-1.007390
0.260100	-1.052507
0.260200	-1.075228
0.260300	-1.075228
0.260400	-0.990512
0.260500	-0.933386
0.260600	-0.903200
0.260700	-0.924297
0.260800	-0.911314
0.260900	-0.953510
0.261000	-1.082044
0.261100	-1.007390
0.261200	-1.115801
0.261300	-1.059973
0.261400	-1.107686
0.261500	-1.061596
0.261600	-1.128135
0.261700	-1.348851
0.261800	-1.519906
0.261900	-1.461481
0.262000	-1.277118
0.262100	-1.092756
0.262200	-1.180393
0.262300	-1.390722
0.262400	-1.575085
0.262500	-1.541004
0.262600	-1.402407
0.262700	-1.240765
0.262800	-1.244985
0.262900	-1.394617
0.263000	-1.505624
0.263100	-1.484851
0.263200	-1.503352
0.263300	-1.439409
0.263400	-1.509844
0.263500	-1.568593
0.263600	-1.613061
0.263700	-1.635457
0.263800	-1.617605
0.263900	-1.645844
0.264000	-1.636431
0.264100	-1.622149
0.264200	-1.575085
0.264300	-1.556908
0.264400	-1.519906
0.264500	-1.621500
0.264600	-1.674732
0.264700	-1.669214
0.264800	-1.581577
0.264900	-1.493615
0.265000	-1.539056
0.265100	-1.540030
0.265200	-1.521204
0.265300	-1.506598
0.265400	-1.513414
0.265500	-1.490044
0.265600	-1.457262
0.265700	-1.454989
0.265800	-1.445901
0.265900	-1.443304
0.266000	-1.426426
0.266100	-1.429023
0.266200	-1.420584
0.266300	-1.436488
0.266400	-1.408250
0.266500	-1.468622
0.266600	-1.466350
0.266700	-1.529968
0.266800	-1.650388
0.266900	-1.950627
0.267000	-2.086627
0.267100	-1.891228
0.267200	-1.725367
0.267300	-1.630913
0.267400	-1.830532
0.267500	-2.141157
0.267600	-2.346619
0.267700	-2.310914
0.267800	-2.138236
0.267900	-2.021062
0.268000	-2.089224
0.268100	-2.247296
0.268200	-2.400175
0.268300	-2.432958
0.268400	-2.413483
0.268500	-2.369989
0.268600	-2.367067
0.268700	-2.385244
0.268800	-2.426466
0.268900	-2.449187
0.269000	-2.415430
0.269100	-2.397578
0.269200	-2.445941
0.269300	-2.408289
0.269400	-2.423869
0.269500	-2.382972
0.269600	-2.422896
0.269700	-2.443669
0.269800	-2.415430
0.269900	-2.383946
0.270000	-2.180757
0.270100	-2.079811
0.270200	-2.150246
0.270300	-2.306370
0.270400	-2.460547
0.270500	-2.424194
0.270600	-2.203477
0.270700	-2.022035
0.270800	-1.975945
0.270900	-2.158685
0.271000	-2.345320
0.271100	-2.427440
0.271200	-2.344671
0.271300	-2.198284
0.271400	-2.129797
0.271500	-2.141807
0.271600	-2.202179
0.271700	-2.236909
0.271800	-2.212566
0.271900	-2.173291
0.272000	-2.128823
0.272100	-2.058064
0.272200	-1.947706
0.272300	-1.799696
0.272400	-1.722770
0.272500	-1.680899
0.272600	-1.648116
0.272700	-1.633185
0.272800	-1.499133
0.272900	-1.341710
0.273000	-1.328402
0.273100	-1.076851
0.273200	-1.145013
0.273300	-1.143066
0.273400	-1.099572
0.273500	-1.030436
0.273600	-0.954484
0.273700	-0.865548
0.273800	-0.877882
0.273900	-0.852889
0.274000	-0.953510
0.274100	-0.895085
0.274200	-0.990188
0.274300	-0.917481
0.274400	-0.968116
0.274500	-0.907419
0.274600	-0.905147
0.274700	-0.958703
0.274800	-0.935982
0.274900	-0.985319
0.275000	-0.916508
0.275100	-0.877558
0.275200	-0.624384
0.275300	-0.463067
0.275400	-0.617568
0.275500	-0.940527
0.275600	-1.150207
0.275700	-0.932737
0.275800	-0.766226
0.275900	-0.648403
0.276000	-0.673071
0.276100	-0.823677
0.276200	-0.984345
0.276300	-0.942149
0.276400	-0.840231
0.276500	-0.752594
0.276600	-0.748699
0.276700	-0.798035
0.276800	-0.880154
0.276900	-0.910665
0.277000	-0.930140
0.277100	-0.936307
0.277200	-0.990837
0.277300	-0.986293
0.277400	-1.034980
0.277500	-1.036278
0.277600	-1.163839
0.277700	-1.256345
0.277800	-1.245309
0.277900	-1.356966
0.278000	-1.349176
0.278100	-1.313472
0.278200	-1.276469
0.278300	-1.446550
0.278400	-1.649414
0.278500	-1.696479
0.278600	-1.659152
0.278700	-1.488746
0.278800	-1.469920
0.278900	-1.637729
0.279000	-1.886360
0.279100	-2.025281
0.279200	-2.009052
0.279300	-1.896746
0.279400	-1.852279
0.279500	-1.959391
0.279600	-2.059038
0.279700	-2.136613
0.279800	-2.097988
0.279900	-2.144079
0.280000	-2.117787
0.280100	-2.173616
0.280200	-2.178160
0.280300	-2.206399
0.280400	-2.159983
0.280500	-2.142456
0.280600	-2.164852
0.280700	-2.162255
0.280800	-2.110971
0.280900	-2.059038
0.281000	-2.012622
0.281100	-2.001911
0.281200	-2.114217
0.281300	-2.107401
0.281400	-2.067152
0.281500	-1.891553
0.281600	-1.888307
0.281700	-1.905835
0.281800	-1.879868
0.281900	-1.861691
0.282000	-1.846436
0.282100	-1.841892
0.282200	-1.838971
0.282300	-1.803916
0.282400	-1.830207
0.282500	-1.829233
0.282600	-1.845787
0.282700	-1.825663
0.282800	-1.838321
0.282900	-1.810083
0.283000	-1.809109
0.283100	-1.805214
0.283200	-1.878570
0.283300	-1.856498
0.283400	-1.954522
0.283500	-2.110971
0.283600	-2.415755
0.283700	-2.371936
0.283800	-2.248270
0.283900	-2.057740
0.284000	-2.103506
0.284100	-2.352786
0.284200	-2.625111
0.284300	-2.702687
0.284400	-2.586810
0.284500	-2.443669
0.284600	-2.378752
0.284700	-2.541369
0.284800	-2.673799
0.284900	-2.816940
0.285000	-2.804931
0.285100	-2.762410
0.285200	-2.731575
0.285300	-2.755594
0.285400	-2.803632
0.285500	-2.800711
0.285600	-2.770849
0.285700	-2.725083
0.285800	-2.765007
0.285900	-2.828625
0.286000	-2.862382
0.286100	-2.795842
0.286200	-2.761761
0.286300	-2.734171
0.286400	-2.835442
0.286500	-2.826029
0.286600	-2.729303
0.286700	-2.542992
0.286800	-2.492357
0.286900	-2.604013
0.287000	-2.787079
0.287100	-2.880234
0.287200	-2.760787
0.287300	-2.521569
0.287400	-2.435879
0.287500	-2.518648
0.287600	-2.703985
0.287700	-2.839661
0.287800	-2.827651
0.287900	-2.715021
0.288000	-2.642314
0.288100	-2.634849
0.288200	-2.686458
0.288300	-2.715670
0.288400	-2.674773
0.288500	-2.645235
0.288600	-2.609856
0.288700	-2.560194
0.288800	-2.486189
0.288900	-2.342399
0.289000	-2.212566
0.289100	-2.136938
0.289200	-2.111296
0.289300	-2.094417
0.289400	-2.056766
0.289500	-1.886360
0.289600	-1.770808
0.289700	-1.688364
0.289800	-1.530617
0.289900	-1.535810
0.290000	-1.500431
0.290100	-1.421233
0.290200	-1.321911
0.290300	-1.240441
0.290400	-1.181367
0.290500	-1.188507
0.290600	-1.166436
0.290700	-1.209281
0.290800	-1.176498
0.290900	-1.249853
0.291000	-1.246608
0.291100	-1.222913
0.291200	-1.275171
0.291300	-1.237519
0.291400	-1.319639
0.291500	-1.297892
0.291600	-1.354044
0.291700	-1.326130
0.291800	-1.159620
0.291900	-1.025243
0.292000	-0.798360
0.292100	-1.182665
0.292200	-1.332622
0.292300	-1.479009
0.292400	-1.105090
0.292500	-0.980450
0.292600	-0.883725
0.292700	-0.941500
0.292800	-1.083992
0.292900	-1.187534
0.293000	-1.042445
0.293100	-0.867496
0.293200	-0.730522
0.293300	-0.809720
0.293400	-0.828870
0.293500	-0.943448
0.293600	-0.856135
0.293700	-0.889567
0.293800	-0.832116
0.293900	-0.849968
0.294000	-0.880803
0.294100	-0.841529
0.294200	-0.847696
0.294300	-0.928192
0.294400	-0.948317
0.294500	-0.983371
0.294600	-1.067438
0.294700	-1.016803
0.294800	-0.976880
0.294900	-0.998627
0.295000	-1.123591
0.295100	-1.413118
0.295200	-1.337815
0.295300	-1.277767
0.295400	-1.057052
0.295500	-1.133978
0.295600	-1.321586
0.295700	-1.575410
0.295800	-1.601701
0.295900	-1.510493
0.296000	-1.319314
0.296100	-1.305682
0.296200	-1.434541
0.296300	-1.574111
0.296400	-1.591639
0.296500	-1.570216
0.296600	-1.526398
0.296700	-1.561128
0.296800	-1.625720
0.296900	-1.692259
0.297000	-1.720823
0.297100	-1.641949
0.297200	-1.646818
0.297300	-1.666293
0.297400	-1.679601
0.297500	-1.640326
0.297600	-1.622799
0.297700	-1.578655
0.297800	-1.661424
0.297900	-1.767238
0.298000	-1.767238
0.298100	-1.762694
0.298200	-1.625395
0.298300	-1.711085
0.298400	-1.745166
0.298500	-1.726665
0.298600	-1.741596
0.298700	-1.724718
0.298800	-1.723744
0.298900	-1.735104
0.299000	-1.741920
0.299100	-1.767562
0.299200	-1.764641
0.299300	-1.761720
0.299400	-1.766264
0.299500	-1.738999
0.299600	-1.749710
0.299700	-1.744192
0.299800	-1.787037
0.299900	-1.760097
0.300000	-1.839944
0.300100	-1.882140
0.300200	-2.100584
0.300300	-2.266771
0.300400	-2.180757
0.300500	-1.978217
0.300600	-1.841243
0.300700	-1.937319
0.300800	-2.234313
0.300900	-2.431010
0.301000	-2.407316
0.301100	-2.256384
0.301200	-2.139210
0.301300	-2.154141
0.301400	-2.374208
0.301500	-2.527736
0.301600	-2.555975
0.301700	-2.491707
0.301800	-2.470609
0.301900	-2.493979
0.302000	-2.560194
0.302100	-2.615049
0.302200	-2.661465
0.302300	-2.656920
0.302400	-2.661789
0.302500	-2.711775
0.302600	-2.781561
0.302700	-2.798764
0.302800	-2.814668
0.302900	-2.803957
0.303000	-2.851022
0.303100	-2.883155
0.303200	-2.858812
0.303300	-2.748128
0.303400	-2.581617
0.303500	-2.638744
0.303600	-2.771174
0.303700	-2.942879
0.303800	-2.954564
0.303900	-2.771498
0.304000	-2.575125
0.304100	-2.514104
0.304200	-2.650104
0.304300	-2.861408
0.304400	-2.963652
0.304500	-2.893217
0.304600	-2.775393
0.304700	-2.703660
0.304800	-2.728978
0.304900	-2.809150
0.305000	-2.866277
0.305100	-2.869847
0.305200	-2.855890
0.305300	-2.821160
0.305400	-2.832196
0.305500	-2.784806
0.305600	-2.679317
0.305700	-2.626734
0.305800	-2.651402
0.305900	-2.669255
0.306000	-2.687756
0.306100	-2.638095
0.306200	-2.488462
0.306300	-2.481321
0.306400	-2.279754
0.306500	-2.341750
0.306600	-2.337855
0.306700	-2.302151
0.306800	-2.238857
0.306900	-2.190494
0.307000	-2.103830
0.307100	-2.077864
0.307200	-2.113892
0.307300	-2.127525
0.307400	-2.129472
0.307500	-2.156413
0.307600	-2.134990
0.307700	-2.153816
0.307800	-2.068126
0.307900	-2.130446
0.308000	-2.094417
0.308100	-2.196986
0.308200	-2.121682
0.308300	-2.220031
0.308400	-2.058064
0.308500	-1.953224
0.308600	-1.608192
0.308700	-1.677978
0.308800	-1.978217
0.308900	-2.153816
0.309000	-2.039563
0.309100	-1.838646
0.309200	-1.677978
0.309300	-1.595534
0.309400	-1.724718
0.309500	-1.864288
0.309600	-1.819171
0.309700	-1.731858
0.309800	-1.501405
0.309900	-1.477386
0.310000	-1.484526
0.310100	-1.609166
0.310200	-1.527371
0.310300	-1.568593
0.310400	-1.495562
0.310500	-1.496861
0.310600	-1.491667
0.310700	-1.482254
0.310800	-1.527696
0.310900	-1.514713
0.311000	-1.674732
0.311100	-1.582226
0.311200	-1.711085
0.311300	-1.674083
0.311400	-1.588068
0.311500	-1.575410
0.311600	-1.566321
0.311700	-1.794503
0.311800	-1.833128
0.311900	-1.777949
0.312000	-1.522178
0.312100	-1.411171
0.312200	-1.437137
0.312300	-1.707839
0.312400	-1.791257
0.312500	-1.755553
0.312600	-1.609491
0.312700	-1.459858
0.312800	-1.516011
0.312900	-1.658178
0.313000	-1.744192
0.313100	-1.679925
0.313200	-1.670837
0.313300	-1.616307
0.313400	-1.744517
0.313500	-1.771782
0.313600	-1.839620
0.313700	-1.838971
0.313800	-1.795152
0.313900	-1.859095
0.314000	-1.877921
0.314100	-1.869481
0.314200	-1.812679
0.314300	-1.794827
0.314400	-1.796126
0.314500	-1.917520
0.314600	-1.991849
0.314700	-1.984384
0.314800	-1.852928
0.314900	-1.882465
0.315000	-1.957768
0.315100	-1.980164
0.315200	-1.971076
0.315300	-1.982436
0.315400	-2.015219
0.315500	-2.016842
0.315600	-2.055792
0.315700	-2.042484
0.315800	-2.082732
0.315900	-2.101558
0.316000	-2.122981
0.316100	-2.136613
0.316200	-2.135315
0.316300	-2.172967
0.316400	-2.152193
0.316500	-2.248919
0.316600	-2.284623
0.316700	-2.352461
0.316800	-2.506963
0.316900	-2.789351
0.317000	-2.887050
0.317100	-2.700415
0.317200	-2.524815
0.317300	-2.484891
0.317400	-2.711775
0.317500	-2.971767
0.317600	-3.169439
0.317700	-3.054211
0.317800	-2.911719
0.317900	-2.926000
0.318000	-3.022077
0.318100	-3.219749
0.318200	-3.331731
0.318300	-3.377173
0.318400	-3.321993
0.318500	-3.325239
0.318600	-3.381068
0.318700	-3.437221
0.318800	-3.487532
0.318900	-3.482987
0.319000	-3.506682
0.319100	-3.511551
0.319200	-3.596268
0.319300	-3.611199
0.319400	-3.633920
0.319500	-3.583609
0.319600	-3.579065
0.319700	-3.632621
0.319800	-3.647552
0.319900	-3.610549
0.320000	-3.441116
0.320100	-3.374901
0.320200	-3.427483
0.320300	-3.579714
0.320400	-3.740708
0.320500	-3.665404
0.320600	-3.421966
0.320700	-3.216503
0.320800	-3.211310
0.320900	-3.380419
0.321000	-3.521613
0.321100	-3.528105
0.321200	-3.358022
0.321300	-3.168140
0.321400	-3.091538
0.321500	-3.088293
0.321600	-3.112312
0.321700	-3.062326
0.321800	-2.985724
0.321900	-2.902955
0.322000	-2.816940
0.322100	-2.781236
0.322200	-2.657894
0.322300	-2.509559
0.322400	-2.437826
0.322500	-2.427764
0.322600	-2.419001
0.322700	-2.404394
0.322800	-2.257358
0.322900	-2.130122
0.323000	-2.094417
0.323100	-1.857147
0.323200	-1.881491
0.323300	-1.845787
0.323400	-1.784116
0.323500	-1.678302
0.323600	-1.558207
0.323700	-1.471543
0.323800	-1.445577
0.323900	-1.439734
0.324000	-1.443304
0.324100	-1.366703
0.324200	-1.354369
0.324300	-1.303734
0.324400	-1.247257
0.324500	-1.239791
0.324600	-1.159620
0.324700	-1.205061
0.324800	-1.145338
0.324900	-1.228431
0.325000	-1.119696
0.325100	-1.022970
0.325200	-0.778236
0.325300	-0.581539
0.325400	-0.811018
0.325500	-1.048288
0.325600	-1.199543
0.325700	-0.996030
0.325800	-0.675992
0.325900	-0.662360
0.326000	-0.595496
0.326100	-0.883400
0.326200	-0.866197
0.326300	-0.975257
0.326400	-0.791868
0.326500	-0.663983
0.326600	-0.669176
0.326700	-0.698064
0.326800	-0.806474
0.326900	-0.884374
0.327000	-0.981424
0.327100	-0.995381
0.327200	-1.019400
0.327300	-1.053481
0.327400	-1.089510
0.327500	-1.172603
0.327600	-1.204087
0.327700	-1.466025
0.327800	-1.417662
0.327900	-1.554961
0.328000	-1.526398
0.328100	-1.517309
0.328200	-1.567295
0.328300	-1.603324
0.328400	-1.949653
0.328500	-1.890579
0.328600	-1.871104
0.328700	-1.645195
0.328800	-1.646818
0.328900	-1.757500
0.329000	-2.016842
0.329100	-2.081759
0.329200	-1.998016
0.329300	-1.793854
0.329400	-1.695181
0.329500	-1.762369
0.329600	-1.869806
0.329700	-1.889281
0.329800	-1.846111
0.329900	-1.833453
0.330000	-1.788011
0.330100	-1.830207
0.330200	-1.847734
0.330300	-1.886360
0.330400	-1.883763
0.330500	-1.898694
0.330600	-1.921090
0.330700	-1.932126
0.330800	-1.924011
0.330900	-1.904861
0.331000	-1.851629
0.331100	-1.916546
0.331200	-2.045730
0.331300	-2.040861
0.331400	-2.040537
0.331500	-1.872727
0.331600	-1.927582
0.331700	-1.977892
0.331800	-1.946083
0.331900	-1.981138
0.332000	-1.963610
0.332100	-1.981463
0.332200	-1.984384
0.332300	-1.981138
0.332400	-1.992498
0.332500	-1.997043
0.332600	-2.010675
0.332700	-1.992174
0.332800	-1.981463
0.332900	-1.997367
0.333000	-2.035019
0.333100	-2.022685
0.333200	-2.082083
0.333300	-2.105778
0.333400	-2.178484
0.333500	-2.380700
0.333600	-2.627059
0.333700	-2.521244
0.333800	-2.328766
0.333900	-2.149921
0.334000	-2.250866
0.334100	-2.501120
0.334200	-2.715345
0.334300	-2.791298
0.334400	-2.661140
0.334500	-2.473531
0.334600	-2.491707
0.334700	-2.645560
0.334800	-2.820835
0.334900	-2.901657
0.335000	-2.908798
0.335100	-2.875690
0.335200	-2.861733
0.335300	-2.852320
0.335400	-2.927299
0.335500	-2.979232
0.335600	-2.998707
0.335700	-3.004550
0.335800	-3.057457
0.335900	-3.098355
0.336000	-3.147367
0.336100	-3.156455
0.336200	-3.149964
0.336300	-3.183396
0.336400	-3.218451
0.336500	-3.242470
0.336600	-3.132761
0.336700	-3.003901
0.336800	-3.015910
0.336900	-3.156131
0.337000	-3.321669
0.337100	-3.456696
0.337200	-3.305764
0.337300	-3.123348
0.337400	-3.049018
0.337500	-3.161649
0.337600	-3.383340
0.337700	-3.511226
0.337800	-3.494997
0.337900	-3.413851
0.338000	-3.334003
0.338100	-3.308361
0.338200	-3.351206
0.338300	-3.371006
0.338400	-3.380419
0.338500	-3.368084
0.338600	-3.346662
0.338700	-3.299597
0.338800	-3.222995
0.338900	-3.102899
0.339000	-3.025323
0.339100	-2.989294
0.339200	-2.991891
0.339300	-2.943853
0.339400	-2.894840
0.339500	-2.703985
0.339600	-2.631927
0.339700	-2.415755
0.339800	-2.363821
0.339900	-2.339802
0.340000	-2.299879
0.340100	-2.233339
0.340200	-2.146351
0.340300	-2.005157
0.340400	-1.952575
0.340500	-1.962637
0.340600	-1.989253
0.340700	-1.995744
0.340800	-1.988603
0.340900	-2.093768
0.341000	-2.038589
0.341100	-2.075267
0.341200	-2.009701
0.341300	-2.060661
0.341400	-2.083706
0.341500	-2.175563
0.341600	-2.254112
0.341700	-2.157387
0.341800	-2.063582
0.341900	-1.803591
0.342000	-1.713357
0.342100	-2.092470
0.342200	-2.314809
0.342300	-2.273587
0.342400	-2.068775
0.342500	-1.879868
0.342600	-1.790932
0.342700	-1.897720
0.342800	-2.098637
0.342900	-2.093444
0.343000	-2.051572
0.343100	-1.837348
0.343200	-1.767887
0.343300	-1.793529
0.343400	-1.862341
0.343500	-1.807811
0.343600	-1.796775
0.343700	-1.740622
0.343800	-1.700698
0.343900	-1.700698
0.344000	-1.706216
0.344100	-1.698426
0.344200	-1.717901
0.344300	-1.911028
0.344400	-1.854226
0.344500	-1.977243
0.344600	-1.935047
0.344700	-1.908431
0.344800	-1.882465
0.344900	-1.878570
0.345000	-2.123305
0.345100	-2.272614
0.345200	-2.234637
0.345300	-2.090522
0.345400	-1.936995
0.345500	-1.995744
0.345600	-2.222303
0.345700	-2.425817
0.345800	-2.426791
0.345900	-2.319029
0.346000	-2.135315
0.346100	-2.148298
0.346200	-2.287544
0.346300	-2.369339
0.346400	-2.333960
0.346500	-2.335907
0.346600	-2.281053
0.346700	-2.320003
0.346800	-2.344346
0.346900	-2.386542
0.347000	-2.376156
0.347100	-2.328117
0.347200	-2.325196
0.347300	-2.371611
0.347400	-2.367067
0.347500	-2.329091
0.347600	-2.308318
0.347700	-2.276833
0.347800	-2.360900
0.347900	-2.450161
0.348000	-2.441397
0.348100	-2.341750
0.348200	-2.264499
0.348300	-2.297282
0.348400	-2.315134
0.348500	-2.268069
0.348600	-2.252814
0.348700	-2.225874
0.348800	-2.210618
0.348900	-2.200881
0.349000	-2.189196
0.349100	-2.153492
0.349200	-2.131744
0.349300	-2.097988
0.349400	-2.111620
0.349500	-2.098962
0.349600	-2.100909
0.349700	-2.122007
0.349800	-2.094417
0.349900	-2.156737
0.350000	-2.155114
0.350100	-2.316757
0.350200	-2.519946
0.350300	-2.657894
0.350400	-2.577397
0.350500	-2.350838
0.350600	-2.271315
0.350700	-2.410886
0.350800	-2.713073
0.350900	-2.902306
0.351000	-2.898086
0.351100	-2.743909
0.351200	-2.626085
0.351300	-2.733522
0.351400	-2.901007
0.351500	-3.087643
0.351600	-3.096732
0.351700	-3.079853
0.351800	-3.012340
0.351900	-3.074660
0.352000	-3.096732
0.352100	-3.143472
0.352200	-3.148016
0.352300	-3.127892
0.352400	-3.141524
0.352500	-3.149964
0.352600	-3.266489
0.352700	-3.180799
0.352800	-3.206117
0.352900	-3.197678
0.353000	-3.279797
0.353100	-3.321344
0.353200	-3.281745
0.353300	-3.131138
0.353400	-2.966573
0.353500	-3.061677
0.353600	-3.212933
0.353700	-3.364839
0.353800	-3.373602
0.353900	-3.181448
0.354000	-3.010068
0.354100	-2.992216
0.354200	-3.147042
0.354300	-3.332705
0.354400	-3.417421
0.354500	-3.350232
0.354600	-3.236628
0.354700	-3.189887
0.354800	-3.213582
0.354900	-3.253506
0.355000	-3.270384
0.355100	-3.258699
0.355200	-3.217802
0.355300	-3.173983
0.355400	-3.161649
0.355500	-3.094460
0.355600	-2.948072
0.355700	-2.860434
0.355800	-2.843232
0.355900	-2.856215
0.356000	-2.850697
0.356100	-2.806229
0.356200	-2.637121
0.356300	-2.619269
0.356400	-2.380700
0.356500	-2.445292
0.356600	-2.432633
0.356700	-2.388490
0.356800	-2.293062
0.356900	-2.216461
0.357000	-2.126876
0.357100	-2.101883
0.357200	-2.092145
0.357300	-2.105778
0.357400	-2.091821
0.357500	-2.091172
0.357600	-2.128174
0.357700	-2.083382
0.357800	-2.117787
0.357900	-2.077864
0.358000	-2.121682
0.358100	-2.202828
0.358200	-2.149921
0.358300	-2.228470
0.358400	-2.071047
0.358500	-1.889281
0.358600	-1.639028
0.358700	-1.737052
0.358800	-2.035019
0.358900	-2.269043
0.359000	-2.160632
0.359100	-1.906484
0.359200	-1.694207
0.359300	-1.710760
0.359400	-1.790932
0.359500	-2.005482
0.359600	-1.975620
0.359700	-1.834426
0.359800	-1.640001
0.359900	-1.529968
0.360000	-1.610140
0.360100	-1.638703
0.360200	-1.628641
0.360300	-1.607543
0.360400	-1.567944
0.360500	-1.526722
0.360600	-1.489071
0.360700	-1.483228
0.360800	-1.464078
0.360900	-1.489720
0.361000	-1.537433
0.361100	-1.498483
0.361200	-1.539381
0.361300	-1.491018
0.361400	-1.361834
0.361500	-1.290751
0.361600	-1.314121
0.361700	-1.528020
0.361800	-1.552364
0.361900	-1.464402
0.362000	-1.233949
0.362100	-1.054779
0.362200	-1.154426
0.362300	-1.315094
0.362400	-1.443629
0.362500	-1.358264
0.362600	-1.220966
0.362700	-1.062894
0.362800	-1.071333
0.362900	-1.214799
0.363000	-1.331648
0.363100	-1.286856
0.363200	-1.325806
0.363300	-1.270302
0.363400	-1.373519
0.363500	-1.413767
0.363600	-1.469271
0.363700	-1.484851
0.363800	-1.466999
0.363900	-1.507247
0.364000	-1.521204
0.364100	-1.537433
0.364200	-1.513414
0.364300	-1.493290
0.364400	-1.522178
0.364500	-1.688040
0.364600	-1.735429
0.364700	-1.751333
0.364800	-1.678951
0.364900	-1.701997
0.365000	-1.797424
0.365100	-1.851954
0.365200	-1.895448
0.365300	-1.953873
0.365400	-2.012947
0.365500	-2.093768
0.365600	-2.168098
0.365700	-2.215162
0.365800	-2.257034
0.365900	-2.298580
0.366000	-2.363172
0.366100	-2.374208
0.366200	-2.469636
0.366300	-2.493330
0.366400	-2.565388
0.366500	-2.610505
0.366600	-2.713398
0.366700	-2.746830
0.366800	-2.946449
0.366900	-3.273955
0.367000	-3.396972
0.367100	-3.255454
0.367200	-3.085696
0.367300	-3.042202
0.367400	-3.243444
0.367500	-3.501489
0.367600	-3.704679
0.367700	-3.579714
0.367800	-3.399569
0.367900	-3.356075
0.368000	-3.443713
0.368100	-3.618015
0.368200	-3.675466
0.368300	-3.665729
0.368400	-3.599838
0.368500	-3.620287
0.368600	-3.629051
0.368700	-3.687151
0.368800	-3.668650
0.368900	-3.697863
0.369000	-3.660536
0.369100	-3.673519
0.369200	-3.696889
0.369300	-3.694617
0.369400	-3.687151
0.369500	-3.653719
0.369600	-3.632946
0.369700	-3.669624
0.369800	-3.637815
0.369900	-3.625156
0.370000	-3.477794
0.370100	-3.398271
0.370200	-3.481689
0.370300	-3.618664
0.370400	-3.758885
0.370500	-3.657290
0.370600	-3.409307
0.370700	-3.253831
0.370800	-3.287587
0.370900	-3.448581
0.371000	-3.588153
0.371100	-3.590750
0.371200	-3.479092
0.371300	-3.343416
0.371400	-3.305764
0.371500	-3.332380
0.371600	-3.368409
0.371700	-3.357698
0.371800	-3.327836
0.371900	-3.290509
0.372000	-3.226566
0.372100	-3.164570
0.372200	-3.056159
0.372300	-2.921132
0.372400	-2.839337
0.372500	-2.813045
0.372600	-2.785456
0.372700	-2.768253
0.372800	-2.606285
0.372900	-2.488137
0.373000	-2.372261
0.373100	-2.224900
0.373200	-2.224900
0.373300	-2.195363
0.373400	-2.135315
0.373500	-2.006455
0.373600	-1.879219
0.373700	-1.845138
0.373800	-1.817548
0.373900	-1.803267
0.374000	-1.816899
0.374100	-1.765615
0.374200	-1.811057
0.374300	-1.738025
0.374400	-1.745166
0.374500	-1.720823
0.374600	-1.715305
0.374700	-1.770808
0.374800	-1.819496
0.374900	-1.858770
0.375000	-1.880842
0.375100	-1.767562
0.375200	-1.547820
0.375300	-1.482254
0.375400	-1.657529
0.375500	-1.976269
0.375600	-2.070074
0.375700	-1.956794
0.375800	-1.710760
0.375900	-1.662398
0.376000	-1.613061
0.376100	-1.887983
0.376200	-1.892527
0.376300	-1.874675
0.376400	-1.619228
0.376500	-1.553338
0.376600	-1.524775
0.376700	-1.516985
0.376800	-1.488421
0.376900	-1.447849
0.377000	-1.413443
0.377100	-1.374168
0.377200	-1.377739
0.377300	-1.355018
0.377400	-1.308278
0.377500	-1.310550
0.377600	-1.301462
0.377700	-1.395591
0.377800	-1.381634
0.377900	-1.528345
0.378000	-1.449472
0.378100	-1.443304
0.378200	-1.365405
0.378300	-1.538083
0.378400	-1.814952
0.378500	-1.792231
0.378600	-1.743219
0.378700	-1.504975
0.378800	-1.565997
0.378900	-1.741920
0.379000	-1.981138
0.379100	-2.049625
0.379200	-1.939267
0.379300	-1.789309
0.379400	-1.745166
0.379500	-1.901291
0.379600	-1.999315
0.379700	-2.010026
0.379800	-1.951925
0.379900	-1.957768
0.380000	-1.983410
0.380100	-2.071372
0.380200	-2.108699
0.380300	-2.156737
0.380400	-2.127849
0.380500	-2.131744
0.380600	-2.216461
0.380700	-2.224575
0.380800	-2.231067
0.380900	-2.214838
0.381000	-2.190169
0.381100	-2.244375
0.381200	-2.333635
0.381300	-2.361225
0.381400	-2.352136
0.381500	-2.342724
0.381600	-2.281702
0.381700	-2.321301
0.381800	-2.289492
0.381900	-2.265473
0.382000	-2.238208
0.382100	-2.215487
0.382200	-2.180432
0.382300	-2.189196
0.382400	-2.156088
0.382500	-2.168422
0.382600	-2.156413
0.382700	-2.170370
0.382800	-2.175888
0.382900	-2.191468
0.383000	-2.191792
0.383100	-2.257358
0.383200	-2.259955
0.383300	-2.309616
0.383400	-2.394657
0.383500	-2.567011
0.383600	-2.848749
0.383700	-2.791298
0.383800	-2.622190
0.383900	-2.474180
0.384000	-2.633875
0.384100	-2.872444
0.384200	-3.135682
0.384300	-3.187940
0.384400	-3.066545
0.384500	-2.958134
0.384600	-3.020779
0.384700	-3.213582
0.384800	-3.399894
0.384900	-3.467407
0.385000	-3.448581
0.385100	-3.425536
0.385200	-3.479742
0.385300	-3.524859
0.385400	-3.592697
0.385500	-3.626454
0.385600	-3.660536
0.385700	-3.666378
0.385800	-3.716364
0.385900	-3.793615
0.386000	-3.792317
0.386100	-3.782580
0.386200	-3.785501
0.386300	-3.822828
0.386400	-3.846523
0.386500	-3.835812
0.386600	-3.747200
0.386700	-3.578415
0.386800	-3.575170
0.386900	-3.685853
0.387000	-3.857883
0.387100	-3.929617
0.387200	-3.769596
0.387300	-3.575170
0.387400	-3.495646
0.387500	-3.622559
0.387600	-3.781930
0.387700	-3.862428
0.387800	-3.787448
0.387900	-3.648850
0.388000	-3.570625
0.388100	-3.595943
0.388200	-3.619638
0.388300	-3.641710
0.388400	-3.623208
0.388500	-3.588153
0.388600	-3.540114
0.388700	-3.509603
0.388800	-3.473574
0.388900	-3.342118
0.389000	-3.214556
0.389100	-3.161649
0.389200	-3.135682
0.389300	-3.108417
0.389400	-3.061352
0.389500	-2.867900
0.389600	-2.786105
0.389700	-2.531956
0.389800	-2.523517
0.389900	-2.475478
0.390000	-2.410886
0.390100	-2.290790
0.390200	-2.154465
0.390300	-1.995420
0.390400	-1.896097
0.390500	-1.852928
0.390600	-1.813978
0.390700	-1.783467
0.390800	-1.708488
0.390900	-1.763667
0.391000	-1.614359
0.391100	-1.630589
0.391200	-1.529968
0.391300	-1.540355
0.391400	-1.528020
0.391500	-1.520231
0.391600	-1.555610
0.391700	-1.417013
0.391800	-1.263161
0.391900	-0.956107
0.392000	-0.939228
0.392100	-1.227782
0.392200	-1.475763
0.392300	-1.496861
0.392400	-1.184612
0.392500	-1.003820
0.392600	-0.972336
0.392700	-1.115801
0.392800	-1.302760
0.392900	-1.404030
0.393000	-1.242063
0.393100	-1.111257
0.393200	-0.987591
0.393300	-1.079123
0.393400	-1.069386
0.393500	-1.140794
0.393600	-1.059648
0.393700	-1.083018
0.393800	-1.065815
0.393900	-1.043419
0.394000	-1.035954
0.394100	-1.017777
0.394200	-1.062894
0.394300	-1.123266
0.394400	-1.188832
0.394500	-1.217071
0.394600	-1.278092
0.394700	-1.187858
0.394800	-1.177147
0.394900	-1.204412
0.395000	-1.389748
0.395100	-1.599753
0.395200	-1.522827
0.395300	-1.400460
0.395400	-1.187858
0.395500	-1.317042
0.395600	-1.505300
0.395700	-1.702321
0.395800	-1.676679
0.395900	-1.588393
0.396000	-1.439409
0.396100	-1.492966
0.396200	-1.636106
0.396300	-1.763992
0.396400	-1.761720
0.396500	-1.807162
0.396600	-1.783467
0.396700	-1.870455
0.396800	-1.940890
0.396900	-1.975620
0.397000	-1.977243
0.397100	-2.009377
0.397200	-2.071047
0.397300	-2.134666
0.397400	-2.161931
0.397500	-2.126876
0.397600	-2.122656
0.397700	-2.129797
0.397800	-2.246647
0.397900	-2.337206
0.398000	-2.337530
0.398100	-2.326494
0.398200	-2.341425
0.398300	-2.304423
0.398400	-2.306695
0.398500	-2.325196
0.398600	-2.357654
0.398700	-2.388165
0.398800	-2.425817
0.398900	-2.415106
0.399000	-2.438151
0.399100	-2.462819
0.399200	-2.490084
0.399300	-2.512156
0.399400	-2.514753
0.399500	-2.524490
0.399600	-2.503392
0.399700	-2.531631
0.399800	-2.536500
0.399900	-2.622515
0.400000	-2.643288
0.400100	-2.780587
0.400200	-3.027920
0.400300	-3.177553
0.400400	-3.035385
0.400500	-2.753646
0.400600	-2.733198
0.400700	-2.759489
0.400800	-3.118803
0.400900	-3.221048
0.401000	-3.159701
0.401100	-2.978908
0.401200	-2.842258
0.401300	-2.920158
0.401400	-3.059080
0.401500	-3.204494
0.401600	-3.197353
0.401700	-3.183071
0.401800	-3.125944
0.401900	-3.178852
0.402000	-3.239549
0.402100	-3.308361
0.402200	-3.312580
0.402300	-3.329459
0.402400	-3.352504
0.402500	-3.399245
0.402600	-3.523561
0.402700	-3.523236
0.402800	-3.480391
0.402900	-3.509928
0.403000	-3.540764
0.403100	-3.584258
0.403200	-3.501164
0.403300	-3.375874
0.403400	-3.226566
0.403500	-3.331082
0.403600	-3.466109
0.403700	-3.615743
0.403800	-3.579065
0.403900	-3.325239
0.404000	-3.121400
0.404100	-3.130813
0.404200	-3.289535
0.404300	-3.467407
0.404400	-3.502463
0.404500	-3.364839
0.404600	-3.248962
0.404700	-3.212933
0.404800	-3.264542
0.404900	-3.297974
0.405000	-3.306738
0.405100	-3.321344
0.405200	-3.285640
0.405300	-3.264867
0.405400	-3.247339
0.405500	-3.174957
0.405600	-3.078880
0.405700	-2.985724
0.405800	-3.008120
0.405900	-3.010392
0.406000	-3.024674
0.406100	-2.950993
0.406200	-2.792596
0.406300	-2.757866
0.406400	-2.568634
0.406500	-2.619593
0.406600	-2.606935
0.406700	-2.552729
0.406800	-2.422246
0.406900	-2.328766
0.407000	-2.215811
0.407100	-2.211592
0.407200	-2.169721
0.407300	-2.228795
0.407400	-2.174265
0.407500	-2.167449
0.407600	-2.195687
0.407700	-2.130122
0.407800	-2.174589
0.407900	-2.093768
0.408000	-2.192766
0.408100	-2.126227
0.408200	-2.244050
0.408300	-2.188547
0.408400	-2.111620
0.408500	-1.959715
0.408600	-1.696154
0.408700	-1.822092
0.408800	-2.162255
0.408900	-2.377779
0.409000	-2.119735
0.409100	-1.992823
0.409200	-1.814627
0.409300	-1.852279
0.409400	-1.979515
0.409500	-2.179783
0.409600	-2.126876
0.409700	-2.011000
0.409800	-1.893176
0.409900	-1.835076
0.410000	-1.878894
0.410100	-1.949329
0.410200	-1.905835
0.410300	-1.835400
0.410400	-1.804240
0.410500	-1.778598
0.410600	-1.789634
0.410700	-1.815601
0.410800	-1.806188
0.410900	-1.837997
0.411000	-1.821768
0.411100	-1.795477
0.411200	-1.762694
0.411300	-1.778923
0.411400	-1.615009
0.411500	-1.622474
0.411600	-1.625395
0.411700	-1.890904
0.411800	-1.850656
0.411900	-1.769835
0.412000	-1.491343
0.412100	-1.415715
0.412200	-1.505949
0.412300	-1.756202
0.412400	-1.841892
0.412500	-1.757500
0.412600	-1.600402
0.412700	-1.476412
0.412800	-1.569242
0.412900	-1.706216
0.413000	-1.771133
0.413100	-1.762369
0.413200	-1.712708
0.413300	-1.695505
0.413400	-1.769185
0.413500	-1.807486
0.413600	-1.816250
0.413700	-1.790608
0.413800	-1.806188
0.413900	-1.838971
0.414000	-1.844164
0.414100	-1.850006
0.414200	-1.838971
0.414300	-1.803916
0.414400	-1.826312
0.414500	-1.961338
0.414600	-2.022685
0.414700	-2.003534
0.414800	-1.999639
0.414900	-1.929854
0.415000	-1.985682
0.415100	-1.999964
0.415200	-1.983085
0.415300	-1.988928
0.415400	-1.991200
0.415500	-1.999964
0.415600	-2.037940
0.415700	-2.007105
0.415800	-2.030150
0.415900	-2.047677
0.416000	-2.052871
0.416100	-2.062608
0.416200	-2.084031
0.416300	-2.129148
0.416400	-2.106752
0.416500	-2.210294
0.416600	-2.254437
0.416700	-2.325196
0.416800	-2.556624
0.416900	-2.826353
0.417000	-2.868224
0.417100	-2.681913
0.417200	-2.545913
0.417300	-2.529359
0.417400	-2.819537
0.417500	-3.135033
0.417600	-3.247664
0.417700	-3.145744
0.417800	-2.977934
0.417900	-2.923728
0.418000	-3.049018
0.418100	-3.299597
0.418200	-3.391130
0.418300	-3.414825
0.418400	-3.364839
0.418500	-3.302194
0.418600	-3.309659
0.418700	-3.361917
0.418800	-3.406710
0.418900	-3.410930
0.419000	-3.370681
0.419100	-3.385287
0.419200	-3.398920
0.419300	-3.414500
0.419400	-3.397297
0.419500	-3.383340
0.419600	-3.437546
0.419700	-3.429431
0.419800	-3.415474
0.419900	-3.316151
0.420000	-3.152885
0.420100	-3.117181
0.420200	-3.221048
0.420300	-3.409956
0.420400	-3.544009
0.420500	-3.416772
0.420600	-3.216503
0.420700	-3.059405
0.420800	-3.136656
0.420900	-3.294079
0.421000	-3.476820
0.421100	-3.485260
0.421200	-3.374901
0.421300	-3.283368
0.421400	-3.258050
0.421500	-3.273306
0.421600	-3.350881
0.421700	-3.371006
0.421800	-3.368734
0.421900	-3.347960
0.422000	-3.311607
0.422100	-3.276552
0.422200	-3.186966
0.422300	-3.088617
0.422400	-3.043825
0.422500	-3.057457
0.422600	-3.060703
0.422700	-3.056159
0.422800	-2.940607
0.422900	-2.860759
0.423000	-2.666333
0.423100	-2.673150
0.423200	-2.680615
0.423300	-2.700739
0.423400	-2.630305
0.423500	-2.588433
0.423600	-2.487488
0.423700	-2.441721
0.423800	-2.462819
0.423900	-2.484567
0.424000	-2.498524
0.424100	-2.567011
0.424200	-2.599469
0.424300	-2.623813
0.424400	-2.582915
0.424500	-2.616997
0.424600	-2.620892
0.424700	-2.711450
0.424800	-2.798439
0.424900	-2.809150
0.425000	-2.752348
0.425100	-2.656271
0.425200	-2.393359
0.425300	-2.265148
0.425400	-2.493655
0.425500	-2.837389
0.425600	-2.722811
0.425700	-2.578371
0.425800	-2.236260
0.425900	-2.112269
0.426000	-2.161282
0.426100	-2.308642
0.426200	-2.389464
0.426300	-2.311239
0.426400	-2.107401
0.426500	-1.980813
0.426600	-1.944460
0.426700	-1.923687
0.426800	-1.969128
0.426900	-1.921415
0.427000	-1.907782
0.427100	-1.876622
0.427200	-1.861042
0.427300	-1.865586
0.427400	-1.848384
0.427500	-1.875649
0.427600	-1.987954
0.427700	-2.022685
0.427800	-2.037291
0.427900	-2.038914
0.428000	-1.903238
0.428100	-1.874675
0.428200	-1.843515
0.428300	-2.025281
0.428400	-2.220031
0.428500	-2.151544
0.428600	-2.026904
0.428700	-1.813978
0.428800	-1.879219
0.428900	-2.021386
0.429000	-2.225224
0.429100	-2.274236
0.429200	-2.181081
0.429300	-2.032097
0.429400	-1.983410
0.429500	-2.098637
0.429600	-2.187897
0.429700	-2.165501
0.429800	-2.206074
0.429900	-2.163878
0.430000	-2.188547
0.430100	-2.228795
0.430200	-2.276184
0.430300	-2.259955
0.430400	-2.247621
0.430500	-2.301826
0.430600	-2.392060
0.430700	-2.440099
0.430800	-2.437826
0.430900	-2.444643
0.431000	-2.434581
0.431100	-2.542992
0.431200	-2.675746
0.431300	-2.704959
0.431400	-2.658219
0.431500	-2.647832
0.431600	-2.596223
0.431700	-2.594600
0.431800	-2.581292
0.431900	-2.528710
0.432000	-2.514104
0.432100	-2.495278
0.432200	-2.457626
0.432300	-2.457301
0.432400	-2.436853
0.432500	-2.426141
0.432600	-2.391736
0.432700	-2.368690
0.432800	-2.366743
0.432900	-2.359277
0.433000	-2.360576
0.433100	-2.402122
0.433200	-2.396929
0.433300	-2.432633
0.433400	-2.447564
0.433500	-2.710801
0.433600	-2.830573
0.433700	-2.785456
0.433800	-2.488786
0.433900	-2.376805
0.434000	-2.394008
0.434100	-2.661789
0.434200	-2.821160
0.434300	-2.853294
0.434400	-2.696520
0.434500	-2.574152
0.434600	-2.617321
0.434700	-2.786429
0.434800	-2.940607
0.434900	-3.025972
0.435000	-2.958134
0.435100	-2.971442
0.435200	-2.964951
0.435300	-3.047395
0.435400	-3.080827
0.435500	-3.077257
0.435600	-3.111663
0.435700	-3.106469
0.435800	-3.177229
0.435900	-3.216179
0.436000	-3.259349
0.436100	-3.262919
0.436200	-3.249936
0.436300	-3.354127
0.436400	-3.386586
0.436500	-3.430405
0.436600	-3.296676
0.436700	-3.190861
0.436800	-3.195730
0.436900	-3.366786
0.437000	-3.536544
0.437100	-3.620612
0.437200	-3.442414
0.437300	-3.262919
0.437400	-3.209363
0.437500	-3.332705
0.437600	-3.480715
0.437700	-3.569652
0.437800	-3.497269
0.437900	-3.344714
0.438000	-3.263568
0.438100	-3.283368
0.438200	-3.294079
0.438300	-3.298948
0.438400	-3.262919
0.438500	-3.236303
0.438600	-3.194756
0.438700	-3.178852
0.438800	-3.135357
0.438900	-3.011691
0.439000	-2.915614
0.439100	-2.911070
0.439200	-2.887700
0.439300	-2.877962
0.439400	-2.821160
0.439500	-2.629980
0.439600	-2.571230
0.439700	-2.283325
0.439800	-2.311239
0.439900	-2.273263
0.440000	-2.212566
0.440100	-2.084031
0.440200	-2.004183
0.440300	-1.870131
0.440400	-1.809758
0.440500	-1.776002
0.440600	-1.816574
0.440700	-1.795801
0.440800	-1.781195
0.440900	-1.832479
0.441000	-1.751982
0.441100	-1.819820
0.441200	-1.753930
0.441300	-1.784441
0.441400	-1.898045
0.441500	-1.775028
0.441600	-2.022035
0.441700	-1.833128
0.441800	-1.820469
0.441900	-1.388775
0.442000	-1.585796
0.442100	-1.807486
0.442200	-2.055143
0.442300	-2.004508
0.442400	-1.739324
0.442500	-1.639352
0.442600	-1.566970
0.442700	-1.720498
0.442800	-1.946083
0.442900	-1.958417
0.443000	-1.917520
0.443100	-1.699725
0.443200	-1.713682
0.443300	-1.654932
0.443400	-1.774054
0.443500	-1.734130
0.443600	-1.725367
0.443700	-1.679925
0.443800	-1.683820
0.443900	-1.630264
0.444000	-1.567944
0.444100	-1.534837
0.444200	-1.579954
0.444300	-1.563400
0.444400	-1.476087
0.444500	-1.504001
0.444600	-1.462455
0.444700	-1.325806
0.444800	-1.289128
0.444900	-1.286856
0.445000	-1.432269
0.445100	-1.604297
0.445200	-1.519257
0.445300	-1.358913
0.445400	-1.158321
0.445500	-1.287180
0.445600	-1.510168
0.445700	-1.705567
0.445800	-1.683820
0.445900	-1.600402
0.446000	-1.476736
0.446100	-1.541653
0.446200	-1.725367
0.446300	-1.855200
0.446400	-1.843515
0.446500	-1.850980
0.446600	-1.797749
0.446700	-1.870131
0.446800	-1.938293
0.446900	-1.957768
0.447000	-1.915572
0.447100	-1.896746
0.447200	-1.935047
0.447300	-2.009701
0.447400	-2.031448
0.447500	-2.034370
0.447600	-2.038265
0.447700	-2.087601
0.447800	-2.244050
0.447900	-2.348891
0.448000	-2.370313
0.448100	-2.390437
0.448200	-2.352461
0.448300	-2.420299
0.448400	-2.480347
0.448500	-2.471259
0.448600	-2.506314
0.448700	-2.527412
0.448800	-2.566362
0.448900	-2.571879
0.449000	-2.556949
0.449100	-2.596872
0.449200	-2.584538
0.449300	-2.629331
0.449400	-2.622839
0.449500	-2.661140
0.449600	-2.651402
0.449700	-2.699441
0.449800	-2.749751
0.449900	-2.811422
0.450000	-2.872444
0.450100	-3.050316
0.450200	-3.302518
0.450300	-3.388533
0.450400	-3.195405
0.450500	-2.982478
0.450600	-2.924702
0.450700	-3.156455
0.450800	-3.402490
0.450900	-3.586205
0.451000	-3.505708
0.451100	-3.318748
0.451200	-3.228838
0.451300	-3.281745
0.451400	-3.426834
0.451500	-3.531026
0.451600	-3.532324
0.451700	-3.573871
0.451800	-3.485909
0.451900	-3.477145
0.452000	-3.525833
0.452100	-3.547904
0.452200	-3.543036
0.452300	-3.485909
0.452400	-3.488505
0.452500	-3.498568
0.452600	-3.529079
0.452700	-3.480391
0.452800	-3.484935
0.452900	-3.467407
0.453000	-3.477470
0.453100	-3.505708
0.453200	-3.486558
0.453300	-3.332380
0.453400	-3.285640
0.453500	-3.406710
0.453600	-3.633920
0.453700	-3.816012
0.453800	-3.845874
0.453900	-3.651772
0.454000	-3.478443
0.454100	-3.553098
0.454200	-3.749796
0.454300	-3.913712
0.454400	-3.913388
0.454500	-3.817635
0.454600	-3.681634
0.454700	-3.633270
0.454800	-3.648201
0.454900	-3.677089
0.455000	-3.678063
0.455100	-3.605031
0.455200	-3.560888
0.455300	-3.492400
0.455400	-3.446959
0.455500	-3.362242
0.455600	-3.225592
0.455700	-3.118803
0.455800	-3.089915
0.455900	-3.056808
0.456000	-3.072713
0.456100	-2.950020
0.456200	-2.803308
0.456300	-2.672176
0.456400	-2.561817
0.456500	-2.608557
0.456600	-2.611479
0.456700	-2.546887
0.456800	-2.460223
0.456900	-2.386867
0.457000	-2.304098
0.457100	-2.293711
0.457200	-2.333960
0.457300	-2.320327
0.457400	-2.335907
0.457500	-2.336232
0.457600	-2.346619
0.457700	-2.320652
0.457800	-2.319678
0.457900	-2.307019
0.458000	-2.281053
0.458100	-2.322599
0.458200	-2.322599
0.458300	-2.320976
0.458400	-2.176862
0.458500	-1.941539
0.458600	-1.781195
0.458700	-1.949004
0.458800	-2.273263
0.458900	-2.365444
0.459000	-2.151219
0.459100	-1.906484
0.459200	-1.698102
0.459300	-1.815601
0.459400	-1.910703
0.459500	-2.067477
0.459600	-1.995095
0.459700	-1.829882
0.459800	-1.687391
0.459900	-1.577682
0.460000	-1.610140
0.460100	-1.686417
0.460200	-1.701997
0.460300	-1.678302
0.460400	-1.627992
0.460500	-1.592288
0.460600	-1.584498
0.460700	-1.597157
0.460800	-1.559180
0.460900	-1.624097
0.461000	-1.668565
0.461100	-1.635457
0.461200	-1.695830
0.461300	-1.573787
0.461400	-1.560479
0.461500	-1.484526
0.461600	-1.626369
0.461700	-1.817873
0.461800	-1.869157
0.461900	-1.764317
0.462000	-1.540679
0.462100	-1.452393
0.462200	-1.549118
0.462300	-1.822742
0.462400	-1.880193
0.462500	-1.733481
0.462600	-1.519906
0.462700	-1.430321
0.462800	-1.513090
0.462900	-1.590016
0.463000	-1.587095
0.463100	-1.543276
0.463200	-1.448173
0.463300	-1.408574
0.463400	-1.439409
0.463500	-1.464078
0.463600	-1.408250
0.463700	-1.339438
0.463800	-1.326130
0.463900	-1.366054
0.464000	-1.357615
0.464100	-1.327753
0.464200	-1.303409
0.464300	-1.275820
0.464400	-1.288803
0.464500	-1.439085
0.464600	-1.451094
0.464700	-1.429347
0.464800	-1.429672
0.464900	-1.329376
0.465000	-1.388125
0.465100	-1.375467
0.465200	-1.367028
0.465300	-1.398188
0.465400	-1.373519
0.465500	-1.387476
0.465600	-1.390722
0.465700	-1.393643
0.465800	-1.429672
0.465900	-1.413443
0.466000	-1.449147
0.466100	-1.472841
0.466200	-1.492641
0.466300	-1.552040
0.466400	-1.549118
0.466500	-1.604297
0.466600	-1.627667
0.466700	-1.711085
0.466800	-1.936670
0.466900	-2.182379
0.467000	-2.211916
0.467100	-1.968155
0.467200	-1.865262
0.467300	-1.895773
0.467400	-2.198284
0.467500	-2.505340
0.467600	-2.604662
0.467700	-2.538447
0.467800	-2.404070
0.467900	-2.446590
0.468000	-2.563116
0.468100	-2.844854
0.468200	-2.953915
0.468300	-3.021753
0.468400	-2.978583
0.468500	-2.997409
0.468600	-3.087319
0.468700	-3.175930
0.468800	-3.253506
0.468900	-3.299272
0.469000	-3.260322
0.469100	-3.345039
0.469200	-3.418720
0.469300	-3.490453
0.469400	-3.457345
0.469500	-3.483961
0.469600	-3.487207
0.469700	-3.533947
0.469800	-3.532974
0.469900	-3.495322
0.470000	-3.351206
0.470100	-3.264542
0.470200	-3.403140
0.470300	-3.560563
0.470400	-3.631972
0.470500	-3.483637
0.470600	-3.208064
0.470700	-3.061027
0.470800	-3.120751
0.470900	-3.266165
0.471000	-3.362891
0.471100	-3.302518
0.471200	-3.141524
0.471300	-3.036034
0.471400	-3.004225
0.471500	-3.060054
0.471600	-3.082775
0.471700	-3.060703
0.471800	-3.015261
0.471900	-2.979232
0.472000	-2.966249
0.472100	-2.931518
0.472200	-2.859136
0.472300	-2.770849
0.472400	-2.735794
0.472500	-2.772797
0.472600	-2.767928
0.472700	-2.760138
0.472800	-2.598171
0.472900	-2.527412
0.473000	-2.321626
0.473100	-2.360576
0.473200	-2.400175
0.473300	-2.395631
0.473400	-2.331039
0.473500	-2.266771
0.473600	-2.135315
0.473700	-2.085654
0.473800	-2.098312
0.473900	-2.114217
0.474000	-2.147974
0.474100	-2.135964
0.474200	-2.196012
0.474300	-2.201530
0.474400	-2.180432
0.474500	-2.233014
0.474600	-2.234313
0.474700	-2.278131
0.474800	-2.299229
0.474900	-2.373884
0.475000	-2.364146
0.475100	-2.254761
0.475200	-2.013596
0.475300	-1.979190
0.475400	-2.195687
0.475500	-2.537474
0.475600	-2.418676
0.475700	-2.344996
0.475800	-2.082408
0.475900	-2.119735
0.476000	-2.144079
0.476100	-2.342399
0.476200	-2.414456
0.476300	-2.313511
0.476400	-2.212566
0.476500	-2.054169
0.476600	-2.115840
0.476700	-2.165826
0.476800	-2.208995
0.476900	-2.264174
0.477000	-2.247945
0.477100	-2.244375
0.477200	-2.230418
0.477300	-2.265797
0.477400	-2.246322
0.477500	-2.293062
0.477600	-2.386867
0.477700	-2.393034
0.477800	-2.377779
0.477900	-2.389788
0.478000	-2.332337
0.478100	-2.308318
0.478200	-2.300528
0.478300	-2.548834
0.478400	-2.698792
0.478500	-2.620242
0.478600	-2.480672
0.478700	-2.220031
0.478800	-2.313186
0.478900	-2.467688
0.479000	-2.663737
0.479100	-2.642314
0.479200	-2.485865
0.479300	-2.256709
0.479400	-2.195687
0.479500	-2.260604
0.479600	-2.326819
0.479700	-2.241778
0.479800	-2.222628
0.479900	-2.149272
0.480000	-2.164852
0.480100	-2.136289
0.480200	-2.131420
0.480300	-2.093119
0.480400	-2.061310
0.480500	-2.056441
0.480600	-2.102857
0.480700	-2.096365
0.480800	-2.060336
0.480900	-2.018140
0.481000	-2.005806
0.481100	-2.130122
0.481200	-2.208022
0.481300	-2.198284
0.481400	-2.176862
0.481500	-2.114866
0.481600	-2.117463
0.481700	-2.108374
0.481800	-2.085978
0.481900	-2.072021
0.482000	-2.083706
0.482100	-2.074942
0.482200	-2.049300
0.482300	-2.050274
0.482400	-2.071372
0.482500	-2.071697
0.482600	-2.074293
0.482700	-2.040537
0.482800	-2.077215
0.482900	-2.054494
0.483000	-2.098962
0.483100	-2.099286
0.483200	-2.174589
0.483300	-2.235286
0.483400	-2.353759
0.483500	-2.628032
0.483600	-2.773446
0.483700	-2.671527
0.483800	-2.443994
0.483900	-2.315783
0.484000	-2.493655
0.484100	-2.784806
0.484200	-2.988970
0.484300	-2.987022
0.484400	-2.831222
0.484500	-2.704959
0.484600	-2.746506
0.484700	-2.908148
0.484800	-3.075634
0.484900	-3.150937
0.485000	-3.199625
0.485100	-3.142823
0.485200	-3.140226
0.485300	-3.168140
0.485400	-3.205143
0.485500	-3.190212
0.485600	-3.193782
0.485700	-3.195730
0.485800	-3.236303
0.485900	-3.254155
0.486000	-3.246041
0.486100	-3.182422
0.486200	-3.168789
0.486300	-3.191835
0.486400	-3.217153
0.486500	-3.174957
0.486600	-3.052264
0.486700	-2.897762
0.486800	-2.994812
0.486900	-3.147042
0.487000	-3.315826
0.487100	-3.353154
0.487200	-3.169114
0.487300	-3.000655
0.487400	-2.966573
0.487500	-3.134384
0.487600	-3.299597
0.487700	-3.403464
0.487800	-3.367111
0.487900	-3.259024
0.488000	-3.198976
0.488100	-3.213582
0.488200	-3.256752
0.488300	-3.282719
0.488400	-3.278499
0.488500	-3.269735
0.488600	-3.212284
0.488700	-3.186642
0.488800	-3.149964
0.488900	-3.013314
0.489000	-2.927299
0.489100	-2.906525
0.489200	-2.889972
0.489300	-2.907499
0.489400	-2.813045
0.489500	-2.666658
0.489600	-2.578047
0.489700	-2.369015
0.489800	-2.417378
0.489900	-2.370962
0.490000	-2.321301
0.490100	-2.214189
0.490200	-2.119086
0.490300	-1.996718
0.490400	-1.943811
0.490500	-1.887009
0.490600	-1.888632
0.490700	-1.862341
0.490800	-1.853577
0.490900	-1.868508
0.491000	-1.759123
0.491100	-1.813653
0.491200	-1.693558
0.491300	-1.801644
0.491400	-1.730885
0.491500	-1.832804
0.491600	-1.741271
0.491700	-1.649090
0.491800	-1.482579
0.491900	-1.141118
0.492000	-1.324507
0.492100	-1.566646
0.492200	-1.694531
0.492300	-1.624746
0.492400	-1.221615
0.492500	-1.207982
0.492600	-1.056078
0.492700	-1.285882
0.492800	-1.340087
0.492900	-1.392994
0.493000	-1.224861
0.493100	-1.024593
0.493200	-1.042445
0.493300	-1.011935
0.493400	-1.099572
0.493500	-1.095352
0.493600	-1.078799
0.493700	-1.071982
0.493800	-1.098923
0.493900	-1.121319
0.494000	-1.128784
0.494100	-1.135600
0.494200	-1.091782
0.494300	-1.302111
0.494400	-1.259915
0.494500	-1.327429
0.494600	-1.330025
0.494700	-1.165462
0.494800	-1.190779
0.494900	-1.165137
0.495000	-1.512441
0.495100	-1.516011
0.495200	-1.429997
0.495300	-1.250827
0.495400	-1.139495
0.495500	-1.274522
0.495600	-1.503028
0.495700	-1.662398
0.495800	-1.620851
0.495900	-1.470569
0.496000	-1.350474
0.496100	-1.427725
0.496200	-1.556908
0.496300	-1.675056
0.496400	-1.607543
0.496500	-1.663371
0.496600	-1.634484
0.496700	-1.729911
0.496800	-1.797749
0.496900	-1.826312
0.497000	-1.806512
0.497100	-1.816899
0.497200	-1.882140
0.497300	-1.945758
0.497400	-1.960365
0.497500	-1.969453
0.497600	-1.955171
0.497700	-1.973023
0.497800	-2.156088
0.497900	-2.206399
0.498000	-2.187248
0.498100	-2.161606
0.498200	-2.044432
0.498300	-2.122981
0.498400	-2.091496
0.498500	-2.086303
0.498600	-2.069425
0.498700	-2.063257
0.498800	-2.074618
0.498900	-2.077539
0.499000	-2.072346
0.499100	-2.066179
0.499200	-2.059362
0.499300	-2.055143
0.499400	-2.054494
0.499500	-2.039563
0.499600	-2.061635
0.499700	-2.076241
0.499800	-2.087926
0.499900	-2.145052
0.500000	-2.169396
0.500100	-2.325521
0.500200	-2.584214
0.500300	-2.690353
0.500400	-2.492032
0.500500	-2.331363
0.500600	-2.283974
0.500700	-2.458275
0.500800	-2.835442
0.500900	-2.955213
0.501000	-2.911070
0.501100	-2.752673
0.501200	-2.695870
0.501300	-2.799413
0.501400	-2.983452
0.501500	-3.119128
0.501600	-3.168140
0.501700	-3.097056
0.501800	-3.116856
0.501900	-3.117830
0.502000	-3.233706
0.502100	-3.274604
0.502200	-3.284666
0.502300	-3.285965
0.502400	-3.299272
0.502500	-3.374901
0.502600	-3.379120
0.502700	-3.393077
0.502800	-3.399569
0.502900	-3.395350
0.503000	-3.437546
0.503100	-3.468706
0.503200	-3.426834
0.503300	-3.226890
0.503400	-3.172684
0.503500	-3.257726
0.503600	-3.457994
0.503700	-3.596592
0.503800	-3.517069
0.503900	-3.287587
0.504000	-3.140551
0.504100	-3.137629
0.504200	-3.309010
0.504300	-3.475522
0.504400	-3.457670
0.504500	-3.322643
0.504600	-3.170088
0.504700	-3.128866
0.504800	-3.138603
0.504900	-3.201573
0.505000	-3.194756
0.505100	-3.119128
0.505200	-3.061352
0.505300	-3.004874
0.505400	-2.984101
0.505500	-2.909122
0.505600	-2.791623
0.505700	-2.711126
0.505800	-2.708529
0.505900	-2.681913
0.506000	-2.686458
0.506100	-2.548509
0.506200	-2.407316
0.506300	-2.200232
0.506400	-2.178160
0.506500	-2.252489
0.506600	-2.227821
0.506700	-2.173940
0.506800	-2.109997
0.506900	-2.013272
0.507000	-1.984059
0.507100	-2.003859
0.507200	-2.016842
0.507300	-2.067802
0.507400	-2.045405
0.507500	-2.166475
0.507600	-2.109024
0.507700	-2.120384
0.507800	-2.138885
0.507900	-2.159659
0.508000	-2.193091
0.508100	-2.215162
0.508200	-2.298905
0.508300	-2.225874
0.508400	-2.162904
0.508500	-1.834102
0.508600	-1.737701
0.508700	-1.823715
0.508800	-2.200556
0.508900	-2.300203
0.509000	-2.147649
0.509100	-1.953873
0.509200	-1.824040
0.509300	-1.829233
0.509400	-2.014895
0.509500	-2.092794
0.509600	-2.081434
0.509700	-1.860069
0.509800	-1.828259
0.509900	-1.735753
0.510000	-1.866560
0.510100	-1.876947
0.510200	-1.832154
0.510300	-1.851629
0.510400	-1.816250
0.510500	-1.821119
0.510600	-1.820145
0.510700	-1.848059
0.510800	-1.917520
0.510900	-1.880842
0.511000	-2.023983
0.511100	-1.978541
0.511200	-2.101234
0.511300	-2.008403
0.511400	-2.083382
0.511500	-2.024632
0.511600	-2.140833
0.511700	-2.379401
0.511800	-2.357979
0.511900	-2.286571
0.512000	-2.092470
0.512100	-2.058713
0.512200	-2.264174
0.512300	-2.473206
0.512400	-2.560519
0.512500	-2.514428
0.512600	-2.343048
0.512700	-2.283974
0.512800	-2.394981
0.512900	-2.523841
0.513000	-2.581617
0.513100	-2.547536
0.513200	-2.530657
0.513300	-2.539746
0.513400	-2.618620
0.513500	-2.688730
0.513600	-2.689703
0.513700	-2.650104
0.513800	-2.664386
0.513900	-2.723460
0.514000	-2.773121
0.514100	-2.757866
0.514200	-2.733847
0.514300	-2.722162
0.514400	-2.787079
0.514500	-2.935089
0.514600	-2.935089
0.514700	-2.903929
0.514800	-2.870497
0.514900	-2.784806
0.515000	-2.829924
0.515100	-2.783184
0.515200	-2.741637
0.515300	-2.722162
0.515400	-2.681913
0.515500	-2.666658
0.515600	-2.646534
0.515700	-2.602390
0.515800	-2.599794
0.515900	-2.562142
0.516000	-2.568634
0.516100	-2.516700
0.516200	-2.501769
0.516300	-2.485540
0.516400	-2.485540
0.516500	-2.505015
0.516600	-2.548834
0.516700	-2.533903
0.516800	-2.762086
0.516900	-2.962029
0.517000	-2.961705
0.517100	-2.714372
0.517200	-2.580643
0.517300	-2.637445
0.517400	-2.902630
0.517500	-3.196704
0.517600	-3.232733
0.517700	-3.122374
0.517800	-2.971118
0.517900	-3.003576
0.518000	-3.169763
0.518100	-3.332380
0.518200	-3.439818
0.518300	-3.432352
0.518400	-3.423913
0.518500	-3.420343
0.518600	-3.460591
0.518700	-3.502787
0.518800	-3.531026
0.518900	-3.545632
0.519000	-3.558291
0.519100	-3.608277
0.519200	-3.646578
0.519300	-3.676440
0.519400	-3.599189
0.519500	-3.592048
0.519600	-3.633920
0.519700	-3.651772
0.519800	-3.696564
0.519900	-3.602435
0.520000	-3.448906
0.520100	-3.391779
0.520200	-3.514472
0.520300	-3.682932
0.520400	-3.774465
0.520500	-3.635867
0.520600	-3.446959
0.520700	-3.393402
0.520800	-3.507981
0.520900	-3.667676
0.521000	-3.775763
0.521100	-3.747200
0.521200	-3.610225
0.521300	-3.523885
0.521400	-3.524534
0.521500	-3.569327
0.521600	-3.576143
0.521700	-3.514472
0.521800	-3.453450
0.521900	-3.381068
0.522000	-3.319721
0.522100	-3.211310
0.522200	-3.066221
0.522300	-2.905227
0.522400	-2.819212
0.522500	-2.782859
0.522600	-2.736119
0.522700	-2.653350
0.522800	-2.455354
0.522900	-2.349540
0.523000	-2.104155
0.523100	-2.079487
0.523200	-2.010026
0.523300	-1.968479
0.523400	-1.815276
0.523500	-1.695830
0.523600	-1.537433
0.523700	-1.446550
0.523800	-1.390722
0.523900	-1.378713
0.524000	-1.324183
0.524100	-1.317367
0.524200	-1.302111
0.524300	-1.281338
0.524400	-1.216421
0.524500	-1.222264
0.524600	-1.197596
0.524700	-1.243037
0.524800	-1.209281
0.524900	-1.307954
0.525000	-1.210254
0.525100	-1.058350
0.525200	-0.730522
0.525300	-0.768823
0.525400	-0.917157
0.525500	-1.265758
0.525600	-1.180717
0.525700	-1.074904
0.525800	-0.787648
0.525900	-0.749672
0.526000	-0.849968
0.526100	-0.963896
0.526200	-1.051534
0.526300	-0.925596
0.526400	-0.797386
0.526500	-0.725329
0.526600	-0.826274
0.526700	-0.823677
0.526800	-0.831142
0.526900	-0.882751
0.527000	-0.854188
0.527100	-0.879181
0.527200	-0.885997
0.527300	-0.975581
0.527400	-0.968116
0.527500	-1.105414
0.527600	-1.175199
0.527700	-1.244011
0.527800	-1.369300
0.527900	-1.394617
0.528000	-1.431619
0.528100	-1.384230
0.528200	-1.507247
0.528300	-1.622474
0.528400	-1.918493
0.528500	-1.872078
0.528600	-1.771782
0.528700	-1.558856
0.528800	-1.632536
0.528900	-1.843839
0.529000	-2.040861
0.529100	-2.008403
0.529200	-1.866236
0.529300	-1.710760
0.529400	-1.714980
0.529500	-1.828584
0.529600	-1.916871
0.529700	-1.882465
0.529800	-1.862016
0.529900	-1.837672
0.530000	-1.912651
0.530100	-1.949978
0.530200	-1.986980
0.530300	-1.965558
0.530400	-1.936670
0.530500	-1.967830
0.530600	-2.019763
0.530700	-2.022360
0.530800	-1.980813
0.530900	-1.948030
0.531000	-1.927257
0.531100	-2.040537
0.531200	-2.112919
0.531300	-2.071047
0.531400	-2.035019
0.531500	-1.906159
0.531600	-1.952899
0.531700	-1.936670
0.531800	-1.928880
0.531900	-1.933749
0.532000	-1.946732
0.532100	-1.940565
0.532200	-1.933424
0.532300	-1.923038
0.532400	-1.964584
0.532500	-2.016842
0.532600	-2.047028
0.532700	-2.057090
0.532800	-2.090198
0.532900	-2.147974
0.533000	-2.171668
0.533100	-2.224575
0.533200	-2.320976
0.533300	-2.363497
0.533400	-2.520920
0.533500	-2.786429
0.533600	-2.967547
0.533700	-2.823107
0.533800	-2.619918
0.533900	-2.556299
0.534000	-2.672500
0.534100	-2.996760
0.534200	-3.179176
0.534300	-3.161649
0.534400	-2.986373
0.534500	-2.913991
0.534600	-2.965924
0.534700	-3.087319
0.534800	-3.269411
0.534900	-3.274604
0.535000	-3.239549
0.535100	-3.202546
0.535200	-3.216503
0.535300	-3.253506
0.535400	-3.294728
0.535500	-3.295702
0.535600	-3.271034
0.535700	-3.265191
0.535800	-3.321344
0.535900	-3.382042
0.536000	-3.354776
0.536100	-3.349583
0.536200	-3.303492
0.536300	-3.287587
0.536400	-3.358671
0.536500	-3.328161
0.536600	-3.187615
0.536700	-3.028894
0.536800	-3.099978
0.536900	-3.190537
0.537000	-3.333029
0.537100	-3.299922
0.537200	-3.074335
0.537300	-2.883155
0.537400	-2.856864
0.537500	-2.976960
0.537600	-3.119453
0.537700	-3.123997
0.537800	-3.000655
0.537900	-2.877313
0.538000	-2.799413
0.538100	-2.786105
0.538200	-2.815642
0.538300	-2.788052
0.538400	-2.728329
0.538500	-2.676071
0.538600	-2.596223
0.538700	-2.554677
0.538800	-2.463469
0.538900	-2.341425
0.539000	-2.229769
0.539100	-2.159334
0.539200	-2.102532
0.539300	-2.079162
0.539400	-1.973673
0.539500	-1.788985
0.539600	-1.619877
0.539700	-1.479333
0.539800	-1.511142
0.539900	-1.472517
0.540000	-1.423830
0.540100	-1.306655
0.540200	-1.178445
0.540300	-1.101195
0.540400	-1.048612
0.540500	-1.016803
0.540600	-1.052507
0.540700	-0.963896
0.540800	-1.018102
0.540900	-0.939877
0.541000	-0.942149
0.541100	-0.902550
0.541200	-0.866522
0.541300	-0.872040
0.541400	-0.832116
0.541500	-0.846722
0.541600	-0.856784
0.541700	-0.711047
0.541800	-0.527009
0.541900	-0.285520
0.542000	-0.503964
0.542100	-0.690923
0.542200	-0.940851
0.542300	-0.788622
0.542400	-0.715591
0.542500	-0.593548
0.542600	-0.697090
0.542700	-0.933386
0.542800	-1.139820
0.542900	-1.186560
0.543000	-1.139495
0.543100	-1.032383
0.543200	-1.089834
0.543300	-1.187858
0.543400	-1.379037
0.543500	-1.419285
0.543600	-1.506923
0.543700	-1.504975
0.543800	-1.571839
0.543900	-1.663696
0.544000	-1.757176
0.544100	-1.856174
0.544200	-1.957443
0.544300	-2.182704
0.544400	-2.161282
0.544500	-2.389464
0.544600	-2.337206
0.544700	-2.409912
0.544800	-2.405044
0.544900	-2.490734
0.545000	-2.879585
0.545100	-2.919184
0.545200	-2.893867
0.545300	-2.725408
0.545400	-2.718591
0.545500	-2.864979
0.545600	-3.163272
0.545700	-3.255778
0.545800	-3.218451
0.545900	-3.065247
0.546000	-3.011691
0.546100	-3.123348
0.546200	-3.233382
0.546300	-3.278499
0.546400	-3.204494
0.546500	-3.209038
0.546600	-3.146718
0.546700	-3.216503
0.546800	-3.217153
0.546900	-3.195730
0.547000	-3.114584
0.547100	-3.059729
0.547200	-3.105496
0.547300	-3.093810
0.547400	-3.041877
0.547500	-2.952616
0.547600	-2.885752
0.547700	-2.876339
0.547800	-2.989294
0.547900	-2.994488
0.548000	-2.937361
0.548100	-2.839986
0.548200	-2.692949
0.548300	-2.731250
0.548400	-2.689379
0.548500	-2.653350
0.548600	-2.638095
0.548700	-2.594276
0.548800	-2.545264
0.548900	-2.520595
0.549000	-2.480672
0.549100	-2.448862
0.549200	-2.385244
0.549300	-2.359277
0.549400	-2.299879
0.549500	-2.304747
0.549600	-2.231067
0.549700	-2.255086
0.549800	-2.219382
0.549900	-2.227172
0.550000	-2.252489
0.550100	-2.361874
0.550200	-2.571555
0.550300	-2.512156
0.550400	-2.328442
0.550500	-2.090522
0.550600	-2.073320
0.550700	-2.280079
0.550800	-2.513130
0.550900	-2.577073
0.551000	-2.420624
0.551100	-2.191792
0.551200	-2.115515
0.551300	-2.201854
0.551400	-2.330065
0.551500	-2.417702
0.551600	-2.343373
0.551700	-2.237234
0.551800	-2.180757
0.551900	-2.172317
0.552000	-2.195038
0.552100	-2.191143
0.552200	-2.163229
0.552300	-2.110322
0.552400	-2.092145
0.552500	-2.144079
0.552600	-2.137262
0.552700	-2.084031
0.552800	-2.108050
0.552900	-2.152518
0.553000	-2.239831
0.553100	-2.218408
0.553200	-2.218408
0.553300	-2.068775
0.553400	-2.033396
0.553500	-2.177835
0.553600	-2.435554
0.553700	-2.609207
0.553800	-2.565712
0.553900	-2.395631
0.554000	-2.329740
0.554100	-2.456328
0.554200	-2.701064
0.554300	-2.909771
0.554400	-2.967872
0.554500	-2.883805
0.554600	-2.824406
0.554700	-2.873418
0.554800	-2.937685
0.554900	-3.026622
0.555000	-3.047070
0.555100	-3.044474
0.555200	-3.048044
0.555300	-3.049992
0.555400	-3.035385
0.555500	-3.004550
0.555600	-2.882506
0.555700	-2.847127
0.555800	-2.869523
0.555900	-2.874392
0.556000	-2.900683
0.556100	-2.751374
0.556200	-2.680940
0.556300	-2.466714
0.556400	-2.449511
0.556500	-2.465416
0.556600	-2.461521
0.556700	-2.368041
0.556800	-2.259955
0.556900	-2.176537
0.557000	-2.129797
0.557100	-2.071372
0.557200	-2.065854
0.557300	-2.073644
0.557400	-1.999964
0.557500	-2.060012
0.557600	-1.958742
0.557700	-1.921739
0.557800	-1.863639
0.557900	-1.806512
0.558000	-1.786064
0.558100	-1.752956
0.558200	-1.789959
0.558300	-1.694856
0.558400	-1.528670
0.558500	-1.170980
0.558600	-1.020698
0.558700	-1.153452
0.558800	-1.349176
0.558900	-1.379037
0.559000	-1.164813
0.559100	-0.893462
0.559200	-0.607505
0.559300	-0.614971
0.559400	-0.726627
0.559500	-0.763305
0.559600	-0.612050
0.559700	-0.473453
0.559800	-0.266045
0.559900	-0.251439
0.560000	-0.207621
0.560100	-0.236833
0.560200	-0.155363
0.560300	-0.147573
0.560400	-0.081034
0.560500	-0.063831
0.560600	-0.079411
0.560700	-0.060910
0.560800	-0.074218
0.560900	-0.055716
0.561000	-0.165750
0.561100	-0.200155
0.561200	-0.307267
0.561300	-0.251439
0.561400	-0.262150
0.561500	-0.281950
0.561600	-0.452355
0.561700	-0.764603
0.561800	-0.844126
0.561900	-0.819457
0.562000	-0.701310
0.562100	-0.790245
0.562200	-1.032383
0.562300	-1.329376
0.562400	-1.452717
0.562500	-1.438111
0.562600	-1.328402
0.562700	-1.348202
0.562800	-1.553663
0.562900	-1.749061
0.563000	-1.861691
0.563100	-1.876298
0.563200	-1.941214
0.563300	-1.994770
0.563400	-2.116814
0.563500	-2.221329
0.563600	-2.304098
0.563700	-2.319029
0.563800	-2.366094
0.563900	-2.478724
0.564000	-2.549483
0.564100	-2.570257
0.564200	-2.570581
0.564300	-2.569932
0.564400	-2.671202
0.564500	-2.827651
0.564600	-2.840959
0.564700	-2.843232
0.564800	-2.720863
0.564900	-2.739040
0.565000	-2.763708
0.565100	-2.753646
0.565200	-2.743909
0.565300	-2.719890
0.565400	-2.686458
0.565500	-2.655947
0.565600	-2.656271
0.565700	-2.633875
0.565800	-2.610505
0.565900	-2.591679
0.566000	-2.579020
0.566100	-2.567984
0.566200	-2.538447
0.566300	-2.518648
0.566400	-2.505989
0.566500	-2.539746
0.566600	-2.573502
0.566700	-2.619269
0.566800	-2.829274
0.566900	-2.963977
0.567000	-2.904253
0.567100	-2.645885
0.567200	-2.476127
0.567300	-2.519946
0.567400	-2.781885
0.567500	-2.984750
0.567600	-2.946774
0.567700	-2.770525
0.567800	-2.555650
0.567900	-2.499173
0.568000	-2.645560
0.568100	-2.770849
0.568200	-2.831871
0.568300	-2.742611
0.568400	-2.690677
0.568500	-2.626085
0.568600	-2.648806
0.568700	-2.729952
0.568800	-2.729303
0.568900	-2.730276
0.569000	-2.721513
0.569100	-2.754296
0.569200	-2.748453
0.569300	-2.757866
0.569400	-2.759489
0.569500	-2.775718
0.569600	-2.834468
0.569700	-2.862707
0.569800	-2.852644
0.569900	-2.708854
0.570000	-2.602715
0.570100	-2.631278
0.570200	-2.784806
0.570300	-2.955538
0.570400	-3.015261
0.570500	-2.860759
0.570600	-2.666333
0.570700	-2.592328
0.570800	-2.716319
0.570900	-2.876664
0.571000	-2.977285
0.571100	-2.927299
0.571200	-2.802983
0.571300	-2.706582
0.571400	-2.675746
0.571500	-2.714372
0.571600	-2.724434
0.571700	-2.717293
0.571800	-2.693923
0.571900	-2.646534
0.572000	-2.624787
0.572100	-2.509884
0.572200	-2.402771
0.572300	-2.322275
0.572400	-2.331039
0.572500	-2.370313
0.572600	-2.399526
0.572700	-2.384919
0.572800	-2.241129
0.572900	-2.224900
0.573000	-2.158360
0.573100	-2.145702
0.573200	-2.193091
0.573300	-2.197635
0.573400	-2.168422
0.573500	-2.147974
0.573600	-2.070074
0.573700	-2.057090
0.573800	-2.067802
0.573900	-2.121682
0.574000	-2.151544
0.574100	-2.152518
0.574200	-2.171668
0.574300	-2.151219
0.574400	-2.101558
0.574500	-2.192442
0.574600	-2.154465
0.574700	-2.237883
0.574800	-2.196337
0.574900	-2.288843
0.575000	-2.124928
0.575100	-2.046055
0.575200	-1.691935
0.575300	-1.783142
0.575400	-1.964584
0.575500	-2.284299
0.575600	-2.083706
0.575700	-1.849357
0.575800	-1.720173
0.575900	-1.638703
0.576000	-1.818847
0.576100	-1.985358
0.576200	-2.017167
0.576300	-1.916871
0.576400	-1.730885
0.576500	-1.773080
0.576600	-1.771133
0.576700	-1.900966
0.576800	-1.878245
0.576900	-1.991525
0.577000	-1.993472
0.577100	-1.981463
0.577200	-2.015868
0.577300	-2.042809
0.577400	-2.072346
0.577500	-2.146026
0.577600	-2.254437
0.577700	-2.281053
0.577800	-2.336232
0.577900	-2.238208
0.578000	-2.253463
0.578100	-2.191468
0.578200	-2.251840
0.578300	-2.450485
0.578400	-2.613426
0.578500	-2.496576
0.578600	-2.354409
0.578700	-2.169072
0.578800	-2.213539
0.578900	-2.399526
0.579000	-2.577722
0.579100	-2.504366
0.579200	-2.358953
0.579300	-2.225549
0.579400	-2.205425
0.579500	-2.298580
0.579600	-2.327144
0.579700	-2.237559
0.579800	-2.205425
0.579900	-2.112919
0.580000	-2.139534
0.580100	-2.077864
0.580200	-2.065854
0.580300	-1.972699
0.580400	-1.872403
0.580500	-1.858121
0.580600	-1.791906
0.580700	-1.722445
0.580800	-1.588393
0.580900	-1.495562
0.581000	-1.445252
0.581100	-1.480956
0.581200	-1.494588
0.581300	-1.379686
0.581400	-1.235896
0.581500	-1.070035
0.581600	-1.031410
0.581700	-0.957729
0.581800	-0.853863
0.581900	-0.771419
0.582000	-0.719811
0.582100	-0.618866
0.582200	-0.554923
0.582300	-0.452680
0.582400	-0.373807
0.582500	-0.286494
0.582600	-0.134590
0.582700	0.258803
0.582800	0.873561
0.582900	1.305903
0.583000	1.776871
0.583100	1.901511
0.583200	2.253033
0.583300	2.510427
0.583400	1.770704
0.583500	0.386688
0.583600	-0.222876
0.583700	0.939775
0.583800	2.633768
0.583900	3.480604
0.584000	2.244594
0.584100	0.186097
0.584200	-0.099535
0.584300	-0.049874
0.584400	0.167596
0.584500	0.411681
0.584600	0.089372
0.584700	-0.114790
0.584800	-0.258580
0.584900	-0.294933
0.585000	-0.309215
0.585100	-0.369912
0.585200	-0.442942
0.585300	-0.568556
0.585400	-0.672097
0.585500	-0.745128
0.585600	-0.800307
0.585700	-0.932737
0.585800	-1.083343
0.585900	-1.214474
0.586000	-1.392345
0.586100	-1.476736
0.586200	-1.661424
0.586300	-1.842216
0.586400	-2.008403
0.586500	-2.127525
0.586600	-2.126551
0.586700	-2.201205
0.586800	-2.458924
0.586900	-2.798114
0.587000	-3.131462
0.587100	-3.234680
0.587200	-3.161649
0.587300	-3.149964
0.587400	-3.284342
0.587500	-3.568678
0.587600	-3.818933
0.587700	-3.954285
0.587800	-3.960128
0.587900	-3.925397
0.588000	-3.991613
0.588100	-4.113008
0.588200	-4.233754
0.588300	-4.285039
0.588400	-4.304514
0.588500	-4.317822
0.588600	-4.332104
0.588700	-4.323664
0.588800	-4.217849
0.588900	-4.090287
0.589000	-4.050687
0.589100	-4.051012
0.589200	-4.035107
0.589300	-4.023422
0.589400	-3.916309
0.589500	-3.783878
0.589600	-3.745252
0.589700	-3.500840
0.589800	-3.518043
0.589900	-3.422939
0.590000	-3.325564
0.590100	-3.192484
0.590200	-3.077906
0.590300	-2.952616
0.590400	-2.880559
0.590500	-2.803632
0.590600	-2.816940
0.590700	-2.690677
0.590800	-2.742611
0.590900	-2.621216
0.591000	-2.631603
0.591100	-2.536824
0.591200	-2.506638
0.591300	-2.529359
0.591400	-2.516051
0.591500	-2.610830
0.591600	-2.512805
0.591700	-2.493330
0.591800	-2.144403
0.591900	-1.987630
0.592000	-2.109997
0.592100	-2.362199
0.592200	-2.505015
0.592300	-2.239831
0.592400	-2.074293
0.592500	-1.816250
0.592600	-1.802617
0.592700	-1.996718
0.592800	-2.011973
0.592900	-1.999639
0.593000	-1.742894
0.593100	-1.649739
0.593200	-1.489395
0.593300	-1.547171
0.593400	-1.571839
0.593500	-1.536135
0.593600	-1.530617
0.593700	-1.526073
0.593800	-1.468622
0.593900	-1.457586
0.594000	-1.479009
0.594100	-1.454340
0.594200	-1.480631
0.594300	-1.569242
0.594400	-1.565672
0.594500	-1.680250
0.594600	-1.606894
0.594700	-1.625395
0.594800	-1.603973
0.594900	-1.611114
0.595000	-1.895123
0.595100	-1.898369
0.595200	-1.855524
0.595300	-1.663696
0.595400	-1.594884
0.595500	-1.739973
0.595600	-1.991849
0.595700	-2.080460
0.595800	-1.994770
0.595900	-1.819171
0.596000	-1.773405
0.596100	-1.865911
0.596200	-1.994121
0.596300	-2.029825
0.596400	-2.000938
0.596500	-1.978541
0.596600	-1.975295
0.596700	-2.040537
0.596800	-2.115515
0.596900	-2.163229
0.597000	-2.132718
0.597100	-2.096365
0.597200	-2.138885
0.597300	-2.144403
0.597400	-2.129148
0.597500	-2.115191
