LabVIEW Measurement	
Writer_Version	2
Reader_Version	2
Separator	Tab
Decimal_Separator	.
Multi_Headings	Yes
X_Columns	One
Time_Pref	Relative
Operator	as989
Description	Time Domain Data
Date	1903/12/31
Time	19:00:00
***End_of_Header***	
	
Channels	1	
Samples	15000	
Date	1903/12/31	
Time	19:00:00	
X_Dimension	Time	
X0	0.0000000000000000E+0	
Delta_X	0.000100	
***End_of_Header***		
X_Value	Untitled	Comment
0.000000	0.108522	Tare Values:0.000000, 0.000000, 0.000000, 0.000000\0D\0A
0.000100	0.097811
0.000200	0.112417
0.000300	0.123128
0.000400	0.105925
0.000500	0.107223
0.000600	0.094240
0.000700	-0.080709
0.000800	-0.092719
0.000900	-0.181654
0.001000	-0.229692
0.001100	-0.152442
0.001200	-0.169645
0.001300	-0.122256
0.001400	-0.410484
0.001500	-0.642885
0.001600	-0.653596
0.001700	-0.504288
0.001800	-0.225797
0.001900	-0.283573
0.002000	-0.521816
0.002100	-0.889243
0.002200	-0.888918
0.002300	-0.743505
0.002400	-0.544861
0.002500	-0.556222
0.002600	-0.707801
0.002700	-0.885672
0.002800	-0.904173
0.002900	-0.856784
0.003000	-0.791868
0.003100	-0.844126
0.003200	-0.932737
0.003300	-0.991486
0.003400	-0.987266
0.003500	-0.912937
0.003600	-0.950913
0.003700	-1.001873
0.003800	-1.015830
0.003900	-0.982398
0.004000	-0.925920
0.004100	-0.877233
0.004200	-0.988889
0.004300	-1.147610
0.004400	-1.194025
0.004500	-1.172927
0.004600	-1.020698
0.004700	-1.052507
0.004800	-1.083992
0.004900	-1.066464
0.005000	-1.054779
0.005100	-1.031085
0.005200	-1.013233
0.005300	-0.987591
0.005400	-0.981749
0.005500	-0.983047
0.005600	-0.984345
0.005700	-1.016154
0.005800	-0.995056
0.005900	-1.040822
0.006000	-1.047963
0.006100	-1.086264
0.006200	-1.135925
0.006300	-1.175524
0.006400	-1.271600
0.006500	-1.388125
0.006600	-1.798722
0.006700	-2.032747
0.006800	-1.893825
0.006900	-1.681548
0.007000	-1.469920
0.007100	-1.674083
0.007200	-2.049625
0.007300	-2.343373
0.007400	-2.356356
0.007500	-2.152518
0.007600	-1.993472
0.007700	-2.056766
0.007800	-2.289816
0.007900	-2.535202
0.008000	-2.622839
0.008100	-2.567011
0.008200	-2.454056
0.008300	-2.498524
0.008400	-2.627383
0.008500	-2.717942
0.008600	-2.775393
0.008700	-2.728653
0.008800	-2.712100
0.008900	-2.777990
0.009000	-2.916263
0.009100	-2.904253
0.009200	-2.923404
0.009300	-2.896788
0.009400	-2.920807
0.009500	-2.972416
0.009600	-2.992865
0.009700	-2.876664
0.009800	-2.618620
0.009900	-2.680940
0.010000	-2.873742
0.010100	-3.165868
0.010200	-3.300895
0.010300	-3.070765
0.010400	-2.757866
0.010500	-2.637445
0.010600	-2.856215
0.010700	-3.187291
0.010800	-3.339196
0.010900	-3.283692
0.011000	-3.078230
0.011100	-2.957810
0.011200	-3.000655
0.011300	-3.082450
0.011400	-3.185019
0.011500	-3.167816
0.011600	-3.071739
0.011700	-2.957161
0.011800	-2.909447
0.011900	-2.877962
0.012000	-2.724758
0.012100	-2.557273
0.012200	-2.464442
0.012300	-2.305072
0.012400	-2.279105
0.012500	-2.234313
0.012600	-2.008078
0.012700	-1.900966
0.012800	-1.794827
0.012900	-1.629290
0.013000	-1.576708
0.013100	-1.530942
0.013200	-1.382932
0.013300	-1.276145
0.013400	-1.078799
0.013500	-1.007390
0.013600	-0.993758
0.013700	-0.994732
0.013800	-1.003496
0.013900	-0.920727
0.014000	-0.985643
0.014100	-0.846722
0.014200	-0.808422
0.014300	-0.769472
0.014400	-0.745777
0.014500	-0.840880
0.014600	-0.783753
0.014700	-0.920727
0.014800	-0.737338
0.014900	-0.501367
0.015000	-0.201129
0.015100	-0.014170
0.015200	-0.573749
0.015300	-0.752918
0.015400	-0.859056
0.015500	-0.338103
0.015600	-0.216060
0.015700	-0.001511
0.015800	-0.202752
0.015900	-0.435802
0.016000	-0.511754
0.016100	-0.371859
0.016200	-0.124203
0.016300	0.050746
0.016400	0.075739
0.016500	0.019911
0.016600	-0.069024
0.016700	-0.076490
0.016800	-0.017091
0.016900	0.014393
0.017000	0.025754
0.017100	-0.004757
0.017200	0.000436
0.017300	-0.122580
0.017400	-0.201778
0.017500	-0.274485
0.017600	-0.287792
0.017700	-0.357577
0.017800	-0.235535
0.017900	-0.329988
0.018000	-0.280652
0.018100	-0.574074
0.018200	-0.804851
0.018300	-0.694818
0.018400	-0.573100
0.018500	-0.248193
0.018600	-0.348814
0.018700	-0.614971
0.018800	-0.926245
0.018900	-0.919753
0.019000	-0.749997
0.019100	-0.498771
0.019200	-0.458198
0.019300	-0.608804
0.019400	-0.807773
0.019500	-0.819133
0.019600	-0.848345
0.019700	-0.777911
0.019800	-0.815238
0.019900	-0.881453
0.020000	-0.984021
0.020100	-1.022970
0.020200	-1.013233
0.020300	-1.048612
0.020400	-1.120670
0.020500	-1.125538
0.020600	-1.095028
0.020700	-1.078474
0.020800	-1.047639
0.020900	-1.193376
0.021000	-1.323209
0.021100	-1.352746
0.021200	-1.306006
0.021300	-1.122942
0.021400	-1.240765
0.021500	-1.270302
0.021600	-1.269004
0.021700	-1.261214
0.021800	-1.265758
0.021900	-1.276145
0.022000	-1.268355
0.022100	-1.299190
0.022200	-1.320612
0.022300	-1.325806
0.022400	-1.336841
0.022500	-1.357290
0.022600	-1.381958
0.022700	-1.405004
0.022800	-1.455963
0.022900	-1.465376
0.023000	-1.565347
0.023100	-1.615658
0.023200	-1.844813
0.023300	-2.202828
0.023400	-2.359602
0.023500	-2.212566
0.023600	-1.914598
0.023700	-1.756202
0.023800	-1.957443
0.023900	-2.396604
0.024000	-2.670553
0.024100	-2.704634
0.024200	-2.472232
0.024300	-2.311564
0.024400	-2.384595
0.024500	-2.580643
0.024600	-2.814019
0.024700	-2.916912
0.024800	-2.834468
0.024900	-2.782210
0.025000	-2.790649
0.025100	-2.851671
0.025200	-2.918860
0.025300	-2.951967
0.025400	-2.944826
0.025500	-2.957161
0.025600	-2.984750
0.025700	-3.008769
0.025800	-3.023051
0.025900	-2.999356
0.026000	-3.016884
0.026100	-3.128866
0.026200	-3.101925
0.026300	-3.069791
0.026400	-2.868224
0.026500	-2.705608
0.026600	-2.756892
0.026700	-2.966249
0.026800	-3.214231
0.026900	-3.263244
0.027000	-2.982803
0.027100	-2.687107
0.027200	-2.620242
0.027300	-2.831871
0.027400	-3.076283
0.027500	-3.194107
0.027600	-3.113935
0.027700	-2.939308
0.027800	-2.845504
0.027900	-2.881857
0.028000	-2.950020
0.028100	-2.997734
0.028200	-2.956187
0.028300	-2.916263
0.028400	-2.852969
0.028500	-2.791623
0.028600	-2.662763
0.028700	-2.466065
0.028800	-2.324547
0.028900	-2.276833
0.029000	-2.290141
0.029100	-2.286895
0.029200	-2.162255
0.029300	-1.921415
0.029400	-1.827610
0.029500	-1.618254
0.029600	-1.573462
0.029700	-1.502703
0.029800	-1.399810
0.029900	-1.269004
0.030000	-1.144040
0.030100	-0.959352
0.030200	-0.897357
0.030300	-0.833415
0.030400	-0.854837
0.030500	-0.829195
0.030600	-0.874636
0.030700	-0.857434
0.030800	-0.819457
0.030900	-0.751944
0.031000	-0.769147
0.031100	-0.742856
0.031200	-0.848021
0.031300	-0.778236
0.031400	-0.950264
0.031500	-0.746427
0.031600	-0.507859
0.031700	-0.134914
0.031800	-0.173215
0.031900	-0.629577
0.032000	-0.863276
0.032100	-0.768498
0.032200	-0.384842
0.032300	-0.089473
0.032400	-0.043058
0.032500	-0.299477
0.032600	-0.490331
0.032700	-0.563038
0.032800	-0.329663
0.032900	-0.129072
0.033000	0.000436
0.033100	-0.117062
0.033200	-0.075841
0.033300	-0.189120
0.033400	-0.148222
0.033500	-0.087201
0.033600	-0.056041
0.033700	-0.045330
0.033800	-0.037540
0.033900	-0.035917
0.034000	-0.088175
0.034100	-0.151144
0.034200	-0.227745
0.034300	-0.277081
0.034400	-0.363095
0.034500	-0.247869
0.034600	-0.239105
0.034700	-0.256633
0.034800	-0.570179
0.034900	-0.796088
0.035000	-0.707152
0.035100	-0.488384
0.035200	-0.251764
0.035300	-0.375105
0.035400	-0.708126
0.035500	-0.993109
0.035600	-0.965519
0.035700	-0.753567
0.035800	-0.522140
0.035900	-0.575047
0.036000	-0.797710
0.036100	-1.013558
0.036200	-0.983696
0.036300	-0.961300
0.036400	-0.859706
0.036500	-0.946694
0.036600	-1.029462
0.036700	-1.117748
0.036800	-1.115801
0.036900	-1.094703
0.037000	-1.136250
0.037100	-1.190130
0.037200	-1.201166
0.037300	-1.166111
0.037400	-1.145338
0.037500	-1.156049
0.037600	-1.335543
0.037700	-1.417662
0.037800	-1.422531
0.037900	-1.410846
0.038000	-1.267705
0.038100	-1.354044
0.038200	-1.370273
0.038300	-1.342035
0.038400	-1.331973
0.038500	-1.331973
0.038600	-1.357939
0.038700	-1.330350
0.038800	-1.329376
0.038900	-1.296593
0.039000	-1.297242
0.039100	-1.267381
0.039200	-1.252775
0.039300	-1.243037
0.039400	-1.278417
0.039500	-1.248880
0.039600	-1.291725
0.039700	-1.300813
0.039800	-1.338789
0.039900	-1.577357
0.040000	-1.948030
0.040100	-2.086303
0.040200	-1.926283
0.040300	-1.575410
0.040400	-1.591639
0.040500	-1.831505
0.040600	-2.361874
0.040700	-2.585837
0.040800	-2.524815
0.040900	-2.328766
0.041000	-2.204776
0.041100	-2.321626
0.041200	-2.619269
0.041300	-2.813045
0.041400	-2.874392
0.041500	-2.841933
0.041600	-2.759813
0.041700	-2.815642
0.041800	-2.879260
0.041900	-2.974363
0.042000	-2.983452
0.042100	-2.969170
0.042200	-2.970144
0.042300	-3.015261
0.042400	-3.116531
0.042500	-3.102899
0.042600	-3.089915
0.042700	-3.090240
0.042800	-3.156455
0.042900	-3.204818
0.043000	-3.158727
0.043100	-2.973065
0.043200	-2.836091
0.043300	-2.946449
0.043400	-3.187615
0.043500	-3.459942
0.043600	-3.439818
0.043700	-3.163272
0.043800	-2.895814
0.043900	-2.864979
0.044000	-3.101601
0.044100	-3.381068
0.044200	-3.494673
0.044300	-3.379445
0.044400	-3.171386
0.044500	-3.050316
0.044600	-3.066870
0.044700	-3.135033
0.044800	-3.181124
0.044900	-3.148341
0.045000	-3.097706
0.045100	-3.007796
0.045200	-2.914965
0.045300	-2.751050
0.045400	-2.601092
0.045500	-2.520271
0.045600	-2.503717
0.045700	-2.487812
0.045800	-2.504042
0.045900	-2.353110
0.046000	-2.179783
0.046100	-2.146675
0.046200	-1.879868
0.046300	-1.853901
0.046400	-1.797424
0.046500	-1.693233
0.046600	-1.569567
0.046700	-1.400460
0.046800	-1.280364
0.046900	-1.201166
0.047000	-1.147285
0.047100	-1.145338
0.047200	-1.158321
0.047300	-1.159944
0.047400	-1.090159
0.047500	-1.044068
0.047600	-0.945071
0.047700	-0.963896
0.047800	-0.943772
0.047900	-1.003171
0.048000	-1.058350
0.048100	-1.061920
0.048200	-0.909691
0.048300	-0.550704
0.048400	-0.396527
0.048500	-0.374131
0.048600	-1.003820
0.048700	-1.072307
0.048800	-1.022646
0.048900	-0.609778
0.049000	-0.417625
0.049100	-0.361472
0.049200	-0.590952
0.049300	-0.795438
0.049400	-0.761357
0.049500	-0.614322
0.049600	-0.351735
0.049700	-0.282275
0.049800	-0.298504
0.049900	-0.333234
0.050000	-0.332909
0.050100	-0.364394
0.050200	-0.301749
0.050300	-0.288766
0.050400	-0.230666
0.050500	-0.207945
0.050600	-0.145301
0.050700	-0.252738
0.050800	-0.312461
0.050900	-0.387764
0.051000	-0.327716
0.051100	-0.343296
0.051200	-0.196910
0.051300	-0.181330
0.051400	-0.206972
0.051500	-0.605233
0.051600	-0.630875
0.051700	-0.531878
0.051800	-0.234236
0.051900	-0.180031
0.052000	-0.214762
0.052100	-0.648078
0.052200	-0.729548
0.052300	-0.746751
0.052400	-0.512078
0.052500	-0.416327
0.052600	-0.511754
0.052700	-0.687353
0.052800	-0.776613
0.052900	-0.768498
0.053000	-0.779858
0.053100	-0.781157
0.053200	-0.862302
0.053300	-0.923973
0.053400	-0.969090
0.053500	-0.956756
0.053600	-0.992460
0.053700	-1.060947
0.053800	-1.096975
0.053900	-1.082044
0.054000	-1.047639
0.054100	-1.030111
0.054200	-1.068737
0.054300	-1.285557
0.054400	-1.344956
0.054500	-1.332946
0.054600	-1.238493
0.054700	-1.212526
0.054800	-1.270951
0.054900	-1.246283
0.055000	-1.252125
0.055100	-1.239467
0.055200	-1.235896
0.055300	-1.232001
0.055400	-1.212526
0.055500	-1.199868
0.055600	-1.203114
0.055700	-1.207658
0.055800	-1.206359
0.055900	-1.191753
0.056000	-1.189157
0.056100	-1.225510
0.056200	-1.220966
0.056300	-1.246932
0.056400	-1.308927
0.056500	-1.327429
0.056600	-1.595209
0.056700	-1.963610
0.056800	-2.034045
0.056900	-1.800670
0.057000	-1.527047
0.057100	-1.497185
0.057200	-1.858446
0.057300	-2.224575
0.057400	-2.388165
0.057500	-2.260929
0.057600	-2.072670
0.057700	-1.990875
0.057800	-2.197310
0.057900	-2.432633
0.058000	-2.555326
0.058100	-2.579994
0.058200	-2.491058
0.058300	-2.506314
0.058400	-2.572529
0.058500	-2.656596
0.058600	-2.720214
0.058700	-2.707880
0.058800	-2.685484
0.058900	-2.737417
0.059000	-2.833494
0.059100	-2.941256
0.059200	-2.861733
0.059300	-2.849074
0.059400	-2.837389
0.059500	-2.950020
0.059600	-3.020454
0.059700	-2.951643
0.059800	-2.765331
0.059900	-2.684185
0.060000	-2.821484
0.060100	-3.086345
0.060200	-3.314203
0.060300	-3.182747
0.060400	-2.922755
0.060500	-2.753646
0.060600	-2.826678
0.060700	-3.081801
0.060800	-3.292456
0.060900	-3.270709
0.061000	-3.079853
0.061100	-2.950669
0.061200	-2.930545
0.061300	-2.975337
0.061400	-3.001304
0.061500	-2.949695
0.061600	-2.886726
0.061700	-2.812396
0.061800	-2.778639
0.061900	-2.706906
0.062000	-2.505015
0.062100	-2.345320
0.062200	-2.255735
0.062300	-2.251516
0.062400	-2.245998
0.062500	-2.212890
0.062600	-2.046055
0.062700	-1.882465
0.062800	-1.812355
0.062900	-1.549768
0.063000	-1.557882
0.063100	-1.493290
0.063200	-1.345605
0.063300	-1.225510
0.063400	-1.027839
0.063500	-0.932087
0.063600	-0.880803
0.063700	-0.859706
0.063800	-0.825300
0.063900	-0.791543
0.064000	-0.829844
0.064100	-0.768174
0.064200	-0.748699
0.064300	-0.686379
0.064400	-0.723706
0.064500	-0.660088
0.064600	-0.749348
0.064700	-0.753567
0.064800	-0.698713
0.064900	-0.587381
0.065000	-0.079736
0.065100	-0.069674
0.065200	-0.076490
0.065300	-0.711696
0.065400	-0.609778
0.065500	-0.497472
0.065600	-0.040137
0.065700	0.127672
0.065800	0.044579
0.065900	-0.194637
0.066000	-0.405940
0.066100	-0.348165
0.066200	-0.133616
0.066300	0.071520
0.066400	0.079309
0.066500	0.031921
0.066600	-0.030399
0.066700	-0.071621
0.066800	-0.051172
0.066900	-0.041435
0.067000	-0.036566
0.067100	-0.079736
0.067200	-0.088499
0.067300	-0.156337
0.067400	-0.250466
0.067500	-0.367315
0.067600	-0.374780
0.067700	-0.487735
0.067800	-0.409511
0.067900	-0.382570
0.068000	-0.350437
0.068100	-0.600365
0.068200	-0.840231
0.068300	-0.924297
0.068400	-0.825300
0.068500	-0.521167
0.068600	-0.527334
0.068700	-0.723706
0.068800	-1.110608
0.068900	-1.230703
0.069000	-1.107037
0.069100	-0.876584
0.069200	-0.731496
0.069300	-0.914885
0.069400	-1.098273
0.069500	-1.157023
0.069600	-1.159944
0.069700	-1.085615
0.069800	-1.059324
0.069900	-1.111257
0.070000	-1.211228
0.070100	-1.294321
0.070200	-1.256994
0.070300	-1.259591
0.070400	-1.292374
0.070500	-1.302760
0.070600	-1.286207
0.070700	-1.256020
0.070800	-1.232651
0.070900	-1.297242
0.071000	-1.425128
0.071100	-1.457911
0.071200	-1.451094
0.071300	-1.274522
0.071400	-1.287830
0.071500	-1.314121
0.071600	-1.306655
0.071700	-1.288803
0.071800	-1.290751
0.071900	-1.265758
0.072000	-1.263810
0.072100	-1.263810
0.072200	-1.273223
0.072300	-1.285557
0.072400	-1.311524
0.072500	-1.271925
0.072600	-1.366054
0.072700	-1.374493
0.072800	-1.443629
0.072900	-1.481605
0.073000	-1.576383
0.073100	-1.649739
0.073200	-1.709138
0.073300	-2.120059
0.073400	-2.430361
0.073500	-2.480022
0.073600	-2.208346
0.073700	-1.991525
0.073800	-2.106752
0.073900	-2.441397
0.074000	-2.808826
0.074100	-2.880559
0.074200	-2.752673
0.074300	-2.529684
0.074400	-2.514753
0.074500	-2.696195
0.074600	-2.898411
0.074700	-3.008120
0.074800	-2.950020
0.074900	-2.882831
0.075000	-2.817914
0.075100	-2.863031
0.075200	-2.884778
0.075300	-2.900034
0.075400	-2.906525
0.075500	-2.869847
0.075600	-2.894516
0.075700	-2.888024
0.075800	-2.923404
0.075900	-2.924053
0.076000	-2.900358
0.076100	-2.986373
0.076200	-3.028569
0.076300	-3.062975
0.076400	-2.909122
0.076500	-2.718916
0.076600	-2.703011
0.076700	-2.901007
0.076800	-3.187291
0.076900	-3.385937
0.077000	-3.211959
0.077100	-2.971442
0.077200	-2.825379
0.077300	-2.955213
0.077400	-3.210985
0.077500	-3.418395
0.077600	-3.443388
0.077700	-3.248313
0.077800	-3.061027
0.077900	-3.037333
0.078000	-3.071090
0.078100	-3.146393
0.078200	-3.126918
0.078300	-3.093161
0.078400	-3.013963
0.078500	-2.924702
0.078600	-2.809475
0.078700	-2.637445
0.078800	-2.505664
0.078900	-2.426141
0.079000	-2.405368
0.079100	-2.394008
0.079200	-2.332986
0.079300	-2.122007
0.079400	-1.963610
0.079500	-1.858121
0.079600	-1.677004
0.079700	-1.640651
0.079800	-1.572488
0.079900	-1.440059
0.080000	-1.303409
0.080100	-1.131705
0.080200	-1.039524
0.080300	-0.997978
0.080400	-0.935658
0.080500	-0.941176
0.080600	-0.896383
0.080700	-0.901577
0.080800	-0.872689
0.080900	-0.763629
0.081000	-0.822054
0.081100	-0.707152
0.081200	-0.853214
0.081300	-0.791219
0.081400	-0.920402
0.081500	-0.731171
0.081600	-0.627305
0.081700	-0.131993
0.081800	-0.132967
0.081900	-0.408537
0.082000	-0.785376
0.082100	-0.831792
0.082200	-0.527009
0.082300	-0.260852
0.082400	-0.076165
0.082500	-0.278380
0.082600	-0.520518
0.082700	-0.596145
0.082800	-0.473453
0.082900	-0.228394
0.083000	-0.097263
0.083100	-0.122256
0.083200	-0.224499
0.083300	-0.315382
0.083400	-0.264098
0.083500	-0.277406
0.083600	-0.260203
0.083700	-0.260852
0.083800	-0.296881
0.083900	-0.307916
0.084000	-0.291363
0.084100	-0.428336
0.084200	-0.495849
0.084300	-0.592250
0.084400	-0.610751
0.084500	-0.561739
0.084600	-0.516298
0.084700	-0.578293
0.084800	-0.784078
0.084900	-1.191753
0.085000	-1.096651
0.085100	-1.008040
0.085200	-0.670474
0.085300	-0.759734
0.085400	-0.975581
0.085500	-1.335219
0.085600	-1.390398
0.085700	-1.217395
0.085800	-0.958379
0.085900	-0.900603
0.086000	-1.065491
0.086100	-1.261863
0.086200	-1.299514
0.086300	-1.257319
0.086400	-1.189481
0.086500	-1.202464
0.086600	-1.287830
0.086700	-1.374168
0.086800	-1.447199
0.086900	-1.402732
0.087000	-1.409872
0.087100	-1.450121
0.087200	-1.446875
0.087300	-1.413443
0.087400	-1.371572
0.087500	-1.326779
0.087600	-1.470245
0.087700	-1.617930
0.087800	-1.604297
0.087900	-1.574111
0.088000	-1.387476
0.088100	-1.483877
0.088200	-1.494588
0.088300	-1.481605
0.088400	-1.473166
0.088500	-1.480307
0.088600	-1.468297
0.088700	-1.474140
0.088800	-1.480307
0.088900	-1.517634
0.089000	-1.484526
0.089100	-1.536784
0.089200	-1.531266
0.089300	-1.559830
0.089400	-1.556259
0.089500	-1.605920
0.089600	-1.617281
0.089700	-1.687715
0.089800	-1.753281
0.089900	-1.944135
0.090000	-2.228470
0.090100	-2.546237
0.090200	-2.399850
0.090300	-2.080136
0.090400	-1.878894
0.090500	-2.026255
0.090600	-2.438476
0.090700	-2.799088
0.090800	-2.799737
0.090900	-2.601417
0.091000	-2.388490
0.091100	-2.462495
0.091200	-2.659842
0.091300	-2.944177
0.091400	-2.994488
0.091500	-2.907499
0.091600	-2.820835
0.091700	-2.883480
0.091800	-2.944177
0.091900	-3.001953
0.092000	-3.032789
0.092100	-3.028244
0.092200	-3.006173
0.092300	-3.079529
0.092400	-3.109391
0.092500	-3.135357
0.092600	-3.137305
0.092700	-3.133085
0.092800	-3.165868
0.092900	-3.214880
0.093000	-3.226890
0.093100	-3.059729
0.093200	-2.888673
0.093300	-2.880234
0.093400	-3.092837
0.093500	-3.352829
0.093600	-3.485260
0.093700	-3.270060
0.093800	-2.998058
0.093900	-2.878611
0.094000	-3.026297
0.094100	-3.342442
0.094200	-3.537193
0.094300	-3.465460
0.094400	-3.231110
0.094500	-3.054536
0.094600	-3.006173
0.094700	-3.117505
0.094800	-3.208713
0.094900	-3.190212
0.095000	-3.100302
0.095100	-3.005848
0.095200	-2.923404
0.095300	-2.798439
0.095400	-2.637121
0.095500	-2.508910
0.095600	-2.467688
0.095700	-2.419650
0.095800	-2.405693
0.095900	-2.336232
0.096000	-2.091496
0.096100	-1.995095
0.096200	-1.738350
0.096300	-1.668240
0.096400	-1.620527
0.096500	-1.545873
0.096600	-1.440708
0.096700	-1.321261
0.096800	-1.115801
0.096900	-1.044393
0.097000	-0.987916
0.097100	-1.020049
0.097200	-1.042121
0.097300	-1.044717
0.097400	-1.025892
0.097500	-0.991811
0.097600	-0.908068
0.097700	-0.929491
0.097800	-0.893787
0.097900	-0.972011
0.098000	-1.010636
0.098100	-1.013233
0.098200	-0.985968
0.098300	-0.632823
0.098400	-0.224174
0.098500	-0.257606
0.098600	-0.588680
0.098700	-0.976555
0.098800	-0.876584
0.098900	-0.640613
0.099000	-0.252413
0.099100	-0.212489
0.099200	-0.270265
0.099300	-0.552002
0.099400	-0.626007
0.099500	-0.486112
0.099600	-0.312136
0.099700	-0.206647
0.099800	-0.210542
0.099900	-0.282275
0.100000	-0.311811
0.100100	-0.302074
0.100200	-0.302074
0.100300	-0.265721
0.100400	-0.246246
0.100500	-0.241053
0.100600	-0.241377
0.100700	-0.312136
0.100800	-0.453329
0.100900	-0.542589
0.101000	-0.550379
0.101100	-0.500393
0.101200	-0.403668
0.101300	-0.432556
0.101400	-0.431258
0.101500	-0.803878
0.101600	-0.972985
0.101700	-0.909367
0.101800	-0.779534
0.101900	-0.437425
0.102000	-0.588680
0.102100	-0.792517
0.102200	-1.083018
0.102300	-1.095677
0.102400	-0.925271
0.102500	-0.670474
0.102600	-0.656842
0.102700	-0.824975
0.102800	-0.987266
0.102900	-0.993758
0.103000	-1.083343
0.103100	-1.023620
0.103200	-1.064842
0.103300	-1.086264
0.103400	-1.171304
0.103500	-1.197271
0.103600	-1.205061
0.103700	-1.256670
0.103800	-1.307304
0.103900	-1.314121
0.104000	-1.262837
0.104100	-1.249204
0.104200	-1.247906
0.104300	-1.421557
0.104400	-1.556259
0.104500	-1.560479
0.104600	-1.541653
0.104700	-1.407600
0.104800	-1.517634
0.104900	-1.543276
0.105000	-1.522827
0.105100	-1.535161
0.105200	-1.552364
0.105300	-1.583524
0.105400	-1.578331
0.105500	-1.585472
0.105600	-1.626044
0.105700	-1.634159
0.105800	-1.653634
0.105900	-1.698102
0.106000	-1.700374
0.106100	-1.713357
0.106200	-1.723095
0.106300	-1.758474
0.106400	-1.801968
0.106500	-1.795152
0.106600	-1.980164
0.106700	-2.272938
0.106800	-2.480672
0.106900	-2.229769
0.107000	-1.966532
0.107100	-1.782493
0.107200	-2.010675
0.107300	-2.414132
0.107400	-2.631278
0.107500	-2.550457
0.107600	-2.329416
0.107700	-2.207372
0.107800	-2.272289
0.107900	-2.521244
0.108000	-2.684835
0.108100	-2.747155
0.108200	-2.669579
0.108300	-2.699441
0.108400	-2.722486
0.108500	-2.788701
0.108600	-2.818239
0.108700	-2.806229
0.108800	-2.863680
0.108900	-2.888024
0.109000	-2.963977
0.109100	-3.007796
0.109200	-2.987022
0.109300	-2.926650
0.109400	-2.958459
0.109500	-3.019156
0.109600	-3.069467
0.109700	-3.067519
0.109800	-2.853618
0.109900	-2.675422
0.110000	-2.768253
0.110100	-2.975662
0.110200	-3.257726
0.110300	-3.266814
0.110400	-3.000330
0.110500	-2.739365
0.110600	-2.732548
0.110700	-2.938984
0.110800	-3.248962
0.110900	-3.371979
0.111000	-3.265191
0.111100	-3.072388
0.111200	-3.005848
0.111300	-3.042851
0.111400	-3.138928
0.111500	-3.148990
0.111600	-3.139901
0.111700	-3.127892
0.111800	-3.083099
0.111900	-3.030517
0.112000	-2.877637
0.112100	-2.703660
0.112200	-2.602715
0.112300	-2.596548
0.112400	-2.642314
0.112500	-2.632577
0.112600	-2.572204
0.112700	-2.324871
0.112800	-2.265148
0.112900	-1.993797
0.113000	-2.005157
0.113100	-1.963935
0.113200	-1.865586
0.113300	-1.740622
0.113400	-1.622474
0.113500	-1.436813
0.113600	-1.403381
0.113700	-1.344307
0.113800	-1.338140
0.113900	-1.307629
0.114000	-1.325481
0.114100	-1.294646
0.114200	-1.215123
0.114300	-1.180068
0.114400	-1.099247
0.114500	-1.195324
0.114600	-1.098273
0.114700	-1.323209
0.114800	-1.194674
0.114900	-1.212526
0.115000	-0.749348
0.115100	-0.584460
0.115200	-0.497472
0.115300	-1.041472
0.115400	-1.273548
0.115500	-1.112880
0.115600	-0.814913
0.115700	-0.445539
0.115800	-0.434828
0.115900	-0.632174
0.116000	-0.812966
0.116100	-0.844775
0.116200	-0.563687
0.116300	-0.391659
0.116400	-0.233587
0.116500	-0.376403
0.116600	-0.394904
0.116700	-0.421845
0.116800	-0.383219
0.116900	-0.329339
0.117000	-0.321224
0.117100	-0.350761
0.117200	-0.424441
0.117300	-0.467935
0.117400	-0.477024
0.117500	-0.650999
0.117600	-0.614322
0.117700	-0.788622
0.117800	-0.749997
0.117900	-0.681835
0.118000	-0.647104
0.118100	-0.712021
0.118200	-1.039849
0.118300	-1.207333
0.118400	-1.167409
0.118500	-0.903524
0.118600	-0.603286
0.118700	-0.758111
0.118800	-1.070684
0.118900	-1.339114
0.119000	-1.239142
0.119100	-0.996355
0.119200	-0.736365
0.119300	-0.770121
0.119400	-0.990837
0.119500	-1.170331
0.119600	-1.124240
0.119700	-1.090808
0.119800	-0.989538
0.119900	-1.043419
0.120000	-1.135276
0.120100	-1.243362
0.120200	-1.235247
0.120300	-1.198569
0.120400	-1.228756
0.120500	-1.277767
0.120600	-1.313472
0.120700	-1.256670
0.120800	-1.245958
0.120900	-1.239142
0.121000	-1.408899
0.121100	-1.497834
0.121200	-1.504975
0.121300	-1.448173
0.121400	-1.359238
0.121500	-1.422856
0.121600	-1.449796
0.121700	-1.429672
0.121800	-1.418312
0.121900	-1.407600
0.122000	-1.399486
0.122100	-1.387152
0.122200	-1.395915
0.122300	-1.387801
0.122400	-1.405977
0.122500	-1.432918
0.122600	-1.440708
0.122700	-1.468297
0.122800	-1.490044
0.122900	-1.510818
0.123000	-1.560479
0.123100	-1.629615
0.123200	-1.690312
0.123300	-1.904212
0.123400	-2.313186
0.123500	-2.377779
0.123600	-2.217434
0.123700	-1.874999
0.123800	-1.861367
0.123900	-2.121682
0.124000	-2.590381
0.124100	-2.792596
0.124200	-2.714696
0.124300	-2.473531
0.124400	-2.367716
0.124500	-2.480347
0.124600	-2.714047
0.124700	-2.962678
0.124800	-2.995137
0.124900	-2.907175
0.125000	-2.838363
0.125100	-2.902955
0.125200	-2.947423
0.125300	-3.027920
0.125400	-3.033438
0.125500	-3.045123
0.125600	-3.024999
0.125700	-3.059405
0.125800	-3.152885
0.125900	-3.108092
0.126000	-3.137954
0.126100	-3.139252
0.126200	-3.221372
0.126300	-3.233382
0.126400	-3.192484
0.126500	-2.959433
0.126600	-2.831871
0.126700	-2.961380
0.126800	-3.217477
0.126900	-3.467407
0.127000	-3.452152
0.127100	-3.201573
0.127200	-2.960082
0.127300	-2.944502
0.127400	-3.175281
0.127500	-3.456371
0.127600	-3.565432
0.127700	-3.444037
0.127800	-3.269735
0.127900	-3.165544
0.128000	-3.187940
0.128100	-3.299272
0.128200	-3.326862
0.128300	-3.332705
0.128400	-3.276876
0.128500	-3.190212
0.128600	-3.098355
0.128700	-3.018182
0.128800	-2.893542
0.128900	-2.785131
0.129000	-2.723785
0.129100	-2.686782
0.129200	-2.682887
0.129300	-2.511182
0.129400	-2.313186
0.129500	-2.047677
0.129600	-1.893825
0.129700	-1.895773
0.129800	-1.834751
0.129900	-1.732508
0.130000	-1.592612
0.130100	-1.439734
0.130200	-1.276794
0.130300	-1.247257
0.130400	-1.183963
0.130500	-1.215772
0.130600	-1.150531
0.130700	-1.192078
0.130800	-1.085615
0.130900	-1.111581
0.131000	-0.970064
0.131100	-1.031734
0.131200	-0.992784
0.131300	-1.058674
0.131400	-1.071333
0.131500	-1.015505
0.131600	-0.909367
0.131700	-0.504613
0.131800	-0.316031
0.131900	-0.388088
0.132000	-0.895734
0.132100	-1.021023
0.132200	-0.799333
0.132300	-0.560766
0.132400	-0.238781
0.132500	-0.317979
0.132600	-0.452355
0.132700	-0.643859
0.132800	-0.627305
0.132900	-0.414055
0.133000	-0.264747
0.133100	-0.195611
0.133200	-0.223850
0.133300	-0.231315
0.133400	-0.259229
0.133500	-0.271239
0.133600	-0.220279
0.133700	-0.218657
0.133800	-0.204050
0.133900	-0.228719
0.134000	-0.180680
0.134100	-0.272862
0.134200	-0.406914
0.134300	-0.446837
0.134400	-0.518570
0.134500	-0.428985
0.134600	-0.366666
0.134700	-0.318952
0.134800	-0.473453
0.134900	-0.778236
0.135000	-0.889243
0.135100	-0.768498
0.135200	-0.510456
0.135300	-0.410484
0.135400	-0.591926
0.135500	-0.940851
0.135600	-1.088211
0.135700	-0.985643
0.135800	-0.781481
0.135900	-0.644508
0.136000	-0.762006
0.136100	-0.942474
0.136200	-1.012259
0.136300	-1.020698
0.136400	-1.024593
0.136500	-0.990188
0.136600	-1.095352
0.136700	-1.161567
0.136800	-1.173252
0.136900	-1.136899
0.137000	-1.165462
0.137100	-1.232001
0.137200	-1.303734
0.137300	-1.291725
0.137400	-1.247581
0.137500	-1.224536
0.137600	-1.279715
0.137700	-1.470894
0.137800	-1.540679
0.137900	-1.529643
0.138000	-1.547820
0.138100	-1.465376
0.138200	-1.499133
0.138300	-1.492641
0.138400	-1.485176
0.138500	-1.484851
0.138600	-1.468946
0.138700	-1.457911
0.138800	-1.468946
0.138900	-1.466674
0.139000	-1.456612
0.139100	-1.472517
0.139200	-1.479658
0.139300	-1.472517
0.139400	-1.464078
0.139500	-1.454665
0.139600	-1.494913
0.139700	-1.542627
0.139800	-1.618904
0.139900	-1.692584
0.140000	-1.949329
0.140100	-2.324547
0.140200	-2.340776
0.140300	-2.127200
0.140400	-1.810083
0.140500	-1.833453
0.140600	-2.191792
0.140700	-2.598171
0.140800	-2.725083
0.140900	-2.610505
0.141000	-2.432958
0.141100	-2.383296
0.141200	-2.571230
0.141300	-2.847451
0.141400	-2.967547
0.141500	-3.001629
0.141600	-2.890296
0.141700	-2.918535
0.141800	-2.979232
0.141900	-3.037982
0.142000	-3.079204
0.142100	-3.075958
0.142200	-3.066545
0.142300	-3.080178
0.142400	-3.136656
0.142500	-3.197678
0.142600	-3.205468
0.142700	-3.113286
0.142800	-3.172360
0.142900	-3.204169
0.143000	-3.299922
0.143100	-3.224943
0.143200	-2.979881
0.143300	-2.931843
0.143400	-3.065572
0.143500	-3.343091
0.143600	-3.565432
0.143700	-3.431378
0.143800	-3.139577
0.143900	-2.926974
0.144000	-3.006822
0.144100	-3.291158
0.144200	-3.545632
0.144300	-3.561212
0.144400	-3.322967
0.144500	-3.113935
0.144600	-3.049992
0.144700	-3.104522
0.144800	-3.197678
0.144900	-3.168789
0.145000	-3.097056
0.145100	-3.024349
0.145200	-2.947098
0.145300	-2.889647
0.145400	-2.759813
0.145500	-2.598820
0.145600	-2.472881
0.145700	-2.432633
0.145800	-2.382647
0.145900	-2.344671
0.146000	-2.153167
0.146100	-1.977243
0.146200	-1.693558
0.146300	-1.620202
0.146400	-1.620202
0.146500	-1.548469
0.146600	-1.415066
0.146700	-1.257968
0.146800	-1.072631
0.146900	-0.953185
0.147000	-0.917806
0.147100	-0.860679
0.147200	-0.915534
0.147300	-0.842827
0.147400	-0.911639
0.147500	-0.826274
0.147600	-0.789596
0.147700	-0.711047
0.147800	-0.716890
0.147900	-0.746427
0.148000	-0.788622
0.148100	-0.878856
0.148200	-0.811343
0.148300	-0.666904
0.148400	-0.244623
0.148500	-0.166723
0.148600	-0.297205
0.148700	-0.754541
0.148800	-0.899305
0.148900	-0.607830
0.149000	-0.416002
0.149100	-0.112194
0.149200	-0.237807
0.149300	-0.457549
0.149400	-0.601988
0.149500	-0.524088
0.149600	-0.316356
0.149700	-0.191392
0.149800	-0.145301
0.149900	-0.265072
0.150000	-0.317329
0.150100	-0.359850
0.150200	-0.299802
0.150300	-0.277730
0.150400	-0.278055
0.150500	-0.290389
0.150600	-0.340375
0.150700	-0.307592
0.150800	-0.548107
0.150900	-0.548756
0.151000	-0.709100
0.151100	-0.668527
0.151200	-0.681510
0.151300	-0.613673
0.151400	-0.685405
0.151500	-0.737663
0.151600	-1.172603
0.151700	-1.113204
0.151800	-1.033682
0.151900	-0.698713
0.152000	-0.682159
0.152100	-0.862627
0.152200	-1.209605
0.152300	-1.326130
0.152400	-1.219667
0.152500	-0.962598
0.152600	-0.830169
0.152700	-0.943448
0.152800	-1.129109
0.152900	-1.223562
0.153000	-1.288154
0.153100	-1.211877
0.153200	-1.186560
0.153300	-1.220966
0.153400	-1.306980
0.153500	-1.406627
0.153600	-1.388775
0.153700	-1.402083
0.153800	-1.468297
0.153900	-1.469920
0.154000	-1.461481
0.154100	-1.434541
0.154200	-1.436488
0.154300	-1.559180
0.154400	-1.730885
0.154500	-1.731209
0.154600	-1.676679
0.154700	-1.703944
0.154800	-1.726990
0.154900	-1.747763
0.155000	-1.727963
0.155100	-1.721796
0.155200	-1.693882
0.155300	-1.723419
0.155400	-1.682846
0.155500	-1.716603
0.155600	-1.697453
0.155700	-1.699076
0.155800	-1.698426
0.155900	-1.701023
0.156000	-1.711085
0.156100	-1.699725
0.156200	-1.698102
0.156300	-1.716928
0.156400	-1.760422
0.156500	-1.783467
0.156600	-1.882140
0.156700	-2.167773
0.156800	-2.511507
0.156900	-2.443994
0.157000	-2.212566
0.157100	-1.957768
0.157200	-2.060336
0.157300	-2.396280
0.157400	-2.747804
0.157500	-2.813694
0.157600	-2.618944
0.157700	-2.447239
0.157800	-2.446915
0.157900	-2.632901
0.158000	-2.846477
0.158100	-2.943528
0.158200	-2.920158
0.158300	-2.878287
0.158400	-2.888349
0.158500	-2.955538
0.158600	-2.991891
0.158700	-3.026297
0.158800	-3.024025
0.158900	-3.040903
0.159000	-3.104197
0.159100	-3.161649
0.159200	-3.161649
0.159300	-3.135682
0.159400	-3.075634
0.159500	-3.208064
0.159600	-3.248313
0.159700	-3.283368
0.159800	-3.144770
0.159900	-2.947748
0.160000	-2.949695
0.160100	-3.142174
0.160200	-3.433326
0.160300	-3.595943
0.160400	-3.430405
0.160500	-3.155806
0.160600	-3.032789
0.160700	-3.158727
0.160800	-3.426510
0.160900	-3.632297
0.161000	-3.618664
0.161100	-3.420343
0.161200	-3.281420
0.161300	-3.290509
0.161400	-3.339846
0.161500	-3.359970
0.161600	-3.342767
0.161700	-3.309659
0.161800	-3.289535
0.161900	-3.206766
0.162000	-3.126269
0.162100	-2.930220
0.162200	-2.783833
0.162300	-2.737742
0.162400	-2.732873
0.162500	-2.716319
0.162600	-2.641340
0.162700	-2.389788
0.162800	-2.254761
0.162900	-1.995095
0.163000	-1.949329
0.163100	-1.887983
0.163200	-1.781195
0.163300	-1.648116
0.163400	-1.507896
0.163500	-1.336841
0.163600	-1.248230
0.163700	-1.182989
0.163800	-1.165137
0.163900	-1.183963
0.164000	-1.173252
0.164100	-1.169682
0.164200	-1.148908
0.164300	-1.057376
0.164400	-0.991811
0.164500	-1.021348
0.164600	-0.976231
0.164700	-1.066140
0.164800	-1.017128
0.164900	-1.109634
0.165000	-0.670150
0.165100	-0.433530
0.165200	-0.195287
0.165300	-0.616269
0.165400	-0.936956
0.165500	-0.931763
0.165600	-0.706503
0.165700	-0.339076
0.165800	-0.228069
0.165900	-0.367315
0.166000	-0.634770
0.166100	-0.703257
0.166200	-0.505911
0.166300	-0.347840
0.166400	-0.180031
0.166500	-0.281301
0.166600	-0.245272
0.166700	-0.353683
0.166800	-0.311811
0.166900	-0.283897
0.167000	-0.292661
0.167100	-0.321873
0.167200	-0.349138
0.167300	-0.363420
0.167400	-0.336480
0.167500	-0.378351
0.167600	-0.503315
0.167700	-0.514675
0.167800	-0.656193
0.167900	-0.497148
0.168000	-0.466637
0.168100	-0.452680
0.168200	-0.701310
0.168300	-1.002522
0.168400	-0.936307
0.168500	-0.775314
0.168600	-0.392308
0.168700	-0.413081
0.168800	-0.676641
0.168900	-1.072307
0.169000	-1.089510
0.169100	-0.915209
0.169200	-0.593873
0.169300	-0.560441
0.169400	-0.762980
0.169500	-1.016479
0.169600	-1.045367
0.169700	-1.006092
0.169800	-0.940202
0.169900	-0.955457
0.170000	-1.070035
0.170100	-1.197920
0.170200	-1.268030
0.170300	-1.237844
0.170400	-1.232651
0.170500	-1.307954
0.170600	-1.321586
0.170700	-1.292049
0.170800	-1.254398
0.170900	-1.212851
0.171000	-1.364431
0.171100	-1.510493
0.171200	-1.507896
0.171300	-1.429023
0.171400	-1.296593
0.171500	-1.380011
0.171600	-1.418961
0.171700	-1.428698
0.171800	-1.435839
0.171900	-1.435839
0.172000	-1.430970
0.172100	-1.429672
0.172200	-1.429672
0.172300	-1.441682
0.172400	-1.453042
0.172500	-1.483877
0.172600	-1.491343
0.172700	-1.488421
0.172800	-1.522178
0.172900	-1.515686
0.173000	-1.585472
0.173100	-1.627667
0.173200	-1.659476
0.173300	-1.763018
0.173400	-2.175888
0.173500	-2.443669
0.173600	-2.315783
0.173700	-2.062933
0.173800	-1.887333
0.173900	-2.091172
0.174000	-2.488462
0.174100	-2.839337
0.174200	-2.846477
0.174300	-2.671202
0.174400	-2.448862
0.174500	-2.478075
0.174600	-2.777016
0.174700	-3.035061
0.174800	-3.135682
0.174900	-3.080503
0.175000	-2.988645
0.175100	-2.968846
0.175200	-3.060378
0.175300	-3.123348
0.175400	-3.178852
0.175500	-3.192160
0.175600	-3.185668
0.175700	-3.239549
0.175800	-3.331731
0.175900	-3.350557
0.176000	-3.346986
0.176100	-3.310633
0.176200	-3.356075
0.176300	-3.431054
0.176400	-3.440142
0.176500	-3.310958
0.176600	-3.074660
0.176700	-3.134059
0.176800	-3.398595
0.176900	-3.689748
0.177000	-3.824127
0.177100	-3.602435
0.177200	-3.274279
0.177300	-3.142823
0.177400	-3.324915
0.177500	-3.659886
0.177600	-3.870867
0.177700	-3.785176
0.177800	-3.531675
0.177900	-3.330433
0.178000	-3.331406
0.178100	-3.435598
0.178200	-3.514148
0.178300	-3.502463
0.178400	-3.411254
0.178500	-3.302518
0.178600	-3.205792
0.178700	-3.074335
0.178800	-2.945151
0.178900	-2.813045
0.179000	-2.744233
0.179100	-2.703985
0.179200	-2.684510
0.179300	-2.632577
0.179400	-2.405044
0.179500	-2.322275
0.179600	-2.083382
0.179700	-2.012622
0.179800	-1.967505
0.179900	-1.896746
0.180000	-1.799047
0.180100	-1.668889
0.180200	-1.459534
0.180300	-1.384555
0.180400	-1.314445
0.180500	-1.340412
0.180600	-1.350149
0.180700	-1.292374
0.180800	-1.291725
0.180900	-1.226808
0.181000	-1.128784
0.181100	-1.132355
0.181200	-1.056727
0.181300	-1.143390
0.181400	-1.120994
0.181500	-1.109309
0.181600	-1.023295
0.181700	-0.686703
0.181800	-0.391659
0.181900	-0.253387
0.182000	-0.741558
0.182100	-1.029462
0.182200	-0.888593
0.182300	-0.580890
0.182400	-0.205024
0.182500	-0.162179
0.182600	-0.266370
0.182700	-0.558494
0.182800	-0.596145
0.182900	-0.484814
0.183000	-0.218332
0.183100	-0.081683
0.183200	-0.034943
0.183300	-0.145626
0.183400	-0.099210
0.183500	-0.207296
0.183600	-0.172241
0.183700	-0.100509
0.183800	-0.110571
0.183900	-0.125177
0.184000	-0.124203
0.184100	-0.149196
0.184200	-0.342322
0.184300	-0.414379
0.184400	-0.472155
0.184500	-0.471830
0.184600	-0.410809
0.184700	-0.412432
0.184800	-0.423468
0.184900	-0.748374
0.185000	-0.961300
0.185100	-0.953185
0.185200	-0.722407
0.185300	-0.546160
0.185400	-0.537396
0.185500	-0.879181
0.185600	-1.153128
0.185700	-1.187209
0.185800	-1.004469
0.185900	-0.772393
0.186000	-0.743830
0.186100	-0.893138
0.186200	-1.058025
0.186300	-1.079123
0.186400	-1.137548
0.186500	-1.040822
0.186600	-1.081720
0.186700	-1.121319
0.186800	-1.219343
0.186900	-1.258617
0.187000	-1.281338
0.187100	-1.317042
0.187200	-1.370598
0.187300	-1.356316
0.187400	-1.323534
0.187500	-1.318665
0.187600	-1.320937
0.187700	-1.471868
0.187800	-1.597157
0.187900	-1.621500
0.188000	-1.586121
0.188100	-1.444603
0.188200	-1.529968
0.188300	-1.545873
0.188400	-1.536135
0.188500	-1.548794
0.188600	-1.553987
0.188700	-1.538407
0.188800	-1.559505
0.188900	-1.580278
0.189000	-1.619877
0.189100	-1.613710
0.189200	-1.615333
0.189300	-1.641624
0.189400	-1.607543
0.189500	-1.617281
0.189600	-1.672135
0.189700	-1.694531
0.189800	-1.760746
0.189900	-1.802942
0.190000	-1.951925
0.190100	-2.284299
0.190200	-2.460547
0.190300	-2.233988
0.190400	-1.944460
0.190500	-1.823715
0.190600	-2.109024
0.190700	-2.485865
0.190800	-2.723135
0.190900	-2.702362
0.191000	-2.489435
0.191100	-2.330389
0.191200	-2.401473
0.191300	-2.672500
0.191400	-2.859136
0.191500	-2.899709
0.191600	-2.856539
0.191700	-2.858487
0.191800	-2.904578
0.191900	-2.951967
0.192000	-3.004874
0.192100	-3.026297
0.192200	-3.026946
0.192300	-3.054860
0.192400	-3.137954
0.192500	-3.167491
0.192600	-3.206441
0.192700	-3.173009
0.192800	-3.192160
0.192900	-3.261945
0.193000	-3.311607
0.193100	-3.293430
0.193200	-3.063949
0.193300	-2.923728
0.193400	-3.036684
0.193500	-3.279148
0.193600	-3.566730
0.193700	-3.555695
0.193800	-3.317774
0.193900	-3.045123
0.194000	-3.018507
0.194100	-3.229487
0.194200	-3.527780
0.194300	-3.660536
0.194400	-3.535246
0.194500	-3.344714
0.194600	-3.259024
0.194700	-3.291807
0.194800	-3.365163
0.194900	-3.384314
0.195000	-3.367760
0.195100	-3.307712
0.195200	-3.233382
0.195300	-3.188914
0.195400	-3.056808
0.195500	-2.875690
0.195600	-2.752348
0.195700	-2.691002
0.195800	-2.682563
0.195900	-2.696520
0.196000	-2.574801
0.196100	-2.337206
0.196200	-2.254437
0.196300	-1.931152
0.196400	-1.949329
0.196500	-1.890904
0.196600	-1.766589
0.196700	-1.636106
0.196800	-1.491667
0.196900	-1.348526
0.197000	-1.266083
0.197100	-1.244985
0.197200	-1.237844
0.197300	-1.178445
0.197400	-1.177796
0.197500	-1.178770
0.197600	-1.109634
0.197700	-1.047314
0.197800	-1.020374
0.197900	-1.039524
0.198000	-1.035305
0.198100	-1.148259
0.198200	-1.008364
0.198300	-0.996679
0.198400	-0.539992
0.198500	-0.303372
0.198600	-0.239105
0.198700	-0.768174
0.198800	-1.006741
0.198900	-0.832765
0.199000	-0.519219
0.199100	-0.284871
0.199200	-0.158284
0.199300	-0.400747
0.199400	-0.575372
0.199500	-0.553625
0.199600	-0.360499
0.199700	-0.131993
0.199800	-0.119010
0.199900	-0.161206
0.200000	-0.209893
0.200100	-0.243325
0.200200	-0.268642
0.200300	-0.261501
0.200400	-0.266045
0.200500	-0.289415
0.200600	-0.319277
0.200700	-0.337778
0.200800	-0.375754
0.200900	-0.514675
0.201000	-0.607505
0.201100	-0.623085
0.201200	-0.649052
0.201300	-0.506561
0.201400	-0.521167
0.201500	-0.461768
0.201600	-0.878207
0.201700	-0.992784
0.201800	-0.945720
0.201900	-0.636718
0.202000	-0.445215
0.202100	-0.572126
0.202200	-0.900278
0.202300	-1.137873
0.202400	-1.083343
0.202500	-0.880803
0.202600	-0.680861
0.202700	-0.770121
0.202800	-0.959028
0.202900	-1.136250
0.203000	-1.149882
0.203100	-1.196297
0.203200	-1.150531
0.203300	-1.254073
0.203400	-1.328078
0.203500	-1.407276
0.203600	-1.400135
0.203700	-1.400135
0.203800	-1.479658
0.203900	-1.526722
0.204000	-1.529968
0.204100	-1.475763
0.204200	-1.475114
0.204300	-1.518283
0.204400	-1.703620
0.204500	-1.795477
0.204600	-1.847734
0.204700	-1.840269
0.204800	-1.729262
0.204900	-1.808135
0.205000	-1.809758
0.205100	-1.818847
0.205200	-1.814302
0.205300	-1.794827
0.205400	-1.807486
0.205500	-1.787687
0.205600	-1.807486
0.205700	-1.774379
0.205800	-1.768861
0.205900	-1.765940
0.206000	-1.767887
0.206100	-1.765290
0.206200	-1.740298
0.206300	-1.754904
0.206400	-1.734455
0.206500	-1.815601
0.206600	-1.801968
0.206700	-2.089224
0.206800	-2.444318
0.206900	-2.565712
0.207000	-2.339802
0.207100	-2.023983
0.207200	-1.989253
0.207300	-2.180757
0.207400	-2.643937
0.207500	-2.822458
0.207600	-2.774744
0.207700	-2.496576
0.207800	-2.406017
0.207900	-2.480996
0.208000	-2.743909
0.208100	-2.917886
0.208200	-2.973390
0.208300	-2.892244
0.208400	-2.869198
0.208500	-2.902630
0.208600	-2.931518
0.208700	-2.938335
0.208800	-2.964626
0.208900	-2.947098
0.209000	-2.971767
0.209100	-3.017533
0.209200	-3.045447
0.209300	-3.023376
0.209400	-2.985399
0.209500	-3.042526
0.209600	-3.156780
0.209700	-3.195405
0.209800	-3.147367
0.209900	-2.919184
0.210000	-2.814993
0.210100	-2.911719
0.210200	-3.172035
0.210300	-3.411903
0.210400	-3.383015
0.210500	-3.116207
0.210600	-2.859461
0.210700	-2.861733
0.210800	-3.077906
0.210900	-3.369383
0.211000	-3.454424
0.211100	-3.283043
0.211200	-3.081476
0.211300	-2.994488
0.211400	-3.034087
0.211500	-3.095109
0.211600	-3.085371
0.211700	-3.066545
0.211800	-3.024674
0.211900	-2.953915
0.212000	-2.862707
0.212100	-2.760787
0.212200	-2.623164
0.212300	-2.503717
0.212400	-2.445616
0.212500	-2.422896
0.212600	-2.418027
0.212700	-2.224900
0.212800	-2.029176
0.212900	-1.792880
0.213000	-1.643247
0.213100	-1.667591
0.213200	-1.598779
0.213300	-1.487772
0.213400	-1.382608
0.213500	-1.229405
0.213600	-1.133004
0.213700	-1.055104
0.213800	-1.030436
0.213900	-1.028164
0.214000	-1.010636
0.214100	-1.039524
0.214200	-0.985319
0.214300	-0.960651
0.214400	-0.875610
0.214500	-0.931763
0.214600	-0.859706
0.214700	-0.975581
0.214800	-0.909691
0.214900	-0.931763
0.215000	-0.784403
0.215100	-0.421520
0.215200	-0.215735
0.215300	-0.340375
0.215400	-0.845749
0.215500	-0.831142
0.215600	-0.851267
0.215700	-0.379000
0.215800	-0.188146
0.215900	-0.274809
0.216000	-0.417950
0.216100	-0.615620
0.216200	-0.505587
0.216300	-0.385492
0.216400	-0.140757
0.216500	-0.125502
0.216600	-0.193988
0.216700	-0.186523
0.216800	-0.207945
0.216900	-0.201454
0.217000	-0.197234
0.217100	-0.212165
0.217200	-0.227745
0.217300	-0.219630
0.217400	-0.207945
0.217500	-0.282599
0.217600	-0.448136
0.217700	-0.453329
0.217800	-0.520842
0.217900	-0.480269
0.218000	-0.391009
0.218100	-0.370885
0.218200	-0.509482
0.218300	-0.922350
0.218400	-0.961300
0.218500	-0.885997
0.218600	-0.570179
0.218700	-0.447162
0.218800	-0.638665
0.218900	-0.976231
0.219000	-1.155400
0.219100	-1.056078
0.219200	-0.828870
0.219300	-0.687677
0.219400	-0.792193
0.219500	-0.976880
0.219600	-1.068412
0.219700	-1.069061
0.219800	-1.018751
0.219900	-0.990837
0.220000	-1.102493
0.220100	-1.188832
0.220200	-1.189157
0.220300	-1.164164
0.220400	-1.176498
0.220500	-1.246283
0.220600	-1.297892
0.220700	-1.306331
0.220800	-1.273223
0.220900	-1.259915
0.221000	-1.318340
0.221100	-1.504975
0.221200	-1.570541
0.221300	-1.589042
0.221400	-1.559505
0.221500	-1.471543
0.221600	-1.529968
0.221700	-1.544899
0.221800	-1.517309
0.221900	-1.515037
0.222000	-1.509195
0.222100	-1.534188
0.222200	-1.554312
0.222300	-1.549118
0.222400	-1.533863
0.222500	-1.543925
0.222600	-1.538407
0.222700	-1.548145
0.222800	-1.561777
0.222900	-1.591314
0.223000	-1.613710
0.223100	-1.655906
0.223200	-1.684145
0.223300	-1.756851
0.223400	-2.059687
0.223500	-2.431010
0.223600	-2.490734
0.223700	-2.232365
0.223800	-1.944785
0.223900	-1.954522
0.224000	-2.308642
0.224100	-2.732548
0.224200	-2.877637
0.224300	-2.774744
0.224400	-2.561817
0.224500	-2.507937
0.224600	-2.715995
0.224700	-2.992216
0.224800	-3.129839
0.224900	-3.081476
0.225000	-3.041228
0.225100	-3.005524
0.225200	-3.061352
0.225300	-3.143147
0.225400	-3.178202
0.225500	-3.187615
0.225600	-3.127892
0.225700	-3.186966
0.225800	-3.203845
0.225900	-3.286614
0.226000	-3.277850
0.226100	-3.205792
0.226200	-3.248313
0.226300	-3.278499
0.226400	-3.326862
0.226500	-3.208713
0.226600	-2.977934
0.226700	-2.907499
0.226800	-3.052264
0.226900	-3.325888
0.227000	-3.539790
0.227100	-3.407359
0.227200	-3.122698
0.227300	-2.917886
0.227400	-3.003576
0.227500	-3.300571
0.227600	-3.572898
0.227700	-3.575170
0.227800	-3.376199
0.227900	-3.161649
0.228000	-3.142174
0.228100	-3.183396
0.228200	-3.292132
0.228300	-3.276227
0.228400	-3.201573
0.228500	-3.147042
0.228600	-3.065572
0.228700	-2.996111
0.228800	-2.888998
0.228900	-2.721188
0.229000	-2.643612
0.229100	-2.599794
0.229200	-2.568958
0.229300	-2.514104
0.229400	-2.320003
0.229500	-2.146351
0.229600	-1.864613
0.229700	-1.803591
0.229800	-1.822417
0.229900	-1.745166
0.230000	-1.636431
0.230100	-1.504001
0.230200	-1.316717
0.230300	-1.217071
0.230400	-1.164488
0.230500	-1.200517
0.230600	-1.167734
0.230700	-1.144364
0.230800	-1.126188
0.230900	-1.084966
0.231000	-1.024269
0.231100	-0.924947
0.231200	-0.967142
0.231300	-0.883076
0.231400	-1.001223
0.231500	-0.956107
0.231600	-0.948966
0.231700	-0.792193
0.231800	-0.365692
0.231900	-0.274809
0.232000	-0.340375
0.232100	-0.975581
0.232200	-0.866197
0.232300	-0.750322
0.232400	-0.403668
0.232500	-0.272862
0.232600	-0.316680
0.232700	-0.523439
0.232800	-0.688326
0.232900	-0.609778
0.233000	-0.428985
0.233100	-0.242026
0.233200	-0.214437
0.233300	-0.280002
0.233400	-0.358876
0.233500	-0.371210
0.233600	-0.363420
0.233700	-0.282924
0.233800	-0.266695
0.233900	-0.257931
0.234000	-0.300776
0.234100	-0.258580
0.234200	-0.332585
0.234300	-0.421845
0.234400	-0.426064
0.234500	-0.494551
0.234600	-0.458847
0.234700	-0.445864
0.234800	-0.402694
0.234900	-0.578293
0.235000	-0.852889
0.235100	-0.853539
0.235200	-0.743505
0.235300	-0.412107
0.235400	-0.388413
0.235500	-0.579916
0.235600	-0.930465
0.235700	-1.040822
0.235800	-0.929166
0.235900	-0.652622
0.236000	-0.550379
0.236100	-0.691897
0.236200	-0.877882
0.236300	-0.956431
0.236400	-0.987266
0.236500	-0.942799
0.236600	-0.889243
0.236700	-0.953834
0.236800	-1.052832
0.236900	-1.129109
0.237000	-1.112555
0.237100	-1.115801
0.237200	-1.190779
0.237300	-1.189157
0.237400	-1.156374
0.237500	-1.179419
0.237600	-1.158646
0.237700	-1.256020
0.237800	-1.407600
0.237900	-1.429672
0.238000	-1.444278
0.238100	-1.318665
0.238200	-1.313472
0.238300	-1.357939
0.238400	-1.339438
0.238500	-1.355992
0.238600	-1.359562
0.238700	-1.375142
0.238800	-1.378388
0.238900	-1.415066
0.239000	-1.416040
0.239100	-1.418961
0.239200	-1.455314
0.239300	-1.445901
0.239400	-1.467324
0.239500	-1.459534
0.239600	-1.486474
0.239700	-1.529968
0.239800	-1.563725
0.239900	-1.607219
0.240000	-1.685768
0.240100	-2.024957
0.240200	-2.331039
0.240300	-2.264824
0.240400	-1.978541
0.240500	-1.744192
0.240600	-1.865911
0.240700	-2.229769
0.240800	-2.570257
0.240900	-2.607584
0.241000	-2.444643
0.241100	-2.235936
0.241200	-2.206723
0.241300	-2.426791
0.241400	-2.672825
0.241500	-2.794869
0.241600	-2.728653
0.241700	-2.681913
0.241800	-2.697169
0.241900	-2.723460
0.242000	-2.790000
0.242100	-2.820511
0.242200	-2.840310
0.242300	-2.854267
0.242400	-2.894840
0.242500	-2.960082
0.242600	-3.015910
0.242700	-2.966573
0.242800	-2.935738
0.242900	-2.994163
0.243000	-3.089266
0.243100	-3.082125
0.243200	-3.010717
0.243300	-2.786754
0.243400	-2.785780
0.243500	-2.988645
0.243600	-3.266489
0.243700	-3.440791
0.243800	-3.295053
0.243900	-3.021104
0.244000	-2.915938
0.244100	-3.008120
0.244200	-3.316800
0.244300	-3.529079
0.244400	-3.511876
0.244500	-3.341793
0.244600	-3.216503
0.244700	-3.191510
0.244800	-3.225592
0.244900	-3.272981
0.245000	-3.291807
0.245100	-3.283043
0.245200	-3.225267
0.245300	-3.148341
0.245400	-3.062650
0.245500	-2.964626
0.245600	-2.806229
0.245700	-2.677369
0.245800	-2.604338
0.245900	-2.574801
0.246000	-2.538772
0.246100	-2.331688
0.246200	-2.232041
0.246300	-2.166475
0.246400	-1.943486
0.246500	-1.911028
0.246600	-1.808460
0.246700	-1.724068
0.246800	-1.607868
0.246900	-1.406627
0.247000	-1.291725
0.247100	-1.264460
0.247200	-1.260565
0.247300	-1.243037
0.247400	-1.177472
0.247500	-1.197271
0.247600	-1.153777
0.247700	-1.041796
0.247800	-1.045691
0.247900	-0.972011
0.248000	-1.079448
0.248100	-1.011285
0.248200	-1.110932
0.248300	-0.997978
0.248400	-0.778885
0.248500	-0.333883
0.248600	-0.230666
0.248700	-0.601014
0.248800	-0.909042
0.248900	-0.862627
0.249000	-0.580241
0.249100	-0.214762
0.249200	-0.212165
0.249300	-0.226771
0.249400	-0.546809
0.249500	-0.545835
0.249600	-0.459172
0.249700	-0.203401
0.249800	-0.061884
0.249900	-0.097912
0.250000	-0.144327
0.250100	-0.249492
0.250200	-0.181654
0.250300	-0.155363
0.250400	-0.101807
0.250500	-0.134914
0.250600	-0.129072
0.250700	-0.133941
0.250800	-0.182953
0.250900	-0.223525
0.251000	-0.412756
0.251100	-0.393931
0.251200	-0.560117
0.251300	-0.381921
0.251400	-0.463067
0.251500	-0.437425
0.251600	-0.697090
0.251700	-0.986942
0.251800	-0.945071
0.251900	-0.795438
0.252000	-0.465014
0.252100	-0.574074
0.252200	-0.812641
0.252300	-1.176498
0.252400	-1.208631
0.252500	-1.061920
0.252600	-0.802579
0.252700	-0.732145
0.252800	-0.897033
0.252900	-1.078474
0.253000	-1.125863
0.253100	-1.111257
0.253200	-1.066464
0.253300	-1.072307
0.253400	-1.121968
0.253500	-1.196297
0.253600	-1.210904
0.253700	-1.188183
0.253800	-1.224536
0.253900	-1.279390
0.254000	-1.282312
0.254100	-1.229405
0.254200	-1.203438
0.254300	-1.178445
0.254400	-1.301787
0.254500	-1.449147
0.254600	-1.473491
0.254700	-1.461157
0.254800	-1.297242
0.254900	-1.334894
0.255000	-1.379362
0.255100	-1.393319
0.255200	-1.388125
0.255300	-1.362159
0.255400	-1.374818
0.255500	-1.402407
0.255600	-1.385204
0.255700	-1.414092
0.255800	-1.393643
0.255900	-1.425777
0.256000	-1.399161
0.256100	-1.451744
0.256200	-1.405977
0.256300	-1.486149
0.256400	-1.481605
0.256500	-1.609166
0.256600	-1.654283
0.256700	-1.804240
0.256800	-2.175563
0.256900	-2.372910
0.257000	-2.292738
0.257100	-1.926608
0.257200	-1.774379
0.257300	-1.892527
0.257400	-2.344346
0.257500	-2.634200
0.257600	-2.666009
0.257700	-2.445616
0.257800	-2.271315
0.257900	-2.335907
0.258000	-2.580319
0.258100	-2.816940
0.258200	-2.866277
0.258300	-2.823432
0.258400	-2.755594
0.258500	-2.796816
0.258600	-2.872120
0.258700	-2.940607
0.258800	-2.986373
0.258900	-2.989619
0.259000	-3.019805
0.259100	-3.082775
0.259200	-3.185992
0.259300	-3.193133
0.259400	-3.154183
0.259500	-3.171062
0.259600	-3.225592
0.259700	-3.296027
0.259800	-3.298948
0.259900	-3.111013
0.260000	-2.903929
0.260100	-2.948072
0.260200	-3.161324
0.260300	-3.423588
0.260400	-3.504410
0.260500	-3.292781
0.260600	-2.998707
0.260700	-2.895814
0.260800	-3.052913
0.260900	-3.351531
0.261000	-3.528754
0.261100	-3.445011
0.261200	-3.244093
0.261300	-3.111987
0.261400	-3.081476
0.261500	-3.149964
0.261600	-3.186317
0.261700	-3.186966
0.261800	-3.138603
0.261900	-3.034736
0.262000	-2.934440
0.262100	-2.788052
0.262200	-2.613426
0.262300	-2.504042
0.262400	-2.416729
0.262500	-2.426466
0.262600	-2.410561
0.262700	-2.321950
0.262800	-2.099611
0.262900	-2.019763
0.263000	-1.875973
0.263100	-1.748087
0.263200	-1.688364
0.263300	-1.618904
0.263400	-1.494913
0.263500	-1.397538
0.263600	-1.207658
0.263700	-1.132355
0.263800	-1.090159
0.263900	-1.075228
0.264000	-1.067114
0.264100	-1.058025
0.264200	-1.039849
0.264300	-1.002522
0.264400	-0.879505
0.264500	-0.879830
0.264600	-0.856784
0.264700	-0.923648
0.264800	-0.923324
0.264900	-0.954808
0.265000	-0.829844
0.265100	-0.585434
0.265200	-0.144976
0.265300	-0.201778
0.265400	-0.393606
0.265500	-0.882102
0.265600	-0.659763
0.265700	-0.441969
0.265800	-0.044681
0.265900	-0.004108
0.266000	-0.196260
0.266100	-0.363745
0.266200	-0.450408
0.266300	-0.269291
0.266400	-0.124203
0.266500	0.041983
0.266600	-0.021635
0.266700	-0.036566
0.266800	-0.030075
0.266900	-0.059936
0.267000	0.016341
0.267100	-0.021960
0.267200	0.016341
0.267300	-0.020986
0.267400	0.049448
0.267500	-0.051822
0.267600	-0.135239
0.267700	-0.252413
0.267800	-0.236184
0.267900	-0.266695
0.268000	-0.160232
0.268100	-0.184251
0.268200	-0.203401
0.268300	-0.531229
0.268400	-0.715267
0.268500	-0.645482
0.268600	-0.446837
0.268700	-0.233263
0.268800	-0.304346
0.268900	-0.601663
0.269000	-0.873987
0.269100	-0.884049
0.269200	-0.690923
0.269300	-0.456575
0.269400	-0.469234
0.269500	-0.612050
0.269600	-0.811992
0.269700	-0.806474
0.269800	-0.825625
0.269900	-0.737014
0.270000	-0.820107
0.270100	-0.874961
0.270200	-0.924622
0.270300	-0.931763
0.270400	-0.921376
0.270500	-0.963247
0.270600	-1.025243
0.270700	-1.038226
0.270800	-0.973309
0.270900	-0.937605
0.271000	-0.919429
0.271100	-1.063543
0.271200	-1.182989
0.271300	-1.200192
0.271400	-1.181367
0.271500	-1.032383
0.271600	-1.111581
0.271700	-1.130407
0.271800	-1.131381
0.271900	-1.104116
0.272000	-1.097624
0.272100	-1.103142
0.272200	-1.096975
0.272300	-1.139495
0.272400	-1.130407
0.272500	-1.143390
0.272600	-1.179419
0.272700	-1.167409
0.272800	-1.187209
0.272900	-1.215448
0.273000	-1.272250
0.273100	-1.288803
0.273200	-1.350798
0.273300	-1.435839
0.273400	-1.610140
0.273500	-2.025606
0.273600	-2.183678
0.273700	-2.121358
0.273800	-1.771133
0.273900	-1.713033
0.274000	-1.913300
0.274100	-2.376480
0.274200	-2.627383
0.274300	-2.603689
0.274400	-2.353435
0.274500	-2.227821
0.274600	-2.311239
0.274700	-2.580643
0.274800	-2.832845
0.274900	-2.895165
0.275000	-2.831547
0.275100	-2.822783
0.275200	-2.840959
0.275300	-2.912043
0.275400	-3.005848
0.275500	-3.029218
0.275600	-3.024349
0.275700	-3.053237
0.275800	-3.128216
0.275900	-3.228513
0.276000	-3.238900
0.276100	-3.209038
0.276200	-3.213258
0.276300	-3.285315
0.276400	-3.339521
0.276500	-3.318098
0.276600	-3.114584
0.276700	-2.964626
0.276800	-3.051290
0.276900	-3.238900
0.277000	-3.498892
0.277100	-3.534272
0.277200	-3.284991
0.277300	-3.057457
0.277400	-3.036684
0.277500	-3.260647
0.277600	-3.559590
0.277700	-3.666378
0.277800	-3.538167
0.277900	-3.356399
0.278000	-3.275253
0.278100	-3.295377
0.278200	-3.371655
0.278300	-3.395350
0.278400	-3.351855
0.278500	-3.300571
0.278600	-3.235005
0.278700	-3.198002
0.278800	-3.123672
0.278900	-2.943853
0.279000	-2.807203
0.279100	-2.724434
0.279200	-2.661140
0.279300	-2.637770
0.279400	-2.537149
0.279500	-2.338179
0.279600	-2.297282
0.279700	-2.074293
0.279800	-2.031124
0.279900	-1.991525
0.280000	-1.917195
0.280100	-1.792231
0.280200	-1.663696
0.280300	-1.539381
0.280400	-1.489395
0.280500	-1.469596
0.280600	-1.452393
0.280700	-1.439409
0.280800	-1.447199
0.280900	-1.452393
0.281000	-1.379037
0.281100	-1.379686
0.281200	-1.298865
0.281300	-1.352421
0.281400	-1.298865
0.281500	-1.370273
0.281600	-1.314770
0.281700	-1.229080
0.281800	-0.809720
0.281900	-0.618541
0.282000	-0.559143
0.282100	-1.067438
0.282200	-1.201815
0.282300	-1.178445
0.282400	-0.691248
0.282500	-0.470207
0.282600	-0.490656
0.282700	-0.642236
0.282800	-0.836336
0.282900	-0.865873
0.283000	-0.707477
0.283100	-0.502666
0.283200	-0.346542
0.283300	-0.440346
0.283400	-0.466962
0.283500	-0.543238
0.283600	-0.542589
0.283700	-0.523114
0.283800	-0.467935
0.283900	-0.501367
0.284000	-0.470857
0.284100	-0.536747
0.284200	-0.523439
0.284300	-0.759410
0.284400	-0.659763
0.284500	-0.751944
0.284600	-0.727925
0.284700	-0.681186
0.284800	-0.657491
0.284900	-0.701634
0.285000	-1.039849
0.285100	-1.171954
0.285200	-1.166760
0.285300	-0.879181
0.285400	-0.707152
0.285500	-0.788622
0.285600	-1.132030
0.285700	-1.378713
0.285800	-1.309901
0.285900	-1.088861
0.286000	-0.899305
0.286100	-0.986942
0.286200	-1.122942
0.286300	-1.260240
0.286400	-1.257319
0.286500	-1.267056
0.286600	-1.170980
0.286700	-1.258942
0.286800	-1.303085
0.286900	-1.381958
0.287000	-1.364431
0.287100	-1.357615
0.287200	-1.409872
0.287300	-1.413118
0.287400	-1.392670
0.287500	-1.368001
0.287600	-1.353720
0.287700	-1.339763
0.287800	-1.486799
0.287900	-1.565347
0.288000	-1.560803
0.288100	-1.511467
0.288200	-1.378388
0.288300	-1.438111
0.288400	-1.444603
0.288500	-1.434865
0.288600	-1.425777
0.288700	-1.429347
0.288800	-1.425777
0.288900	-1.401109
0.289000	-1.384880
0.289100	-1.372221
0.289200	-1.382283
0.289300	-1.374818
0.289400	-1.380011
0.289500	-1.397538
0.289600	-1.394293
0.289700	-1.420908
0.289800	-1.386178
0.289900	-1.452393
0.290000	-1.444603
0.290100	-1.749061
0.290200	-2.048327
0.290300	-2.176862
0.290400	-1.906159
0.290500	-1.687715
0.290600	-1.603648
0.290700	-1.866560
0.290800	-2.279754
0.290900	-2.483593
0.291000	-2.417378
0.291100	-2.205100
0.291200	-2.112594
0.291300	-2.214838
0.291400	-2.454056
0.291500	-2.593951
0.291600	-2.642639
0.291700	-2.628032
0.291800	-2.621541
0.291900	-2.673150
0.292000	-2.685484
0.292100	-2.723135
0.292200	-2.780262
0.292300	-2.827327
0.292400	-2.880234
0.292500	-2.871146
0.292600	-2.924702
0.292700	-2.957161
0.292800	-2.899709
0.292900	-2.915289
0.293000	-2.940931
0.293100	-2.949695
0.293200	-2.922755
0.293300	-2.744883
0.293400	-2.596872
0.293500	-2.731899
0.293600	-3.038307
0.293700	-3.234356
0.293800	-3.239224
0.293900	-2.940607
0.294000	-2.693598
0.294100	-2.744883
0.294200	-3.024349
0.294300	-3.276876
0.294400	-3.311607
0.294500	-3.136656
0.294600	-2.978908
0.294700	-2.969819
0.294800	-3.019481
0.294900	-3.052913
0.295000	-3.030192
0.295100	-2.992865
0.295200	-2.974039
0.295300	-2.883480
0.295400	-2.832196
0.295500	-2.682563
0.295600	-2.513779
0.295700	-2.432309
0.295800	-2.419650
0.295900	-2.424519
0.296000	-2.421273
0.296100	-2.268394
0.296200	-2.089549
0.296300	-2.057740
0.296400	-1.784116
0.296500	-1.790608
0.296600	-1.733157
0.296700	-1.637405
0.296800	-1.556584
0.296900	-1.403056
0.297000	-1.311199
0.297100	-1.233300
0.297200	-1.247906
0.297300	-1.225834
0.297400	-1.223887
0.297500	-1.198894
0.297600	-1.187534
0.297700	-1.124240
0.297800	-1.004469
0.297900	-1.045042
0.298000	-1.024593
0.298100	-1.064517
0.298200	-1.083343
0.298300	-0.998951
0.298400	-0.807773
0.298500	-0.357577
0.298600	-0.242026
0.298700	-0.344594
0.298800	-0.836336
0.298900	-0.785376
0.299000	-0.605233
0.299100	-0.240728
0.299200	-0.018714
0.299300	0.008875
0.299400	-0.217358
0.299500	-0.305969
0.299600	-0.285196
0.299700	-0.035917
0.299800	0.105925
0.299900	0.187071
0.300000	0.147472
0.300100	0.151367
0.300200	0.101056
0.300300	0.146498
0.300400	0.160455
0.300500	0.192913
0.300600	0.178631
0.300700	0.184149
0.300800	0.152989
0.300900	0.031271
0.301000	0.010498
0.301100	-0.023907
0.301200	-0.091420
0.301300	-0.126475
0.301400	0.000436
0.301500	-0.032996
0.301600	-0.073568
0.301700	-0.530580
0.301800	-0.567582
0.301900	-0.488709
0.302000	-0.196910
0.302100	-0.149196
0.302200	-0.366017
0.302300	-0.773042
0.302400	-0.906121
0.302500	-0.773691
0.302600	-0.508183
0.302700	-0.431582
0.302800	-0.577969
0.302900	-0.807448
0.303000	-0.854837
0.303100	-0.803228
0.303200	-0.759410
0.303300	-0.752269
0.303400	-0.892164
0.303500	-0.955133
0.303600	-1.013233
0.303700	-0.974608
0.303800	-0.985968
0.303900	-1.054779
0.304000	-1.060947
0.304100	-0.971686
0.304200	-0.928517
0.304300	-0.905472
0.304400	-0.997653
0.304500	-1.202140
0.304600	-1.281338
0.304700	-1.333596
0.304800	-1.325806
0.304900	-1.260889
0.305000	-1.315094
0.305100	-1.319963
0.305200	-1.298541
0.305300	-1.287180
0.305400	-1.292374
0.305500	-1.293672
0.305600	-1.307954
0.305700	-1.317691
0.305800	-1.340736
0.305900	-1.349176
0.306000	-1.358588
0.306100	-1.386827
0.306200	-1.419935
0.306300	-1.426102
0.306400	-1.503352
0.306500	-1.531915
0.306600	-1.601701
0.306700	-1.671811
0.306800	-1.995095
0.306900	-2.327793
0.307000	-2.315459
0.307100	-2.073320
0.307200	-1.837672
0.307300	-1.897396
0.307400	-2.217759
0.307500	-2.577073
0.307600	-2.783184
0.307700	-2.637445
0.307800	-2.431010
0.307900	-2.397254
0.308000	-2.551106
0.308100	-2.772148
0.308200	-2.973714
0.308300	-2.956836
0.308400	-2.966249
0.308500	-2.918210
0.308600	-2.943203
0.308700	-3.029867
0.308800	-3.077906
0.308900	-3.091538
0.309000	-3.090240
0.309100	-3.085047
0.309200	-3.156780
0.309300	-3.254804
0.309400	-3.216828
0.309500	-3.184045
0.309600	-3.187940
0.309700	-3.250585
0.309800	-3.282719
0.309900	-3.226241
0.310000	-2.980531
0.310100	-2.871146
0.310200	-3.046746
0.310300	-3.379769
0.310400	-3.544659
0.310500	-3.451503
0.310600	-3.114908
0.310700	-2.912368
0.310800	-2.995786
0.310900	-3.333354
0.311000	-3.584258
0.311100	-3.587179
0.311200	-3.401192
0.311300	-3.236952
0.311400	-3.215205
0.311500	-3.284017
0.311600	-3.335951
0.311700	-3.345363
0.311800	-3.257726
0.311900	-3.220074
0.312000	-3.174632
0.312100	-3.105496
0.312200	-2.958134
0.312300	-2.766630
0.312400	-2.688405
0.312500	-2.653350
0.312600	-2.630629
0.312700	-2.592977
0.312800	-2.375182
0.312900	-2.213215
0.313000	-1.971725
0.313100	-1.839620
0.313200	-1.842541
0.313300	-1.794503
0.313400	-1.683820
0.313500	-1.548145
0.313600	-1.354369
0.313700	-1.315419
0.313800	-1.246608
0.313900	-1.263486
0.314000	-1.269004
0.314100	-1.217720
0.314200	-1.319963
0.314300	-1.183639
0.314400	-1.239467
0.314500	-1.098598
0.314600	-1.157347
0.314700	-1.078799
0.314800	-1.222264
0.314900	-1.151180
0.315000	-1.156049
0.315100	-0.932412
0.315200	-0.527334
0.315300	-0.472155
0.315400	-0.604584
0.315500	-1.113853
0.315600	-1.104765
0.315700	-0.857109
0.315800	-0.514026
0.315900	-0.385492
0.316000	-0.380947
0.316100	-0.569529
0.316200	-0.742207
0.316300	-0.574723
0.316400	-0.375754
0.316500	-0.148222
0.316600	-0.119659
0.316700	-0.126800
0.316800	-0.208919
0.316900	-0.213463
0.317000	-0.183926
0.317100	-0.093368
0.317200	-0.095315
0.317300	-0.032996
0.317400	-0.007678
0.317500	-0.009950
0.317600	-0.123879
0.317700	-0.107000
0.317800	-0.155038
0.317900	-0.157635
0.318000	-0.105053
0.318100	-0.029425
0.318200	-0.080709
0.318300	-0.174838
0.318400	-0.527983
0.318500	-0.559467
0.318600	-0.334532
0.318700	-0.049549
0.318800	0.014718
0.318900	-0.234561
0.319000	-0.602961
0.319100	-0.690923
0.319200	-0.564985
0.319300	-0.256308
0.319400	-0.172566
0.319500	-0.344270
0.319600	-0.530904
0.319700	-0.584136
0.319800	-0.516298
0.319900	-0.469234
0.320000	-0.455277
0.320100	-0.523763
0.320200	-0.587381
0.320300	-0.551028
0.320400	-0.515000
0.320500	-0.550704
0.320600	-0.622436
0.320700	-0.682159
0.320800	-0.652947
0.320900	-0.616594
0.321000	-0.567257
0.321100	-0.656517
0.321200	-0.863276
0.321300	-0.910340
0.321400	-0.926570
0.321500	-0.898655
0.321600	-0.807448
0.321700	-0.887944
0.321800	-0.860679
0.321900	-0.890866
0.322000	-0.914560
0.322100	-0.915534
0.322200	-0.955457
0.322300	-0.963896
0.322400	-1.004145
0.322500	-1.011935
0.322600	-1.015830
0.322700	-1.054779
0.322800	-1.071982
0.322900	-1.092756
0.323000	-1.137548
0.323100	-1.179744
0.323200	-1.215123
0.323300	-1.305682
0.323400	-1.393319
0.323500	-1.760097
0.323600	-2.066503
0.323700	-2.059687
0.323800	-1.746465
0.323900	-1.606894
0.324000	-1.708164
0.324100	-2.100584
0.324200	-2.476776
0.324300	-2.604013
0.324400	-2.475803
0.324500	-2.291439
0.324600	-2.288518
0.324700	-2.518323
0.324800	-2.727030
0.324900	-2.911070
0.325000	-2.908148
0.325100	-2.871146
0.325200	-2.871470
0.325300	-2.892893
0.325400	-2.974039
0.325500	-3.035710
0.325600	-3.038631
0.325700	-3.068818
0.325800	-3.087319
0.325900	-3.189887
0.326000	-3.290509
0.326100	-3.253506
0.326200	-3.214231
0.326300	-3.286289
0.326400	-3.294079
0.326500	-3.325564
0.326600	-3.199300
0.326700	-3.023700
0.326800	-2.999032
0.326900	-3.217802
0.327000	-3.569652
0.327100	-3.699810
0.327200	-3.530052
0.327300	-3.178852
0.327400	-3.039930
0.327500	-3.198976
0.327600	-3.546606
0.327700	-3.737787
0.327800	-3.643332
0.327900	-3.426834
0.328000	-3.272007
0.328100	-3.280122
0.328200	-3.341793
0.328300	-3.367760
0.328400	-3.315177
0.328500	-3.232408
0.328600	-3.136331
0.328700	-3.105496
0.328800	-2.998058
0.328900	-2.802334
0.329000	-2.619269
0.329100	-2.514753
0.329200	-2.502419
0.329300	-2.467688
0.329400	-2.423220
0.329500	-2.189845
0.329600	-2.048002
0.329700	-1.749061
0.329800	-1.718226
0.329900	-1.699076
0.330000	-1.653309
0.330100	-1.530617
0.330200	-1.428049
0.330300	-1.216421
0.330400	-1.172278
0.330500	-1.096326
0.330600	-1.142741
0.330700	-1.098598
0.330800	-1.114827
0.330900	-1.113529
0.331000	-1.081395
0.331100	-0.972336
0.331200	-1.007066
0.331300	-0.953510
0.331400	-0.964870
0.331500	-0.959352
0.331600	-1.058025
0.331700	-0.926894
0.331800	-0.685405
0.331900	-0.246246
0.332000	-0.337129
0.332100	-0.524737
0.332200	-0.975257
0.332300	-0.892813
0.332400	-0.697739
0.332500	-0.297205
0.332600	-0.235210
0.332700	-0.350112
0.332800	-0.591276
0.332900	-0.673071
0.333000	-0.619515
0.333100	-0.363095
0.333200	-0.185549
0.333300	-0.178733
0.333400	-0.222227
0.333500	-0.291038
0.333600	-0.298828
0.333700	-0.330637
0.333800	-0.281625
0.333900	-0.301100
0.334000	-0.257282
0.334100	-0.258255
0.334200	-0.381272
0.334300	-0.499095
0.334400	-0.508833
0.334500	-0.503964
0.334600	-0.617568
0.334700	-0.520518
0.334800	-0.498771
0.334900	-0.496174
0.335000	-0.793491
0.335100	-1.039200
0.335200	-1.019400
0.335300	-0.783104
0.335400	-0.520842
0.335500	-0.544212
0.335600	-0.803228
0.335700	-1.147935
0.335800	-1.215123
0.335900	-1.028488
0.336000	-0.744154
0.336100	-0.659439
0.336200	-0.859381
0.336300	-1.065491
0.336400	-1.065491
0.336500	-1.060622
0.336600	-0.986617
0.336700	-1.045367
0.336800	-1.114178
0.336900	-1.171954
0.337000	-1.147285
0.337100	-1.114827
0.337200	-1.152803
0.337300	-1.206359
0.337400	-1.232975
0.337500	-1.178445
0.337600	-1.139171
0.337700	-1.103467
0.337800	-1.207333
0.337900	-1.338789
0.338000	-1.367028
0.338100	-1.342359
0.338200	-1.330025
0.338300	-1.243362
0.338400	-1.294321
0.338500	-1.306980
0.338600	-1.306980
0.338700	-1.318665
0.338800	-1.350149
0.338900	-1.366703
0.339000	-1.375467
0.339100	-1.376440
0.339200	-1.418312
0.339300	-1.420259
0.339400	-1.436164
0.339500	-1.454340
0.339600	-1.432269
0.339700	-1.455314
0.339800	-1.459534
0.339900	-1.521204
0.340000	-1.559180
0.340100	-1.714331
0.340200	-2.068775
0.340300	-2.259955
0.340400	-2.170694
0.340500	-1.841243
0.340600	-1.699400
0.340700	-1.787037
0.340800	-2.238532
0.340900	-2.502419
0.341000	-2.576099
0.341100	-2.347268
0.341200	-2.153816
0.341300	-2.158360
0.341400	-2.366418
0.341500	-2.596223
0.341600	-2.693923
0.341700	-2.721513
0.341800	-2.682563
0.341900	-2.629006
0.342000	-2.624137
0.342100	-2.685808
0.342200	-2.699116
0.342300	-2.715345
0.342400	-2.728329
0.342500	-2.739365
0.342600	-2.771823
0.342700	-2.834143
0.342800	-2.772148
0.342900	-2.752023
0.343000	-2.751699
0.343100	-2.787079
0.343200	-2.774420
0.343300	-2.661465
0.343400	-2.436853
0.343500	-2.425492
0.343600	-2.661789
0.343700	-2.939633
0.343800	-3.020454
0.343900	-2.777341
0.344000	-2.419325
0.344100	-2.310265
0.344200	-2.507287
0.344300	-2.825704
0.344400	-2.957485
0.344500	-2.897437
0.344600	-2.679317
0.344700	-2.554677
0.344800	-2.552729
0.344900	-2.641990
0.345000	-2.638744
0.345100	-2.606610
0.345200	-2.573502
0.345300	-2.524490
0.345400	-2.485216
0.345500	-2.391086
0.345600	-2.215811
0.345700	-2.082732
0.345800	-2.031448
0.345900	-2.033071
0.346000	-2.023658
0.346100	-1.915248
0.346200	-1.698426
0.346300	-1.594884
0.346400	-1.294970
0.346500	-1.308278
0.346600	-1.280689
0.346700	-1.230703
0.346800	-1.111581
0.346900	-1.008040
0.347000	-0.843477
0.347100	-0.800307
0.347200	-0.733768
0.347300	-0.754541
0.347400	-0.777911
0.347500	-0.748374
0.347600	-0.780832
0.347700	-0.712021
0.347800	-0.652622
0.347900	-0.644832
0.348000	-0.675343
0.348100	-0.713319
0.348200	-0.751620
0.348300	-0.781806
0.348400	-0.719162
0.348500	-0.320575
0.348600	-0.044356
0.348700	-0.042733
0.348800	-0.482541
0.348900	-0.755515
0.349000	-0.737338
0.349100	-0.340375
0.349200	-0.117712
0.349300	0.010498
0.349400	-0.108623
0.349500	-0.365043
0.349600	-0.432556
0.349700	-0.339725
0.349800	-0.143354
0.349900	0.037114
0.350000	0.031271
0.350100	0.038412
0.350200	-0.052146
0.350300	-0.070647
0.350400	-0.129397
0.350500	-0.046304
0.350600	-0.037540
0.350700	-0.000213
0.350800	0.015691
0.350900	-0.095640
0.351000	-0.115440
0.351100	-0.142055
0.351200	-0.198532
0.351300	-0.295258
0.351400	-0.212489
0.351500	-0.179058
0.351600	-0.206972
0.351700	-0.467286
0.351800	-0.738961
0.351900	-0.656193
0.352000	-0.412107
0.352100	-0.185549
0.352200	-0.302074
0.352300	-0.617892
0.352400	-0.934360
0.352500	-0.902550
0.352600	-0.681835
0.352700	-0.465988
0.352800	-0.510131
0.352900	-0.710723
0.353000	-0.833090
0.353100	-0.757787
0.353200	-0.743505
0.353300	-0.685081
0.353400	-0.813615
0.353500	-0.878856
0.353600	-0.856135
0.353700	-0.804851
0.353800	-0.801930
0.353900	-0.855162
0.354000	-0.914885
0.354100	-0.911314
0.354200	-0.861653
0.354300	-0.819133
0.354400	-0.832441
0.354500	-1.012908
0.354600	-1.145987
0.354700	-1.156374
0.354800	-1.161567
0.354900	-1.125538
0.355000	-1.114503
0.355100	-1.133004
0.355200	-1.137223
0.355300	-1.129109
0.355400	-1.171629
0.355500	-1.173901
0.355600	-1.190130
0.355700	-1.209605
0.355800	-1.223238
0.355900	-1.245634
0.356000	-1.252125
0.356100	-1.260240
0.356200	-1.274522
0.356300	-1.329701
0.356400	-1.358588
0.356500	-1.424803
0.356600	-1.508870
0.356700	-1.603973
0.356800	-1.782493
0.356900	-2.233988
0.357000	-2.405693
0.357100	-2.241778
0.357200	-1.983085
0.357300	-1.863314
0.357400	-2.149272
0.357500	-2.550782
0.357600	-2.876015
0.357700	-2.878287
0.357800	-2.712100
0.357900	-2.593951
0.358000	-2.684510
0.358100	-2.969170
0.358200	-3.155157
0.358300	-3.260647
0.358400	-3.217802
0.358500	-3.186642
0.358600	-3.183396
0.358700	-3.231110
0.358800	-3.293430
0.358900	-3.308361
0.359000	-3.319397
0.359100	-3.358347
0.359200	-3.381717
0.359300	-3.473574
0.359400	-3.541088
0.359500	-3.489804
0.359600	-3.475197
0.359700	-3.497269
0.359800	-3.577442
0.359900	-3.556668
0.360000	-3.400218
0.360100	-3.198002
0.360200	-3.270384
0.360300	-3.554396
0.360400	-3.796537
0.360500	-3.825100
0.360600	-3.514797
0.360700	-3.210012
0.360800	-3.206441
0.360900	-3.444686
0.361000	-3.729023
0.361100	-3.779658
0.361200	-3.620612
0.361300	-3.411254
0.361400	-3.375225
0.361500	-3.405412
0.361600	-3.463188
0.361700	-3.438195
0.361800	-3.353803
0.361900	-3.307063
0.362000	-3.250585
0.362100	-3.200923
0.362200	-3.089591
0.362300	-2.872444
0.362400	-2.730601
0.362500	-2.667307
0.362600	-2.613426
0.362700	-2.592328
0.362800	-2.419001
0.362900	-2.180432
0.363000	-2.010026
0.363100	-1.735753
0.363200	-1.740298
0.363300	-1.691935
0.363400	-1.596832
0.363500	-1.438760
0.363600	-1.288803
0.363700	-1.155400
0.363800	-1.122293
0.363900	-1.100870
0.364000	-1.096001
0.364100	-1.089834
0.364200	-1.100221
0.364300	-1.100546
0.364400	-0.991811
0.364500	-1.021348
0.364600	-0.914560
0.364700	-1.024593
0.364800	-0.968441
0.364900	-1.017128
0.365000	-1.011610
0.365100	-0.837959
0.365200	-0.536422
0.365300	-0.209244
0.365400	-0.329014
0.365500	-0.676966
0.365600	-0.978827
0.365700	-0.764279
0.365800	-0.429959
0.365900	-0.232938
0.366000	-0.081358
0.366100	-0.335831
0.366200	-0.432231
0.366300	-0.536422
0.366400	-0.339725
0.366500	-0.196910
0.366600	-0.114466
0.366700	-0.168671
0.366800	-0.139459
0.366900	-0.175487
0.367000	-0.221902
0.367100	-0.196910
0.367200	-0.157635
0.367300	-0.165750
0.367400	-0.178733
0.367500	-0.244623
0.367600	-0.280327
0.367700	-0.459821
0.367800	-0.463391
0.367900	-0.561415
0.368000	-0.596794
0.368100	-0.503964
0.368200	-0.524088
0.368300	-0.548107
0.368400	-0.886971
0.368500	-1.131056
0.368600	-0.980450
0.368700	-0.747725
0.368800	-0.599391
0.368900	-0.740259
0.369000	-1.095028
0.369100	-1.341386
0.369200	-1.255371
0.369300	-0.982722
0.369400	-0.821080
0.369500	-0.948966
0.369600	-1.164488
0.369700	-1.275495
0.369800	-1.210254
0.369900	-1.196946
0.370000	-1.151505
0.370100	-1.240441
0.370200	-1.320612
0.370300	-1.350149
0.370400	-1.333596
0.370500	-1.317691
0.370600	-1.381958
0.370700	-1.426426
0.370800	-1.410522
0.370900	-1.372221
0.371000	-1.361185
0.371100	-1.370273
0.371200	-1.574760
0.371300	-1.654608
0.371400	-1.682522
0.371500	-1.659152
0.371600	-1.549768
0.371700	-1.602999
0.371800	-1.598455
0.371900	-1.585796
0.372000	-1.583524
0.372100	-1.593262
0.372200	-1.608192
0.372300	-1.605920
0.372400	-1.631887
0.372500	-1.616307
0.372600	-1.641624
0.372700	-1.647467
0.372800	-1.676679
0.372900	-1.700049
0.373000	-1.687066
0.373100	-1.739324
0.373200	-1.763343
0.373300	-1.835076
0.373400	-1.858121
0.373500	-2.182379
0.373600	-2.473531
0.373700	-2.655947
0.373800	-2.356681
0.373900	-2.174265
0.374000	-2.102857
0.374100	-2.437826
0.374200	-2.818239
0.374300	-3.021428
0.374400	-2.915938
0.374500	-2.703985
0.374600	-2.618944
0.374700	-2.696844
0.374800	-2.962678
0.374900	-3.101601
0.375000	-3.138279
0.375100	-3.061352
0.375200	-3.030192
0.375300	-2.984750
0.375400	-3.022402
0.375500	-3.079529
0.375600	-3.073037
0.375700	-3.072713
0.375800	-3.047070
0.375900	-3.082450
0.376000	-3.103548
0.376100	-3.197353
0.376200	-3.109066
0.376300	-3.095758
0.376400	-3.136656
0.376500	-3.140226
0.376600	-3.127243
0.376700	-2.881857
0.376800	-2.742611
0.376900	-2.810773
0.377000	-3.153534
0.377100	-3.347311
0.377200	-3.311282
0.377300	-3.011366
0.377400	-2.758191
0.377500	-2.805255
0.377600	-3.097056
0.377700	-3.377822
0.377800	-3.431378
0.377900	-3.242470
0.378000	-3.054536
0.378100	-3.024025
0.378200	-3.083099
0.378300	-3.148665
0.378400	-3.111663
0.378500	-3.032789
0.378600	-2.938984
0.378700	-2.875041
0.378800	-2.818888
0.378900	-2.707231
0.379000	-2.504366
0.379100	-2.393359
0.379200	-2.356681
0.379300	-2.314485
0.379400	-2.276833
0.379500	-2.090847
0.379600	-1.892202
0.379700	-1.638054
0.379800	-1.464402
0.379900	-1.478359
0.380000	-1.416040
0.380100	-1.286207
0.380200	-1.142092
0.380300	-1.004469
0.380400	-0.854512
0.380500	-0.829195
0.380600	-0.804202
0.380700	-0.832116
0.380800	-0.767849
0.380900	-0.870741
0.381000	-0.773367
0.381100	-0.800307
0.381200	-0.672097
0.381300	-0.785376
0.381400	-0.716565
0.381500	-0.814264
0.381600	-0.858732
0.381700	-0.792517
0.381800	-0.643209
0.381900	-0.241377
0.382000	-0.077788
0.382100	-0.195287
0.382200	-0.624384
0.382300	-0.762980
0.382400	-0.484814
0.382500	-0.278380
0.382600	0.089047
0.382700	0.014393
0.382800	-0.131993
0.382900	-0.327391
0.383000	-0.295907
0.383100	-0.117387
0.383200	0.072493
0.383300	0.203300
0.383400	0.141954
0.383500	0.121830
0.383600	0.143577
0.383700	0.116312
0.383800	0.191615
0.383900	0.184798
0.384000	0.238030
0.384100	0.226994
0.384200	0.200378
0.384300	0.154937
0.384400	0.072169
0.384500	0.149419
0.384600	0.057238
0.384700	0.086126
0.384800	0.183500
0.384900	0.180254
0.385000	0.132216
0.385100	-0.211191
0.385200	-0.218332
0.385300	-0.055716
0.385400	0.287691
0.385500	0.407461
0.385600	0.323070
0.385700	-0.058313
0.385800	-0.164127
0.385900	-0.054418
0.386000	0.258803
0.386100	0.412006
0.386200	0.311710
0.386300	0.129944
0.386400	0.037763
0.386500	0.071844
0.386600	0.114364
0.386700	0.125725
0.386800	0.058212
0.386900	-0.010275
0.387000	-0.041110
0.387100	-0.020662
0.387200	-0.030724
0.387300	-0.109272
0.387400	-0.167697
0.387500	-0.140757
0.387600	-0.112843
0.387700	-0.105053
0.387800	-0.152442
0.387900	-0.347515
0.388000	-0.420222
0.388100	-0.448785
0.388200	-0.424766
0.388300	-0.311162
0.388400	-0.395878
0.388500	-0.391983
0.388600	-0.407563
0.388700	-0.420222
0.388800	-0.442618
0.388900	-0.493577
0.389000	-0.493253
0.389100	-0.544861
0.389200	-0.562389
0.389300	-0.592899
0.389400	-0.613348
0.389500	-0.686054
0.389600	-0.730847
0.389700	-0.753243
0.389800	-0.799333
0.389900	-0.898980
0.390000	-0.984345
0.390100	-1.070359
0.390200	-1.429023
0.390300	-1.819820
0.390400	-1.821443
0.390500	-1.711085
0.390600	-1.463429
0.390700	-1.586445
0.390800	-1.867859
0.390900	-2.347917
0.391000	-2.509559
0.391100	-2.450161
0.391200	-2.271640
0.391300	-2.260604
0.391400	-2.473855
0.391500	-2.715021
0.391600	-2.923728
0.391700	-2.983452
0.391800	-2.966573
0.391900	-2.998383
0.392000	-3.043825
0.392100	-3.160675
0.392200	-3.213258
0.392300	-3.246690
0.392400	-3.302194
0.392500	-3.358996
0.392600	-3.394051
0.392700	-3.454099
0.392800	-3.482014
0.392900	-3.528754
0.393000	-3.569327
0.393100	-3.640087
0.393200	-3.657614
0.393300	-3.624831
0.393400	-3.428133
0.393500	-3.358347
0.393600	-3.555045
0.393700	-3.888394
0.393800	-4.033484
0.393900	-3.952662
0.394000	-3.630674
0.394100	-3.444686
0.394200	-3.542711
0.394300	-3.841979
0.394400	-4.082821
0.394500	-4.065943
0.394600	-3.882552
0.394700	-3.695915
0.394800	-3.661834
0.394900	-3.773491
0.395000	-3.786475
0.395100	-3.748823
0.395200	-3.700459
0.395300	-3.666703
0.395400	-3.622234
0.395500	-3.538491
0.395600	-3.405736
0.395700	-3.229811
0.395800	-3.127243
0.395900	-3.130164
0.396000	-3.098679
0.396100	-3.063949
0.396200	-2.807852
0.396300	-2.616347
0.396400	-2.310590
0.396500	-2.237883
0.396600	-2.228470
0.396700	-2.143105
0.396800	-2.007105
0.396900	-1.866560
0.397000	-1.667591
0.397100	-1.565023
0.397200	-1.488097
0.397300	-1.446875
0.397400	-1.459534
0.397500	-1.418961
0.397600	-1.440383
0.397700	-1.343333
0.397800	-1.314445
0.397900	-1.207009
0.398000	-1.245309
0.398100	-1.213176
0.398200	-1.318340
0.398300	-1.231028
0.398400	-1.260889
0.398500	-0.907419
0.398600	-0.692871
0.398700	-0.345243
0.398800	-0.779534
0.398900	-1.101519
0.399000	-1.077500
0.399100	-0.818159
0.399200	-0.536097
0.399300	-0.353683
0.399400	-0.450083
0.399500	-0.653921
0.399600	-0.784727
0.399700	-0.702933
0.399800	-0.495525
0.399900	-0.279029
0.400000	-0.320251
0.400100	-0.234236
0.400200	-0.308241
0.400300	-0.321549
0.400400	-0.335506
0.400500	-0.261177
0.400600	-0.246895
0.400700	-0.219955
0.400800	-0.191067
0.400900	-0.241702
0.401000	-0.278704
0.401100	-0.459496
0.401200	-0.415353
0.401300	-0.535124
0.401400	-0.445539
0.401500	-0.443592
0.401600	-0.369587
0.401700	-0.601338
0.401800	-0.908393
0.401900	-0.914235
0.402000	-0.712021
0.402100	-0.412107
0.402200	-0.398150
0.402300	-0.578618
0.402400	-0.994083
0.402500	-1.050884
0.402600	-0.900928
0.402700	-0.592575
0.402800	-0.508508
0.402900	-0.679238
0.403000	-0.846722
0.403100	-0.906121
0.403200	-0.816536
0.403300	-0.805825
0.403400	-0.837309
0.403500	-0.910340
0.403600	-0.973634
0.403700	-0.964221
0.403800	-0.924947
0.403900	-0.977204
0.404000	-1.057376
0.404100	-1.104441
0.404200	-1.072631
0.404300	-1.019400
0.404400	-1.009338
0.404500	-1.096975
0.404600	-1.284259
0.404700	-1.299514
0.404800	-1.287180
0.404900	-1.275171
0.405000	-1.194999
0.405100	-1.239791
0.405200	-1.202789
0.405300	-1.205710
0.405400	-1.208307
0.405500	-1.174226
0.405600	-1.146312
0.405700	-1.141768
0.405800	-1.097949
0.405900	-1.106063
0.406000	-1.063868
0.406100	-1.086264
0.406200	-1.049911
0.406300	-1.068087
0.406400	-1.084316
0.406500	-1.079448
0.406600	-1.148259
0.406700	-1.153777
0.406800	-1.255047
0.406900	-1.590016
0.407000	-1.912326
0.407100	-1.848384
0.407200	-1.528345
0.407300	-1.364431
0.407400	-1.405004
0.407500	-1.837023
0.407600	-2.164527
0.407700	-2.258981
0.407800	-2.110647
0.407900	-1.953224
0.408000	-1.907782
0.408100	-2.110647
0.408200	-2.347592
0.408300	-2.470609
0.408400	-2.454056
0.408500	-2.430036
0.408600	-2.456003
0.408700	-2.486189
0.408800	-2.534552
0.408900	-2.614725
0.409000	-2.619593
0.409100	-2.704310
0.409200	-2.716644
0.409300	-2.802009
0.409400	-2.862707
0.409500	-2.926000
0.409600	-2.917561
0.409700	-2.977934
0.409800	-3.014287
0.409900	-3.081476
0.410000	-2.996760
0.410100	-2.759164
0.410200	-2.733522
0.410300	-2.974363
0.410400	-3.310308
0.410500	-3.418070
0.410600	-3.265516
0.410700	-2.907824
0.410800	-2.762410
0.410900	-2.922430
0.411000	-3.242470
0.411100	-3.403464
0.411200	-3.350881
0.411300	-3.133085
0.411400	-2.996111
0.411500	-2.957810
0.411600	-3.017209
0.411700	-3.024025
0.411800	-2.959757
0.411900	-2.903604
0.412000	-2.845179
0.412100	-2.751374
0.412200	-2.620242
0.412300	-2.433282
0.412400	-2.253788
0.412500	-2.155764
0.412600	-2.105453
0.412700	-2.059038
0.412800	-1.985033
0.412900	-1.741920
0.413000	-1.557233
0.413100	-1.212851
0.413200	-1.177472
0.413300	-1.129433
0.413400	-1.065166
0.413500	-0.917157
0.413600	-0.806150
0.413700	-0.600689
0.413800	-0.490981
0.413900	-0.463391
0.414000	-0.414055
0.414100	-0.454303
0.414200	-0.366017
0.414300	-0.425740
0.414400	-0.312461
0.414500	-0.245272
0.414600	-0.214762
0.414700	-0.161530
0.414800	-0.193664
0.414900	-0.158933
0.415000	-0.221578
0.415100	-0.076814
0.415200	0.237056
0.415300	0.537619
0.415400	0.753141
0.415500	0.321447
0.415600	0.121830
0.415700	0.041983
0.415800	0.491528
0.415900	0.687900
0.416000	0.892062
0.416100	0.717761
0.416200	0.517170
0.416300	0.408760
0.416400	0.527232
0.416500	0.742754
0.416600	0.883947
0.416700	0.908291
0.416800	0.925494
0.416900	0.869016
0.417000	0.831040
0.417100	0.805074
0.417200	0.834611
0.417300	0.839804
0.417400	0.863174
0.417500	0.868692
0.417600	0.758010
0.417700	0.710945
0.417800	0.686926
0.417900	0.587604
0.418000	0.500616
0.418100	0.593447
0.418200	0.582086
0.418300	0.609351
0.418400	0.390908
0.418500	0.035816
0.418600	0.058212
0.418700	0.240627
0.418800	0.508082
0.418900	0.420769
0.419000	0.142278
0.419100	-0.232289
0.419200	-0.259554
0.419300	-0.060585
0.419400	0.156235
0.419500	0.165324
0.419600	-0.062208
0.419700	-0.262800
0.419800	-0.236833
0.419900	-0.257606
0.420000	-0.245921
0.420100	-0.343945
0.420200	-0.427363
0.420300	-0.476699
0.420400	-0.465663
0.420500	-0.451057
0.420600	-0.540966
0.420700	-0.648403
0.420800	-0.682159
0.420900	-0.678264
0.421000	-0.636393
0.421100	-0.648078
0.421200	-0.808097
0.421300	-0.976880
0.421400	-1.006092
0.421500	-1.013233
0.421600	-0.940851
0.421700	-0.946369
0.421800	-0.981424
0.421900	-0.991161
0.422000	-1.017128
0.422100	-1.038226
0.422200	-1.042445
0.422300	-1.051534
0.422400	-1.089185
0.422500	-1.109634
0.422600	-1.146312
0.422700	-1.157997
0.422800	-1.179419
0.422900	-1.233624
0.423000	-1.207982
0.423100	-1.293997
0.423200	-1.283935
0.423300	-1.421882
0.423400	-1.454016
0.423500	-1.647791
0.423600	-1.968804
0.423700	-2.247621
0.423800	-2.107725
0.423900	-1.870131
0.424000	-1.757500
0.424100	-1.928556
0.424200	-2.366743
0.424300	-2.653350
0.424400	-2.685484
0.424500	-2.517025
0.424600	-2.395955
0.424700	-2.446266
0.424800	-2.670228
0.424900	-2.943853
0.425000	-3.072063
0.425100	-3.010068
0.425200	-3.014287
0.425300	-3.037657
0.425400	-3.116207
0.425500	-3.211310
0.425600	-3.260971
0.425700	-3.265191
0.425800	-3.291158
0.425900	-3.346013
0.426000	-3.394700
0.426100	-3.526157
0.426200	-3.509279
0.426300	-3.509279
0.426400	-3.557642
0.426500	-3.626779
0.426600	-3.648526
0.426700	-3.511226
0.426800	-3.327836
0.426900	-3.342118
0.427000	-3.658263
0.427100	-3.952662
0.427200	-4.048740
0.427300	-3.783229
0.427400	-3.491751
0.427500	-3.445660
0.427600	-3.664431
0.427700	-4.011412
0.427800	-4.133457
0.427900	-4.020501
0.428000	-3.816012
0.428100	-3.713118
0.428200	-3.771219
0.428300	-3.839382
0.428400	-3.852690
0.428500	-3.793291
0.428600	-3.746226
0.428700	-3.701758
0.428800	-3.643982
0.428900	-3.554396
0.429000	-3.352180
0.429100	-3.200274
0.429200	-3.114908
0.429300	-3.052264
0.429400	-3.028244
0.429500	-2.944502
0.429600	-2.692949
0.429700	-2.544290
0.429800	-2.201205
0.429900	-2.199907
0.430000	-2.170370
0.430100	-2.068451
0.430200	-1.910703
0.430300	-1.783142
0.430400	-1.620202
0.430500	-1.508221
0.430600	-1.449796
0.430700	-1.460183
0.430800	-1.401758
0.430900	-1.370273
0.431000	-1.365080
0.431100	-1.256994
0.431200	-1.270951
0.431300	-1.156049
0.431400	-1.255047
0.431500	-1.126837
0.431600	-1.184612
0.431700	-1.156698
0.431800	-1.025892
0.431900	-0.802579
0.432000	-0.344270
0.432100	-0.438398
0.432200	-0.576995
0.432300	-1.000899
0.432400	-0.787648
0.432500	-0.522465
0.432600	-0.297205
0.432700	-0.055716
0.432800	-0.200805
0.432900	-0.355630
0.433000	-0.381272
0.433100	-0.261826
0.433200	-0.022934
0.433300	0.072169
0.433400	0.165648
0.433500	0.125075
0.433600	0.162078
0.433700	0.142927
0.433800	0.200054
0.433900	0.267242
0.434000	0.248092
0.434100	0.287691
0.434200	0.236407
0.434300	0.233810
0.434400	0.133839
0.434500	0.173438
0.434600	0.096188
0.434700	-0.004757
0.434800	0.120856
0.434900	0.057887
0.435000	0.155586
0.435100	-0.245597
0.435200	-0.449110
0.435300	-0.369912
0.435400	-0.170618
0.435500	0.067949
0.435600	-0.051172
0.435700	-0.317979
0.435800	-0.609778
0.435900	-0.562389
0.436000	-0.343945
0.436100	-0.142704
0.436200	-0.174189
0.436300	-0.396527
0.436400	-0.539019
0.436500	-0.503315
0.436600	-0.518245
0.436700	-0.483515
0.436800	-0.587706
0.436900	-0.644508
0.437000	-0.712021
0.437100	-0.694818
0.437200	-0.707152
0.437300	-0.766875
0.437400	-0.846073
0.437500	-0.872364
0.437600	-0.854512
0.437700	-0.827572
0.437800	-0.850942
0.437900	-0.994407
0.438000	-1.086913
0.438100	-1.098923
0.438200	-1.109309
0.438300	-1.034655
0.438400	-1.062894
0.438500	-1.076202
0.438600	-1.092756
0.438700	-1.107686
0.438800	-1.120994
0.438900	-1.156374
0.439000	-1.214474
0.439100	-1.244985
0.439200	-1.272574
0.439300	-1.311199
0.439400	-1.359562
0.439500	-1.402732
0.439600	-1.440708
0.439700	-1.485500
0.439800	-1.511142
0.439900	-1.596832
0.440000	-1.686741
0.440100	-1.738675
0.440200	-1.957443
0.440300	-2.346619
0.440400	-2.557922
0.440500	-2.374208
0.440600	-2.115191
0.440700	-1.979515
0.440800	-2.211916
0.440900	-2.629006
0.441000	-2.871795
0.441100	-2.868549
0.441200	-2.694572
0.441300	-2.554677
0.441400	-2.608882
0.441500	-2.793895
0.441600	-2.960406
0.441700	-3.018507
0.441800	-2.945476
0.441900	-2.895490
0.442000	-2.810124
0.442100	-2.806878
0.442200	-2.826029
0.442300	-2.783184
0.442400	-2.791947
0.442500	-2.789026
0.442600	-2.736119
0.442700	-2.769876
0.442800	-2.745532
0.442900	-2.683536
0.443000	-2.624137
0.443100	-2.639068
0.443200	-2.652701
0.443300	-2.660166
0.443400	-2.429063
0.443500	-2.266122
0.443600	-2.311564
0.443700	-2.588109
0.443800	-2.781885
0.443900	-2.814019
0.444000	-2.540395
0.444100	-2.286246
0.444200	-2.286895
0.444300	-2.497550
0.444400	-2.770200
0.444500	-2.828301
0.444600	-2.705283
0.444700	-2.544614
0.444800	-2.515402
0.444900	-2.569283
0.445000	-2.628032
0.445100	-2.641665
0.445200	-2.599469
0.445300	-2.584214
0.445400	-2.560519
0.445500	-2.507287
0.445600	-2.394008
0.445700	-2.216136
0.445800	-2.091496
0.445900	-2.055792
0.446000	-2.030799
0.446100	-2.020088
0.446200	-1.891228
0.446300	-1.633510
0.446400	-1.452717
0.446500	-1.249204
0.446600	-1.285882
0.446700	-1.233624
0.446800	-1.133653
0.446900	-1.028488
0.447000	-0.926570
0.447100	-0.804851
0.447200	-0.787973
0.447300	-0.737663
0.447400	-0.749023
0.447500	-0.732145
0.447600	-0.747725
0.447700	-0.775639
0.447800	-0.666255
0.447900	-0.677940
0.448000	-0.584460
0.448100	-0.665930
0.448200	-0.619190
0.448300	-0.724030
0.448400	-0.726302
0.448500	-0.567582
0.448600	-0.279678
0.448700	-0.028776
0.448800	-0.028452
0.448900	-0.520842
0.449000	-0.660737
0.449100	-0.670150
0.449200	-0.261501
0.449300	-0.155363
0.449400	-0.054094
0.449500	-0.303372
0.449600	-0.449434
0.449700	-0.492928
0.449800	-0.375105
0.449900	-0.208594
0.450000	-0.096938
0.450100	-0.101158
0.450200	-0.135564
0.450300	-0.115440
0.450400	-0.113817
0.450500	-0.134590
0.450600	-0.052146
0.450700	-0.084280
0.450800	-0.057989
0.450900	-0.017416
0.451000	-0.084604
0.451100	-0.214437
0.451200	-0.207296
0.451300	-0.257282
0.451400	-0.261826
0.451500	-0.147249
0.451600	-0.138160
0.451700	-0.216060
0.451800	-0.531878
0.451900	-0.688651
0.452000	-0.524088
0.452100	-0.297205
0.452200	-0.103755
0.452300	-0.326742
0.452400	-0.650026
0.452500	-0.892813
0.452600	-0.783429
0.452700	-0.525062
0.452800	-0.429959
0.452900	-0.556546
0.453000	-0.769472
0.453100	-0.861004
0.453200	-0.818159
0.453300	-0.784727
0.453400	-0.732470
0.453500	-0.852565
0.453600	-0.910340
0.453700	-0.956107
0.453800	-0.947343
0.453900	-0.939553
0.454000	-0.954484
0.454100	-0.961624
0.454200	-0.933710
0.454300	-0.881777
0.454400	-0.834713
0.454500	-0.859056
0.454600	-1.018102
0.454700	-1.088211
0.454800	-1.080097
0.454900	-0.953185
0.455000	-0.905796
0.455100	-0.964221
0.455200	-0.971037
0.455300	-0.978178
0.455400	-0.982398
0.455500	-0.983696
0.455600	-0.982722
0.455700	-1.004145
0.455800	-1.010636
0.455900	-1.002846
0.456000	-1.016154
0.456100	-1.069386
0.456200	-1.061596
0.456300	-1.105090
0.456400	-1.133653
0.456500	-1.189157
0.456600	-1.250827
0.456700	-1.311849
0.456800	-1.375791
0.456900	-1.650713
0.457000	-2.027878
0.457100	-2.141157
0.457200	-1.983735
0.457300	-1.757176
0.457400	-1.759448
0.457500	-2.083057
0.457600	-2.532605
0.457700	-2.733522
0.457800	-2.688730
0.457900	-2.521244
0.458000	-2.446590
0.458100	-2.628032
0.458200	-2.938984
0.458300	-3.146393
0.458400	-3.233382
0.458500	-3.170737
0.458600	-3.178202
0.458700	-3.207090
0.458800	-3.252532
0.458900	-3.312256
0.459000	-3.317774
0.459100	-3.337249
0.459200	-3.338223
0.459300	-3.391779
0.459400	-3.442090
0.459500	-3.475197
0.459600	-3.494673
0.459700	-3.513498
0.459800	-3.545308
0.459900	-3.602435
0.460000	-3.565757
0.460100	-3.355101
0.460200	-3.181124
0.460300	-3.311282
0.460400	-3.634893
0.460500	-3.806274
0.460600	-3.752069
0.460700	-3.411903
0.460800	-3.144121
0.460900	-3.165219
0.461000	-3.414175
0.461100	-3.647877
0.461200	-3.658588
0.461300	-3.389507
0.461400	-3.175606
0.461500	-3.081801
0.461600	-3.083424
0.461700	-3.071414
0.461800	-3.000006
0.461900	-2.895165
0.462000	-2.790974
0.462100	-2.696520
0.462200	-2.552080
0.462300	-2.332012
0.462400	-2.111620
0.462500	-1.988279
0.462600	-1.933424
0.462700	-1.893825
0.462800	-1.838646
0.462900	-1.634159
0.463000	-1.399161
0.463100	-1.306655
0.463200	-1.004794
0.463300	-1.006092
0.463400	-0.929815
0.463500	-0.798684
0.463600	-0.665281
0.463700	-0.531553
0.463800	-0.417625
0.463900	-0.361797
0.464000	-0.343945
0.464100	-0.385816
0.464200	-0.364718
0.464300	-0.408212
0.464400	-0.388737
0.464500	-0.356604
0.464600	-0.353033
0.464700	-0.362446
0.464800	-0.408212
0.464900	-0.411458
0.465000	-0.542914
0.465100	-0.462093
0.465200	-0.325119
0.465300	0.055940
0.465400	0.155262
0.465500	0.094240
0.465600	-0.418274
0.465700	-0.541940
0.465800	-0.366341
0.465900	-0.111220
0.466000	0.153639
0.466100	0.055940
0.466200	-0.138160
0.466300	-0.299477
0.466400	-0.230666
0.466500	-0.046953
0.466600	0.117286
0.466700	0.177333
0.466800	0.098460
0.466900	0.063080
0.467000	0.066326
0.467100	0.038088
0.467200	0.077362
0.467300	0.107548
0.467400	0.102355
0.467500	0.073467
0.467600	0.046527
0.467700	-0.075191
0.467800	-0.047602
0.467900	-0.125502
0.468000	-0.098886
0.468100	-0.116089
0.468200	-0.070323
0.468300	-0.042409
0.468400	-0.178084
0.468500	-0.473778
0.468600	-0.551353
0.468700	-0.375105
0.468800	-0.067726
0.468900	0.066326
0.469000	-0.084929
0.469100	-0.496498
0.469200	-0.612374
0.469300	-0.484489
0.469400	-0.154389
0.469500	-0.003783
0.469600	-0.154389
0.469700	-0.330313
0.469800	-0.402370
0.469900	-0.392308
0.470000	-0.336480
0.470100	-0.350437
0.470200	-0.402694
0.470300	-0.494876
0.470400	-0.534799
0.470500	-0.511105
0.470600	-0.531553
0.470700	-0.611400
0.470800	-0.659763
0.470900	-0.547458
0.471000	-0.452355
0.471100	-0.492928
0.471200	-0.577319
0.471300	-0.766551
0.471400	-0.798035
0.471500	-0.771744
0.471600	-0.761357
0.471700	-0.661061
0.471800	-0.670150
0.471900	-0.639964
0.472000	-0.607505
0.472100	-0.601014
0.472200	-0.570503
0.472300	-0.591926
0.472400	-0.591276
0.472500	-0.625033
0.472600	-0.638016
0.472700	-0.670474
0.472800	-0.714618
0.472900	-0.727925
0.473000	-0.783104
0.473100	-0.826598
0.473200	-0.900928
0.473300	-0.968765
0.473400	-1.021348
0.473500	-1.064517
0.473600	-1.382283
0.473700	-1.719200
0.473800	-1.723095
0.473900	-1.421882
0.474000	-1.141118
0.474100	-1.165137
0.474200	-1.424803
0.474300	-1.764966
0.474400	-1.913625
0.474500	-1.699400
0.474600	-1.445901
0.474700	-1.309577
0.474800	-1.458560
0.474900	-1.623448
0.475000	-1.765290
0.475100	-1.755877
0.475200	-1.671811
0.475300	-1.652011
0.475400	-1.636106
0.475500	-1.677004
0.475600	-1.704918
0.475700	-1.701348
0.475800	-1.739648
0.475900	-1.751658
0.476000	-1.759772
0.476100	-1.873701
0.476200	-1.807162
0.476300	-1.763343
0.476400	-1.770159
0.476500	-1.785415
0.476600	-1.832479
0.476700	-1.709787
0.476800	-1.481605
0.476900	-1.356316
0.477000	-1.497185
0.477100	-1.848059
0.477200	-1.961988
0.477300	-1.842541
0.477400	-1.465701
0.477500	-1.228106
0.477600	-1.348526
0.477700	-1.626369
0.477800	-1.835400
0.477900	-1.782818
0.478000	-1.517958
0.478100	-1.310550
0.478200	-1.260565
0.478300	-1.311199
0.478400	-1.308603
0.478500	-1.232975
0.478600	-1.194350
0.478700	-1.153452
0.478800	-1.124240
0.478900	-1.069061
0.479000	-0.945395
0.479100	-0.828870
0.479200	-0.760059
0.479300	-0.789921
0.479400	-0.835687
0.479500	-0.868469
0.479600	-0.732794
0.479700	-0.609128
0.479800	-0.416002
0.479900	-0.372833
0.480000	-0.410160
0.480100	-0.433530
0.480200	-0.363095
0.480300	-0.308566
0.480400	-0.201778
0.480500	-0.155363
0.480600	-0.139134
0.480700	-0.226771
0.480800	-0.264423
0.480900	-0.300776
0.481000	-0.384518
0.481100	-0.401071
0.481200	-0.388088
0.481300	-0.425740
0.481400	-0.404317
0.481500	-0.537720
0.481600	-0.566933
0.481700	-0.701310
0.481800	-0.612050
0.481900	-0.494226
0.482000	-0.109272
0.482100	-0.043382
0.482200	-0.305320
0.482300	-0.713319
0.482400	-0.796088
0.482500	-0.502016
0.482600	-0.247869
0.482700	-0.078437
0.482800	-0.132642
0.482900	-0.393281
0.483000	-0.523114
0.483100	-0.528308
0.483200	-0.270265
0.483300	-0.184575
0.483400	-0.072919
0.483500	-0.168346
0.483600	-0.279029
0.483700	-0.307916
0.483800	-0.345568
0.483900	-0.288766
0.484000	-0.281301
0.484100	-0.285196
0.484200	-0.303372
0.484300	-0.359525
0.484400	-0.470857
0.484500	-0.531878
0.484600	-0.542265
0.484700	-0.628603
0.484800	-0.551028
0.484900	-0.538045
0.485000	-0.544212
0.485100	-0.727925
0.485200	-1.084641
0.485300	-1.137548
0.485400	-1.005768
0.485500	-0.689949
0.485600	-0.657491
0.485700	-0.907095
0.485800	-1.330674
0.485900	-1.418961
0.486000	-1.271276
0.486100	-1.014531
0.486200	-0.934360
0.486300	-1.122617
0.486400	-1.346254
0.486500	-1.413767
0.486600	-1.413118
0.486700	-1.405653
0.486800	-1.432593
0.486900	-1.550417
0.487000	-1.624422
0.487100	-1.658178
0.487200	-1.685768
0.487300	-1.780870
0.487400	-1.895448
0.487500	-1.959066
0.487600	-1.974322
0.487700	-1.973673
0.487800	-1.992823
0.487900	-2.079487
0.488000	-2.260604
0.488100	-2.310914
0.488200	-2.314809
0.488300	-2.357654
0.488400	-2.297282
0.488500	-2.326494
0.488600	-2.328442
0.488700	-2.337530
0.488800	-2.351163
0.488900	-2.343697
0.489000	-2.341425
0.489100	-2.352461
0.489200	-2.350838
0.489300	-2.357330
0.489400	-2.366743
0.489500	-2.367392
0.489600	-2.357654
0.489700	-2.327144
0.489800	-2.335258
0.489900	-2.300203
0.490000	-2.334609
0.490100	-2.354084
0.490200	-2.451784
0.490300	-2.745207
0.490400	-3.005848
0.490500	-2.945476
0.490600	-2.663737
0.490700	-2.380700
0.490800	-2.484891
0.490900	-2.842258
0.491000	-3.146718
0.491100	-3.263568
0.491200	-3.123023
0.491300	-2.910745
0.491400	-2.832520
0.491500	-2.958459
0.491600	-3.157104
0.491700	-3.259998
0.491800	-3.237926
0.491900	-3.149314
0.492000	-3.081801
0.492100	-3.072713
0.492200	-3.053887
0.492300	-3.064598
0.492400	-3.018182
0.492500	-3.025648
0.492600	-3.002278
0.492700	-2.956187
0.492800	-3.010392
0.492900	-2.987996
0.493000	-2.959757
0.493100	-2.991242
0.493200	-3.024999
0.493300	-3.049667
0.493400	-2.892893
0.493500	-2.675422
0.493600	-2.606285
0.493700	-2.844530
0.493800	-3.149639
0.493900	-3.261296
0.494000	-3.077257
0.494100	-2.734171
0.494200	-2.541369
0.494300	-2.644911
0.494400	-2.925676
0.494500	-3.064922
0.494600	-3.031166
0.494700	-2.851995
0.494800	-2.725083
0.494900	-2.719240
0.495000	-2.769551
0.495100	-2.825379
0.495200	-2.833819
0.495300	-2.849399
0.495400	-2.839661
0.495500	-2.776367
0.495600	-2.693274
0.495700	-2.542667
0.495800	-2.412834
0.495900	-2.360576
0.496000	-2.306046
0.496100	-2.302151
0.496200	-2.227496
0.496300	-1.967181
0.496400	-1.797099
0.496500	-1.490369
0.496600	-1.440383
0.496700	-1.378063
0.496800	-1.318016
0.496900	-1.194999
0.497000	-1.084316
0.497100	-0.949615
0.497200	-0.855811
0.497300	-0.828546
0.497400	-0.820756
0.497500	-0.853539
0.497600	-0.801605
0.497700	-0.861004
0.497800	-0.800956
0.497900	-0.735391
0.498000	-0.663009
0.498100	-0.674694
0.498200	-0.741233
0.498300	-0.753567
0.498400	-0.777586
0.498500	-0.659439
0.498600	-0.355630
0.498700	-0.020013
0.498800	0.212063
0.498900	-0.279678
0.499000	-0.492928
0.499100	-0.560766
0.499200	-0.180031
0.499300	0.068598
0.499400	0.320798
0.499500	0.221476
0.499600	0.002059
0.499700	-0.046304
0.499800	0.077687
0.499900	0.280875
0.500000	0.470755
0.500100	0.563585
0.500200	0.558716
0.500300	0.565857
0.500400	0.606755
0.500500	0.634993
0.500600	0.697313
0.500700	0.712568
0.500800	0.765150
0.500900	0.795012
0.501000	0.815785
0.501100	0.649599
0.501200	0.618439
0.501300	0.572024
0.501400	0.534373
0.501500	0.597666
0.501600	0.593447
0.501700	0.559041
0.501800	0.246144
0.501900	-0.047602
0.502000	-0.046304
0.502100	0.137410
0.502200	0.388311
0.502300	0.298402
0.502400	0.019262
0.502500	-0.365692
0.502600	-0.395554
0.502700	-0.245272
0.502800	-0.070323
0.502900	-0.082981
0.503000	-0.260852
0.503100	-0.412107
0.503200	-0.399124
0.503300	-0.414704
0.503400	-0.409835
0.503500	-0.507534
0.503600	-0.584460
0.503700	-0.672746
0.503800	-0.709749
0.503900	-0.706828
0.504000	-0.789596
0.504100	-0.832765
0.504200	-0.879830
0.504300	-0.863276
0.504400	-0.833739
0.504500	-0.820107
0.504600	-0.974608
0.504700	-1.126512
0.504800	-1.172278
0.504900	-1.176822
0.505000	-1.044068
0.505100	-1.106063
0.505200	-1.181042
0.505300	-1.194350
0.505400	-1.219992
0.505500	-1.230054
0.505600	-1.237195
0.505700	-1.267705
0.505800	-1.269977
0.505900	-1.303409
0.506000	-1.305357
0.506100	-1.334894
0.506200	-1.336192
0.506300	-1.298541
0.506400	-1.332946
0.506500	-1.299514
0.506600	-1.363457
0.506700	-1.368001
0.506800	-1.452068
0.506900	-1.580278
0.507000	-1.908431
0.507100	-2.152193
0.507200	-2.021062
0.507300	-1.774703
0.507400	-1.595858
0.507500	-1.742245
0.507600	-2.168098
0.507700	-2.467364
0.507800	-2.511507
0.507900	-2.318055
0.508000	-2.145052
0.508100	-2.193740
0.508200	-2.412509
0.508300	-2.631278
0.508400	-2.713398
0.508500	-2.604338
0.508600	-2.568634
0.508700	-2.565388
0.508800	-2.573178
0.508900	-2.616023
0.509000	-2.581292
0.509100	-2.569932
0.509200	-2.528710
0.509300	-2.514753
0.509400	-2.611154
0.509500	-2.562467
0.509600	-2.529034
0.509700	-2.440423
0.509800	-2.472557
0.509900	-2.505015
0.510000	-2.457301
0.510100	-2.306695
0.510200	-2.102532
0.510300	-2.090847
0.510400	-2.361225
0.510500	-2.598820
0.510600	-2.675422
0.510700	-2.405693
0.510800	-2.112919
0.510900	-2.029176
0.511000	-2.235286
0.511100	-2.563440
0.511200	-2.677694
0.511300	-2.546237
0.511400	-2.339153
0.511500	-2.283649
0.511600	-2.337206
0.511700	-2.387516
0.511800	-2.393683
0.511900	-2.339802
0.512000	-2.295659
0.512100	-2.235611
0.512200	-2.179783
0.512300	-2.117463
0.512400	-2.006131
0.512500	-1.813978
0.512600	-1.752632
0.512700	-1.685443
0.512800	-1.632536
0.512900	-1.534188
0.513000	-1.325481
0.513100	-1.283935
0.513200	-1.136899
0.513300	-1.029462
0.513400	-0.963247
0.513500	-0.874312
0.513600	-0.752918
0.513700	-0.640288
0.513800	-0.510131
0.513900	-0.449759
0.514000	-0.400422
0.514100	-0.443267
0.514200	-0.374456
0.514300	-0.435477
0.514400	-0.373482
0.514500	-0.359200
0.514600	-0.284871
0.514700	-0.283897
0.514800	-0.295258
0.514900	-0.321549
0.515000	-0.422169
0.515100	-0.401721
0.515200	-0.362446
0.515300	-0.119984
0.515400	0.149095
0.515500	0.161104
0.515600	-0.314733
0.515700	-0.626980
0.515800	-0.621138
0.515900	-0.360499
0.516000	-0.078762
0.516100	-0.119335
0.516200	-0.185874
0.516300	-0.524413
0.516400	-0.573100
0.516500	-0.480269
0.516600	-0.297854
0.516700	-0.195287
0.516800	-0.237482
0.516900	-0.303697
0.517000	-0.402045
0.517100	-0.456900
0.517200	-0.468909
0.517300	-0.427038
0.517400	-0.471506
0.517500	-0.465014
0.517600	-0.522465
0.517700	-0.597443
0.517800	-0.742532
0.517900	-0.806474
0.518000	-0.861329
0.518100	-0.954159
0.518200	-0.834388
0.518300	-0.899305
0.518400	-0.843801
0.518500	-1.186235
0.518600	-1.495238
0.518700	-1.431619
0.518800	-1.156698
0.518900	-0.979152
0.519000	-1.083018
0.519100	-1.439734
0.519200	-1.719200
0.519300	-1.676030
0.519400	-1.449796
0.519500	-1.231028
0.519600	-1.273223
0.519700	-1.475114
0.519800	-1.597157
0.519900	-1.528345
0.520000	-1.492966
0.520100	-1.397214
0.520200	-1.498483
0.520300	-1.549118
0.520400	-1.600727
0.520500	-1.538083
0.520600	-1.527371
0.520700	-1.566970
0.520800	-1.597157
0.520900	-1.587419
0.521000	-1.505949
0.521100	-1.461806
0.521200	-1.444603
0.521300	-1.576708
0.521400	-1.655906
0.521500	-1.651362
0.521600	-1.628966
0.521700	-1.447199
0.521800	-1.474140
0.521900	-1.476412
0.522000	-1.443304
0.522100	-1.435839
0.522200	-1.398188
0.522300	-1.368001
0.522400	-1.349825
0.522500	-1.334569
0.522600	-1.291075
0.522700	-1.269004
0.522800	-1.250503
0.522900	-1.195973
0.523000	-1.208307
0.523100	-1.157023
0.523200	-1.184612
0.523300	-1.147285
0.523400	-1.197920
0.523500	-1.123266
0.523600	-1.343982
0.523700	-1.652985
0.523800	-1.790283
0.523900	-1.589367
0.524000	-1.246283
0.524100	-1.110932
0.524200	-1.237195
0.524300	-1.603648
0.524400	-1.815601
0.524500	-1.745491
0.524600	-1.548145
0.524700	-1.393968
0.524800	-1.454989
0.524900	-1.663371
0.525000	-1.843515
0.525100	-1.882789
0.525200	-1.846761
0.525300	-1.835725
0.525400	-1.843839
0.525500	-1.887983
0.525600	-1.938618
0.525700	-1.989253
0.525800	-2.059038
0.525900	-2.094093
0.526000	-2.137912
0.526100	-2.224900
0.526200	-2.393683
0.526300	-2.357330
0.526400	-2.417702
0.526500	-2.509559
0.526600	-2.624462
0.526700	-2.642314
0.526800	-2.499173
0.526900	-2.386542
0.527000	-2.472557
0.527100	-2.824406
0.527200	-3.084398
0.527300	-3.185992
0.527400	-2.941580
0.527500	-2.688080
0.527600	-2.698143
0.527700	-2.990268
0.527800	-3.318098
0.527900	-3.432028
0.528000	-3.290833
0.528100	-3.123023
0.528200	-3.101925
0.528300	-3.175930
0.528400	-3.255778
0.528500	-3.261945
0.528600	-3.232083
0.528700	-3.226241
0.528800	-3.185992
0.528900	-3.129515
0.529000	-2.993189
0.529100	-2.829924
0.529200	-2.699765
0.529300	-2.650104
0.529400	-2.619269
0.529500	-2.595250
0.529600	-2.418027
0.529700	-2.189196
0.529800	-2.085329
0.529900	-1.766589
0.530000	-1.764317
0.530100	-1.688040
0.530200	-1.594884
0.530300	-1.466025
0.530400	-1.323209
0.530500	-1.192727
0.530600	-1.150207
0.530700	-1.158646
0.530800	-1.154751
0.530900	-1.147285
0.531000	-1.129433
0.531100	-1.120994
0.531200	-1.058999
0.531300	-1.026216
0.531400	-0.992460
0.531500	-1.004794
0.531600	-1.052507
0.531700	-1.082694
0.531800	-1.109309
0.531900	-0.951562
0.532000	-0.689949
0.532100	-0.308890
0.532200	-0.462093
0.532300	-0.723381
0.532400	-1.073281
0.532500	-0.771744
0.532600	-0.494226
0.532700	-0.187821
0.532800	-0.136213
0.532900	-0.362446
0.533000	-0.514675
0.533100	-0.502666
0.533200	-0.292986
0.533300	-0.098561
0.533400	-0.016442
0.533500	-0.024232
0.533600	-0.155363
0.533700	-0.112518
0.533800	-0.162828
0.533900	-0.097912
0.534000	-0.106351
0.534100	-0.104404
0.534200	-0.081034
0.534300	-0.128098
0.534400	-0.152766
0.534500	-0.299153
0.534600	-0.243325
0.534700	-0.326742
0.534800	-0.346542
0.534900	-0.279029
0.535000	-0.201129
0.535100	-0.291687
0.535200	-0.553625
0.535300	-0.774341
0.535400	-0.594522
0.535500	-0.327716
0.535600	-0.112194
0.535700	-0.251439
0.535800	-0.603611
0.535900	-0.814264
0.536000	-0.698064
0.536100	-0.403019
0.536200	-0.217034
0.536300	-0.324146
0.536400	-0.511429
0.536500	-0.618217
0.536600	-0.575047
0.536700	-0.526685
0.536800	-0.462742
0.536900	-0.562713
0.537000	-0.638990
0.537100	-0.727601
0.537200	-0.712021
0.537300	-0.738312
0.537400	-0.791543
0.537500	-0.822703
0.537600	-0.823677
0.537700	-0.801281
0.537800	-0.788947
0.537900	-0.855811
0.538000	-1.029787
0.538100	-1.106388
0.538200	-1.107037
0.538300	-0.968441
0.538400	-0.955133
0.538500	-1.054779
0.538600	-1.064842
0.538700	-1.084316
0.538800	-1.107037
0.538900	-1.119696
0.539000	-1.159295
0.539100	-1.186884
0.539200	-1.197920
0.539300	-1.210254
0.539400	-1.231352
0.539500	-1.276469
0.539600	-1.276145
0.539700	-1.301137
0.539800	-1.336517
0.539900	-1.415715
0.540000	-1.405328
0.540100	-1.524775
0.540200	-1.532889
0.540300	-1.832154
0.540400	-2.166150
0.540500	-2.293711
0.540600	-2.065530
0.540700	-1.749386
0.540800	-1.785090
0.540900	-1.985682
0.541000	-2.485216
0.541100	-2.680615
0.541200	-2.636472
0.541300	-2.444643
0.541400	-2.306370
0.541500	-2.473531
0.541600	-2.693598
0.541700	-2.953266
0.541800	-3.005524
0.541900	-3.011691
0.542000	-2.971118
0.542100	-2.973714
0.542200	-3.009419
0.542300	-3.094135
0.542400	-3.154508
0.542500	-3.190861
0.542600	-3.224618
0.542700	-3.223644
0.542800	-3.331731
0.542900	-3.366786
0.543000	-3.374576
0.543100	-3.371330
0.543200	-3.373927
0.543300	-3.442090
0.543400	-3.368734
0.543500	-3.181124
0.543600	-3.038631
0.543700	-3.170737
0.543800	-3.489155
0.543900	-3.643657
0.544000	-3.624831
0.544100	-3.302518
0.544200	-3.060378
0.544300	-3.102574
0.544400	-3.409631
0.544500	-3.689748
0.544600	-3.723505
0.544700	-3.539465
0.544800	-3.383664
0.544900	-3.324265
0.545000	-3.387235
0.545100	-3.434624
0.545200	-3.443064
0.545300	-3.428782
0.545400	-3.387560
0.545500	-3.301220
0.545600	-3.212284
0.545700	-3.047395
0.545800	-2.885752
0.545900	-2.775718
0.546000	-2.741312
0.546100	-2.701064
0.546200	-2.666009
0.546300	-2.463793
0.546400	-2.247296
0.546500	-2.128174
0.546600	-1.892202
0.546700	-1.905835
0.546800	-1.848384
0.546900	-1.729262
0.547000	-1.620851
0.547100	-1.461806
0.547200	-1.313472
0.547300	-1.298216
0.547400	-1.261214
0.547500	-1.305032
0.547600	-1.277118
0.547700	-1.323209
0.547800	-1.309252
0.547900	-1.261863
0.548000	-1.226483
0.548100	-1.226159
0.548200	-1.266407
0.548300	-1.316717
0.548400	-1.248880
0.548500	-1.246608
0.548600	-0.990837
0.548700	-0.733119
0.548800	-0.385492
0.548900	-0.584136
0.549000	-0.900603
0.549100	-1.023295
0.549200	-0.709100
0.549300	-0.335506
0.549400	-0.070972
0.549500	-0.092394
0.549600	-0.195611
0.549700	-0.347191
0.549800	-0.263449
0.549900	0.006928
0.550000	0.260101
0.550100	0.377275
0.550200	0.468158
0.550300	0.428235
0.550400	0.443165
0.550500	0.452903
0.550600	0.547681
0.550700	0.555471
0.550800	0.611623
0.550900	0.644731
0.551000	0.631747
0.551100	0.511652
0.551200	0.394478
0.551300	0.319824
0.551400	0.285419
0.551500	0.246144
0.551600	0.373705
0.551700	0.264646
0.551800	0.177009
0.551900	-0.267668
0.552000	-0.338752
0.552100	-0.199506
0.552200	0.100732
0.552300	0.108197
0.552400	-0.091096
0.552500	-0.509157
0.552600	-0.646780
0.552700	-0.590952
0.552800	-0.348165
0.552900	-0.254036
0.553000	-0.402370
0.553100	-0.595496
0.553200	-0.685730
0.553300	-0.735391
0.553400	-0.700336
0.553500	-0.699362
0.553600	-0.794789
0.553700	-0.864574
0.553800	-0.898655
0.553900	-0.853214
0.554000	-0.912288
0.554100	-0.991161
0.554200	-1.049262
0.554300	-1.036603
0.554400	-1.009987
0.554500	-1.011610
0.554600	-1.095028
0.554700	-1.291075
0.554800	-1.381958
0.554900	-1.427400
0.555000	-1.423830
0.555100	-1.306655
0.555200	-1.380985
0.555300	-1.419935
0.555400	-1.434865
0.555500	-1.437462
0.555600	-1.478684
0.555700	-1.507896
0.555800	-1.542951
0.555900	-1.582875
0.556000	-1.620527
0.556100	-1.641300
0.556200	-1.686092
0.556300	-1.723419
0.556400	-1.716603
0.556500	-1.807811
0.556600	-1.850006
0.556700	-1.938618
0.556800	-1.988603
0.556900	-2.080460
0.557000	-2.417053
0.557100	-2.780262
0.557200	-2.783508
0.557300	-2.581292
0.557400	-2.352136
0.557500	-2.470609
0.557600	-2.798114
0.557700	-3.183720
0.557800	-3.263244
0.557900	-3.129839
0.558000	-2.932168
0.558100	-2.890621
0.558200	-3.049992
0.558300	-3.297000
0.558400	-3.416448
0.558500	-3.440467
0.558600	-3.325888
0.558700	-3.315177
0.558800	-3.371655
0.558900	-3.449231
0.559000	-3.465460
0.559100	-3.459617
0.559200	-3.450204
0.559300	-3.495322
0.559400	-3.519341
0.559500	-3.683906
0.559600	-3.574520
0.559700	-3.576468
0.559800	-3.625805
0.559900	-3.728049
0.560000	-3.760183
0.560100	-3.650798
0.560200	-3.396648
0.560300	-3.326538
0.560400	-3.504735
0.560500	-3.891316
0.560600	-3.987393
0.560700	-3.898781
0.560800	-3.604707
0.560900	-3.427808
0.561000	-3.536869
0.561100	-3.831267
0.561200	-4.064969
0.561300	-4.061074
0.561400	-3.858208
0.561500	-3.709548
0.561600	-3.654368
0.561700	-3.712794
0.561800	-3.766026
0.561900	-3.789396
0.562000	-3.778685
0.562100	-3.706302
0.562200	-3.632297
0.562300	-3.583284
0.562400	-3.474548
0.562500	-3.316475
0.562600	-3.222346
0.562700	-3.209687
0.562800	-3.213258
0.562900	-3.201248
0.563000	-3.002602
0.563100	-2.831222
0.563200	-2.534228
0.563300	-2.485865
0.563400	-2.497225
0.563500	-2.469311
0.563600	-2.334609
0.563700	-2.199258
0.563800	-2.053520
0.563900	-1.956470
0.564000	-1.913949
0.564100	-1.893501
0.564200	-1.875649
0.564300	-1.831181
0.564400	-1.827610
0.564500	-1.797099
0.564600	-1.698102
0.564700	-1.637405
0.564800	-1.591963
0.564900	-1.630913
0.565000	-1.589691
0.565100	-1.650388
0.565200	-1.526073
0.565300	-1.334245
0.565400	-0.938904
0.565500	-0.840555
0.565600	-0.989863
0.565700	-1.485176
0.565800	-1.474140
0.565900	-1.265758
0.566000	-0.933386
0.566100	-0.685405
0.566200	-0.748049
0.566300	-0.945395
0.566400	-1.061271
0.566500	-0.987916
0.566600	-0.729224
0.566700	-0.530255
0.566800	-0.414379
0.566900	-0.489358
0.567000	-0.534150
0.567100	-0.532527
0.567200	-0.350761
0.567300	-0.317654
0.567400	-0.273186
0.567500	-0.281301
0.567600	-0.283248
0.567700	-0.326742
0.567800	-0.247544
0.567900	-0.400098
0.568000	-0.410809
0.568100	-0.495525
0.568200	-0.397826
0.568300	-0.329988
0.568400	-0.319601
0.568500	-0.500069
0.568600	-0.931763
0.568700	-0.882102
0.568800	-0.745453
0.568900	-0.422169
0.569000	-0.492279
0.569100	-0.660412
0.569200	-1.088536
0.569300	-1.201491
0.569400	-1.101519
0.569500	-0.881128
0.569600	-0.782131
0.569700	-0.937930
0.569800	-1.174550
0.569900	-1.297242
0.570000	-1.334245
0.570100	-1.302436
0.570200	-1.302111
0.570300	-1.396240
0.570400	-1.468297
0.570500	-1.551390
0.570600	-1.544574
0.570700	-1.572813
0.570800	-1.659801
0.570900	-1.690961
0.571000	-1.674083
0.571100	-1.673433
0.571200	-1.644546
0.571300	-1.729586
0.571400	-1.879219
0.571500	-1.938618
0.571600	-1.954847
0.571700	-1.900966
0.571800	-1.832479
0.571900	-1.867859
0.572000	-1.875649
0.572100	-1.882465
0.572200	-1.829882
0.572300	-1.856174
0.572400	-1.886684
0.572500	-1.899343
0.572600	-1.886684
0.572700	-1.876947
0.572800	-1.906808
0.572900	-1.862341
0.573000	-1.882465
0.573100	-1.889281
0.573200	-1.942513
0.573300	-1.986331
0.573400	-2.053520
0.573500	-2.104804
0.573600	-2.212566
0.573700	-2.557273
0.573800	-2.802659
0.573900	-2.812721
0.574000	-2.458275
0.574100	-2.291439
0.574200	-2.312537
0.574300	-2.676071
0.574400	-3.006173
0.574500	-3.112636
0.574600	-2.945151
0.574700	-2.714047
0.574800	-2.697818
0.574900	-2.846802
0.575000	-3.054536
0.575100	-3.189887
0.575200	-3.172684
0.575300	-3.122049
0.575400	-3.103223
0.575500	-3.185343
0.575600	-3.219100
0.575700	-3.276552
0.575800	-3.311931
0.575900	-3.309659
0.576000	-3.340170
0.576100	-3.396648
0.576200	-3.495646
0.576300	-3.421641
0.576400	-3.434300
0.576500	-3.488505
0.576600	-3.547255
0.576700	-3.556993
0.576800	-3.384314
0.576900	-3.145095
0.577000	-3.150613
0.577100	-3.334328
0.577200	-3.625156
0.577300	-3.697214
0.577400	-3.593346
0.577500	-3.307387
0.577600	-3.169439
0.577700	-3.306089
0.577800	-3.577442
0.577900	-3.777711
0.578000	-3.735839
0.578100	-3.574196
0.578200	-3.412877
0.578300	-3.357373
0.578400	-3.361917
0.578500	-3.396972
0.578600	-3.373602
0.578700	-3.305115
0.578800	-3.223644
0.578900	-3.108741
0.579000	-3.003251
0.579100	-2.850048
0.579200	-2.669904
0.579300	-2.571230
0.579400	-2.530008
0.579500	-2.478724
0.579600	-2.373559
0.579700	-2.096689
0.579800	-1.971400
0.579900	-1.624422
0.580000	-1.555610
0.580100	-1.481605
0.580200	-1.411820
0.580300	-1.275495
0.580400	-1.158970
0.580500	-0.972336
0.580600	-0.889567
0.580700	-0.790245
0.580800	-0.763954
0.580900	-0.756489
0.581000	-0.695467
0.581100	-0.726302
0.581200	-0.658789
0.581300	-0.582188
0.581400	-0.577969
0.581500	-0.582188
0.581600	-0.545835
0.581700	-0.648727
0.581800	-0.599391
0.581900	-0.635420
0.582000	-0.292986
0.582100	-0.149845
0.582200	0.072818
0.582300	-0.387439
0.582400	-0.705529
0.582500	-0.675992
0.582600	-0.433530
0.582700	-0.149521
0.582800	-0.105702
0.582900	-0.219955
0.583000	-0.439372
0.583100	-0.531553
0.583200	-0.368613
0.583300	-0.181330
0.583400	0.009849
0.583500	-0.094017
0.583600	-0.066752
0.583700	-0.136862
0.583800	-0.088499
0.583900	-0.106027
0.584000	-0.132967
0.584100	-0.154065
0.584200	-0.127124
0.584300	-0.110246
0.584400	-0.119984
0.584500	-0.182303
0.584600	-0.313434
0.584700	-0.434828
0.584800	-0.444565
0.584900	-0.391659
0.585000	-0.314733
0.585100	-0.419248
0.585200	-0.701310
0.585300	-1.027839
0.585400	-0.961300
0.585500	-0.767849
0.585600	-0.527009
0.585700	-0.582513
0.585800	-0.809720
0.585900	-1.177472
0.586000	-1.189481
0.586100	-1.034331
0.586200	-0.770770
0.586300	-0.765577
0.586400	-0.913911
0.586500	-1.096651
0.586600	-1.096975
0.586700	-1.119047
0.586800	-1.035305
0.586900	-1.074904
0.587000	-1.139495
0.587100	-1.185262
0.587200	-1.136899
0.587300	-1.105739
0.587400	-1.117748
0.587500	-1.144040
0.587600	-1.138197
0.587700	-1.069061
0.587800	-1.037252
0.587900	-0.990188
0.588000	-1.105090
0.588100	-1.232651
0.588200	-1.237195
0.588300	-1.230378
0.588400	-1.224861
0.588500	-1.147285
0.588600	-1.175524
0.588700	-1.144689
0.588800	-1.143715
0.588900	-1.144364
0.589000	-1.134951
0.589100	-1.119696
0.589200	-1.126512
0.589300	-1.110283
0.589400	-1.120345
0.589500	-1.146961
0.589600	-1.166760
0.589700	-1.135925
0.589800	-1.162541
0.589900	-1.204412
0.590000	-1.264135
0.590100	-1.303734
0.590200	-1.357290
0.590300	-1.528345
0.590400	-1.855524
0.590500	-2.097663
0.590600	-2.013596
0.590700	-1.735429
0.590800	-1.611438
0.590900	-1.768861
0.591000	-2.200556
0.591100	-2.544290
0.591200	-2.549483
0.591300	-2.386218
0.591400	-2.238857
0.591500	-2.317406
0.591600	-2.558896
0.591700	-2.811747
0.591800	-2.891270
0.591900	-2.873093
0.592000	-2.808826
0.592100	-2.879260
0.592200	-2.960731
0.592300	-3.026622
0.592400	-3.062975
0.592500	-3.029218
0.592600	-3.000655
0.592700	-3.068493
0.592800	-3.160350
0.592900	-3.225267
0.593000	-3.152560
0.593100	-3.152560
0.593200	-3.201573
0.593300	-3.257076
0.593400	-3.332380
0.593500	-3.169763
0.593600	-2.973065
0.593700	-3.025323
0.593800	-3.299597
0.593900	-3.585881
0.594000	-3.660860
0.594100	-3.459942
0.594200	-3.152560
0.594300	-3.068493
0.594400	-3.276876
0.594500	-3.592373
0.594600	-3.776088
0.594700	-3.648201
0.594800	-3.455073
0.594900	-3.314528
0.595000	-3.331082
0.595100	-3.423588
0.595200	-3.485909
0.595300	-3.475197
0.595400	-3.398271
0.595500	-3.311931
0.595600	-3.250585
0.595700	-3.189238
0.595800	-3.050965
0.595900	-2.923728
0.596000	-2.846153
0.596100	-2.799088
0.596200	-2.785456
0.596300	-2.694897
0.596400	-2.474829
0.596500	-2.397903
0.596600	-2.051248
0.596700	-2.065205
0.596800	-2.034045
0.596900	-1.982436
0.597000	-1.874999
0.597100	-1.757825
0.597200	-1.593586
0.597300	-1.562426
0.597400	-1.542302
0.597500	-1.602350
0.597600	-1.604297
0.597700	-1.620202
0.597800	-1.679925
0.597900	-1.599753
0.598000	-1.561128
0.598100	-1.541004
0.598200	-1.587744
0.598300	-1.625395
0.598400	-1.640975
0.598500	-1.763343
