LabVIEW Measurement	
Writer_Version	2
Reader_Version	2
Separator	Tab
Decimal_Separator	.
Multi_Headings	Yes
X_Columns	One
Time_Pref	Relative
Operator	as989
Description	Time Domain Data
Date	2021/11/24
Time	12:33:46.3193697929382324219
***End_of_Header***	
	
Channels	1	
Samples	15000	
Date	1903/12/31	
Time	19:00:00	
X_Dimension	Time	
X0	0.0000000000000000E+0	
Delta_X	0.000100	
***End_of_Header***		
X_Value	Untitled	Comment
0.000000	-2.032747	Tare Values:0.000000, 0.000000, 0.000000, 0.000000\0D\0A
0.000100	-2.026255
0.000200	-1.958742
0.000300	-1.913949
0.000400	-1.867209
0.000500	-1.825987
0.000600	-1.775677
0.000700	-1.718226
0.000800	-1.755228
0.000900	-1.757500
0.001000	-1.790932
0.001100	-1.788660
0.001200	-1.820145
0.001300	-1.829233
0.001400	-1.810407
0.001500	-1.858121
0.001600	-1.857147
0.001700	-1.908756
0.001800	-1.913949
0.001900	-1.971725
0.002000	-1.915897
0.002100	-1.869481
0.002200	-1.730560
0.002300	-1.638379
0.002400	-1.793529
0.002500	-1.982112
0.002600	-2.059038
0.002700	-1.973348
0.002800	-1.865911
0.002900	-1.750035
0.003000	-1.760422
0.003100	-1.912002
0.003200	-1.968479
0.003300	-1.975945
0.003400	-1.848384
0.003500	-1.770484
0.003600	-1.788660
0.003700	-1.828259
0.003800	-1.884412
0.003900	-1.903238
0.004000	-1.886360
0.004100	-1.863639
0.004200	-1.853252
0.004300	-1.870455
0.004400	-1.872727
0.004500	-1.871104
0.004600	-1.858121
0.004700	-1.974646
0.004800	-1.926933
0.004900	-1.974646
0.005000	-1.922388
0.005100	-1.884412
0.005200	-1.904861
0.005300	-1.993797
0.005400	-2.186924
0.005500	-2.139534
0.005600	-2.086952
0.005700	-1.906808
0.005800	-1.917844
0.005900	-2.024957
0.006000	-2.182055
0.006100	-2.182379
0.006200	-2.073644
0.006300	-1.946732
0.006400	-1.936670
0.006500	-2.005482
0.006600	-2.087926
0.006700	-2.072021
0.006800	-2.071372
0.006900	-2.020412
0.007000	-2.016517
0.007100	-2.043133
0.007200	-2.035992
0.007300	-2.030475
0.007400	-2.002885
0.007500	-2.022035
0.007600	-2.061635
0.007700	-2.077864
0.007800	-2.062608
0.007900	-2.022360
0.008000	-2.013921
0.008100	-2.084031
0.008200	-2.134666
0.008300	-2.165501
0.008400	-2.158685
0.008500	-2.159334
0.008600	-2.200232
0.008700	-2.210943
0.008800	-2.132069
0.008900	-2.132394
0.009000	-2.104479
0.009100	-2.134666
0.009200	-2.103506
0.009300	-2.123630
0.009400	-2.116164
0.009500	-2.123305
0.009600	-2.126227
0.009700	-2.134666
0.009800	-2.145377
0.009900	-2.144079
0.010000	-2.173291
0.010100	-2.188222
0.010200	-2.211267
0.010300	-2.214838
0.010400	-2.238532
0.010500	-2.403421
0.010600	-2.583240
0.010700	-2.588758
0.010800	-2.472557
0.010900	-2.338504
0.011000	-2.363497
0.011100	-2.552729
0.011200	-2.700090
0.011300	-2.756243
0.011400	-2.655947
0.011500	-2.528385
0.011600	-2.525464
0.011700	-2.607584
0.011800	-2.704959
0.011900	-2.756243
0.012000	-2.710152
0.012100	-2.643937
0.012200	-2.592328
0.012300	-2.606935
0.012400	-2.620567
0.012500	-2.642963
0.012600	-2.655622
0.012700	-2.669255
0.012800	-2.664386
0.012900	-2.691975
0.013000	-2.703336
0.013100	-2.710477
0.013200	-2.684835
0.013300	-2.712749
0.013400	-2.716968
0.013500	-2.702038
0.013600	-2.615374
0.013700	-2.512156
0.013800	-2.513130
0.013900	-2.587135
0.014000	-2.698792
0.014100	-2.741637
0.014200	-2.630629
0.014300	-2.493655
0.014400	-2.465416
0.014500	-2.562467
0.014600	-2.685808
0.014700	-2.728653
0.014800	-2.703985
0.014900	-2.581942
0.015000	-2.509884
0.015100	-2.498199
0.015200	-2.518648
0.015300	-2.506963
0.015400	-2.492681
0.015500	-2.466390
0.015600	-2.437177
0.015700	-2.370638
0.015800	-2.298580
0.015900	-2.219382
0.016000	-2.149921
0.016100	-2.138561
0.016200	-2.119086
0.016300	-2.129797
0.016400	-2.086627
0.016500	-1.982112
0.016600	-1.951925
0.016700	-1.933749
0.016800	-1.950952
0.016900	-1.861367
0.017000	-1.817548
0.017100	-1.772431
0.017200	-1.741920
0.017300	-1.722121
0.017400	-1.673758
0.017500	-1.705567
0.017600	-1.736403
0.017700	-1.785415
0.017800	-1.795152
0.017900	-1.822092
0.018000	-1.811057
0.018100	-1.821119
0.018200	-1.843190
0.018300	-1.863639
0.018400	-1.923038
0.018500	-1.919467
0.018600	-1.961988
0.018700	-1.937319
0.018800	-1.825987
0.018900	-1.752307
0.019000	-1.604297
0.019100	-1.874675
0.019200	-1.965558
0.019300	-2.034694
0.019400	-1.955820
0.019500	-1.801968
0.019600	-1.724068
0.019700	-1.775028
0.019800	-1.899992
0.019900	-1.951925
0.020000	-1.889930
0.020100	-1.803591
0.020200	-1.738999
0.020300	-1.747438
0.020400	-1.783467
0.020500	-1.837023
0.020600	-1.860718
0.020700	-1.824364
0.020800	-1.800670
0.020900	-1.784765
0.021000	-1.815601
0.021100	-1.805539
0.021200	-1.822417
0.021300	-1.881491
0.021400	-1.859419
0.021500	-1.911028
0.021600	-1.892527
0.021700	-1.867209
0.021800	-1.840594
0.021900	-1.858770
0.022000	-2.008078
0.022100	-2.115191
0.022200	-2.097663
0.022300	-1.993148
0.022400	-1.852928
0.022500	-1.876298
0.022600	-2.036966
0.022700	-2.135964
0.022800	-2.088250
0.022900	-1.978217
0.023000	-1.876622
0.023100	-1.889606
0.023200	-1.961663
0.023300	-2.023009
0.023400	-1.991200
0.023500	-1.998016
0.023600	-1.967181
0.023700	-1.997367
0.023800	-2.007429
0.023900	-1.976269
0.024000	-1.960689
0.024100	-1.951276
0.024200	-1.981138
0.024300	-2.044756
0.024400	-2.048327
0.024500	-2.046379
0.024600	-2.023658
0.024700	-2.033071
0.024800	-2.131744
0.024900	-2.161606
0.025000	-2.159659
0.025100	-2.159659
0.025200	-2.180757
0.025300	-2.217434
0.025400	-2.191468
0.025500	-2.143429
0.025600	-2.155114
0.025700	-2.132069
0.025800	-2.137912
0.025900	-2.120709
0.026000	-2.124604
0.026100	-2.134341
0.026200	-2.126551
0.026300	-2.144728
0.026400	-2.146351
0.026500	-2.154790
0.026600	-2.145377
0.026700	-2.161606
0.026800	-2.180432
0.026900	-2.193415
0.027000	-2.184976
0.027100	-2.259630
0.027200	-2.408289
0.027300	-2.565388
0.027400	-2.479373
0.027500	-2.345645
0.027600	-2.258332
0.027700	-2.347268
0.027800	-2.589732
0.027900	-2.692625
0.028000	-2.688405
0.028100	-2.571555
0.028200	-2.476127
0.028300	-2.509559
0.028400	-2.607908
0.028500	-2.705283
0.028600	-2.695546
0.028700	-2.631278
0.028800	-2.585187
0.028900	-2.543316
0.029000	-2.567660
0.029100	-2.587784
0.029200	-2.596223
0.029300	-2.602390
0.029400	-2.613751
0.029500	-2.610505
0.029600	-2.637445
0.029700	-2.648481
0.029800	-2.670228
0.029900	-2.651078
0.030000	-2.649455
0.030100	-2.683536
0.030200	-2.649455
0.030300	-2.555650
0.030400	-2.483268
0.030500	-2.521244
0.030600	-2.633226
0.030700	-2.735145
0.030800	-2.725732
0.030900	-2.586810
0.031000	-2.464767
0.031100	-2.476452
0.031200	-2.571230
0.031300	-2.696520
0.031400	-2.743909
0.031500	-2.662763
0.031600	-2.585187
0.031700	-2.537149
0.031800	-2.542342
0.031900	-2.551431
0.032000	-2.534877
0.032100	-2.522867
0.032200	-2.509559
0.032300	-2.469311
0.032400	-2.420624
0.032500	-2.343048
0.032600	-2.279430
0.032700	-2.245998
0.032800	-2.235286
0.032900	-2.245998
0.033000	-2.244699
0.033100	-2.177835
0.033200	-2.086627
0.033300	-2.082083
0.033400	-2.077539
0.033500	-2.051897
0.033600	-1.991200
0.033700	-1.950627
0.033800	-1.883114
0.033900	-1.843190
0.034000	-1.810407
0.034100	-1.807162
0.034200	-1.800994
0.034300	-1.817224
0.034400	-1.825014
0.034500	-1.837348
0.034600	-1.808784
0.034700	-1.822417
0.034800	-1.803267
0.034900	-1.840594
0.035000	-1.799047
0.035100	-1.862341
0.035200	-1.836049
0.035300	-1.871429
0.035400	-1.797099
0.035500	-1.666617
0.035600	-1.529643
0.035700	-1.566321
0.035800	-1.763343
0.035900	-1.911677
0.036000	-1.862990
0.036100	-1.744517
0.036200	-1.576383
0.036300	-1.550417
0.036400	-1.627992
0.036500	-1.747763
0.036600	-1.759123
0.036700	-1.671161
0.036800	-1.569892
0.036900	-1.540679
0.037000	-1.562426
0.037100	-1.603324
0.037200	-1.628316
0.037300	-1.611438
0.037400	-1.581577
0.037500	-1.587095
0.037600	-1.610789
0.037700	-1.618904
0.037800	-1.614359
0.037900	-1.649414
0.038000	-1.700374
0.038100	-1.736403
0.038200	-1.739648
0.038300	-1.766913
0.038400	-1.701672
0.038500	-1.728613
0.038600	-1.717901
0.038700	-1.960365
0.038800	-1.962637
0.038900	-1.949653
0.039000	-1.795477
0.039100	-1.751658
0.039200	-1.812355
0.039300	-1.957119
0.039400	-2.037615
0.039500	-1.979515
0.039600	-1.864937
0.039700	-1.809109
0.039800	-1.854226
0.039900	-1.955171
0.040000	-1.979190
0.040100	-1.971725
0.040200	-1.983410
0.040300	-1.963935
0.040400	-1.994121
0.040500	-1.982436
0.040600	-2.000288
0.040700	-1.983085
0.040800	-1.996393
0.040900	-2.035019
0.041000	-2.057415
0.041100	-2.046379
0.041200	-2.043782
0.041300	-2.044107
0.041400	-2.074618
0.041500	-2.136289
0.041600	-2.140184
0.041700	-2.124604
0.041800	-2.134666
0.041900	-2.166150
0.042000	-2.180432
0.042100	-2.131744
0.042200	-2.107076
0.042300	-2.102207
0.042400	-2.096040
0.042500	-2.073644
0.042600	-2.086952
0.042700	-2.083382
0.042800	-2.069749
0.042900	-2.077215
0.043000	-2.064880
0.043100	-2.081759
0.043200	-2.060012
0.043300	-2.078513
0.043400	-2.100260
0.043500	-2.080136
0.043600	-2.129797
0.043700	-2.134017
0.043800	-2.270017
0.043900	-2.425492
0.044000	-2.518648
0.044100	-2.404070
0.044200	-2.261253
0.044300	-2.236909
0.044400	-2.398227
0.044500	-2.608557
0.044600	-2.667956
0.044700	-2.650753
0.044800	-2.505989
0.044900	-2.459898
0.045000	-2.483593
0.045100	-2.630954
0.045200	-2.666982
0.045300	-2.658219
0.045400	-2.580643
0.045500	-2.537149
0.045600	-2.538447
0.045700	-2.548509
0.045800	-2.578696
0.045900	-2.562467
0.046000	-2.563440
0.046100	-2.551431
0.046200	-2.593951
0.046300	-2.654648
0.046400	-2.657245
0.046500	-2.627059
0.046600	-2.615374
0.046700	-2.620242
0.046800	-2.637445
0.046900	-2.584863
0.047000	-2.457951
0.047100	-2.431335
0.047200	-2.477750
0.047300	-2.595250
0.047400	-2.680290
0.047500	-2.609207
0.047600	-2.481645
0.047700	-2.407316
0.047800	-2.460872
0.047900	-2.580643
0.048000	-2.675746
0.048100	-2.666009
0.048200	-2.554352
0.048300	-2.505664
0.048400	-2.496252
0.048500	-2.516051
0.048600	-2.542667
0.048700	-2.530982
0.048800	-2.513779
0.048900	-2.493330
0.049000	-2.445941
0.049100	-2.387516
0.049200	-2.325845
0.049300	-2.290790
0.049400	-2.252814
0.049500	-2.243726
0.049600	-2.246322
0.049700	-2.243401
0.049800	-2.157387
0.049900	-2.094093
0.050000	-2.085329
0.050100	-2.062608
0.050200	-2.012947
0.050300	-1.967830
0.050400	-1.931477
0.050500	-1.881816
0.050600	-1.828259
0.050700	-1.799696
0.050800	-1.817224
0.050900	-1.837348
0.051000	-1.848384
0.051100	-1.848708
0.051200	-1.906484
0.051300	-1.892527
0.051400	-1.914923
0.051500	-1.874675
0.051600	-1.906808
0.051700	-1.924336
0.051800	-1.969778
0.051900	-1.992174
0.052000	-1.982761
0.052100	-1.914274
0.052200	-1.797749
0.052300	-1.669538
0.052400	-1.780870
0.052500	-1.974971
0.052600	-2.054169
0.052700	-1.963286
0.052800	-1.872403
0.052900	-1.726665
0.053000	-1.745491
0.053100	-1.887009
0.053200	-1.963610
0.053300	-1.945109
0.053400	-1.837023
0.053500	-1.761395
0.053600	-1.748737
0.053700	-1.796126
0.053800	-1.870455
0.053900	-1.869481
0.054000	-1.846761
0.054100	-1.831830
0.054200	-1.832804
0.054300	-1.851954
0.054400	-1.862016
0.054500	-1.871104
0.054600	-1.877596
0.054700	-1.983085
0.054800	-1.929529
0.054900	-2.007429
0.055000	-1.916546
0.055100	-1.899343
0.055200	-1.863964
0.055300	-1.963286
0.055400	-2.125902
0.055500	-2.111945
0.055600	-2.020412
0.055700	-1.847410
0.055800	-1.850331
0.055900	-1.953873
0.056000	-2.096040
0.056100	-2.109024
0.056200	-2.017816
0.056300	-1.877921
0.056400	-1.823066
0.056500	-1.890579
0.056600	-1.970102
0.056700	-1.990875
0.056800	-1.993472
0.056900	-1.953548
0.057000	-1.939916
0.057100	-1.939591
0.057200	-1.940241
0.057300	-1.944785
0.057400	-1.930503
0.057500	-1.962312
0.057600	-2.017816
0.057700	-2.048976
0.057800	-2.041186
0.057900	-2.027229
0.058000	-2.008727
0.058100	-2.064880
0.058200	-2.142780
0.058300	-2.153816
0.058400	-2.176212
0.058500	-2.177186
0.058600	-2.229769
0.058700	-2.233988
0.058800	-2.159659
0.058900	-2.165177
0.059000	-2.146026
0.059100	-2.128499
0.059200	-2.139210
0.059300	-2.141807
0.059400	-2.138885
0.059500	-2.137912
0.059600	-2.136938
0.059700	-2.142131
0.059800	-2.164203
0.059900	-2.158360
0.060000	-2.174914
0.060100	-2.177186
0.060200	-2.209320
0.060300	-2.208022
0.060400	-2.240155
0.060500	-2.364146
0.060600	-2.544939
0.060700	-2.528385
0.060800	-2.420948
0.060900	-2.290141
0.061000	-2.276833
0.061100	-2.458600
0.061200	-2.625436
0.061300	-2.681264
0.061400	-2.580319
0.061500	-2.448538
0.061600	-2.431335
0.061700	-2.506963
0.061800	-2.650429
0.061900	-2.662114
0.062000	-2.631603
0.062100	-2.538447
0.062200	-2.503068
0.062300	-2.518972
0.062400	-2.524815
0.062500	-2.538123
0.062600	-2.536500
0.062700	-2.528061
0.062800	-2.524815
0.062900	-2.550132
0.063000	-2.586161
0.063100	-2.586810
0.063200	-2.560844
0.063300	-2.551755
0.063400	-2.595574
0.063500	-2.602390
0.063600	-2.536824
0.063700	-2.414781
0.063800	-2.401473
0.063900	-2.487812
0.064000	-2.612777
0.064100	-2.661140
0.064200	-2.561493
0.064300	-2.426466
0.064400	-2.378752
0.064500	-2.421922
0.064600	-2.545913
0.064700	-2.639717
0.064800	-2.593951
0.064900	-2.482619
0.065000	-2.402771
0.065100	-2.381024
0.065200	-2.400824
0.065300	-2.422246
0.065400	-2.388490
0.065500	-2.359277
0.065600	-2.320003
0.065700	-2.226198
0.065800	-2.168098
0.065900	-2.098962
0.066000	-2.043133
0.066100	-2.031124
0.066200	-2.030799
0.066300	-2.025281
0.066400	-1.982761
0.066500	-1.876622
0.066600	-1.835725
0.066700	-1.818847
0.066800	-1.825663
0.066900	-1.758474
0.067000	-1.719524
0.067100	-1.680574
0.067200	-1.644546
0.067300	-1.599753
0.067400	-1.567944
0.067500	-1.564698
0.067600	-1.596832
0.067700	-1.610464
0.067800	-1.661424
0.067900	-1.665968
0.068000	-1.678302
0.068100	-1.690636
0.068200	-1.678627
0.068300	-1.713357
0.068400	-1.730560
0.068500	-1.763667
0.068600	-1.792880
0.068700	-1.789959
0.068800	-1.663696
0.068900	-1.544899
0.069000	-1.498483
0.069100	-1.629939
0.069200	-1.881816
0.069300	-1.856174
0.069400	-1.825987
0.069500	-1.669538
0.069600	-1.587419
0.069700	-1.625395
0.069800	-1.801644
0.069900	-1.874350
0.070000	-1.821443
0.070100	-1.697128
0.070200	-1.628641
0.070300	-1.661424
0.070400	-1.707839
0.070500	-1.776326
0.070600	-1.797749
0.070700	-1.783142
0.070800	-1.752632
0.070900	-1.762045
0.071000	-1.789634
0.071100	-1.803916
0.071200	-1.806188
0.071300	-1.899668
0.071400	-1.900966
0.071500	-1.933424
0.071600	-1.956470
0.071700	-1.914274
0.071800	-1.898369
0.071900	-1.895773
0.072000	-2.049300
0.072100	-2.161931
0.072200	-2.134341
0.072300	-2.056766
0.072400	-1.885386
0.072500	-1.923362
0.072600	-2.036317
0.072700	-2.177511
0.072800	-2.176862
0.072900	-2.049950
0.073000	-1.949978
0.073100	-1.917520
0.073200	-2.015544
0.073300	-2.076890
0.073400	-2.075916
0.073500	-2.107401
0.073600	-2.069749
0.073700	-2.090198
0.073800	-2.109673
0.073900	-2.082732
0.074000	-2.088575
0.074100	-2.073969
0.074200	-2.104155
0.074300	-2.135315
0.074400	-2.134666
0.074500	-2.108374
0.074600	-2.094093
0.074700	-2.095391
0.074800	-2.177835
0.074900	-2.233664
0.075000	-2.242427
0.075100	-2.228470
0.075200	-2.221979
0.075300	-2.279754
0.075400	-2.249568
0.075500	-2.194064
0.075600	-2.169721
0.075700	-2.146675
0.075800	-2.145377
0.075900	-2.147649
0.076000	-2.143754
0.076100	-2.135315
0.076200	-2.143754
0.076300	-2.137587
0.076400	-2.147649
0.076500	-2.138561
0.076600	-2.136938
0.076700	-2.155439
0.076800	-2.164852
0.076900	-2.188222
0.077000	-2.164203
0.077100	-2.236260
0.077200	-2.371936
0.077300	-2.499173
0.077400	-2.430036
0.077500	-2.307993
0.077600	-2.172967
0.077700	-2.223277
0.077800	-2.466714
0.077900	-2.598495
0.078000	-2.610830
0.078100	-2.490734
0.078200	-2.382323
0.078300	-2.366743
0.078400	-2.459898
0.078500	-2.565388
0.078600	-2.590381
0.078700	-2.533254
0.078800	-2.516376
0.078900	-2.457626
0.079000	-2.452757
0.079100	-2.441721
0.079200	-2.431335
0.079300	-2.432958
0.079400	-2.432633
0.079500	-2.445616
0.079600	-2.472232
0.079700	-2.486514
0.079800	-2.490409
0.079900	-2.484891
0.080000	-2.509559
0.080100	-2.534228
0.080200	-2.524166
0.080300	-2.409263
0.080400	-2.333960
0.080500	-2.357979
0.080600	-2.454380
0.080700	-2.590705
0.080800	-2.606285
0.080900	-2.479698
0.081000	-2.368690
0.081100	-2.349864
0.081200	-2.432309
0.081300	-2.592004
0.081400	-2.660491
0.081500	-2.608882
0.081600	-2.505989
0.081700	-2.456652
0.081800	-2.460547
0.081900	-2.481321
0.082000	-2.510533
0.082100	-2.518972
0.082200	-2.502419
0.082300	-2.456977
0.082400	-2.402771
0.082500	-2.344996
0.082600	-2.290466
0.082700	-2.260929
0.082800	-2.283325
0.082900	-2.286571
0.083000	-2.323898
0.083100	-2.260279
0.083200	-2.175888
0.083300	-2.155439
0.083400	-2.164203
0.083500	-2.147324
0.083600	-2.081759
0.083700	-2.028852
0.083800	-2.005482
0.083900	-1.948355
0.084000	-1.894799
0.084100	-1.886684
0.084200	-1.887658
0.084300	-1.924011
0.084400	-1.918818
0.084500	-1.960365
0.084600	-1.938942
0.084700	-1.943486
0.084800	-1.936670
0.084900	-1.924336
0.085000	-1.948355
0.085100	-1.964909
0.085200	-2.007754
0.085300	-1.996393
0.085400	-1.959715
0.085500	-1.806837
0.085600	-1.665643
0.085700	-1.645519
0.085800	-1.835400
0.085900	-2.041510
0.086000	-1.936670
0.086100	-1.865586
0.086200	-1.685118
0.086300	-1.651362
0.086400	-1.722121
0.086500	-1.825663
0.086600	-1.863964
0.086700	-1.771133
0.086800	-1.675056
0.086900	-1.628966
0.087000	-1.634484
0.087100	-1.677328
0.087200	-1.704918
0.087300	-1.717252
0.087400	-1.705567
0.087500	-1.708164
0.087600	-1.710436
0.087700	-1.725691
0.087800	-1.736727
0.087900	-1.720498
0.088000	-1.831505
0.088100	-1.789309
0.088200	-1.845138
0.088300	-1.854551
0.088400	-1.819820
0.088500	-1.834751
0.088600	-1.803591
0.088700	-2.022360
0.088800	-2.068451
0.088900	-2.057090
0.089000	-1.936995
0.089100	-1.859095
0.089200	-1.926283
0.089300	-2.065205
0.089400	-2.154141
0.089500	-2.121358
0.089600	-2.000288
0.089700	-1.919143
0.089800	-1.943162
0.089900	-2.036317
0.090000	-2.074293
0.090100	-2.070723
0.090200	-2.069749
0.090300	-2.039887
0.090400	-2.059362
0.090500	-2.042160
0.090600	-2.008403
0.090700	-1.972699
0.090800	-1.968155
0.090900	-2.014570
0.091000	-2.046379
0.091100	-2.029825
0.091200	-2.013921
0.091300	-2.002236
0.091400	-2.001911
0.091500	-2.080785
0.091600	-2.095716
0.091700	-2.099935
0.091800	-2.099286
0.091900	-2.131095
0.092000	-2.161931
0.092100	-2.125902
0.092200	-2.092145
0.092300	-2.091821
0.092400	-2.085005
0.092500	-2.090198
0.092600	-2.119735
0.092700	-2.110647
0.092800	-2.151869
0.092900	-2.146675
0.093000	-2.157062
0.093100	-2.161931
0.093200	-2.164527
0.093300	-2.177186
0.093400	-2.177511
0.093500	-2.221005
0.093600	-2.224900
0.093700	-2.281702
0.093800	-2.367716
0.093900	-2.561817
0.094000	-2.654973
0.094100	-2.544290
0.094200	-2.404719
0.094300	-2.337855
0.094400	-2.471583
0.094500	-2.688405
0.094600	-2.768577
0.094700	-2.741312
0.094800	-2.589407
0.094900	-2.521244
0.095000	-2.563116
0.095100	-2.655622
0.095200	-2.722162
0.095300	-2.716319
0.095400	-2.639068
0.095500	-2.606285
0.095600	-2.589082
0.095700	-2.592977
0.095800	-2.593627
0.095900	-2.583564
0.096000	-2.569283
0.096100	-2.548834
0.096200	-2.564089
0.096300	-2.602066
0.096400	-2.607584
0.096500	-2.597197
0.096600	-2.616672
0.096700	-2.631278
0.096800	-2.676071
0.096900	-2.611803
0.097000	-2.529034
0.097100	-2.462819
0.097200	-2.513130
0.097300	-2.631603
0.097400	-2.730926
0.097500	-2.687431
0.097600	-2.560519
0.097700	-2.468986
0.097800	-2.507612
0.097900	-2.627383
0.098000	-2.744558
0.098100	-2.733522
0.098200	-2.647183
0.098300	-2.570257
0.098400	-2.539746
0.098500	-2.541693
0.098600	-2.543965
0.098700	-2.510209
0.098800	-2.476127
0.098900	-2.428089
0.099000	-2.369339
0.099100	-2.296308
0.099200	-2.231391
0.099300	-2.150895
0.099400	-2.103181
0.099500	-2.081434
0.099600	-2.074618
0.099700	-2.050923
0.099800	-1.966532
0.099900	-1.875973
0.100000	-1.857147
0.100100	-1.845462
0.100200	-1.802942
0.100300	-1.767562
0.100400	-1.690636
0.100500	-1.643247
0.100600	-1.585147
0.100700	-1.540355
0.100800	-1.533863
0.100900	-1.537433
0.101000	-1.557882
0.101100	-1.547495
0.101200	-1.566970
0.101300	-1.556908
0.101400	-1.574111
0.101500	-1.535486
0.101600	-1.553338
0.101700	-1.559505
0.101800	-1.615982
0.101900	-1.635782
0.102000	-1.648441
0.102100	-1.587419
0.102200	-1.416364
0.102300	-1.320612
0.102400	-1.390398
0.102500	-1.600402
0.102600	-1.685118
0.102700	-1.682197
0.102800	-1.591639
0.102900	-1.457586
0.103000	-1.463104
0.103100	-1.578980
0.103200	-1.673109
0.103300	-1.686741
0.103400	-1.593911
0.103500	-1.520880
0.103600	-1.497510
0.103700	-1.529968
0.103800	-1.594884
0.103900	-1.625395
0.104000	-1.619553
0.104100	-1.602674
0.104200	-1.617281
0.104300	-1.644546
0.104400	-1.652985
0.104500	-1.674732
0.104600	-1.682522
0.104700	-1.823391
0.104800	-1.792231
0.104900	-1.849357
0.105000	-1.823391
0.105100	-1.781195
0.105200	-1.760746
0.105300	-1.843190
0.105400	-2.035019
0.105500	-2.035019
0.105600	-1.991849
0.105700	-1.825987
0.105800	-1.830207
0.105900	-1.937319
0.106000	-2.102857
0.106100	-2.130122
0.106200	-2.032747
0.106300	-1.904536
0.106400	-1.872403
0.106500	-1.944135
0.106600	-2.018140
0.106700	-2.049950
0.106800	-2.047028
0.106900	-2.009052
0.107000	-2.011324
0.107100	-2.039887
0.107200	-2.016842
0.107300	-2.031124
0.107400	-2.031448
0.107500	-2.029825
0.107600	-2.061635
0.107700	-2.073320
0.107800	-2.067802
0.107900	-2.053520
0.108000	-2.052871
0.108100	-2.107401
0.108200	-2.181406
0.108300	-2.191792
0.108400	-2.196337
0.108500	-2.197635
0.108600	-2.248919
0.108700	-2.258981
0.108800	-2.222628
0.108900	-2.218084
0.109000	-2.212890
0.109100	-2.225874
0.109200	-2.236260
0.109300	-2.258332
0.109400	-2.251191
0.109500	-2.248594
0.109600	-2.264499
0.109700	-2.245998
0.109800	-2.256060
0.109900	-2.238532
0.110000	-2.266771
0.110100	-2.283974
0.110200	-2.295334
0.110300	-2.315783
0.110400	-2.326494
0.110500	-2.479373
0.110600	-2.624462
0.110700	-2.667307
0.110800	-2.523517
0.110900	-2.397903
0.111000	-2.380375
0.111100	-2.568309
0.111200	-2.722162
0.111300	-2.801685
0.111400	-2.670228
0.111500	-2.583889
0.111600	-2.529359
0.111700	-2.615698
0.111800	-2.745207
0.111900	-2.772148
0.112000	-2.727355
0.112100	-2.666982
0.112200	-2.614400
0.112300	-2.618944
0.112400	-2.619593
0.112500	-2.642639
0.112600	-2.626085
0.112700	-2.602715
0.112800	-2.607259
0.112900	-2.627383
0.113000	-2.651727
0.113100	-2.627708
0.113200	-2.589732
0.113300	-2.591679
0.113400	-2.634524
0.113500	-2.643288
0.113600	-2.575125
0.113700	-2.445616
0.113800	-2.432633
0.113900	-2.510209
0.114000	-2.606935
0.114100	-2.683536
0.114200	-2.588109
0.114300	-2.467364
0.114400	-2.394657
0.114500	-2.473206
0.114600	-2.593951
0.114700	-2.670878
0.114800	-2.641340
0.114900	-2.547536
0.115000	-2.480347
0.115100	-2.475803
0.115200	-2.504366
0.115300	-2.534552
0.115400	-2.513779
0.115500	-2.503068
0.115600	-2.456003
0.115700	-2.370638
0.115800	-2.337855
0.115900	-2.280404
0.116000	-2.249893
0.116100	-2.221005
0.116200	-2.199907
0.116300	-2.217434
0.116400	-2.199907
0.116500	-2.096040
0.116600	-2.049300
0.116700	-2.046379
0.116800	-2.045081
0.116900	-1.979515
0.117000	-1.948030
0.117100	-1.901615
0.117200	-1.833777
0.117300	-1.774379
0.117400	-1.751009
0.117500	-1.738025
0.117600	-1.779247
0.117700	-1.748087
0.117800	-1.789309
0.117900	-1.786064
0.118000	-1.794178
0.118100	-1.758150
0.118200	-1.756527
0.118300	-1.725367
0.118400	-1.777300
0.118500	-1.760097
0.118600	-1.839944
0.118700	-1.765940
0.118800	-1.721796
0.118900	-1.530942
0.119000	-1.475763
0.119100	-1.597481
0.119200	-1.792880
0.119300	-1.886684
0.119400	-1.788336
0.119500	-1.677653
0.119600	-1.566970
0.119700	-1.599753
0.119800	-1.735104
0.119900	-1.799372
0.120000	-1.742570
0.120100	-1.623123
0.120200	-1.545548
0.120300	-1.541004
0.120400	-1.603324
0.120500	-1.659801
0.120600	-1.688040
0.120700	-1.664670
0.120800	-1.647142
0.120900	-1.661749
0.121000	-1.690312
0.121100	-1.703620
0.121200	-1.696479
0.121300	-1.716278
0.121400	-1.762045
0.121500	-1.792231
0.121600	-1.811381
0.121700	-1.762369
0.121800	-1.771782
0.121900	-1.743543
0.122000	-1.901940
0.122100	-2.032747
0.122200	-2.009052
0.122300	-1.893176
0.122400	-1.771782
0.122500	-1.793854
0.122600	-1.934398
0.122700	-2.079487
0.122800	-2.066828
0.122900	-1.952899
0.123000	-1.795801
0.123100	-1.774379
0.123200	-1.843190
0.123300	-1.924661
0.123400	-1.931801
0.123500	-1.929854
0.123600	-1.872078
0.123700	-1.873701
0.123800	-1.867534
0.123900	-1.878570
0.124000	-1.884737
0.124100	-1.884088
0.124200	-1.885386
0.124300	-1.931801
0.124400	-1.930503
0.124500	-1.919143
0.124600	-1.905186
0.124700	-1.901615
0.124800	-1.987305
0.124900	-2.043782
0.125000	-2.064231
0.125100	-2.062933
0.125200	-2.039887
0.125300	-2.105778
0.125400	-2.105778
0.125500	-2.058389
0.125600	-2.040861
0.125700	-2.032422
0.125800	-2.026904
0.125900	-2.019114
0.126000	-2.023009
0.126100	-1.998665
0.126200	-1.996393
0.126300	-2.008727
0.126400	-2.001587
0.126500	-2.005806
0.126600	-1.977892
0.126700	-1.997043
0.126800	-2.004833
0.126900	-2.029176
0.127000	-2.025930
0.127100	-2.092470
0.127200	-2.221005
0.127300	-2.347917
0.127400	-2.323249
0.127500	-2.193740
0.127600	-2.087277
0.127700	-2.109024
0.127800	-2.331688
0.127900	-2.448538
0.128000	-2.488786
0.128100	-2.374857
0.128200	-2.257358
0.128300	-2.248919
0.128400	-2.344671
0.128500	-2.468662
0.128600	-2.477426
0.128700	-2.441072
0.128800	-2.388165
0.128900	-2.376156
0.129000	-2.384919
0.129100	-2.406991
0.129200	-2.421922
0.129300	-2.428089
0.129400	-2.419650
0.129500	-2.429387
0.129600	-2.453731
0.129700	-2.465741
0.129800	-2.461196
0.129900	-2.455354
0.130000	-2.498524
0.130100	-2.479049
0.130200	-2.482294
0.130300	-2.381674
0.130400	-2.306046
0.130500	-2.315134
0.130600	-2.429063
0.130700	-2.519297
0.130800	-2.557922
0.130900	-2.437502
0.131000	-2.295334
0.131100	-2.278781
0.131200	-2.368366
0.131300	-2.508910
0.131400	-2.539097
0.131500	-2.498848
0.131600	-2.388165
0.131700	-2.313836
0.131800	-2.316432
0.131900	-2.338179
0.132000	-2.353110
0.132100	-2.355707
0.132200	-2.339153
0.132300	-2.280404
0.132400	-2.220356
0.132500	-2.171344
0.132600	-2.125577
0.132700	-2.062608
0.132800	-2.054494
0.132900	-2.058713
0.133000	-2.081759
0.133100	-2.025281
0.133200	-1.940565
0.133300	-1.908756
0.133400	-1.905835
0.133500	-1.913949
0.133600	-1.835400
0.133700	-1.805863
0.133800	-1.778274
0.133900	-1.752307
0.134000	-1.692259
0.134100	-1.673109
0.134200	-1.677978
0.134300	-1.741271
0.134400	-1.737052
0.134500	-1.792880
0.134600	-1.813004
0.134700	-1.801319
0.134800	-1.794827
0.134900	-1.784765
0.135000	-1.826312
0.135100	-1.874999
0.135200	-1.888956
0.135300	-1.971725
0.135400	-1.906484
0.135500	-1.844813
0.135600	-1.618254
0.135700	-1.671811
0.135800	-1.837672
0.135900	-2.000938
0.136000	-2.024632
0.136100	-1.883114
0.136200	-1.733806
0.136300	-1.680250
0.136400	-1.769835
0.136500	-1.899343
0.136600	-1.925634
0.136700	-1.864937
0.136800	-1.755877
0.136900	-1.685768
0.137000	-1.688689
0.137100	-1.717901
0.137200	-1.760097
0.137300	-1.770484
0.137400	-1.749061
0.137500	-1.735753
0.137600	-1.727963
0.137700	-1.731858
0.137800	-1.728288
0.137900	-1.743219
0.138000	-1.820469
0.138100	-1.830532
0.138200	-1.837023
0.138300	-1.856823
0.138400	-1.821768
0.138500	-1.806512
0.138600	-1.849357
0.138700	-1.990875
0.138800	-2.087277
0.138900	-2.081110
0.139000	-1.978866
0.139100	-1.892202
0.139200	-1.944460
0.139300	-2.100584
0.139400	-2.197959
0.139500	-2.139210
0.139600	-2.045730
0.139700	-1.984708
0.139800	-1.975620
0.139900	-2.065854
0.140000	-2.107725
0.140100	-2.076890
0.140200	-2.091821
0.140300	-2.071372
0.140400	-2.107401
0.140500	-2.087277
0.140600	-2.069100
0.140700	-2.076241
0.140800	-2.072021
0.140900	-2.108374
0.141000	-2.139210
0.141100	-2.149921
0.141200	-2.114217
0.141300	-2.108699
0.141400	-2.120384
0.141500	-2.189196
0.141600	-2.212890
0.141700	-2.203477
0.141800	-2.212566
0.141900	-2.218733
0.142000	-2.257683
0.142100	-2.212241
0.142200	-2.197635
0.142300	-2.161282
0.142400	-2.166475
0.142500	-2.161282
0.142600	-2.183029
0.142700	-2.175888
0.142800	-2.157711
0.142900	-2.159009
0.143000	-2.197310
0.143100	-2.206074
0.143200	-2.224900
0.143300	-2.234962
0.143400	-2.263201
0.143500	-2.295659
0.143600	-2.316757
0.143700	-2.359926
0.143800	-2.465741
0.143900	-2.653999
0.144000	-2.720863
0.144100	-2.593951
0.144200	-2.462170
0.144300	-2.398876
0.144400	-2.492357
0.144500	-2.691651
0.144600	-2.811098
0.144700	-2.770849
0.144800	-2.619593
0.144900	-2.505015
0.145000	-2.549808
0.145100	-2.636796
0.145200	-2.674773
0.145300	-2.658219
0.145400	-2.581942
0.145500	-2.531307
0.145600	-2.479373
0.145700	-2.524815
0.145800	-2.514104
0.145900	-2.512156
0.146000	-2.505340
0.146100	-2.498848
0.146200	-2.484891
0.146300	-2.512481
0.146400	-2.534877
0.146500	-2.517349
0.146600	-2.495927
0.146700	-2.510209
0.146800	-2.544614
0.146900	-2.477101
0.147000	-2.390437
0.147100	-2.304423
0.147200	-2.356356
0.147300	-2.465416
0.147400	-2.557273
0.147500	-2.523841
0.147600	-2.381349
0.147700	-2.267096
0.147800	-2.288518
0.147900	-2.391411
0.148000	-2.477101
0.148100	-2.446266
0.148200	-2.355382
0.148300	-2.258656
0.148400	-2.212890
0.148500	-2.214189
0.148600	-2.223277
0.148700	-2.196012
0.148800	-2.152193
0.148900	-2.114542
0.149000	-2.041186
0.149100	-1.986331
0.149200	-1.919792
0.149300	-1.832154
0.149400	-1.779897
0.149500	-1.781844
0.149600	-1.778598
0.149700	-1.795477
0.149800	-1.694531
0.149900	-1.614035
0.150000	-1.619877
0.150100	-1.618904
0.150200	-1.563725
0.150300	-1.504975
0.150400	-1.461481
0.150500	-1.427075
0.150600	-1.353071
0.150700	-1.330999
0.150800	-1.331973
0.150900	-1.348202
0.151000	-1.344631
0.151100	-1.368651
0.151200	-1.384230
0.151300	-1.415715
0.151400	-1.402083
0.151500	-1.452393
0.151600	-1.444927
0.151700	-1.454016
0.151800	-1.487123
0.151900	-1.462130
0.152000	-1.525424
0.152100	-1.458884
0.152200	-1.389099
0.152300	-1.194674
0.152400	-1.325156
0.152500	-1.549768
0.152600	-1.655906
0.152700	-1.645844
0.152800	-1.518932
0.152900	-1.369624
0.153000	-1.373195
0.153100	-1.487123
0.153200	-1.611438
0.153300	-1.611438
0.153400	-1.539381
0.153500	-1.474789
0.153600	-1.444278
0.153700	-1.496861
0.153800	-1.554312
0.153900	-1.606245
0.154000	-1.625395
0.154100	-1.609166
0.154200	-1.625720
0.154300	-1.662722
0.154400	-1.696154
0.154500	-1.714331
0.154600	-1.791582
0.154700	-1.781520
0.154800	-1.868832
0.154900	-1.879868
0.155000	-1.925634
0.155100	-1.881816
0.155200	-1.848708
0.155300	-1.924985
0.155400	-2.076565
0.155500	-2.131095
0.155600	-2.082408
0.155700	-1.948355
0.155800	-1.904536
0.155900	-1.994446
0.156000	-2.166475
0.156100	-2.192442
0.156200	-2.109997
0.156300	-1.973673
0.156400	-1.917844
0.156500	-1.960040
0.156600	-2.041510
0.156700	-2.073644
0.156800	-2.054169
0.156900	-2.033071
0.157000	-2.008403
0.157100	-2.026580
0.157200	-2.007429
0.157300	-1.999315
0.157400	-1.992174
0.157500	-2.022360
0.157600	-2.052222
0.157700	-2.071372
0.157800	-2.048002
0.157900	-2.025606
0.158000	-2.020412
0.158100	-2.055467
0.158200	-2.149597
0.158300	-2.153492
0.158400	-2.155764
0.158500	-2.135964
0.158600	-2.166475
0.158700	-2.173616
0.158800	-2.114866
0.158900	-2.101234
0.159000	-2.084680
0.159100	-2.044756
0.159200	-2.045730
0.159300	-2.043782
0.159400	-2.028852
0.159500	-2.012947
0.159600	-1.990551
0.159700	-1.987630
0.159800	-1.944135
0.159900	-1.939591
0.160000	-1.936670
0.160100	-1.973348
0.160200	-1.986007
0.160300	-1.997692
0.160400	-1.999639
0.160500	-2.107076
0.160600	-2.284623
0.160700	-2.290790
0.160800	-2.162580
0.160900	-2.046704
0.161000	-2.014895
0.161100	-2.155764
0.161200	-2.368041
0.161300	-2.427115
0.161400	-2.381349
0.161500	-2.229769
0.161600	-2.196986
0.161700	-2.294036
0.161800	-2.426466
0.161900	-2.496576
0.162000	-2.477101
0.162100	-2.439125
0.162200	-2.396280
0.162300	-2.407965
0.162400	-2.433931
0.162500	-2.504366
0.162600	-2.501445
0.162700	-2.499497
0.162800	-2.505989
0.162900	-2.522218
0.163000	-2.552080
0.163100	-2.551106
0.163200	-2.535202
0.163300	-2.534228
0.163400	-2.574476
0.163500	-2.575450
0.163600	-2.511507
0.163700	-2.381024
0.163800	-2.357654
0.163900	-2.407640
0.164000	-2.528385
0.164100	-2.589082
0.164200	-2.506963
0.164300	-2.339153
0.164400	-2.289816
0.164500	-2.340451
0.164600	-2.460223
0.164700	-2.545913
0.164800	-2.535851
0.164900	-2.429387
0.165000	-2.370638
0.165100	-2.343048
0.165200	-2.353435
0.165300	-2.377454
0.165400	-2.370313
0.165500	-2.353110
0.165600	-2.311564
0.165700	-2.271964
0.165800	-2.214513
0.165900	-2.150895
0.166000	-2.107725
0.166100	-2.079162
0.166200	-2.094417
0.166300	-2.088250
0.166400	-2.067802
0.166500	-1.982112
0.166600	-1.938618
0.166700	-1.909730
0.166800	-1.907782
0.166900	-1.840269
0.167000	-1.804240
0.167100	-1.771133
0.167200	-1.732183
0.167300	-1.663371
0.167400	-1.630264
0.167500	-1.653634
0.167600	-1.675056
0.167700	-1.674732
0.167800	-1.670188
0.167900	-1.696154
0.168000	-1.678951
0.168100	-1.675381
0.168200	-1.668240
0.168300	-1.685118
0.168400	-1.661424
0.168500	-1.703295
0.168600	-1.718875
0.168700	-1.696154
0.168800	-1.613061
0.168900	-1.451744
0.169000	-1.406951
0.169100	-1.511791
0.169200	-1.735104
0.169300	-1.750360
0.169400	-1.691286
0.169500	-1.570865
0.169600	-1.466350
0.169700	-1.516011
0.169800	-1.639352
0.169900	-1.715305
0.170000	-1.693882
0.170100	-1.579954
0.170200	-1.506598
0.170300	-1.520231
0.170400	-1.560479
0.170500	-1.617281
0.170600	-1.618579
0.170700	-1.612087
0.170800	-1.582226
0.170900	-1.600078
0.171000	-1.610789
0.171100	-1.611763
0.171200	-1.602999
0.171300	-1.609815
0.171400	-1.704593
0.171500	-1.705243
0.171600	-1.729911
0.171700	-1.651686
0.171800	-1.637080
0.171900	-1.568918
0.172000	-1.732508
0.172100	-1.821119
0.172200	-1.844489
0.172300	-1.730885
0.172400	-1.592612
0.172500	-1.603324
0.172600	-1.722445
0.172700	-1.869157
0.172800	-1.835725
0.172900	-1.735429
0.173000	-1.639028
0.173100	-1.604622
0.173200	-1.678951
0.173300	-1.721147
0.173400	-1.691935
0.173500	-1.686092
0.173600	-1.649414
0.173700	-1.662722
0.173800	-1.645195
0.173900	-1.641949
0.174000	-1.622149
0.174100	-1.588717
0.174200	-1.621176
0.174300	-1.652336
0.174400	-1.665968
0.174500	-1.650064
0.174600	-1.646818
0.174700	-1.649739
0.174800	-1.720173
0.174900	-1.784765
0.175000	-1.820794
0.175100	-1.832479
0.175200	-1.839295
0.175300	-1.895773
0.175400	-1.906484
0.175500	-1.854875
0.175600	-1.843190
0.175700	-1.874999
0.175800	-1.871754
0.175900	-1.862665
0.176000	-1.883763
0.176100	-1.865262
0.176200	-1.871754
0.176300	-1.888956
0.176400	-1.873376
0.176500	-1.877596
0.176600	-1.881816
0.176700	-1.886684
0.176800	-1.900317
0.176900	-1.892202
0.177000	-1.914923
0.177100	-1.931477
0.177200	-2.114542
0.177300	-2.213215
0.177400	-2.181730
0.177500	-2.055792
0.177600	-1.938618
0.177700	-1.931477
0.177800	-2.155439
0.177900	-2.317406
0.178000	-2.346294
0.178100	-2.237234
0.178200	-2.126551
0.178300	-2.134017
0.178400	-2.225224
0.178500	-2.325845
0.178600	-2.364146
0.178700	-2.314485
0.178800	-2.290141
0.178900	-2.254437
0.179000	-2.295334
0.179100	-2.300203
0.179200	-2.323249
0.179300	-2.313511
0.179400	-2.300852
0.179500	-2.311239
0.179600	-2.352461
0.179700	-2.394008
0.179800	-2.368690
0.179900	-2.364471
0.180000	-2.374857
0.180100	-2.417702
0.180200	-2.411535
0.180300	-2.339153
0.180400	-2.241778
0.180500	-2.272938
0.180600	-2.348566
0.180700	-2.464767
0.180800	-2.507287
0.180900	-2.388814
0.181000	-2.283649
0.181100	-2.248919
0.181200	-2.344346
0.181300	-2.468986
0.181400	-2.528385
0.181500	-2.490409
0.181600	-2.401473
0.181700	-2.354409
0.181800	-2.335583
0.181900	-2.362523
0.182000	-2.367716
0.182100	-2.336232
0.182200	-2.309941
0.182300	-2.261253
0.182400	-2.177835
0.182500	-2.116489
0.182600	-2.038914
0.182700	-1.975295
0.182800	-1.960689
0.182900	-1.938618
0.183000	-1.920116
0.183100	-1.856498
0.183200	-1.745815
0.183300	-1.694856
0.183400	-1.672784
0.183500	-1.652336
0.183600	-1.566321
0.183700	-1.509844
0.183800	-1.446875
0.183900	-1.383906
0.184000	-1.346254
0.184100	-1.320612
0.184200	-1.329701
0.184300	-1.360536
0.184400	-1.361834
0.184500	-1.403381
0.184600	-1.396889
0.184700	-1.440383
0.184800	-1.415066
0.184900	-1.411495
0.185000	-1.461157
0.185100	-1.467648
0.185200	-1.542951
0.185300	-1.526073
0.185400	-1.558207
0.185500	-1.455963
0.185600	-1.333596
0.185700	-1.288803
0.185800	-1.559830
0.185900	-1.654932
0.186000	-1.715954
0.186100	-1.618254
0.186200	-1.480631
0.186300	-1.412794
0.186400	-1.505300
0.186500	-1.649739
0.186600	-1.710111
0.186700	-1.659801
0.186800	-1.561452
0.186900	-1.513739
0.187000	-1.543600
0.187100	-1.598779
0.187200	-1.628966
0.187300	-1.619553
0.187400	-1.595858
0.187500	-1.589691
0.187600	-1.594884
0.187700	-1.598779
0.187800	-1.597157
0.187900	-1.602674
0.188000	-1.675056
0.188100	-1.698751
0.188200	-1.752307
0.188300	-1.725042
0.188400	-1.682522
0.188500	-1.670188
0.188600	-1.667266
0.188700	-1.855524
0.188800	-1.924336
0.188900	-1.903563
0.189000	-1.795477
0.189100	-1.675056
0.189200	-1.742894
0.189300	-1.863639
0.189400	-1.959715
0.189500	-1.920766
0.189600	-1.798073
0.189700	-1.726340
0.189800	-1.729262
0.189900	-1.784116
0.190000	-1.842866
0.190100	-1.843839
0.190200	-1.845138
0.190300	-1.814952
0.190400	-1.840269
0.190500	-1.843839
0.190600	-1.850331
0.190700	-1.853901
0.190800	-1.861367
0.190900	-1.893825
0.191000	-1.911677
0.191100	-1.915248
0.191200	-1.911677
0.191300	-1.915897
0.191400	-1.936670
0.191500	-2.029501
0.191600	-2.056766
0.191700	-2.081434
0.191800	-2.072670
0.191900	-2.084031
0.192000	-2.113243
0.192100	-2.095716
0.192200	-2.040212
0.192300	-2.038265
0.192400	-2.011973
0.192500	-2.010350
0.192600	-2.003210
0.192700	-1.998665
0.192800	-2.007105
0.192900	-1.984708
0.193000	-1.998341
0.193100	-1.988603
0.193200	-2.013596
0.193300	-1.985033
0.193400	-2.002560
0.193500	-2.011000
0.193600	-2.042809
0.193700	-2.047353
0.193800	-2.125577
0.193900	-2.274886
0.194000	-2.352786
0.194100	-2.266771
0.194200	-2.124279
0.194300	-2.048651
0.194400	-2.157387
0.194500	-2.361549
0.194600	-2.494304
0.194700	-2.483593
0.194800	-2.370638
0.194900	-2.290141
0.195000	-2.347268
0.195100	-2.456652
0.195200	-2.527412
0.195300	-2.548509
0.195400	-2.477101
0.195500	-2.437826
0.195600	-2.434905
0.195700	-2.451459
0.195800	-2.452433
0.195900	-2.452108
0.196000	-2.422896
0.196100	-2.407316
0.196200	-2.420948
0.196300	-2.438476
0.196400	-2.466065
0.196500	-2.446590
0.196600	-2.436204
0.196700	-2.446590
0.196800	-2.448538
0.196900	-2.407316
0.197000	-2.298905
0.197100	-2.243726
0.197200	-2.256060
0.197300	-2.354733
0.197400	-2.425492
0.197500	-2.383946
0.197600	-2.238208
0.197700	-2.108699
0.197800	-2.133367
0.197900	-2.239831
0.198000	-2.344671
0.198100	-2.311888
0.198200	-2.211916
0.198300	-2.117463
0.198400	-2.071372
0.198500	-2.087277
0.198600	-2.106752
0.198700	-2.081434
0.198800	-2.035343
0.198900	-1.984708
0.199000	-1.919467
0.199100	-1.865262
0.199200	-1.790608
0.199300	-1.718550
0.199400	-1.693233
0.199500	-1.677328
0.199600	-1.683496
0.199700	-1.673758
0.199800	-1.574436
0.199900	-1.490694
0.200000	-1.474789
0.200100	-1.480631
0.200200	-1.447524
0.200300	-1.380011
0.200400	-1.341386
0.200500	-1.279390
0.200600	-1.223887
0.200700	-1.188832
0.200800	-1.157997
0.200900	-1.176173
0.201000	-1.154751
0.201100	-1.147285
0.201200	-1.151505
0.201300	-1.120670
0.201400	-1.092106
0.201500	-1.056727
0.201600	-1.068737
0.201700	-1.040822
0.201800	-1.092106
0.201900	-1.039524
0.202000	-1.066464
0.202100	-0.999276
0.202200	-0.902550
0.202300	-0.683458
0.202400	-0.798684
0.202500	-0.989214
0.202600	-1.089510
0.202700	-1.072307
0.202800	-0.956756
0.202900	-0.832765
0.203000	-0.786675
0.203100	-0.881453
0.203200	-0.993758
0.203300	-0.989863
0.203400	-0.879505
0.203500	-0.777911
0.203600	-0.752918
0.203700	-0.790894
0.203800	-0.854837
0.203900	-0.867496
0.204000	-0.846398
0.204100	-0.821405
0.204200	-0.837959
0.204300	-0.886646
0.204400	-0.924622
0.204500	-0.939553
0.204600	-0.984021
0.204700	-1.083992
0.204800	-1.133004
0.204900	-1.165462
0.205000	-1.190779
0.205100	-1.173252
0.205200	-1.190130
0.205300	-1.261214
0.205400	-1.477710
0.205500	-1.549443
0.205600	-1.516660
0.205700	-1.399810
0.205800	-1.377739
0.205900	-1.477386
0.206000	-1.668565
0.206100	-1.748412
0.206200	-1.668565
0.206300	-1.558207
0.206400	-1.510818
0.206500	-1.595209
0.206600	-1.709787
0.206700	-1.785739
0.206800	-1.797749
0.206900	-1.787687
0.207000	-1.766589
0.207100	-1.804240
0.207200	-1.828909
0.207300	-1.844164
0.207400	-1.829558
0.207500	-1.849357
0.207600	-1.879544
0.207700	-1.916871
0.207800	-1.899343
0.207900	-1.891878
0.208000	-1.877271
0.208100	-1.895773
0.208200	-1.989253
0.208300	-2.017491
0.208400	-1.993797
0.208500	-1.990875
0.208600	-2.008727
0.208700	-2.044107
0.208800	-1.989253
0.208900	-1.966856
0.209000	-1.965883
0.209100	-1.965558
0.209200	-1.978866
0.209300	-1.990551
0.209400	-1.983085
0.209500	-2.002885
0.209600	-2.009701
0.209700	-2.018140
0.209800	-2.027878
0.209900	-2.037291
0.210000	-2.029176
0.210100	-2.079487
0.210200	-2.087926
0.210300	-2.118112
0.210400	-2.147974
0.210500	-2.236260
0.210600	-2.423869
0.210700	-2.461196
0.210800	-2.373884
0.210900	-2.236260
0.211000	-2.207697
0.211100	-2.353110
0.211200	-2.527087
0.211300	-2.626734
0.211400	-2.565388
0.211500	-2.438800
0.211600	-2.413158
0.211700	-2.480022
0.211800	-2.632252
0.211900	-2.703660
0.212000	-2.710477
0.212100	-2.635822
0.212200	-2.607584
0.212300	-2.602715
0.212400	-2.636472
0.212500	-2.665360
0.212600	-2.693598
0.212700	-2.682887
0.212800	-2.698792
0.212900	-2.686782
0.213000	-2.735145
0.213100	-2.753971
0.213200	-2.748778
0.213300	-2.761112
0.213400	-2.771498
0.213500	-2.781236
0.213600	-2.737742
0.213700	-2.648806
0.213800	-2.564414
0.213900	-2.616347
0.214000	-2.726706
0.214100	-2.767279
0.214200	-2.706906
0.214300	-2.537474
0.214400	-2.437502
0.214500	-2.474829
0.214600	-2.610180
0.214700	-2.695870
0.214800	-2.648157
0.214900	-2.527736
0.215000	-2.424519
0.215100	-2.393359
0.215200	-2.389139
0.215300	-2.397903
0.215400	-2.380700
0.215500	-2.361874
0.215600	-2.309616
0.215700	-2.238208
0.215800	-2.188871
0.215900	-2.115840
0.216000	-2.064231
0.216100	-2.058064
0.216200	-2.072995
0.216300	-2.060012
0.216400	-2.050274
0.216500	-1.962637
0.216600	-1.914274
0.216700	-1.920116
0.216800	-1.908431
0.216900	-1.835725
0.217000	-1.823391
0.217100	-1.786064
0.217200	-1.745491
0.217300	-1.698102
0.217400	-1.674732
0.217500	-1.694531
0.217600	-1.706865
0.217700	-1.713682
0.217800	-1.726990
0.217900	-1.753605
0.218000	-1.783467
0.218100	-1.768536
0.218200	-1.757176
0.218300	-1.794503
0.218400	-1.788985
0.218500	-1.840269
0.218600	-1.809109
0.218700	-1.900641
0.218800	-1.775028
0.218900	-1.678627
0.219000	-1.566321
0.219100	-1.725691
0.219200	-1.872078
0.219300	-1.907133
0.219400	-1.864937
0.219500	-1.748087
0.219600	-1.630264
0.219700	-1.637405
0.219800	-1.762694
0.219900	-1.845462
0.220000	-1.836049
0.220100	-1.756851
0.220200	-1.671811
0.220300	-1.654932
0.220400	-1.678627
0.220500	-1.734780
0.220600	-1.753605
0.220700	-1.763992
0.220800	-1.737701
0.220900	-1.763018
0.221000	-1.765615
0.221100	-1.786713
0.221200	-1.812355
0.221300	-1.878245
0.221400	-1.851629
0.221500	-1.910054
0.221600	-1.882465
0.221700	-1.914274
0.221800	-1.838971
0.221900	-1.798722
0.222000	-1.848708
0.222100	-1.996393
0.222200	-1.976269
0.222300	-1.832479
0.222400	-1.654283
0.222500	-1.627018
0.222600	-1.714655
0.222700	-1.839295
0.222800	-1.806188
0.222900	-1.693233
0.223000	-1.521853
0.223100	-1.487772
0.223200	-1.537758
0.223300	-1.597806
0.223400	-1.603973
0.223500	-1.592288
0.223600	-1.537109
0.223700	-1.554312
0.223800	-1.573462
0.223900	-1.545223
0.224000	-1.545223
0.224100	-1.526722
0.224200	-1.584498
0.224300	-1.663371
0.224400	-1.704269
0.224500	-1.706541
0.224600	-1.719200
0.224700	-1.726340
0.224800	-1.803916
0.224900	-1.888956
0.225000	-1.940565
0.225100	-1.981787
0.225200	-2.000938
0.225300	-2.068126
0.225400	-2.116814
0.225500	-2.081759
0.225600	-2.106102
0.225700	-2.122981
0.225800	-2.155439
0.225900	-2.151544
0.226000	-2.190169
0.226100	-2.182055
0.226200	-2.206074
0.226300	-2.221654
0.226400	-2.223926
0.226500	-2.234637
0.226600	-2.235936
0.226700	-2.228470
0.226800	-2.217434
0.226900	-2.220356
0.227000	-2.239181
0.227100	-2.236260
0.227200	-2.395631
0.227300	-2.485865
0.227400	-2.479698
0.227500	-2.272614
0.227600	-2.186924
0.227700	-2.135964
0.227800	-2.373559
0.227900	-2.515402
0.228000	-2.541693
0.228100	-2.452108
0.228200	-2.313186
0.228300	-2.293387
0.228400	-2.359926
0.228500	-2.437826
0.228600	-2.479049
0.228700	-2.447889
0.228800	-2.383621
0.228900	-2.352136
0.229000	-2.338179
0.229100	-2.375506
0.229200	-2.350838
0.229300	-2.356031
0.229400	-2.331688
0.229500	-2.352136
0.229600	-2.367716
0.229700	-2.404719
0.229800	-2.395306
0.229900	-2.358304
0.230000	-2.343697
0.230100	-2.375831
0.230200	-2.388165
0.230300	-2.294361
0.230400	-2.227821
0.230500	-2.214838
0.230600	-2.334284
0.230700	-2.468013
0.230800	-2.523517
0.230900	-2.430036
0.231000	-2.266771
0.231100	-2.232365
0.231200	-2.345645
0.231300	-2.508910
0.231400	-2.593951
0.231500	-2.567660
0.231600	-2.451459
0.231700	-2.392709
0.231800	-2.372585
0.231900	-2.389788
0.232000	-2.390762
0.232100	-2.344346
0.232200	-2.285921
0.232300	-2.213864
0.232400	-2.133692
0.232500	-2.044432
0.232600	-1.948355
0.232700	-1.878894
0.232800	-1.823066
0.232900	-1.813653
0.233000	-1.800345
0.233100	-1.733157
0.233200	-1.617281
0.233300	-1.556584
0.233400	-1.520231
0.233500	-1.496861
0.233600	-1.398837
0.233700	-1.358264
0.233800	-1.322235
0.233900	-1.247257
0.234000	-1.185586
0.234100	-1.139495
0.234200	-1.144689
0.234300	-1.156374
0.234400	-1.164164
0.234500	-1.176173
0.234600	-1.172278
0.234700	-1.191104
0.234800	-1.177147
0.234900	-1.207009
0.235000	-1.199219
0.235100	-1.219992
0.235200	-1.300488
0.235300	-1.267381
0.235400	-1.321586
0.235500	-1.174226
0.235600	-1.101844
0.235700	-0.996679
0.235800	-1.290426
0.235900	-1.435839
0.236000	-1.496861
0.236100	-1.382608
0.236200	-1.287830
0.236300	-1.220966
0.236400	-1.291725
0.236500	-1.414092
0.236600	-1.496861
0.236700	-1.480307
0.236800	-1.380011
0.236900	-1.325806
0.237000	-1.322884
0.237100	-1.371247
0.237200	-1.424803
0.237300	-1.443629
0.237400	-1.410197
0.237500	-1.398512
0.237600	-1.419935
0.237700	-1.449472
0.237800	-1.466999
0.237900	-1.488421
0.238000	-1.563725
0.238100	-1.510493
0.238200	-1.585147
0.238300	-1.630264
0.238400	-1.608842
0.238500	-1.594560
0.238600	-1.605920
0.238700	-1.777625
0.238800	-1.894799
0.238900	-1.864613
0.239000	-1.749061
0.239100	-1.664670
0.239200	-1.753605
0.239300	-1.893825
0.239400	-2.055792
0.239500	-2.035343
0.239600	-1.938618
0.239700	-1.841567
0.239800	-1.838971
0.239900	-1.951925
0.240000	-2.017491
0.240100	-2.016193
0.240200	-2.026255
0.240300	-1.970102
0.240400	-2.010350
0.240500	-2.003534
0.240600	-1.990226
0.240700	-1.990875
0.240800	-1.983735
0.240900	-2.005482
0.241000	-2.026904
0.241100	-2.043458
0.241200	-2.039238
0.241300	-2.042160
0.241400	-2.034370
0.241500	-2.106102
0.241600	-2.148298
0.241700	-2.181406
0.241800	-2.160308
0.241900	-2.188871
0.242000	-2.239181
0.242100	-2.212566
0.242200	-2.178160
0.242300	-2.179458
0.242400	-2.181406
0.242500	-2.191792
0.242600	-2.189196
0.242700	-2.172967
0.242800	-2.174265
0.242900	-2.162580
0.243000	-2.175563
0.243100	-2.163878
0.243200	-2.154141
0.243300	-2.159009
0.243400	-2.162580
0.243500	-2.157711
0.243600	-2.152518
0.243700	-2.178160
0.243800	-2.232041
0.243900	-2.392385
0.244000	-2.456977
0.244100	-2.440423
0.244200	-2.261253
0.244300	-2.189845
0.244400	-2.243076
0.244500	-2.410561
0.244600	-2.553054
0.244700	-2.539097
0.244800	-2.400175
0.244900	-2.305072
0.245000	-2.292089
0.245100	-2.389788
0.245200	-2.475803
0.245300	-2.468013
0.245400	-2.455354
0.245500	-2.382323
0.245600	-2.346294
0.245700	-2.339802
0.245800	-2.350189
0.245900	-2.355382
0.246000	-2.354409
0.246100	-2.320327
0.246200	-2.322599
0.246300	-2.325845
0.246400	-2.331039
0.246500	-2.315459
0.246600	-2.307669
0.246700	-2.304423
0.246800	-2.295984
0.246900	-2.273587
0.247000	-2.162255
0.247100	-2.037291
0.247200	-2.068451
0.247300	-2.184002
0.247400	-2.245673
0.247500	-2.243401
0.247600	-2.094742
0.247700	-1.960365
0.247800	-1.958742
0.247900	-2.082408
0.248000	-2.184002
0.248100	-2.180432
0.248200	-2.093119
0.248300	-2.008727
0.248400	-1.973023
0.248500	-1.989577
0.248600	-2.006131
0.248700	-2.012622
0.248800	-1.982436
0.248900	-1.964260
0.249000	-1.928556
0.249100	-1.887983
0.249200	-1.830856
0.249300	-1.752307
0.249400	-1.728288
0.249500	-1.731209
0.249600	-1.748412
0.249700	-1.771782
0.249800	-1.727639
0.249900	-1.662073
0.250000	-1.657204
0.250100	-1.684469
0.250200	-1.687391
0.250300	-1.626044
0.250400	-1.618579
0.250500	-1.567944
0.250600	-1.525424
0.250700	-1.513090
0.250800	-1.495887
0.250900	-1.542951
0.251000	-1.541978
0.251100	-1.578006
0.251200	-1.612087
0.251300	-1.636431
0.251400	-1.644221
0.251500	-1.652660
0.251600	-1.652985
0.251700	-1.693558
0.251800	-1.708164
0.251900	-1.768212
0.252000	-1.738999
0.252100	-1.704269
0.252200	-1.550092
0.252300	-1.420908
0.252400	-1.404355
0.252500	-1.673758
0.252600	-1.773730
0.252700	-1.753930
0.252800	-1.648441
0.252900	-1.548145
0.253000	-1.545223
0.253100	-1.634159
0.253200	-1.750684
0.253300	-1.799047
0.253400	-1.755228
0.253500	-1.679276
0.253600	-1.664994
0.253700	-1.718550
0.253800	-1.786713
0.253900	-1.836049
0.254000	-1.865262
0.254100	-1.862990
0.254200	-1.873052
0.254300	-1.880517
0.254400	-1.874999
0.254500	-1.887009
0.254600	-1.928880
0.254700	-1.991200
0.254800	-1.975295
0.254900	-2.029176
0.255000	-2.035992
0.255100	-2.012298
0.255200	-2.003534
0.255300	-2.049300
0.255400	-2.268394
0.255500	-2.306046
0.255600	-2.264174
0.255700	-2.120059
0.255800	-2.082083
0.255900	-2.181406
0.256000	-2.327144
0.256100	-2.393683
0.256200	-2.303124
0.256300	-2.133692
0.256400	-2.056441
0.256500	-2.108374
0.256600	-2.194389
0.256700	-2.221005
0.256800	-2.157387
0.256900	-2.100909
0.257000	-2.062608
0.257100	-2.093119
0.257200	-2.095716
0.257300	-2.057090
0.257400	-2.029501
0.257500	-2.010675
0.257600	-2.031124
0.257700	-2.082083
0.257800	-2.070723
0.257900	-2.037291
0.258000	-2.014895
0.258100	-2.028202
0.258200	-2.104804
0.258300	-2.133367
0.258400	-2.143105
0.258500	-2.103506
0.258600	-2.097988
0.258700	-2.130446
0.258800	-2.068126
0.258900	-2.031124
0.259000	-2.000938
0.259100	-1.992823
0.259200	-1.986007
0.259300	-1.952250
0.259400	-1.953873
0.259500	-1.921090
0.259600	-1.910703
0.259700	-1.899668
0.259800	-1.893825
0.259900	-1.875649
0.260000	-1.848708
0.260100	-1.848708
0.260200	-1.836049
0.260300	-1.842866
0.260400	-1.840918
0.260500	-1.929854
0.260600	-2.071372
0.260700	-2.150246
0.260800	-2.000288
0.260900	-1.886360
0.261000	-1.781195
0.261100	-1.933100
0.261200	-2.129472
0.261300	-2.184652
0.261400	-2.112594
0.261500	-1.979190
0.261600	-1.920116
0.261700	-1.987954
0.261800	-2.096040
0.261900	-2.184976
0.262000	-2.151544
0.262100	-2.081110
0.262200	-2.032097
0.262300	-2.011649
0.262400	-2.029825
0.262500	-2.047677
0.262600	-2.043458
0.262700	-2.048976
0.262800	-2.031448
0.262900	-2.048327
0.263000	-2.086952
0.263100	-2.126551
0.263200	-2.088250
0.263300	-2.082083
0.263400	-2.100584
0.263500	-2.117463
0.263600	-2.083382
0.263700	-1.989253
0.263800	-1.942188
0.263900	-1.992823
0.264000	-2.130122
0.264100	-2.171668
0.264200	-2.132394
0.264300	-1.963610
0.264400	-1.869157
0.264500	-1.915572
0.264600	-2.027878
0.264700	-2.155114
0.264800	-2.130446
0.264900	-2.020737
0.265000	-1.930828
0.265100	-1.907782
0.265200	-1.955171
0.265300	-1.995095
0.265400	-1.999315
0.265500	-1.982436
0.265600	-1.944460
0.265700	-1.894474
0.265800	-1.855524
0.265900	-1.825338
0.266000	-1.785090
0.266100	-1.766913
0.266200	-1.785415
0.266300	-1.815601
0.266400	-1.827286
0.266500	-1.750360
0.266600	-1.695181
0.266700	-1.708813
0.266800	-1.725367
0.266900	-1.676355
0.267000	-1.645519
0.267100	-1.609815
0.267200	-1.568593
0.267300	-1.507572
0.267400	-1.489071
0.267500	-1.477710
0.267600	-1.512765
0.267700	-1.531591
0.267800	-1.544899
0.267900	-1.572813
0.268000	-1.591314
0.268100	-1.555610
0.268200	-1.580278
0.268300	-1.577682
0.268400	-1.627667
0.268500	-1.635782
0.268600	-1.669538
0.268700	-1.703620
0.268800	-1.612737
0.268900	-1.479333
0.269000	-1.360211
0.269100	-1.459209
0.269200	-1.651037
0.269300	-1.652660
0.269400	-1.643896
0.269500	-1.484851
0.269600	-1.387476
0.269700	-1.361834
0.269800	-1.472517
0.269900	-1.547171
0.270000	-1.527371
0.270100	-1.453691
0.270200	-1.356316
0.270300	-1.330025
0.270400	-1.362483
0.270500	-1.412469
0.270600	-1.464078
0.270700	-1.467973
0.270800	-1.452717
0.270900	-1.461157
0.271000	-1.450121
0.271100	-1.475438
0.271200	-1.502703
0.271300	-1.549768
0.271400	-1.568918
0.271500	-1.579305
0.271600	-1.634159
0.271700	-1.622799
0.271800	-1.589042
0.271900	-1.577682
0.272000	-1.676355
0.272100	-1.808784
0.272200	-1.846111
0.272300	-1.748087
0.272400	-1.593262
0.272500	-1.574760
0.272600	-1.668240
0.272700	-1.847734
0.272800	-1.850656
0.272900	-1.759123
0.273000	-1.606245
0.273100	-1.563400
0.273200	-1.625395
0.273300	-1.723744
0.273400	-1.726016
0.273500	-1.738350
0.273600	-1.719524
0.273700	-1.737376
0.273800	-1.745491
0.273900	-1.749061
0.274000	-1.729911
0.274100	-1.745815
0.274200	-1.795477
0.274300	-1.842216
0.274400	-1.861042
0.274500	-1.864613
0.274600	-1.847734
0.274700	-1.869481
0.274800	-1.926933
0.274900	-2.000288
0.275000	-2.024632
0.275100	-2.015868
0.275200	-2.026255
0.275300	-2.067152
0.275400	-2.105129
0.275500	-2.046055
0.275600	-2.046055
0.275700	-2.053195
0.275800	-2.056766
0.275900	-2.069749
0.276000	-2.074293
0.276100	-2.066179
0.276200	-2.097988
0.276300	-2.104155
0.276400	-2.121682
0.276500	-2.127525
0.276600	-2.143429
0.276700	-2.186274
0.276800	-2.207372
0.276900	-2.228795
0.277000	-2.274236
0.277100	-2.266122
0.277200	-2.437826
0.277300	-2.568634
0.277400	-2.602390
0.277500	-2.447564
0.277600	-2.368366
0.277700	-2.372910
0.277800	-2.563116
0.277900	-2.752348
0.278000	-2.792596
0.278100	-2.720863
0.278200	-2.621541
0.278300	-2.575125
0.278400	-2.659192
0.278500	-2.726057
0.278600	-2.763384
0.278700	-2.736443
0.278800	-2.700415
0.278900	-2.638419
0.279000	-2.615698
0.279100	-2.615049
0.279200	-2.635822
0.279300	-2.613102
0.279400	-2.617646
0.279500	-2.621541
0.279600	-2.612452
0.279700	-2.615698
0.279800	-2.604013
0.279900	-2.577073
0.280000	-2.575450
0.280100	-2.562467
0.280200	-2.546237
0.280300	-2.472232
0.280400	-2.338504
0.280500	-2.313511
0.280600	-2.388165
0.280700	-2.493330
0.280800	-2.518648
0.280900	-2.406342
0.281000	-2.256709
0.281100	-2.190819
0.281200	-2.270991
0.281300	-2.422246
0.281400	-2.481645
0.281500	-2.437826
0.281600	-2.343697
0.281700	-2.302475
0.281800	-2.282676
0.281900	-2.299879
0.282000	-2.303774
0.282100	-2.274561
0.282200	-2.247945
0.282300	-2.214513
0.282400	-2.188547
0.282500	-2.115840
0.282600	-2.048976
0.282700	-1.991200
0.282800	-1.970427
0.282900	-1.991525
0.283000	-2.004183
0.283100	-1.953548
0.283200	-1.848708
0.283300	-1.808135
0.283400	-1.808460
0.283500	-1.813978
0.283600	-1.728613
0.283700	-1.687715
0.283800	-1.634159
0.283900	-1.596507
0.284000	-1.546846
0.284100	-1.490369
0.284200	-1.505949
0.284300	-1.520555
0.284400	-1.534837
0.284500	-1.544250
0.284600	-1.595209
0.284700	-1.559830
0.284800	-1.583200
0.284900	-1.560154
0.285000	-1.595209
0.285100	-1.578006
0.285200	-1.637729
0.285300	-1.654932
0.285400	-1.670188
0.285500	-1.537433
0.285600	-1.419285
0.285700	-1.335543
0.285800	-1.505624
0.285900	-1.691286
0.286000	-1.723095
0.286100	-1.627992
0.286200	-1.504326
0.286300	-1.419935
0.286400	-1.464078
0.286500	-1.587095
0.286600	-1.657204
0.286700	-1.628641
0.286800	-1.542951
0.286900	-1.472192
0.287000	-1.486474
0.287100	-1.496211
0.287200	-1.546197
0.287300	-1.577682
0.287400	-1.582550
0.287500	-1.601376
0.287600	-1.606569
0.287700	-1.621500
0.287800	-1.640326
0.287900	-1.638379
0.288000	-1.681873
0.288100	-1.690961
0.288200	-1.765290
0.288300	-1.790608
0.288400	-1.770159
0.288500	-1.742894
0.288600	-1.718875
0.288700	-1.900641
0.288800	-2.061635
0.288900	-2.065530
0.289000	-1.927257
0.289100	-1.831830
0.289200	-1.890904
0.289300	-2.003534
0.289400	-2.175563
0.289500	-2.178484
0.289600	-2.059038
0.289700	-1.968804
0.289800	-1.989577
0.289900	-2.118761
0.290000	-2.208022
0.290100	-2.208995
0.290200	-2.196661
0.290300	-2.153492
0.290400	-2.201530
0.290500	-2.219057
0.290600	-2.194389
0.290700	-2.181730
0.290800	-2.167773
0.290900	-2.186924
0.291000	-2.214189
0.291100	-2.192766
0.291200	-2.174589
0.291300	-2.169396
0.291400	-2.139534
0.291500	-2.169721
0.291600	-2.207048
0.291700	-2.185301
0.291800	-2.180107
0.291900	-2.170045
0.292000	-2.187897
0.292100	-2.159983
0.292200	-2.085978
0.292300	-2.066503
0.292400	-2.048327
0.292500	-2.022035
0.292600	-2.000613
0.292700	-1.984384
0.292800	-1.971400
0.292900	-1.946732
0.293000	-1.949978
0.293100	-1.918169
0.293200	-1.912651
0.293300	-1.890579
0.293400	-1.871104
0.293500	-1.881816
0.293600	-1.846761
0.293700	-1.899018
0.293800	-1.912326
0.293900	-2.110322
0.294000	-2.190819
0.294100	-2.160632
0.294200	-1.985033
0.294300	-1.904861
0.294400	-1.937968
0.294500	-2.122007
0.294600	-2.283325
0.294700	-2.240155
0.294800	-2.129797
0.294900	-2.042484
0.295000	-2.041186
0.295100	-2.128823
0.295200	-2.200232
0.295300	-2.226847
0.295400	-2.182055
0.295500	-2.137262
0.295600	-2.087926
0.295700	-2.085654
0.295800	-2.120059
0.295900	-2.120384
0.296000	-2.108699
0.296100	-2.067477
0.296200	-2.063907
0.296300	-2.094742
0.296400	-2.139210
0.296500	-2.160308
0.296600	-2.172642
0.296700	-2.186599
0.296800	-2.219382
0.296900	-2.229769
0.297000	-2.161931
0.297100	-2.074293
0.297200	-2.149921
0.297300	-2.304747
0.297400	-2.431659
0.297500	-2.484242
0.297600	-2.374208
0.297700	-2.270341
0.297800	-2.294036
0.297900	-2.437502
0.298000	-2.600767
0.298100	-2.666982
0.298200	-2.627383
0.298300	-2.559221
0.298400	-2.533254
0.298500	-2.556624
0.298600	-2.602066
0.298700	-2.629006
0.298800	-2.611154
0.298900	-2.598820
0.299000	-2.563116
0.299100	-2.531956
0.299200	-2.484242
0.299300	-2.412834
0.299400	-2.381674
0.299500	-2.377454
0.299600	-2.390762
0.299700	-2.398227
0.299800	-2.342399
0.299900	-2.258332
0.300000	-2.206723
0.300100	-2.199582
0.300200	-2.178484
0.300300	-2.089224
0.300400	-2.017816
0.300500	-1.970102
0.300600	-1.921090
0.300700	-1.863314
0.300800	-1.824689
0.300900	-1.839620
0.301000	-1.804565
0.301100	-1.814952
0.301200	-1.828259
0.301300	-1.843515
0.301400	-1.805214
0.301500	-1.788985
0.301600	-1.754904
0.301700	-1.761720
0.301800	-1.752307
0.301900	-1.827935
0.302000	-1.791906
0.302100	-1.769185
0.302200	-1.576059
0.302300	-1.454340
0.302400	-1.396889
0.302500	-1.613386
0.302600	-1.757500
0.302700	-1.709138
0.302800	-1.643896
0.302900	-1.485825
0.303000	-1.426426
0.303100	-1.487772
0.303200	-1.571839
0.303300	-1.590665
0.303400	-1.515362
0.303500	-1.424479
0.303600	-1.382283
0.303700	-1.415066
0.303800	-1.483877
0.303900	-1.539056
0.304000	-1.552040
0.304100	-1.549443
0.304200	-1.540355
0.304300	-1.564698
0.304400	-1.581577
0.304500	-1.611438
0.304600	-1.648441
0.304700	-1.708164
0.304800	-1.687715
0.304900	-1.773730
0.305000	-1.758150
0.305100	-1.713682
0.305200	-1.692259
0.305300	-1.700374
0.305400	-1.900966
0.305500	-1.943162
0.305600	-1.874026
0.305700	-1.714006
0.305800	-1.657529
0.305900	-1.709462
0.306000	-1.858446
0.306100	-1.931477
0.306200	-1.862341
0.306300	-1.716278
0.306400	-1.643896
0.306500	-1.659801
0.306600	-1.730235
0.306700	-1.749710
0.306800	-1.707190
0.306900	-1.690636
0.307000	-1.656555
0.307100	-1.697128
0.307200	-1.656555
0.307300	-1.634159
0.307400	-1.594235
0.307500	-1.612087
0.307600	-1.642923
0.307700	-1.680899
0.307800	-1.676030
0.307900	-1.668565
0.308000	-1.658503
0.308100	-1.691286
0.308200	-1.786713
0.308300	-1.822742
0.308400	-1.874026
0.308500	-1.881491
0.308600	-1.904861
0.308700	-1.956470
0.308800	-1.938293
0.308900	-1.921415
0.309000	-1.912651
0.309100	-1.940241
0.309200	-1.942513
0.309300	-1.977243
0.309400	-1.986331
0.309500	-1.999639
0.309600	-2.018790
0.309700	-2.016193
0.309800	-2.047677
0.309900	-2.048976
0.310000	-2.074618
0.310100	-2.080460
0.310200	-2.120059
0.310300	-2.171344
0.310400	-2.184002
0.310500	-2.298256
0.310600	-2.431984
0.310700	-2.557598
0.310800	-2.406342
0.310900	-2.352786
0.311000	-2.294685
0.311100	-2.407965
0.311200	-2.611479
0.311300	-2.705608
0.311400	-2.673799
0.311500	-2.577722
0.311600	-2.510533
0.311700	-2.580643
0.311800	-2.680940
0.311900	-2.761761
0.312000	-2.765656
0.312100	-2.711450
0.312200	-2.693923
0.312300	-2.662114
0.312400	-2.708529
0.312500	-2.709828
0.312600	-2.700415
0.312700	-2.677369
0.312800	-2.644586
0.312900	-2.644262
0.313000	-2.681264
0.313100	-2.676395
0.313200	-2.671851
0.313300	-2.643612
0.313400	-2.642639
0.313500	-2.668281
0.313600	-2.617970
0.313700	-2.489435
0.313800	-2.385893
0.313900	-2.446590
0.314000	-2.559545
0.314100	-2.606285
0.314200	-2.562467
0.314300	-2.386542
0.314400	-2.273587
0.314500	-2.299229
0.314600	-2.439774
0.314700	-2.518648
0.314800	-2.487488
0.314900	-2.370313
0.315000	-2.300528
0.315100	-2.269043
0.315200	-2.284299
0.315300	-2.275535
0.315400	-2.244050
0.315500	-2.199582
0.315600	-2.179783
0.315700	-2.150570
0.315800	-2.102857
0.315900	-2.030475
0.316000	-1.963286
0.316100	-1.921739
0.316200	-1.934073
0.316300	-1.946408
0.316400	-1.965883
0.316500	-1.888632
0.316600	-1.845138
0.316700	-1.830856
0.316800	-1.808784
0.316900	-1.764641
0.317000	-1.741920
0.317100	-1.698426
0.317200	-1.625395
0.317300	-1.596183
0.317400	-1.574760
0.317500	-1.604297
0.317600	-1.632536
0.317700	-1.641624
0.317800	-1.662722
0.317900	-1.689013
0.318000	-1.701348
0.318100	-1.681873
0.318200	-1.701023
0.318300	-1.682197
0.318400	-1.770484
0.318500	-1.770484
0.318600	-1.878245
0.318700	-1.832804
0.318800	-1.816574
0.318900	-1.628641
0.319000	-1.532240
0.319100	-1.647142
0.319200	-1.837672
0.319300	-1.962312
0.319400	-1.887658
0.319500	-1.823066
0.319600	-1.716603
0.319700	-1.733481
0.319800	-1.842866
0.319900	-1.951601
0.320000	-1.979840
0.320100	-1.874350
0.320200	-1.793854
0.320300	-1.767238
0.320400	-1.781520
0.320500	-1.823066
0.320600	-1.845462
0.320700	-1.833453
0.320800	-1.797424
0.320900	-1.788336
0.321000	-1.779572
0.321100	-1.773730
0.321200	-1.783142
0.321300	-1.851954
0.321400	-1.839295
0.321500	-1.841243
0.321600	-1.844164
0.321700	-1.869157
0.321800	-1.818522
0.321900	-1.799372
0.322000	-1.888956
0.322100	-2.048002
0.322200	-2.071047
0.322300	-1.973023
0.322400	-1.849682
0.322500	-1.798073
0.322600	-1.877921
0.322700	-2.030799
0.322800	-2.066828
0.322900	-1.971400
0.323000	-1.800994
0.323100	-1.755228
0.323200	-1.817873
0.323300	-1.922064
0.323400	-1.957119
0.323500	-1.943811
0.323600	-1.926933
0.323700	-1.934723
0.323800	-1.979190
0.323900	-1.996069
0.324000	-1.998016
0.324100	-1.998341
0.324200	-2.036317
0.324300	-2.064231
0.324400	-2.088900
0.324500	-2.068126
0.324600	-2.073969
0.324700	-2.050923
0.324800	-2.097663
0.324900	-2.167449
0.325000	-2.171019
0.325100	-2.164852
0.325200	-2.129797
0.325300	-2.142780
0.325400	-2.161606
0.325500	-2.066503
0.325600	-2.061959
0.325700	-2.018140
0.325800	-1.992498
0.325900	-1.965558
0.326000	-1.962637
0.326100	-1.954198
0.326200	-1.931801
0.326300	-1.938942
0.326400	-1.935696
0.326500	-1.911028
0.326600	-1.924336
0.326700	-1.942513
0.326800	-1.948030
0.326900	-1.957119
0.327000	-1.974322
0.327100	-2.019763
0.327200	-2.142780
0.327300	-2.290790
0.327400	-2.340127
0.327500	-2.179783
0.327600	-2.093119
0.327700	-2.066503
0.327800	-2.275210
0.327900	-2.421273
0.328000	-2.451134
0.328100	-2.385569
0.328200	-2.264174
0.328300	-2.225549
0.328400	-2.283974
0.328500	-2.377129
0.328600	-2.411535
0.328700	-2.425817
0.328800	-2.370313
0.328900	-2.373234
0.329000	-2.328117
0.329100	-2.379401
0.329200	-2.394332
0.329300	-2.388490
0.329400	-2.412834
0.329500	-2.419325
0.329600	-2.459574
0.329700	-2.496576
0.329800	-2.500796
0.329900	-2.510533
0.330000	-2.515727
0.330100	-2.534877
0.330200	-2.535526
0.330300	-2.473206
0.330400	-2.384595
0.330500	-2.351812
0.330600	-2.428414
0.330700	-2.541044
0.330800	-2.567660
0.330900	-2.474180
0.331000	-2.303774
0.331100	-2.231716
0.331200	-2.295984
0.331300	-2.417053
0.331400	-2.467688
0.331500	-2.414781
0.331600	-2.311564
0.331700	-2.221005
0.331800	-2.200556
0.331900	-2.198933
0.332000	-2.200556
0.332100	-2.172317
0.332200	-2.123305
0.332300	-2.083706
0.332400	-2.030475
0.332500	-1.966532
0.332600	-1.892851
0.332700	-1.825987
0.332800	-1.789634
0.332900	-1.801644
0.333000	-1.783142
0.333100	-1.743543
0.333200	-1.641300
0.333300	-1.618904
0.333400	-1.604947
0.333500	-1.604947
0.333600	-1.521204
0.333700	-1.505949
0.333800	-1.458884
0.333900	-1.448173
0.334000	-1.400784
0.334100	-1.389424
0.334200	-1.429023
0.334300	-1.451744
0.334400	-1.451419
0.334500	-1.504651
0.334600	-1.538407
0.334700	-1.572813
0.334800	-1.519906
0.334900	-1.584173
0.335000	-1.601052
0.335100	-1.660450
0.335200	-1.740298
0.335300	-1.752632
0.335400	-1.835076
0.335500	-1.711085
0.335600	-1.640651
0.335700	-1.557882
0.335800	-1.711734
0.335900	-1.964260
0.336000	-1.963286
0.336100	-1.952899
0.336200	-1.783467
0.336300	-1.726340
0.336400	-1.774054
0.336500	-1.885386
0.336600	-1.954198
0.336700	-1.886360
0.336800	-1.796126
0.336900	-1.750360
0.337000	-1.767562
0.337100	-1.804565
0.337200	-1.837672
0.337300	-1.837672
0.337400	-1.856174
0.337500	-1.843839
0.337600	-1.848384
0.337700	-1.864288
0.337800	-1.878570
0.337900	-1.877271
0.338000	-1.934398
0.338100	-1.953873
0.338200	-1.958417
0.338300	-1.979840
0.338400	-1.973673
0.338500	-1.936346
0.338600	-1.931477
0.338700	-2.064556
0.338800	-2.217434
0.338900	-2.216785
0.339000	-2.092470
0.339100	-1.995420
0.339200	-2.032747
0.339300	-2.147324
0.339400	-2.284299
0.339500	-2.259306
0.339600	-2.151544
0.339700	-2.026255
0.339800	-2.037615
0.339900	-2.157387
0.340000	-2.240804
0.340100	-2.192442
0.340200	-2.161931
0.340300	-2.113892
0.340400	-2.158685
0.340500	-2.153816
0.340600	-2.163554
0.340700	-2.133043
0.340800	-2.106427
0.340900	-2.115840
0.341000	-2.165501
0.341100	-2.174589
0.341200	-2.143754
0.341300	-2.125577
0.341400	-2.110971
0.341500	-2.153816
0.341600	-2.211916
0.341700	-2.208671
0.341800	-2.204451
0.341900	-2.202828
0.342000	-2.241778
0.342100	-2.263201
0.342200	-2.184976
0.342300	-2.170370
0.342400	-2.166799
0.342500	-2.198609
0.342600	-2.179134
0.342700	-2.189520
0.342800	-2.195687
0.342900	-2.241129
0.343000	-2.235611
0.343100	-2.280728
0.343200	-2.275210
0.343300	-2.296957
0.343400	-2.335258
0.343500	-2.344022
0.343600	-2.413807
0.343700	-2.442046
0.343800	-2.508586
0.343900	-2.677694
0.344000	-2.805904
0.344100	-2.775069
0.344200	-2.631927
0.344300	-2.516376
0.344400	-2.594276
0.344500	-2.853618
0.344600	-2.987022
0.344700	-3.020454
0.344800	-2.901332
0.344900	-2.842582
0.345000	-2.812071
0.345100	-2.923404
0.345200	-2.999681
0.345300	-3.016559
0.345400	-2.972416
0.345500	-2.897437
0.345600	-2.849074
0.345700	-2.828301
0.345800	-2.872120
0.345900	-2.872120
0.346000	-2.870821
0.346100	-2.830897
0.346200	-2.817265
0.346300	-2.827651
0.346400	-2.874067
0.346500	-2.886726
0.346600	-2.844854
0.346700	-2.846802
0.346800	-2.853294
0.346900	-2.830248
0.347000	-2.742286
0.347100	-2.651727
0.347200	-2.631927
0.347300	-2.753322
0.347400	-2.849074
0.347500	-2.847776
0.347600	-2.709828
0.347700	-2.544290
0.347800	-2.528061
0.347900	-2.630305
0.348000	-2.790324
0.348100	-2.842258
0.348200	-2.751050
0.348300	-2.656920
0.348400	-2.612777
0.348500	-2.649130
0.348600	-2.707880
0.348700	-2.743909
0.348800	-2.725083
0.348900	-2.729303
0.349000	-2.674448
0.349100	-2.651402
0.349200	-2.595899
0.349300	-2.524490
0.349400	-2.480996
0.349500	-2.475478
0.349600	-2.485865
0.349700	-2.476452
0.349800	-2.398552
0.349900	-2.310265
0.350000	-2.267745
0.350100	-2.263525
0.350200	-2.242427
0.350300	-2.164852
0.350400	-2.134990
0.350500	-2.050599
0.350600	-1.981138
0.350700	-1.919143
0.350800	-1.869481
0.350900	-1.872078
0.351000	-1.850980
0.351100	-1.834426
0.351200	-1.842541
0.351300	-1.827286
0.351400	-1.793529
0.351500	-1.765940
0.351600	-1.751982
0.351700	-1.784765
0.351800	-1.768212
0.351900	-1.855524
0.352000	-1.779897
0.352100	-1.843515
0.352200	-1.611763
0.352300	-1.519581
0.352400	-1.436164
0.352500	-1.689013
0.352600	-1.771782
0.352700	-1.779897
0.352800	-1.711410
0.352900	-1.583524
0.353000	-1.532565
0.353100	-1.598455
0.353200	-1.698751
0.353300	-1.734780
0.353400	-1.664670
0.353500	-1.552689
0.353600	-1.481930
0.353700	-1.454989
0.353800	-1.471543
0.353900	-1.516011
0.354000	-1.509195
0.354100	-1.492316
0.354200	-1.432593
0.354300	-1.403705
0.354400	-1.368326
0.354500	-1.385853
0.354600	-1.390722
0.354700	-1.440059
0.354800	-1.417338
0.354900	-1.454340
0.355000	-1.445577
0.355100	-1.372221
0.355200	-1.344631
0.355300	-1.337815
0.355400	-1.545548
0.355500	-1.565023
0.355600	-1.549118
0.355700	-1.404030
0.355800	-1.341061
0.355900	-1.405977
0.356000	-1.571515
0.356100	-1.678951
0.356200	-1.638379
0.356300	-1.535486
0.356400	-1.466999
0.356500	-1.524775
0.356600	-1.664994
0.356700	-1.732508
0.356800	-1.734780
0.356900	-1.754904
0.357000	-1.761071
0.357100	-1.828584
0.357200	-1.834426
0.357300	-1.845787
0.357400	-1.881166
0.357500	-1.907133
0.357600	-1.973348
0.357700	-2.026904
0.357800	-2.035343
0.357900	-2.032747
0.358000	-2.031124
0.358100	-2.060336
0.358200	-2.179134
0.358300	-2.232365
0.358400	-2.252814
0.358500	-2.255735
0.358600	-2.284299
0.358700	-2.351812
0.358800	-2.315783
0.358900	-2.295984
0.359000	-2.301177
0.359100	-2.310590
0.359200	-2.324871
0.359300	-2.345645
0.359400	-2.330714
0.359500	-2.352136
0.359600	-2.391086
0.359700	-2.410886
0.359800	-2.420299
0.359900	-2.455679
0.360000	-2.480996
0.360100	-2.498524
0.360200	-2.538447
0.360300	-2.574476
0.360400	-2.627383
0.360500	-2.706257
0.360600	-2.903929
0.360700	-2.998383
0.360800	-2.928922
0.360900	-2.789675
0.361000	-2.764358
0.361100	-2.878936
0.361200	-3.076932
0.361300	-3.190212
0.361400	-3.160999
0.361500	-3.049667
0.361600	-2.999681
0.361700	-3.027271
0.361800	-3.114584
0.361900	-3.163272
0.362000	-3.171711
0.362100	-3.125295
0.362200	-3.034736
0.362300	-2.999681
0.362400	-3.000655
0.362500	-3.014937
0.362600	-2.980531
0.362700	-2.978583
0.362800	-2.963977
0.362900	-2.960406
0.363000	-2.953590
0.363100	-2.932817
0.363200	-2.897437
0.363300	-2.862707
0.363400	-2.855566
0.363500	-2.861408
0.363600	-2.818888
0.363700	-2.703660
0.363800	-2.608557
0.363900	-2.646534
0.364000	-2.773446
0.364100	-2.848749
0.364200	-2.829274
0.364300	-2.650429
0.364400	-2.535202
0.364500	-2.565388
0.364600	-2.686133
0.364700	-2.791947
0.364800	-2.765331
0.364900	-2.657245
0.365000	-2.562791
0.365100	-2.549159
0.365200	-2.544614
0.365300	-2.511832
0.365400	-2.465416
0.365500	-2.414456
0.365600	-2.368690
0.365700	-2.291115
0.365800	-2.228146
0.365900	-2.108050
0.366000	-2.005482
0.366100	-1.946732
0.366200	-1.912651
0.366300	-1.909730
0.366400	-1.905510
0.366500	-1.819171
0.366600	-1.734130
0.366700	-1.716928
0.366800	-1.708164
0.366900	-1.674083
0.367000	-1.664670
0.367100	-1.614684
0.367200	-1.560154
0.367300	-1.502378
0.367400	-1.492641
0.367500	-1.495238
0.367600	-1.513414
0.367700	-1.511791
0.367800	-1.523476
0.367900	-1.586445
0.368000	-1.574760
0.368100	-1.600727
0.368200	-1.580927
0.368300	-1.613710
0.368400	-1.607219
0.368500	-1.620527
0.368600	-1.699076
0.368700	-1.673758
0.368800	-1.709787
0.368900	-1.493290
0.369000	-1.464402
0.369100	-1.431944
0.369200	-1.727963
0.369300	-1.752956
0.369400	-1.744192
0.369500	-1.609491
0.369600	-1.474140
0.369700	-1.462130
0.369800	-1.553663
0.369900	-1.663371
0.370000	-1.661424
0.370100	-1.565997
0.370200	-1.442006
0.370300	-1.412145
0.370400	-1.437462
0.370500	-1.477710
0.370600	-1.516985
0.370700	-1.512116
0.370800	-1.477710
0.370900	-1.455314
0.371000	-1.465051
0.371100	-1.454016
0.371200	-1.451419
0.371300	-1.464727
0.371400	-1.494588
0.371500	-1.510818
0.371600	-1.541004
0.371700	-1.557557
0.371800	-1.506923
0.371900	-1.451419
0.372000	-1.534512
0.372100	-1.692259
0.372200	-1.746789
0.372300	-1.642598
0.372400	-1.514063
0.372500	-1.493290
0.372600	-1.584498
0.372700	-1.751982
0.372800	-1.826961
0.372900	-1.748737
0.373000	-1.572488
0.373100	-1.536784
0.373200	-1.591963
0.373300	-1.687715
0.373400	-1.700374
0.373500	-1.681873
0.373600	-1.656880
0.373700	-1.664994
0.373800	-1.714655
0.373900	-1.719200
0.374000	-1.726665
0.374100	-1.717577
0.374200	-1.726340
0.374300	-1.775677
0.374400	-1.821119
0.374500	-1.839944
0.374600	-1.825663
0.374700	-1.819820
0.374800	-1.851305
0.374900	-1.942837
0.375000	-1.989902
0.375100	-2.019114
0.375200	-2.006131
0.375300	-2.044432
0.375400	-2.080460
0.375500	-2.018790
0.375600	-2.009052
0.375700	-1.995744
0.375800	-1.991849
0.375900	-1.977892
0.376000	-1.980164
0.376100	-1.980489
0.376200	-1.983735
0.376300	-1.987630
0.376400	-2.004508
0.376500	-2.021711
0.376600	-2.052546
0.376700	-2.065530
0.376800	-2.093768
0.376900	-2.131095
0.377000	-2.190169
0.377100	-2.225224
0.377200	-2.386867
0.377300	-2.524166
0.377400	-2.616672
0.377500	-2.477426
0.377600	-2.419650
0.377700	-2.377454
0.377800	-2.588109
0.377900	-2.764682
0.378000	-2.837714
0.378100	-2.804606
0.378200	-2.693274
0.378300	-2.643288
0.378400	-2.677369
0.378500	-2.784157
0.378600	-2.839661
0.378700	-2.848100
0.378800	-2.786105
0.378900	-2.740338
0.379000	-2.697169
0.379100	-2.716319
0.379200	-2.754296
0.379300	-2.758515
0.379400	-2.764358
0.379500	-2.741637
0.379600	-2.756568
0.379700	-2.803957
0.379800	-2.804931
0.379900	-2.802334
0.380000	-2.782210
0.380100	-2.802009
0.380200	-2.812071
0.380300	-2.776367
0.380400	-2.668281
0.380500	-2.624137
0.380600	-2.724758
0.380700	-2.873093
0.380800	-2.928273
0.380900	-2.859461
0.381000	-2.707231
0.381100	-2.629331
0.381200	-2.694897
0.381300	-2.844530
0.381400	-2.941256
0.381500	-2.951318
0.381600	-2.865303
0.381700	-2.800062
0.381800	-2.774420
0.381900	-2.797465
0.382000	-2.814668
0.382100	-2.816291
0.382200	-2.802983
0.382300	-2.772797
0.382400	-2.739689
0.382500	-2.700739
0.382600	-2.644262
0.382700	-2.599794
0.382800	-2.581292
0.382900	-2.598820
0.383000	-2.596223
0.383100	-2.579020
0.383200	-2.504042
0.383300	-2.478075
0.383400	-2.462819
0.383500	-2.469636
0.383600	-2.416079
0.383700	-2.407965
0.383800	-2.350189
0.383900	-2.319354
0.384000	-2.255411
0.384100	-2.243401
0.384200	-2.237559
0.384300	-2.265797
0.384400	-2.278131
0.384500	-2.313836
0.384600	-2.377779
0.384700	-2.357330
0.384800	-2.363172
0.384900	-2.391736
0.385000	-2.426791
0.385100	-2.462170
0.385200	-2.522218
0.385300	-2.540070
0.385400	-2.552404
0.385500	-2.495602
0.385600	-2.299879
0.385700	-2.287869
0.385800	-2.376156
0.385900	-2.619593
0.386000	-2.639717
0.386100	-2.605636
0.386200	-2.431984
0.386300	-2.331039
0.386400	-2.338179
0.386500	-2.456652
0.386600	-2.519622
0.386700	-2.502094
0.386800	-2.406017
0.386900	-2.333635
0.387000	-2.303449
0.387100	-2.332661
0.387200	-2.352461
0.387300	-2.389464
0.387400	-2.378428
0.387500	-2.354084
0.387600	-2.358953
0.387700	-2.337530
0.387800	-2.347917
0.387900	-2.373559
0.388000	-2.444318
0.388100	-2.456003
0.388200	-2.493655
0.388300	-2.487163
0.388400	-2.448862
0.388500	-2.396280
0.388600	-2.363172
0.388700	-2.503392
0.388800	-2.592004
0.388900	-2.564414
0.389000	-2.411860
0.389100	-2.283974
0.389200	-2.282351
0.389300	-2.393034
0.389400	-2.541693
0.389500	-2.524815
0.389600	-2.432309
0.389700	-2.334609
0.389800	-2.354733
0.389900	-2.474504
0.390000	-2.574152
0.390100	-2.585187
0.390200	-2.585837
0.390300	-2.563765
0.390400	-2.612777
0.390500	-2.639717
0.390600	-2.642639
0.390700	-2.631278
0.390800	-2.629980
0.390900	-2.666009
0.391000	-2.701388
0.391100	-2.741961
0.391200	-2.711126
0.391300	-2.682887
0.391400	-2.634849
0.391500	-2.671851
0.391600	-2.707880
0.391700	-2.681589
0.391800	-2.629655
0.391900	-2.593627
0.392000	-2.596872
0.392100	-2.566686
0.392200	-2.444967
0.392300	-2.408289
0.392400	-2.344996
0.392500	-2.323573
0.392600	-2.290141
0.392700	-2.260279
0.392800	-2.248594
0.392900	-2.230093
0.393000	-2.209969
0.393100	-2.178809
0.393200	-2.161931
0.393300	-2.155764
0.393400	-2.118437
0.393500	-2.117463
0.393600	-2.091821
0.393700	-2.079162
0.393800	-2.066503
0.393900	-2.175888
0.394000	-2.284623
0.394100	-2.192117
0.394200	-2.028852
0.394300	-1.874026
0.394400	-1.863964
0.394500	-2.018790
0.394600	-2.163554
0.394700	-2.149597
0.394800	-2.038914
0.394900	-1.919792
0.395000	-1.864937
0.395100	-1.921415
0.395200	-1.970751
0.395300	-1.982112
0.395400	-1.923362
0.395500	-1.846761
0.395600	-1.834751
0.395700	-1.849033
0.395800	-1.843515
0.395900	-1.796450
0.396000	-1.780546
0.396100	-1.763018
0.396200	-1.767238
0.396300	-1.791906
0.396400	-1.839295
0.396500	-1.820794
0.396600	-1.832804
0.396700	-1.831181
0.396800	-1.864288
0.396900	-1.849033
0.397000	-1.763018
0.397100	-1.646818
0.397200	-1.693233
0.397300	-1.834426
0.397400	-1.977568
0.397500	-1.983735
0.397600	-1.900317
0.397700	-1.754904
0.397800	-1.729586
0.397900	-1.827935
0.398000	-1.963935
0.398100	-2.012298
0.398200	-1.983410
0.398300	-1.895448
0.398400	-1.838646
0.398500	-1.840269
0.398600	-1.899343
0.398700	-1.934723
0.398800	-1.921415
0.398900	-1.892202
0.399000	-1.831830
0.399100	-1.788011
0.399200	-1.739973
0.399300	-1.660126
0.399400	-1.595858
0.399500	-1.558531
0.399600	-1.548794
0.399700	-1.535486
0.399800	-1.475763
0.399900	-1.355343
0.400000	-1.321586
0.400100	-1.307954
0.400200	-1.278741
0.400300	-1.227133
0.400400	-1.158970
0.400500	-1.087562
0.400600	-1.033032
0.400700	-0.972985
0.400800	-0.951238
0.400900	-0.943123
0.401000	-0.960326
0.401100	-0.984345
0.401200	-0.983696
0.401300	-1.005768
0.401400	-0.975581
0.401500	-1.005443
0.401600	-0.976555
0.401700	-1.012584
0.401800	-1.059324
0.401900	-1.049262
0.402000	-1.095028
0.402100	-1.068412
0.402200	-0.990188
0.402300	-0.822379
0.402400	-0.868145
0.402500	-1.036603
0.402600	-1.204087
0.402700	-1.192078
0.402800	-1.145662
0.402900	-1.026865
0.403000	-0.963896
0.403100	-1.045691
0.403200	-1.207658
0.403300	-1.280689
0.403400	-1.277118
0.403500	-1.197271
0.403600	-1.198569
0.403700	-1.267705
0.403800	-1.373195
0.403900	-1.457262
0.404000	-1.511467
0.404100	-1.574760
0.404200	-1.626694
0.404300	-1.694207
0.404400	-1.756527
0.404500	-1.817224
0.404600	-1.904536
0.404700	-1.929529
0.404800	-2.056441
0.404900	-2.043133
0.405000	-2.108699
0.405100	-2.039563
0.405200	-2.057090
0.405300	-2.033071
0.405400	-2.220031
0.405500	-2.252165
0.405600	-2.191468
0.405700	-2.016517
0.405800	-1.916546
0.405900	-1.919792
0.406000	-1.978866
0.406100	-2.085654
0.406200	-1.995420
0.406300	-1.852603
0.406400	-1.702646
0.406500	-1.649739
0.406600	-1.727314
0.406700	-1.766913
0.406800	-1.777625
0.406900	-1.774054
0.407000	-1.704269
0.407100	-1.743219
0.407200	-1.709787
0.407300	-1.752956
0.407400	-1.794827
0.407500	-1.816899
0.407600	-1.888956
0.407700	-1.936346
0.407800	-1.999964
0.407900	-2.031773
0.408000	-2.069749
0.408100	-2.121682
0.408200	-2.251840
0.408300	-2.313186
0.408400	-2.320976
0.408500	-2.337530
0.408600	-2.370962
0.408700	-2.425817
0.408800	-2.410237
0.408900	-2.360900
0.409000	-2.391736
0.409100	-2.413158
0.409200	-2.419001
0.409300	-2.420948
0.409400	-2.447239
0.409500	-2.435554
0.409600	-2.459249
0.409700	-2.483917
0.409800	-2.490084
0.409900	-2.509884
0.410000	-2.520595
0.410100	-2.582591
0.410200	-2.579020
0.410300	-2.637121
0.410400	-2.667632
0.410500	-2.754620
0.410600	-2.938659
0.410700	-3.045123
0.410800	-3.030517
0.410900	-2.880883
0.411000	-2.812721
0.411100	-2.915614
0.411200	-3.105496
0.411300	-3.236952
0.411400	-3.237277
0.411500	-3.115558
0.411600	-3.027271
0.411700	-3.018507
0.411800	-3.124321
0.411900	-3.224618
0.412000	-3.248637
0.412100	-3.213582
0.412200	-3.147691
0.412300	-3.125620
0.412400	-3.121076
0.412500	-3.129190
0.412600	-3.177553
0.412700	-3.181773
0.412800	-3.218775
0.412900	-3.239873
0.413000	-3.303167
0.413100	-3.315826
0.413200	-3.328485
0.413300	-3.350881
0.413400	-3.395025
0.413500	-3.386261
0.413600	-3.367435
0.413700	-3.223320
0.413800	-3.131462
0.413900	-3.153859
0.414000	-3.254804
0.414100	-3.304790
0.414200	-3.222995
0.414300	-3.064598
0.414400	-2.926325
0.414500	-2.918210
0.414600	-3.045772
0.414700	-3.156780
0.414800	-3.208713
0.414900	-3.177878
0.415000	-3.137629
0.415100	-3.134059
0.415200	-3.167167
0.415300	-3.250260
0.415400	-3.322643
0.415500	-3.355101
0.415600	-3.426510
0.415700	-3.435273
0.415800	-3.452152
0.415900	-3.441441
0.416000	-3.433326
0.416100	-3.475847
0.416200	-3.530701
0.416300	-3.584907
0.416400	-3.612497
0.416500	-3.561862
0.416600	-3.523561
0.416700	-3.513498
0.416800	-3.509603
0.416900	-3.468706
0.417000	-3.372629
0.417100	-3.304790
0.417200	-3.208713
0.417300	-3.101276
0.417400	-2.998058
0.417500	-2.909447
0.417600	-2.837714
0.417700	-2.758515
0.417800	-2.679317
0.417900	-2.625111
0.418000	-2.556949
0.418100	-2.434581
0.418200	-2.368690
0.418300	-2.243076
0.418400	-2.204127
0.418500	-2.109997
0.418600	-2.089224
0.418700	-1.997692
0.418800	-1.884088
0.418900	-1.675056
0.419000	-1.445901
0.419100	-1.479333
0.419200	-1.548145
0.419300	-1.625720
0.419400	-1.485500
0.419500	-1.314445
0.419600	-1.127486
0.419700	-1.048612
0.419800	-1.098598
0.419900	-1.139820
0.420000	-1.101844
0.420100	-1.002522
0.420200	-0.869443
0.420300	-0.821080
0.420400	-0.832116
0.420500	-0.882426
0.420600	-0.910340
0.420700	-0.927868
0.420800	-0.926245
0.420900	-0.916183
0.421000	-0.907095
0.421100	-0.915209
0.421200	-0.890866
0.421300	-0.885023
0.421400	-0.931763
0.421500	-0.924297
0.421600	-0.992135
0.421700	-0.973959
0.421800	-0.993433
0.421900	-0.975906
0.422000	-1.098923
0.422100	-1.282312
0.422200	-1.371247
0.422300	-1.310875
0.422400	-1.206684
0.422500	-1.202464
0.422600	-1.336517
0.422700	-1.543600
0.422800	-1.671811
0.422900	-1.627018
0.423000	-1.507572
0.423100	-1.469271
0.423200	-1.546197
0.423300	-1.683496
0.423400	-1.716278
0.423500	-1.716603
0.423600	-1.688689
0.423700	-1.656880
0.423800	-1.698751
0.423900	-1.696479
0.424000	-1.689987
0.424100	-1.667266
0.424200	-1.655581
0.424300	-1.688040
0.424400	-1.733806
0.424500	-1.733806
0.424600	-1.728613
0.424700	-1.730885
0.424800	-1.769510
0.424900	-1.892851
0.425000	-1.948680
0.425100	-1.989902
0.425200	-2.007754
0.425300	-2.106427
0.425400	-2.189520
0.425500	-2.198284
0.425600	-2.251191
0.425700	-2.307669
0.425800	-2.354084
0.425900	-2.403745
0.426000	-2.451784
0.426100	-2.509235
0.426200	-2.568958
0.426300	-2.610830
0.426400	-2.624787
0.426500	-2.663087
0.426600	-2.697493
0.426700	-2.719240
0.426800	-2.743584
0.426900	-2.769876
0.427000	-2.813370
0.427100	-2.850048
0.427200	-2.924378
0.427300	-3.136656
0.427400	-3.165219
0.427500	-3.066545
0.427600	-2.940931
0.427700	-2.910096
0.427800	-3.090240
0.427900	-3.299272
0.428000	-3.385937
0.428100	-3.303817
0.428200	-3.176580
0.428300	-3.080178
0.428400	-3.132436
0.428500	-3.211310
0.428600	-3.257726
0.428700	-3.214880
0.428800	-3.085371
0.428900	-2.973065
0.429000	-2.859136
0.429100	-2.845828
0.429200	-2.777016
0.429300	-2.730926
0.429400	-2.660166
0.429500	-2.620892
0.429600	-2.632901
0.429700	-2.697818
0.429800	-2.723135
0.429900	-2.715345
0.430000	-2.681264
0.430100	-2.725083
0.430200	-2.766630
0.430300	-2.763059
0.430400	-2.674448
0.430500	-2.648157
0.430600	-2.748128
0.430700	-2.917561
0.430800	-3.003901
0.430900	-2.962029
0.431000	-2.807852
0.431100	-2.731575
0.431200	-2.782859
0.431300	-2.900034
0.431400	-2.989944
0.431500	-2.939308
0.431600	-2.817914
0.431700	-2.693274
0.431800	-2.667307
0.431900	-2.646858
0.432000	-2.624462
0.432100	-2.574476
0.432200	-2.502419
0.432300	-2.437502
0.432400	-2.337855
0.432500	-2.265473
0.432600	-2.176862
0.432700	-2.070398
0.432800	-2.014245
0.432900	-1.981463
0.433000	-1.956145
0.433100	-1.923038
0.433200	-1.814952
0.433300	-1.740622
0.433400	-1.698426
0.433500	-1.671811
0.433600	-1.591963
0.433700	-1.553663
0.433800	-1.513090
0.433900	-1.456288
0.434000	-1.373519
0.434100	-1.362808
0.434200	-1.311524
0.434300	-1.350474
0.434400	-1.330999
0.434500	-1.323858
0.434600	-1.314121
0.434700	-1.269653
0.434800	-1.235896
0.434900	-1.222264
0.435000	-1.196297
0.435100	-1.183314
0.435200	-1.168383
0.435300	-1.156374
0.435400	-1.130407
0.435500	-0.990837
0.435600	-0.849319
0.435700	-0.713968
0.435800	-0.857109
0.435900	-1.002522
0.436000	-1.099247
0.436100	-1.004794
0.436200	-0.901252
0.436300	-0.801281
0.436400	-0.814589
0.436500	-0.933710
0.436600	-1.058674
0.436700	-1.064517
0.436800	-0.996030
0.436900	-0.922675
0.437000	-0.926894
0.437100	-0.978827
0.437200	-1.068737
0.437300	-1.171304
0.437400	-1.221939
0.437500	-1.259915
0.437600	-1.307954
0.437700	-1.361185
0.437800	-1.441357
0.437900	-1.523152
0.438000	-1.604622
0.438100	-1.656880
0.438200	-1.737052
0.438300	-1.837348
0.438400	-1.899668
0.438500	-1.931477
0.438600	-2.003210
0.438700	-2.170694
0.438800	-2.374857
0.438900	-2.387191
0.439000	-2.285597
0.439100	-2.201205
0.439200	-2.186274
0.439300	-2.305072
0.439400	-2.469960
0.439500	-2.500471
0.439600	-2.419325
0.439700	-2.291115
0.439800	-2.267096
0.439900	-2.333960
0.440000	-2.418676
0.440100	-2.435230
0.440200	-2.422896
0.440300	-2.426141
0.440400	-2.440099
0.440500	-2.444643
0.440600	-2.428089
0.440700	-2.430686
0.440800	-2.441397
0.440900	-2.492681
0.441000	-2.540719
0.441100	-2.580643
0.441200	-2.569932
0.441300	-2.579345
0.441400	-2.567335
0.441500	-2.654973
0.441600	-2.724758
0.441700	-2.743260
0.441800	-2.758840
0.441900	-2.759164
0.442000	-2.800062
0.442100	-2.802334
0.442200	-2.729627
0.442300	-2.696195
0.442400	-2.665360
0.442500	-2.632901
0.442600	-2.587135
0.442700	-2.543965
0.442800	-2.506314
0.442900	-2.438800
0.443000	-2.356681
0.443100	-2.278456
0.443200	-2.226847
0.443300	-2.155764
0.443400	-2.127200
0.443500	-2.085654
0.443600	-2.068775
0.443700	-2.056441
0.443800	-2.035343
0.443900	-2.128823
0.444000	-2.216136
0.444100	-2.186599
0.444200	-2.035343
0.444300	-1.912326
0.444400	-1.921415
0.444500	-2.083706
0.444600	-2.267420
0.444700	-2.314485
0.444800	-2.239506
0.444900	-2.146351
0.445000	-2.111620
0.445100	-2.223926
0.445200	-2.308967
0.445300	-2.378103
0.445400	-2.383296
0.445500	-2.327144
0.445600	-2.324547
0.445700	-2.300852
0.445800	-2.359926
0.445900	-2.367716
0.446000	-2.388165
0.446100	-2.414132
0.446200	-2.435554
0.446300	-2.492681
0.446400	-2.582915
0.446500	-2.577397
0.446600	-2.634524
0.446700	-2.643612
0.446800	-2.708205
0.446900	-2.710801
0.447000	-2.652376
0.447100	-2.537149
0.447200	-2.517999
0.447300	-2.642639
0.447400	-2.751699
0.447500	-2.760787
0.447600	-2.663087
0.447700	-2.538447
0.447800	-2.529359
0.447900	-2.607908
0.448000	-2.744558
0.448100	-2.783184
0.448200	-2.736443
0.448300	-2.651402
0.448400	-2.603689
0.448500	-2.604662
0.448600	-2.618620
0.448700	-2.579345
0.448800	-2.530982
0.448900	-2.483593
0.449000	-2.445292
0.449100	-2.382972
0.449200	-2.298256
0.449300	-2.198609
0.449400	-2.119410
0.449500	-2.081759
0.449600	-2.079487
0.449700	-2.067477
0.449800	-2.018465
0.449900	-1.878894
0.450000	-1.806837
0.450100	-1.765290
0.450200	-1.726990
0.450300	-1.611438
0.450400	-1.527696
0.450500	-1.443629
0.450600	-1.381309
0.450700	-1.305032
0.450800	-1.268030
0.450900	-1.264784
0.451000	-1.227457
0.451100	-1.253748
0.451200	-1.222264
0.451300	-1.243037
0.451400	-1.185262
0.451500	-1.195973
0.451600	-1.174875
0.451700	-1.203114
0.451800	-1.203114
0.451900	-1.253748
0.452000	-1.249204
0.452100	-1.268679
0.452200	-1.159944
0.452300	-1.065491
0.452400	-1.009663
0.452500	-1.212526
0.452600	-1.395591
0.452700	-1.456612
0.452800	-1.405977
0.452900	-1.278741
0.453000	-1.226159
0.453100	-1.303085
0.453200	-1.454989
0.453300	-1.535810
0.453400	-1.502703
0.453500	-1.416364
0.453600	-1.395915
0.453700	-1.462455
0.453800	-1.531591
0.453900	-1.576383
0.454000	-1.596183
0.454100	-1.630913
0.454200	-1.624746
0.454300	-1.652660
0.454400	-1.677328
0.454500	-1.717901
0.454600	-1.770484
0.454700	-1.825987
0.454800	-1.914923
0.454900	-1.921090
0.455000	-1.995420
0.455100	-1.930178
0.455200	-1.924011
0.455300	-1.900966
0.455400	-2.083382
0.455500	-2.185301
0.455600	-2.168422
0.455700	-2.052222
0.455800	-1.970751
0.455900	-2.020088
0.456000	-2.155114
0.456100	-2.280079
0.456200	-2.244375
0.456300	-2.102207
0.456400	-1.995420
0.456500	-2.048327
0.456600	-2.148298
0.456700	-2.229119
0.456800	-2.208346
0.456900	-2.208346
0.457000	-2.176862
0.457100	-2.201530
0.457200	-2.205100
0.457300	-2.186274
0.457400	-2.152518
0.457500	-2.113243
0.457600	-2.105453
0.457700	-2.120384
0.457800	-2.094417
0.457900	-2.062284
0.458000	-2.011649
0.458100	-1.980164
0.458200	-2.034694
0.458300	-2.082408
0.458400	-2.088575
0.458500	-2.082732
0.458600	-2.093444
0.458700	-2.153816
0.458800	-2.132718
0.458900	-2.080785
0.459000	-2.085654
0.459100	-2.110322
0.459200	-2.109348
0.459300	-2.109673
0.459400	-2.098962
0.459500	-2.107076
0.459600	-2.092470
0.459700	-2.114866
0.459800	-2.096365
0.459900	-2.107725
0.460000	-2.095067
0.460100	-2.124604
0.460200	-2.129472
0.460300	-2.146026
0.460400	-2.180432
0.460500	-2.223601
0.460600	-2.398552
0.460700	-2.508910
0.460800	-2.461196
0.460900	-2.299879
0.461000	-2.184327
0.461100	-2.260604
0.461200	-2.468337
0.461300	-2.592977
0.461400	-2.568309
0.461500	-2.451459
0.461600	-2.342399
0.461700	-2.353110
0.461800	-2.441072
0.461900	-2.561493
0.462000	-2.552080
0.462100	-2.516376
0.462200	-2.447564
0.462300	-2.426791
0.462400	-2.454705
0.462500	-2.489435
0.462600	-2.498524
0.462700	-2.475478
0.462800	-2.473206
0.462900	-2.456977
0.463000	-2.455029
0.463100	-2.479373
0.463200	-2.483268
0.463300	-2.450810
0.463400	-2.440748
0.463500	-2.423869
0.463600	-2.387841
0.463700	-2.260929
0.463800	-2.162580
0.463900	-2.158685
0.464000	-2.263201
0.464100	-2.323898
0.464200	-2.313836
0.464300	-2.141807
0.464400	-2.014895
0.464500	-1.995095
0.464600	-2.096365
0.464700	-2.214838
0.464800	-2.223277
0.464900	-2.107076
0.465000	-1.992823
0.465100	-1.982112
0.465200	-2.006131
0.465300	-2.038265
0.465400	-2.024307
0.465500	-1.993472
0.465600	-1.993148
0.465700	-1.948680
0.465800	-1.927257
0.465900	-1.872403
0.466000	-1.808784
0.466100	-1.799047
0.466200	-1.832479
0.466300	-1.862665
0.466400	-1.907782
0.466500	-1.874675
0.466600	-1.848384
0.466700	-1.876298
0.466800	-1.921090
0.466900	-1.956794
0.467000	-1.949329
0.467100	-1.952575
0.467200	-1.948680
0.467300	-1.930503
0.467400	-1.952575
0.467500	-1.975295
0.467600	-2.037615
0.467700	-2.078513
0.467800	-2.151544
0.467900	-2.205100
0.468000	-2.252814
0.468100	-2.241129
0.468200	-2.311888
0.468300	-2.304747
0.468400	-2.364471
0.468500	-2.375831
0.468600	-2.432633
0.468700	-2.416729
0.468800	-2.361874
0.468900	-2.236260
0.469000	-2.058389
0.469100	-2.105778
0.469200	-2.318055
0.469300	-2.419001
0.469400	-2.453082
0.469500	-2.330065
0.469600	-2.224900
0.469700	-2.181081
0.469800	-2.276509
0.469900	-2.380700
0.470000	-2.402122
0.470100	-2.344996
0.470200	-2.265797
0.470300	-2.239181
0.470400	-2.275210
0.470500	-2.318380
0.470600	-2.344996
0.470700	-2.360576
0.470800	-2.370962
0.470900	-2.373884
0.471000	-2.377779
0.471100	-2.383296
0.471200	-2.406017
0.471300	-2.483268
0.471400	-2.513779
0.471500	-2.542667
0.471600	-2.596223
0.471700	-2.662114
0.471800	-2.643612
0.471900	-2.660166
0.472000	-2.674123
0.472100	-2.864654
0.472200	-2.885427
0.472300	-2.812721
0.472400	-2.678668
0.472500	-2.600443
0.472600	-2.653025
0.472700	-2.773771
0.472800	-2.807203
0.472900	-2.699765
0.473000	-2.552080
0.473100	-2.471583
0.473200	-2.516051
0.473300	-2.576748
0.473400	-2.536500
0.473500	-2.479373
0.473600	-2.417378
0.473700	-2.379077
0.473800	-2.363821
0.473900	-2.296633
0.474000	-2.240480
0.474100	-2.166799
0.474200	-2.146026
0.474300	-2.164527
0.474400	-2.172317
0.474500	-2.153492
0.474600	-2.114217
0.474700	-2.092145
0.474800	-2.116489
0.474900	-2.192442
0.475000	-2.232041
0.475100	-2.213864
0.475200	-2.181406
0.475300	-2.179783
0.475400	-2.182704
0.475500	-2.102207
0.475600	-2.050274
0.475700	-2.001587
0.475800	-1.978541
0.475900	-1.964260
0.476000	-1.939591
0.476100	-1.935696
0.476200	-1.931801
0.476300	-1.924985
0.476400	-1.918169
0.476500	-1.929854
0.476600	-1.923038
0.476700	-1.954522
0.476800	-1.973997
0.476900	-2.006131
0.477000	-2.034045
0.477100	-2.041510
0.477200	-2.144403
0.477300	-2.312213
0.477400	-2.404070
0.477500	-2.325196
0.477600	-2.200232
0.477700	-2.186274
0.477800	-2.330714
0.477900	-2.517025
0.478000	-2.657894
0.478100	-2.561493
0.478200	-2.455354
0.478300	-2.378103
0.478400	-2.443020
0.478500	-2.544939
0.478600	-2.634524
0.478700	-2.603364
0.478800	-2.554352
0.478900	-2.508261
0.479000	-2.518648
0.479100	-2.551755
0.479200	-2.572529
0.479300	-2.591030
0.479400	-2.587784
0.479500	-2.588433
0.479600	-2.563440
0.479700	-2.587459
0.479800	-2.616672
0.479900	-2.580968
0.480000	-2.563116
0.480100	-2.546562
0.480200	-2.539746
0.480300	-2.494304
0.480400	-2.394008
0.480500	-2.336881
0.480600	-2.400499
0.480700	-2.541044
0.480800	-2.604987
0.480900	-2.559545
0.481000	-2.415755
0.481100	-2.368366
0.481200	-2.455029
0.481300	-2.641340
0.481400	-2.740988
0.481500	-2.752997
0.481600	-2.686782
0.481700	-2.649780
0.481800	-2.687756
0.481900	-2.764358
0.482000	-2.812721
0.482100	-2.816940
0.482200	-2.793570
0.482300	-2.809150
0.482400	-2.782210
0.482500	-2.754620
0.482600	-2.699765
0.482700	-2.638095
0.482800	-2.644911
0.482900	-2.647832
0.483000	-2.653025
0.483100	-2.649780
0.483200	-2.570581
0.483300	-2.545913
0.483400	-2.544290
0.483500	-2.553378
0.483600	-2.504042
0.483700	-2.489435
0.483800	-2.467688
0.483900	-2.429712
0.484000	-2.382972
0.484100	-2.379401
0.484200	-2.374208
0.484300	-2.413807
0.484400	-2.427764
0.484500	-2.418676
0.484600	-2.452757
0.484700	-2.427115
0.484800	-2.442371
0.484900	-2.431335
0.485000	-2.420948
0.485100	-2.399201
0.485200	-2.389139
0.485300	-2.389788
0.485400	-2.353759
0.485500	-2.223277
0.485600	-2.069100
0.485700	-1.864613
0.485800	-1.963286
0.485900	-2.081759
0.486000	-2.122656
0.486100	-2.023334
0.486200	-1.892851
0.486300	-1.722121
0.486400	-1.677328
0.486500	-1.741271
0.486600	-1.800994
0.486700	-1.742245
0.486800	-1.595209
0.486900	-1.438111
0.487000	-1.399161
0.487100	-1.406627
0.487200	-1.400460
0.487300	-1.420908
0.487400	-1.368975
0.487500	-1.309577
0.487600	-1.256994
0.487700	-1.243037
0.487800	-1.221615
0.487900	-1.205710
0.488000	-1.177796
0.488100	-1.242713
0.488200	-1.145662
0.488300	-1.196622
0.488400	-1.150856
0.488500	-1.094703
0.488600	-1.020049
0.488700	-1.095352
0.488800	-1.230703
0.488900	-1.212202
0.489000	-1.106713
0.489100	-0.952861
0.489200	-0.920402
0.489300	-1.032059
0.489400	-1.191753
0.489500	-1.230703
0.489600	-1.137223
0.489700	-1.019725
0.489800	-1.003820
0.489900	-1.091782
0.490000	-1.201491
0.490100	-1.251152
0.490200	-1.292374
0.490300	-1.293672
0.490400	-1.341710
0.490500	-1.412469
0.490600	-1.451419
0.490700	-1.524125
0.490800	-1.573787
0.490900	-1.625720
0.491000	-1.704269
0.491100	-1.751658
0.491200	-1.801644
0.491300	-1.866560
0.491400	-1.891878
0.491500	-1.993797
0.491600	-2.071697
0.491700	-2.120059
0.491800	-2.159334
0.491900	-2.174589
0.492000	-2.264499
0.492100	-2.295010
0.492200	-2.243076
0.492300	-2.284623
0.492400	-2.301501
0.492500	-2.320003
0.492600	-2.340451
0.492700	-2.363497
0.492800	-2.397903
0.492900	-2.411535
0.493000	-2.431010
0.493100	-2.459898
0.493200	-2.456652
0.493300	-2.508586
0.493400	-2.529359
0.493500	-2.551755
0.493600	-2.583240
0.493700	-2.600118
0.493800	-2.668281
0.493900	-2.776367
0.494000	-2.999032
0.494100	-3.005848
0.494200	-2.934115
0.494300	-2.800062
0.494400	-2.844205
0.494500	-3.055510
0.494600	-3.225267
0.494700	-3.306738
0.494800	-3.248313
0.494900	-3.174632
0.495000	-3.157429
0.495100	-3.274279
0.495200	-3.381392
0.495300	-3.492400
0.495400	-3.470329
0.495500	-3.470004
0.495600	-3.445660
0.495700	-3.429756
0.495800	-3.485260
0.495900	-3.511876
0.496000	-3.538491
0.496100	-3.542711
0.496200	-3.545632
0.496300	-3.574196
0.496400	-3.615094
0.496500	-3.647552
0.496600	-3.648201
0.496700	-3.697214
0.496800	-3.717987
0.496900	-3.715066
0.497000	-3.674168
0.497100	-3.539465
0.497200	-3.529403
0.497300	-3.647228
0.497400	-3.745252
0.497500	-3.797186
0.497600	-3.681634
0.497700	-3.531026
0.497800	-3.492400
0.497900	-3.562186
0.498000	-3.715066
0.498100	-3.752718
0.498200	-3.691047
0.498300	-3.601786
0.498400	-3.517393
0.498500	-3.506033
0.498600	-3.509279
0.498700	-3.490453
0.498800	-3.470978
0.498900	-3.432028
0.499000	-3.426185
0.499100	-3.355101
0.499200	-3.272007
0.499300	-3.198327
0.499400	-3.141849
0.499500	-3.135682
0.499600	-3.111663
0.499700	-3.106145
0.499800	-3.069142
0.499900	-2.952292
0.500000	-2.893542
0.500100	-2.851022
0.500200	-2.832520
0.500300	-2.757217
0.500400	-2.716968
0.500500	-2.677694
0.500600	-2.638419
0.500700	-2.571879
0.500800	-2.561817
0.500900	-2.572204
0.501000	-2.599469
0.501100	-2.636472
0.501200	-2.663737
0.501300	-2.702687
0.501400	-2.707555
0.501500	-2.709178
0.501600	-2.708205
0.501700	-2.727680
0.501800	-2.795193
0.501900	-2.836740
0.502000	-2.878936
0.502100	-2.850697
0.502200	-2.780587
0.502300	-2.605636
0.502400	-2.603364
0.502500	-2.732873
0.502600	-2.928273
0.502700	-2.913666
0.502800	-2.873742
0.502900	-2.704634
0.503000	-2.620242
0.503100	-2.643937
0.503200	-2.759164
0.503300	-2.824730
0.503400	-2.749102
0.503500	-2.631603
0.503600	-2.554352
0.503700	-2.578047
0.503800	-2.634849
0.503900	-2.675746
0.504000	-2.703660
0.504100	-2.699116
0.504200	-2.675097
0.504300	-2.671851
0.504400	-2.659842
0.504500	-2.674448
0.504600	-2.671202
0.504700	-2.723135
0.504800	-2.715995
0.504900	-2.745532
0.505000	-2.724434
0.505100	-2.658868
0.505200	-2.597846
0.505300	-2.585187
0.505400	-2.676720
0.505500	-2.761112
0.505600	-2.708854
0.505700	-2.539746
0.505800	-2.407640
0.505900	-2.420948
0.506000	-2.557598
0.506100	-2.675746
0.506200	-2.635173
0.506300	-2.532929
0.506400	-2.459249
0.506500	-2.517025
0.506600	-2.666009
0.506700	-2.758840
0.506800	-2.772472
0.506900	-2.792921
0.507000	-2.785780
0.507100	-2.807203
0.507200	-2.783508
0.507300	-2.754945
0.507400	-2.719890
0.507500	-2.699441
0.507600	-2.711450
0.507700	-2.737093
0.507800	-2.749751
0.507900	-2.717618
0.508000	-2.723785
0.508100	-2.709503
0.508200	-2.795842
0.508300	-2.856864
0.508400	-2.871146
0.508500	-2.871795
0.508600	-2.881208
0.508700	-2.924702
0.508800	-2.943528
0.508900	-2.872769
0.509000	-2.894191
0.509100	-2.882506
0.509200	-2.894840
0.509300	-2.896788
0.509400	-2.909447
0.509500	-2.923728
0.509600	-2.939633
0.509700	-2.922430
0.509800	-2.966573
0.509900	-2.977934
0.510000	-3.024999
0.510100	-3.024025
0.510200	-3.068493
0.510300	-3.093486
0.510400	-3.083099
0.510500	-3.149964
0.510600	-3.294079
0.510700	-3.429431
0.510800	-3.383664
0.510900	-3.218126
0.511000	-3.098679
0.511100	-3.104846
0.511200	-3.267139
0.511300	-3.389182
0.511400	-3.348609
0.511500	-3.170088
0.511600	-3.030517
0.511700	-2.951967
0.511800	-3.057132
0.511900	-3.117505
0.512000	-3.128866
0.512100	-3.006822
0.512200	-2.912693
0.512300	-2.866277
0.512400	-2.820835
0.512500	-2.806554
0.512600	-2.777666
0.512700	-2.742286
0.512800	-2.726057
0.512900	-2.694248
0.513000	-2.704310
0.513100	-2.714696
0.513200	-2.690353
0.513300	-2.670878
0.513400	-2.638095
0.513500	-2.657245
0.513600	-2.639393
0.513700	-2.497225
0.513800	-2.427440
0.513900	-2.409912
0.514000	-2.557598
0.514100	-2.641665
0.514200	-2.644911
0.514300	-2.500796
0.514400	-2.358953
0.514500	-2.358628
0.514600	-2.478724
0.514700	-2.630629
0.514800	-2.691975
0.514900	-2.634524
0.515000	-2.551106
0.515100	-2.523841
0.515200	-2.551755
0.515300	-2.601741
0.515400	-2.609856
0.515500	-2.636147
0.515600	-2.631927
0.515700	-2.617321
0.515800	-2.587459
0.515900	-2.541693
0.516000	-2.501769
0.516100	-2.470285
0.516200	-2.488786
0.516300	-2.514753
0.516400	-2.530008
0.516500	-2.475803
0.516600	-2.396280
0.516700	-2.358953
0.516800	-2.350189
0.516900	-2.326170
0.517000	-2.283974
0.517100	-2.232365
0.517200	-2.175239
0.517300	-2.123305
0.517400	-2.106752
0.517500	-2.083057
0.517600	-2.109673
0.517700	-2.114217
0.517800	-2.136613
0.517900	-2.152842
0.518000	-2.151869
0.518100	-2.147649
0.518200	-2.134666
0.518300	-2.144728
0.518400	-2.157387
0.518500	-2.180432
0.518600	-2.196012
0.518700	-2.161606
0.518800	-2.146351
0.518900	-1.987954
0.519000	-1.865586
0.519100	-1.810732
0.519200	-1.968804
0.519300	-2.046704
0.519400	-2.003859
0.519500	-1.925310
0.519600	-1.734780
0.519700	-1.640975
0.519800	-1.701023
0.519900	-1.807486
0.520000	-1.841243
0.520100	-1.744842
0.520200	-1.610464
0.520300	-1.577357
0.520400	-1.566321
0.520500	-1.600402
0.520600	-1.642274
0.520700	-1.643572
0.520800	-1.620527
0.520900	-1.585796
0.521000	-1.596832
0.521100	-1.587419
0.521200	-1.573137
0.521300	-1.606245
0.521400	-1.675056
0.521500	-1.681873
0.521600	-1.710436
0.521700	-1.766913
0.521800	-1.741920
0.521900	-1.717901
0.522000	-1.794503
0.522100	-1.982761
0.522200	-2.034694
0.522300	-2.017167
0.522400	-1.887983
0.522500	-1.880193
0.522600	-1.951276
0.522700	-2.177835
0.522800	-2.283325
0.522900	-2.281053
0.523000	-2.171993
0.523100	-2.154141
0.523200	-2.220356
0.523300	-2.343697
0.523400	-2.395955
0.523500	-2.421922
0.523600	-2.443669
0.523700	-2.453406
0.523800	-2.514428
0.523900	-2.502743
0.524000	-2.525789
0.524100	-2.541693
0.524200	-2.584863
0.524300	-2.644911
0.524400	-2.698467
0.524500	-2.724758
0.524600	-2.737417
0.524700	-2.748128
0.524800	-2.817589
0.524900	-2.939958
0.525000	-3.006173
0.525100	-3.038307
0.525200	-3.069467
0.525300	-3.131138
0.525400	-3.162947
0.525500	-3.133410
0.525600	-3.122374
0.525700	-3.136980
0.525800	-3.162298
0.525900	-3.153209
0.526000	-3.190212
0.526100	-3.235654
0.526200	-3.254155
0.526300	-3.299597
0.526400	-3.320695
0.526500	-3.362242
0.526600	-3.378471
0.526700	-3.394376
0.526800	-3.429106
0.526900	-3.436247
0.527000	-3.502787
0.527100	-3.515121
0.527200	-3.593996
0.527300	-3.775114
0.527400	-3.824451
0.527500	-3.754665
0.527600	-3.573871
0.527700	-3.539465
0.527800	-3.610549
0.527900	-3.799783
0.528000	-3.892939
0.528100	-3.810819
0.528200	-3.673194
0.528300	-3.544009
0.528400	-3.560563
0.528500	-3.609251
0.528600	-3.675142
0.528700	-3.632621
0.528800	-3.594645
0.528900	-3.520315
0.529000	-3.500840
0.529100	-3.500515
0.529200	-3.481365
0.529300	-3.490778
0.529400	-3.489479
0.529500	-3.521938
0.529600	-3.523885
0.529700	-3.556993
0.529800	-3.598864
0.529900	-3.606330
0.530000	-3.622234
0.530100	-3.657939
0.530200	-3.663132
0.530300	-3.658588
0.530400	-3.554396
0.530500	-3.505059
0.530600	-3.550826
0.530700	-3.706951
0.530800	-3.775114
0.530900	-3.749796
0.531000	-3.591399
0.531100	-3.485584
0.531200	-3.515121
0.531300	-3.638788
0.531400	-3.732593
0.531500	-3.707925
0.531600	-3.585881
0.531700	-3.496620
0.531800	-3.456047
0.531900	-3.464162
0.532000	-3.459617
0.532100	-3.404763
0.532200	-3.344065
0.532300	-3.314203
0.532400	-3.257076
0.532500	-3.189563
0.532600	-3.086020
0.532700	-3.001953
0.532800	-2.967223
0.532900	-2.968521
0.533000	-2.980531
0.533100	-2.987022
0.533200	-2.921781
0.533300	-2.844854
0.533400	-2.837389
0.533500	-2.854267
0.533600	-2.826029
0.533700	-2.796167
0.533800	-2.792596
0.533900	-2.758840
0.534000	-2.734821
0.534100	-2.729627
0.534200	-2.738716
0.534300	-2.769551
0.534400	-2.800711
0.534500	-2.839012
0.534600	-2.864979
0.534700	-2.872120
0.534800	-2.881532
0.534900	-2.849399
0.535000	-2.862057
0.535100	-2.827976
0.535200	-2.885752
0.535300	-2.878287
0.535400	-2.893217
0.535500	-2.786429
0.535600	-2.649455
0.535700	-2.557922
0.535800	-2.549808
0.535900	-2.853943
0.536000	-2.881857
0.536100	-2.887700
0.536200	-2.748128
0.536300	-2.625436
0.536400	-2.595574
0.536500	-2.725732
0.536600	-2.821809
0.536700	-2.812396
0.536800	-2.707231
0.536900	-2.592653
0.537000	-2.549808
0.537100	-2.546562
0.537200	-2.553054
0.537300	-2.534552
0.537400	-2.466714
0.537500	-2.400175
0.537600	-2.330065
0.537700	-2.328117
0.537800	-2.276833
0.537900	-2.215811
0.538000	-2.180757
0.538100	-2.212241
0.538200	-2.160308
0.538300	-2.164527
0.538400	-2.109997
0.538500	-2.050274
0.538600	-1.961663
0.538700	-1.979190
0.538800	-2.143105
0.538900	-2.118437
0.539000	-2.011324
0.539100	-1.832804
0.539200	-1.720498
0.539300	-1.794503
0.539400	-1.914598
0.539500	-1.968804
0.539600	-1.829558
0.539700	-1.686092
0.539800	-1.647791
0.539900	-1.711410
0.540000	-1.813978
0.540100	-1.848384
0.540200	-1.860069
0.540300	-1.849682
0.540400	-1.837997
0.540500	-1.876298
0.540600	-1.913300
0.540700	-1.950303
0.540800	-1.956470
0.540900	-1.979190
0.541000	-2.034045
0.541100	-2.089873
0.541200	-2.127525
0.541300	-2.165826
0.541400	-2.187897
0.541500	-2.271964
0.541600	-2.375182
0.541700	-2.427115
0.541800	-2.456977
0.541900	-2.510209
0.542000	-2.609856
0.542100	-2.662763
0.542200	-2.623813
0.542300	-2.662114
0.542400	-2.698467
0.542500	-2.737093
0.542600	-2.768253
0.542700	-2.801360
0.542800	-2.850372
0.542900	-2.896788
0.543000	-2.912043
0.543100	-2.984426
0.543200	-3.009094
0.543300	-3.036684
0.543400	-3.076283
0.543500	-3.115233
0.543600	-3.164245
0.543700	-3.176580
0.543800	-3.238900
0.543900	-3.329134
0.544000	-3.527131
0.544100	-3.543360
0.544200	-3.444686
0.544300	-3.259349
0.544400	-3.294728
0.544500	-3.468706
0.544600	-3.621910
0.544700	-3.711495
0.544800	-3.621585
0.544900	-3.509603
0.545000	-3.453450
0.545100	-3.509603
0.545200	-3.610549
0.545300	-3.669948
0.545400	-3.643982
0.545500	-3.568678
0.545600	-3.520639
0.545700	-3.507331
0.545800	-3.542062
0.545900	-3.568353
0.546000	-3.559914
0.546100	-3.524859
0.546200	-3.505059
0.546300	-3.517069
0.546400	-3.530052
0.546500	-3.527456
0.546600	-3.528429
0.546700	-3.507331
0.546800	-3.504410
0.546900	-3.508954
0.547000	-3.409307
0.547100	-3.276876
0.547200	-3.206117
0.547300	-3.280447
0.547400	-3.386261
0.547500	-3.440791
0.547600	-3.316151
0.547700	-3.176255
0.547800	-3.123997
0.547900	-3.182747
0.548000	-3.295702
0.548100	-3.354452
0.548200	-3.302518
0.548300	-3.196055
0.548400	-3.113935
0.548500	-3.138279
0.548600	-3.165544
0.548700	-3.182422
0.548800	-3.194756
0.548900	-3.162298
0.549000	-3.123348
0.549100	-3.065572
0.549200	-2.994812
0.549300	-2.909771
0.549400	-2.864654
0.549500	-2.848425
0.549600	-2.846153
0.549700	-2.821809
0.549800	-2.779938
0.549900	-2.671851
0.550000	-2.635173
0.550100	-2.628682
0.550200	-2.639068
0.550300	-2.566037
0.550400	-2.555326
0.550500	-2.521244
0.550600	-2.492681
0.550700	-2.452433
0.550800	-2.446266
0.550900	-2.484242
0.551000	-2.524490
0.551100	-2.570581
0.551200	-2.592004
0.551300	-2.646534
0.551400	-2.630954
0.551500	-2.679966
0.551600	-2.651078
0.551700	-2.682887
0.551800	-2.689703
0.551900	-2.741312
0.552000	-2.765331
0.552100	-2.746830
0.552200	-2.689054
0.552300	-2.478724
0.552400	-2.466065
0.552500	-2.517349
0.552600	-2.783833
0.552700	-2.746181
0.552800	-2.703985
0.552900	-2.551106
0.553000	-2.444967
0.553100	-2.474504
0.553200	-2.579994
0.553300	-2.650429
0.553400	-2.598495
0.553500	-2.484567
0.553600	-2.403096
0.553700	-2.398227
0.553800	-2.437502
0.553900	-2.461521
0.554000	-2.480022
0.554100	-2.450485
0.554200	-2.450485
0.554300	-2.444643
0.554400	-2.439449
0.554500	-2.442371
0.554600	-2.433931
0.554700	-2.450810
0.554800	-2.520920
0.554900	-2.511832
0.555000	-2.547536
0.555100	-2.516376
0.555200	-2.517674
0.555300	-2.497225
0.555400	-2.655622
0.555500	-2.774744
0.555600	-2.797141
0.555700	-2.741961
0.555800	-2.629655
0.555900	-2.697493
0.556000	-2.867251
0.556100	-2.996760
0.556200	-2.969819
0.556300	-2.873093
0.556400	-2.786105
0.556500	-2.805255
0.556600	-2.910096
0.556700	-2.968846
0.556800	-2.946125
0.556900	-2.950020
0.557000	-2.901332
0.557100	-2.910096
0.557200	-2.870821
0.557300	-2.834468
0.557400	-2.792921
0.557500	-2.762410
0.557600	-2.753322
0.557700	-2.778315
0.557800	-2.754296
0.557900	-2.701064
0.558000	-2.681589
0.558100	-2.664710
0.558200	-2.722486
0.558300	-2.758515
0.558400	-2.748128
0.558500	-2.718916
0.558600	-2.721837
0.558700	-2.761436
0.558800	-2.757217
0.558900	-2.674448
0.559000	-2.666658
0.559100	-2.650104
0.559200	-2.651727
0.559300	-2.639068
0.559400	-2.653025
0.559500	-2.667307
0.559600	-2.656920
0.559700	-2.667307
0.559800	-2.658219
0.559900	-2.670878
0.560000	-2.691002
0.560100	-2.697169
0.560200	-2.727355
0.560300	-2.724434
0.560400	-2.761112
0.560500	-2.758191
0.560600	-2.932817
0.560700	-3.070116
0.560800	-3.070116
0.560900	-2.888673
0.561000	-2.756892
0.561100	-2.809475
0.561200	-2.996760
0.561300	-3.151911
0.561400	-3.156780
0.561500	-3.021104
0.561600	-2.914965
0.561700	-2.932817
0.561800	-3.045123
0.561900	-3.137954
0.562000	-3.123348
0.562100	-3.081476
0.562200	-2.975662
0.562300	-2.988970
0.562400	-2.973390
0.562500	-3.014937
0.562600	-2.983776
0.562700	-2.973714
0.562800	-2.957161
0.562900	-2.975986
0.563000	-2.994488
0.563100	-3.027271
0.563200	-3.000655
0.563300	-2.980855
0.563400	-3.000979
0.563500	-3.045447
0.563600	-3.030192
0.563700	-2.937036
0.563800	-2.852644
0.563900	-2.885103
0.564000	-3.009743
0.564100	-3.177878
0.564200	-3.214231
0.564300	-3.104846
0.564400	-3.018182
0.564500	-3.053237
0.564600	-3.199625
0.564700	-3.390805
0.564800	-3.489804
0.564900	-3.447932
0.565000	-3.385937
0.565100	-3.360619
0.565200	-3.416123
0.565300	-3.495322
0.565400	-3.554721
0.565500	-3.569002
0.565600	-3.586530
0.565700	-3.577766
0.565800	-3.550177
0.565900	-3.518367
0.566000	-3.484935
0.566100	-3.449231
0.566200	-3.442090
0.566300	-3.460916
0.566400	-3.486233
0.566500	-3.457994
0.566600	-3.356724
0.566700	-3.331731
0.566800	-3.323941
0.566900	-3.303167
0.567000	-3.257726
0.567100	-3.203520
0.567200	-3.137305
0.567300	-3.072388
0.567400	-3.000006
0.567500	-2.988970
0.567600	-2.987022
0.567700	-2.996760
0.567800	-2.990593
0.567900	-2.999032
0.568000	-2.979232
0.568100	-2.940282
0.568200	-2.916912
0.568300	-2.913666
0.568400	-2.889972
0.568500	-2.951967
0.568600	-2.916912
0.568700	-2.966249
0.568800	-2.906525
0.568900	-2.740338
0.569000	-2.614075
0.569100	-2.515727
0.569200	-2.758840
0.569300	-2.827651
0.569400	-2.790649
0.569500	-2.661789
0.569600	-2.451459
0.569700	-2.374533
0.569800	-2.429387
0.569900	-2.540719
0.570000	-2.567660
0.570100	-2.438151
0.570200	-2.290466
0.570300	-2.199582
0.570400	-2.188871
0.570500	-2.238208
0.570600	-2.266446
0.570700	-2.272614
0.570800	-2.250542
0.570900	-2.240155
0.571000	-2.281053
0.571100	-2.310914
0.571200	-2.320327
0.571300	-2.294036
0.571400	-2.387191
0.571500	-2.364146
0.571600	-2.466714
0.571700	-2.447889
0.571800	-2.451134
0.571900	-2.369664
0.572000	-2.447889
0.572100	-2.607584
0.572200	-2.676071
0.572300	-2.652701
0.572400	-2.528710
0.572500	-2.433282
0.572600	-2.492357
0.572700	-2.661789
0.572800	-2.810773
0.572900	-2.768577
0.573000	-2.644262
0.573100	-2.558247
0.573200	-2.585837
0.573300	-2.697493
0.573400	-2.786754
0.573500	-2.807852
0.573600	-2.839337
0.573700	-2.817265
0.573800	-2.854592
0.573900	-2.856215
0.574000	-2.869198
0.574100	-2.857189
0.574200	-2.867900
0.574300	-2.896139
0.574400	-2.920483
0.574500	-2.932492
0.574600	-2.923728
0.574700	-2.945151
0.574800	-2.959108
0.574900	-3.055185
0.575000	-3.140875
0.575100	-3.162947
0.575200	-3.196704
0.575300	-3.222671
0.575400	-3.286938
0.575500	-3.295377
0.575600	-3.273306
0.575700	-3.308361
0.575800	-3.330433
0.575900	-3.340170
0.576000	-3.371979
0.576100	-3.385612
0.576200	-3.408333
0.576300	-3.418720
0.576400	-3.413851
0.576500	-3.441765
0.576600	-3.424238
0.576700	-3.448581
0.576800	-3.444686
0.576900	-3.439169
0.577000	-3.442739
0.577100	-3.420343
0.577200	-3.497269
0.577300	-3.617366
0.577400	-3.694292
0.577500	-3.582635
0.577600	-3.414500
0.577700	-3.310958
0.577800	-3.396972
0.577900	-3.620612
0.578000	-3.690073
0.578100	-3.632297
0.578200	-3.492076
0.578300	-3.365812
0.578400	-3.372629
0.578500	-3.449231
0.578600	-3.519990
0.578700	-3.499866
0.578800	-3.427808
0.578900	-3.358671
0.579000	-3.328810
0.579100	-3.298299
0.579200	-3.292456
0.579300	-3.283368
0.579400	-3.221372
0.579500	-3.221048
0.579600	-3.227539
0.579700	-3.231110
0.579800	-3.223969
0.579900	-3.207415
0.580000	-3.176255
0.580100	-3.172035
0.580200	-3.143147
0.580300	-3.083748
0.580400	-2.892893
0.580500	-2.827327
0.580600	-2.834792
0.580700	-2.916912
0.580800	-2.980531
0.580900	-2.905876
0.581000	-2.752997
0.581100	-2.614725
0.581200	-2.604987
0.581300	-2.703985
0.581400	-2.807527
0.581500	-2.832845
0.581600	-2.770849
0.581700	-2.709503
0.581800	-2.691002
0.581900	-2.699765
0.582000	-2.740988
0.582100	-2.762086
0.582200	-2.771823
0.582300	-2.786429
0.582400	-2.772797
0.582500	-2.758515
0.582600	-2.723135
0.582700	-2.716968
0.582800	-2.719240
0.582900	-2.772797
0.583000	-2.805580
0.583100	-2.868874
0.583200	-2.847776
0.583300	-2.790649
0.583400	-2.817589
0.583500	-2.863031
0.583600	-2.875365
0.583700	-2.887700
0.583800	-2.894191
0.583900	-2.888349
0.584000	-2.874716
0.584100	-2.843556
0.584200	-2.860759
0.584300	-2.870172
0.584400	-2.913342
0.584500	-2.927299
0.584600	-2.980855
0.584700	-2.951643
0.584800	-2.941256
0.584900	-2.907824
0.585000	-2.909122
0.585100	-2.909771
0.585200	-2.916912
0.585300	-2.944177
0.585400	-2.934115
0.585500	-2.878936
0.585600	-2.720863
0.585700	-2.611479
0.585800	-2.609207
0.585900	-2.845828
0.586000	-2.938659
0.586100	-2.893217
0.586200	-2.763708
0.586300	-2.595574
0.586400	-2.519946
0.586500	-2.624137
0.586600	-2.685159
0.586700	-2.668281
0.586800	-2.523841
0.586900	-2.389464
0.587000	-2.349540
0.587100	-2.330389
0.587200	-2.351487
0.587300	-2.317406
0.587400	-2.276184
0.587500	-2.238208
0.587600	-2.196986
0.587700	-2.199907
0.587800	-2.183353
0.587900	-2.146675
0.588000	-2.130122
0.588100	-2.197959
0.588200	-2.196661
0.588300	-2.243076
0.588400	-2.224251
0.588500	-2.217434
0.588600	-2.204451
0.588700	-2.276184
0.588800	-2.470934
0.588900	-2.463469
0.589000	-2.458275
0.589100	-2.309941
0.589200	-2.290466
0.589300	-2.385893
0.589400	-2.546237
0.589500	-2.618620
0.589600	-2.547211
0.589700	-2.433607
0.589800	-2.390437
0.589900	-2.443344
0.590000	-2.569932
0.590100	-2.586810
0.590200	-2.590056
0.590300	-2.590381
0.590400	-2.584538
0.590500	-2.620567
0.590600	-2.637445
0.590700	-2.628682
0.590800	-2.608557
0.590900	-2.616023
0.591000	-2.654324
0.591100	-2.673799
0.591200	-2.685484
0.591300	-2.658219
0.591400	-2.660491
0.591500	-2.713073
0.591600	-2.790649
0.591700	-2.823107
0.591800	-2.860759
0.591900	-2.863031
0.592000	-2.906850
0.592100	-2.942554
0.592200	-2.917237
0.592300	-2.934440
0.592400	-2.935738
0.592500	-2.952292
0.592600	-2.972091
0.592700	-3.005848
0.592800	-3.059405
0.592900	-3.073037
0.593000	-3.085047
0.593100	-3.095758
0.593200	-3.099004
0.593300	-3.132761
0.593400	-3.125944
0.593500	-3.181124
0.593600	-3.205792
0.593700	-3.221372
0.593800	-3.239549
0.593900	-3.315826
0.594000	-3.551475
0.594100	-3.555370
0.594200	-3.458319
0.594300	-3.314203
0.594400	-3.269086
0.594500	-3.462863
0.594600	-3.622234
0.594700	-3.693968
0.594800	-3.625156
0.594900	-3.457345
0.595000	-3.435598
0.595100	-3.454424
0.595200	-3.609251
0.595300	-3.664431
0.595400	-3.654044
0.595500	-3.589451
0.595600	-3.557967
0.595700	-3.583284
0.595800	-3.598215
0.595900	-3.622559
0.596000	-3.617366
0.596100	-3.582960
0.596200	-3.558616
0.596300	-3.591074
0.596400	-3.612172
0.596500	-3.639762
0.596600	-3.606654
0.596700	-3.627103
0.596800	-3.626454
0.596900	-3.637490
0.597000	-3.598215
0.597100	-3.452152
0.597200	-3.414175
0.597300	-3.445011
