LabVIEW Measurement	
Writer_Version	2
Reader_Version	2
Separator	Tab
Decimal_Separator	.
Multi_Headings	Yes
X_Columns	One
Time_Pref	Relative
Operator	as989
Description	Time Domain Data
Date	2021/11/24
Time	12:33:46.3193697929382324219
***End_of_Header***	
	
Channels	1	
Samples	15000	
Date	1903/12/31	
Time	19:00:00	
X_Dimension	Time	
X0	0.0000000000000000E+0	
Delta_X	0.000100	
***End_of_Header***		
X_Value	Untitled	Comment
0.000000	-1.754255	Tare Values:0.000000, 0.000000, 0.000000, 0.000000\0D\0A
0.000100	-1.641300
0.000200	-1.547171
0.000300	-1.581901
0.000400	-1.720823
0.000500	-1.818847
0.000600	-1.820145
0.000700	-1.766913
0.000800	-1.734780
0.000900	-1.753605
0.001000	-1.759772
0.001100	-1.790608
0.001200	-1.821119
0.001300	-1.820469
0.001400	-1.817548
0.001500	-1.839944
0.001600	-1.886360
0.001700	-1.930503
0.001800	-1.906808
0.001900	-1.915248
0.002000	-1.933100
0.002100	-1.955171
0.002200	-1.920116
0.002300	-1.806837
0.002400	-1.752956
0.002500	-1.818197
0.002600	-1.936021
0.002700	-2.049950
0.002800	-2.010350
0.002900	-1.866236
0.003000	-1.754255
0.003100	-1.760097
0.003200	-1.884737
0.003300	-2.004508
0.003400	-2.023983
0.003500	-1.909405
0.003600	-1.827935
0.003700	-1.807811
0.003800	-1.815276
0.003900	-1.857147
0.004000	-1.841892
0.004100	-1.811381
0.004200	-1.790283
0.004300	-1.708488
0.004400	-1.679601
0.004500	-1.610789
0.004600	-1.537109
0.004700	-1.518932
0.004800	-1.512116
0.004900	-1.525424
0.005000	-1.535486
0.005100	-1.461481
0.005200	-1.391371
0.005300	-1.364431
0.005400	-1.364106
0.005500	-1.333271
0.005600	-1.284584
0.005700	-1.222588
0.005800	-1.145338
0.005900	-1.114827
0.006000	-1.064842
0.006100	-1.033682
0.006200	-1.093729
0.006300	-1.090484
0.006400	-1.117424
0.006500	-1.149882
0.006600	-1.158646
0.006700	-1.146636
0.006800	-1.159620
0.006900	-1.179744
0.007000	-1.194025
0.007100	-1.176173
0.007200	-1.266732
0.007300	-1.213825
0.007400	-1.228106
0.007500	-1.092106
0.007600	-0.924297
0.007700	-1.001548
0.007800	-1.195648
0.007900	-1.296269
0.008000	-1.189481
0.008100	-1.119371
0.008200	-0.980126
0.008300	-0.984021
0.008400	-1.086913
0.008500	-1.173577
0.008600	-1.160593
0.008700	-1.080421
0.008800	-0.985643
0.008900	-0.952861
0.009000	-0.981099
0.009100	-1.008040
0.009200	-1.062245
0.009300	-1.039200
0.009400	-1.024269
0.009500	-1.000250
0.009600	-1.036278
0.009700	-1.047963
0.009800	-1.034655
0.009900	-1.090484
0.010000	-1.131705
0.010100	-1.159295
0.010200	-1.165787
0.010300	-1.166760
0.010400	-1.133978
0.010500	-1.124240
0.010600	-1.190455
0.010700	-1.407600
0.010800	-1.411495
0.010900	-1.377090
0.011000	-1.189157
0.011100	-1.126188
0.011200	-1.224536
0.011300	-1.401433
0.011400	-1.446875
0.011500	-1.354044
0.011600	-1.203763
0.011700	-1.146961
0.011800	-1.176822
0.011900	-1.286856
0.012000	-1.312173
0.012100	-1.281013
0.012200	-1.249204
0.012300	-1.209605
0.012400	-1.233624
0.012500	-1.224211
0.012600	-1.198245
0.012700	-1.176173
0.012800	-1.162216
0.012900	-1.194025
0.013000	-1.215448
0.013100	-1.190455
0.013200	-1.174875
0.013300	-1.168708
0.013400	-1.197271
0.013500	-1.275171
0.013600	-1.277118
0.013700	-1.277443
0.013800	-1.255371
0.013900	-1.302436
0.014000	-1.306655
0.014100	-1.226159
0.014200	-1.220966
0.014300	-1.183963
0.014400	-1.200841
0.014500	-1.205386
0.014600	-1.208631
0.014700	-1.219667
0.014800	-1.231677
0.014900	-1.251152
0.015000	-1.252125
0.015100	-1.265433
0.015200	-1.264460
0.015300	-1.277767
0.015400	-1.261863
0.015500	-1.258293
0.015600	-1.270627
0.015700	-1.299839
0.015800	-1.411171
0.015900	-1.634159
0.016000	-1.610140
0.016100	-1.512116
0.016200	-1.331973
0.016300	-1.365080
0.016400	-1.532889
0.016500	-1.750360
0.016600	-1.840918
0.016700	-1.776326
0.016800	-1.656555
0.016900	-1.605271
0.017000	-1.710436
0.017100	-1.845462
0.017200	-1.933424
0.017300	-1.953224
0.017400	-1.898045
0.017500	-1.868508
0.017600	-1.862016
0.017700	-1.890255
0.017800	-1.918818
0.017900	-1.932775
0.018000	-1.921090
0.018100	-1.936346
0.018200	-1.965233
0.018300	-1.975295
0.018400	-1.986656
0.018500	-1.996718
0.018600	-1.995420
0.018700	-2.030799
0.018800	-2.056766
0.018900	-1.977892
0.019000	-1.851629
0.019100	-1.811706
0.019200	-1.911677
0.019300	-2.041186
0.019400	-2.145702
0.019500	-2.044432
0.019600	-1.872078
0.019700	-1.783467
0.019800	-1.845462
0.019900	-1.990551
0.020000	-2.106427
0.020100	-2.088900
0.020200	-1.981138
0.020300	-1.881491
0.020400	-1.882140
0.020500	-1.919792
0.020600	-1.942188
0.020700	-1.931477
0.020800	-1.909081
0.020900	-1.873701
0.021000	-1.818197
0.021100	-1.733806
0.021200	-1.691610
0.021300	-1.622474
0.021400	-1.610789
0.021500	-1.604947
0.021600	-1.590016
0.021700	-1.573462
0.021800	-1.445252
0.021900	-1.358264
0.022000	-1.336841
0.022100	-1.288479
0.022200	-1.215448
0.022300	-1.172278
0.022400	-1.120020
0.022500	-1.075877
0.022600	-0.975581
0.022700	-0.948966
0.022800	-0.936632
0.022900	-0.990837
0.023000	-0.977529
0.023100	-0.984670
0.023200	-0.997328
0.023300	-0.994732
0.023400	-0.965519
0.023500	-0.996679
0.023600	-0.951238
0.023700	-1.006417
0.023800	-0.993109
0.023900	-1.037252
0.024000	-0.981424
0.024100	-0.921052
0.024200	-0.783429
0.024300	-0.647429
0.024400	-0.898006
0.024500	-1.024593
0.024600	-1.158321
0.024700	-0.999276
0.024800	-0.895734
0.024900	-0.778236
0.025000	-0.816212
0.025100	-0.934360
0.025200	-1.027515
0.025300	-0.979801
0.025400	-0.872364
0.025500	-0.798684
0.025600	-0.772393
0.025700	-0.823028
0.025800	-0.858732
0.025900	-0.862951
0.026000	-0.838283
0.026100	-0.802904
0.026200	-0.787973
0.026300	-0.801605
0.026400	-0.801605
0.026500	-0.810369
0.026600	-0.883076
0.026700	-0.911963
0.026800	-0.906770
0.026900	-0.962923
0.027000	-0.873663
0.027100	-0.883400
0.027200	-0.829520
0.027300	-0.992784
0.027400	-1.093080
0.027500	-1.084966
0.027600	-0.982398
0.027700	-0.804527
0.027800	-0.832765
0.027900	-0.926570
0.028000	-1.084641
0.028100	-1.071009
0.028200	-0.955133
0.028300	-0.808097
0.028400	-0.668527
0.028500	-0.853863
0.028600	-0.958054
0.028700	-0.967791
0.028800	-1.001873
0.028900	-0.958703
0.029000	-0.975906
0.029100	-0.996679
0.029200	-1.042770
0.029300	-1.066464
0.029400	-1.097624
0.029500	-1.140145
0.029600	-1.196946
0.029700	-1.223887
0.029800	-1.209605
0.029900	-1.221939
0.030000	-1.213176
0.030100	-1.283610
0.030200	-1.373844
0.030300	-1.399161
0.030400	-1.392345
0.030500	-1.388775
0.030600	-1.445577
0.030700	-1.440708
0.030800	-1.374493
0.030900	-1.378388
0.031000	-1.364756
0.031100	-1.342684
0.031200	-1.331648
0.031300	-1.332622
0.031400	-1.336192
0.031500	-1.313472
0.031600	-1.318665
0.031700	-1.318665
0.031800	-1.304708
0.031900	-1.296593
0.032000	-1.316717
0.032100	-1.299839
0.032200	-1.330350
0.032300	-1.346254
0.032400	-1.397863
0.032500	-1.525424
0.032600	-1.659152
0.032700	-1.626694
0.032800	-1.418312
0.032900	-1.368651
0.033000	-1.398837
0.033100	-1.647791
0.033200	-1.805539
0.033300	-1.801968
0.033400	-1.693233
0.033500	-1.594560
0.033600	-1.556584
0.033700	-1.686092
0.033800	-1.776326
0.033900	-1.806512
0.034000	-1.764641
0.034100	-1.717252
0.034200	-1.685443
0.034300	-1.675381
0.034400	-1.686741
0.034500	-1.688364
0.034600	-1.677978
0.034700	-1.659476
0.034800	-1.675056
0.034900	-1.722770
0.035000	-1.687715
0.035100	-1.680899
0.035200	-1.655906
0.035300	-1.683820
0.035400	-1.692908
0.035500	-1.697453
0.035600	-1.564049
0.035700	-1.467648
0.035800	-1.489395
0.035900	-1.594560
0.036000	-1.732183
0.036100	-1.741271
0.036200	-1.632536
0.036300	-1.493615
0.036400	-1.461806
0.036500	-1.553338
0.036600	-1.703620
0.036700	-1.789634
0.036800	-1.717901
0.036900	-1.614035
0.037000	-1.556259
0.037100	-1.535486
0.037200	-1.567944
0.037300	-1.598130
0.037400	-1.602674
0.037500	-1.611438
0.037600	-1.553338
0.037700	-1.508221
0.037800	-1.451094
0.037900	-1.392020
0.038000	-1.385529
0.038100	-1.391047
0.038200	-1.425452
0.038300	-1.461157
0.038400	-1.454340
0.038500	-1.364431
0.038600	-1.356316
0.038700	-1.409548
0.038800	-1.433242
0.038900	-1.403056
0.039000	-1.392020
0.039100	-1.389099
0.039200	-1.367677
0.039300	-1.313796
0.039400	-1.327753
0.039500	-1.341386
0.039600	-1.377414
0.039700	-1.378388
0.039800	-1.398512
0.039900	-1.395266
0.040000	-1.389748
0.040100	-1.342684
0.040200	-1.345930
0.040300	-1.310875
0.040400	-1.325481
0.040500	-1.329376
0.040600	-1.351772
0.040700	-1.288803
0.040800	-1.170980
0.040900	-0.966169
0.041000	-0.955782
0.041100	-1.156374
0.041200	-1.299190
0.041300	-1.287180
0.041400	-1.127161
0.041500	-0.976231
0.041600	-0.893787
0.041700	-0.987591
0.041800	-1.101844
0.041900	-1.133004
0.042000	-1.054779
0.042100	-0.932737
0.042200	-0.857758
0.042300	-0.885672
0.042400	-0.930789
0.042500	-0.959677
0.042600	-0.959677
0.042700	-0.941500
0.042800	-0.928192
0.042900	-0.935982
0.043000	-0.948641
0.043100	-0.930789
0.043200	-0.939228
0.043300	-0.977529
0.043400	-1.024918
0.043500	-1.039200
0.043600	-1.017453
0.043700	-0.990837
0.043800	-0.979152
0.043900	-1.035629
0.044000	-1.205061
0.044100	-1.278417
0.044200	-1.212851
0.044300	-1.080421
0.044400	-0.962598
0.044500	-1.036927
0.044600	-1.203114
0.044700	-1.318989
0.044800	-1.277443
0.044900	-1.127810
0.045000	-1.006417
0.045100	-1.019725
0.045200	-1.118722
0.045300	-1.190130
0.045400	-1.188183
0.045500	-1.192727
0.045600	-1.137223
0.045700	-1.168059
0.045800	-1.163839
0.045900	-1.163515
0.046000	-1.184937
0.046100	-1.221615
0.046200	-1.296593
0.046300	-1.352097
0.046400	-1.390073
0.046500	-1.383906
0.046600	-1.398512
0.046700	-1.458235
0.046800	-1.587095
0.046900	-1.675056
0.047000	-1.707190
0.047100	-1.694531
0.047200	-1.722445
0.047300	-1.778923
0.047400	-1.743543
0.047500	-1.732832
0.047600	-1.720823
0.047700	-1.724068
0.047800	-1.703295
0.047900	-1.720823
0.048000	-1.735104
0.048100	-1.732832
0.048200	-1.733481
0.048300	-1.733481
0.048400	-1.744517
0.048500	-1.769185
0.048600	-1.781844
0.048700	-1.780546
0.048800	-1.819496
0.048900	-1.836049
0.049000	-1.854551
0.049100	-1.964260
0.049200	-2.134341
0.049300	-2.217110
0.049400	-2.072021
0.049500	-1.925959
0.049600	-1.832804
0.049700	-1.967181
0.049800	-2.174265
0.049900	-2.185625
0.050000	-2.120709
0.050100	-1.923687
0.050200	-1.838646
0.050300	-1.866560
0.050400	-1.969128
0.050500	-2.053195
0.050600	-2.021386
0.050700	-2.009377
0.050800	-1.975295
0.050900	-1.984708
0.051000	-2.032747
0.051100	-2.060012
0.051200	-2.101883
0.051300	-2.101558
0.051400	-2.141807
0.051500	-2.165177
0.051600	-2.227821
0.051700	-2.220356
0.051800	-2.186924
0.051900	-2.154465
0.052000	-2.182704
0.052100	-2.170694
0.052200	-2.085005
0.052300	-1.937319
0.052400	-1.836374
0.052500	-1.893176
0.052600	-1.999964
0.052700	-2.065205
0.052800	-1.987305
0.052900	-1.836374
0.053000	-1.674083
0.053100	-1.649090
0.053200	-1.771457
0.053300	-1.881491
0.053400	-1.883439
0.053500	-1.767562
0.053600	-1.638054
0.053700	-1.573462
0.053800	-1.571515
0.053900	-1.588068
0.054000	-1.564374
0.054100	-1.539381
0.054200	-1.496861
0.054300	-1.402407
0.054400	-1.348851
0.054500	-1.286531
0.054600	-1.226159
0.054700	-1.178121
0.054800	-1.183639
0.054900	-1.199543
0.055000	-1.213500
0.055100	-1.128784
0.055200	-1.048612
0.055300	-1.053806
0.055400	-1.077176
0.055500	-1.018751
0.055600	-1.003820
0.055700	-0.983371
0.055800	-0.955457
0.055900	-0.912937
0.056000	-0.907419
0.056100	-0.932737
0.056200	-0.993758
0.056300	-1.038226
0.056400	-1.074904
0.056500	-1.106063
0.056600	-1.138197
0.056700	-1.142092
0.056800	-1.198894
0.056900	-1.163839
0.057000	-1.239142
0.057100	-1.204087
0.057200	-1.317691
0.057300	-1.248880
0.057400	-1.266407
0.057500	-1.082694
0.057600	-0.992135
0.057700	-1.082369
0.057800	-1.338464
0.057900	-1.473491
0.058000	-1.418961
0.058100	-1.285557
0.058200	-1.161242
0.058300	-1.158646
0.058400	-1.301137
0.058500	-1.395266
0.058600	-1.398837
0.058700	-1.287830
0.058800	-1.191429
0.058900	-1.144689
0.059000	-1.157997
0.059100	-1.200841
0.059200	-1.190779
0.059300	-1.153452
0.059400	-1.086589
0.059500	-1.051209
0.059600	-1.039524
0.059700	-0.996030
0.059800	-0.966818
0.059900	-0.952861
0.060000	-0.998951
0.060100	-0.978503
0.060200	-0.990188
0.060300	-0.922025
0.060400	-0.856784
0.060500	-0.810694
0.060600	-0.873014
0.060700	-1.040173
0.060800	-1.000250
0.060900	-0.923648
0.061000	-0.728575
0.061100	-0.693195
0.061200	-0.774665
0.061300	-0.928192
0.061400	-0.966818
0.061500	-0.877882
0.061600	-0.545835
0.061700	0.259452
0.061800	0.226345
0.061900	-0.192041
0.062000	-0.290714
0.062100	-0.086876
0.062200	0.306192
0.062300	0.724253
0.062400	0.699585
0.062500	0.877456
0.062600	1.066362
0.062700	1.440929
0.062800	1.564920
0.062900	1.554533
0.063000	1.605492
0.063100	1.869377
0.063200	2.255305
0.063300	2.526980
0.063400	2.314704
0.063500	1.961883
0.063600	1.799592
0.063700	1.981033
0.063800	2.137806
0.063900	1.790828
0.064000	1.866131
0.064100	2.252384
0.064200	2.214408
0.064300	2.381243
0.064400	2.428957
0.064500	2.399095
0.064600	2.341644
0.064700	2.486408
0.064800	2.290360
0.064900	2.259849
0.065000	2.175458
0.065100	2.291009
0.065200	2.197530
0.065300	2.243296
0.065400	1.957014
0.065500	1.996613
0.065600	1.668786
0.065700	1.421454
0.065800	0.619089
0.065900	-0.887295
0.066000	-1.047314
0.066100	-0.472479
0.066200	0.296779
0.066300	0.122803
0.066400	-1.117424
0.066500	-1.292049
0.066600	-1.384230
0.066700	-1.297242
0.066800	-1.182665
0.066900	-1.201491
0.067000	-1.282961
0.067100	-1.457911
0.067200	-1.458235
0.067300	-1.452393
0.067400	-1.404355
0.067500	-1.378388
0.067600	-1.388450
0.067700	-1.400135
0.067800	-1.404355
0.067900	-1.407925
0.068000	-1.390398
0.068100	-1.373844
0.068200	-1.402732
0.068300	-1.421233
0.068400	-1.400460
0.068500	-1.384230
0.068600	-1.409223
0.068700	-1.411171
0.068800	-1.404679
0.068900	-1.312498
0.069000	-1.165137
0.069100	-1.173901
0.069200	-1.247906
0.069300	-1.407276
0.069400	-1.473491
0.069500	-1.359238
0.069600	-1.211553
0.069700	-1.152803
0.069800	-1.237195
0.069900	-1.421233
0.070000	-1.527696
0.070100	-1.516336
0.070200	-1.422531
0.070300	-1.385853
0.070400	-1.387152
0.070500	-1.430646
0.070600	-1.473166
0.070700	-1.470569
0.070800	-1.445901
0.070900	-1.412794
0.071000	-1.349825
0.071100	-1.285233
0.071200	-1.218044
0.071300	-1.157347
0.071400	-1.148259
0.071500	-1.151830
0.071600	-1.165787
0.071700	-1.123591
0.071800	-1.014856
0.071900	-0.963247
0.072000	-0.962598
0.072100	-0.974932
0.072200	-0.901901
0.072300	-0.868469
0.072400	-0.849968
0.072500	-0.816861
0.072600	-0.752594
0.072700	-0.736040
0.072800	-0.773042
0.072900	-0.824002
0.073000	-0.847372
0.073100	-0.852240
0.073200	-0.942799
0.073300	-0.910016
0.073400	-0.998302
0.073500	-0.943123
0.073600	-1.014531
0.073700	-1.007390
0.073800	-1.055104
0.073900	-1.102493
0.074000	-1.068087
0.074100	-1.030111
0.074200	-0.810694
0.074300	-0.846398
0.074400	-0.976880
0.074500	-1.243037
0.074600	-1.261538
0.074700	-1.129433
0.074800	-0.988889
0.074900	-0.917157
0.075000	-0.990512
0.075100	-1.117748
0.075200	-1.173252
0.075300	-1.100546
0.075400	-1.003820
0.075500	-0.936632
0.075600	-0.948966
0.075700	-0.984670
0.075800	-1.014856
0.075900	-1.023944
0.076000	-0.987916
0.076100	-0.979476
0.076200	-0.964870
0.076300	-0.959028
0.076400	-0.956756
0.076500	-0.950913
0.076600	-0.977854
0.076700	-1.017777
0.076800	-1.032383
0.076900	-1.064842
0.077000	-1.002846
0.077100	-1.009663
0.077200	-0.977854
0.077300	-1.188832
0.077400	-1.252125
0.077500	-1.209281
0.077600	-1.083992
0.077700	-0.901901
0.077800	-0.936307
0.077900	-1.065166
0.078000	-1.190779
0.078100	-1.175524
0.078200	-1.041796
0.078300	-0.902550
0.078400	-0.887944
0.078500	-0.991811
0.078600	-1.072307
0.078700	-1.060622
0.078800	-1.065815
0.078900	-1.028164
0.079000	-1.029137
0.079100	-1.043744
0.079200	-1.054455
0.079300	-1.048612
0.079400	-1.069710
0.079500	-1.093080
0.079600	-1.136574
0.079700	-1.143066
0.079800	-1.122617
0.079900	-1.114827
0.080000	-1.095352
0.080100	-1.219992
0.080200	-1.275820
0.080300	-1.283610
0.080400	-1.267705
0.080500	-1.272574
0.080600	-1.328078
0.080700	-1.305682
0.080800	-1.253424
0.080900	-1.256994
0.081000	-1.261214
0.081100	-1.255696
0.081200	-1.242388
0.081300	-1.241090
0.081400	-1.240765
0.081500	-1.241739
0.081600	-1.230054
0.081700	-1.257319
0.081800	-1.256020
0.081900	-1.273872
0.082000	-1.279066
0.082100	-1.327753
0.082200	-1.329051
0.082300	-1.332297
0.082400	-1.429672
0.082500	-1.584173
0.082600	-1.741920
0.082700	-1.655581
0.082800	-1.538732
0.082900	-1.447849
0.083000	-1.557882
0.083100	-1.797424
0.083200	-1.905510
0.083300	-1.886035
0.083400	-1.774054
0.083500	-1.636756
0.083600	-1.680899
0.083700	-1.726016
0.083800	-1.841892
0.083900	-1.791257
0.084000	-1.743543
0.084100	-1.660775
0.084200	-1.663371
0.084300	-1.674083
0.084400	-1.720823
0.084500	-1.759123
0.084600	-1.789634
0.084700	-1.821119
0.084800	-1.843839
0.084900	-1.914598
0.085000	-1.970427
0.085100	-1.972699
0.085200	-2.007429
0.085300	-2.058389
0.085400	-2.112594
0.085500	-2.091821
0.085600	-1.971076
0.085700	-1.889930
0.085800	-1.916546
0.085900	-2.054169
0.086000	-2.199582
0.086100	-2.179458
0.086200	-2.044756
0.086300	-1.892851
0.086400	-1.887333
0.086500	-2.017816
0.086600	-2.193740
0.086700	-2.233988
0.086800	-2.159659
0.086900	-2.059687
0.087000	-2.028202
0.087100	-2.061959
0.087200	-2.111945
0.087300	-2.134017
0.087400	-2.135964
0.087500	-2.113568
0.087600	-2.064880
0.087700	-2.012622
0.087800	-1.971076
0.087900	-1.915572
0.088000	-1.890904
0.088100	-1.894474
0.088200	-1.889281
0.088300	-1.908431
0.088400	-1.851629
0.088500	-1.761720
0.088600	-1.740622
0.088700	-1.743543
0.088800	-1.700698
0.088900	-1.646818
0.089000	-1.599429
0.089100	-1.554312
0.089200	-1.477386
0.089300	-1.404030
0.089400	-1.362808
0.089500	-1.352097
0.089600	-1.355667
0.089700	-1.341061
0.089800	-1.322884
0.089900	-1.324832
0.090000	-1.280689
0.090100	-1.243686
0.090200	-1.190130
0.090300	-1.146961
0.090400	-1.156374
0.090500	-1.095677
0.090600	-1.137223
0.090700	-0.985319
0.090800	-0.935658
0.090900	-0.658465
0.091000	-0.751944
0.091100	-0.872364
0.091200	-0.992135
0.091300	-0.918130
0.091400	-0.792517
0.091500	-0.620813
0.091600	-0.573749
0.091700	-0.651324
0.091800	-0.734417
0.091900	-0.722732
0.092000	-0.616918
0.092100	-0.507859
0.092200	-0.456900
0.092300	-0.466312
0.092400	-0.520193
0.092500	-0.539668
0.092600	-0.526685
0.092700	-0.513052
0.092800	-0.534799
0.092900	-0.564985
0.093000	-0.567582
0.093100	-0.555897
0.093200	-0.566933
0.093300	-0.590952
0.093400	-0.668851
0.093500	-0.689300
0.093600	-0.737338
0.093700	-0.644508
0.093800	-0.702608
0.093900	-0.742532
0.094000	-0.987591
0.094100	-1.013558
0.094200	-0.980126
0.094300	-0.824975
0.094400	-0.778236
0.094500	-0.836985
0.094600	-1.036927
0.094700	-1.113853
0.094800	-1.073930
0.094900	-0.938579
0.095000	-0.880154
0.095100	-0.953510
0.095200	-1.080097
0.095300	-1.152803
0.095400	-1.194025
0.095500	-1.175524
0.095600	-1.160593
0.095700	-1.190779
0.095800	-1.185586
0.095900	-1.188507
0.096000	-1.194025
0.096100	-1.207009
0.096200	-1.235896
0.096300	-1.247906
0.096400	-1.245958
0.096500	-1.211553
0.096600	-1.188183
0.096700	-1.213500
0.096800	-1.290426
0.096900	-1.299190
0.097000	-1.276145
0.097100	-1.253748
0.097200	-1.272574
0.097300	-1.274522
0.097400	-1.216421
0.097500	-1.192402
0.097600	-1.083018
0.097700	-1.047963
0.097800	-1.009338
0.097900	-0.996355
0.098000	-0.882751
0.098100	-0.819457
0.098200	-0.764603
0.098300	-0.753892
0.098400	-0.818808
0.098500	-0.828221
0.098600	-0.896383
0.098700	-0.995381
0.098800	-0.925271
0.098900	-1.062245
0.099000	-1.135276
0.099100	-1.311199
0.099200	-1.475763
0.099300	-1.491018
0.099400	-1.364106
0.099500	-1.215772
0.099600	-1.218044
0.099700	-1.380985
0.099800	-1.576708
0.099900	-1.645519
0.100000	-1.572488
0.100100	-1.448498
0.100200	-1.393319
0.100300	-1.482579
0.100400	-1.625720
0.100500	-1.684794
0.100600	-1.652336
0.100700	-1.593586
0.100800	-1.533214
0.100900	-1.533214
0.101000	-1.544574
0.101100	-1.549118
0.101200	-1.548145
0.101300	-1.522178
0.101400	-1.520231
0.101500	-1.538407
0.101600	-1.551715
0.101700	-1.526073
0.101800	-1.518932
0.101900	-1.530617
0.102000	-1.577357
0.102100	-1.603324
0.102200	-1.540030
0.102300	-1.404030
0.102400	-1.387152
0.102500	-1.482254
0.102600	-1.663047
0.102700	-1.752956
0.102800	-1.671811
0.102900	-1.552364
0.103000	-1.447199
0.103100	-1.542951
0.103200	-1.680899
0.103300	-1.797424
0.103400	-1.779572
0.103500	-1.674407
0.103600	-1.578331
0.103700	-1.556584
0.103800	-1.577032
0.103900	-1.597157
0.104000	-1.574111
0.104100	-1.546846
0.104200	-1.486799
0.104300	-1.407600
0.104400	-1.340412
0.104500	-1.276145
0.104600	-1.229405
0.104700	-1.195648
0.104800	-1.180068
0.104900	-1.215772
0.105000	-1.209605
0.105100	-1.107686
0.105200	-1.042445
0.105300	-1.042770
0.105400	-1.051209
0.105500	-0.978827
0.105600	-0.963247
0.105700	-0.928517
0.105800	-0.881128
0.105900	-0.807773
0.106000	-0.810694
0.106100	-0.817835
0.106200	-0.832116
0.106300	-0.848345
0.106400	-0.863276
0.106500	-0.916832
0.106600	-0.896383
0.106700	-0.930140
0.106800	-0.905796
0.106900	-0.925596
0.107000	-0.927543
0.107100	-0.965844
0.107200	-0.973634
0.107300	-0.969414
0.107400	-0.888918
0.107500	-0.721758
0.107600	-0.652947
0.107700	-0.744804
0.107800	-0.976555
0.107900	-1.041472
0.108000	-0.909367
0.108100	-0.801605
0.108200	-0.677291
0.108300	-0.731820
0.108400	-0.848345
0.108500	-0.956431
0.108600	-0.912937
0.108700	-0.808422
0.108800	-0.720785
0.108900	-0.715916
0.109000	-0.776288
0.109100	-0.826274
0.109200	-0.837309
0.109300	-0.822054
0.109400	-0.808097
0.109500	-0.830493
0.109600	-0.841204
0.109700	-0.852565
0.109800	-0.826274
0.109900	-0.885672
0.110000	-0.939228
0.110100	-0.965844
0.110200	-0.992784
0.110300	-0.950913
0.110400	-0.947667
0.110500	-0.913911
0.110600	-1.087238
0.110700	-1.248880
0.110800	-1.248555
0.110900	-1.156049
0.111000	-0.984670
0.111100	-1.056078
0.111200	-1.184612
0.111300	-1.343009
0.111400	-1.386178
0.111500	-1.275171
0.111600	-1.140794
0.111700	-1.106713
0.111800	-1.205061
0.111900	-1.293997
0.112000	-1.338140
0.112100	-1.331324
0.112200	-1.248880
0.112300	-1.243362
0.112400	-1.235572
0.112500	-1.241414
0.112600	-1.240116
0.112700	-1.217071
0.112800	-1.225834
0.112900	-1.239467
0.113000	-1.232975
0.113100	-1.215448
0.113200	-1.197596
0.113300	-1.173252
0.113400	-1.240441
0.113500	-1.317691
0.113600	-1.331973
0.113700	-1.324832
0.113800	-1.278417
0.113900	-1.320612
0.114000	-1.312822
0.114100	-1.236221
0.114200	-1.206035
0.114300	-1.186235
0.114400	-0.965519
0.114500	-0.944422
0.114600	-0.824975
0.114700	-0.706828
0.114800	-0.570179
0.114900	-0.611725
0.115000	-0.592575
0.115100	-0.536422
0.115200	-0.531878
0.115300	-0.559792
0.115400	-0.716240
0.115500	-0.886321
0.115600	-1.034331
0.115700	-1.242388
0.115800	-1.417987
0.115900	-1.583849
0.116000	-1.561128
0.116100	-1.438111
0.116200	-1.291075
0.116300	-1.347553
0.116400	-1.600402
0.116500	-1.781844
0.116600	-1.789309
0.116700	-1.683496
0.116800	-1.569567
0.116900	-1.585472
0.117000	-1.699400
0.117100	-1.817873
0.117200	-1.868832
0.117300	-1.796775
0.117400	-1.764641
0.117500	-1.743219
0.117600	-1.751333
0.117700	-1.756202
0.117800	-1.773080
0.117900	-1.797424
0.118000	-1.761395
0.118100	-1.806188
0.118200	-1.806512
0.118300	-1.816574
0.118400	-1.811706
0.118500	-1.797424
0.118600	-1.826312
0.118700	-1.862665
0.118800	-1.837672
0.118900	-1.770808
0.119000	-1.647791
0.119100	-1.701997
0.119200	-1.801968
0.119300	-1.937644
0.119400	-1.951276
0.119500	-1.850980
0.119600	-1.699076
0.119700	-1.642923
0.119800	-1.739324
0.119900	-1.896746
0.120000	-1.972050
0.120100	-1.931152
0.120200	-1.823391
0.120300	-1.773080
0.120400	-1.770159
0.120500	-1.796126
0.120600	-1.832804
0.120700	-1.818847
0.120800	-1.813329
0.120900	-1.760746
0.121000	-1.697777
0.121100	-1.656231
0.121200	-1.613061
0.121300	-1.573787
0.121400	-1.577032
0.121500	-1.596183
0.121600	-1.627343
0.121700	-1.606245
0.121800	-1.513090
0.121900	-1.513414
0.122000	-1.530942
0.122100	-1.553987
0.122200	-1.521853
0.122300	-1.482904
0.122400	-1.453691
0.122500	-1.412469
0.122600	-1.368001
0.122700	-1.364106
0.122800	-1.386178
0.122900	-1.424154
0.123000	-1.426751
0.123100	-1.444927
0.123200	-1.452068
0.123300	-1.462455
0.123400	-1.436164
0.123500	-1.450770
0.123600	-1.434865
0.123700	-1.482904
0.123800	-1.441682
0.123900	-1.481281
0.124000	-1.380985
0.124100	-1.296269
0.124200	-1.128784
0.124300	-1.096001
0.124400	-1.293672
0.124500	-1.420584
0.124600	-1.375791
0.124700	-1.231352
0.124800	-1.039849
0.124900	-0.948966
0.125000	-0.990837
0.125100	-1.065166
0.125200	-1.048288
0.125300	-0.943123
0.125400	-0.793816
0.125500	-0.672422
0.125600	-0.636393
0.125700	-0.628279
0.125800	-0.646455
0.125900	-0.602637
0.126000	-0.555248
0.126100	-0.515000
0.126200	-0.479620
0.126300	-0.438723
0.126400	-0.417950
0.126500	-0.409835
0.126600	-0.430608
0.126700	-0.424441
0.126800	-0.428012
0.126900	-0.439697
0.127000	-0.356279
0.127100	-0.232938
0.127200	-0.108623
0.127300	-0.483515
0.127400	-0.553625
0.127500	-0.488059
0.127600	0.264321
0.127700	1.399058
0.127800	1.029035
0.127900	0.287366
0.128000	-0.428985
0.128100	-0.068700
0.128200	0.770344
0.128300	1.688585
0.128400	1.846657
0.128500	1.401655
0.128600	1.143612
0.128700	1.246505
0.128800	1.393540
0.128900	1.748957
0.129000	1.659048
0.129100	1.822313
0.129200	1.935267
0.129300	2.024852
0.129400	2.070943
0.129500	1.871325
0.129600	1.696700
0.129700	1.717473
0.129800	1.993368
0.129900	2.198179
0.130000	2.137806
0.130100	1.401655
0.130200	1.110505
0.130300	0.888816
0.130400	0.943995
0.130500	0.836558
0.130600	0.467184
0.130700	0.677838
0.130800	0.730745
0.130900	0.865121
0.131000	0.769695
0.131100	0.780406
0.131200	0.807995
0.131300	0.724578
0.131400	0.643757
0.131500	0.606755
0.131600	0.393829
0.131700	0.261724
0.131800	0.052369
0.131900	0.090021
0.132000	-0.115115
0.132100	-0.288442
0.132200	-0.633797
0.132300	-0.748374
0.132400	-1.259915
0.132500	-1.446226
0.132600	-1.560154
0.132700	-1.477386
0.132800	-1.342684
0.132900	-1.321586
0.133000	-1.455314
0.133100	-1.758474
0.133200	-1.873376
0.133300	-1.865262
0.133400	-1.767562
0.133500	-1.727963
0.133600	-1.788336
0.133700	-1.945434
0.133800	-2.071697
0.133900	-2.080136
0.134000	-2.076565
0.134100	-2.080136
0.134200	-2.079487
0.134300	-2.113568
0.134400	-2.159659
0.134500	-2.213539
0.134600	-2.211267
0.134700	-2.220356
0.134800	-2.245024
0.134900	-2.288843
0.135000	-2.253463
0.135100	-2.223601
0.135200	-2.189196
0.135300	-2.216461
0.135400	-2.189520
0.135500	-2.129148
0.135600	-1.982436
0.135700	-1.884088
0.135800	-1.907133
0.135900	-1.977243
0.136000	-2.059362
0.136100	-1.989253
0.136200	-1.823066
0.136300	-1.697777
0.136400	-1.704918
0.136500	-1.807162
0.136600	-1.913625
0.136700	-1.925959
0.136800	-1.824040
0.136900	-1.710760
0.137000	-1.680574
0.137100	-1.691286
0.137200	-1.694207
0.137300	-1.701348
0.137400	-1.710760
0.137500	-1.718875
0.137600	-1.685118
0.137700	-1.651037
0.137800	-1.627992
0.137900	-1.586121
0.138000	-1.580603
0.138100	-1.608192
0.138200	-1.657204
0.138300	-1.691935
0.138400	-1.625720
0.138500	-1.550092
0.138600	-1.552689
0.138700	-1.573787
0.138800	-1.527047
0.138900	-1.484202
0.139000	-1.436164
0.139100	-1.377090
0.139200	-1.292049
0.139300	-1.235247
0.139400	-1.220316
0.139500	-1.212526
0.139600	-1.217071
0.139700	-1.195324
0.139800	-1.217720
0.139900	-1.199543
0.140000	-1.225834
0.140100	-1.192727
0.140200	-1.212202
0.140300	-1.174875
0.140400	-1.241414
0.140500	-1.202789
0.140600	-1.302760
0.140700	-1.200192
0.140800	-1.109634
0.140900	-0.887944
0.141000	-1.014207
0.141100	-1.223562
0.141200	-1.294970
0.141300	-1.312173
0.141400	-1.182016
0.141500	-1.069061
0.141600	-1.090808
0.141700	-1.225510
0.141800	-1.342359
0.141900	-1.364106
0.142000	-1.276145
0.142100	-1.188507
0.142200	-1.171304
0.142300	-1.215772
0.142400	-1.252125
0.142500	-1.269004
0.142600	-1.275171
0.142700	-1.226483
0.142800	-1.199219
0.142900	-1.186235
0.143000	-1.156374
0.143100	-1.121643
0.143200	-1.129758
0.143300	-1.179744
0.143400	-1.187858
0.143500	-1.162541
0.143600	-1.154102
0.143700	-1.046990
0.143800	-1.028164
0.143900	-1.072307
0.144000	-1.250503
0.144100	-1.178445
0.144200	-1.101519
0.144300	-0.899305
0.144400	-0.849319
0.144500	-0.903524
0.144600	-1.045042
0.144700	-1.041796
0.144800	-0.951562
0.144900	-0.766226
0.145000	-0.196910
0.145100	-0.202427
0.145200	-0.509157
0.145300	-0.577969
0.145400	-0.432880
0.145500	-0.020986
0.145600	0.219853
0.145700	0.264321
0.145800	0.422068
0.145900	0.711919
0.146000	0.848243
0.146100	0.846296
0.146200	0.595719
0.146300	0.575595
0.146400	0.738859
0.146500	1.013131
0.146600	1.079670
0.146700	0.995928
0.146800	0.377600
0.146900	0.242249
0.147000	0.205572
0.147100	0.186421
0.147200	-0.122256
0.147300	-0.354656
0.147400	-0.017416
0.147500	-0.071621
0.147600	-0.167048
0.147700	-0.220929
0.147800	-0.328365
0.147900	-0.478322
0.148000	-0.498771
0.148100	-0.587706
0.148200	-0.776613
0.148300	-0.970388
0.148400	-1.096651
0.148500	-1.137223
0.148600	-1.267056
0.148700	-1.281338
0.148800	-1.326455
0.148900	-1.371572
0.149000	-1.434216
0.149100	-1.571839
0.149200	-1.803916
0.149300	-1.837023
0.149400	-1.752307
0.149500	-1.652660
0.149600	-1.686092
0.149700	-1.874999
0.149800	-2.041510
0.149900	-2.077864
0.150000	-2.024632
0.150100	-1.913300
0.150200	-1.901940
0.150300	-1.965883
0.150400	-2.074618
0.150500	-2.075267
0.150600	-2.060985
0.150700	-1.999639
0.150800	-1.988279
0.150900	-1.954522
0.151000	-1.973997
0.151100	-1.982112
0.151200	-1.967830
0.151300	-1.936670
0.151400	-1.963610
0.151500	-1.994770
0.151600	-2.029176
0.151700	-1.972699
0.151800	-1.986980
0.151900	-2.000938
0.152000	-2.033396
0.152100	-2.060012
0.152200	-1.959066
0.152300	-1.858121
0.152400	-1.827935
0.152500	-1.932126
0.152600	-2.061635
0.152700	-2.120384
0.152800	-2.039563
0.152900	-1.898045
0.153000	-1.850331
0.153100	-1.931477
0.153200	-2.054494
0.153300	-2.152842
0.153400	-2.102857
0.153500	-2.005806
0.153600	-1.947057
0.153700	-1.945758
0.153800	-1.977243
0.153900	-1.984384
0.154000	-1.961014
0.154100	-1.941539
0.154200	-1.910054
0.154300	-1.877921
0.154400	-1.832479
0.154500	-1.746465
0.154600	-1.700049
0.154700	-1.688040
0.154800	-1.689663
0.154900	-1.685118
0.155000	-1.659152
0.155100	-1.551066
0.155200	-1.492966
0.155300	-1.491018
0.155400	-1.494264
0.155500	-1.411171
0.155600	-1.368001
0.155700	-1.317042
0.155800	-1.252775
0.155900	-1.156374
0.156000	-1.189157
0.156100	-1.190130
0.156200	-1.211877
0.156300	-1.205061
0.156400	-1.195973
0.156500	-1.229405
0.156600	-1.221939
0.156700	-1.234598
0.156800	-1.227133
0.156900	-1.262512
0.157000	-1.243037
0.157100	-1.321586
0.157200	-1.304708
0.157300	-1.336517
0.157400	-1.300488
0.157500	-1.123915
0.157600	-1.124565
0.157700	-1.324183
0.157800	-1.527047
0.157900	-1.553338
0.158000	-1.461806
0.158100	-1.322235
0.158200	-1.211877
0.158300	-1.295619
0.158400	-1.405328
0.158500	-1.464402
0.158600	-1.396889
0.158700	-1.271600
0.158800	-1.212202
0.158900	-1.197920
0.159000	-1.231677
0.159100	-1.291400
0.159200	-1.271925
0.159300	-1.251476
0.159400	-1.225510
0.159500	-1.203114
0.159600	-1.237195
0.159700	-1.199219
0.159800	-1.183963
0.159900	-1.229729
0.160000	-1.230378
0.160100	-1.252775
0.160200	-1.222913
0.160300	-1.147285
0.160400	-1.103467
0.160500	-1.096001
0.160600	-1.244660
0.160700	-1.360536
0.160800	-1.360861
0.160900	-1.259266
0.161000	-1.086589
0.161100	-1.175199
0.161200	-1.297892
0.161300	-1.471219
0.161400	-1.433892
0.161500	-1.326130
0.161600	-1.194674
0.161700	-1.171304
0.161800	-1.276145
0.161900	-1.360861
0.162000	-1.336517
0.162100	-1.317691
0.162200	-1.240116
0.162300	-1.255047
0.162400	-1.234598
0.162500	-1.214149
0.162600	-1.178445
0.162700	-1.125863
0.162800	-1.118073
0.162900	-1.132030
0.163000	-1.119696
0.163100	-1.057701
0.163200	-0.863925
0.163300	-0.740909
0.163400	-1.128460
0.163500	-1.211877
0.163600	-1.261538
0.163700	-1.261863
0.163800	-1.263810
0.163900	-1.319314
0.164000	-1.321261
0.164100	-1.271276
0.164200	-1.259266
0.164300	-1.262837
0.164400	-1.257643
0.164500	-1.259915
0.164600	-1.257968
0.164700	-1.247906
0.164800	-1.238168
0.164900	-1.231677
0.165000	-1.174875
0.165100	-0.964546
0.165200	-0.980775
0.165300	-1.100221
0.165400	-0.952536
0.165500	-1.085939
0.165600	-1.042445
0.165700	-1.269004
0.165800	-1.380660
0.165900	-1.521529
0.166000	-1.460832
0.166100	-1.364106
0.166200	-1.275495
0.166300	-1.347228
0.166400	-1.565023
0.166500	-1.657529
0.166600	-1.674407
0.166700	-1.519906
0.166800	-1.397214
0.166900	-1.387152
0.167000	-1.482904
0.167100	-1.593911
0.167200	-1.628641
0.167300	-1.567620
0.167400	-1.489720
0.167500	-1.448173
0.167600	-1.466999
0.167700	-1.489720
0.167800	-1.534837
0.167900	-1.510168
0.168000	-1.502378
0.168100	-1.492966
0.168200	-1.524450
0.168300	-1.575734
0.168400	-1.549118
0.168500	-1.546846
0.168600	-1.588393
0.168700	-1.611438
0.168800	-1.625720
0.168900	-1.507572
0.169000	-1.455963
0.169100	-1.485825
0.169200	-1.598455
0.169300	-1.731858
0.169400	-1.753605
0.169500	-1.618904
0.169600	-1.501080
0.169700	-1.482254
0.169800	-1.617281
0.169900	-1.763343
0.170000	-1.831830
0.170100	-1.782169
0.170200	-1.683171
0.170300	-1.669863
0.170400	-1.728613
0.170500	-1.815276
0.170600	-1.862341
0.170700	-1.883763
0.170800	-1.891553
0.170900	-1.871429
0.171000	-1.850331
0.171100	-1.835076
0.171200	-1.805539
0.171300	-1.805539
0.171400	-1.804565
0.171500	-1.814627
0.171600	-1.826312
0.171700	-1.762694
0.171800	-1.666293
0.171900	-1.652336
0.172000	-1.645844
0.172100	-1.624097
0.172200	-1.556908
0.172300	-1.516660
0.172400	-1.445252
0.172500	-1.378388
0.172600	-1.301462
0.172700	-1.289452
0.172800	-1.286207
0.172900	-1.297567
0.173000	-1.270951
0.173100	-1.296269
0.173200	-1.239467
0.173300	-1.261863
0.173400	-1.172927
0.173500	-1.167085
0.173600	-1.165137
0.173700	-1.173901
0.173800	-1.169357
0.173900	-1.166436
0.174000	-1.105090
0.174100	-0.963247
0.174200	-0.776937
0.174300	-0.776613
0.174400	-0.929815
0.174500	-1.029137
0.174600	-0.927219
0.174700	-0.811992
0.174800	-0.611400
0.174900	-0.532527
0.175000	-0.589653
0.175100	-0.681510
0.175200	-0.671124
0.175300	-0.554599
0.175400	-0.413081
0.175500	-0.316356
0.175600	-0.263773
0.175700	-0.269616
0.175800	-0.287143
0.175900	-0.223525
0.176000	-0.166399
0.176100	-0.120633
0.176200	-0.083306
0.176300	0.090021
0.176400	0.629475
0.176500	0.753465
0.176600	0.277953
0.176700	0.750544
0.176800	0.788196
0.176900	1.288700
0.177000	1.863859
0.177100	2.062179
0.177200	1.925205
0.177300	0.966066
0.177400	0.748597
0.177500	1.194572
0.177600	2.014465
0.177700	2.515296
0.177800	1.892098
0.177900	0.799556
0.178000	0.036465
0.178100	0.258154
0.178200	0.880701
0.178300	1.263383
0.178400	0.910563
0.178500	0.040035
0.178600	-0.985968
0.178700	-0.945071
0.178800	-1.046665
0.178900	-1.105090
0.179000	-1.233300
0.179100	-1.323534
0.179200	-1.406627
0.179300	-1.490694
0.179400	-1.589042
0.179500	-1.707515
0.179600	-1.814952
0.179700	-1.862341
0.179800	-1.902913
0.179900	-1.918818
0.180000	-1.981787
0.180100	-2.111945
0.180200	-2.158360
0.180300	-2.181406
0.180400	-2.167124
0.180500	-2.189520
0.180600	-2.214838
0.180700	-2.170045
0.180800	-2.192766
0.180900	-2.196337
0.181000	-2.211916
0.181100	-2.251516
0.181200	-2.288518
0.181300	-2.345969
0.181400	-2.374857
0.181500	-2.434581
0.181600	-2.508586
0.181700	-2.542992
0.181800	-2.591354
0.181900	-2.607259
0.182000	-2.667956
0.182100	-2.672825
0.182200	-2.755594
0.182300	-2.826353
0.182400	-2.984750
0.182500	-3.160675
0.182600	-3.264217
0.182700	-3.160999
0.182800	-3.040579
0.182900	-3.073362
0.183000	-3.222021
0.183100	-3.476820
0.183200	-3.556019
0.183300	-3.517393
0.183400	-3.397946
0.183500	-3.300895
0.183600	-3.348934
0.183700	-3.433001
0.183800	-3.481365
0.183900	-3.431054
0.184000	-3.322318
0.184100	-3.236628
0.184200	-3.210012
0.184300	-3.185992
0.184400	-3.137305
0.184500	-3.071090
0.184600	-2.990593
0.184700	-2.957161
0.184800	-2.908473
0.184900	-2.892893
0.185000	-2.796491
0.185100	-2.741637
0.185200	-2.663412
0.185300	-2.660166
0.185400	-2.632252
0.185500	-2.548509
0.185600	-2.393034
0.185700	-2.315783
0.185800	-2.396280
0.185900	-2.531307
0.186000	-2.599469
0.186100	-2.530657
0.186200	-2.343373
0.186300	-2.212241
0.186400	-2.203153
0.186500	-2.340776
0.186600	-2.436528
0.186700	-2.377454
0.186800	-2.229769
0.186900	-2.106752
0.187000	-2.044107
0.187100	-2.033396
0.187200	-2.033396
0.187300	-2.015544
0.187400	-1.976269
0.187500	-1.899668
0.187600	-1.817224
0.187700	-1.739324
0.187800	-1.653634
0.187900	-1.584173
0.188000	-1.542302
0.188100	-1.546522
0.188200	-1.549443
0.188300	-1.547171
0.188400	-1.455963
0.188500	-1.387801
0.188600	-1.413767
0.188700	-1.454989
0.188800	-1.422531
0.188900	-1.400784
0.189000	-1.361510
0.189100	-1.315419
0.189200	-1.257319
0.189300	-1.236221
0.189400	-1.234273
0.189500	-1.252775
0.189600	-1.261538
0.189700	-1.233300
0.189800	-1.220966
0.189900	-1.149882
0.190000	-1.077176
0.190100	-0.973959
0.190200	-0.901252
0.190300	-0.778885
0.190400	-0.748049
0.190500	-0.645157
0.190600	-0.618541
0.190700	-0.433854
0.190800	-0.309864
0.190900	-0.136862
0.191000	-0.266370
0.191100	-0.456900
0.191200	-0.523763
0.191300	-0.469558
0.191400	-0.324146
0.191500	-0.218332
0.191600	-0.261177
0.191700	-0.398799
0.191800	-0.517596
0.191900	-0.526360
0.192000	-0.451706
0.192100	-0.382246
0.192200	-0.409511
0.192300	-0.488384
0.192400	-0.582188
0.192500	-0.621138
0.192600	-0.656842
0.192700	-0.670150
0.192800	-0.695143
0.192900	-0.710398
0.193000	-0.719486
0.193100	-0.736040
0.193200	-0.760059
0.193300	-0.904823
0.193400	-0.881453
0.193500	-0.911314
0.193600	-0.888593
0.193700	-0.851916
0.193800	-0.818484
0.193900	-0.925271
0.194000	-1.109958
0.194100	-1.136574
0.194200	-1.081720
0.194300	-0.937930
0.194400	-0.994732
0.194500	-1.156698
0.194600	-1.369300
0.194700	-1.442331
0.194800	-1.379037
0.194900	-1.275171
0.195000	-1.251152
0.195100	-1.354369
0.195200	-1.456612
0.195300	-1.493939
0.195400	-1.517634
0.195500	-1.508546
0.195600	-1.520231
0.195700	-1.544250
0.195800	-1.559830
0.195900	-1.562426
0.196000	-1.527047
0.196100	-1.547495
0.196200	-1.561777
0.196300	-1.548145
0.196400	-1.486799
0.196500	-1.438111
0.196600	-1.408899
0.196700	-1.412469
0.196800	-1.467648
0.196900	-1.454665
0.197000	-1.418961
0.197100	-1.362483
0.197200	-1.370598
0.197300	-1.355343
0.197400	-1.265433
0.197500	-1.253748
0.197600	-1.223562
0.197700	-1.204087
0.197800	-1.217720
0.197900	-1.206684
0.198000	-1.238168
0.198100	-1.211553
0.198200	-1.226159
0.198300	-1.207333
0.198400	-1.220641
0.198500	-1.211228
0.198600	-1.215772
0.198700	-1.216746
0.198800	-1.228431
0.198900	-1.236221
0.199000	-1.265758
0.199100	-1.423830
0.199200	-1.555610
0.199300	-1.534512
0.199400	-1.416689
0.199500	-1.322235
0.199600	-1.410197
0.199700	-1.623772
0.199800	-1.787687
0.199900	-1.850980
0.200000	-1.753605
0.200100	-1.671486
0.200200	-1.660126
0.200300	-1.755877
0.200400	-1.863314
0.200500	-1.916546
0.200600	-1.891553
0.200700	-1.850331
0.200800	-1.833453
0.200900	-1.794503
0.201000	-1.816899
0.201100	-1.841892
0.201200	-1.855524
0.201300	-1.873701
0.201400	-1.874350
0.201500	-1.871754
0.201600	-1.905510
0.201700	-1.898045
0.201800	-1.903887
0.201900	-1.932775
0.202000	-1.925634
0.202100	-1.903887
0.202200	-1.775352
0.202300	-1.664021
0.202400	-1.620851
0.202500	-1.719524
0.202600	-1.843839
0.202700	-1.873701
0.202800	-1.732832
0.202900	-1.564698
0.203000	-1.490369
0.203100	-1.558856
0.203200	-1.704593
0.203300	-1.757176
0.203400	-1.700374
0.203500	-1.573137
0.203600	-1.513090
0.203700	-1.500756
0.203800	-1.527696
0.203900	-1.513090
0.204000	-1.483228
0.204100	-1.482904
0.204200	-1.445577
0.204300	-1.380011
0.204400	-1.301787
0.204500	-1.215772
0.204600	-1.160593
0.204700	-1.132030
0.204800	-1.132355
0.204900	-1.125863
0.205000	-1.073281
0.205100	-0.960975
0.205200	-0.892164
0.205300	-0.882102
0.205400	-0.881777
0.205500	-0.804851
0.205600	-0.773691
0.205700	-0.725978
0.205800	-0.698064
0.205900	-0.645482
0.206000	-0.672746
0.206100	-0.720135
0.206200	-0.791868
0.206300	-0.843801
0.206400	-0.905147
0.206500	-0.957729
0.206600	-0.955782
0.206700	-1.000899
0.206800	-0.975906
0.206900	-0.999601
0.207000	-0.991811
0.207100	-1.017453
0.207200	-1.049586
0.207300	-0.993433
0.207400	-0.930465
0.207500	-0.704231
0.207600	-0.717214
0.207700	-0.911963
0.207800	-1.022646
0.207900	-0.994407
0.208000	-0.875286
0.208100	-0.733768
0.208200	-0.660412
0.208300	-0.740259
0.208400	-0.853214
0.208500	-0.916183
0.208600	-0.884698
0.208700	-0.808097
0.208800	-0.789921
0.208900	-0.795763
0.209000	-0.841204
0.209100	-0.863601
0.209200	-0.875286
0.209300	-0.869119
0.209400	-0.868794
0.209500	-0.877558
0.209600	-0.872364
0.209700	-0.870417
0.209800	-0.930140
0.209900	-1.004794
0.210000	-1.004469
0.210100	-1.027190
0.210200	-1.013882
0.210300	-0.961300
0.210400	-0.926570
0.210500	-0.896059
0.210600	-1.098598
0.210700	-1.196946
0.210800	-1.134627
0.210900	-0.997978
0.211000	-0.889567
0.211100	-0.959352
0.211200	-1.127161
0.211300	-1.289128
0.211400	-1.276794
0.211500	-1.176498
0.211600	-1.120020
0.211700	-1.189806
0.211800	-1.337815
0.211900	-1.445252
0.212000	-1.489395
0.212100	-1.528994
0.212200	-1.548469
0.212300	-1.672135
0.212400	-1.714006
0.212500	-1.757500
0.212600	-1.758799
0.212700	-1.775352
0.212800	-1.833777
0.212900	-1.901615
0.213000	-1.914923
0.213100	-1.884412
0.213200	-1.840269
0.213300	-1.826961
0.213400	-1.889606
0.213500	-1.915248
0.213600	-1.922064
0.213700	-1.864288
0.213800	-1.834102
0.213900	-1.848384
0.214000	-1.790932
0.214100	-1.734455
0.214200	-1.722121
0.214300	-1.700374
0.214400	-1.706216
0.214500	-1.726990
0.214600	-1.738025
0.214700	-1.748737
0.214800	-1.808784
0.214900	-1.807162
0.215000	-1.829233
0.215100	-1.851305
0.215200	-1.876622
0.215300	-1.910054
0.215400	-1.939267
0.215500	-1.937319
0.215600	-1.955171
0.215700	-2.069425
0.215800	-2.229769
0.215900	-2.363172
0.216000	-2.264499
0.216100	-2.156737
0.216200	-2.097988
0.216300	-2.204451
0.216400	-2.435230
0.216500	-2.535851
0.216600	-2.528710
0.216700	-2.416079
0.216800	-2.323249
0.216900	-2.359926
0.217000	-2.439449
0.217100	-2.495602
0.217200	-2.484891
0.217300	-2.430686
0.217400	-2.368690
0.217500	-2.357330
0.217600	-2.378428
0.217700	-2.393683
0.217800	-2.386218
0.217900	-2.356031
0.218000	-2.366743
0.218100	-2.362848
0.218200	-2.419974
0.218300	-2.449511
0.218400	-2.439774
0.218500	-2.419325
0.218600	-2.431010
0.218700	-2.439125
0.218800	-2.409588
0.218900	-2.195363
0.219000	-2.107401
0.219100	-2.104479
0.219200	-2.221005
0.219300	-2.267096
0.219400	-2.218733
0.219500	-2.024957
0.219600	-1.836374
0.219700	-1.808460
0.219800	-1.912002
0.219900	-2.037291
0.220000	-2.020737
0.220100	-1.886684
0.220200	-1.755228
0.220300	-1.674407
0.220400	-1.677004
0.220500	-1.706216
0.220600	-1.692584
0.220700	-1.635457
0.220800	-1.572813
0.220900	-1.502378
0.221000	-1.440059
0.221100	-1.379362
0.221200	-1.295619
0.221300	-1.275495
0.221400	-1.271276
0.221500	-1.276469
0.221600	-1.281987
0.221700	-1.198894
0.221800	-1.111906
0.221900	-1.096326
0.222000	-1.091457
0.222100	-1.034331
0.222200	-0.989214
0.222300	-0.942474
0.222400	-0.872689
0.222500	-0.771419
0.222600	-0.685730
0.222700	-0.675343
0.222800	-0.675343
0.222900	-0.659439
0.223000	-0.654570
0.223100	-0.636393
0.223200	-0.602961
0.223300	-0.541615
0.223400	-0.529606
0.223500	-0.474102
0.223600	-0.475076
0.223700	-0.437425
0.223800	-0.503315
0.223900	-0.437749
0.224000	-0.436775
0.224100	-0.224499
0.224200	-0.077463
0.224300	-0.151793
0.224400	-0.335506
0.224500	-0.454627
0.224600	-0.365692
0.224700	-0.265396
0.224800	-0.115440
0.224900	-0.123879
0.225000	-0.217358
0.225100	-0.333883
0.225200	-0.359525
0.225300	-0.305644
0.225400	-0.218981
0.225500	-0.191067
0.225600	-0.235535
0.225700	-0.305644
0.225800	-0.388737
0.225900	-0.395554
0.226000	-0.384193
0.226100	-0.406265
0.226200	-0.452680
0.226300	-0.507859
0.226400	-0.540317
0.226500	-0.640937
0.226600	-0.645157
0.226700	-0.723706
0.226800	-0.769472
0.226900	-0.823352
0.227000	-0.811343
0.227100	-0.813615
0.227200	-0.864574
0.227300	-1.086913
0.227400	-1.111257
0.227500	-1.040498
0.227600	-0.892164
0.227700	-0.852889
0.227800	-1.001873
0.227900	-1.164488
0.228000	-1.245309
0.228100	-1.195648
0.228200	-1.053806
0.228300	-1.016154
0.228400	-1.076526
0.228500	-1.184937
0.228600	-1.230378
0.228700	-1.266083
0.228800	-1.242388
0.228900	-1.217395
0.229000	-1.253748
0.229100	-1.251152
0.229200	-1.247581
0.229300	-1.252450
0.229400	-1.273223
0.229500	-1.323209
0.229600	-1.342035
0.229700	-1.352746
0.229800	-1.365405
0.229900	-1.350474
0.230000	-1.386827
0.230100	-1.472517
0.230200	-1.511791
0.230300	-1.505949
0.230400	-1.473166
0.230500	-1.489071
0.230600	-1.470245
0.230700	-1.379037
0.230800	-1.367028
0.230900	-1.319963
0.231000	-1.291400
0.231100	-1.278417
0.231200	-1.247257
0.231300	-1.235247
0.231400	-1.198569
0.231500	-1.169357
0.231600	-1.132679
0.231700	-1.095677
0.231800	-1.065491
0.231900	-1.038550
0.232000	-1.055429
0.232100	-1.065491
0.232200	-1.054455
0.232300	-1.068412
0.232400	-1.195973
0.232500	-1.343009
0.232600	-1.317691
0.232700	-1.217395
0.232800	-1.059973
0.232900	-1.065815
0.233000	-1.256020
0.233100	-1.372870
0.233200	-1.420908
0.233300	-1.347228
0.233400	-1.219018
0.233500	-1.175524
0.233600	-1.177796
0.233700	-1.259591
0.233800	-1.279715
0.233900	-1.271925
0.234000	-1.198894
0.234100	-1.133004
0.234200	-1.080421
0.234300	-1.099572
0.234400	-1.083992
0.234500	-1.108011
0.234600	-1.094703
0.234700	-1.073281
0.234800	-1.114178
0.234900	-1.170980
0.235000	-1.157023
0.235100	-1.156049
0.235200	-1.172927
0.235300	-1.212202
0.235400	-1.246283
0.235500	-1.198894
0.235600	-1.083667
0.235700	-1.067438
0.235800	-1.166760
0.235900	-1.326779
0.236000	-1.387152
0.236100	-1.335868
0.236200	-1.171304
0.236300	-1.131381
0.236400	-1.201166
0.236500	-1.347877
0.236600	-1.444278
0.236700	-1.393968
0.236800	-1.303085
0.236900	-1.234598
0.237000	-1.235572
0.237100	-1.282312
0.237200	-1.311199
0.237300	-1.319639
0.237400	-1.311524
0.237500	-1.301462
0.237600	-1.249529
0.237700	-1.219992
0.237800	-1.173252
0.237900	-1.137223
0.238000	-1.127486
0.238100	-1.173901
0.238200	-1.191753
0.238300	-1.205061
0.238400	-1.126512
0.238500	-1.108011
0.238600	-1.114827
0.238700	-1.138197
0.238800	-1.089834
0.238900	-1.074579
0.239000	-1.055429
0.239100	-1.033357
0.239200	-0.966493
0.239300	-0.979152
0.239400	-0.987916
0.239500	-1.049262
0.239600	-1.096975
0.239700	-1.099247
0.239800	-1.174226
0.239900	-1.174226
0.240000	-1.189806
0.240100	-1.202464
0.240200	-1.205710
0.240300	-1.253099
0.240400	-1.296269
0.240500	-1.287180
0.240600	-1.284908
0.240700	-1.135925
0.240800	-1.010961
0.240900	-0.885348
0.241000	-1.108011
0.241100	-1.293997
0.241200	-1.276145
0.241300	-1.201491
0.241400	-1.088211
0.241500	-1.029137
0.241600	-1.077825
0.241700	-1.194999
0.241800	-1.256994
0.241900	-1.232326
0.242000	-1.155400
0.242100	-1.070684
0.242200	-1.083992
0.242300	-1.131056
0.242400	-1.168059
0.242500	-1.161892
0.242600	-1.159295
0.242700	-1.153777
0.242800	-1.181367
0.242900	-1.179419
0.243000	-1.190779
0.243100	-1.193051
0.243200	-1.207658
0.243300	-1.281338
0.243400	-1.252775
0.243500	-1.325806
0.243600	-1.243686
0.243700	-1.214474
0.243800	-1.193701
0.243900	-1.337815
0.244000	-1.489071
0.244100	-1.439085
0.244200	-1.291725
0.244300	-1.156698
0.244400	-1.167734
0.244500	-1.327753
0.244600	-1.456612
0.244700	-1.460832
0.244800	-1.322560
0.244900	-1.190455
0.245000	-1.173577
0.245100	-1.286207
0.245200	-1.357615
0.245300	-1.361185
0.245400	-1.330999
0.245500	-1.270951
0.245600	-1.285557
0.245700	-1.288479
0.245800	-1.288803
0.245900	-1.263161
0.246000	-1.243686
0.246100	-1.273548
0.246200	-1.293023
0.246300	-1.298541
0.246400	-1.270302
0.246500	-1.243037
0.246600	-1.204087
0.246700	-1.242713
0.246800	-1.313147
0.246900	-1.304708
0.247000	-1.290751
0.247100	-1.247257
0.247200	-1.295295
0.247300	-1.295295
0.247400	-1.232651
0.247500	-1.213500
0.247600	-1.225510
0.247700	-1.198894
0.247800	-1.235896
0.247900	-1.207658
0.248000	-1.244011
0.248100	-1.254398
0.248200	-1.262188
0.248300	-1.292374
0.248400	-1.287830
0.248500	-1.305032
0.248600	-1.324832
0.248700	-1.343333
0.248800	-1.404355
0.248900	-1.392020
0.249000	-1.506598
0.249100	-1.653634
0.249200	-1.831181
0.249300	-1.767887
0.249400	-1.665643
0.249500	-1.606569
0.249600	-1.654608
0.249700	-1.883763
0.249800	-2.033071
0.249900	-2.015219
0.250000	-1.928556
0.250100	-1.830856
0.250200	-1.841243
0.250300	-1.957119
0.250400	-2.049625
0.250500	-2.097663
0.250600	-2.028202
0.250700	-1.989577
0.250800	-1.941863
0.250900	-1.953548
0.251000	-1.998665
0.251100	-1.984384
0.251200	-1.984708
0.251300	-1.981787
0.251400	-1.977243
0.251500	-2.055792
0.251600	-2.062608
0.251700	-2.073644
0.251800	-2.077539
0.251900	-2.092794
0.252000	-2.105129
0.252100	-2.085654
0.252200	-1.967830
0.252300	-1.853252
0.252400	-1.877596
0.252500	-2.006780
0.252600	-2.105778
0.252700	-2.097014
0.252800	-1.948680
0.252900	-1.753930
0.253000	-1.727639
0.253100	-1.821119
0.253200	-1.954198
0.253300	-2.017491
0.253400	-1.927906
0.253500	-1.817224
0.253600	-1.760422
0.253700	-1.784116
0.253800	-1.840269
0.253900	-1.830207
0.254000	-1.810083
0.254100	-1.769835
0.254200	-1.720173
0.254300	-1.689338
0.254400	-1.636431
0.254500	-1.578331
0.254600	-1.548794
0.254700	-1.550417
0.254800	-1.576059
0.254900	-1.589042
0.255000	-1.519581
0.255100	-1.420908
0.255200	-1.378063
0.255300	-1.378388
0.255400	-1.346903
0.255500	-1.287505
0.255600	-1.231028
0.255700	-1.171629
0.255800	-1.105090
0.255900	-1.027190
0.256000	-1.010961
0.256100	-1.035629
0.256200	-1.062894
0.256300	-1.052507
0.256400	-1.095677
0.256500	-1.069710
0.256600	-1.111581
0.256700	-1.066789
0.256800	-1.104765
0.256900	-1.135276
0.257000	-1.186235
0.257100	-1.196622
0.257200	-1.253424
0.257300	-1.214799
0.257400	-1.127161
0.257500	-0.946044
0.257600	-1.040822
0.257700	-1.194025
0.257800	-1.428049
0.257900	-1.296593
0.258000	-1.251476
0.258100	-1.088536
0.258200	-1.048937
0.258300	-1.161242
0.258400	-1.291725
0.258500	-1.347553
0.258600	-1.283935
0.258700	-1.206684
0.258800	-1.182340
0.258900	-1.207982
0.259000	-1.260565
0.259100	-1.315419
0.259200	-1.368651
0.259300	-1.389748
0.259400	-1.417662
0.259500	-1.447849
0.259600	-1.458884
0.259700	-1.483877
0.259800	-1.552364
0.259900	-1.639352
0.260000	-1.642598
0.260100	-1.671811
0.260200	-1.700049
0.260300	-1.676679
0.260400	-1.690636
0.260500	-1.755228
0.260600	-1.972699
0.260700	-2.093119
0.260800	-2.025930
0.260900	-1.931477
0.261000	-1.843515
0.261100	-1.950952
0.261200	-2.136938
0.261300	-2.230742
0.261400	-2.175563
0.261500	-2.020737
0.261600	-1.947057
0.261700	-1.969453
0.261800	-2.071047
0.261900	-2.107076
0.262000	-2.091496
0.262100	-2.087277
0.262200	-2.094742
0.262300	-2.152842
0.262400	-2.137912
0.262500	-2.130446
0.262600	-2.123954
0.262700	-2.129148
0.262800	-2.178809
0.262900	-2.190169
0.263000	-2.193091
0.263100	-2.158036
0.263200	-2.128499
0.263300	-2.135639
0.263400	-2.212566
0.263500	-2.245024
0.263600	-2.228470
0.263700	-2.183029
0.263800	-2.160957
0.263900	-2.165501
0.264000	-2.083382
0.264100	-2.050599
0.264200	-1.996069
0.264300	-1.976269
0.264400	-1.938293
0.264500	-1.924985
0.264600	-1.875973
0.264700	-1.852603
0.264800	-1.822092
0.264900	-1.805539
0.265000	-1.751009
0.265100	-1.720173
0.265200	-1.682522
0.265300	-1.637080
0.265400	-1.588717
0.265500	-1.588393
0.265600	-1.591314
0.265700	-1.660126
0.265800	-1.816899
0.265900	-1.854226
0.266000	-1.682197
0.266100	-1.516336
0.266200	-1.459209
0.266300	-1.606894
0.266400	-1.778923
0.266500	-1.849033
0.266600	-1.800021
0.266700	-1.638379
0.266800	-1.605271
0.266900	-1.634484
0.267000	-1.740298
0.267100	-1.784116
0.267200	-1.804889
0.267300	-1.759123
0.267400	-1.753281
0.267500	-1.728937
0.267600	-1.758474
0.267700	-1.786064
0.267800	-1.791582
0.267900	-1.792880
0.268000	-1.808784
0.268100	-1.803916
0.268200	-1.824364
0.268300	-1.855849
0.268400	-1.822742
0.268500	-1.811706
0.268600	-1.829233
0.268700	-1.806188
0.268800	-1.761071
0.268900	-1.616307
0.269000	-1.549443
0.269100	-1.632211
0.269200	-1.760422
0.269300	-1.795801
0.269400	-1.719200
0.269500	-1.535161
0.269600	-1.406951
0.269700	-1.431944
0.269800	-1.561452
0.269900	-1.677978
0.270000	-1.652660
0.270100	-1.534512
0.270200	-1.414741
0.270300	-1.391047
0.270400	-1.396565
0.270500	-1.417013
0.270600	-1.384880
0.270700	-1.328727
0.270800	-1.287830
0.270900	-1.224536
0.271000	-1.171629
0.271100	-1.096326
0.271200	-1.009013
0.271300	-0.975257
0.271400	-0.981749
0.271500	-0.993109
0.271600	-0.991161
0.271700	-0.885997
0.271800	-0.818808
0.271900	-0.824651
0.272000	-0.848345
0.272100	-0.799983
0.272200	-0.794789
0.272300	-0.776613
0.272400	-0.736040
0.272500	-0.663009
0.272600	-0.647104
0.272700	-0.651324
0.272800	-0.681510
0.272900	-0.721434
0.273000	-0.703257
0.273100	-0.763954
0.273200	-0.723381
0.273300	-0.742532
0.273400	-0.725653
0.273500	-0.748699
0.273600	-0.758111
0.273700	-0.782780
0.273800	-0.815887
0.273900	-0.791543
0.274000	-0.752594
0.274100	-0.595496
0.274200	-0.453978
0.274300	-0.610102
0.274400	-0.754866
0.274500	-0.915858
0.274600	-0.769472
0.274700	-0.676641
0.274800	-0.561415
0.274900	-0.574074
0.275000	-0.687677
0.275100	-0.788947
0.275200	-0.794465
0.275300	-0.708775
0.275400	-0.638990
0.275500	-0.634770
0.275600	-0.679887
0.275700	-0.756164
0.275800	-0.798360
0.275900	-0.811018
0.276000	-0.805500
0.276100	-0.829844
0.276200	-0.860679
0.276300	-0.918780
0.276400	-0.956431
0.276500	-1.004469
0.276600	-1.049262
0.276700	-1.067114
0.276800	-1.136899
0.276900	-1.151180
0.277000	-1.123591
0.277100	-1.138197
0.277200	-1.245634
0.277300	-1.415390
0.277400	-1.452068
0.277500	-1.336192
0.277600	-1.199543
0.277700	-1.177147
0.277800	-1.317691
0.277900	-1.473491
0.278000	-1.544574
0.278100	-1.441682
0.278200	-1.306980
0.278300	-1.254073
0.278400	-1.337815
0.278500	-1.445252
0.278600	-1.472192
0.278700	-1.476736
0.278800	-1.428698
0.278900	-1.404355
0.279000	-1.404355
0.279100	-1.417013
0.279200	-1.409223
0.279300	-1.405004
0.279400	-1.428698
0.279500	-1.463429
0.279600	-1.477710
0.279700	-1.458560
0.279800	-1.451094
0.279900	-1.437787
0.280000	-1.500106
0.280100	-1.587419
0.280200	-1.635457
0.280300	-1.651686
0.280400	-1.640001
0.280500	-1.709787
0.280600	-1.737052
0.280700	-1.682846
0.280800	-1.706216
0.280900	-1.724393
0.281000	-1.747763
0.281100	-1.772107
0.281200	-1.789959
0.281300	-1.811381
0.281400	-1.822742
0.281500	-1.846761
0.281600	-1.875649
0.281700	-1.910379
0.281800	-1.928231
0.281900	-1.946083
0.282000	-1.972374
0.282100	-2.010675
0.282200	-2.050923
0.282300	-2.095716
0.282400	-2.268069
0.282500	-2.393683
0.282600	-2.421273
0.282700	-2.240480
0.282800	-2.150895
0.282900	-2.141157
0.283000	-2.383296
0.283100	-2.555650
0.283200	-2.559221
0.283300	-2.499497
0.283400	-2.365444
0.283500	-2.314809
0.283600	-2.374533
0.283700	-2.447564
0.283800	-2.504691
0.283900	-2.467039
0.284000	-2.398552
0.284100	-2.340776
0.284200	-2.308318
0.284300	-2.313836
0.284400	-2.317731
0.284500	-2.317731
0.284600	-2.285921
0.284700	-2.260929
0.284800	-2.265473
0.284900	-2.295659
0.285000	-2.263525
0.285100	-2.233664
0.285200	-2.239506
0.285300	-2.266446
0.285400	-2.242752
0.285500	-2.165501
0.285600	-2.049950
0.285700	-2.076241
0.285800	-2.164527
0.285900	-2.308642
0.286000	-2.344996
0.286100	-2.240480
0.286200	-2.088250
0.286300	-2.038265
0.286400	-2.114542
0.286500	-2.261253
0.286600	-2.332337
0.286700	-2.302475
0.286800	-2.196012
0.286900	-2.118437
0.287000	-2.085978
0.287100	-2.102532
0.287200	-2.126551
0.287300	-2.119735
0.287400	-2.119086
0.287500	-2.055143
0.287600	-1.996718
0.287700	-1.936670
0.287800	-1.865262
0.287900	-1.801644
0.288000	-1.797099
0.288100	-1.791257
0.288200	-1.799696
0.288300	-1.751658
0.288400	-1.668565
0.288500	-1.657204
0.288600	-1.646169
0.288700	-1.660450
0.288800	-1.597806
0.288900	-1.561452
0.289000	-1.545223
0.289100	-1.499782
0.289200	-1.425128
0.289300	-1.418312
0.289400	-1.419610
0.289500	-1.446550
0.289600	-1.443629
0.289700	-1.466674
0.289800	-1.464078
0.289900	-1.445577
0.290000	-1.438111
0.290100	-1.410846
0.290200	-1.407600
0.290300	-1.404030
0.290400	-1.427075
0.290500	-1.368651
0.290600	-1.367028
0.290700	-1.151505
0.290800	-1.029137
0.290900	-0.864250
0.291000	-1.088536
0.291100	-1.164164
0.291200	-1.142417
0.291300	-1.020049
0.291400	-0.856784
0.291500	-0.752269
0.291600	-0.769147
0.291700	-0.833739
0.291800	-0.864250
0.291900	-0.802904
0.292000	-0.690274
0.292100	-0.601338
0.292200	-0.587381
0.292300	-0.599391
0.292400	-0.616918
0.292500	-0.612050
0.292600	-0.586083
0.292700	-0.578942
0.292800	-0.590952
0.292900	-0.575696
0.293000	-0.577319
0.293100	-0.614322
0.293200	-0.654894
0.293300	-0.719486
0.293400	-0.748374
0.293500	-0.770770
0.293600	-0.757138
0.293700	-0.750322
0.293800	-0.769796
0.293900	-1.006417
0.294000	-1.077825
0.294100	-1.062894
0.294200	-0.932412
0.294300	-0.817510
0.294400	-0.882751
0.294500	-1.045691
0.294600	-1.155725
0.294700	-1.131705
0.294800	-1.020374
0.294900	-0.916508
0.295000	-0.920727
0.295100	-1.012908
0.295200	-1.074254
0.295300	-1.057701
0.295400	-1.046665
0.295500	-1.009663
0.295600	-1.013233
0.295700	-0.993433
0.295800	-0.960975
0.295900	-0.966169
0.296000	-0.941825
0.296100	-0.981424
0.296200	-1.012259
0.296300	-1.023620
0.296400	-1.019075
0.296500	-1.022646
0.296600	-1.034980
0.296700	-1.138846
0.296800	-1.241090
0.296900	-1.279390
0.297000	-1.336192
0.297100	-1.380011
0.297200	-1.459534
0.297300	-1.474140
0.297400	-1.468297
0.297500	-1.469920
0.297600	-1.503028
0.297700	-1.524450
0.297800	-1.548469
0.297900	-1.567620
0.298000	-1.587095
0.298100	-1.632536
0.298200	-1.656555
0.298300	-1.677653
0.298400	-1.715629
0.298500	-1.739324
0.298600	-1.782169
0.298700	-1.801319
0.298800	-1.846436
0.298900	-1.851629
0.299000	-1.970751
0.299100	-2.109348
0.299200	-2.247621
0.299300	-2.157062
0.299400	-2.026904
0.299500	-1.936995
0.299600	-2.006455
0.299700	-2.166150
0.299800	-2.295334
0.299900	-2.253788
0.300000	-2.117138
0.300100	-2.008727
0.300200	-2.024307
0.300300	-2.105129
0.300400	-2.144403
0.300500	-2.159009
0.300600	-2.067152
0.300700	-2.027229
0.300800	-2.004183
0.300900	-2.054494
0.301000	-2.063257
0.301100	-2.044756
0.301200	-2.031124
0.301300	-2.035019
0.301400	-2.037291
0.301500	-2.113568
0.301600	-2.135964
0.301700	-2.106427
0.301800	-2.115840
0.301900	-2.125577
0.302000	-2.170045
0.302100	-2.117463
0.302200	-1.981463
0.302300	-1.897071
0.302400	-1.938942
0.302500	-2.094742
0.302600	-2.181406
0.302700	-2.171668
0.302800	-2.004183
0.302900	-1.841892
0.303000	-1.848708
0.303100	-1.973997
0.303200	-2.110971
0.303300	-2.115515
0.303400	-2.051572
0.303500	-1.951276
0.303600	-1.887658
0.303700	-1.909730
0.303800	-1.943486
0.303900	-1.952575
0.304000	-1.939591
0.304100	-1.891878
0.304200	-1.817873
0.304300	-1.769510
0.304400	-1.723095
0.304500	-1.673109
0.304600	-1.628966
0.304700	-1.626694
0.304800	-1.620851
0.304900	-1.630264
0.305000	-1.569567
0.305100	-1.490369
0.305200	-1.495238
0.305300	-1.495887
0.305400	-1.464078
0.305500	-1.432918
0.305600	-1.376116
0.305700	-1.343982
0.305800	-1.263486
0.305900	-1.232001
0.306000	-1.240765
0.306100	-1.268679
0.306200	-1.277118
0.306300	-1.293997
0.306400	-1.318665
0.306500	-1.333596
0.306600	-1.328402
0.306700	-1.322235
0.306800	-1.297892
0.306900	-1.335219
0.307000	-1.316068
0.307100	-1.374493
0.307200	-1.329051
0.307300	-1.339438
0.307400	-1.146312
0.307500	-1.078799
0.307600	-1.064517
0.307700	-1.342035
0.307800	-1.397863
0.307900	-1.350474
0.308000	-1.287180
0.308100	-1.146636
0.308200	-1.149233
0.308300	-1.212202
0.308400	-1.313796
0.308500	-1.333596
0.308600	-1.250178
0.308700	-1.138197
0.308800	-1.088861
0.308900	-1.126837
0.309000	-1.169032
0.309100	-1.195648
0.309200	-1.175199
0.309300	-1.140469
0.309400	-1.138522
0.309500	-1.153777
0.309600	-1.170006
0.309700	-1.187209
0.309800	-1.199868
0.309900	-1.235247
0.310000	-1.280364
0.310100	-1.304383
0.310200	-1.329051
0.310300	-1.319314
0.310400	-1.280689
0.310500	-1.385204
0.310600	-1.597806
0.310700	-1.645519
0.310800	-1.588717
0.310900	-1.448498
0.311000	-1.466025
0.311100	-1.542951
0.311200	-1.720173
0.311300	-1.778274
0.311400	-1.735753
0.311500	-1.615009
0.311600	-1.531591
0.311700	-1.587095
0.311800	-1.695181
0.311900	-1.773080
0.312000	-1.762045
0.312100	-1.754904
0.312200	-1.729911
0.312300	-1.764966
0.312400	-1.773730
0.312500	-1.805214
0.312600	-1.808460
0.312700	-1.824040
0.312800	-1.859744
0.312900	-1.892851
0.313000	-1.900966
0.313100	-1.902589
0.313200	-1.897396
0.313300	-1.929205
0.313400	-2.034045
0.313500	-2.055467
0.313600	-2.044432
0.313700	-2.005806
0.313800	-2.022035
0.313900	-2.024307
0.314000	-1.949978
0.314100	-1.930178
0.314200	-1.878245
0.314300	-1.844164
0.314400	-1.820469
0.314500	-1.803267
0.314600	-1.786388
0.314700	-1.769510
0.314800	-1.762694
0.314900	-1.743219
0.315000	-1.738025
0.315100	-1.733481
0.315200	-1.760746
0.315300	-1.734455
0.315400	-1.769835
0.315500	-1.795801
0.315600	-1.839620
0.315700	-1.954198
0.315800	-2.105453
0.315900	-2.111945
0.316000	-2.020737
0.316100	-1.871754
0.316200	-1.856498
0.316300	-2.057740
0.316400	-2.232690
0.316500	-2.337206
0.316600	-2.268069
0.316700	-2.172642
0.316800	-2.140184
0.316900	-2.194389
0.317000	-2.311239
0.317100	-2.392060
0.317200	-2.391086
0.317300	-2.332337
0.317400	-2.264174
0.317500	-2.266446
0.317600	-2.264824
0.317700	-2.277158
0.317800	-2.237883
0.317900	-2.231716
0.318000	-2.221654
0.318100	-2.219057
0.318200	-2.246971
0.318300	-2.175563
0.318400	-2.139534
0.318500	-2.118112
0.318600	-2.120384
0.318700	-2.094417
0.318800	-1.992823
0.318900	-1.830532
0.319000	-1.824040
0.319100	-1.891228
0.319200	-2.058389
0.319300	-2.070074
0.319400	-1.988603
0.319500	-1.830856
0.319600	-1.746465
0.319700	-1.823715
0.319800	-1.971725
0.319900	-2.091496
0.320000	-2.070398
0.320100	-1.972699
0.320200	-1.879868
0.320300	-1.868183
0.320400	-1.892527
0.320500	-1.946732
0.320600	-1.962312
0.320700	-1.950303
0.320800	-1.880842
0.320900	-1.819171
0.321000	-1.766264
0.321100	-1.684145
0.321200	-1.616307
0.321300	-1.586770
0.321400	-1.594884
0.321500	-1.631887
0.321600	-1.624746
0.321700	-1.525099
0.321800	-1.480631
0.321900	-1.487772
0.322000	-1.523476
0.322100	-1.471219
0.322200	-1.450770
0.322300	-1.386827
0.322400	-1.361185
0.322500	-1.316068
0.322600	-1.302111
0.322700	-1.310550
0.322800	-1.364106
0.322900	-1.344307
0.323000	-1.386503
0.323100	-1.394942
0.323200	-1.424479
0.323300	-1.427075
0.323400	-1.410846
0.323500	-1.435514
0.323600	-1.433567
0.323700	-1.430970
0.323800	-1.480307
0.323900	-1.435190
0.324000	-1.426751
0.324100	-1.249204
0.324200	-1.215772
0.324300	-1.326779
0.324400	-1.573137
0.324500	-1.535486
0.324600	-1.428374
0.324700	-1.305682
0.324800	-1.182665
0.324900	-1.217720
0.325000	-1.345605
0.325100	-1.414417
0.325200	-1.383906
0.325300	-1.269328
0.325400	-1.165137
0.325500	-1.158646
0.325600	-1.207333
0.325700	-1.264784
0.325800	-1.252450
0.325900	-1.234598
0.326000	-1.218044
0.326100	-1.240765
0.326200	-1.227782
0.326300	-1.225185
0.326400	-1.255696
0.326500	-1.270627
0.326600	-1.292049
0.326700	-1.306006
0.326800	-1.331973
0.326900	-1.290751
0.327000	-1.242388
0.327100	-1.262837
0.327200	-1.370923
0.327300	-1.572813
0.327400	-1.528670
0.327500	-1.410522
0.327600	-1.248880
0.327700	-1.279390
0.327800	-1.419610
0.327900	-1.591963
0.328000	-1.622799
0.328100	-1.508546
0.328200	-1.351772
0.328300	-1.328078
0.328400	-1.425452
0.328500	-1.538732
0.328600	-1.574436
0.328700	-1.571839
0.328800	-1.527371
0.328900	-1.542302
0.329000	-1.584173
0.329100	-1.603648
0.329200	-1.649090
0.329300	-1.657854
0.329400	-1.708164
0.329500	-1.764966
0.329600	-1.797099
0.329700	-1.819496
0.329800	-1.822742
0.329900	-1.828584
0.330000	-1.938618
0.330100	-2.021711
0.330200	-2.066503
0.330300	-2.061635
0.330400	-2.060336
0.330500	-2.112269
0.330600	-2.103506
0.330700	-2.036966
0.330800	-2.023658
0.330900	-2.023658
0.331000	-2.036317
0.331100	-2.036317
0.331200	-2.038265
0.331300	-2.041510
0.331400	-2.033396
0.331500	-2.050599
0.331600	-2.052546
0.331700	-2.068775
0.331800	-2.078837
0.331900	-2.079811
0.332000	-2.088575
0.332100	-2.105778
0.332200	-2.099935
0.332300	-2.130771
0.332400	-2.249568
0.332500	-2.385893
0.332600	-2.285597
0.332700	-2.150570
0.332800	-1.968804
0.332900	-1.980813
0.333000	-2.192117
0.333100	-2.262876
0.333200	-2.298905
0.333300	-2.115840
0.333400	-1.993472
0.333500	-1.941539
0.333600	-2.008078
0.333700	-2.080785
0.333800	-2.074293
0.333900	-2.033071
0.334000	-1.917844
0.334100	-1.858770
0.334200	-1.845787
0.334300	-1.850006
0.334400	-1.830207
0.334500	-1.788011
0.334600	-1.755877
0.334700	-1.700049
0.334800	-1.705567
0.334900	-1.706865
0.335000	-1.675381
0.335100	-1.594884
0.335200	-1.598455
0.335300	-1.529319
0.335400	-1.505300
0.335500	-1.324183
0.335600	-1.230054
0.335700	-1.205710
0.335800	-1.281013
0.335900	-1.396565
0.336000	-1.399810
0.336100	-1.234923
0.336200	-1.049262
0.336300	-0.998951
0.336400	-1.071982
0.336500	-1.217071
0.336600	-1.295619
0.336700	-1.249853
0.336800	-1.139495
0.336900	-1.066789
0.337000	-1.084316
0.337100	-1.138846
0.337200	-1.207982
0.337300	-1.234923
0.337400	-1.250503
0.337500	-1.226808
0.337600	-1.199868
0.337700	-1.214799
0.337800	-1.238493
0.337900	-1.276469
0.338000	-1.338140
0.338100	-1.398188
0.338200	-1.459534
0.338300	-1.457262
0.338400	-1.425452
0.338500	-1.468622
0.338600	-1.512116
0.338700	-1.543600
0.338800	-1.537109
0.338900	-1.532240
0.339000	-1.543276
0.339100	-1.494264
0.339200	-1.475114
0.339300	-1.483877
0.339400	-1.507896
0.339500	-1.578655
0.339600	-1.585472
0.339700	-1.652011
0.339800	-1.629615
0.339900	-1.635782
0.340000	-1.599753
0.340100	-1.610789
0.340200	-1.605596
0.340300	-1.668240
0.340400	-1.691286
0.340500	-1.655581
0.340600	-1.658827
0.340700	-1.465701
0.340800	-1.328402
0.340900	-1.293997
0.341000	-1.491343
0.341100	-1.692584
0.341200	-1.583524
0.341300	-1.552040
0.341400	-1.352097
0.341500	-1.317042
0.341600	-1.365080
0.341700	-1.485176
0.341800	-1.507572
0.341900	-1.452393
0.342000	-1.368326
0.342100	-1.294321
0.342200	-1.294970
0.342300	-1.343333
0.342400	-1.373195
0.342500	-1.375142
0.342600	-1.352421
0.342700	-1.342684
0.342800	-1.337815
0.342900	-1.316717
0.343000	-1.311524
0.343100	-1.333596
0.343200	-1.386503
0.343300	-1.437137
0.343400	-1.420908
0.343500	-1.426751
0.343600	-1.356316
0.343700	-1.353071
0.343800	-1.379686
0.343900	-1.632211
0.344000	-1.672784
0.344100	-1.619228
0.344200	-1.501080
0.344300	-1.404679
0.344400	-1.480956
0.344500	-1.605596
0.344600	-1.719200
0.344700	-1.665319
0.344800	-1.550741
0.344900	-1.432593
0.345000	-1.432593
0.345100	-1.516011
0.345200	-1.564049
0.345300	-1.574760
0.345400	-1.547171
0.345500	-1.506598
0.345600	-1.516985
0.345700	-1.495562
0.345800	-1.495887
0.345900	-1.489395
0.346000	-1.502054
0.346100	-1.551390
0.346200	-1.563075
0.346300	-1.556908
0.346400	-1.531266
0.346500	-1.518283
0.346600	-1.502703
0.346700	-1.576059
0.346800	-1.601052
0.346900	-1.591963
0.347000	-1.541004
0.347100	-1.552689
0.347200	-1.558531
0.347300	-1.477061
0.347400	-1.444603
0.347500	-1.424479
0.347600	-1.399810
0.347700	-1.375467
0.347800	-1.351123
0.347900	-1.334569
0.348000	-1.330350
0.348100	-1.315094
0.348200	-1.336517
0.348300	-1.320612
0.348400	-1.337491
0.348500	-1.337815
0.348600	-1.353395
0.348700	-1.369949
0.348800	-1.401109
0.348900	-1.420259
0.349000	-1.542951
0.349100	-1.713357
0.349200	-1.787687
0.349300	-1.721472
0.349400	-1.563400
0.349500	-1.528020
0.349600	-1.678951
0.349700	-1.887983
0.349800	-2.042484
0.349900	-1.967181
0.350000	-1.913625
0.350100	-1.829233
0.350200	-1.913625
0.350300	-2.020088
0.350400	-2.107076
0.350500	-2.169721
0.350600	-2.149272
0.350700	-2.177186
0.350800	-2.148947
0.350900	-2.217110
0.351000	-2.214513
0.351100	-2.246322
0.351200	-2.282026
0.351300	-2.315134
0.351400	-2.327144
0.351500	-2.408289
0.351600	-2.343048
0.351700	-2.360576
0.351800	-2.359602
0.351900	-2.405368
0.352000	-2.419974
0.352100	-2.347917
0.352200	-2.213215
0.352300	-2.144403
0.352400	-2.188222
0.352500	-2.344671
0.352600	-2.374208
0.352700	-2.316757
0.352800	-2.112919
0.352900	-1.969778
0.353000	-1.992823
0.353100	-2.122656
0.353200	-2.235936
0.353300	-2.205749
0.353400	-2.074618
0.353500	-1.967830
0.353600	-1.923687
0.353700	-1.935372
0.353800	-1.930828
0.353900	-1.890255
0.354000	-1.851954
0.354100	-1.797749
0.354200	-1.752307
0.354300	-1.707190
0.354400	-1.625720
0.354500	-1.558207
0.354600	-1.526722
0.354700	-1.549443
0.354800	-1.563400
0.354900	-1.572164
0.355000	-1.492316
0.355100	-1.433567
0.355200	-1.428049
0.355300	-1.436813
0.355400	-1.387476
0.355500	-1.363133
0.355600	-1.330025
0.355700	-1.274522
0.355800	-1.223238
0.355900	-1.167734
0.356000	-1.194350
0.356100	-1.209281
0.356200	-1.244335
0.356300	-1.239467
0.356400	-1.284259
0.356500	-1.283610
0.356600	-1.313472
0.356700	-1.298541
0.356800	-1.341386
0.356900	-1.341061
0.357000	-1.403381
0.357100	-1.470894
0.357200	-1.456288
0.357300	-1.420908
0.357400	-1.268355
0.357500	-1.195324
0.357600	-1.282636
0.357700	-1.595209
0.357800	-1.638703
0.357900	-1.622149
0.358000	-1.469271
0.358100	-1.346579
0.358200	-1.359562
0.358300	-1.466350
0.358400	-1.564698
0.358500	-1.559830
0.358600	-1.467324
0.358700	-1.370923
0.358800	-1.348851
0.358900	-1.370273
0.359000	-1.433892
0.359100	-1.430970
0.359200	-1.443629
0.359300	-1.403381
0.359400	-1.395591
0.359500	-1.409548
0.359600	-1.405653
0.359700	-1.397538
0.359800	-1.429672
0.359900	-1.418312
0.360000	-1.417013
0.360100	-1.445901
0.360200	-1.429347
0.360300	-1.392020
0.360400	-1.330350
0.360500	-1.451094
0.360600	-1.588068
0.360700	-1.602674
0.360800	-1.460507
0.360900	-1.274522
0.361000	-1.219018
0.361100	-1.312498
0.361200	-1.482579
0.361300	-1.547820
0.361400	-1.442655
0.361500	-1.286531
0.361600	-1.226808
0.361700	-1.329701
0.361800	-1.461481
0.361900	-1.514713
0.362000	-1.515362
0.362100	-1.493290
0.362200	-1.536135
0.362300	-1.564374
0.362400	-1.584498
0.362500	-1.613386
0.362600	-1.602999
0.362700	-1.631562
0.362800	-1.691935
0.362900	-1.711410
0.363000	-1.721796
0.363100	-1.694856
0.363200	-1.687391
0.363300	-1.758150
0.363400	-1.844489
0.363500	-1.852279
0.363600	-1.833777
0.363700	-1.826312
0.363800	-1.845462
0.363900	-1.838321
0.364000	-1.768212
0.364100	-1.738025
0.364200	-1.738999
0.364300	-1.725042
0.364400	-1.731534
0.364500	-1.720173
0.364600	-1.723744
0.364700	-1.741271
0.364800	-1.738025
0.364900	-1.748412
0.365000	-1.767238
0.365100	-1.787362
0.365200	-1.796126
0.365300	-1.825987
0.365400	-1.861042
0.365500	-1.866885
0.365600	-1.911677
0.365700	-2.034045
0.365800	-2.211267
0.365900	-2.212890
0.366000	-2.072995
0.366100	-1.916871
0.366200	-1.887333
0.366300	-2.099286
0.366400	-2.258007
0.366500	-2.287544
0.366600	-2.196661
0.366700	-2.052871
0.366800	-2.009052
0.366900	-2.092794
0.367000	-2.185301
0.367100	-2.256709
0.367200	-2.257358
0.367300	-2.214513
0.367400	-2.134990
0.367500	-2.138236
0.367600	-2.169721
0.367700	-2.171344
0.367800	-2.194714
0.367900	-2.192442
0.368000	-2.185950
0.368100	-2.194714
0.368200	-2.198284
0.368300	-2.190169
0.368400	-2.188871
0.368500	-2.214513
0.368600	-2.231716
0.368700	-2.208346
0.368800	-2.158360
0.368900	-2.063257
0.369000	-2.063582
0.369100	-2.149272
0.369200	-2.308318
0.369300	-2.362848
0.369400	-2.268069
0.369500	-2.086303
0.369600	-2.021062
0.369700	-2.102532
0.369800	-2.264174
0.369900	-2.324871
0.370000	-2.278456
0.370100	-2.171993
0.370200	-2.095391
0.370300	-2.096365
0.370400	-2.102207
0.370500	-2.097988
0.370600	-2.076565
0.370700	-2.042484
0.370800	-2.003534
0.370900	-1.899018
0.371000	-1.822417
0.371100	-1.736403
0.371200	-1.665968
0.371300	-1.660775
0.371400	-1.671161
0.371500	-1.689987
0.371600	-1.656880
0.371700	-1.559505
0.371800	-1.519257
0.371900	-1.512116
0.372000	-1.520555
0.372100	-1.447849
0.372200	-1.399810
0.372300	-1.353720
0.372400	-1.306006
0.372500	-1.223238
0.372600	-1.194025
0.372700	-1.211553
0.372800	-1.234598
0.372900	-1.229080
0.373000	-1.229405
0.373100	-1.269653
0.373200	-1.251152
0.373300	-1.269977
0.373400	-1.253099
0.373500	-1.294321
0.373600	-1.306655
0.373700	-1.337491
0.373800	-1.380985
0.373900	-1.350149
0.374000	-1.298216
0.374100	-1.031085
0.374200	-1.097624
0.374300	-1.214799
0.374400	-1.440383
0.374500	-1.461481
0.374600	-1.351448
0.374700	-1.216421
0.374800	-1.108336
0.374900	-1.144040
0.375000	-1.230703
0.375100	-1.279390
0.375200	-1.215448
0.375300	-1.105739
0.375400	-1.022321
0.375500	-1.007066
0.375600	-1.017453
0.375700	-1.033357
0.375800	-1.016803
0.375900	-1.011285
0.376000	-0.988565
0.376100	-0.971686
0.376200	-0.955133
0.376300	-0.950589
0.376400	-0.938904
0.376500	-0.957729
0.376600	-0.963572
0.376700	-1.022970
0.376800	-1.016479
0.376900	-0.948317
0.377000	-0.923324
0.377100	-0.869119
0.377200	-1.072956
0.377300	-1.137223
0.377400	-1.121319
0.377500	-0.991161
0.377600	-0.828870
0.377700	-0.869768
0.377800	-1.001223
0.377900	-1.130407
0.378000	-1.076526
0.378100	-0.942799
0.378200	-0.839582
0.378300	-0.823352
0.378400	-0.924947
0.378500	-0.966169
0.378600	-0.947343
0.378700	-0.940202
0.378800	-0.913586
0.378900	-0.975581
0.379000	-0.985968
0.379100	-0.971686
0.379200	-0.972660
0.379300	-0.963896
0.379400	-1.009663
0.379500	-1.038226
0.379600	-1.050884
0.379700	-1.069061
0.379800	-1.074254
0.379900	-1.065815
0.380000	-1.168059
0.380100	-1.250827
0.380200	-1.279715
0.380300	-1.293023
0.380400	-1.308603
0.380500	-1.358264
0.380600	-1.360536
0.380700	-1.330999
0.380800	-1.330999
0.380900	-1.318016
0.381000	-1.315419
0.381100	-1.295619
0.381200	-1.305357
0.381300	-1.284584
0.381400	-1.285233
0.381500	-1.280689
0.381600	-1.283935
0.381700	-1.296593
0.381800	-1.291725
0.381900	-1.288479
0.382000	-1.281013
0.382100	-1.327753
0.382200	-1.323858
0.382300	-1.390073
0.382400	-1.560154
0.382500	-1.647142
0.382600	-1.602674
0.382700	-1.432593
0.382800	-1.365080
0.382900	-1.418312
0.383000	-1.623448
0.383100	-1.800994
0.383200	-1.757825
0.383300	-1.653634
0.383400	-1.566646
0.383500	-1.569892
0.383600	-1.675056
0.383700	-1.754579
0.383800	-1.792880
0.383900	-1.722445
0.384000	-1.680899
0.384100	-1.622799
0.384200	-1.662722
0.384300	-1.679276
0.384400	-1.683496
0.384500	-1.656880
0.384600	-1.642274
0.384700	-1.657529
0.384800	-1.694531
0.384900	-1.709787
0.385000	-1.684469
0.385100	-1.659152
0.385200	-1.686741
0.385300	-1.687066
0.385400	-1.657204
0.385500	-1.543600
0.385600	-1.448822
0.385700	-1.480307
0.385800	-1.607543
0.385900	-1.723095
0.386000	-1.709787
0.386100	-1.560803
0.386200	-1.417013
0.386300	-1.429023
0.386400	-1.553338
0.386500	-1.750035
0.386600	-1.787687
0.386700	-1.704593
0.386800	-1.598779
0.386900	-1.585472
0.387000	-1.617605
0.387100	-1.709787
0.387200	-1.743219
0.387300	-1.732508
0.387400	-1.712059
0.387500	-1.687391
0.387600	-1.653959
0.387700	-1.612087
0.387800	-1.543276
0.387900	-1.524125
0.388000	-1.540679
0.388100	-1.552689
0.388200	-1.592937
0.388300	-1.554961
0.388400	-1.482904
0.388500	-1.473491
0.388600	-1.483553
0.388700	-1.467324
0.388800	-1.455963
0.388900	-1.409872
0.389000	-1.389099
0.389100	-1.303409
0.389200	-1.281987
0.389300	-1.286207
0.389400	-1.301462
0.389500	-1.345605
0.389600	-1.326455
0.389700	-1.375142
0.389800	-1.371896
0.389900	-1.373844
0.390000	-1.390073
0.390100	-1.388775
0.390200	-1.454340
0.390300	-1.435514
0.390400	-1.500106
0.390500	-1.452068
0.390600	-1.474140
0.390700	-1.330025
0.390800	-1.158646
0.390900	-1.269004
0.391000	-1.403056
0.391100	-1.575410
0.391200	-1.443954
0.391300	-1.409548
0.391400	-1.240765
0.391500	-1.228756
0.391600	-1.281987
0.391700	-1.370598
0.391800	-1.357290
0.391900	-1.285233
0.392000	-1.160593
0.392100	-1.078149
0.392200	-1.077176
0.392300	-1.114178
0.392400	-1.124565
0.392500	-1.098273
0.392600	-1.043095
0.392700	-1.017777
0.392800	-0.998302
0.392900	-0.999601
0.393000	-0.988565
0.393100	-1.018102
0.393200	-1.071009
0.393300	-1.023295
0.393400	-1.107362
0.393500	-1.072631
0.393600	-1.080421
0.393700	-1.063868
0.393800	-1.128784
0.393900	-1.315419
0.394000	-1.404679
0.394100	-1.341710
0.394200	-1.231352
0.394300	-1.219018
0.394400	-1.306980
0.394500	-1.465376
0.394600	-1.577032
0.394700	-1.554312
0.394800	-1.421882
0.394900	-1.350798
0.395000	-1.417013
0.395100	-1.525748
0.395200	-1.605271
0.395300	-1.633834
0.395400	-1.631562
0.395500	-1.595209
0.395600	-1.594884
0.395700	-1.588068
0.395800	-1.607868
0.395900	-1.616632
0.396000	-1.623772
0.396100	-1.637729
0.396200	-1.670837
0.396300	-1.635133
0.396400	-1.620851
0.396500	-1.601701
0.396600	-1.636756
0.396700	-1.727314
0.396800	-1.756202
0.396900	-1.737701
0.397000	-1.704269
0.397100	-1.735753
0.397200	-1.772107
0.397300	-1.689013
0.397400	-1.671811
0.397500	-1.640001
0.397600	-1.611114
0.397700	-1.607543
0.397800	-1.583524
0.397900	-1.578331
0.398000	-1.534512
0.398100	-1.516985
0.398200	-1.516985
0.398300	-1.485176
0.398400	-1.472841
0.398500	-1.456288
0.398600	-1.442655
0.398700	-1.422856
0.398800	-1.446226
0.398900	-1.449472
0.399000	-1.531591
0.399100	-1.672784
0.399200	-1.714655
0.399300	-1.596507
0.399400	-1.449472
0.399500	-1.402407
0.399600	-1.552689
0.399700	-1.712708
0.399800	-1.796126
0.399900	-1.708164
0.400000	-1.596507
0.400100	-1.519257
0.400200	-1.607219
0.400300	-1.708164
0.400400	-1.780870
0.400500	-1.807811
0.400600	-1.770484
0.400700	-1.785415
0.400800	-1.782493
0.400900	-1.823066
0.401000	-1.840594
0.401100	-1.900641
0.401200	-1.925310
0.401300	-1.968804
0.401400	-1.991525
0.401500	-2.058389
0.401600	-2.041510
0.401700	-2.053845
0.401800	-2.103830
0.401900	-2.155764
0.402000	-2.162904
0.402100	-2.108050
0.402200	-2.020737
0.402300	-1.992174
0.402400	-2.057090
0.402500	-2.219382
0.402600	-2.263850
0.402700	-2.227172
0.402800	-2.081434
0.402900	-2.011324
0.403000	-2.054494
0.403100	-2.186274
0.403200	-2.304423
0.403300	-2.286571
0.403400	-2.197959
0.403500	-2.118437
0.403600	-2.079487
0.403700	-2.092470
0.403800	-2.089224
0.403900	-2.084680
0.404000	-2.059687
0.404100	-2.016517
0.404200	-1.955496
0.404300	-1.874999
0.404400	-1.801644
0.404500	-1.712383
0.404600	-1.694207
0.404700	-1.707515
0.404800	-1.689338
0.404900	-1.655581
0.405000	-1.537109
0.405100	-1.465701
0.405200	-1.459534
0.405300	-1.435839
0.405400	-1.359238
0.405500	-1.309901
0.405600	-1.256020
0.405700	-1.183314
0.405800	-1.103467
0.405900	-1.090808
0.406000	-1.052183
0.406100	-1.086589
0.406200	-1.079448
0.406300	-1.101195
0.406400	-1.081720
0.406500	-1.098598
0.406600	-1.066464
0.406700	-1.075553
0.406800	-1.074579
0.406900	-1.083018
0.407000	-1.169682
0.407100	-1.120994
0.407200	-1.162541
0.407300	-1.020049
0.407400	-0.924947
0.407500	-0.807123
0.407600	-1.003171
0.407700	-1.274197
0.407800	-1.272250
0.407900	-1.226808
0.408000	-1.087238
0.408100	-0.985968
0.408200	-1.046016
0.408300	-1.129433
0.408400	-1.205386
0.408500	-1.165462
0.408600	-1.099572
0.408700	-1.029137
0.408800	-1.034006
0.408900	-1.079123
0.409000	-1.108336
0.409100	-1.133004
0.409200	-1.163839
0.409300	-1.166111
0.409400	-1.148908
0.409500	-1.153777
0.409600	-1.182016
0.409700	-1.155075
0.409800	-1.228431
0.409900	-1.245958
0.410000	-1.352421
0.410100	-1.342035
0.410200	-1.318665
0.410300	-1.270951
0.410400	-1.293997
0.410500	-1.445901
0.410600	-1.600727
0.410700	-1.616307
0.410800	-1.482579
0.410900	-1.336841
0.411000	-1.395915
0.411100	-1.480956
0.411200	-1.625720
0.411300	-1.627667
0.411400	-1.530293
0.411500	-1.409223
0.411600	-1.339438
0.411700	-1.421882
0.411800	-1.528994
0.411900	-1.577682
0.412000	-1.567620
0.412100	-1.524125
0.412200	-1.531915
0.412300	-1.538407
0.412400	-1.518932
0.412500	-1.520231
0.412600	-1.493939
0.412700	-1.514063
0.412800	-1.528670
0.412900	-1.539056
0.413000	-1.502703
0.413100	-1.457586
0.413200	-1.438111
0.413300	-1.471543
0.413400	-1.544250
0.413500	-1.539381
0.413600	-1.495887
0.413700	-1.457262
0.413800	-1.459209
0.413900	-1.450445
0.414000	-1.365405
0.414100	-1.344307
0.414200	-1.348851
0.414300	-1.341386
0.414400	-1.323858
0.414500	-1.305032
0.414600	-1.308603
0.414700	-1.320937
0.414800	-1.322560
0.414900	-1.292698
0.415000	-1.294646
0.415100	-1.266407
0.415200	-1.298216
0.415300	-1.260565
0.415400	-1.278092
0.415500	-1.270627
0.415600	-1.291075
0.415700	-1.414417
0.415800	-1.488421
0.415900	-1.483553
0.416000	-1.293023
0.416100	-1.168059
0.416200	-1.160269
0.416300	-1.371896
0.416400	-1.499782
0.416500	-1.498483
0.416600	-1.398188
0.416700	-1.259915
0.416800	-1.257968
0.416900	-1.370598
0.417000	-1.482254
0.417100	-1.555610
0.417200	-1.562751
0.417300	-1.510168
0.417400	-1.466350
0.417500	-1.497185
0.417600	-1.534837
0.417700	-1.608842
0.417800	-1.607543
0.417900	-1.619877
0.418000	-1.647791
0.418100	-1.721796
0.418200	-1.731534
0.418300	-1.738999
0.418400	-1.783467
0.418500	-1.865262
0.418600	-1.916221
0.418700	-1.924336
0.418800	-1.828259
0.418900	-1.736727
0.419000	-1.781844
0.419100	-1.877921
0.419200	-2.032422
0.419300	-2.028202
0.419400	-1.934073
0.419500	-1.795801
0.419600	-1.750035
0.419700	-1.814952
0.419800	-1.936670
0.419900	-1.986007
0.420000	-1.966207
0.420100	-1.844489
0.420200	-1.743543
0.420300	-1.676030
0.420400	-1.712383
0.420500	-1.731534
0.420600	-1.707515
0.420700	-1.650713
0.420800	-1.563400
0.420900	-1.478035
0.421000	-1.408899
0.421100	-1.344956
0.421200	-1.277767
0.421300	-1.250178
0.421400	-1.247257
0.421500	-1.242713
0.421600	-1.181042
0.421700	-1.108011
0.421800	-1.080421
0.421900	-1.094703
0.422000	-1.089510
0.422100	-1.053806
0.422200	-1.035305
0.422300	-1.021023
0.422400	-0.950264
0.422500	-0.898980
0.422600	-0.883400
0.422700	-0.921701
0.422800	-0.957405
0.422900	-0.968116
0.423000	-1.019400
0.423100	-1.016479
0.423200	-1.044068
0.423300	-1.022646
0.423400	-1.081071
0.423500	-1.050560
0.423600	-1.120020
0.423700	-1.139495
0.423800	-1.187209
0.423900	-1.129433
0.424000	-1.010961
0.424100	-0.864250
0.424200	-0.867820
0.424300	-1.083343
0.424400	-1.306006
0.424500	-1.259915
0.424600	-1.200841
0.424700	-1.078149
0.424800	-1.047963
0.424900	-1.113529
0.425000	-1.238818
0.425100	-1.309252
0.425200	-1.291400
0.425300	-1.209281
0.425400	-1.186884
0.425500	-1.198245
0.425600	-1.262188
0.425700	-1.317367
0.425800	-1.390722
0.425900	-1.405004
0.426000	-1.378388
0.426100	-1.365080
0.426200	-1.387801
0.426300	-1.399810
0.426400	-1.386827
0.426500	-1.460183
0.426600	-1.470245
0.426700	-1.522827
0.426800	-1.482904
0.426900	-1.442980
0.427000	-1.436488
0.427100	-1.474789
0.427200	-1.650388
0.427300	-1.706865
0.427400	-1.642923
0.427500	-1.491992
0.427600	-1.405004
0.427700	-1.484526
0.427800	-1.557557
0.427900	-1.697777
0.428000	-1.656231
0.428100	-1.557557
0.428200	-1.476412
0.428300	-1.432918
0.428400	-1.515686
0.428500	-1.597157
0.428600	-1.604297
0.428700	-1.628641
0.428800	-1.588717
0.428900	-1.626369
0.429000	-1.593586
0.429100	-1.603973
0.429200	-1.593262
0.429300	-1.611438
0.429400	-1.646493
0.429500	-1.661749
0.429600	-1.660775
0.429700	-1.634484
0.429800	-1.617605
0.429900	-1.600727
0.430000	-1.699400
0.430100	-1.740622
0.430200	-1.757176
0.430300	-1.727639
0.430400	-1.723095
0.430500	-1.768536
0.430600	-1.711410
0.430700	-1.679925
0.430800	-1.657529
0.430900	-1.644221
0.431000	-1.633834
0.431100	-1.620527
0.431200	-1.592937
0.431300	-1.581577
0.431400	-1.580603
0.431500	-1.552040
0.431600	-1.554961
0.431700	-1.548145
0.431800	-1.545548
0.431900	-1.549118
0.432000	-1.558856
0.432100	-1.576383
0.432200	-1.573462
0.432300	-1.686741
0.432400	-1.819496
0.432500	-1.892527
0.432600	-1.800021
0.432700	-1.667591
0.432800	-1.589042
0.432900	-1.735753
0.433000	-1.966207
0.433100	-2.034694
0.433200	-2.057415
0.433300	-1.926608
0.433400	-1.856174
0.433500	-1.888632
0.433600	-1.983410
0.433700	-2.084031
0.433800	-2.085329
0.433900	-2.080460
0.434000	-2.045730
0.434100	-1.999315
0.434200	-2.021711
0.434300	-2.025930
0.434400	-2.072021
0.434500	-2.066179
0.434600	-2.051572
0.434700	-2.101234
0.434800	-2.153492
0.434900	-2.122981
0.435000	-2.131420
0.435100	-2.141157
0.435200	-2.199907
0.435300	-2.200881
0.435400	-2.156088
0.435500	-1.997692
0.435600	-1.962312
0.435700	-2.011649
0.435800	-2.167773
0.435900	-2.231391
0.436000	-2.161931
0.436100	-2.027878
0.436200	-1.909730
0.436300	-1.899343
0.436400	-2.000288
0.436500	-2.095067
0.436600	-2.121682
0.436700	-2.045081
0.436800	-1.941863
0.436900	-1.907133
0.437000	-1.930503
0.437100	-1.919467
0.437200	-1.919467
0.437300	-1.914274
0.437400	-1.877271
0.437500	-1.818522
0.437600	-1.751658
0.437700	-1.690961
0.437800	-1.594560
0.437900	-1.559180
0.438000	-1.531591
0.438100	-1.518932
0.438200	-1.527047
0.438300	-1.416040
0.438400	-1.318989
0.438500	-1.282636
0.438600	-1.250827
0.438700	-1.196946
0.438800	-1.152154
0.438900	-1.088211
0.439000	-1.019075
0.439100	-0.945395
0.439200	-0.918780
0.439300	-0.903849
0.439400	-0.904823
0.439500	-0.941825
0.439600	-0.948966
0.439700	-0.990512
0.439800	-1.027515
0.439900	-1.011935
0.440000	-1.102818
0.440100	-1.055753
0.440200	-1.134627
0.440300	-1.120670
0.440400	-1.215123
0.440500	-1.227457
0.440600	-1.172278
0.440700	-1.050235
0.440800	-0.912937
0.440900	-1.012259
0.441000	-1.242063
0.441100	-1.245634
0.441200	-1.240116
0.441300	-1.078799
0.441400	-0.954159
0.441500	-0.901252
0.441600	-0.985968
0.441700	-1.054455
0.441800	-1.031410
0.441900	-0.944422
0.442000	-0.837959
0.442100	-0.790245
0.442200	-0.807448
0.442300	-0.839906
0.442400	-0.870092
0.442500	-0.896059
0.442600	-0.910016
0.442700	-0.882102
0.442800	-0.882751
0.442900	-0.924297
0.443000	-0.972985
0.443100	-0.937930
0.443200	-1.031734
0.443300	-1.066789
0.443400	-1.116126
0.443500	-1.090159
0.443600	-1.055429
0.443700	-1.098923
0.443800	-1.165462
0.443900	-1.343982
0.444000	-1.338140
0.444100	-1.254398
0.444200	-1.066789
0.444300	-1.067763
0.444400	-1.112555
0.444500	-1.274197
0.444600	-1.282961
0.444700	-1.204736
0.444800	-1.040498
0.444900	-0.923648
0.445000	-0.954159
0.445100	-1.037252
0.445200	-1.058674
0.445300	-1.038875
0.445400	-1.022646
0.445500	-0.972336
0.445600	-0.983371
0.445700	-0.953834
0.445800	-0.945395
0.445900	-0.936956
0.446000	-0.949615
0.446100	-0.969414
0.446200	-0.995381
0.446300	-0.995056
0.446400	-0.988240
0.446500	-0.984345
0.446600	-1.022321
0.446700	-1.114178
0.446800	-1.153128
0.446900	-1.176498
0.447000	-1.167734
0.447100	-1.193701
0.447200	-1.224536
0.447300	-1.181367
0.447400	-1.190779
0.447500	-1.198569
0.447600	-1.197271
0.447700	-1.214149
0.447800	-1.189481
0.447900	-1.178770
0.448000	-1.170006
0.448100	-1.180068
0.448200	-1.149233
0.448300	-1.146636
0.448400	-1.138197
0.448500	-1.116450
0.448600	-1.116450
0.448700	-1.104116
0.448800	-1.123266
0.448900	-1.133328
0.449000	-1.246608
0.449100	-1.390073
0.449200	-1.350798
0.449300	-1.199219
0.449400	-1.019725
0.449500	-0.974932
0.449600	-1.115152
0.449700	-1.239142
0.449800	-1.246932
0.449900	-1.166111
0.450000	-0.987591
0.450100	-0.931438
0.450200	-0.910665
0.450300	-0.964546
0.450400	-0.997653
0.450500	-0.953834
0.450600	-0.888269
0.450700	-0.831792
0.450800	-0.817185
0.450900	-0.789271
0.451000	-0.805500
0.451100	-0.803553
0.451200	-0.788622
0.451300	-0.820107
0.451400	-0.861978
0.451500	-0.873338
0.451600	-0.903849
0.451700	-0.946369
0.451800	-1.018426
0.451900	-1.116126
0.452000	-1.149882
0.452100	-1.100870
0.452200	-1.012584
0.452300	-1.094054
0.452400	-1.236221
0.452500	-1.443304
0.452600	-1.495562
0.452700	-1.477061
0.452800	-1.369949
0.452900	-1.356641
0.453000	-1.466350
0.453100	-1.627018
0.453200	-1.772107
0.453300	-1.804565
0.453400	-1.759123
0.453500	-1.731209
0.453600	-1.712708
0.453700	-1.739648
0.453800	-1.774054
0.453900	-1.800345
0.454000	-1.789634
0.454100	-1.742570
0.454200	-1.673109
0.454300	-1.598455
0.454400	-1.549118
0.454500	-1.489395
0.454600	-1.472841
0.454700	-1.469596
0.454800	-1.471543
0.454900	-1.437462
0.455000	-1.339438
0.455100	-1.279066
0.455200	-1.259266
0.455300	-1.237519
0.455400	-1.166760
0.455500	-1.121319
0.455600	-1.075228
0.455700	-1.028813
0.455800	-0.952212
0.455900	-0.915534
0.456000	-0.933061
0.456100	-0.960326
0.456200	-0.974283
0.456300	-0.997978
0.456400	-1.042121
0.456500	-1.022646
0.456600	-1.026216
0.456700	-1.015505
0.456800	-0.994083
0.456900	-1.055429
0.457000	-1.052183
0.457100	-1.132030
0.457200	-1.107362
0.457300	-1.035629
0.457400	-0.847047
0.457500	-0.807123
0.457600	-0.960975
0.457700	-1.157347
0.457800	-1.196946
0.457900	-1.103142
0.458000	-1.028813
0.458100	-0.924947
0.458200	-0.978178
0.458300	-1.087562
0.458400	-1.160918
0.458500	-1.141768
0.458600	-1.050560
0.458700	-0.977854
0.458800	-0.972660
0.458900	-1.010636
0.459000	-1.025243
0.459100	-1.009338
0.459200	-1.019075
0.459300	-1.009013
0.459400	-0.992135
0.459500	-1.005768
0.459600	-0.999601
0.459700	-1.000250
0.459800	-1.045042
0.459900	-1.066789
0.460000	-1.132355
0.460100	-1.072307
0.460200	-1.036278
0.460300	-0.994083
0.460400	-1.007715
0.460500	-1.185262
0.460600	-1.294646
0.460700	-1.240116
0.460800	-1.095352
0.460900	-1.005118
0.461000	-1.036927
0.461100	-1.167085
0.461200	-1.316068
0.461300	-1.310875
0.461400	-1.216746
0.461500	-1.106063
0.461600	-1.113853
0.461700	-1.216746
0.461800	-1.294646
0.461900	-1.302760
0.462000	-1.334894
0.462100	-1.336517
0.462200	-1.377090
0.462300	-1.382283
0.462400	-1.387801
0.462500	-1.386503
0.462600	-1.390722
0.462700	-1.424803
0.462800	-1.454016
0.462900	-1.464727
0.463000	-1.450770
0.463100	-1.444603
0.463200	-1.414092
0.463300	-1.485176
0.463400	-1.539056
0.463500	-1.552689
0.463600	-1.527696
0.463700	-1.478684
0.463800	-1.522827
0.463900	-1.507247
0.464000	-1.429023
0.464100	-1.411820
0.464200	-1.373519
0.464300	-1.356316
0.464400	-1.347228
0.464500	-1.317691
0.464600	-1.286856
0.464700	-1.265758
0.464800	-1.248880
0.464900	-1.251152
0.465000	-1.262512
0.465100	-1.269328
0.465200	-1.282312
0.465300	-1.282636
0.465400	-1.330350
0.465500	-1.341061
0.465600	-1.413443
0.465700	-1.595858
0.465800	-1.708164
0.465900	-1.689338
0.466000	-1.543925
0.466100	-1.487123
0.466200	-1.544250
0.466300	-1.800345
0.466400	-1.925959
0.466500	-1.917195
0.466600	-1.824040
0.466700	-1.707190
0.466800	-1.726665
0.466900	-1.848059
0.467000	-1.954522
0.467100	-1.970427
0.467200	-1.897071
0.467300	-1.841892
0.467400	-1.848059
0.467500	-1.889281
0.467600	-1.903887
0.467700	-1.883439
0.467800	-1.880193
0.467900	-1.888956
0.468000	-1.880193
0.468100	-1.973997
0.468200	-1.991200
0.468300	-1.927906
0.468400	-1.908756
0.468500	-1.924661
0.468600	-1.933100
0.468700	-1.880193
0.468800	-1.720823
0.468900	-1.639028
0.469000	-1.651362
0.469100	-1.807811
0.469200	-1.923038
0.469300	-1.902913
0.469400	-1.744517
0.469500	-1.585147
0.469600	-1.596832
0.469700	-1.710436
0.469800	-1.876298
0.469900	-1.922064
0.470000	-1.841243
0.470100	-1.738999
0.470200	-1.674732
0.470300	-1.693882
0.470400	-1.726665
0.470500	-1.719524
0.470600	-1.693882
0.470700	-1.646169
0.470800	-1.572164
0.470900	-1.521853
0.471000	-1.470569
0.471100	-1.382608
0.471200	-1.322884
0.471300	-1.314121
0.471400	-1.301462
0.471500	-1.311849
0.471600	-1.252125
0.471700	-1.150207
0.471800	-1.118722
0.471900	-1.108985
0.472000	-1.075228
0.472100	-1.034006
0.472200	-0.978503
0.472300	-0.917481
0.472400	-0.839257
0.472500	-0.770770
0.472600	-0.737663
0.472700	-0.771419
0.472800	-0.740909
0.472900	-0.760384
0.473000	-0.731820
0.473100	-0.743505
0.473200	-0.712670
0.473300	-0.687028
0.473400	-0.702283
0.473500	-0.659763
0.473600	-0.674045
0.473700	-0.677615
0.473800	-0.670474
0.473900	-0.685081
0.474000	-0.506561
0.474100	-0.401396
0.474200	-0.359200
0.474300	-0.598417
0.474400	-0.681186
0.474500	-0.683782
0.474600	-0.570828
0.474700	-0.455601
0.474800	-0.419573
0.474900	-0.518245
0.475000	-0.642560
0.475100	-0.702933
0.475200	-0.631200
0.475300	-0.528308
0.475400	-0.489682
0.475500	-0.531878
0.475600	-0.590627
0.475700	-0.643209
0.475800	-0.619190
0.475900	-0.604260
0.476000	-0.621138
0.476100	-0.638990
0.476200	-0.655219
0.476300	-0.702283
0.476400	-0.792517
0.476500	-0.767524
0.476600	-0.857758
0.476700	-0.866846
0.476800	-0.925596
0.476900	-0.877233
0.477000	-0.886971
0.477100	-0.940527
0.477200	-1.164488
0.477300	-1.256345
0.477400	-1.206359
0.477500	-1.062245
0.477600	-0.999601
0.477700	-1.091457
0.477800	-1.257319
0.477900	-1.374168
0.478000	-1.334569
0.478100	-1.193051
0.478200	-1.076202
0.478300	-1.107037
0.478400	-1.223238
0.478500	-1.277443
0.478600	-1.291075
0.478700	-1.244011
0.478800	-1.181691
0.478900	-1.179094
0.479000	-1.161242
0.479100	-1.153452
0.479200	-1.159295
0.479300	-1.155400
0.479400	-1.177147
0.479500	-1.147935
0.479600	-1.137548
0.479700	-1.113853
0.479800	-1.083343
0.479900	-1.115152
0.480000	-1.197920
0.480100	-1.221939
0.480200	-1.210254
0.480300	-1.163190
0.480400	-1.191429
0.480500	-1.213500
0.480600	-1.157997
0.480700	-1.128460
0.480800	-1.106713
0.480900	-1.088211
0.481000	-1.082369
0.481100	-1.066464
0.481200	-1.059648
0.481300	-1.046990
0.481400	-1.043419
0.481500	-1.041472
0.481600	-1.028164
0.481700	-1.064842
0.481800	-1.062245
0.481900	-1.136574
0.482000	-1.126837
0.482100	-1.184937
0.482200	-1.203763
0.482300	-1.292049
0.482400	-1.529319
0.482500	-1.594884
0.482600	-1.499133
0.482700	-1.365729
0.482800	-1.311524
0.482900	-1.482254
0.483000	-1.705892
0.483100	-1.796126
0.483200	-1.757500
0.483300	-1.635457
0.483400	-1.605271
0.483500	-1.645844
0.483600	-1.753930
0.483700	-1.817548
0.483800	-1.826961
0.483900	-1.789959
0.484000	-1.735429
0.484100	-1.734780
0.484200	-1.774703
0.484300	-1.800994
0.484400	-1.814302
0.484500	-1.821768
0.484600	-1.833777
0.484700	-1.826961
0.484800	-1.905186
0.484900	-1.912326
0.485000	-1.878245
0.485100	-1.905835
0.485200	-1.935696
0.485300	-1.953548
0.485400	-1.864613
0.485500	-1.744842
0.485600	-1.720823
0.485700	-1.791582
0.485800	-1.958742
0.485900	-2.033720
0.486000	-1.988603
0.486100	-1.816250
0.486200	-1.714331
0.486300	-1.780546
0.486400	-1.923038
0.486500	-2.061959
0.486600	-2.064556
0.486700	-1.975620
0.486800	-1.870455
0.486900	-1.837997
0.487000	-1.852279
0.487100	-1.880842
0.487200	-1.887658
0.487300	-1.874350
0.487400	-1.850980
0.487500	-1.765290
0.487600	-1.701023
0.487700	-1.635457
0.487800	-1.569892
0.487900	-1.540030
0.488000	-1.544574
0.488100	-1.541978
0.488200	-1.532240
0.488300	-1.417987
0.488400	-1.324183
0.488500	-1.293672
0.488600	-1.277118
0.488700	-1.168383
0.488800	-1.109958
0.488900	-1.059648
0.489000	-0.993109
0.489100	-0.899629
0.489200	-0.837959
0.489300	-0.823028
0.489400	-0.835037
0.489500	-0.832441
0.489600	-0.842178
0.489700	-0.838608
0.489800	-0.835037
0.489900	-0.792193
0.490000	-0.800956
0.490100	-0.742856
0.490200	-0.806799
0.490300	-0.756489
0.490400	-0.821405
0.490500	-0.706503
0.490600	-0.662035
0.490700	-0.440995
0.490800	-0.377052
0.490900	-0.520842
0.491000	-0.694169
0.491100	-0.757462
0.491200	-0.656193
0.491300	-0.481892
0.491400	-0.394904
0.491500	-0.373157
0.491600	-0.484164
0.491700	-0.571801
0.491800	-0.555572
0.491900	-0.481892
0.492000	-0.392308
0.492100	-0.400098
0.492200	-0.439697
0.492300	-0.502341
0.492400	-0.540642
0.492500	-0.534799
0.492600	-0.538045
0.492700	-0.548432
0.492800	-0.559143
0.492900	-0.574074
0.493000	-0.593224
0.493100	-0.662360
0.493200	-0.695467
0.493300	-0.770121
0.493400	-0.823028
0.493500	-0.793491
0.493600	-0.755839
0.493700	-0.711696
0.493800	-0.880803
0.493900	-1.041796
0.494000	-1.037901
0.494100	-0.913262
0.494200	-0.764603
0.494300	-0.781806
0.494400	-0.920078
0.494500	-1.093080
0.494600	-1.114178
0.494700	-1.008040
0.494800	-0.839906
0.494900	-0.800307
0.495000	-0.876909
0.495100	-0.990188
0.495200	-1.015830
0.495300	-1.029462
0.495400	-0.973959
0.495500	-0.988565
0.495600	-0.999601
0.495700	-1.035629
0.495800	-1.045042
0.495900	-1.061596
0.496000	-1.086589
0.496100	-1.127161
0.496200	-1.138197
0.496300	-1.146312
0.496400	-1.155725
0.496500	-1.145987
0.496600	-1.207658
0.496700	-1.296269
0.496800	-1.306331
0.496900	-1.302111
0.497000	-1.269004
0.497100	-1.313147
0.497200	-1.305682
0.497300	-1.210579
0.497400	-1.191753
0.497500	-1.170006
0.497600	-1.145338
0.497700	-1.132679
0.497800	-1.110932
0.497900	-1.096001
0.498000	-1.092106
0.498100	-1.074254
0.498200	-1.071333
0.498300	-1.032059
0.498400	-1.038226
0.498500	-1.030436
0.498600	-1.023295
0.498700	-1.057052
0.498800	-1.044068
0.498900	-1.101844
0.499000	-1.207009
0.499100	-1.345605
0.499200	-1.332297
0.499300	-1.212202
0.499400	-1.082694
0.499500	-1.058999
0.499600	-1.320612
0.499700	-1.459209
0.499800	-1.524125
0.499900	-1.437462
0.500000	-1.332946
0.500100	-1.331973
0.500200	-1.397538
0.500300	-1.552689
0.500400	-1.645195
0.500500	-1.649739
0.500600	-1.650388
0.500700	-1.639677
0.500800	-1.703295
0.500900	-1.761395
0.501000	-1.853577
0.501100	-1.906159
0.501200	-1.971725
0.501300	-2.003534
0.501400	-2.076890
0.501500	-2.139859
0.501600	-2.191792
0.501700	-2.203153
0.501800	-2.255735
0.501900	-2.334934
0.502000	-2.361549
0.502100	-2.295984
0.502200	-2.191468
0.502300	-2.222628
0.502400	-2.357330
0.502500	-2.504691
0.502600	-2.550457
0.502700	-2.456977
0.502800	-2.292089
0.502900	-2.244050
0.503000	-2.336881
0.503100	-2.521894
0.503200	-2.601741
0.503300	-2.562467
0.503400	-2.470285
0.503500	-2.368690
0.503600	-2.337206
0.503700	-2.323249
0.503800	-2.359277
0.503900	-2.350514
0.504000	-2.293711
0.504100	-2.209644
0.504200	-2.108699
0.504300	-2.015219
0.504400	-1.945434
0.504500	-1.863964
0.504600	-1.842541
0.504700	-1.789634
0.504800	-1.753930
0.504900	-1.696479
0.505000	-1.546197
0.505100	-1.478684
0.505200	-1.434216
0.505300	-1.399161
0.505400	-1.292698
0.505500	-1.212202
0.505600	-1.154426
0.505700	-1.045367
0.505800	-0.952536
0.505900	-0.895734
0.506000	-0.901252
0.506100	-0.899305
0.506200	-0.858407
0.506300	-0.856460
0.506400	-0.873663
0.506500	-0.793816
0.506600	-0.796737
0.506700	-0.739610
0.506800	-0.784403
0.506900	-0.714618
0.507000	-0.797710
0.507100	-0.764603
0.507200	-0.752918
0.507300	-0.582837
0.507400	-0.444241
0.507500	-0.397501
0.507600	-0.534799
0.507700	-0.723706
0.507800	-0.698064
0.507900	-0.620164
0.508000	-0.447487
0.508100	-0.374780
0.508200	-0.416976
0.508300	-0.511429
0.508400	-0.597768
0.508500	-0.555897
0.508600	-0.446188
0.508700	-0.366017
0.508800	-0.393281
0.508900	-0.446837
0.509000	-0.481243
0.509100	-0.503315
0.509200	-0.518895
0.509300	-0.524737
0.509400	-0.538694
0.509500	-0.554274
0.509600	-0.604260
0.509700	-0.624059
0.509800	-0.698713
0.509900	-0.762980
0.510000	-0.811668
0.510100	-0.835687
0.510200	-0.779209
0.510300	-0.755190
0.510400	-0.790894
0.510500	-0.968765
0.510600	-1.091782
0.510700	-1.035629
0.510800	-0.903524
0.510900	-0.791219
0.511000	-0.824002
0.511100	-0.935333
0.511200	-1.044393
0.511300	-1.008040
0.511400	-0.897033
0.511500	-0.777262
0.511600	-0.770121
0.511700	-0.836336
0.511800	-0.868469
0.511900	-0.869443
0.512000	-0.879181
0.512100	-0.838283
0.512200	-0.867496
0.512300	-0.823028
0.512400	-0.834388
0.512500	-0.831142
0.512600	-0.836660
0.512700	-0.888918
0.512800	-0.910340
0.512900	-0.920078
0.513000	-0.903849
0.513100	-0.902226
0.513200	-0.895085
0.513300	-0.959028
0.513400	-1.026865
0.513500	-1.042121
0.513600	-1.028813
0.513700	-1.033357
0.513800	-1.059648
0.513900	-1.039849
0.514000	-0.987266
0.514100	-0.980450
0.514200	-0.970388
0.514300	-0.980126
0.514400	-0.987266
0.514500	-1.003496
0.514600	-1.026541
0.514700	-1.050235
0.514800	-1.050560
0.514900	-1.104116
0.515000	-1.126188
0.515100	-1.175849
0.515200	-1.213500
0.515300	-1.220641
0.515400	-1.249529
0.515500	-1.283610
0.515600	-1.394293
0.515700	-1.589367
0.515800	-1.705567
0.515900	-1.664994
0.516000	-1.523152
0.516100	-1.456937
0.516200	-1.591314
0.516300	-1.780221
0.516400	-1.948030
0.516500	-1.912651
0.516600	-1.823391
0.516700	-1.725691
0.516800	-1.783792
0.516900	-1.846761
0.517000	-1.935047
0.517100	-1.961663
0.517200	-1.897720
0.517300	-1.847410
0.517400	-1.817224
0.517500	-1.828584
0.517600	-1.800345
0.517700	-1.805863
0.517800	-1.787687
0.517900	-1.764966
0.518000	-1.778923
0.518100	-1.836699
0.518200	-1.781520
0.518300	-1.739324
0.518400	-1.733481
0.518500	-1.756851
0.518600	-1.759123
0.518700	-1.678302
0.518800	-1.520555
0.518900	-1.444278
0.519000	-1.478359
0.519100	-1.627018
0.519200	-1.684794
0.519300	-1.638703
0.519400	-1.498483
0.519500	-1.394293
0.519600	-1.396240
0.519700	-1.493290
0.519800	-1.608842
0.519900	-1.616307
0.520000	-1.535486
0.520100	-1.452068
0.520200	-1.422531
0.520300	-1.398188
0.520400	-1.388775
0.520500	-1.384555
0.520600	-1.367352
0.520700	-1.334569
0.520800	-1.260240
0.520900	-1.203763
0.521000	-1.123266
0.521100	-1.044393
0.521200	-1.004469
0.521300	-1.016479
0.521400	-1.037577
0.521500	-1.038226
0.521600	-0.973309
0.521700	-0.897033
0.521800	-0.865224
0.521900	-0.862951
0.522000	-0.830493
0.522100	-0.799983
0.522200	-0.768174
0.522300	-0.701310
0.522400	-0.629252
0.522500	-0.611076
0.522600	-0.604260
0.522700	-0.643209
0.522800	-0.645482
0.522900	-0.667878
0.523000	-0.687028
0.523100	-0.715916
0.523200	-0.704231
0.523300	-0.702608
0.523400	-0.712670
0.523500	-0.740584
0.523600	-0.761033
0.523700	-0.830818
0.523800	-0.803553
0.523900	-0.822054
0.524000	-0.614971
0.524100	-0.514675
0.524200	-0.545835
0.524300	-0.846722
0.524400	-0.863925
0.524500	-0.828870
0.524600	-0.718837
0.524700	-0.582837
0.524800	-0.556222
0.524900	-0.645482
0.525000	-0.749672
0.525100	-0.760059
0.525200	-0.671124
0.525300	-0.573100
0.525400	-0.541940
0.525500	-0.587381
0.525600	-0.645157
0.525700	-0.670474
0.525800	-0.642560
0.525900	-0.654570
0.526000	-0.663334
0.526100	-0.692221
0.526200	-0.720785
0.526300	-0.735066
0.526400	-0.800632
0.526500	-0.761033
0.526600	-0.863925
0.526700	-0.891839
0.526800	-0.905147
0.526900	-0.892164
0.527000	-0.867820
0.527100	-0.957080
0.527200	-1.125863
0.527300	-1.179094
0.527400	-1.086913
0.527500	-0.939228
0.527600	-0.927219
0.527700	-0.996679
0.527800	-1.174550
0.527900	-1.216097
0.528000	-1.151830
0.528100	-1.008364
0.528200	-0.920727
0.528300	-0.956756
0.528400	-1.052507
0.528500	-1.102818
0.528600	-1.092106
0.528700	-1.033357
0.528800	-0.978178
0.528900	-0.982722
0.529000	-0.942474
0.529100	-0.955457
0.529200	-0.931438
0.529300	-0.929491
0.529400	-0.932412
0.529500	-0.947343
0.529600	-0.944746
0.529700	-0.927543
0.529800	-0.904173
0.529900	-0.928192
0.530000	-1.009663
0.530100	-1.045367
0.530200	-1.041147
0.530300	-1.045367
0.530400	-1.072307
0.530500	-1.087887
0.530600	-1.020374
0.530700	-1.019400
0.530800	-1.012584
0.530900	-1.007390
0.531000	-1.010636
0.531100	-1.008364
0.531200	-1.000574
0.531300	-0.994732
0.531400	-1.024269
0.531500	-1.010961
0.531600	-1.034980
0.531700	-1.041147
0.531800	-1.078799
0.531900	-1.067763
0.532000	-1.067763
0.532100	-1.132355
0.532200	-1.158646
0.532300	-1.286856
0.532400	-1.444278
0.532500	-1.506923
0.532600	-1.380011
0.532700	-1.238168
0.532800	-1.244985
0.532900	-1.441032
0.533000	-1.625071
0.533100	-1.725042
0.533200	-1.635133
0.533300	-1.529319
0.533400	-1.504975
0.533500	-1.575410
0.533600	-1.684469
0.533700	-1.734780
0.533800	-1.751333
0.533900	-1.701672
0.534000	-1.646818
0.534100	-1.641624
0.534200	-1.677328
0.534300	-1.708488
0.534400	-1.716603
0.534500	-1.724718
0.534600	-1.717577
0.534700	-1.744517
0.534800	-1.778598
0.534900	-1.776651
0.535000	-1.787037
0.535100	-1.775677
0.535200	-1.787362
0.535300	-1.790608
0.535400	-1.701023
0.535500	-1.576059
0.535600	-1.563400
0.535700	-1.661099
0.535800	-1.807486
0.535900	-1.851954
0.536000	-1.770484
0.536100	-1.612087
0.536200	-1.524775
0.536300	-1.580278
0.536400	-1.744192
0.536500	-1.844164
0.536600	-1.838321
0.536700	-1.738999
0.536800	-1.653959
0.536900	-1.613386
0.537000	-1.658503
0.537100	-1.698751
0.537200	-1.693558
0.537300	-1.654608
0.537400	-1.600727
0.537500	-1.550092
0.537600	-1.493939
0.537700	-1.436488
0.537800	-1.366054
0.537900	-1.320288
0.538000	-1.317367
0.538100	-1.321586
0.538200	-1.285557
0.538300	-1.170980
0.538400	-1.106388
0.538500	-1.083667
0.538600	-1.083992
0.538700	-0.993433
0.538800	-0.954159
0.538900	-0.910990
0.539000	-0.855162
0.539100	-0.771419
0.539200	-0.759410
0.539300	-0.743830
0.539400	-0.771095
0.539500	-0.790894
0.539600	-0.801605
0.539700	-0.840231
0.539800	-0.809720
0.539900	-0.815887
0.540000	-0.803228
0.540100	-0.826923
0.540200	-0.869768
0.540300	-0.863601
0.540400	-0.903849
0.540500	-0.903200
0.540600	-0.786350
0.540700	-0.618866
0.540800	-0.536422
0.540900	-0.768498
0.541000	-0.855162
0.541100	-0.910990
0.541200	-0.777262
0.541300	-0.672097
0.541400	-0.567582
0.541500	-0.606207
0.541600	-0.690598
0.541700	-0.756164
0.541800	-0.722407
0.541900	-0.622436
0.542000	-0.552327
0.542100	-0.532202
0.542200	-0.540642
0.542300	-0.576346
0.542400	-0.587381
0.542500	-0.582188
0.542600	-0.562389
0.542700	-0.573749
0.542800	-0.562389
0.542900	-0.574398
0.543000	-0.606856
0.543100	-0.737663
0.543200	-0.712021
0.543300	-0.771744
0.543400	-0.779858
0.543500	-0.757787
0.543600	-0.780832
0.543700	-0.803228
0.543800	-0.983047
0.543900	-1.158970
0.544000	-1.147285
0.544100	-1.029137
0.544200	-0.908068
0.544300	-0.981424
0.544400	-1.108985
0.544500	-1.262512
0.544600	-1.267381
0.544700	-1.181691
0.544800	-1.076526
0.544900	-1.081395
0.545000	-1.200517
0.545100	-1.274846
0.545200	-1.261863
0.545300	-1.285557
0.545400	-1.235896
0.545500	-1.275820
0.545600	-1.275820
0.545700	-1.245958
0.545800	-1.216746
0.545900	-1.200192
0.546000	-1.229729
0.546100	-1.263161
0.546200	-1.262188
0.546300	-1.227133
0.546400	-1.226808
0.546500	-1.218044
0.546600	-1.299514
0.546700	-1.351448
0.546800	-1.362159
0.546900	-1.319314
0.547000	-1.307629
0.547100	-1.361510
0.547200	-1.338789
0.547300	-1.256345
0.547400	-1.249204
0.547500	-1.221290
0.547600	-1.220316
0.547700	-1.204087
0.547800	-1.183314
0.547900	-1.178121
0.548000	-1.147935
0.548100	-1.170331
0.548200	-1.152479
0.548300	-1.141118
0.548400	-1.127486
0.548500	-1.116126
0.548600	-1.149233
0.548700	-1.160269
0.548800	-1.190455
0.548900	-1.244985
0.549000	-1.377739
0.549100	-1.548469
0.549200	-1.458235
0.549300	-1.342359
0.549400	-1.223887
0.549500	-1.329051
0.549600	-1.562426
0.549700	-1.676679
0.549800	-1.707839
0.549900	-1.611438
0.550000	-1.509519
0.550100	-1.531915
0.550200	-1.615333
0.550300	-1.711734
0.550400	-1.736403
0.550500	-1.714655
0.550600	-1.690636
0.550700	-1.651362
0.550800	-1.669863
0.550900	-1.702321
0.551000	-1.723095
0.551100	-1.708488
0.551200	-1.699400
0.551300	-1.700049
0.551400	-1.729262
0.551500	-1.731534
0.551600	-1.734130
0.551700	-1.744842
0.551800	-1.749061
0.551900	-1.751333
0.552000	-1.725367
0.552100	-1.620851
0.552200	-1.504001
0.552300	-1.526073
0.552400	-1.669538
0.552500	-1.769185
0.552600	-1.767238
0.552700	-1.625071
0.552800	-1.492966
0.552900	-1.493939
0.553000	-1.605920
0.553100	-1.755877
0.553200	-1.778274
0.553300	-1.674083
0.553400	-1.542627
0.553500	-1.482254
0.553600	-1.479333
0.553700	-1.485176
0.553800	-1.484851
0.553900	-1.452393
0.554000	-1.401758
0.554100	-1.348851
0.554200	-1.279715
0.554300	-1.209281
0.554400	-1.125863
0.554500	-1.088211
0.554600	-1.096975
0.554700	-1.093080
0.554800	-1.095677
0.554900	-1.032708
0.555000	-0.936956
0.555100	-0.926894
0.555200	-0.920078
0.555300	-0.899629
0.555400	-0.834388
0.555500	-0.777911
0.555600	-0.718512
0.555700	-0.646131
0.555800	-0.606207
0.555900	-0.573749
0.556000	-0.604909
0.556100	-0.585759
0.556200	-0.604584
0.556300	-0.585434
0.556400	-0.615295
0.556500	-0.612374
0.556600	-0.612374
0.556700	-0.666255
0.556800	-0.673071
0.556900	-0.736689
0.557000	-0.749023
0.557100	-0.766551
0.557200	-0.786999
0.557300	-0.628279
0.557400	-0.536747
0.557500	-0.512728
0.557600	-0.819782
0.557700	-0.873987
0.557800	-0.916832
0.557900	-0.785376
0.558000	-0.628928
0.558100	-0.593224
0.558200	-0.667878
0.558300	-0.783429
0.558400	-0.797710
0.558500	-0.716565
0.558600	-0.626656
0.558700	-0.553625
0.558800	-0.601014
0.558900	-0.652298
0.559000	-0.704231
0.559100	-0.719811
0.559200	-0.707801
0.559300	-0.693844
0.559400	-0.703257
0.559500	-0.712345
0.559600	-0.753243
0.559700	-0.842827
0.559800	-0.861653
0.559900	-0.896708
0.560000	-0.932737
0.560100	-0.948641
0.560200	-0.900928
0.560300	-0.894761
0.560400	-0.976880
0.560500	-1.151830
0.560600	-1.228106
0.560700	-1.155075
0.560800	-0.998627
0.560900	-0.920402
0.561000	-0.982073
0.561100	-1.153777
0.561200	-1.214799
0.561300	-1.137223
0.561400	-0.963572
0.561500	-0.864899
0.561600	-0.881777
0.561700	-0.985319
0.561800	-1.033032
0.561900	-0.999276
0.562000	-0.988240
0.562100	-0.954808
0.562200	-0.990837
0.562300	-0.967467
0.562400	-0.943123
0.562500	-0.936307
0.562600	-0.973309
0.562700	-0.993758
0.562800	-1.026541
0.562900	-1.040498
0.563000	-1.036278
0.563100	-1.037577
0.563200	-1.072631
0.563300	-1.175199
0.563400	-1.208631
0.563500	-1.207333
0.563600	-1.202140
0.563700	-1.219667
0.563800	-1.280040
0.563900	-1.241739
0.564000	-1.226159
0.564100	-1.209281
0.564200	-1.181042
0.564300	-1.194350
0.564400	-1.173252
0.564500	-1.158321
0.564600	-1.159620
0.564700	-1.146312
0.564800	-1.168383
0.564900	-1.122942
0.565000	-1.133653
0.565100	-1.108660
0.565200	-1.135276
0.565300	-1.109958
0.565400	-1.131705
0.565500	-1.129433
0.565600	-1.220966
0.565700	-1.377414
0.565800	-1.407600
0.565900	-1.341061
0.566000	-1.182016
0.566100	-1.136250
0.566200	-1.260565
0.566300	-1.478684
0.566400	-1.523476
0.566500	-1.507896
0.566600	-1.339763
0.566700	-1.306006
0.566800	-1.359887
0.566900	-1.447849
0.567000	-1.535161
0.567100	-1.534512
0.567200	-1.508546
0.567300	-1.447199
0.567400	-1.435839
0.567500	-1.454340
0.567600	-1.494264
0.567700	-1.504001
0.567800	-1.544574
0.567900	-1.547820
0.568000	-1.554636
0.568100	-1.584173
0.568200	-1.610789
0.568300	-1.629615
0.568400	-1.619877
0.568500	-1.643572
0.568600	-1.664994
0.568700	-1.624746
0.568800	-1.514063
0.568900	-1.476736
0.569000	-1.520555
0.569100	-1.670188
0.569200	-1.750360
0.569300	-1.710436
0.569400	-1.549768
0.569500	-1.427075
0.569600	-1.483228
0.569700	-1.649090
0.569800	-1.742570
0.569900	-1.734780
0.570000	-1.620527
0.570100	-1.528670
0.570200	-1.500106
0.570300	-1.513090
0.570400	-1.516985
0.570500	-1.500756
0.570600	-1.475763
0.570700	-1.435514
0.570800	-1.368326
0.570900	-1.308278
0.571000	-1.236870
0.571100	-1.186235
0.571200	-1.141768
0.571300	-1.153777
0.571400	-1.140145
0.571500	-1.132355
0.571600	-1.034980
0.571700	-0.958379
0.571800	-0.955782
0.571900	-0.951238
0.572000	-0.878856
0.572100	-0.862627
0.572200	-0.827572
0.572300	-0.792517
0.572400	-0.724030
0.572500	-0.692221
0.572600	-0.718512
0.572700	-0.755515
0.572800	-0.811992
0.572900	-0.802255
0.573000	-0.874961
0.573100	-0.859706
0.573200	-0.910990
0.573300	-0.889567
0.573400	-0.912288
0.573500	-0.906445
0.573600	-0.974932
0.573700	-1.025243
0.573800	-1.016154
0.573900	-0.941825
0.574000	-0.786350
0.574100	-0.656517
0.574200	-0.795763
0.574300	-0.993109
0.574400	-1.072956
0.574500	-0.924622
0.574600	-0.826274
0.574700	-0.695143
0.574800	-0.703582
0.574900	-0.787324
0.575000	-0.857758
0.575100	-0.859056
0.575200	-0.741233
0.575300	-0.631849
0.575400	-0.611076
0.575500	-0.640288
0.575600	-0.672746
0.575700	-0.686379
0.575800	-0.700985
0.575900	-0.695143
0.576000	-0.708775
0.576100	-0.744154
0.576200	-0.716240
0.576300	-0.725329
0.576400	-0.775314
0.576500	-0.836011
0.576600	-0.834388
0.576700	-0.867171
0.576800	-0.828870
0.576900	-0.824326
0.577000	-0.787324
0.577100	-0.880479
0.577200	-1.076202
0.577300	-1.067114
0.577400	-0.976880
0.577500	-0.812641
0.577600	-0.798360
0.577700	-0.908068
0.577800	-1.103791
0.577900	-1.107037
0.578000	-0.996355
0.578100	-0.844126
0.578200	-0.812317
0.578300	-0.908718
0.578400	-1.000574
0.578500	-0.989214
0.578600	-0.972660
0.578700	-0.927219
0.578800	-0.940851
0.578900	-0.957405
0.579000	-0.935982
0.579100	-0.924947
0.579200	-0.919429
0.579300	-0.949615
0.579400	-0.962274
0.579500	-0.963896
0.579600	-0.961624
0.579700	-0.959677
0.579800	-0.935658
0.579900	-0.984021
0.580000	-1.071009
0.580100	-1.103467
0.580200	-1.094703
0.580300	-1.076526
0.580400	-1.112880
0.580500	-1.124889
0.580600	-1.070684
0.580700	-1.071333
0.580800	-1.081071
0.580900	-1.064192
0.581000	-1.080097
0.581100	-1.083018
0.581200	-1.104765
0.581300	-1.107686
0.581400	-1.125863
0.581500	-1.152803
0.581600	-1.152154
0.581700	-1.195324
0.581800	-1.193376
0.581900	-1.200841
0.582000	-1.197596
0.582100	-1.265109
0.582200	-1.276469
0.582300	-1.421233
0.582400	-1.573137
0.582500	-1.576708
0.582600	-1.456288
0.582700	-1.311849
0.582800	-1.347228
0.582900	-1.534837
0.583000	-1.712383
0.583100	-1.776326
0.583200	-1.669538
0.583300	-1.532240
0.583400	-1.511467
0.583500	-1.588068
0.583600	-1.760097
0.583700	-1.790283
0.583800	-1.784116
0.583900	-1.692584
0.584000	-1.674732
0.584100	-1.652011
0.584200	-1.665968
0.584300	-1.700698
0.584400	-1.688040
0.584500	-1.685768
0.584600	-1.700698
0.584700	-1.724718
0.584800	-1.746140
0.584900	-1.767887
0.585000	-1.759448
0.585100	-1.776002
0.585200	-1.802617
0.585300	-1.800021
0.585400	-1.716928
0.585500	-1.616956
0.585600	-1.626694
0.585700	-1.752307
0.585800	-1.907458
0.585900	-1.964909
0.586000	-1.861367
0.586100	-1.704593
0.586200	-1.678302
0.586300	-1.794827
0.586400	-1.971725
0.586500	-2.065530
0.586600	-2.007429
0.586700	-1.921739
0.586800	-1.868508
0.586900	-1.887658
0.587000	-1.913625
0.587100	-1.965883
0.587200	-1.973348
0.587300	-1.955171
0.587400	-1.919143
0.587500	-1.851954
0.587600	-1.809434
0.587700	-1.746465
0.587800	-1.720173
0.587900	-1.703620
0.588000	-1.697777
0.588100	-1.711410
0.588200	-1.666617
0.588300	-1.558531
0.588400	-1.512765
0.588500	-1.481605
0.588600	-1.467324
0.588700	-1.379037
0.588800	-1.328402
0.588900	-1.271276
0.589000	-1.204412
0.589100	-1.124240
0.589200	-1.076202
0.589300	-1.109958
0.589400	-1.118073
0.589500	-1.097300
0.589600	-1.113529
0.589700	-1.124565
0.589800	-1.096651
0.589900	-1.101195
0.590000	-1.077176
0.590100	-1.106713
0.590200	-1.100546
0.590300	-1.116126
0.590400	-1.076851
0.590500	-1.061596
0.590600	-0.872364
0.590700	-0.773042
0.590800	-0.654245
0.590900	-0.891190
0.591000	-0.986942
0.591100	-1.008040
0.591200	-0.843477
0.591300	-0.691248
0.591400	-0.560441
0.591500	-0.560441
0.591600	-0.666904
0.591700	-0.705529
0.591800	-0.635744
0.591900	-0.502666
0.592000	-0.390360
0.592100	-0.366017
0.592200	-0.400098
0.592300	-0.425090
0.592400	-0.412756
0.592500	-0.399773
0.592600	-0.380623
0.592700	-0.353683
0.592800	-0.346866
0.592900	-0.339076
0.593000	-0.366666
0.593100	-0.397176
0.593200	-0.434828
0.593300	-0.475076
0.593400	-0.481892
0.593500	-0.443267
0.593600	-0.409186
0.593700	-0.402694
0.593800	-0.553625
0.593900	-0.676966
0.594000	-0.647104
0.594100	-0.527009
0.594200	-0.400747
0.594300	-0.456575
0.594400	-0.596794
0.594500	-0.719811
0.594600	-0.711047
0.594700	-0.597119
0.594800	-0.509157
0.594900	-0.503315
0.595000	-0.590303
0.595100	-0.662684
0.595200	-0.638016
0.595300	-0.669825
0.595400	-0.637042
0.595500	-0.655219
0.595600	-0.617243
0.595700	-0.606856
0.595800	-0.601988
0.595900	-0.608479
0.596000	-0.630226
0.596100	-0.668527
0.596200	-0.656517
0.596300	-0.640613
0.596400	-0.631525
0.596500	-0.637692
0.596600	-0.734742
0.596700	-0.787324
0.596800	-0.811018
0.596900	-0.788298
0.597000	-0.799983
0.597100	-0.872040
0.597200	-0.842503
0.597300	-0.822379
0.597400	-0.811018
0.597500	-0.824326
0.597600	-0.827572
0.597700	-0.836336
0.597800	-0.831142
0.597900	-0.845424
