LabVIEW Measurement	
Writer_Version	2
Reader_Version	2
Separator	Tab
Decimal_Separator	.
Multi_Headings	Yes
X_Columns	One
Time_Pref	Relative
Operator	as989
Description	Time Domain Data
Date	1903/12/31
Time	19:00:00
***End_of_Header***	
	
Channels	1	
Samples	15000	
Date	1903/12/31	
Time	19:00:00	
X_Dimension	Time	
X0	0.0000000000000000E+0	
Delta_X	0.000100	
***End_of_Header***		
X_Value	Untitled	Comment
0.000000	-0.938579	Tare Values:0.000000, 0.000000, 0.000000, 0.000000\0D\0A
0.000100	-0.688326
0.000200	-0.499744
0.000300	-0.204375
0.000400	-0.204699
0.000500	-0.140432
0.000600	-0.059611
0.000700	0.111118
0.000800	0.209467
0.000900	0.373705
0.001000	0.419796
0.001100	0.420769
0.001200	0.410058
0.001300	0.398698
0.001400	0.392855
0.001500	0.363968
0.001600	0.395777
0.001700	0.389609
0.001800	0.420445
0.001900	0.329237
0.002000	0.309113
0.002100	0.187720
0.002200	0.213686
0.002300	0.196808
0.002400	0.628502
0.002500	0.774888
0.002600	0.862525
0.002700	0.357151
0.002800	0.029648
0.002900	0.085801
0.003000	0.394803
0.003100	0.678162
0.003200	0.731069
0.003300	0.591499
0.003400	0.311385
0.003500	0.240951
0.003600	0.419796
0.003700	0.647976
0.003800	0.800530
0.003900	0.766773
0.004000	0.697313
0.004100	0.669399
0.004200	0.657389
0.004300	0.783976
0.004400	0.788520
0.004500	0.788196
0.004600	0.763203
0.004700	0.795661
0.004800	0.776511
0.004900	0.724578
0.005000	0.664205
0.005100	0.595070
0.005200	0.568454
0.005300	0.665179
0.005400	0.707050
0.005500	0.738859
0.005600	0.367213
0.005700	0.181877
0.005800	0.250364
0.005900	0.529504
0.006000	0.745026
0.006100	0.648301
0.006200	0.359423
0.006300	0.053992
0.006400	0.116636
0.006500	0.340598
0.006600	0.610000
0.006700	0.542163
0.006800	0.356178
0.006900	0.177333
0.007000	0.209142
0.007100	0.207844
0.007200	0.310087
0.007300	0.241925
0.007400	0.127672
0.007500	0.005305
0.007600	-0.006056
0.007700	0.008875
0.007800	-0.030399
0.007900	-0.089473
0.008000	-0.119984
0.008100	-0.107650
0.008200	-0.111220
0.008300	-0.093368
0.008400	-0.278055
0.008500	-0.420222
0.008600	-0.486436
0.008700	-0.507210
0.008800	-0.386465
0.008900	-0.478971
0.009000	-0.500069
0.009100	-0.527983
0.009200	-0.557520
0.009300	-0.591926
0.009400	-0.616594
0.009500	-0.624059
0.009600	-0.686703
0.009700	-0.679238
0.009800	-0.703257
0.009900	-0.749672
0.010000	-0.777262
0.010100	-0.816861
0.010200	-0.860355
0.010300	-0.911963
0.010400	-0.978503
0.010500	-1.049262
0.010600	-1.198245
0.010700	-1.378713
0.010800	-1.765290
0.010900	-1.962312
0.011000	-1.800994
0.011100	-1.551066
0.011200	-1.414092
0.011300	-1.711734
0.011400	-2.133692
0.011500	-2.430361
0.011600	-2.408289
0.011700	-2.187897
0.011800	-2.067152
0.011900	-2.110647
0.012000	-2.341750
0.012100	-2.554027
0.012200	-2.676720
0.012300	-2.605312
0.012400	-2.476776
0.012500	-2.429712
0.012600	-2.513454
0.012700	-2.592653
0.012800	-2.620892
0.012900	-2.584863
0.013000	-2.538447
0.013100	-2.603040
0.013200	-2.678992
0.013300	-2.716319
0.013400	-2.628682
0.013500	-2.592977
0.013600	-2.642963
0.013700	-2.673474
0.013800	-2.686782
0.013900	-2.473531
0.014000	-2.277158
0.014100	-2.388165
0.014200	-2.664386
0.014300	-2.918210
0.014400	-2.911070
0.014500	-2.637121
0.014600	-2.337206
0.014700	-2.314485
0.014800	-2.539097
0.014900	-2.855241
0.015000	-2.938010
0.015100	-2.815317
0.015200	-2.575450
0.015300	-2.439774
0.015400	-2.448862
0.015500	-2.544614
0.015600	-2.616672
0.015700	-2.579020
0.015800	-2.511182
0.015900	-2.394332
0.016000	-2.320976
0.016100	-2.276833
0.016200	-2.121682
0.016300	-2.016842
0.016400	-1.954847
0.016500	-1.902264
0.016600	-1.894150
0.016700	-1.770159
0.016800	-1.550741
0.016900	-1.292698
0.017000	-1.107686
0.017100	-1.142417
0.017200	-1.123915
0.017300	-1.034655
0.017400	-0.912937
0.017500	-0.775314
0.017600	-0.605233
0.017700	-0.530904
0.017800	-0.505911
0.017900	-0.512403
0.018000	-0.501043
0.018100	-0.506561
0.018200	-0.473129
0.018300	-0.336804
0.018400	-0.330962
0.018500	-0.249167
0.018600	-0.341998
0.018700	-0.287792
0.018800	-0.388737
0.018900	-0.267668
0.019000	-0.209244
0.019100	0.234784
0.019200	0.459395
0.019300	0.507433
0.019400	0.037114
0.019500	-0.103430
0.019600	-0.032996
0.019700	0.343194
0.019800	0.592798
0.019900	0.683680
0.020000	0.549304
0.020100	0.419146
0.020200	0.367863
0.020300	0.534373
0.020400	0.713866
0.020500	0.849542
0.020600	0.775537
0.020700	0.823900
0.020800	0.699260
0.020900	0.652521
0.021000	0.723604
0.021100	0.716139
0.021200	0.750544
0.021300	0.733341
0.021400	0.684330
0.021500	0.541514
0.021600	0.520740
0.021700	0.350660
0.021800	0.325991
0.021900	0.276980
0.022000	0.341896
0.022100	0.369810
0.022200	0.226345
0.022300	-0.124203
0.022400	-0.273511
0.022500	-0.162828
0.022600	0.076388
0.022700	0.214660
0.022800	0.052045
0.022900	-0.277406
0.023000	-0.503315
0.023100	-0.461444
0.023200	-0.232614
0.023300	-0.067077
0.023400	-0.147249
0.023500	-0.360174
0.023600	-0.497148
0.023700	-0.423468
0.023800	-0.457873
0.023900	-0.414379
0.024000	-0.523763
0.024100	-0.595496
0.024200	-0.578942
0.024300	-0.561415
0.024400	-0.555897
0.024500	-0.615945
0.024600	-0.691248
0.024700	-0.683458
0.024800	-0.629902
0.024900	-0.609128
0.025000	-0.628928
0.025100	-0.840231
0.025200	-0.942474
0.025300	-0.940851
0.025400	-0.929815
0.025500	-0.838608
0.025600	-0.903524
0.025700	-0.892488
0.025800	-0.876259
0.025900	-0.853539
0.026000	-0.835687
0.026100	-0.852565
0.026200	-0.850942
0.026300	-0.866197
0.026400	-0.870092
0.026500	-0.848021
0.026600	-0.867496
0.026700	-0.852889
0.026800	-0.919104
0.026900	-0.871391
0.027000	-0.932087
0.027100	-0.966493
0.027200	-0.991486
0.027300	-1.067763
0.027400	-1.258617
0.027500	-1.645195
0.027600	-1.758474
0.027700	-1.525748
0.027800	-1.231352
0.027900	-1.191104
0.028000	-1.468297
0.028100	-1.923362
0.028200	-2.124928
0.028300	-2.061635
0.028400	-1.806512
0.028500	-1.704918
0.028600	-1.819820
0.028700	-2.069749
0.028800	-2.289167
0.028900	-2.316757
0.029000	-2.259955
0.029100	-2.283325
0.029200	-2.325196
0.029300	-2.390762
0.029400	-2.396604
0.029500	-2.387516
0.029600	-2.430361
0.029700	-2.493006
0.029800	-2.542342
0.029900	-2.583889
0.030000	-2.594276
0.030100	-2.586486
0.030200	-2.615698
0.030300	-2.711450
0.030400	-2.747804
0.030500	-2.699765
0.030600	-2.479698
0.030700	-2.328117
0.030800	-2.474180
0.030900	-2.777016
0.031000	-3.001304
0.031100	-2.989944
0.031200	-2.686133
0.031300	-2.446590
0.031400	-2.477750
0.031500	-2.802983
0.031600	-3.022077
0.031700	-3.029867
0.031800	-2.873093
0.031900	-2.657245
0.032000	-2.559221
0.032100	-2.598495
0.032200	-2.671851
0.032300	-2.667307
0.032400	-2.596872
0.032500	-2.491383
0.032600	-2.366418
0.032700	-2.265797
0.032800	-2.153492
0.032900	-1.917520
0.033000	-1.754255
0.033100	-1.702321
0.033200	-1.638379
0.033300	-1.589367
0.033400	-1.386503
0.033500	-1.133328
0.033600	-0.899629
0.033700	-0.701959
0.033800	-0.716890
0.033900	-0.630226
0.034000	-0.483840
0.034100	-0.335831
0.034200	-0.196910
0.034300	-0.014495
0.034400	0.033219
0.034500	0.107873
0.034600	0.090670
0.034700	0.147147
0.034800	0.115663
0.034900	0.181877
0.035000	0.271462
0.035100	0.304894
0.035200	0.355204
0.035300	0.327614
0.035400	0.285743
0.035500	0.197133
0.035600	0.318202
0.035700	0.437648
0.035800	0.844348
0.035900	1.018324
0.036000	0.991384
0.036100	0.412979
0.036200	0.337352
0.036300	0.488607
0.036400	0.805723
0.036500	1.040396
0.036600	1.082591
0.036700	0.789169
0.036800	0.639862
0.036900	0.585657
0.037000	0.871938
0.037100	1.089732
0.037200	1.131278
0.037300	1.105961
0.037400	0.976778
0.037500	0.842725
0.037600	0.877780
0.037700	0.908291
0.037800	0.919327
0.037900	0.885895
0.038000	0.878105
0.038100	0.804425
0.038200	0.737886
0.038300	0.551576
0.038400	0.515872
0.038500	0.467509
0.038600	0.424989
0.038700	0.565208
0.038800	0.505485
0.038900	0.464912
0.039000	0.060484
0.039100	0.021859
0.039200	0.066326
0.039300	0.312034
0.039400	0.393180
0.039500	0.218230
0.039600	-0.180356
0.039700	-0.343296
0.039800	-0.302723
0.039900	-0.087201
0.040000	0.007902
0.040100	-0.132967
0.040200	-0.341673
0.040300	-0.470532
0.040400	-0.515973
0.040500	-0.531553
0.040600	-0.534150
0.040700	-0.639315
0.040800	-0.740584
0.040900	-0.801605
0.041000	-0.786675
0.041100	-0.859381
0.041200	-0.949290
0.041300	-1.034006
0.041400	-1.029787
0.041500	-0.994083
0.041600	-0.990188
0.041700	-1.094703
0.041800	-1.308603
0.041900	-1.363457
0.042000	-1.357615
0.042100	-1.358264
0.042200	-1.263486
0.042300	-1.309252
0.042400	-1.281013
0.042500	-1.255371
0.042600	-1.245634
0.042700	-1.228756
0.042800	-1.207333
0.042900	-1.210579
0.043000	-1.184937
0.043100	-1.152803
0.043200	-1.125863
0.043300	-1.075553
0.043400	-1.051534
0.043500	-0.973309
0.043600	-0.952536
0.043700	-0.878207
0.043800	-0.914235
0.043900	-0.868469
0.044000	-0.905147
0.044100	-1.150531
0.044200	-1.459858
0.044300	-1.526073
0.044400	-1.222264
0.044500	-0.885672
0.044600	-0.982398
0.044700	-1.258617
0.044800	-1.696479
0.044900	-1.816899
0.045000	-1.717901
0.045100	-1.454665
0.045200	-1.422207
0.045300	-1.606569
0.045400	-1.892851
0.045500	-2.028527
0.045600	-2.048651
0.045700	-2.026580
0.045800	-2.000613
0.045900	-2.045405
0.046000	-2.080136
0.046100	-2.118437
0.046200	-2.128499
0.046300	-2.136613
0.046400	-2.199582
0.046500	-2.242427
0.046600	-2.293062
0.046700	-2.223601
0.046800	-2.226198
0.046900	-2.249244
0.047000	-2.299879
0.047100	-2.346619
0.047200	-2.231067
0.047300	-1.989577
0.047400	-1.864613
0.047500	-2.016842
0.047600	-2.285597
0.047700	-2.457951
0.047800	-2.351163
0.047900	-2.056117
0.048000	-1.879544
0.048100	-1.930178
0.048200	-2.177511
0.048300	-2.404070
0.048400	-2.422246
0.048500	-2.249893
0.048600	-2.106427
0.048700	-2.060336
0.048800	-2.082083
0.048900	-2.110322
0.049000	-2.071372
0.049100	-2.045405
0.049200	-1.998665
0.049300	-1.923038
0.049400	-1.832479
0.049500	-1.677653
0.049600	-1.492966
0.049700	-1.404030
0.049800	-1.364756
0.049900	-1.326130
0.050000	-1.288479
0.050100	-1.033032
0.050200	-0.848345
0.050300	-0.564336
0.050400	-0.471830
0.050500	-0.488059
0.050600	-0.405940
0.050700	-0.304346
0.050800	-0.185225
0.050900	-0.039487
0.051000	0.068923
0.051100	0.108846
0.051200	0.140331
0.051300	0.138708
0.051400	0.152340
0.051500	0.128970
0.051600	0.144226
0.051700	0.211090
0.051800	0.251338
0.051900	0.227319
0.052000	0.297104
0.052100	0.145849
0.052200	0.203624
0.052300	0.124102
0.052400	0.455500
0.052500	0.691470
0.052600	0.918677
0.052700	0.646029
0.052800	0.171815
0.052900	0.208818
0.053000	0.431481
0.053100	0.750544
0.053200	0.959899
0.053300	0.869666
0.053400	0.618115
0.053500	0.539566
0.053600	0.651547
0.053700	0.827470
0.053800	1.045264
0.053900	1.019947
0.054000	0.986515
0.054100	0.992357
0.054200	0.973856
0.054300	1.017999
0.054400	1.028386
0.054500	1.049484
0.054600	1.035202
0.054700	1.053379
0.054800	1.002744
0.054900	1.012157
0.055000	0.822926
0.055100	0.767098
0.055200	0.686926
0.055300	0.792091
0.055400	0.794363
0.055500	0.795661
0.055600	0.580788
0.055700	0.224073
0.055800	0.243223
0.055900	0.330211
0.056000	0.644406
0.056100	0.589876
0.056200	0.336054
0.056300	-0.012223
0.056400	-0.119659
0.056500	0.018613
0.056600	0.222125
0.056700	0.246144
0.056800	0.037114
0.056900	-0.186523
0.057000	-0.209568
0.057100	-0.256957
0.057200	-0.239754
0.057300	-0.299802
0.057400	-0.411458
0.057500	-0.488059
0.057600	-0.475725
0.057700	-0.464040
0.057800	-0.540966
0.057900	-0.664632
0.058000	-0.716890
0.058100	-0.722732
0.058200	-0.702283
0.058300	-0.701634
0.058400	-0.819457
0.058500	-1.015180
0.058600	-1.073281
0.058700	-1.080746
0.058800	-1.092756
0.058900	-1.021348
0.059000	-1.031410
0.059100	-1.010636
0.059200	-1.014856
0.059300	-1.012908
0.059400	-1.018426
0.059500	-0.997978
0.059600	-1.002846
0.059700	-1.002846
0.059800	-0.978503
0.059900	-0.972660
0.060000	-0.939228
0.060100	-0.955457
0.060200	-0.921701
0.060300	-0.913262
0.060400	-0.883076
0.060500	-0.933386
0.060600	-0.857434
0.060700	-1.003496
0.060800	-1.267381
0.060900	-1.578655
0.061000	-1.470569
0.061100	-1.131381
0.061200	-0.877558
0.061300	-0.875610
0.061400	-1.317367
0.061500	-1.607219
0.061600	-1.697777
0.061700	-1.501080
0.061800	-1.280689
0.061900	-1.251476
0.062000	-1.398188
0.062100	-1.695505
0.062200	-1.758474
0.062300	-1.728613
0.062400	-1.651686
0.062500	-1.647142
0.062600	-1.733806
0.062700	-1.836049
0.062800	-1.886035
0.062900	-1.886360
0.063000	-1.875324
0.063100	-1.961338
0.063200	-2.077215
0.063300	-2.113243
0.063400	-2.113568
0.063500	-2.083057
0.063600	-2.094093
0.063700	-2.194389
0.063800	-2.242103
0.063900	-2.085978
0.064000	-1.908107
0.064100	-1.873701
0.064200	-2.108374
0.064300	-2.418676
0.064400	-2.584863
0.064500	-2.378428
0.064600	-2.088575
0.064700	-1.955171
0.064800	-2.128823
0.064900	-2.457301
0.065000	-2.692949
0.065100	-2.688405
0.065200	-2.449511
0.065300	-2.287869
0.065400	-2.283000
0.065500	-2.376156
0.065600	-2.449511
0.065700	-2.401149
0.065800	-2.316108
0.065900	-2.202504
0.066000	-2.111620
0.066100	-2.048327
0.066200	-1.873052
0.066300	-1.723419
0.066400	-1.619553
0.066500	-1.570216
0.066600	-1.492966
0.066700	-1.412794
0.066800	-1.163190
0.066900	-1.034655
0.067000	-0.701310
0.067100	-0.683133
0.067200	-0.661061
0.067300	-0.566284
0.067400	-0.447811
0.067500	-0.328365
0.067600	-0.101158
0.067700	-0.030075
0.067800	0.031596
0.067900	0.035491
0.068000	0.064379
0.068100	0.124751
0.068200	0.150393
0.068300	0.279576
0.068400	0.354879
0.068500	0.401294
0.068600	0.425313
0.068700	0.368187
0.068800	0.438621
0.068900	0.362669
0.069000	0.545084
0.069100	0.766124
0.069200	1.238715
0.069300	1.217293
0.069400	1.055326
0.069500	0.620062
0.069600	0.715489
0.069700	0.944969
0.069800	1.224758
0.069900	1.423402
0.070000	1.289674
0.070100	1.034878
0.070200	0.970286
0.070300	1.085188
0.070400	1.334791
0.070500	1.414314
0.070600	1.487344
0.070700	1.377311
0.070800	1.327326
0.070900	1.316939
0.071000	1.324404
0.071100	1.351020
0.071200	1.322457
0.071300	1.263059
0.071400	1.231250
0.071500	1.172176
0.071600	0.918677
0.071700	0.878754
0.071800	0.745351
0.071900	0.691795
0.072000	0.711594
0.072100	0.684330
0.072200	0.669399
0.072300	0.338001
0.072400	0.037763
0.072500	0.020236
0.072600	0.120856
0.072700	0.364941
0.072800	0.280225
0.072900	-0.033645
0.073000	-0.381597
0.073100	-0.457549
0.073200	-0.352060
0.073300	-0.148222
0.073400	-0.197559
0.073500	-0.404966
0.073600	-0.656842
0.073700	-0.726302
0.073800	-0.825300
0.073900	-0.767524
0.074000	-0.849644
0.074100	-0.919104
0.074200	-1.043419
0.074300	-1.111581
0.074400	-1.124889
0.074500	-1.172603
0.074600	-1.264460
0.074700	-1.302436
0.074800	-1.288154
0.074900	-1.269653
0.075000	-1.258617
0.075100	-1.413118
0.075200	-1.544899
0.075300	-1.542951
0.075400	-1.524450
0.075500	-1.523152
0.075600	-1.446550
0.075700	-1.420584
0.075800	-1.384230
0.075900	-1.357939
0.076000	-1.326455
0.076100	-1.279715
0.076200	-1.261538
0.076300	-1.234273
0.076400	-1.219018
0.076500	-1.188507
0.076600	-1.183963
0.076700	-1.166436
0.076800	-1.153777
0.076900	-1.141118
0.077000	-1.122617
0.077100	-1.159620
0.077200	-1.128135
0.077300	-1.232001
0.077400	-1.303734
0.077500	-1.668240
0.077600	-1.876622
0.077700	-1.694531
0.077800	-1.386503
0.077900	-1.171304
0.078000	-1.343658
0.078100	-1.703295
0.078200	-1.992498
0.078300	-1.942513
0.078400	-1.721472
0.078500	-1.530942
0.078600	-1.572488
0.078700	-1.798398
0.078800	-1.995744
0.078900	-2.102532
0.079000	-2.081759
0.079100	-2.015544
0.079200	-2.011000
0.079300	-2.066179
0.079400	-2.109024
0.079500	-2.150246
0.079600	-2.166150
0.079700	-2.198933
0.079800	-2.312537
0.079900	-2.371287
0.080000	-2.326819
0.080100	-2.343373
0.080200	-2.308318
0.080300	-2.360900
0.080400	-2.399850
0.080500	-2.390113
0.080600	-2.192766
0.080700	-2.008403
0.080800	-2.122981
0.080900	-2.321301
0.081000	-2.583240
0.081100	-2.634200
0.081200	-2.392060
0.081300	-2.148298
0.081400	-2.087926
0.081500	-2.288518
0.081600	-2.580643
0.081700	-2.720863
0.081800	-2.640367
0.081900	-2.457626
0.082000	-2.358304
0.082100	-2.366418
0.082200	-2.412184
0.082300	-2.448538
0.082400	-2.416729
0.082500	-2.394981
0.082600	-2.319029
0.082700	-2.234637
0.082800	-2.110971
0.082900	-1.922713
0.083000	-1.769510
0.083100	-1.689663
0.083200	-1.664345
0.083300	-1.634159
0.083400	-1.484202
0.083500	-1.184612
0.083600	-1.041472
0.083700	-0.725978
0.083800	-0.724030
0.083900	-0.648403
0.084000	-0.533825
0.084100	-0.366990
0.084200	-0.248518
0.084300	-0.054418
0.084400	0.004007
0.084500	0.096512
0.084600	0.079634
0.084700	0.128646
0.084800	0.148770
0.084900	0.195510
0.085000	0.280875
0.085100	0.340922
0.085200	0.443165
0.085300	0.415576
0.085400	0.443815
0.085500	0.324369
0.085600	0.395777
0.085700	0.453227
0.085800	0.898553
0.085900	1.151402
0.086000	1.274419
0.086100	0.824549
0.086200	0.637265
0.086300	0.620387
0.086400	1.009560
0.086500	1.322782
0.086600	1.449368
0.086700	1.193598
0.086800	1.011183
0.086900	0.901475
0.087000	1.118620
0.087100	1.329273
0.087200	1.421130
0.087300	1.383154
0.087400	1.249426
0.087500	1.265655
0.087600	1.249426
0.087700	1.282858
0.087800	1.266629
0.087900	1.222161
0.088000	1.202686
0.088100	1.182562
0.088200	1.143612
0.088300	0.912510
0.088400	0.897255
0.088500	0.703480
0.088600	0.691470
0.088700	0.678812
0.088800	0.642783
0.088900	0.518144
0.089000	0.164025
0.089100	-0.056041
0.089200	-0.071296
0.089300	0.089696
0.089400	0.213037
0.089500	0.031596
0.089600	-0.351086
0.089700	-0.671448
0.089800	-0.696766
0.089900	-0.512078
0.090000	-0.354656
0.090100	-0.448136
0.090200	-0.679238
0.090300	-0.866846
0.090400	-0.852565
0.090500	-0.870092
0.090600	-0.757138
0.090700	-0.836660
0.090800	-0.901252
0.090900	-0.974608
0.091000	-0.972336
0.091100	-0.929815
0.091200	-0.917157
0.091300	-0.880479
0.091400	-0.803228
0.091500	-0.769147
0.091600	-0.719811
0.091700	-0.700660
0.091800	-0.881128
0.091900	-0.955133
0.092000	-0.925920
0.092100	-0.883400
0.092200	-0.841204
0.092300	-0.774016
0.092400	-0.697739
0.092500	-0.649701
0.092600	-0.587381
0.092700	-0.561090
0.092800	-0.508508
0.092900	-0.467611
0.093000	-0.426713
0.093100	-0.372184
0.093200	-0.319926
0.093300	-0.256633
0.093400	-0.207621
0.093500	-0.125177
0.093600	-0.073893
0.093700	-0.039487
0.093800	-0.017740
0.093900	-0.041759
0.094000	0.040035
0.094100	-0.098561
0.094200	-0.377052
0.094300	-0.570179
0.094400	-0.239754
0.094500	0.058536
0.094600	0.254908
0.094700	0.018937
0.094800	-0.391659
0.094900	-0.569205
0.095000	-0.492928
0.095100	-0.225473
0.095200	-0.056041
0.095300	-0.171917
0.095400	-0.440021
0.095500	-0.653272
0.095600	-0.689300
0.095700	-0.618866
0.095800	-0.563038
0.095900	-0.617892
0.096000	-0.712021
0.096100	-0.782131
0.096200	-0.834713
0.096300	-0.865224
0.096400	-0.910990
0.096500	-0.990512
0.096600	-1.097300
0.096700	-1.100870
0.096800	-1.134627
0.096900	-1.137548
0.097000	-1.261538
0.097100	-1.351772
0.097200	-1.346903
0.097300	-1.221615
0.097400	-1.061271
0.097500	-1.305357
0.097600	-1.586121
0.097700	-1.911677
0.097800	-1.961663
0.097900	-1.762045
0.098000	-1.553013
0.098100	-1.568269
0.098200	-1.914274
0.098300	-2.308642
0.098400	-2.484242
0.098500	-2.375831
0.098600	-2.217759
0.098700	-2.150570
0.098800	-2.231716
0.098900	-2.337530
0.099000	-2.437177
0.099100	-2.459898
0.099200	-2.446915
0.099300	-2.406017
0.099400	-2.355707
0.099500	-2.283000
0.099600	-2.140508
0.099700	-2.067802
0.099800	-2.088900
0.099900	-2.040861
0.100000	-2.080785
0.100100	-1.962637
0.100200	-1.740947
0.100300	-1.663047
0.100400	-1.383906
0.100500	-1.447849
0.100600	-1.397538
0.100700	-1.300813
0.100800	-1.184937
0.100900	-1.069386
0.101000	-0.900278
0.101100	-0.818159
0.101200	-0.810045
0.101300	-0.835687
0.101400	-0.822379
0.101500	-0.820431
0.101600	-0.791219
0.101700	-0.679887
0.101800	-0.670799
0.101900	-0.594847
0.102000	-0.690598
0.102100	-0.641262
0.102200	-0.783104
0.102300	-0.650999
0.102400	-0.571801
0.102500	-0.118036
0.102600	0.110469
0.102700	0.131892
0.102800	-0.384842
0.102900	-0.621787
0.103000	-0.433205
0.103100	-0.092719
0.103200	0.190316
0.103300	0.192588
0.103400	-0.107650
0.103500	-0.278055
0.103600	-0.307592
0.103700	-0.116413
0.103800	0.040360
0.103900	0.161429
0.104000	0.031271
0.104100	-0.052146
0.104200	-0.038514
0.104300	-0.060261
0.104400	-0.043058
0.104500	-0.036891
0.104600	-0.043058
0.104700	-0.047602
0.104800	-0.095965
0.104900	-0.068051
0.105000	-0.332260
0.105100	-0.240403
0.105200	-0.353033
0.105300	-0.310189
0.105400	-0.178084
0.105500	-0.224499
0.105600	-0.255334
0.105700	-0.641587
0.105800	-0.598417
0.105900	-0.522465
0.106000	-0.157960
0.106100	-0.011249
0.106200	-0.070647
0.106300	-0.377377
0.106400	-0.491305
0.106500	-0.396203
0.106600	-0.080709
0.106700	0.144875
0.106800	0.115663
0.106900	0.017964
0.107000	-0.037215
0.107100	0.062756
0.107200	0.098135
0.107300	0.199080
0.107400	0.201028
0.107500	0.202650
0.107600	0.189667
0.107700	0.224397
0.107800	0.251987
0.107900	0.308789
0.108000	0.309762
0.108100	0.387013
0.108200	0.486335
0.108300	0.563261
0.108400	0.583709
0.108500	0.440244
0.108600	0.413953
0.108700	0.469781
0.108800	0.676215
0.108900	0.773589
0.109000	0.769370
0.109100	0.826172
0.109200	0.889790
0.109300	0.930687
0.109400	0.944969
0.109500	0.970610
0.109600	0.942372
0.109700	0.954057
0.109800	0.909265
0.109900	0.905694
0.110000	0.829742
0.110100	0.793064
0.110200	0.727823
0.110300	0.660960
0.110400	0.575919
0.110500	0.466860
0.110600	0.406163
0.110700	0.314631
0.110800	-0.025206
0.110900	-0.401721
0.111000	-0.609128
0.111100	-0.345568
0.111200	-0.140432
0.111300	-0.069674
0.111400	-0.467286
0.111500	-0.852889
0.111600	-1.096001
0.111700	-1.022970
0.111800	-0.849968
0.111900	-0.800307
0.112000	-0.982722
0.112100	-1.321586
0.112200	-1.537433
0.112300	-1.614684
0.112400	-1.601701
0.112500	-1.644221
0.112600	-1.767562
0.112700	-1.871429
0.112800	-1.992174
0.112900	-2.107401
0.113000	-2.151219
0.113100	-2.261253
0.113200	-2.405044
0.113300	-2.518972
0.113400	-2.624462
0.113500	-2.653675
0.113600	-2.727355
0.113700	-2.875365
0.113800	-2.975013
0.113900	-2.980855
0.114000	-2.825055
0.114100	-2.814993
0.114200	-3.032464
0.114300	-3.376524
0.114400	-3.672545
0.114500	-3.651123
0.114600	-3.417746
0.114700	-3.252532
0.114800	-3.355426
0.114900	-3.666703
0.115000	-3.973761
0.115100	-4.024720
0.115200	-3.830943
0.115300	-3.663132
0.115400	-3.605356
0.115500	-3.658913
0.115600	-3.687476
0.115700	-3.642683
0.115800	-3.593996
0.115900	-3.527780
0.116000	-3.444037
0.116100	-3.327511
0.116200	-3.120102
0.116300	-2.920483
0.116400	-2.742611
0.116500	-2.671202
0.116600	-2.580968
0.116700	-2.493330
0.116800	-2.274561
0.116900	-2.018465
0.117000	-1.907133
0.117100	-1.584822
0.117200	-1.582550
0.117300	-1.480956
0.117400	-1.341061
0.117500	-1.200192
0.117600	-1.031410
0.117700	-0.888269
0.117800	-0.824651
0.117900	-0.815887
0.118000	-0.794789
0.118100	-0.754541
0.118200	-0.737663
0.118300	-0.703906
0.118400	-0.666904
0.118500	-0.634770
0.118600	-0.615620
0.118700	-0.645482
0.118800	-0.671773
0.118900	-0.782780
0.119000	-0.623410
0.119100	-0.586732
0.119200	-0.008003
0.119300	0.034842
0.119400	0.040360
0.119500	-0.522465
0.119600	-0.544212
0.119700	-0.215735
0.119800	0.075090
0.119900	0.460693
0.120000	0.496721
0.120100	0.286393
0.120200	0.163376
0.120300	0.246794
0.120400	0.563585
0.120500	0.723928
0.120600	0.926792
0.120700	0.870315
0.120800	0.852138
0.120900	0.798582
0.121000	0.832014
0.121100	0.852138
0.121200	0.860577
0.121300	0.828119
0.121400	0.787222
0.121500	0.749895
0.121600	0.649599
0.121700	0.510029
0.121800	0.365266
0.121900	0.182202
0.122000	0.165324
0.122100	0.117610
0.122200	0.052694
0.122300	-0.210542
0.122400	-0.624708
0.122500	-0.796412
0.122600	-0.782131
0.122700	-0.594198
0.122800	-0.629577
0.122900	-0.930140
0.123000	-1.345281
0.123100	-1.552364
0.123200	-1.519906
0.123300	-1.344307
0.123400	-1.280040
0.123500	-1.463429
0.123600	-1.676355
0.123700	-1.768861
0.123800	-1.775028
0.123900	-1.718550
0.124000	-1.681223
0.124100	-1.746465
0.124200	-1.776002
0.124300	-1.818197
0.124400	-1.722121
0.124500	-1.705892
0.124600	-1.695505
0.124700	-1.649414
0.124800	-1.543600
0.124900	-1.460507
0.125000	-1.350149
0.125100	-1.331324
0.125200	-1.403705
0.125300	-1.353720
0.125400	-1.247906
0.125500	-0.986617
0.125600	-0.881128
0.125700	-0.818808
0.125800	-0.705529
0.125900	-0.606856
0.126000	-0.477997
0.126100	-0.354007
0.126200	-0.248518
0.126300	-0.164776
0.126400	-0.052795
0.126500	0.013095
0.126600	0.111443
0.126700	0.197457
0.126800	0.278278
0.126900	0.390908
0.127000	0.435375
0.127100	0.519118
0.127200	0.487958
0.127300	0.557094
0.127400	0.502888
0.127500	0.285743
0.127600	0.006928
0.127700	0.108197
0.127800	0.371433
0.127900	0.657065
0.128000	0.630449
0.128100	0.325667
0.128200	-0.013196
0.128300	-0.119335
0.128400	0.012770
0.128500	0.192588
0.128600	0.199729
0.128700	0.009849
0.128800	-0.256308
0.128900	-0.440346
0.129000	-0.475725
0.129100	-0.482217
0.129200	-0.526685
0.129300	-0.619840
0.129400	-0.727276
0.129500	-0.836660
0.129600	-0.928517
0.129700	-0.995056
0.129800	-1.127486
0.129900	-1.271925
0.130000	-1.421233
0.130100	-1.466025
0.130200	-1.472192
0.130300	-1.612737
0.130400	-1.719849
0.130500	-1.857796
0.130600	-1.800021
0.130700	-1.613710
0.130800	-1.648765
0.130900	-1.826312
0.131000	-2.155114
0.131100	-2.388490
0.131200	-2.283974
0.131300	-2.059687
0.131400	-1.915248
0.131500	-2.048327
0.131600	-2.339478
0.131700	-2.601417
0.131800	-2.674773
0.131900	-2.524815
0.132000	-2.422246
0.132100	-2.431010
0.132200	-2.489435
0.132300	-2.568958
0.132400	-2.591030
0.132500	-2.603689
0.132600	-2.569283
0.132700	-2.499173
0.132800	-2.434256
0.132900	-2.334609
0.133000	-2.191792
0.133100	-2.112594
0.133200	-2.052222
0.133300	-2.024957
0.133400	-1.974646
0.133500	-1.730560
0.133600	-1.549768
0.133700	-1.220316
0.133800	-1.194674
0.133900	-1.134951
0.134000	-1.047639
0.134100	-0.932737
0.134200	-0.779534
0.134300	-0.599391
0.134400	-0.484814
0.134500	-0.383869
0.134600	-0.342647
0.134700	-0.290714
0.134800	-0.191067
0.134900	-0.225797
0.135000	-0.092719
0.135100	-0.008003
0.135200	0.132216
0.135300	0.165973
0.135400	0.165973
0.135500	0.157209
0.135600	0.169543
0.135700	0.265619
0.135800	0.597991
0.135900	0.984892
0.136000	1.267278
0.136100	0.929064
0.136200	0.669723
0.136300	0.644406
0.136400	1.005990
0.136500	1.390295
0.136600	1.604843
0.136700	1.596729
0.136800	1.392242
0.136900	1.330247
0.137000	1.502924
0.137100	1.737922
0.137200	1.988823
0.137300	1.998561
0.137400	2.031993
0.137500	1.929425
0.137600	1.999859
0.137700	2.055687
0.137800	2.102752
0.137900	2.127095
0.138000	2.118981
0.138100	2.182274
0.138200	2.256604
0.138300	2.047897
0.138400	2.022580
0.138500	1.987525
0.138600	2.073539
0.138700	2.427009
0.138800	2.994704
0.138900	2.856432
0.139000	2.013167
0.139100	1.545769
0.139200	1.599325
0.139300	1.724938
0.139400	3.385177
0.139500	3.226781
0.139600	1.767134
0.139700	1.364003
0.139800	1.312070
0.139900	1.404252
0.140000	1.931697
0.140100	2.086847
0.140200	1.264032
0.140300	1.256242
0.140400	1.195546
0.140500	1.143288
0.140600	1.169904
0.140700	1.082591
0.140800	0.960873
0.140900	0.823575
0.141000	0.800854
0.141100	0.757036
0.141200	0.646029
0.141300	0.497695
0.141400	0.422392
0.141500	0.367213
0.141600	0.318526
0.141700	0.246144
0.141800	0.057563
0.141900	-0.195287
0.142000	-0.335181
0.142100	-0.410160
0.142200	-0.394580
0.142300	-0.495200
0.142400	-0.626980
0.142500	-0.701959
0.142600	-0.780832
0.142700	-0.852240
0.142800	-0.938904
0.142900	-1.015505
0.143000	-1.084316
0.143100	-1.171304
0.143200	-1.181042
0.143300	-1.281987
0.143400	-1.353071
0.143500	-1.403381
0.143600	-1.449796
0.143700	-1.500756
0.143800	-1.585147
0.143900	-1.631238
0.144000	-1.737376
0.144100	-1.836699
0.144200	-2.226198
0.144300	-2.480022
0.144400	-2.327468
0.144500	-2.069425
0.144600	-1.827610
0.144700	-2.027878
0.144800	-2.346943
0.144900	-2.668930
0.145000	-2.631927
0.145100	-2.402122
0.145200	-2.218733
0.145300	-2.220356
0.145400	-2.395631
0.145500	-2.585837
0.145600	-2.609531
0.145700	-2.492357
0.145800	-2.366418
0.145900	-2.377129
0.146000	-2.419325
0.146100	-2.432309
0.146200	-2.403096
0.146300	-2.344346
0.146400	-2.332661
0.146500	-2.369015
0.146600	-2.389139
0.146700	-2.379401
0.146800	-2.341750
0.146900	-2.343373
0.147000	-2.367067
0.147100	-2.418351
0.147200	-2.430036
0.147300	-2.277482
0.147400	-2.019763
0.147500	-2.062933
0.147600	-2.245673
0.147700	-2.480996
0.147800	-2.584863
0.147900	-2.372261
0.148000	-2.051897
0.148100	-1.964260
0.148200	-2.169721
0.148300	-2.478075
0.148400	-2.636472
0.148500	-2.533254
0.148600	-2.348241
0.148700	-2.252814
0.148800	-2.258981
0.148900	-2.303449
0.149000	-2.331039
0.149100	-2.346943
0.149200	-2.308967
0.149300	-2.229769
0.149400	-2.166150
0.149500	-2.041186
0.149600	-1.866885
0.149700	-1.743868
0.149800	-1.677653
0.149900	-1.675706
0.150000	-1.654608
0.150100	-1.589042
0.150200	-1.351448
0.150300	-1.245634
0.150400	-1.037577
0.150500	-0.973309
0.150600	-0.915209
0.150700	-0.822703
0.150800	-0.702608
0.150900	-0.585109
0.151000	-0.384193
0.151100	-0.298828
0.151200	-0.242351
0.151300	-0.264098
0.151400	-0.242676
0.151500	-0.224499
0.151600	-0.222551
0.151700	-0.144652
0.151800	-0.092070
0.151900	-0.100184
0.152000	-0.108948
0.152100	-0.128423
0.152200	-0.207296
0.152300	-0.169645
0.152400	-0.188795
0.152500	0.175710
0.152600	0.418173
0.152700	0.554822
0.152800	0.104302
0.152900	-0.260203
0.153000	-0.173864
0.153100	0.120531
0.153200	0.384416
0.153300	0.491204
0.153400	0.347738
0.153500	0.082555
0.153600	0.007252
0.153700	0.201352
0.153800	0.329237
0.153900	0.517170
0.154000	0.439595
0.154100	0.395777
0.154200	0.277953
0.154300	0.320149
0.154400	0.300350
0.154500	0.358125
0.154600	0.329562
0.154700	0.371757
0.154800	0.400321
0.154900	0.330536
0.155000	0.103978
0.155100	0.121830
0.155200	0.064703
0.155300	-0.002810
0.155400	0.084827
0.155500	0.088398
0.155600	0.128970
0.155700	-0.159907
0.155800	-0.385492
0.155900	-0.343945
0.156000	-0.039163
0.156100	0.139682
0.156200	0.117935
0.156300	-0.212165
0.156400	-0.497148
0.156500	-0.454627
0.156600	-0.208270
0.156700	0.012446
0.156800	-0.012872
0.156900	-0.235535
0.157000	-0.365367
0.157100	-0.336804
0.157200	-0.338427
0.157300	-0.271239
0.157400	-0.370561
0.157500	-0.474752
0.157600	-0.553625
0.157700	-0.573100
0.157800	-0.574398
0.157900	-0.647429
0.158000	-0.740909
0.158100	-0.761357
0.158200	-0.732145
0.158300	-0.717863
0.158400	-0.705854
0.158500	-0.895734
0.158600	-1.060297
0.158700	-1.086589
0.158800	-1.052507
0.158900	-0.923973
0.159000	-1.012908
0.159100	-1.032383
0.159200	-1.021348
0.159300	-1.027839
0.159400	-1.007066
0.159500	-1.013233
0.159600	-1.018751
0.159700	-1.022970
0.159800	-0.999601
0.159900	-0.996679
0.160000	-1.007390
0.160100	-1.002846
0.160200	-0.989863
0.160300	-0.983696
0.160400	-0.984345
0.160500	-1.001873
0.160600	-1.031085
0.160700	-1.057052
0.160800	-1.240765
0.160900	-1.621500
0.161000	-1.775677
0.161100	-1.602025
0.161200	-1.306980
0.161300	-1.223238
0.161400	-1.366378
0.161500	-1.802942
0.161600	-2.056766
0.161700	-2.023658
0.161800	-1.777949
0.161900	-1.588717
0.162000	-1.670512
0.162100	-1.835725
0.162200	-2.014570
0.162300	-2.032422
0.162400	-1.974646
0.162500	-1.866885
0.162600	-1.848059
0.162700	-1.862341
0.162800	-1.887333
0.162900	-1.915897
0.163000	-1.924661
0.163100	-1.941214
0.163200	-1.952575
0.163300	-2.028202
0.163400	-2.078188
0.163500	-2.098312
0.163600	-2.068775
0.163700	-2.131420
0.163800	-2.164203
0.163900	-2.228470
0.164000	-2.028852
0.164100	-1.896097
0.164200	-1.960689
0.164300	-2.275859
0.164400	-2.573178
0.164500	-2.703011
0.164600	-2.457951
0.164700	-2.149272
0.164800	-2.115191
0.164900	-2.370313
0.165000	-2.736443
0.165100	-2.852320
0.165200	-2.710152
0.165300	-2.504366
0.165400	-2.399201
0.165500	-2.468337
0.165600	-2.553054
0.165700	-2.551755
0.165800	-2.466390
0.165900	-2.411211
0.166000	-2.388490
0.166100	-2.315134
0.166200	-2.229769
0.166300	-2.061635
0.166400	-1.867209
0.166500	-1.725042
0.166600	-1.655257
0.166700	-1.634484
0.166800	-1.538083
0.166900	-1.303734
0.167000	-1.242713
0.167100	-1.077500
0.167200	-0.975581
0.167300	-0.920727
0.167400	-0.819133
0.167500	-0.729548
0.167600	-0.576670
0.167700	-0.440021
0.167800	-0.354007
0.167900	-0.374780
0.168000	-0.380623
0.168100	-0.399449
0.168200	-0.382246
0.168300	-0.373157
0.168400	-0.305644
0.168500	-0.261826
0.168600	-0.225797
0.168700	-0.245921
0.168800	-0.267344
0.168900	-0.355630
0.169000	-0.283573
0.169100	-0.198857
0.169200	0.117286
0.169300	0.476273
0.169400	0.443490
0.169500	-0.045005
0.169600	-0.313434
0.169700	-0.073244
0.169800	0.073792
0.169900	0.545733
0.170000	0.519442
0.170100	0.422717
0.170200	0.177982
0.170300	0.137085
0.170400	0.290937
0.170500	0.448359
0.170600	0.608377
0.170700	0.591175
0.170800	0.531776
0.170900	0.440893
0.171000	0.463614
0.171100	0.544110
0.171200	0.550602
0.171300	0.546382
0.171400	0.582736
0.171500	0.565208
0.171600	0.406488
0.171700	0.435375
0.171800	0.415251
0.171900	0.392531
0.172000	0.313008
0.172100	0.455824
0.172200	0.412006
0.172300	0.495098
0.172400	0.098135
0.172500	-0.069674
0.172600	0.035491
0.172700	0.271137
0.172800	0.527232
0.172900	0.365915
0.173000	0.064379
0.173100	-0.214112
0.173200	-0.146599
0.173300	0.111118
0.173400	0.327939
0.173500	0.261400
0.173600	0.070221
0.173700	-0.091420
0.173800	-0.053120
0.173900	-0.053769
0.174000	0.006928
0.174100	-0.108948
0.174200	-0.199182
0.174300	-0.281950
0.174400	-0.266695
0.174500	-0.295258
0.174600	-0.353033
0.174700	-0.411458
0.174800	-0.411783
0.174900	-0.377052
0.175000	-0.389711
0.175100	-0.413406
0.175200	-0.607505
0.175300	-0.701310
0.175400	-0.709749
0.175500	-0.700985
0.175600	-0.525711
0.175700	-0.602637
0.175800	-0.595496
0.175900	-0.558169
0.176000	-0.550704
0.176100	-0.518895
0.176200	-0.529281
0.176300	-0.504938
0.176400	-0.510780
0.176500	-0.500718
0.176600	-0.504613
0.176700	-0.517596
0.176800	-0.517921
0.176900	-0.511429
0.177000	-0.541615
0.177100	-0.527983
0.177200	-0.580565
0.177300	-0.617568
0.177400	-0.688651
0.177500	-0.942474
0.177600	-1.288803
0.177700	-1.376440
0.177800	-1.146636
0.177900	-0.889892
0.178000	-0.819782
0.178100	-1.134302
0.178200	-1.494913
0.178300	-1.754579
0.178400	-1.689013
0.178500	-1.552364
0.178600	-1.443954
0.178700	-1.610789
0.178800	-1.852279
0.178900	-2.099935
0.179000	-2.180107
0.179100	-2.183353
0.179200	-2.189845
0.179300	-2.209969
0.179400	-2.287220
0.179500	-2.398227
0.179600	-2.450810
0.179700	-2.501120
0.179800	-2.531956
0.179900	-2.573827
0.180000	-2.678992
0.180100	-2.692300
0.180200	-2.691975
0.180300	-2.678992
0.180400	-2.744233
0.180500	-2.792272
0.180600	-2.750725
0.180700	-2.552080
0.180800	-2.402771
0.180900	-2.519622
0.181000	-2.845179
0.181100	-3.022402
0.181200	-3.007146
0.181300	-2.691975
0.181400	-2.409912
0.181500	-2.426466
0.181600	-2.676720
0.181700	-2.936712
0.181800	-2.977934
0.181900	-2.777990
0.182000	-2.565712
0.182100	-2.452757
0.182200	-2.462819
0.182300	-2.449836
0.182400	-2.417053
0.182500	-2.347268
0.182600	-2.248270
0.182700	-2.174914
0.182800	-2.083382
0.182900	-1.932775
0.183000	-1.754904
0.183100	-1.616307
0.183200	-1.577032
0.183300	-1.543276
0.183400	-1.523476
0.183500	-1.332297
0.183600	-1.087238
0.183700	-0.831792
0.183800	-0.725978
0.183900	-0.771095
0.184000	-0.746427
0.184100	-0.688651
0.184200	-0.601988
0.184300	-0.479620
0.184400	-0.369912
0.184500	-0.333234
0.184600	-0.314733
0.184700	-0.382570
0.184800	-0.341673
0.184900	-0.440021
0.185000	-0.427687
0.185100	-0.381921
0.185200	-0.358551
0.185300	-0.313110
0.185400	-0.311487
0.185500	-0.375429
0.185600	-0.368938
0.185700	-0.319926
0.185800	-0.077463
0.185900	0.132865
0.186000	0.576244
0.186100	0.217906
0.186200	-0.032022
0.186300	-0.287468
0.186400	-0.041435
0.186500	0.316903
0.186600	0.495098
0.186700	0.586955
0.186800	0.311710
0.186900	0.252311
0.187000	0.216607
0.187100	0.401294
0.187200	0.600912
0.187300	0.722630
0.187400	0.796635
0.187500	0.750544
0.187600	0.663881
0.187700	0.681733
0.187800	0.727499
0.187900	0.757360
0.188000	0.799231
0.188100	0.862849
0.188200	0.824873
0.188300	0.792415
0.188400	0.758010
0.188500	0.668750
0.188600	0.672320
0.188700	0.666153
0.188800	0.793714
0.188900	0.794363
0.189000	0.689523
0.189100	0.356178
0.189200	0.251013
0.189300	0.444139
0.189400	0.770668
0.189500	0.791441
0.189600	0.669074
0.189700	0.272111
0.189800	0.135138
0.189900	0.225047
0.190000	0.464912
0.190100	0.556444
0.190200	0.429533
0.190300	0.245820
0.190400	0.100407
0.190500	0.131243
0.190600	0.079959
0.190700	0.096512
0.190800	-0.042084
0.190900	-0.125502
0.191000	-0.164451
0.191100	-0.148547
0.191200	-0.212814
0.191300	-0.338103
0.191400	-0.439697
0.191500	-0.473453
0.191600	-0.462742
0.191700	-0.454952
0.191800	-0.512403
0.191900	-0.736689
0.192000	-0.870417
0.192100	-0.896059
0.192200	-0.912288
0.192300	-0.812317
0.192400	-0.905472
0.192500	-0.939228
0.192600	-0.933710
0.192700	-0.975257
0.192800	-0.979476
0.192900	-1.016479
0.193000	-1.078474
0.193100	-1.108660
0.193200	-1.130083
0.193300	-1.174226
0.193400	-1.195324
0.193500	-1.271925
0.193600	-1.284908
0.193700	-1.346254
0.193800	-1.344956
0.193900	-1.393968
0.194000	-1.432593
0.194100	-1.533538
0.194200	-1.728937
0.194300	-2.131420
0.194400	-2.100584
0.194500	-1.834102
0.194600	-1.519257
0.194700	-1.528670
0.194800	-1.791906
0.194900	-2.232690
0.195000	-2.377129
0.195100	-2.265473
0.195200	-2.052222
0.195300	-2.032097
0.195400	-2.128174
0.195500	-2.389464
0.195600	-2.521244
0.195700	-2.565712
0.195800	-2.490084
0.195900	-2.436204
0.196000	-2.483917
0.196100	-2.547860
0.196200	-2.546887
0.196300	-2.517674
0.196400	-2.492681
0.196500	-2.501120
0.196600	-2.539746
0.196700	-2.640691
0.196800	-2.509235
0.196900	-2.452433
0.197000	-2.488137
0.197100	-2.520595
0.197200	-2.537798
0.197300	-2.379726
0.197400	-2.049300
0.197500	-1.942513
0.197600	-2.075267
0.197700	-2.388165
0.197800	-2.479698
0.197900	-2.390762
0.198000	-2.028202
0.198100	-1.790608
0.198200	-1.828259
0.198300	-2.065854
0.198400	-2.299554
0.198500	-2.270666
0.198600	-2.096365
0.198700	-1.911677
0.198800	-1.827935
0.198900	-1.837348
0.199000	-1.868183
0.199100	-1.847085
0.199200	-1.796775
0.199300	-1.694531
0.199400	-1.581252
0.199500	-1.499133
0.199600	-1.375142
0.199700	-1.108985
0.199800	-0.954484
0.199900	-0.915534
0.200000	-0.907095
0.200100	-0.882751
0.200200	-0.682808
0.200300	-0.525711
0.200400	-0.442942
0.200500	-0.188146
0.200600	-0.182953
0.200700	-0.156337
0.200800	-0.066103
0.200900	0.074441
0.201000	0.195510
0.201100	0.279901
0.201200	0.303271
0.201300	0.280225
0.201400	0.271462
0.201500	0.246144
0.201600	0.197133
0.201700	0.155586
0.201800	0.215309
0.201900	0.186746
0.202000	0.210440
0.202100	0.104627
0.202200	0.091968
0.202300	0.013419
0.202400	0.042632
0.202500	0.211414
0.202600	0.556120
0.202700	0.570077
0.202800	0.406488
0.202900	-0.196585
0.203000	-0.257931
0.203100	-0.177759
0.203200	0.232837
0.203300	0.283147
0.203400	0.311385
0.203500	-0.071296
0.203600	-0.278704
0.203700	-0.326742
0.203800	-0.181654
0.203900	-0.001511
0.204000	-0.005082
0.204100	-0.077139
0.204200	-0.246895
0.204300	-0.275783
0.204400	-0.309215
0.204500	-0.373157
0.204600	-0.419573
0.204700	-0.464040
0.204800	-0.500393
0.204900	-0.600040
0.205000	-0.600365
0.205100	-0.848345
0.205200	-0.878531
0.205300	-1.086264
0.205400	-0.955782
0.205500	-1.011610
0.205600	-0.964221
0.205700	-1.231677
0.205800	-1.585472
0.205900	-1.622799
0.206000	-1.477710
0.206100	-1.184288
0.206200	-1.269004
0.206300	-1.392670
0.206400	-1.735429
0.206500	-1.827610
0.206600	-1.683171
0.206700	-1.440708
0.206800	-1.289452
0.206900	-1.369300
0.207000	-1.511791
0.207100	-1.571190
0.207200	-1.543925
0.207300	-1.487772
0.207400	-1.419935
0.207500	-1.461806
0.207600	-1.480307
0.207700	-1.487772
0.207800	-1.415715
0.207900	-1.408899
0.208000	-1.428049
0.208100	-1.414741
0.208200	-1.364431
0.208300	-1.300164
0.208400	-1.241414
0.208500	-1.319963
0.208600	-1.448822
0.208700	-1.470569
0.208800	-1.457911
0.208900	-1.311849
0.209000	-1.250503
0.209100	-1.292698
0.209200	-1.280364
0.209300	-1.258293
0.209400	-1.214149
0.209500	-1.202140
0.209600	-1.180717
0.209700	-1.192078
0.209800	-1.152803
0.209900	-1.151830
0.210000	-1.145013
0.210100	-1.151180
0.210200	-1.118073
0.210300	-1.115476
0.210400	-1.055753
0.210500	-1.091457
0.210600	-1.119371
0.210700	-1.140145
0.210800	-1.223238
0.210900	-1.525748
0.211000	-1.751333
0.211100	-1.727314
0.211200	-1.392670
0.211300	-1.199868
0.211400	-1.225185
0.211500	-1.566970
0.211600	-1.870455
0.211700	-2.016517
0.211800	-1.825338
0.211900	-1.618579
0.212000	-1.560803
0.212100	-1.712059
0.212200	-1.951925
0.212300	-2.089549
0.212400	-2.037940
0.212500	-1.945109
0.212600	-1.927906
0.212700	-1.997043
0.212800	-2.006780
0.212900	-1.990226
0.213000	-2.008727
0.213100	-1.993797
0.213200	-2.020737
0.213300	-2.082732
0.213400	-2.143105
0.213500	-2.079162
0.213600	-2.015868
0.213700	-2.110971
0.213800	-2.190169
0.213900	-2.240155
0.214000	-2.053520
0.214100	-1.899668
0.214200	-1.918818
0.214300	-2.103830
0.214400	-2.441721
0.214500	-2.559870
0.214600	-2.481645
0.214700	-2.224251
0.214800	-2.118112
0.214900	-2.303124
0.215000	-2.620242
0.215100	-2.866926
0.215200	-2.863356
0.215300	-2.699116
0.215400	-2.585187
0.215500	-2.573827
0.215600	-2.664061
0.215700	-2.764358
0.215800	-2.807203
0.215900	-2.803308
0.216000	-2.756892
0.216100	-2.699765
0.216200	-2.645560
0.216300	-2.576748
0.216400	-2.385569
0.216500	-2.317406
0.216600	-2.309616
0.216700	-2.283974
0.216800	-2.253463
0.216900	-2.060661
0.217000	-1.950952
0.217100	-1.624746
0.217200	-1.592937
0.217300	-1.598130
0.217400	-1.552040
0.217500	-1.449796
0.217600	-1.315094
0.217700	-1.163515
0.217800	-1.063543
0.217900	-1.043419
0.218000	-1.030436
0.218100	-1.016154
0.218200	-0.980450
0.218300	-0.967791
0.218400	-0.900278
0.218500	-0.801281
0.218600	-0.769147
0.218700	-0.720460
0.218800	-0.763305
0.218900	-0.760059
0.219000	-0.769147
0.219100	-0.731496
0.219200	-0.401396
0.219300	-0.154389
0.219400	0.127672
0.219500	-0.334857
0.219600	-0.497797
0.219700	-0.667553
0.219800	-0.331286
0.219900	-0.143354
0.220000	-0.004108
0.220100	-0.116089
0.220200	-0.311487
0.220300	-0.417950
0.220400	-0.331611
0.220500	-0.128423
0.220600	0.011796
0.220700	0.036465
0.220800	-0.059936
0.220900	-0.092394
0.221000	-0.115115
0.221100	-0.105053
0.221200	-0.096614
0.221300	-0.066752
0.221400	-0.060910
0.221500	-0.083955
0.221600	-0.132642
0.221700	-0.219306
0.221800	-0.273511
0.221900	-0.298828
0.222000	-0.355955
0.222100	-0.254360
0.222200	-0.203401
0.222300	-0.249492
0.222400	-0.446837
0.222500	-0.758436
0.222600	-0.658465
0.222700	-0.442942
0.222800	-0.275783
0.222900	-0.319277
0.223000	-0.537720
0.223100	-0.816212
0.223200	-0.854188
0.223300	-0.679563
0.223400	-0.431582
0.223500	-0.368289
0.223600	-0.483191
0.223700	-0.625682
0.223800	-0.610427
0.223900	-0.593873
0.224000	-0.491630
0.224100	-0.470857
0.224200	-0.503639
0.224300	-0.532527
0.224400	-0.502016
0.224500	-0.497148
0.224600	-0.521491
0.224700	-0.566284
0.224800	-0.556222
0.224900	-0.531878
0.225000	-0.527334
0.225100	-0.551353
0.225200	-0.662684
0.225300	-0.789596
0.225400	-0.799658
0.225500	-0.807773
0.225600	-0.815238
0.225700	-0.751295
0.225800	-0.790245
0.225900	-0.774665
0.226000	-0.780508
0.226100	-0.764928
0.226200	-0.804851
0.226300	-0.812317
0.226400	-0.833739
0.226500	-0.835037
0.226600	-0.858732
0.226700	-0.906121
0.226800	-0.914885
0.226900	-0.919104
0.227000	-0.942149
0.227100	-0.970064
0.227200	-1.016154
0.227300	-1.047639
0.227400	-1.129758
0.227500	-1.288479
0.227600	-1.615009
0.227700	-1.889281
0.227800	-1.755553
0.227900	-1.536784
0.228000	-1.343982
0.228100	-1.521529
0.228200	-1.888956
0.228300	-2.197310
0.228400	-2.272289
0.228500	-2.083057
0.228600	-1.953873
0.228700	-1.990875
0.228800	-2.177835
0.228900	-2.393034
0.229000	-2.542018
0.229100	-2.529359
0.229200	-2.488786
0.229300	-2.483593
0.229400	-2.541369
0.229500	-2.574152
0.229600	-2.625760
0.229700	-2.602715
0.229800	-2.572204
0.229900	-2.583240
0.230000	-2.676720
0.230100	-2.694897
0.230200	-2.596548
0.230300	-2.589732
0.230400	-2.635498
0.230500	-2.662438
0.230600	-2.673150
0.230700	-2.453731
0.230800	-2.250217
0.230900	-2.306370
0.231000	-2.538772
0.231100	-2.793895
0.231200	-2.824406
0.231300	-2.618944
0.231400	-2.335907
0.231500	-2.263525
0.231600	-2.440423
0.231700	-2.707880
0.231800	-2.881857
0.231900	-2.793246
0.232000	-2.644911
0.232100	-2.553054
0.232200	-2.521569
0.232300	-2.551431
0.232400	-2.620242
0.232500	-2.621541
0.232600	-2.606285
0.232700	-2.563765
0.232800	-2.497550
0.232900	-2.405368
0.233000	-2.257034
0.233100	-2.139210
0.233200	-2.112919
0.233300	-2.083057
0.233400	-2.058064
0.233500	-1.938618
0.233600	-1.699400
0.233700	-1.602999
0.233800	-1.238168
0.233900	-1.234598
0.234000	-1.169032
0.234100	-1.088211
0.234200	-0.932737
0.234300	-0.792842
0.234400	-0.613023
0.234500	-0.523114
0.234600	-0.499420
0.234700	-0.484489
0.234800	-0.466312
0.234900	-0.434503
0.235000	-0.461768
0.235100	-0.363745
0.235200	-0.297854
0.235300	-0.283573
0.235400	-0.259878
0.235500	-0.289415
0.235600	-0.337453
0.235700	-0.355630
0.235800	-0.267019
0.235900	-0.064480
0.236000	0.399996
0.236100	0.265295
0.236200	0.028999
0.236300	-0.361148
0.236400	-0.297205
0.236500	0.055940
0.236600	0.305543
0.236700	0.430507
0.236800	0.260426
0.236900	0.174087
0.237000	0.014718
0.237100	0.186097
0.237200	0.378574
0.237300	0.542812
0.237400	0.566506
0.237500	0.431156
0.237600	0.442841
0.237700	0.416550
0.237800	0.448683
0.237900	0.453552
0.238000	0.509056
0.238100	0.479194
0.238200	0.452578
0.238300	0.448683
0.238400	0.338001
0.238500	0.321123
0.238600	0.249715
0.238700	0.255233
0.238800	0.338326
0.238900	0.391882
0.239000	0.354879
0.239100	0.066326
0.239200	-0.184900
0.239300	-0.089798
0.239400	0.198106
0.239500	0.289638
0.239600	0.246794
0.239700	-0.047277
0.239800	-0.312136
0.239900	-0.308241
0.240000	-0.133616
0.240100	0.078985
0.240200	0.056264
0.240300	-0.107000
0.240400	-0.265072
0.240500	-0.276107
0.240600	-0.311811
0.240700	-0.225797
0.240800	-0.260852
0.240900	-0.285520
0.241000	-0.346217
0.241100	-0.394255
0.241200	-0.390360
0.241300	-0.430608
0.241400	-0.436775
0.241500	-0.426389
0.241600	-0.385816
0.241700	-0.392957
0.241800	-0.409835
0.241900	-0.596145
0.242000	-0.690923
0.242100	-0.701634
0.242200	-0.555897
0.242300	-0.515973
0.242400	-0.614322
0.242500	-0.661061
0.242600	-0.655219
0.242700	-0.673396
0.242800	-0.678264
0.242900	-0.717539
0.243000	-0.741882
0.243100	-0.756164
0.243200	-0.798035
0.243300	-0.831142
0.243400	-0.841204
0.243500	-0.864574
0.243600	-0.901252
0.243700	-0.964870
0.243800	-0.980450
0.243900	-1.103467
0.244000	-1.145338
0.244100	-1.242063
0.244200	-1.451094
0.244300	-1.855849
0.244400	-2.093768
0.244500	-1.989577
0.244600	-1.727314
0.244700	-1.635457
0.244800	-1.854226
0.244900	-2.293387
0.245000	-2.538772
0.245100	-2.536175
0.245200	-2.336881
0.245300	-2.204127
0.245400	-2.318380
0.245500	-2.570257
0.245600	-2.794869
0.245700	-2.868874
0.245800	-2.845828
0.245900	-2.766305
0.246000	-2.815642
0.246100	-2.897437
0.246200	-2.917886
0.246300	-2.945151
0.246400	-2.952292
0.246500	-2.954239
0.246600	-2.968521
0.246700	-3.127243
0.246800	-3.054860
0.246900	-2.987022
0.247000	-2.986373
0.247100	-3.027595
0.247200	-3.079204
0.247300	-2.984426
0.247400	-2.741961
0.247500	-2.550457
0.247600	-2.636796
0.247700	-2.917561
0.247800	-3.102574
0.247900	-3.053887
0.248000	-2.770525
0.248100	-2.501120
0.248200	-2.475803
0.248300	-2.693923
0.248400	-2.935089
0.248500	-3.069142
0.248600	-2.934115
0.248700	-2.783184
0.248800	-2.695546
0.248900	-2.677369
0.249000	-2.745856
0.249100	-2.790974
0.249200	-2.778315
0.249300	-2.732548
0.249400	-2.648806
0.249500	-2.551106
0.249600	-2.391411
0.249700	-2.212890
0.249800	-2.093444
0.249900	-2.032422
0.250000	-2.007754
0.250100	-1.992498
0.250200	-1.844164
0.250300	-1.616956
0.250400	-1.553013
0.250500	-1.228756
0.250600	-1.258617
0.250700	-1.233300
0.250800	-1.135276
0.250900	-0.999601
0.251000	-0.862951
0.251100	-0.711372
0.251200	-0.681835
0.251300	-0.647754
0.251400	-0.669176
0.251500	-0.627630
0.251600	-0.666579
0.251700	-0.636718
0.251800	-0.655544
0.251900	-0.514350
0.252000	-0.603286
0.252100	-0.502990
0.252200	-0.667553
0.252300	-0.599716
0.252400	-0.667229
0.252500	-0.559792
0.252600	-0.198857
0.252700	-0.022285
0.252800	-0.052795
0.252900	-0.527009
0.253000	-0.699687
0.253100	-0.556546
0.253200	-0.370561
0.253300	-0.033320
0.253400	-0.030724
0.253500	-0.128747
0.253600	-0.327391
0.253700	-0.370561
0.253800	-0.183926
0.253900	0.016990
0.254000	0.197457
0.254100	0.172464
0.254200	0.127997
0.254300	0.144550
0.254400	0.131892
0.254500	0.118259
0.254600	0.140006
0.254700	0.187071
0.254800	0.198756
0.254900	0.215634
0.255000	0.246144
0.255100	0.067300
0.255200	0.140655
0.255300	0.032570
0.255400	0.154612
0.255500	0.216283
0.255600	0.326641
0.255700	0.179605
0.255800	-0.086876
0.255900	-0.131669
0.256000	0.007577
0.256100	0.315280
0.256200	0.369810
0.256300	0.291261
0.256400	-0.020662
0.256500	-0.230017
0.256600	-0.132967
0.256700	0.094565
0.256800	0.308464
0.256900	0.264646
0.257000	0.118908
0.257100	0.035491
0.257200	0.006603
0.257300	0.045553
0.257400	0.103653
0.257500	0.092617
0.257600	0.073142
0.257700	0.053668
0.257800	0.028350
0.257900	0.014393
0.258000	-0.015144
0.258100	-0.024881
0.258200	-0.025206
0.258300	0.019911
0.258400	0.035816
0.258500	0.007577
0.258600	-0.191067
0.258700	-0.273186
0.258800	-0.288442
0.258900	-0.159907
0.259000	-0.165101
0.259100	-0.255010
0.259200	-0.306294
0.259300	-0.330962
0.259400	-0.347191
0.259500	-0.406265
0.259600	-0.433205
0.259700	-0.465988
0.259800	-0.483840
0.259900	-0.523114
0.260000	-0.550379
0.260100	-0.552327
0.260200	-0.592250
0.260300	-0.608155
0.260400	-0.653596
0.260500	-0.703257
0.260600	-0.760384
0.260700	-0.861004
0.260800	-0.940202
0.260900	-1.226159
0.261000	-1.607868
0.261100	-1.736727
0.261200	-1.495562
0.261300	-1.272250
0.261400	-1.287180
0.261500	-1.670837
0.261600	-2.108699
0.261700	-2.357005
0.261800	-2.319029
0.261900	-2.118112
0.262000	-2.037291
0.262100	-2.189196
0.262200	-2.479373
0.262300	-2.732224
0.262400	-2.793895
0.262500	-2.821809
0.262600	-2.804606
0.262700	-2.861408
0.262800	-2.911070
0.262900	-3.015586
0.263000	-3.083099
0.263100	-3.090565
0.263200	-3.155806
0.263300	-3.235005
0.263400	-3.310633
0.263500	-3.193782
0.263600	-3.209363
0.263700	-3.291807
0.263800	-3.372304
0.263900	-3.410930
0.264000	-3.303492
0.264100	-3.031166
0.264200	-2.943853
0.264300	-3.111663
0.264400	-3.444362
0.264500	-3.602435
0.264600	-3.471952
0.264700	-3.289860
0.264800	-3.062975
0.264900	-3.113286
0.265000	-3.321993
0.265100	-3.553422
0.265200	-3.655991
0.265300	-3.510253
0.265400	-3.302194
0.265500	-3.172360
0.265600	-3.189887
0.265700	-3.258050
0.265800	-3.212933
0.265900	-3.149639
0.266000	-3.074335
0.266100	-2.990593
0.266200	-2.905876
0.266300	-2.714047
0.266400	-2.520595
0.266500	-2.384919
0.266600	-2.315459
0.266700	-2.250217
0.266800	-2.214513
0.266900	-1.988603
0.267000	-1.763343
0.267100	-1.653309
0.267200	-1.322884
0.267300	-1.302436
0.267400	-1.253424
0.267500	-1.150207
0.267600	-1.025892
0.267700	-0.865548
0.267800	-0.737987
0.267900	-0.722083
0.268000	-0.683782
0.268100	-0.664956
0.268200	-0.662035
0.268300	-0.677291
0.268400	-0.668851
0.268500	-0.566608
0.268600	-0.525062
0.268700	-0.562064
0.268800	-0.509806
0.268900	-0.608479
0.269000	-0.537396
0.269100	-0.674045
0.269200	-0.317654
0.269300	-0.243325
0.269400	0.234135
0.269500	-0.182303
0.269600	-0.543887
0.269700	-0.670799
0.269800	-0.539992
0.269900	-0.187497
0.270000	-0.069349
0.270100	-0.017091
0.270200	-0.261826
0.270300	-0.434179
0.270400	-0.404642
0.270500	-0.270265
0.270600	-0.051822
0.270700	-0.058313
0.270800	0.021859
0.270900	-0.053120
0.271000	-0.106351
0.271100	-0.115440
0.271200	-0.121931
0.271300	-0.010600
0.271400	-0.012547
0.271500	-0.010600
0.271600	-0.004108
0.271700	-0.094666
0.271800	-0.159907
0.271900	-0.234236
0.272000	-0.218657
0.272100	-0.196260
0.272200	-0.098886
0.272300	-0.180031
0.272400	-0.352060
0.272500	-0.618217
0.272600	-0.674045
0.272700	-0.545510
0.272800	-0.244298
0.272900	-0.259229
0.273000	-0.370236
0.273100	-0.632498
0.273200	-0.791219
0.273300	-0.762006
0.273400	-0.578942
0.273500	-0.433205
0.273600	-0.449759
0.273700	-0.617243
0.273800	-0.720785
0.273900	-0.747076
0.274000	-0.744804
0.274100	-0.688326
0.274200	-0.764928
0.274300	-0.797061
0.274400	-0.862302
0.274500	-0.801281
0.274600	-0.804851
0.274700	-0.846398
0.274800	-0.833739
0.274900	-0.782780
0.275000	-0.715267
0.275100	-0.654245
0.275200	-0.717214
0.275300	-0.900928
0.275400	-0.950264
0.275500	-0.936956
0.275600	-0.691248
0.275700	-0.743830
0.275800	-0.815238
0.275900	-0.831142
0.276000	-0.843152
0.276100	-0.844775
0.276200	-0.871715
0.276300	-0.877233
0.276400	-0.880479
0.276500	-0.903849
0.276600	-0.874636
0.276700	-0.906770
0.276800	-0.882426
0.276900	-0.924947
0.277000	-0.885997
0.277100	-0.925596
0.277200	-0.971362
0.277300	-1.023620
0.277400	-1.109958
0.277500	-1.170980
0.277600	-1.471543
0.277700	-1.810407
0.277800	-1.831830
0.277900	-1.658827
0.278000	-1.430646
0.278100	-1.515037
0.278200	-1.888307
0.278300	-2.232365
0.278400	-2.372585
0.278500	-2.239181
0.278600	-2.075267
0.278700	-2.087277
0.278800	-2.213215
0.278900	-2.467688
0.279000	-2.591030
0.279100	-2.632901
0.279200	-2.610505
0.279300	-2.593302
0.279400	-2.577397
0.279500	-2.575125
0.279600	-2.672500
0.279700	-2.692949
0.279800	-2.653999
0.279900	-2.661789
0.280000	-2.764033
0.280100	-2.694572
0.280200	-2.666333
0.280300	-2.651402
0.280400	-2.763384
0.280500	-2.817265
0.280600	-2.773446
0.280700	-2.627383
0.280800	-2.373559
0.280900	-2.366743
0.281000	-2.525789
0.281100	-2.844854
0.281200	-2.931843
0.281300	-2.744233
0.281400	-2.574801
0.281500	-2.398876
0.281600	-2.456328
0.281700	-2.677694
0.281800	-2.827327
0.281900	-2.897762
0.282000	-2.759813
0.282100	-2.573827
0.282200	-2.517349
0.282300	-2.527736
0.282400	-2.591679
0.282500	-2.572853
0.282600	-2.535526
0.282700	-2.484891
0.282800	-2.406666
0.282900	-2.299879
0.283000	-2.097339
0.283100	-1.883439
0.283200	-1.816250
0.283300	-1.784116
0.283400	-1.754255
0.283500	-1.704918
0.283600	-1.484202
0.283700	-1.341386
0.283800	-1.183314
0.283900	-1.010961
0.284000	-0.960975
0.284100	-0.902226
0.284200	-0.768823
0.284300	-0.645806
0.284400	-0.493253
0.284500	-0.370561
0.284600	-0.279353
0.284700	-0.267668
0.284800	-0.223525
0.284900	-0.188795
0.285000	-0.237807
0.285100	-0.170294
0.285200	-0.126475
0.285300	-0.105377
0.285400	-0.063831
0.285500	-0.107650
0.285600	-0.122256
0.285700	-0.243325
0.285800	-0.218332
0.285900	0.002708
0.286000	0.325667
0.286100	0.477247
0.286200	0.205896
0.286300	-0.162828
0.286400	-0.231964
0.286500	-0.029750
0.286600	0.302622
0.286700	0.413304
0.286800	0.455175
0.286900	0.193887
0.287000	0.129620
0.287100	0.170517
0.287200	0.294182
0.287300	0.449332
0.287400	0.449982
0.287500	0.460693
0.287600	0.406812
0.287700	0.430182
0.287800	0.345791
0.287900	0.347089
0.288000	0.407461
0.288100	0.355528
0.288200	0.347089
0.288300	0.278927
0.288400	0.329562
0.288500	0.019262
0.288600	0.052694
0.288700	-0.046953
0.288800	0.073792
0.288900	0.121505
0.289000	0.066975
0.289100	-0.109272
0.289200	-0.498121
0.289300	-0.391983
0.289400	-0.243325
0.289500	0.012770
0.289600	-0.073893
0.289700	-0.267668
0.289800	-0.533825
0.289900	-0.639964
0.290000	-0.556871
0.290100	-0.350761
0.290200	-0.287468
0.290300	-0.382895
0.290400	-0.562713
0.290500	-0.617892
0.290600	-0.592250
0.290700	-0.579916
0.290800	-0.595496
0.290900	-0.675343
0.291000	-0.770770
0.291100	-0.828221
0.291200	-0.805825
0.291300	-0.811992
0.291400	-0.885023
0.291500	-0.893462
0.291600	-0.855486
0.291700	-0.829844
0.291800	-0.803228
0.291900	-0.918780
0.292000	-1.070359
0.292100	-1.100221
0.292200	-1.088211
0.292300	-0.906445
0.292400	-0.950913
0.292500	-1.015180
0.292600	-0.991486
0.292700	-1.009663
0.292800	-0.990512
0.292900	-1.020374
0.293000	-1.013233
0.293100	-0.993433
0.293200	-0.992135
0.293300	-1.022646
0.293400	-1.017453
0.293500	-1.030436
0.293600	-1.027190
0.293700	-1.082044
0.293800	-1.059973
0.293900	-1.107686
0.294000	-1.145338
0.294100	-1.213176
0.294200	-1.319639
0.294300	-1.702970
0.294400	-1.986007
0.294500	-1.899018
0.294600	-1.629290
0.294700	-1.405653
0.294800	-1.531915
0.294900	-1.933749
0.295000	-2.233339
0.295100	-2.285272
0.295200	-2.178160
0.295300	-2.018465
0.295400	-2.015219
0.295500	-2.183678
0.295600	-2.410886
0.295700	-2.550457
0.295800	-2.535851
0.295900	-2.514428
0.296000	-2.498199
0.296100	-2.510533
0.296200	-2.554352
0.296300	-2.623164
0.296400	-2.631603
0.296500	-2.609856
0.296600	-2.659517
0.296700	-2.801685
0.296800	-2.841284
0.296900	-2.780587
0.297000	-2.789026
0.297100	-2.880559
0.297200	-2.952292
0.297300	-2.927948
0.297400	-2.749427
0.297500	-2.539421
0.297600	-2.572529
0.297700	-2.779938
0.297800	-3.115882
0.297900	-3.140226
0.298000	-2.935089
0.298100	-2.684185
0.298200	-2.563765
0.298300	-2.677369
0.298400	-2.927948
0.298500	-3.082450
0.298600	-3.082450
0.298700	-2.912368
0.298800	-2.738066
0.298900	-2.689379
0.299000	-2.748128
0.299100	-2.829924
0.299200	-2.809150
0.299300	-2.751374
0.299400	-2.679966
0.299500	-2.595899
0.299600	-2.501120
0.299700	-2.330389
0.299800	-2.163229
0.299900	-2.092794
0.300000	-2.066828
0.300100	-2.058713
0.300200	-1.969778
0.300300	-1.738675
0.300400	-1.608192
0.300500	-1.304708
0.300600	-1.264135
0.300700	-1.233624
0.300800	-1.169032
0.300900	-1.033032
0.301000	-0.861004
0.301100	-0.706828
0.301200	-0.608479
0.301300	-0.559143
0.301400	-0.558494
0.301500	-0.548756
0.301600	-0.486761
0.301700	-0.494876
0.301800	-0.397826
0.301900	-0.344270
0.302000	-0.336804
0.302100	-0.310513
0.302200	-0.344594
0.302300	-0.349788
0.302400	-0.405940
0.302500	-0.275458
0.302600	0.048150
0.302700	0.290937
0.302800	0.532425
0.302900	0.028350
0.303000	-0.196910
0.303100	-0.254036
0.303200	0.069247
0.303300	0.273409
0.303400	0.452903
0.303500	0.343843
0.303600	0.138059
0.303700	0.076064
0.303800	0.161429
0.303900	0.380197
0.304000	0.442516
0.304100	0.455175
0.304200	0.383442
0.304300	0.264646
0.304400	0.282498
0.304500	0.281848
0.304600	0.354879
0.304700	0.297104
0.304800	0.253610
0.304900	0.169868
0.305000	0.223424
0.305100	0.013419
0.305200	-0.094017
0.305300	-0.137186
0.305400	-0.082657
0.305500	-0.030399
0.305600	-0.040137
0.305700	-0.069024
0.305800	-0.370561
0.305900	-0.607505
0.306000	-0.568556
0.306100	-0.360823
0.306200	-0.183926
0.306300	-0.345243
0.306400	-0.599066
0.306500	-0.831792
0.306600	-0.874961
0.306700	-0.767849
0.306800	-0.604909
0.306900	-0.580565
0.307000	-0.640288
0.307100	-0.786026
0.307200	-0.842178
0.307300	-0.908718
0.307400	-0.823352
0.307500	-0.819782
0.307600	-0.826598
0.307700	-0.907744
0.307800	-0.994083
0.307900	-0.975257
0.308000	-0.989214
0.308100	-0.981749
0.308200	-0.959028
0.308300	-0.922675
0.308400	-0.911314
0.308500	-0.906445
0.308600	-1.034331
0.308700	-1.147285
0.308800	-1.133978
0.308900	-1.052183
0.309000	-0.967467
0.309100	-1.068087
0.309200	-1.077176
0.309300	-1.063543
0.309400	-1.073605
0.309500	-1.067763
0.309600	-1.068737
0.309700	-1.067438
0.309800	-1.059648
0.309900	-1.079772
0.310000	-1.052507
0.310100	-1.063219
0.310200	-1.026216
0.310300	-1.038875
0.310400	-1.064192
0.310500	-1.029787
0.310600	-1.067763
0.310700	-1.054779
0.310800	-1.157023
0.310900	-1.298865
0.311000	-1.664994
0.311100	-1.874675
0.311200	-1.770159
0.311300	-1.472192
0.311400	-1.306655
0.311500	-1.526398
0.311600	-1.853252
0.311700	-2.242427
0.311800	-2.234637
0.311900	-2.112269
0.312000	-1.938293
0.312100	-1.974971
0.312200	-2.174265
0.312300	-2.415106
0.312400	-2.558247
0.312500	-2.498848
0.312600	-2.433607
0.312700	-2.406017
0.312800	-2.451459
0.312900	-2.509235
0.313000	-2.505664
0.313100	-2.429063
0.313200	-2.416079
0.313300	-2.531956
0.313400	-2.570581
0.313500	-2.407640
0.313600	-2.395306
0.313700	-2.444318
0.313800	-2.537149
0.313900	-2.521569
0.314000	-2.481970
0.314100	-2.236260
0.314200	-2.083382
0.314300	-2.191468
0.314400	-2.385244
0.314500	-2.680290
0.314600	-2.613426
0.314700	-2.369664
0.314800	-2.167773
0.314900	-2.189845
0.315000	-2.370638
0.315100	-2.561493
0.315200	-2.663737
0.315300	-2.671851
0.315400	-2.587784
0.315500	-2.471908
0.315600	-2.412184
0.315700	-2.453082
0.315800	-2.527087
0.315900	-2.546237
0.316000	-2.529359
0.316100	-2.450485
0.316200	-2.378103
0.316300	-2.259955
0.316400	-2.128823
0.316500	-2.030475
0.316600	-1.994770
0.316700	-1.961663
0.316800	-1.967830
0.316900	-1.890904
0.317000	-1.697128
0.317100	-1.611114
0.317200	-1.274522
0.317300	-1.285882
0.317400	-1.295944
0.317500	-1.211553
0.317600	-1.103791
0.317700	-0.975257
0.317800	-0.825949
0.317900	-0.788947
0.318000	-0.734417
0.318100	-0.816861
0.318200	-0.788298
0.318300	-0.831467
0.318400	-0.809395
0.318500	-0.764279
0.318600	-0.702283
0.318700	-0.706828
0.318800	-0.744154
0.318900	-0.763305
0.319000	-0.832116
0.319100	-0.834713
0.319200	-0.720460
0.319300	-0.382895
0.319400	-0.082332
0.319500	-0.117062
0.319600	-0.502666
0.319700	-0.776288
0.319800	-0.648078
0.319900	-0.392308
0.320000	-0.035917
0.320100	-0.013196
0.320200	-0.078437
0.320300	-0.358551
0.320400	-0.411133
0.320500	-0.309215
0.320600	-0.048900
0.320700	0.060808
0.320800	0.040035
0.320900	-0.040137
0.321000	-0.102456
0.321100	-0.102456
0.321200	-0.047277
0.321300	-0.025206
0.321400	-0.080060
0.321500	-0.119335
0.321600	-0.115115
0.321700	-0.084604
0.321800	-0.331611
0.321900	-0.442293
0.322000	-0.496498
0.322100	-0.479620
0.322200	-0.341024
0.322300	-0.419573
0.322400	-0.457873
0.322500	-0.799009
0.322600	-0.918780
0.322700	-0.846722
0.322800	-0.621463
0.322900	-0.420222
0.323000	-0.638341
0.323100	-0.878207
0.323200	-1.063219
0.323300	-0.999601
0.323400	-0.846398
0.323500	-0.684431
0.323600	-0.702283
0.323700	-0.738312
0.323800	-0.850293
0.323900	-0.907095
0.324000	-0.959028
0.324100	-0.855486
0.324200	-0.854837
0.324300	-0.864250
0.324400	-0.933710
0.324500	-1.009987
0.324600	-1.003820
0.324700	-1.030111
0.324800	-1.000250
0.324900	-0.981099
0.325000	-0.910990
0.325100	-0.899305
0.325200	-0.912288
0.325300	-1.088536
0.325400	-1.194025
0.325500	-1.181042
0.325600	-0.993758
0.325700	-0.980126
0.325800	-1.087562
0.325900	-1.117099
0.326000	-1.092756
0.326100	-1.113529
0.326200	-1.108011
0.326300	-1.115801
0.326400	-1.149557
0.326500	-1.164488
0.326600	-1.196946
0.326700	-1.205710
0.326800	-1.226483
0.326900	-1.232001
0.327000	-1.255047
0.327100	-1.265758
0.327200	-1.269328
0.327300	-1.282961
0.327400	-1.326779
0.327500	-1.338464
0.327600	-1.539381
0.327700	-1.883114
0.327800	-1.989577
0.327900	-1.795801
0.328000	-1.597481
0.328100	-1.438760
0.328200	-1.619553
0.328300	-1.989577
0.328400	-2.251840
0.328500	-2.176537
0.328600	-1.975620
0.328700	-1.796775
0.328800	-1.852603
0.328900	-2.017491
0.329000	-2.295010
0.329100	-2.389788
0.329200	-2.352786
0.329300	-2.252814
0.329400	-2.240804
0.329500	-2.283649
0.329600	-2.359277
0.329700	-2.330389
0.329800	-2.305721
0.329900	-2.317731
0.330000	-2.378103
0.330100	-2.423220
0.330200	-2.323573
0.330300	-2.293387
0.330400	-2.408289
0.330500	-2.449187
0.330600	-2.444967
0.330700	-2.359602
0.330800	-2.124279
0.330900	-2.033071
0.331000	-2.206723
0.331100	-2.464442
0.331200	-2.757217
0.331300	-2.675097
0.331400	-2.412834
0.331500	-2.278456
0.331600	-2.353110
0.331700	-2.547536
0.331800	-2.766630
0.331900	-2.888349
0.332000	-2.920158
0.332100	-2.826029
0.332200	-2.718267
0.332300	-2.664710
0.332400	-2.729952
0.332500	-2.839337
0.332600	-2.926974
0.332700	-2.932817
0.332800	-2.835766
0.332900	-2.786754
0.333000	-2.683536
0.333100	-2.572853
0.333200	-2.519622
0.333300	-2.520595
0.333400	-2.524166
0.333500	-2.500471
0.333600	-2.369664
0.333700	-2.189520
0.333800	-2.051572
0.333900	-1.786713
0.334000	-1.816250
0.334100	-1.782493
0.334200	-1.665319
0.334300	-1.514713
0.334400	-1.377739
0.334500	-1.218693
0.334600	-1.128784
0.334700	-1.084966
0.334800	-1.111581
0.334900	-1.092431
0.335000	-1.132030
0.335100	-1.104116
0.335200	-1.051858
0.335300	-0.935333
0.335400	-0.955133
0.335500	-0.898655
0.335600	-0.960002
0.335700	-0.979476
0.335800	-0.901577
0.335900	-0.863276
0.336000	-0.356604
0.336100	-0.249492
0.336200	-0.139134
0.336300	-0.664956
0.336400	-0.707152
0.336500	-0.588031
0.336600	-0.183926
0.336700	0.062107
0.336800	0.153639
0.336900	0.020885
0.337000	-0.187172
0.337100	-0.193988
0.337200	-0.029425
0.337300	0.146822
0.337400	0.316579
0.337500	0.349686
0.337600	0.325342
0.337700	0.266593
0.337800	0.299051
0.337900	0.320474
0.338000	0.343519
0.338100	0.324044
0.338200	0.380846
0.338300	0.474974
0.338400	0.387013
0.338500	0.114040
0.338600	0.115013
0.338700	0.064379
0.338800	0.157209
0.338900	0.254908
0.339000	0.111443
0.339100	0.067949
0.339200	-0.311162
0.339300	-0.300776
0.339400	-0.222551
0.339500	0.117286
0.339600	0.112741
0.339700	0.055290
0.339800	-0.302723
0.339900	-0.320900
0.340000	-0.304671
0.340100	-0.147249
0.340200	-0.055716
0.340300	-0.054418
0.340400	-0.089473
0.340500	-0.168022
0.340600	-0.234236
0.340700	-0.281950
0.340800	-0.224174
0.340900	-0.248193
0.341000	-0.239105
0.341100	-0.292337
0.341200	-0.304021
0.341300	-0.319601
0.341400	-0.375429
0.341500	-0.384193
0.341600	-0.382246
0.341700	-0.315057
0.341800	-0.289740
0.341900	-0.345568
0.342000	-0.507534
0.342100	-0.555248
0.342200	-0.568880
0.342300	-0.554599
0.342400	-0.426713
0.342500	-0.469234
0.342600	-0.502666
0.342700	-0.491305
0.342800	-0.494551
0.342900	-0.542914
0.343000	-0.548432
0.343100	-0.574074
0.343200	-0.584460
0.343300	-0.582188
0.343400	-0.594198
0.343500	-0.603286
0.343600	-0.605883
0.343700	-0.652298
0.343800	-0.669501
0.343900	-0.729548
0.344000	-0.823352
0.344100	-0.881453
0.344200	-0.966493
0.344300	-1.217395
0.344400	-1.619877
0.344500	-1.687066
0.344600	-1.474789
0.344700	-1.243686
0.344800	-1.163515
0.344900	-1.523476
0.345000	-1.867534
0.345100	-2.108699
0.345200	-2.026255
0.345300	-1.861042
0.345400	-1.803591
0.345500	-1.917195
0.345600	-2.174265
0.345700	-2.386867
0.345800	-2.415430
0.345900	-2.379077
0.346000	-2.321301
0.346100	-2.381024
0.346200	-2.456003
0.346300	-2.483593
0.346400	-2.495602
0.346500	-2.503068
0.346600	-2.596872
0.346700	-2.748778
0.346800	-2.734171
0.346900	-2.703011
0.347000	-2.693923
0.347100	-2.830248
0.347200	-2.909447
0.347300	-2.935089
0.347400	-2.827002
0.347500	-2.579994
0.347600	-2.545913
0.347700	-2.736443
0.347800	-3.073037
0.347900	-3.243769
0.348000	-3.082125
0.348100	-2.833169
0.348200	-2.752997
0.348300	-2.846802
0.348400	-3.047395
0.348500	-3.181124
0.348600	-3.228513
0.348700	-3.214880
0.348800	-3.093486
0.348900	-3.005524
0.349000	-2.978908
0.349100	-3.035061
0.349200	-3.057782
0.349300	-3.055834
0.349400	-3.050641
0.349500	-2.957810
0.349600	-2.869198
0.349700	-2.778315
0.349800	-2.612128
0.349900	-2.544614
0.350000	-2.491707
0.350100	-2.444967
0.350200	-2.420299
0.350300	-2.251840
0.350400	-2.060985
0.350500	-1.734780
0.350600	-1.656880
0.350700	-1.678302
0.350800	-1.634484
0.350900	-1.511142
0.351000	-1.353720
0.351100	-1.194350
0.351200	-1.099896
0.351300	-1.029137
0.351400	-0.997328
0.351500	-1.015830
0.351600	-0.977854
0.351700	-1.013558
0.351800	-0.948317
0.351900	-0.915209
0.352000	-0.865224
0.352100	-0.836985
0.352200	-0.848670
0.352300	-0.836011
0.352400	-0.909042
0.352500	-0.812966
0.352600	-0.576021
0.352700	-0.285196
0.352800	-0.024232
0.352900	-0.334208
0.353000	-0.541615
0.353100	-0.762331
0.353200	-0.387764
0.353300	-0.250466
0.353400	0.099109
0.353500	0.090021
0.353600	-0.120308
0.353700	-0.282275
0.353800	-0.276757
0.353900	-0.044356
0.354000	0.116961
0.354100	0.237705
0.354200	0.252311
0.354300	0.224397
0.354400	0.220827
0.354500	0.319500
0.354600	0.402593
0.354700	0.409734
0.354800	0.395777
0.354900	0.389934
0.355000	0.530153
0.355100	0.375328
0.355200	0.323719
0.355300	0.197782
0.355400	0.337352
0.355500	0.267567
0.355600	0.386039
0.355700	0.263996
0.355800	0.118584
0.355900	-0.309864
0.356000	-0.227420
0.356100	-0.214762
0.356200	0.167271
0.356300	0.075090
0.356400	-0.148222
0.356500	-0.466312
0.356600	-0.520842
0.356700	-0.481243
0.356800	-0.347840
0.356900	-0.340050
0.357000	-0.415028
0.357100	-0.522790
0.357200	-0.647429
0.357300	-0.702608
0.357400	-0.785052
0.357500	-0.747076
0.357600	-0.830169
0.357700	-0.882102
0.357800	-0.937930
0.357900	-0.934360
0.358000	-0.964221
0.358100	-1.058999
0.358200	-1.100221
0.358300	-1.105414
0.358400	-1.099896
0.358500	-1.087562
0.358600	-1.176498
0.358700	-1.339763
0.358800	-1.392020
0.358900	-1.423830
0.359000	-1.431944
0.359100	-1.331324
0.359200	-1.379686
0.359300	-1.357939
0.359400	-1.379686
0.359500	-1.392020
0.359600	-1.395591
0.359700	-1.378388
0.359800	-1.390722
0.359900	-1.392020
0.360000	-1.392670
0.360100	-1.426426
0.360200	-1.427725
0.360300	-1.429023
0.360400	-1.420259
0.360500	-1.429672
0.360600	-1.429347
0.360700	-1.442331
0.360800	-1.465051
0.360900	-1.561128
0.361000	-1.822417
0.361100	-2.125253
0.361200	-2.057090
0.361300	-1.824689
0.361400	-1.569892
0.361500	-1.608842
0.361600	-1.879219
0.361700	-2.233988
0.361800	-2.356031
0.361900	-2.272289
0.362000	-2.086952
0.362100	-2.001911
0.362200	-2.139534
0.362300	-2.353759
0.362400	-2.556624
0.362500	-2.609207
0.362600	-2.551106
0.362700	-2.526762
0.362800	-2.572853
0.362900	-2.661789
0.363000	-2.726057
0.363100	-2.744558
0.363200	-2.758515
0.363300	-2.862382
0.363400	-2.901007
0.363500	-2.864329
0.363600	-2.799737
0.363700	-2.862382
0.363800	-2.963652
0.363900	-3.013963
0.364000	-2.987996
0.364100	-2.858162
0.364200	-2.638744
0.364300	-2.667956
0.364400	-2.828301
0.364500	-3.145419
0.364600	-3.255778
0.364700	-3.037982
0.364800	-2.782210
0.364900	-2.761436
0.365000	-2.879585
0.365100	-3.065896
0.365200	-3.158403
0.365300	-3.157104
0.365400	-3.095109
0.365500	-2.970144
0.365600	-2.865303
0.365700	-2.803632
0.365800	-2.829599
0.365900	-2.838363
0.366000	-2.818239
0.366100	-2.754296
0.366200	-2.642963
0.366300	-2.489111
0.366400	-2.352786
0.366500	-2.201854
0.366600	-2.115840
0.366700	-2.053845
0.366800	-1.958417
0.366900	-1.923687
0.367000	-1.735429
0.367100	-1.581577
0.367200	-1.230378
0.367300	-1.186884
0.367400	-1.187534
0.367500	-1.127161
0.367600	-0.990512
0.367700	-0.895085
0.367800	-0.719811
0.367900	-0.601014
0.368000	-0.529930
0.368100	-0.542265
0.368200	-0.487735
0.368300	-0.429310
0.368400	-0.471181
0.368500	-0.364069
0.368600	-0.342322
0.368700	-0.261177
0.368800	-0.299802
0.368900	-0.234561
0.369000	-0.330313
0.369100	-0.365367
0.369200	-0.255983
0.369300	-0.115115
0.369400	0.367213
0.369500	0.232187
0.369600	0.213362
0.369700	-0.285196
0.369800	-0.184251
0.369900	-0.028776
0.370000	0.290937
0.370100	0.389609
0.370200	0.349361
0.370300	0.149744
0.370400	0.004007
0.370500	0.106250
0.370600	0.281199
0.370700	0.402917
0.370800	0.490554
0.370900	0.377925
0.371000	0.322421
0.371100	0.323070
0.371200	0.312034
0.371300	0.326965
0.371400	0.284445
0.371500	0.218230
0.371600	0.164999
0.371700	0.231863
0.371800	0.053018
0.371900	-0.105377
0.372000	-0.194313
0.372100	-0.179058
0.372200	-0.115440
0.372300	-0.130695
0.372400	-0.203726
0.372500	-0.427687
0.372600	-0.704555
0.372700	-0.680212
0.372800	-0.529281
0.372900	-0.262475
0.373000	-0.376728
0.373100	-0.614646
0.373200	-0.888269
0.373300	-0.845424
0.373400	-0.784078
0.373500	-0.667229
0.373600	-0.692546
0.373700	-0.758436
0.373800	-0.849644
0.373900	-0.923648
0.374000	-1.015505
0.374100	-1.053806
0.374200	-1.067114
0.374300	-1.105414
0.374400	-1.162216
0.374500	-1.187858
0.374600	-1.192078
0.374700	-1.231352
0.374800	-1.326779
0.374900	-1.315419
0.375000	-1.284908
0.375100	-1.269653
0.375200	-1.269004
0.375300	-1.348526
0.375400	-1.494588
0.375500	-1.511142
0.375600	-1.531591
0.375700	-1.484851
0.375800	-1.401758
0.375900	-1.464727
0.376000	-1.462130
0.376100	-1.488097
0.376200	-1.483228
0.376300	-1.503677
0.376400	-1.507247
0.376500	-1.523476
0.376600	-1.565023
0.376700	-1.568593
0.376800	-1.595858
0.376900	-1.598455
0.377000	-1.626369
0.377100	-1.617281
0.377200	-1.673433
0.377300	-1.678951
0.377400	-1.763018
0.377500	-1.765615
0.377600	-1.885711
0.377700	-2.197310
0.377800	-2.401798
0.377900	-2.388490
0.378000	-2.017816
0.378100	-1.892527
0.378200	-1.918818
0.378300	-2.286895
0.378400	-2.556624
0.378500	-2.545588
0.378600	-2.400175
0.378700	-2.169721
0.378800	-2.133367
0.378900	-2.262551
0.379000	-2.470285
0.379100	-2.561817
0.379200	-2.493006
0.379300	-2.339802
0.379400	-2.301177
0.379500	-2.354084
0.379600	-2.452108
0.379700	-2.451784
0.379800	-2.391086
0.379900	-2.393034
0.380000	-2.471583
0.380100	-2.525139
0.380200	-2.470934
0.380300	-2.399850
0.380400	-2.421597
0.380500	-2.546887
0.380600	-2.549483
0.380700	-2.532605
0.380800	-2.265797
0.380900	-2.126876
0.381000	-2.156413
0.381100	-2.365769
0.381200	-2.656596
0.381300	-2.646209
0.381400	-2.420948
0.381500	-2.194389
0.381600	-2.208346
0.381700	-2.361874
0.381800	-2.544614
0.381900	-2.712100
0.382000	-2.750076
0.382100	-2.659842
0.382200	-2.556624
0.382300	-2.525789
0.382400	-2.613102
0.382500	-2.713073
0.382600	-2.778964
0.382700	-2.803308
0.382800	-2.743260
0.382900	-2.666009
0.383000	-2.597846
0.383100	-2.517025
0.383200	-2.445941
0.383300	-2.378428
0.383400	-2.356681
0.383500	-2.346943
0.383600	-2.274561
0.383700	-2.059687
0.383800	-1.963286
0.383900	-1.661749
0.384000	-1.659476
0.384100	-1.657204
0.384200	-1.604947
0.384300	-1.495887
0.384400	-1.389748
0.384500	-1.236221
0.384600	-1.162216
0.384700	-1.121319
0.384800	-1.168708
0.384900	-1.151505
0.385000	-1.145987
0.385100	-1.091457
0.385200	-1.028164
0.385300	-0.908068
0.385400	-0.898655
0.385500	-0.854837
0.385600	-0.898980
0.385700	-0.911314
0.385800	-0.883400
0.385900	-0.803228
0.386000	-0.447162
0.386100	-0.127774
0.386200	-0.008328
0.386300	-0.326418
0.386400	-0.643859
0.386500	-0.638341
0.386600	-0.331286
0.386700	0.012770
0.386800	0.171491
0.386900	0.082880
0.387000	-0.102132
0.387100	-0.182628
0.387200	-0.035268
0.387300	0.180579
0.387400	0.331509
0.387500	0.416874
0.387600	0.337676
0.387700	0.346116
0.387800	0.310412
0.387900	0.411032
0.388000	0.505485
0.388100	0.511003
0.388200	0.477247
0.388300	0.489581
0.388400	0.547032
0.388500	0.313008
0.388600	0.229266
0.388700	0.162402
0.388800	0.305543
0.388900	0.344168
0.389000	0.333781
0.389100	0.172140
0.389200	-0.065129
0.389300	-0.319926
0.389400	-0.193339
0.389500	-0.000213
0.389600	0.132541
0.389700	-0.044032
0.389800	-0.325119
0.389900	-0.518245
0.390000	-0.552976
0.390100	-0.526360
0.390200	-0.447162
0.390300	-0.458522
0.390400	-0.533825
0.390500	-0.725329
0.390600	-0.839582
0.390700	-0.996030
0.390800	-0.978503
0.390900	-1.039524
0.391000	-1.066140
0.391100	-1.202140
0.391200	-1.269653
0.391300	-1.351448
0.391400	-1.458235
0.391500	-1.528345
0.391600	-1.554961
0.391700	-1.556259
0.391800	-1.579305
0.391900	-1.619228
0.392000	-1.791257
0.392100	-1.923038
0.392200	-1.953548
0.392300	-2.013921
0.392400	-1.937644
0.392500	-1.945434
0.392600	-1.968479
0.392700	-1.961988
0.392800	-1.949653
0.392900	-1.954522
0.393000	-1.962312
0.393100	-1.966207
0.393200	-1.964584
0.393300	-1.974971
0.393400	-1.983735
0.393500	-2.002236
0.393600	-1.978217
0.393700	-2.009052
0.393800	-1.973997
0.393900	-2.025930
0.394000	-1.976918
0.394100	-2.034694
0.394200	-2.056766
0.394300	-2.169721
0.394400	-2.517349
0.394500	-2.681913
0.394600	-2.508910
0.394700	-2.169721
0.394800	-1.981463
0.394900	-2.206723
0.395000	-2.493330
0.395100	-2.772797
0.395200	-2.695870
0.395300	-2.470285
0.395400	-2.258981
0.395500	-2.297606
0.395600	-2.526762
0.395700	-2.702362
0.395800	-2.797465
0.395900	-2.727355
0.396000	-2.643288
0.396100	-2.651727
0.396200	-2.692300
0.396300	-2.744558
0.396400	-2.762735
0.396500	-2.721188
0.396600	-2.741961
0.396700	-2.876339
0.396800	-2.933141
0.396900	-2.900034
0.397000	-2.864979
0.397100	-2.914965
0.397200	-3.035061
0.397300	-3.099653
0.397400	-3.027920
0.397500	-2.826029
0.397600	-2.721513
0.397700	-2.890621
0.397800	-3.152236
0.397900	-3.370357
0.398000	-3.306413
0.398100	-3.071739
0.398200	-2.968846
0.398300	-2.937361
0.398400	-3.086670
0.398500	-3.252532
0.398600	-3.317774
0.398700	-3.300895
0.398800	-3.172360
0.398900	-3.029218
0.399000	-2.952616
0.399100	-2.974688
0.399200	-2.994812
0.399300	-3.008445
0.399400	-2.959757
0.399500	-2.877637
0.399600	-2.784482
0.399700	-2.632577
0.399800	-2.477101
0.399900	-2.336881
0.400000	-2.274886
0.400100	-2.225224
0.400200	-2.198933
0.400300	-2.057740
0.400400	-1.801644
0.400500	-1.635457
0.400600	-1.386503
0.400700	-1.398188
0.400800	-1.336192
0.400900	-1.225834
0.401000	-1.088211
0.401100	-0.941500
0.401200	-0.781806
0.401300	-0.697739
0.401400	-0.682808
0.401500	-0.650675
0.401600	-0.650675
0.401700	-0.608804
0.401800	-0.601988
0.401900	-0.503315
0.402000	-0.426064
0.402100	-0.465988
0.402200	-0.348165
0.402300	-0.483840
0.402400	-0.385492
0.402500	-0.452680
0.402600	-0.243649
0.402700	-0.027478
0.402800	0.355204
0.402900	0.304245
0.403000	-0.122905
0.403100	-0.256633
0.403200	-0.262800
0.403300	0.051071
0.403400	0.312684
0.403500	0.318851
0.403600	0.120207
0.403700	-0.035592
0.403800	-0.135888
0.403900	0.059185
0.404000	0.174087
0.404100	0.298727
0.404200	0.221476
0.404300	0.125400
0.404400	0.098135
0.404500	0.006279
0.404600	0.018937
0.404700	0.025754
0.404800	-0.063506
0.404900	-0.144652
0.405000	-0.153416
0.405100	-0.151468
0.405200	-0.372508
0.405300	-0.438074
0.405400	-0.524413
0.405500	-0.414379
0.405600	-0.335506
0.405700	-0.284222
0.405800	-0.422494
0.405900	-0.712670
0.406000	-0.838932
0.406100	-0.703906
0.406200	-0.390360
0.406300	-0.270914
0.406400	-0.475401
0.406500	-0.710723
0.406600	-0.901901
0.406700	-0.853863
0.406800	-0.705854
0.406900	-0.564985
0.407000	-0.564336
0.407100	-0.665930
0.407200	-0.825949
0.407300	-0.867820
0.407400	-0.910016
0.407500	-0.782131
0.407600	-0.826923
0.407700	-0.857758
0.407800	-1.007066
0.407900	-1.045367
0.408000	-1.053481
0.408100	-1.098273
0.408200	-1.111257
0.408300	-1.103791
0.408400	-1.082694
0.408500	-1.042121
0.408600	-1.080421
0.408700	-1.255371
0.408800	-1.349176
0.408900	-1.351772
0.409000	-1.261538
0.409100	-1.229405
0.409200	-1.299514
0.409300	-1.308278
0.409400	-1.321261
0.409500	-1.320612
0.409600	-1.305682
0.409700	-1.265109
0.409800	-1.270302
0.409900	-1.276145
0.410000	-1.257319
0.410100	-1.255696
0.410200	-1.239791
0.410300	-1.219343
0.410400	-1.198569
0.410500	-1.149233
0.410600	-1.177472
0.410700	-1.185586
0.410800	-1.196622
0.410900	-1.199868
0.411000	-1.370598
0.411100	-1.717901
0.411200	-1.868832
0.411300	-1.633834
0.411400	-1.384880
0.411500	-1.294970
0.411600	-1.586121
0.411700	-1.957443
0.411800	-2.213864
0.411900	-2.191468
0.412000	-1.988603
0.412100	-1.882789
0.412200	-1.959066
0.412300	-2.240480
0.412400	-2.473855
0.412500	-2.579994
0.412600	-2.556949
0.412700	-2.484567
0.412800	-2.529359
0.412900	-2.602390
0.413000	-2.714696
0.413100	-2.761436
0.413200	-2.720214
0.413300	-2.740663
0.413400	-2.876664
0.413500	-2.852320
0.413600	-2.827002
0.413700	-2.813045
0.413800	-2.911394
0.413900	-3.024674
0.414000	-3.038631
0.414100	-2.962029
0.414200	-2.713073
0.414300	-2.595899
0.414400	-2.752348
0.414500	-3.029218
0.414600	-3.220074
0.414700	-3.092188
0.414800	-2.821484
0.414900	-2.695546
0.415000	-2.682887
0.415100	-2.857189
0.415200	-3.049342
0.415300	-3.148341
0.415400	-3.088293
0.415500	-2.903604
0.415600	-2.765331
0.415700	-2.758840
0.415800	-2.818563
0.415900	-2.883805
0.416000	-2.885752
0.416100	-2.814019
0.416200	-2.712100
0.416300	-2.622190
0.416400	-2.457951
0.416500	-2.338179
0.416600	-2.279430
0.416700	-2.273912
0.416800	-2.243076
0.416900	-2.238208
0.417000	-2.082732
0.417100	-1.933749
0.417200	-1.872078
0.417300	-1.592937
0.417400	-1.619228
0.417500	-1.584822
0.417600	-1.484526
0.417700	-1.347228
0.417800	-1.185586
0.417900	-1.081720
0.418000	-0.971686
0.418100	-0.955457
0.418200	-0.976880
0.418300	-0.935982
0.418400	-0.929491
0.418500	-0.933386
0.418600	-0.841529
0.418700	-0.810045
0.418800	-0.758111
0.418900	-0.862302
0.419000	-0.785376
0.419100	-0.971686
0.419200	-0.834064
0.419300	-0.740584
0.419400	-0.307916
0.419500	-0.145626
0.419600	-0.249492
0.419700	-0.656842
0.419800	-0.882426
0.419900	-0.705854
0.420000	-0.364069
0.420100	-0.158933
0.420200	-0.108948
0.420300	-0.361472
0.420400	-0.418599
0.420500	-0.516947
0.420600	-0.318303
0.420700	-0.193015
0.420800	-0.089473
0.420900	-0.012872
0.421000	-0.090771
0.421100	-0.138160
0.421200	-0.206322
0.421300	-0.163153
0.421400	-0.119984
0.421500	-0.097263
0.421600	-0.108299
0.421700	-0.139459
0.421800	-0.073568
0.421900	-0.350761
0.422000	-0.327067
0.422100	-0.443916
0.422200	-0.307916
0.422300	-0.304346
0.422400	-0.294933
0.422500	-0.477673
0.422600	-0.766226
0.422700	-0.723057
0.422800	-0.681835
0.422900	-0.340375
0.423000	-0.403668
0.423100	-0.553300
0.423200	-0.843477
0.423300	-0.972011
0.423400	-0.960975
0.423500	-0.787324
0.423600	-0.735715
0.423700	-0.762006
0.423800	-0.950264
0.423900	-1.052832
0.424000	-1.129109
0.424100	-1.162865
0.424200	-1.159620
0.424300	-1.249204
0.424400	-1.290426
0.424500	-1.371572
0.424600	-1.361834
0.424700	-1.366378
0.424800	-1.469920
0.424900	-1.519906
0.425000	-1.478359
0.425100	-1.453042
0.425200	-1.438111
0.425300	-1.503028
0.425400	-1.680899
0.425500	-1.733481
0.425600	-1.767562
0.425700	-1.646493
0.425800	-1.583200
0.425900	-1.636756
0.426000	-1.608192
0.426100	-1.600727
0.426200	-1.560803
0.426300	-1.531915
0.426400	-1.488097
0.426500	-1.460832
0.426600	-1.417662
0.426700	-1.381958
0.426800	-1.339438
0.426900	-1.293997
0.427000	-1.253099
0.427100	-1.214149
0.427200	-1.182340
0.427300	-1.146312
0.427400	-1.181367
0.427500	-1.160918
0.427600	-1.218369
0.427700	-1.481281
0.427800	-1.831181
0.427900	-1.837348
0.428000	-1.549768
0.428100	-1.380011
0.428200	-1.400135
0.428300	-1.736403
0.428400	-2.121358
0.428500	-2.278131
0.428600	-2.215162
0.428700	-2.000613
0.428800	-1.968479
0.428900	-2.088900
0.429000	-2.361225
0.429100	-2.536824
0.429200	-2.567335
0.429300	-2.567660
0.429400	-2.560519
0.429500	-2.591030
0.429600	-2.627059
0.429700	-2.670878
0.429800	-2.724109
0.429900	-2.714696
0.430000	-2.730926
0.430100	-2.831222
0.430200	-2.922755
0.430300	-2.835766
0.430400	-2.815966
0.430500	-2.859461
0.430600	-2.933466
0.430700	-2.980531
0.430800	-2.803632
0.430900	-2.572529
0.431000	-2.466065
0.431100	-2.663412
0.431200	-2.970468
0.431300	-3.061677
0.431400	-2.891270
0.431500	-2.631603
0.431600	-2.425817
0.431700	-2.497874
0.431800	-2.729627
0.431900	-2.917886
0.432000	-2.955213
0.432100	-2.799088
0.432200	-2.643937
0.432300	-2.640367
0.432400	-2.705283
0.432500	-2.743909
0.432600	-2.745856
0.432700	-2.730601
0.432800	-2.725083
0.432900	-2.672176
0.433000	-2.583240
0.433100	-2.466065
0.433200	-2.320003
0.433300	-2.247621
0.433400	-2.221329
0.433500	-2.213864
0.433600	-2.210943
0.433700	-2.002236
0.433800	-1.845138
0.433900	-1.761720
0.434000	-1.475114
0.434100	-1.474789
0.434200	-1.397863
0.434300	-1.270302
0.434400	-1.134627
0.434500	-0.961300
0.434600	-0.871715
0.434700	-0.811992
0.434800	-0.824326
0.434900	-0.821080
0.435000	-0.774665
0.435100	-0.808097
0.435200	-0.783429
0.435300	-0.736365
0.435400	-0.704231
0.435500	-0.683133
0.435600	-0.683782
0.435700	-0.745777
0.435800	-0.728899
0.435900	-0.707477
0.436000	-0.404642
0.436100	-0.260528
0.436200	0.076064
0.436300	-0.250790
0.436400	-0.568231
0.436500	-0.684107
0.436600	-0.449759
0.436700	-0.174838
0.436800	0.103653
0.436900	-0.040461
0.437000	-0.153416
0.437100	-0.370236
0.437200	-0.340375
0.437300	-0.193664
0.437400	0.011472
0.437500	-0.004757
0.437600	-0.000538
0.437700	-0.095965
0.437800	-0.135239
0.437900	-0.135239
0.438000	-0.150819
0.438100	-0.167048
0.438200	-0.219306
0.438300	-0.311162
0.438400	-0.311811
0.438500	-0.366666
0.438600	-0.574074
0.438700	-0.646131
0.438800	-0.725978
0.438900	-0.674694
0.439000	-0.616918
0.439100	-0.725653
0.439200	-0.971037
0.439300	-1.309901
0.439400	-1.285557
0.439500	-1.142417
0.439600	-0.859056
0.439700	-0.955782
0.439800	-1.119696
0.439900	-1.488746
0.440000	-1.578980
0.440100	-1.460832
0.440200	-1.243037
0.440300	-1.125538
0.440400	-1.228106
0.440500	-1.362483
0.440600	-1.436164
0.440700	-1.506273
0.440800	-1.466350
0.440900	-1.457262
0.441000	-1.500756
0.441100	-1.605920
0.441200	-1.684145
0.441300	-1.694856
0.441400	-1.717252
0.441500	-1.749061
0.441600	-1.754255
0.441700	-1.706216
0.441800	-1.700049
0.441900	-1.665968
0.442000	-1.736727
0.442100	-1.868832
0.442200	-1.850331
0.442300	-1.838971
0.442400	-1.638054
0.442500	-1.627667
0.442600	-1.636106
0.442700	-1.565997
0.442800	-1.547820
0.442900	-1.491992
0.443000	-1.439409
0.443100	-1.430646
0.443200	-1.396240
0.443300	-1.374168
0.443400	-1.338789
0.443500	-1.312498
0.443600	-1.308278
0.443700	-1.255696
0.443800	-1.220316
0.443900	-1.211553
0.444000	-1.164164
0.444100	-1.241414
0.444200	-1.194674
0.444300	-1.282961
0.444400	-1.584822
0.444500	-1.870131
0.444600	-1.810083
0.444700	-1.543276
0.444800	-1.324183
0.444900	-1.395266
0.445000	-1.753930
0.445100	-2.084680
0.445200	-2.160308
0.445300	-2.075592
0.445400	-1.848708
0.445500	-1.854551
0.445600	-2.022360
0.445700	-2.296633
0.445800	-2.401149
0.445900	-2.362199
0.446000	-2.254761
0.446100	-2.295334
0.446200	-2.339802
0.446300	-2.386542
0.446400	-2.406666
0.446500	-2.415430
0.446600	-2.398552
0.446700	-2.450161
0.446800	-2.507287
0.446900	-2.615374
0.447000	-2.551431
0.447100	-2.520595
0.447200	-2.573178
0.447300	-2.650429
0.447400	-2.668281
0.447500	-2.501769
0.447600	-2.283325
0.447700	-2.324222
0.447800	-2.577722
0.447900	-2.892568
0.448000	-2.904578
0.448100	-2.800711
0.448200	-2.489111
0.448300	-2.392385
0.448400	-2.558896
0.448500	-2.810773
0.448600	-3.015910
0.448700	-2.919833
0.448800	-2.768577
0.448900	-2.634524
0.449000	-2.595250
0.449100	-2.652052
0.449200	-2.705283
0.449300	-2.686458
0.449400	-2.652701
0.449500	-2.580968
0.449600	-2.508261
0.449700	-2.330065
0.449800	-2.153167
0.449900	-2.025930
0.450000	-1.949329
0.450100	-1.940241
0.450200	-1.925959
0.450300	-1.861367
0.450400	-1.644546
0.450500	-1.493290
0.450600	-1.424479
0.450700	-1.247581
0.450800	-1.228431
0.450900	-1.142741
0.451000	-1.026216
0.451100	-0.936307
0.451200	-0.787648
0.451300	-0.697415
0.451400	-0.696116
0.451500	-0.707801
0.451600	-0.777586
0.451700	-0.741558
0.451800	-0.866197
0.451900	-0.777586
0.452000	-0.787648
0.452100	-0.741558
0.452200	-0.774341
0.452300	-0.873338
0.452400	-0.905147
0.452500	-0.969739
0.452600	-0.905796
0.452700	-0.694493
0.452800	-0.266370
0.452900	-0.286170
0.453000	-0.530904
0.453100	-1.067114
0.453200	-0.999925
0.453300	-0.721109
0.453400	-0.351410
0.453500	-0.301749
0.453600	-0.366666
0.453700	-0.686054
0.453800	-0.753567
0.453900	-0.641262
0.454000	-0.353358
0.454100	-0.220929
0.454200	-0.174513
0.454300	-0.236833
0.454400	-0.293959
0.454500	-0.232614
0.454600	-0.193339
0.454700	-0.166399
0.454800	-0.179058
0.454900	-0.223201
0.455000	-0.190418
0.455100	-0.197559
0.455200	-0.232289
0.455300	-0.298179
0.455400	-0.298504
0.455500	-0.358227
0.455600	-0.246571
0.455700	-0.210867
0.455800	-0.172241
0.455900	-0.417301
0.456000	-0.690274
0.456100	-0.659439
0.456200	-0.360174
0.456300	-0.169320
0.456400	-0.203401
0.456500	-0.478646
0.456600	-0.830818
0.456700	-0.788947
0.456800	-0.600365
0.456900	-0.323172
0.457000	-0.326093
0.457100	-0.545510
0.457200	-0.731496
0.457300	-0.711047
0.457400	-0.657167
0.457500	-0.548107
0.457600	-0.587381
0.457700	-0.707152
0.457800	-0.845099
0.457900	-0.852889
0.458000	-0.765901
0.458100	-0.814264
0.458200	-0.879505
0.458300	-0.935009
0.458400	-0.920078
0.458500	-0.903849
0.458600	-0.853214
0.458700	-0.979152
0.458800	-1.148259
0.458900	-1.210579
0.459000	-1.227133
0.459100	-1.065166
0.459200	-1.161567
0.459300	-1.231352
0.459400	-1.260889
0.459500	-1.288479
0.459600	-1.304708
0.459700	-1.342035
0.459800	-1.371572
0.459900	-1.412469
0.460000	-1.399810
0.460100	-1.434865
0.460200	-1.444603
0.460300	-1.497834
0.460400	-1.481605
0.460500	-1.496536
0.460600	-1.497185
0.460700	-1.531591
0.460800	-1.580927
0.460900	-1.641624
0.461000	-1.740622
0.461100	-2.123954
0.461200	-2.368690
0.461300	-2.249893
0.461400	-1.974646
0.461500	-1.762045
0.461600	-1.896746
0.461700	-2.342724
0.461800	-2.651727
0.461900	-2.699765
0.462000	-2.463793
0.462100	-2.282676
0.462200	-2.282676
0.462300	-2.484891
0.462400	-2.697493
0.462500	-2.773771
0.462600	-2.669904
0.462700	-2.594600
0.462800	-2.507287
0.462900	-2.541369
0.463000	-2.590381
0.463100	-2.615698
0.463200	-2.601092
0.463300	-2.551755
0.463400	-2.522218
0.463500	-2.605636
0.463600	-2.681913
0.463700	-2.658868
0.463800	-2.682563
0.463900	-2.744233
0.464000	-2.829599
0.464100	-2.868874
0.464200	-2.720539
0.464300	-2.590381
0.464400	-2.662763
0.464500	-2.979881
0.464600	-3.298623
0.464700	-3.418395
0.464800	-3.176580
0.464900	-2.886401
0.465000	-2.837389
0.465100	-3.094784
0.465200	-3.517718
0.465300	-3.699486
0.465400	-3.608602
0.465500	-3.362242
0.465600	-3.269411
0.465700	-3.338547
0.465800	-3.480715
0.465900	-3.551799
0.466000	-3.513174
0.466100	-3.451503
0.466200	-3.364189
0.466300	-3.318423
0.466400	-3.252532
0.466500	-3.113286
0.466600	-2.956511
0.466700	-2.870497
0.466800	-2.822783
0.466900	-2.800711
0.467000	-2.672825
0.467100	-2.413483
0.467200	-2.230742
0.467300	-1.916546
0.467400	-1.908756
0.467500	-1.847410
0.467600	-1.717252
0.467700	-1.541004
0.467800	-1.368001
0.467900	-1.137873
0.468000	-0.968765
0.468100	-0.906445
0.468200	-0.917157
0.468300	-0.831467
0.468400	-0.792842
0.468500	-0.652947
0.468600	-0.598093
0.468700	-0.382570
0.468800	-0.364069
0.468900	-0.246246
0.469000	-0.302074
0.469100	-0.259554
0.469200	-0.163802
0.469300	-0.092394
0.469400	0.347089
0.469500	0.627203
0.469600	0.799881
0.469700	0.369161
0.469800	0.148770
0.469900	0.360722
0.470000	0.652521
0.470100	0.995603
0.470200	0.989112
0.470300	0.946591
0.470400	0.699260
0.470500	0.694067
0.470600	0.848568
0.470700	1.080968
0.470800	1.306228
0.470900	1.310447
0.471000	1.253970
0.471100	1.148157
0.471200	1.118295
0.471300	1.151402
0.471400	1.266629
0.471500	1.307202
0.471600	1.337712
0.471700	1.290648
0.471800	1.235794
0.471900	1.113751
0.472000	1.080968
0.472100	0.983918
0.472200	0.919976
0.472300	0.987489
0.472400	0.882324
0.472500	0.889465
0.472600	0.491528
0.472700	0.292560
0.472800	0.265295
0.472900	0.495423
0.473000	0.636291
0.473100	0.460044
0.473200	0.092942
0.473300	-0.261826
0.473400	-0.248193
0.473500	-0.111220
0.473600	0.043605
0.473700	-0.030075
0.473800	-0.287468
0.473900	-0.514675
0.474000	-0.575696
0.474100	-0.655868
0.474200	-0.643209
0.474300	-0.796412
0.474400	-0.908393
0.474500	-0.992460
0.474600	-1.026865
0.474700	-1.087238
0.474800	-1.205710
0.474900	-1.317691
0.475000	-1.354693
0.475100	-1.360211
0.475200	-1.388450
0.475300	-1.410846
0.475400	-1.643247
0.475500	-1.739648
0.475600	-1.783467
0.475700	-1.783792
0.475800	-1.765290
0.475900	-1.749710
0.476000	-1.777949
0.476100	-1.776326
0.476200	-1.794827
0.476300	-1.788660
0.476400	-1.792880
0.476500	-1.788660
0.476600	-1.800670
0.476700	-1.826312
0.476800	-1.840918
0.476900	-1.850980
0.477000	-1.851305
0.477100	-1.857147
0.477200	-1.862665
0.477300	-1.895123
0.477400	-1.892527
0.477500	-1.978217
0.477600	-2.004183
0.477700	-2.173940
0.477800	-2.530333
0.477900	-2.667307
0.478000	-2.461846
0.478100	-2.128823
0.478200	-2.044432
0.478300	-2.234637
0.478400	-2.706582
0.478500	-2.862707
0.478600	-2.879910
0.478700	-2.663087
0.478800	-2.553378
0.478900	-2.662114
0.479000	-2.893217
0.479100	-3.103548
0.479200	-3.163272
0.479300	-3.214231
0.479400	-3.194756
0.479500	-3.222671
0.479600	-3.274604
0.479700	-3.353478
0.479800	-3.395674
0.479900	-3.474548
0.480000	-3.509928
0.480100	-3.511226
0.480200	-3.587179
0.480300	-3.637815
0.480400	-3.590750
0.480500	-3.605681
0.480600	-3.682607
0.480700	-3.725777
0.480800	-3.644955
0.480900	-3.390805
0.481000	-3.232083
0.481100	-3.318098
0.481200	-3.630998
0.481300	-3.818609
0.481400	-3.795563
0.481500	-3.477145
0.481600	-3.169114
0.481700	-3.151587
0.481800	-3.407035
0.481900	-3.674493
0.482000	-3.707600
0.482100	-3.537842
0.482200	-3.312256
0.482300	-3.230136
0.482400	-3.236952
0.482500	-3.255454
0.482600	-3.228513
0.482700	-3.144446
0.482800	-3.074011
0.482900	-2.954888
0.483000	-2.859136
0.483100	-2.689379
0.483200	-2.445941
0.483300	-2.281053
0.483400	-2.192117
0.483500	-2.170370
0.483600	-2.137587
0.483700	-1.917844
0.483800	-1.639677
0.483900	-1.486799
0.484000	-1.184937
0.484100	-1.157347
0.484200	-1.058999
0.484300	-0.907744
0.484400	-0.727925
0.484500	-0.544537
0.484600	-0.376403
0.484700	-0.260852
0.484800	-0.213788
0.484900	-0.175163
0.485000	-0.102132
0.485100	-0.084280
0.485200	-0.077463
0.485300	0.041333
0.485400	0.051071
0.485500	0.136760
0.485600	0.080608
0.485700	0.130918
0.485800	0.000761
0.485900	0.142603
0.486000	0.166622
0.486100	0.528530
0.486200	0.813513
0.486300	0.729446
0.486400	0.295805
0.486500	0.081906
0.486600	0.214011
0.486700	0.459395
0.486800	0.708024
0.486900	0.645704
0.487000	0.429858
0.487100	0.225696
0.487200	0.185772
0.487300	0.363968
0.487400	0.466535
0.487500	0.574296
0.487600	0.424340
0.487700	0.342870
0.487800	0.214985
0.487900	0.218230
0.488000	0.223748
0.488100	0.230889
0.488200	0.176035
0.488300	0.104302
0.488400	0.070221
0.488500	-0.013196
0.488600	-0.145950
0.488700	-0.128423
0.488800	-0.291038
0.488900	-0.304671
0.489000	-0.234236
0.489100	-0.192690
0.489200	-0.281950
0.489300	-0.637367
0.489400	-0.803553
0.489500	-0.636718
0.489600	-0.349788
0.489700	-0.204050
0.489800	-0.393931
0.489900	-0.751944
0.490000	-1.030760
0.490100	-0.897357
0.490200	-0.654245
0.490300	-0.510456
0.490400	-0.602312
0.490500	-0.839582
0.490600	-0.988240
0.490700	-0.962598
0.490800	-0.946694
0.490900	-0.851916
0.491000	-0.969090
0.491100	-1.057052
0.491200	-1.091133
0.491300	-1.042445
0.491400	-1.022321
0.491500	-1.069386
0.491600	-1.083018
0.491700	-1.022646
0.491800	-0.965519
0.491900	-0.892488
0.492000	-0.901252
0.492100	-1.066140
0.492200	-1.104441
0.492300	-1.108336
0.492400	-1.076851
0.492500	-0.913262
0.492600	-0.989863
0.492700	-0.985319
0.492800	-0.980775
0.492900	-0.953185
0.493000	-0.930465
0.493100	-0.924297
0.493200	-0.922675
0.493300	-0.927219
0.493400	-0.925920
0.493500	-0.924947
0.493600	-0.934684
0.493700	-0.923324
0.493800	-0.963572
0.493900	-0.984670
0.494000	-1.011935
0.494100	-1.093729
0.494200	-1.164813
0.494300	-1.259915
0.494400	-1.525424
0.494500	-1.883763
0.494600	-2.038914
0.494700	-1.839944
0.494800	-1.616307
0.494900	-1.652336
0.495000	-1.943811
0.495100	-2.417378
0.495200	-2.602390
0.495300	-2.609207
0.495400	-2.363172
0.495500	-2.325845
0.495600	-2.461521
0.495700	-2.731575
0.495800	-2.950669
0.495900	-2.986049
0.496000	-2.942230
0.496100	-2.875365
0.496200	-2.872444
0.496300	-2.911394
0.496400	-2.988970
0.496500	-3.032464
0.496600	-3.012015
0.496700	-2.989944
0.496800	-3.001304
0.496900	-3.034736
0.497000	-3.019805
0.497100	-2.957810
0.497200	-2.961705
0.497300	-3.004874
0.497400	-3.007796
0.497500	-2.964951
0.497600	-2.726381
0.497700	-2.611154
0.497800	-2.774420
0.497900	-3.124971
0.498000	-3.277850
0.498100	-3.222346
0.498200	-2.874067
0.498300	-2.652376
0.498400	-2.713723
0.498500	-3.027920
0.498600	-3.308036
0.498700	-3.330108
0.498800	-3.148341
0.498900	-2.974039
0.499000	-2.916588
0.499100	-2.960082
0.499200	-3.017209
0.499300	-3.031815
0.499400	-2.991566
0.499500	-2.922430
0.499600	-2.862382
0.499700	-2.790974
0.499800	-2.713073
0.499900	-2.543641
0.500000	-2.475154
0.500100	-2.447889
0.500200	-2.449836
0.500300	-2.450161
0.500400	-2.253139
0.500500	-2.068126
0.500600	-1.795801
0.500700	-1.724068
0.500800	-1.772756
0.500900	-1.702646
0.501000	-1.616307
0.501100	-1.490044
0.501200	-1.345930
0.501300	-1.241739
0.501400	-1.203438
0.501500	-1.198245
0.501600	-1.192727
0.501700	-1.166111
0.501800	-1.210254
0.501900	-1.181042
0.502000	-1.091782
0.502100	-1.047963
0.502200	-1.030111
0.502300	-1.069061
0.502400	-1.161567
0.502500	-1.145987
0.502600	-1.131381
0.502700	-0.901252
0.502800	-0.532202
0.502900	-0.326742
0.503000	-0.482541
0.503100	-1.014856
0.503200	-1.007390
0.503300	-0.861978
0.503400	-0.486112
0.503500	-0.200155
0.503600	-0.240728
0.503700	-0.388737
0.503800	-0.616269
0.503900	-0.510131
0.504000	-0.361797
0.504100	-0.064480
0.504200	-0.020013
0.504300	0.028675
0.504400	0.000761
0.504500	-0.033320
0.504600	-0.018065
0.504700	0.017639
0.504800	0.064054
0.504900	0.103653
0.505000	0.145524
0.505100	0.167596
0.505200	0.014069
0.505300	-0.005731
0.505400	-0.132967
0.505500	-0.115440
0.505600	-0.160881
0.505700	-0.025855
0.505800	-0.081683
0.505900	-0.140432
0.506000	-0.567906
0.506100	-0.652298
0.506200	-0.440670
0.506300	-0.186847
0.506400	-0.126475
0.506500	-0.402045
0.506600	-0.750971
0.506700	-0.870092
0.506800	-0.761033
0.506900	-0.505262
0.507000	-0.437749
0.507100	-0.592899
0.507200	-0.787648
0.507300	-0.839906
0.507400	-0.758111
0.507500	-0.738312
0.507600	-0.750646
0.507700	-0.857758
0.507800	-0.927868
0.507900	-0.905147
0.508000	-0.844126
0.508100	-0.853863
0.508200	-0.945395
0.508300	-1.000250
0.508400	-0.958703
0.508500	-0.936956
0.508600	-0.899629
0.508700	-0.960975
0.508800	-1.170655
0.508900	-1.228756
0.509000	-1.247257
0.509100	-1.197920
0.509200	-1.113853
0.509300	-1.207333
0.509400	-1.203114
0.509500	-1.233300
0.509600	-1.230378
0.509700	-1.253748
0.509800	-1.310226
0.509900	-1.315094
0.510000	-1.328727
0.510100	-1.363782
0.510200	-1.374818
0.510300	-1.401433
0.510400	-1.405004
0.510500	-1.429672
0.510600	-1.441357
0.510700	-1.511791
0.510800	-1.530293
0.510900	-1.581252
0.511000	-1.653309
0.511100	-1.915897
0.511200	-2.253139
0.511300	-2.302800
0.511400	-1.955820
0.511500	-1.766589
0.511600	-1.739324
0.511700	-2.147000
0.511800	-2.494629
0.511900	-2.645560
0.512000	-2.442371
0.512100	-2.216136
0.512200	-2.128499
0.512300	-2.320003
0.512400	-2.525464
0.512500	-2.674773
0.512600	-2.620892
0.512700	-2.559870
0.512800	-2.527087
0.512900	-2.560194
0.513000	-2.593951
0.513100	-2.593302
0.513200	-2.568958
0.513300	-2.518972
0.513400	-2.512156
0.513500	-2.518648
0.513600	-2.549159
0.513700	-2.489760
0.513800	-2.417702
0.513900	-2.344022
0.514000	-2.395631
0.514100	-2.358953
0.514200	-2.267745
0.514300	-2.010350
0.514400	-1.888956
0.514500	-2.067802
0.514600	-2.374208
0.514700	-2.490084
0.514800	-2.354733
0.514900	-2.012622
0.515000	-1.839620
0.515100	-1.997043
0.515200	-2.343373
0.515300	-2.544290
0.515400	-2.498848
0.515500	-2.295010
0.515600	-2.162904
0.515700	-2.204451
0.515800	-2.306046
0.515900	-2.348566
0.516000	-2.310590
0.516100	-2.258656
0.516200	-2.239181
0.516300	-2.207697
0.516400	-2.171344
0.516500	-2.097014
0.516600	-1.955496
0.516700	-1.861367
0.516800	-1.843190
0.516900	-1.841892
0.517000	-1.809109
0.517100	-1.594884
0.517200	-1.462779
0.517300	-1.191104
0.517400	-1.189157
0.517500	-1.216746
0.517600	-1.190455
0.517700	-1.097949
0.517800	-0.981749
0.517900	-0.840880
0.518000	-0.746102
0.518100	-0.732794
0.518200	-0.747076
0.518300	-0.760384
0.518400	-0.718188
0.518500	-0.762006
0.518600	-0.731820
0.518700	-0.669825
0.518800	-0.668851
0.518900	-0.589329
0.519000	-0.680536
0.519100	-0.578942
0.519200	-0.704555
0.519300	-0.589329
0.519400	-0.419248
0.519500	0.013419
0.519600	0.112092
0.519700	-0.069349
0.519800	-0.436451
0.519900	-0.506561
0.520000	-0.197559
0.520100	0.061133
0.520200	0.331185
0.520300	0.166622
0.520400	0.015042
0.520500	-0.151468
0.520600	0.003033
0.520700	0.264646
0.520800	0.404540
0.520900	0.435051
0.521000	0.364617
0.521100	0.364941
0.521200	0.277953
0.521300	0.345142
0.521400	0.424340
0.521500	0.448683
0.521600	0.474974
0.521700	0.447060
0.521800	0.367538
0.521900	0.258154
0.522000	0.255557
0.522100	0.190966
0.522200	0.210765
0.522300	0.103978
0.522400	0.216932
0.522500	0.160779
0.522600	-0.000213
0.522700	-0.344919
0.522800	-0.358227
0.522900	-0.208270
0.523000	0.041658
0.523100	0.021859
0.523200	-0.262475
0.523300	-0.648403
0.523400	-0.757138
0.523500	-0.634121
0.523600	-0.388737
0.523700	-0.387114
0.523800	-0.572775
0.523900	-0.778236
0.524000	-0.836011
0.524100	-0.860679
0.524200	-0.801605
0.524300	-0.865224
0.524400	-0.934684
0.524500	-1.033357
0.524600	-1.072956
0.524700	-1.055753
0.524800	-1.122942
0.524900	-1.159944
0.525000	-1.175849
0.525100	-1.147285
0.525200	-1.125214
0.525300	-1.119371
0.525400	-1.247581
0.525500	-1.410197
0.525600	-1.427725
0.525700	-1.437137
0.525800	-1.318665
0.525900	-1.351772
0.526000	-1.408574
0.526100	-1.416364
0.526200	-1.435839
0.526300	-1.438760
0.526400	-1.474140
0.526500	-1.493939
0.526600	-1.508870
0.526700	-1.505949
0.526800	-1.519906
0.526900	-1.545223
0.527000	-1.536784
0.527100	-1.564698
0.527200	-1.553663
0.527300	-1.610464
0.527400	-1.621176
0.527500	-1.686092
0.527600	-1.780546
0.527700	-1.864613
0.527800	-2.244050
0.527900	-2.493979
0.528000	-2.446266
0.528100	-2.164527
0.528200	-1.946083
0.528300	-2.063257
0.528400	-2.453082
0.528500	-2.824730
0.528600	-2.884129
0.528700	-2.724758
0.528800	-2.539097
0.528900	-2.540719
0.529000	-2.722162
0.529100	-2.924053
0.529200	-3.025323
0.529300	-3.039280
0.529400	-3.013314
0.529500	-2.967223
0.529600	-2.963003
0.529700	-2.978259
0.529800	-3.028569
0.529900	-3.052264
0.530000	-3.067519
0.530100	-3.049342
0.530200	-3.048693
0.530300	-3.069791
0.530400	-3.007146
0.530500	-3.014937
0.530600	-2.980855
0.530700	-2.986698
0.530800	-2.907824
0.530900	-2.771174
0.531000	-2.520920
0.531100	-2.526113
0.531200	-2.734821
0.531300	-2.973714
0.531400	-3.034412
0.531500	-2.819537
0.531600	-2.489111
0.531700	-2.373559
0.531800	-2.545913
0.531900	-2.858487
0.532000	-2.986698
0.532100	-2.879260
0.532200	-2.694248
0.532300	-2.608557
0.532400	-2.609207
0.532500	-2.629655
0.532600	-2.610180
0.532700	-2.611803
0.532800	-2.600767
0.532900	-2.568958
0.533000	-2.483917
0.533100	-2.369339
0.533200	-2.201854
0.533300	-2.066828
0.533400	-2.008727
0.533500	-1.979840
0.533600	-1.946083
0.533700	-1.812355
0.533800	-1.502703
0.533900	-1.395266
0.534000	-1.080421
0.534100	-1.092106
0.534200	-1.000250
0.534300	-0.929166
0.534400	-0.802579
0.534500	-0.683782
0.534600	-0.531229
0.534700	-0.455277
0.534800	-0.453005
0.534900	-0.415678
0.535000	-0.465663
0.535100	-0.435153
0.535200	-0.515324
0.535300	-0.439048
0.535400	-0.371859
0.535500	-0.346866
0.535600	-0.351735
0.535700	-0.376403
0.535800	-0.458522
0.535900	-0.442942
0.536000	-0.424766
0.536100	-0.079086
0.536200	0.249715
0.536300	0.372731
0.536400	-0.066428
0.536500	-0.299153
0.536600	-0.367640
0.536700	0.031596
0.536800	0.195834
0.536900	0.377600
0.537000	0.175386
0.537100	0.025429
0.537200	-0.055067
0.537300	0.133190
0.537400	0.310736
0.537500	0.430831
0.537600	0.397399
0.537700	0.398698
0.537800	0.384092
0.537900	0.435375
0.538000	0.441867
0.538100	0.446411
0.538200	0.429208
0.538300	0.486010
0.538400	0.460368
0.538500	0.478220
0.538600	0.285419
0.538700	0.334755
0.538800	0.221476
0.538900	0.191939
0.539000	0.280550
0.539100	0.257505
0.539200	0.305218
0.539300	-0.068700
0.539400	-0.284871
0.539500	-0.286494
0.539600	0.054317
0.539700	0.181553
0.539800	0.136760
0.539900	-0.242676
0.540000	-0.539343
0.540100	-0.512728
0.540200	-0.287792
0.540300	-0.094342
0.540400	-0.181979
0.540500	-0.439048
0.540600	-0.584460
0.540700	-0.543238
0.540800	-0.534799
0.540900	-0.505587
0.541000	-0.637042
0.541100	-0.734742
0.541200	-0.803553
0.541300	-0.751944
0.541400	-0.739935
0.541500	-0.794140
0.541600	-0.867496
0.541700	-0.840555
0.541800	-0.766551
0.541900	-0.703582
0.542000	-0.659763
0.542100	-0.807773
0.542200	-0.905147
0.542300	-0.896383
0.542400	-0.818808
0.542500	-0.645806
0.542600	-0.699038
0.542700	-0.655219
0.542800	-0.609453
0.542900	-0.580890
0.543000	-0.554599
0.543100	-0.541940
0.543200	-0.510780
0.543300	-0.486112
0.543400	-0.456575
0.543500	-0.466962
0.543600	-0.471506
0.543700	-0.450408
0.543800	-0.446837
0.543900	-0.417625
0.544000	-0.487735
0.544100	-0.473129
0.544200	-0.530904
0.544300	-0.615620
0.544400	-0.764279
0.544500	-1.201815
0.544600	-1.369300
0.544700	-1.283935
0.544800	-0.945071
0.544900	-0.860679
0.545000	-1.061271
0.545100	-1.563400
0.545200	-1.818847
0.545300	-1.806837
0.545400	-1.582875
0.545500	-1.449147
0.545600	-1.565347
0.545700	-1.831181
0.545800	-2.090198
0.545900	-2.228795
0.546000	-2.137587
0.546100	-2.106102
0.546200	-2.139859
0.546300	-2.268069
0.546400	-2.352461
0.546500	-2.415430
0.546600	-2.409588
0.546700	-2.460223
0.546800	-2.538447
0.546900	-2.629331
0.547000	-2.716644
0.547100	-2.715670
0.547200	-2.719565
0.547300	-2.781885
0.547400	-2.839986
0.547500	-2.852320
0.547600	-2.716968
0.547700	-2.544939
0.547800	-2.629980
0.547900	-2.923404
0.548000	-3.212933
0.548100	-3.332380
0.548200	-3.077257
0.548300	-2.818239
0.548400	-2.807852
0.548500	-3.105820
0.548600	-3.407359
0.548700	-3.506358
0.548800	-3.375225
0.548900	-3.166517
0.549000	-3.058431
0.549100	-3.100951
0.549200	-3.191510
0.549300	-3.240198
0.549400	-3.221372
0.549500	-3.130489
0.549600	-3.000330
0.549700	-2.913666
0.549800	-2.831547
0.549900	-2.680615
0.550000	-2.527736
0.550100	-2.354084
0.550200	-2.244050
0.550300	-2.202179
0.550400	-2.099935
0.550500	-1.887983
0.550600	-1.806837
0.550700	-1.640975
0.550800	-1.525099
0.550900	-1.427725
0.551000	-1.329051
0.551100	-1.177472
0.551200	-1.024593
0.551300	-0.791543
0.551400	-0.720460
0.551500	-0.684756
0.551600	-0.714618
0.551700	-0.651324
0.551800	-0.655868
0.551900	-0.600040
0.552000	-0.565310
0.552100	-0.494551
0.552200	-0.473129
0.552300	-0.509482
0.552400	-0.527983
0.552500	-0.544212
0.552600	-0.532527
0.552700	-0.418274
0.552800	-0.171917
0.552900	0.187395
0.553000	0.107548
0.553100	-0.278704
0.553200	-0.607181
0.553300	-0.476050
0.553400	-0.170943
0.553500	0.181877
0.553600	0.202001
0.553700	0.046851
0.553800	-0.201454
0.553900	-0.294284
0.554000	-0.142380
0.554100	0.107548
0.554200	0.215958
0.554300	0.192913
0.554400	0.120531
0.554500	0.022832
0.554600	0.023481
0.554700	0.061782
0.554800	0.073467
0.554900	0.080283
0.555000	0.046202
0.555100	0.031596
0.555200	-0.049549
0.555300	-0.151793
0.555400	-0.243000
0.555500	-0.243974
0.555600	-0.343620
0.555700	-0.194962
0.555800	-0.301749
0.555900	-0.302723
0.556000	-0.712670
0.556100	-0.824002
0.556200	-0.736040
0.556300	-0.508833
0.556400	-0.346866
0.556500	-0.480594
0.556600	-0.803553
0.556700	-1.014531
0.556800	-0.943448
0.556900	-0.789921
0.557000	-0.591926
0.557100	-0.604909
0.557200	-0.757787
0.557300	-0.903849
0.557400	-0.855811
0.557500	-0.889892
0.557600	-0.811343
0.557700	-0.884374
0.557800	-0.895410
0.557900	-0.934360
0.558000	-0.898655
0.558100	-0.909691
0.558200	-0.954808
0.558300	-0.983696
0.558400	-0.943448
0.558500	-0.897033
0.558600	-0.862951
0.558700	-0.870741
0.558800	-1.039849
0.558900	-1.123266
0.559000	-1.153777
0.559100	-1.125214
0.559200	-0.987266
0.559300	-1.082694
0.559400	-1.076526
0.559500	-1.047314
0.559600	-1.022646
0.559700	-1.014207
0.559800	-1.030111
0.559900	-1.000899
0.560000	-1.029787
0.560100	-1.026865
0.560200	-1.046665
0.560300	-1.042121
0.560400	-1.046665
0.560500	-1.073930
0.560600	-1.057052
0.560700	-1.096975
0.560800	-1.070684
0.560900	-1.182989
0.561000	-1.181042
0.561100	-1.453042
0.561200	-1.770484
0.561300	-1.965558
0.561400	-1.717577
0.561500	-1.417987
0.561600	-1.320937
0.561700	-1.554636
0.561800	-2.050923
0.561900	-2.294361
0.562000	-2.183029
0.562100	-1.958742
0.562200	-1.807162
0.562300	-1.965558
0.562400	-2.202828
0.562500	-2.439449
0.562600	-2.452108
0.562700	-2.461521
0.562800	-2.372910
0.562900	-2.412184
0.563000	-2.480347
0.563100	-2.533903
0.563200	-2.558896
0.563300	-2.554027
0.563400	-2.583564
0.563500	-2.647507
0.563600	-2.717293
0.563700	-2.698467
0.563800	-2.655622
0.563900	-2.686133
0.564000	-2.757866
0.564100	-2.810449
0.564200	-2.739689
0.564300	-2.529034
0.564400	-2.427764
0.564500	-2.542667
0.564600	-2.804281
0.564700	-3.059729
0.564800	-2.961705
0.564900	-2.695870
0.565000	-2.489435
0.565100	-2.554352
0.565200	-2.802009
0.565300	-3.047720
0.565400	-3.084398
0.565500	-2.941580
0.565600	-2.751050
0.565700	-2.708854
0.565800	-2.739689
0.565900	-2.796491
0.566000	-2.803957
0.566100	-2.752023
0.566200	-2.730276
0.566300	-2.669904
0.566400	-2.610505
0.566500	-2.532605
0.566600	-2.358628
0.566700	-2.223277
0.566800	-2.221329
0.566900	-2.193740
0.567000	-2.202504
0.567100	-1.984708
0.567200	-1.764317
0.567300	-1.481930
0.567400	-1.366703
0.567500	-1.403056
0.567600	-1.332622
0.567700	-1.236870
0.567800	-1.078149
0.567900	-0.899954
0.568000	-0.788947
0.568100	-0.741558
0.568200	-0.712995
0.568300	-0.685405
0.568400	-0.630875
0.568500	-0.655868
0.568600	-0.601663
0.568700	-0.569854
0.568800	-0.463716
0.568900	-0.469883
0.569000	-0.442942
0.569100	-0.518570
0.569200	-0.523439
0.569300	-0.554599
0.569400	-0.387764
0.569500	-0.042084
0.569600	0.253934
0.569700	0.074441
0.569800	-0.374456
0.569900	-0.652298
0.570000	-0.284222
0.570100	-0.037215
0.570200	0.300025
0.570300	0.281199
0.570400	0.049448
0.570500	-0.219955
0.570600	-0.267019
0.570700	0.006928
0.570800	0.279576
0.570900	0.400645
0.571000	0.306841
0.571100	0.301648
0.571200	0.232837
0.571300	0.275357
0.571400	0.341247
0.571500	0.346116
0.571600	0.363968
0.571700	0.330536
0.571800	0.377600
0.571900	0.245495
0.572000	0.222775
0.572100	0.132216
0.572200	0.027701
0.572300	-0.018390
0.572400	0.103329
0.572500	0.069897
0.572600	0.118908
0.572700	-0.231964
0.572800	-0.369262
0.572900	-0.346217
0.573000	-0.138809
0.573100	0.044579
0.573200	-0.096938
0.573300	-0.359525
0.573400	-0.601663
0.573500	-0.559143
0.573600	-0.370885
0.573700	-0.188146
0.573800	-0.234886
0.573900	-0.408861
0.574000	-0.561090
0.574100	-0.555248
0.574200	-0.553625
0.574300	-0.480269
0.574400	-0.550704
0.574500	-0.633797
0.574600	-0.731171
0.574700	-0.764928
0.574800	-0.751295
0.574900	-0.784403
0.575000	-0.799983
0.575100	-0.778885
0.575200	-0.763954
0.575300	-0.700660
0.575400	-0.725004
0.575500	-0.909691
0.575600	-0.956107
0.575700	-0.931114
0.575800	-0.702933
0.575900	-0.712345
0.576000	-0.794140
0.576100	-0.762656
0.576200	-0.754541
0.576300	-0.728575
0.576400	-0.714293
0.576500	-0.717539
0.576600	-0.714293
0.576700	-0.721109
0.576800	-0.723706
0.576900	-0.732470
0.577000	-0.718837
0.577100	-0.702608
0.577200	-0.735391
0.577300	-0.759410
0.577400	-0.770446
0.577500	-0.808422
0.577600	-0.923973
0.577700	-0.942474
0.577800	-1.241739
0.577900	-1.579954
0.578000	-1.723095
0.578100	-1.447524
0.578200	-1.184288
0.578300	-1.172603
0.578400	-1.501729
0.578500	-1.967830
0.578600	-2.127525
0.578700	-2.019114
0.578800	-1.794178
0.578900	-1.726016
0.579000	-1.870780
0.579100	-2.188222
0.579200	-2.380051
0.579300	-2.400499
0.579400	-2.335907
0.579500	-2.304098
0.579600	-2.310590
0.579700	-2.383946
0.579800	-2.465741
0.579900	-2.502094
0.580000	-2.504042
0.580100	-2.548185
0.580200	-2.614725
0.580300	-2.613102
0.580400	-2.602715
0.580500	-2.604987
0.580600	-2.660491
0.580700	-2.711775
0.580800	-2.744558
0.580900	-2.637121
0.581000	-2.442695
0.581100	-2.344022
0.581200	-2.468986
0.581300	-2.736768
0.581400	-2.953915
0.581500	-2.883155
0.581600	-2.603364
0.581700	-2.398227
0.581800	-2.454380
0.581900	-2.694572
0.582000	-2.966898
0.582100	-3.022402
0.582200	-2.907175
0.582300	-2.745207
0.582400	-2.655947
0.582500	-2.656271
0.582600	-2.715345
0.582700	-2.745207
0.582800	-2.738716
0.582900	-2.668605
0.583000	-2.592328
0.583100	-2.495927
0.583200	-2.307669
0.583300	-2.147000
0.583400	-2.049300
0.583500	-2.045405
0.583600	-1.984059
0.583700	-1.971076
0.583800	-1.762694
0.583900	-1.585147
0.584000	-1.487123
0.584100	-1.265758
0.584200	-1.252450
0.584300	-1.181042
0.584400	-1.078474
0.584500	-0.952536
0.584600	-0.784403
0.584700	-0.707152
0.584800	-0.602637
0.584900	-0.539668
0.585000	-0.537720
0.585100	-0.516947
0.585200	-0.515000
0.585300	-0.507859
0.585400	-0.357902
0.585500	-0.434179
0.585600	-0.298179
0.585700	-0.400098
0.585800	-0.354007
0.585900	-0.447811
0.586000	-0.366341
0.586100	-0.208919
0.586200	0.093266
0.586300	0.346765
0.586400	0.033543
0.586500	-0.261177
0.586600	-0.473778
0.586700	-0.144976
0.586800	0.141629
0.586900	0.362345
0.587000	0.242249
0.587100	0.009849
0.587200	-0.142704
0.587300	-0.094666
0.587400	0.071520
0.587500	0.244197
0.587600	0.289638
0.587700	0.229591
0.587800	0.190316
0.587900	0.213686
0.588000	0.148770
0.588100	0.179281
0.588200	0.200054
0.588300	0.187071
0.588400	0.177658
0.588500	0.240302
0.588600	0.097161
0.588700	0.019911
0.588800	-0.027153
0.588900	-0.035592
0.589000	0.044904
0.589100	0.102030
0.589200	0.147472
0.589300	-0.044681
0.589400	-0.326418
0.589500	-0.336155
0.589600	-0.181005
0.589700	0.085477
0.589800	0.093591
0.589900	-0.074542
0.590000	-0.401396
0.590100	-0.439697
0.590200	-0.332909
0.590300	-0.114790
0.590400	-0.031697
0.590500	-0.189120
0.590600	-0.313759
0.590700	-0.325119
0.590800	-0.314733
0.590900	-0.301425
0.591000	-0.341673
0.591100	-0.411133
0.591200	-0.459496
0.591300	-0.427038
0.591400	-0.388413
0.591500	-0.457224
0.591600	-0.543887
0.591700	-0.568231
0.591800	-0.527658
0.591900	-0.464040
0.592000	-0.475401
0.592100	-0.548432
0.592200	-0.750322
0.592300	-0.782455
0.592400	-0.766226
0.592500	-0.740909
0.592600	-0.651973
0.592700	-0.703906
0.592800	-0.683458
0.592900	-0.663009
0.593000	-0.696441
0.593100	-0.685730
0.593200	-0.690923
0.593300	-0.672097
0.593400	-0.693844
0.593500	-0.721758
0.593600	-0.723381
0.593700	-0.767200
0.593800	-0.760384
0.593900	-0.799983
0.594000	-0.827897
0.594100	-0.857109
0.594200	-0.889892
0.594300	-0.942474
0.594400	-0.984670
0.594500	-1.321911
0.594600	-1.614359
0.594700	-1.680899
0.594800	-1.336192
0.594900	-1.131705
0.595000	-1.159620
0.595100	-1.578655
0.595200	-1.930178
0.595300	-2.009377
0.595400	-1.817873
0.595500	-1.612087
0.595600	-1.607543
0.595700	-1.801644
0.595800	-2.039563
0.595900	-2.129472
0.596000	-2.081110
0.596100	-2.007429
0.596200	-2.057740
0.596300	-2.114866
0.596400	-2.199582
0.596500	-2.224575
0.596600	-2.201205
0.596700	-2.200556
0.596800	-2.271964
0.596900	-2.340451
0.597000	-2.408614
0.597100	-2.371936
0.597200	-2.348891
0.597300	-2.386542
0.597400	-2.456652
0.597500	-2.458275
0.597600	-2.347592
0.597700	-2.161931
0.597800	-2.112269
0.597900	-2.287869
0.598000	-2.565063
0.598100	-2.732224
0.598200	-2.557922
0.598300	-2.292413
0.598400	-2.152193
0.598500	-2.309616
0.598600	-2.579345
0.598700	-2.765331
0.598800	-2.710801
0.598900	-2.496901
0.599000	-2.367716
0.599100	-2.383621
0.599200	-2.460223
0.599300	-2.502743
0.599400	-2.457951
0.599500	-2.403745
0.599600	-2.323898
0.599700	-2.272289
0.599800	-2.205425
0.599900	-2.049950
0.600000	-1.878570
0.600100	-1.772431
0.600200	-1.783142
0.600300	-1.749710
0.600400	-1.687066
0.600500	-1.495562
0.600600	-1.367028
0.600700	-1.077825
0.600800	-1.039524
0.600900	-1.013233
0.601000	-0.971362
0.601100	-0.861978
0.601200	-0.779858
0.601300	-0.613997
0.601400	-0.559143
0.601500	-0.553949
0.601600	-0.543563
0.601700	-0.609453
0.601800	-0.484489
0.601900	-0.554274
0.602000	-0.481892
0.602100	-0.451057
0.602200	-0.416651
0.602300	-0.429310
0.602400	-0.436451
0.602500	-0.519219
0.602600	-0.548432
0.602700	-0.477673
0.602800	-0.218332
