LabVIEW Measurement	
Writer_Version	2
Reader_Version	2
Separator	Tab
Decimal_Separator	.
Multi_Headings	Yes
X_Columns	One
Time_Pref	Relative
Operator	as989
Description	Time Domain Data
Date	2021/11/24
Time	12:33:46.3193697929382324219
***End_of_Header***	
	
Channels	1	
Samples	15000	
Date	1903/12/31	
Time	19:00:00	
X_Dimension	Time	
X0	0.0000000000000000E+0	
Delta_X	0.000100	
***End_of_Header***		
X_Value	Untitled	Comment
0.000000	-0.644508	Tare Values:0.000000, 0.000000, 0.000000, 0.000000\0D\0A
0.000100	-0.588355
0.000200	-0.513701
0.000300	-0.767524
0.000400	-0.738637
0.000500	-0.349788
0.000600	-0.322523
0.000700	-0.297530
0.000800	-0.189444
0.000900	-0.073893
0.001000	-0.099210
0.001100	-0.145301
0.001200	-0.090122
0.001300	-0.092394
0.001400	-0.046304
0.001500	-0.244623
0.001600	-0.367964
0.001700	-0.326418
0.001800	-0.367640
0.001900	-0.643534
0.002000	-0.662035
0.002100	-1.148259
0.002200	-1.303734
0.002300	-1.497510
0.002400	-1.530942
0.002500	-1.425452
0.002600	-1.318989
0.002700	-1.296593
0.002800	-1.542951
0.002900	-1.676679
0.003000	-1.706865
0.003100	-1.616307
0.003200	-1.491667
0.003300	-1.451744
0.003400	-1.516336
0.003500	-1.585472
0.003600	-1.632536
0.003700	-1.579954
0.003800	-1.524775
0.003900	-1.468946
0.004000	-1.468946
0.004100	-1.467648
0.004200	-1.484851
0.004300	-1.467324
0.004400	-1.473815
0.004500	-1.432269
0.004600	-1.468297
0.004700	-1.521204
0.004800	-1.519906
0.004900	-1.474464
0.005000	-1.509195
0.005100	-1.531915
0.005200	-1.553987
0.005300	-1.471868
0.005400	-1.374493
0.005500	-1.323209
0.005600	-1.452717
0.005700	-1.578006
0.005800	-1.612737
0.005900	-1.513414
0.006000	-1.356966
0.006100	-1.325806
0.006200	-1.412469
0.006300	-1.573462
0.006400	-1.640326
0.006500	-1.584498
0.006600	-1.467973
0.006700	-1.392020
0.006800	-1.369624
0.006900	-1.381634
0.007000	-1.366703
0.007100	-1.312173
0.007200	-1.256994
0.007300	-1.188832
0.007400	-1.122293
0.007500	-1.047639
0.007600	-0.965195
0.007700	-0.886321
0.007800	-0.857434
0.007900	-0.857434
0.008000	-0.862951
0.008100	-0.837309
0.008200	-0.726302
0.008300	-0.690598
0.008400	-0.688002
0.008500	-0.703257
0.008600	-0.664307
0.008700	-0.626656
0.008800	-0.592575
0.008900	-0.538045
0.009000	-0.482866
0.009100	-0.435477
0.009200	-0.483191
0.009300	-0.510131
0.009400	-0.533501
0.009500	-0.542265
0.009600	-0.572126
0.009700	-0.552002
0.009800	-0.572126
0.009900	-0.550704
0.010000	-0.592899
0.010100	-0.579267
0.010200	-0.612699
0.010300	-0.638341
0.010400	-0.612374
0.010500	-0.501043
0.010600	-0.371535
0.010700	-0.293635
0.010800	-0.495200
0.010900	-0.643859
0.011000	-0.700660
0.011100	-0.561090
0.011200	-0.439372
0.011300	-0.357902
0.011400	-0.415353
0.011500	-0.530580
0.011600	-0.604584
0.011700	-0.573424
0.011800	-0.474102
0.011900	-0.432880
0.012000	-0.413081
0.012100	-0.458522
0.012200	-0.499744
0.012300	-0.508833
0.012400	-0.519219
0.012500	-0.477997
0.012600	-0.478646
0.012700	-0.474752
0.012800	-0.504938
0.012900	-0.520842
0.013000	-0.541615
0.013100	-0.624384
0.013200	-0.586408
0.013300	-0.661061
0.013400	-0.582513
0.013500	-0.590952
0.013600	-0.570503
0.013700	-0.778885
0.013800	-0.867171
0.013900	-0.840231
0.014000	-0.700011
0.014100	-0.606532
0.014200	-0.618866
0.014300	-0.760708
0.014400	-0.924947
0.014500	-0.910016
0.014600	-0.792842
0.014700	-0.508508
0.014800	-0.136537
0.014900	-0.619515
0.015000	-0.818159
0.015100	-0.784403
0.015200	-0.803553
0.015300	-0.383869
0.015400	-0.452355
0.015500	-0.249492
0.015600	-0.260852
0.015700	-0.045979
0.015800	0.094565
0.015900	0.003357
0.016000	-0.253711
0.016100	-0.206647
0.016200	-0.021960
0.016300	0.107873
0.016400	0.173114
0.016500	-0.278380
0.016600	-0.622112
0.016700	-0.614322
0.016800	-0.524413
0.016900	-0.516947
0.017000	-0.803228
0.017100	-0.732794
0.017200	-0.395229
0.017300	-0.356279
0.017400	-0.325119
0.017500	-0.249167
0.017600	-0.176136
0.017700	-0.075516
0.017800	0.016990
0.017900	0.169868
0.018000	0.253934
0.018100	0.253934
0.018200	0.340922
0.018300	0.249066
0.018400	0.232512
0.018500	0.138383
0.018600	-0.071621
0.018700	-0.208270
0.018800	-0.691572
0.018900	-1.195648
0.019000	-1.305682
0.019100	-1.245958
0.019200	-1.121968
0.019300	-0.960975
0.019400	-1.082044
0.019500	-1.267381
0.019600	-1.396565
0.019700	-1.417013
0.019800	-1.317367
0.019900	-1.231028
0.020000	-1.222913
0.020100	-1.334245
0.020200	-1.428698
0.020300	-1.492966
0.020400	-1.484202
0.020500	-1.415066
0.020600	-1.377090
0.020700	-1.383581
0.020800	-1.415066
0.020900	-1.428374
0.021000	-1.436164
0.021100	-1.466350
0.021200	-1.435514
0.021300	-1.488421
0.021400	-1.513090
0.021500	-1.503352
0.021600	-1.505949
0.021700	-1.511791
0.021800	-1.563725
0.021900	-1.565347
0.022000	-1.465376
0.022100	-1.379037
0.022200	-1.380985
0.022300	-1.535161
0.022400	-1.659476
0.022500	-1.675706
0.022600	-1.533214
0.022700	-1.395266
0.022800	-1.398512
0.022900	-1.521529
0.023000	-1.660126
0.023100	-1.720498
0.023200	-1.673433
0.023300	-1.566646
0.023400	-1.495887
0.023500	-1.483228
0.023600	-1.503352
0.023700	-1.508870
0.023800	-1.507247
0.023900	-1.487123
0.024000	-1.438436
0.024100	-1.376440
0.024200	-1.301787
0.024300	-1.221290
0.024400	-1.177796
0.024500	-1.176173
0.024600	-1.174226
0.024700	-1.176822
0.024800	-1.106388
0.024900	-1.016154
0.025000	-0.978827
0.025100	-0.970388
0.025200	-0.948641
0.025300	-0.900928
0.025400	-0.866522
0.025500	-0.819133
0.025600	-0.768823
0.025700	-0.696766
0.025800	-0.681510
0.025900	-0.696441
0.026000	-0.714618
0.026100	-0.727276
0.026200	-0.744479
0.026300	-0.767200
0.026400	-0.756164
0.026500	-0.747400
0.026600	-0.739610
0.026700	-0.729873
0.026800	-0.801281
0.026900	-0.777262
0.027000	-0.879181
0.027100	-0.746751
0.027200	-0.738961
0.027300	-0.482217
0.027400	-0.582837
0.027500	-0.757462
0.027600	-0.855811
0.027700	-0.901577
0.027800	-0.788947
0.027900	-0.673071
0.028000	-0.607181
0.028100	-0.698713
0.028200	-0.810694
0.028300	-0.840231
0.028400	-0.779858
0.028500	-0.674045
0.028600	-0.652298
0.028700	-0.650999
0.028800	-0.702608
0.028900	-0.728899
0.029000	-0.754866
0.029100	-0.767200
0.029200	-0.778236
0.029300	-0.803553
0.029400	-0.808422
0.029500	-0.811668
0.029600	-0.820107
0.029700	-0.931763
0.029800	-0.912613
0.029900	-0.971362
0.030000	-0.955457
0.030100	-0.932737
0.030200	-0.919753
0.030300	-0.932412
0.030400	-1.168708
0.030500	-1.223887
0.030600	-1.192727
0.030700	-1.038550
0.030800	-0.964221
0.030900	-1.015830
0.031000	-1.174226
0.031100	-1.287180
0.031200	-1.226808
0.031300	-1.068737
0.031400	-0.990188
0.031500	-1.021023
0.031600	-1.102493
0.031700	-1.147935
0.031800	-1.116775
0.031900	-1.137223
0.032000	-1.089185
0.032100	-1.128460
0.032200	-1.092756
0.032300	-1.084966
0.032400	-1.062894
0.032500	-1.071658
0.032600	-1.103142
0.032700	-1.150207
0.032800	-1.147285
0.032900	-1.123591
0.033000	-1.084316
0.033100	-1.121968
0.033200	-1.210579
0.033300	-1.241414
0.033400	-1.229729
0.033500	-1.205710
0.033600	-1.221290
0.033700	-1.245634
0.033800	-1.176822
0.033900	-1.155400
0.034000	-1.081395
0.034100	-0.915858
0.034200	-0.774016
0.034300	-0.715267
0.034400	-0.658465
0.034500	-0.443916
0.034600	-0.389062
0.034700	-0.216060
0.034800	-0.295582
0.034900	-0.206647
0.035000	-0.421845
0.035100	-0.421520
0.035200	-0.577969
0.035300	-0.805825
0.035400	-0.848021
0.035500	-1.182989
0.035600	-1.336841
0.035700	-1.440383
0.035800	-1.329051
0.035900	-1.202789
0.036000	-1.140145
0.036100	-1.287505
0.036200	-1.507896
0.036300	-1.644221
0.036400	-1.617281
0.036500	-1.480307
0.036600	-1.399810
0.036700	-1.416689
0.036800	-1.548794
0.036900	-1.592288
0.037000	-1.616632
0.037100	-1.532889
0.037200	-1.517309
0.037300	-1.462130
0.037400	-1.450445
0.037500	-1.458884
0.037600	-1.439085
0.037700	-1.460832
0.037800	-1.448822
0.037900	-1.467324
0.038000	-1.500431
0.038100	-1.507896
0.038200	-1.502054
0.038300	-1.485500
0.038400	-1.472841
0.038500	-1.496861
0.038600	-1.477710
0.038700	-1.379686
0.038800	-1.287830
0.038900	-1.315419
0.039000	-1.481930
0.039100	-1.550417
0.039200	-1.518932
0.039300	-1.336841
0.039400	-1.220316
0.039500	-1.238168
0.039600	-1.387152
0.039700	-1.479009
0.039800	-1.486149
0.039900	-1.379686
0.040000	-1.307304
0.040100	-1.279390
0.040200	-1.286207
0.040300	-1.302111
0.040400	-1.293023
0.040500	-1.265109
0.040600	-1.272899
0.040700	-1.198569
0.040800	-1.163839
0.040900	-1.097949
0.041000	-1.034006
0.041100	-1.025892
0.041200	-1.039200
0.041300	-1.038875
0.041400	-1.036927
0.041500	-0.942149
0.041600	-0.865873
0.041700	-0.834388
0.041800	-0.833739
0.041900	-0.773691
0.042000	-0.721434
0.042100	-0.658789
0.042200	-0.615620
0.042300	-0.537396
0.042400	-0.514026
0.042500	-0.501367
0.042600	-0.518570
0.042700	-0.519868
0.042800	-0.536097
0.042900	-0.578942
0.043000	-0.554274
0.043100	-0.575696
0.043200	-0.571801
0.043300	-0.601338
0.043400	-0.592899
0.043500	-0.643859
0.043600	-0.657167
0.043700	-0.649377
0.043800	-0.609453
0.043900	-0.472479
0.044000	-0.391334
0.044100	-0.425740
0.044200	-0.638016
0.044300	-0.698064
0.044400	-0.615945
0.044500	-0.514026
0.044600	-0.348814
0.044700	-0.329988
0.044800	-0.422494
0.044900	-0.519219
0.045000	-0.516947
0.045100	-0.434179
0.045200	-0.340699
0.045300	-0.320575
0.045400	-0.345893
0.045500	-0.373482
0.045600	-0.388413
0.045700	-0.399773
0.045800	-0.409511
0.045900	-0.407888
0.046000	-0.423143
0.046100	-0.427038
0.046200	-0.439048
0.046300	-0.480919
0.046400	-0.539668
0.046500	-0.541615
0.046600	-0.584136
0.046700	-0.585759
0.046800	-0.569854
0.046900	-0.552002
0.047000	-0.658789
0.047100	-0.813615
0.047200	-0.865548
0.047300	-0.799333
0.047400	-0.685081
0.047500	-0.675343
0.047600	-0.793816
0.047700	-0.966169
0.047800	-1.002197
0.047900	-0.915858
0.048000	-0.792842
0.048100	-0.749672
0.048200	-0.841204
0.048300	-0.909042
0.048400	-0.885348
0.048500	-0.871391
0.048600	-0.866197
0.048700	-0.956107
0.048800	-0.901577
0.048900	-0.676317
0.049000	-0.490331
0.049100	-0.160232
0.049200	-0.100184
0.049300	-0.221253
0.049400	-0.255010
0.049500	-0.001187
0.049600	0.271137
0.049700	0.544759
0.049800	0.317552
0.049900	0.042632
0.050000	-0.183277
0.050100	-0.193988
0.050200	-0.154389
0.050300	-0.366017
0.050400	-0.538045
0.050500	-0.097912
0.050600	-0.080385
0.050700	-0.037215
0.050800	-0.034619
0.050900	0.041983
0.051000	-0.055067
0.051100	-0.079086
0.051200	-0.028127
0.051300	-0.065129
0.051400	-0.163478
0.051500	-0.192041
0.051600	-0.172890
0.051700	-0.227420
0.051800	-0.352060
0.051900	-0.509806
0.052000	-0.800307
0.052100	-1.091457
0.052200	-1.258293
0.052300	-1.430970
0.052400	-1.466025
0.052500	-1.322235
0.052600	-1.200192
0.052700	-1.151180
0.052800	-1.324832
0.052900	-1.536460
0.053000	-1.572488
0.053100	-1.508221
0.053200	-1.405977
0.053300	-1.346579
0.053400	-1.397863
0.053500	-1.479009
0.053600	-1.540030
0.053700	-1.486474
0.053800	-1.424479
0.053900	-1.412794
0.054000	-1.392670
0.054100	-1.431295
0.054200	-1.417013
0.054300	-1.427075
0.054400	-1.411171
0.054500	-1.430321
0.054600	-1.447199
0.054700	-1.481605
0.054800	-1.483877
0.054900	-1.467973
0.055000	-1.474140
0.055100	-1.500106
0.055200	-1.516336
0.055300	-1.480631
0.055400	-1.341061
0.055500	-1.301787
0.055600	-1.361834
0.055700	-1.519257
0.055800	-1.577357
0.055900	-1.495238
0.056000	-1.332622
0.056100	-1.265758
0.056200	-1.341710
0.056300	-1.502054
0.056400	-1.580927
0.056500	-1.535810
0.056600	-1.416689
0.056700	-1.349500
0.056800	-1.355343
0.056900	-1.400460
0.057000	-1.417013
0.057100	-1.371572
0.057200	-1.345930
0.057300	-1.306006
0.057400	-1.250503
0.057500	-1.203114
0.057600	-1.141118
0.057700	-1.075877
0.057800	-1.054455
0.057900	-1.059973
0.058000	-1.068087
0.058100	-1.046665
0.058200	-0.947343
0.058300	-0.915858
0.058400	-0.884049
0.058500	-0.911639
0.058600	-0.847047
0.058700	-0.820431
0.058800	-0.786026
0.058900	-0.749997
0.059000	-0.693195
0.059100	-0.658140
0.059200	-0.666255
0.059300	-0.687353
0.059400	-0.681510
0.059500	-0.696116
0.059600	-0.709100
0.059700	-0.710723
0.059800	-0.691897
0.059900	-0.708126
0.060000	-0.696441
0.060100	-0.709100
0.060200	-0.727601
0.060300	-0.739610
0.060400	-0.739286
0.060500	-0.618541
0.060600	-0.490331
0.060700	-0.329339
0.060800	-0.502990
0.060900	-0.674045
0.061000	-0.709749
0.061100	-0.658465
0.061200	-0.537396
0.061300	-0.429959
0.061400	-0.453978
0.061500	-0.586408
0.061600	-0.650999
0.061700	-0.609453
0.061800	-0.525711
0.061900	-0.470857
0.062000	-0.485787
0.062100	-0.526360
0.062200	-0.567906
0.062300	-0.622436
0.062400	-0.598417
0.062500	-0.598742
0.062600	-0.599391
0.062700	-0.614646
0.062800	-0.639639
0.062900	-0.679238
0.063000	-0.776937
0.063100	-0.742856
0.063200	-0.787324
0.063300	-0.768174
0.063400	-0.787973
0.063500	-0.745453
0.063600	-0.759734
0.063700	-0.871715
0.063800	-1.021348
0.063900	-1.038875
0.064000	-0.911963
0.064100	-0.762980
0.064200	-0.773042
0.064300	-0.910990
0.064400	-1.066140
0.064500	-1.043744
0.064600	-0.904498
0.064700	-0.770770
0.064800	-0.751944
0.064900	-0.826923
0.065000	-0.908718
0.065100	-0.906121
0.065200	-0.886971
0.065300	-0.782455
0.065400	-0.902226
0.065500	-0.697415
0.065600	-0.813940
0.065700	-0.646131
0.065800	-0.606207
0.065900	-0.632498
0.066000	-0.907419
0.066100	-0.824651
0.066200	-0.617243
0.066300	-0.577319
0.066400	-0.507534
0.066500	-0.938255
0.066600	-1.088536
0.066700	-1.079448
0.066800	-1.073930
0.066900	-1.075877
0.067000	-1.157997
0.067100	-1.139495
0.067200	-0.799333
0.067300	-0.905147
0.067400	-0.659439
0.067500	-0.685081
0.067600	-0.576346
0.067700	-0.553949
0.067800	-0.467935
0.067900	-0.354007
0.068000	-0.373807
0.068100	-0.306618
0.068200	-0.258905
0.068300	-0.295907
0.068400	-0.140108
0.068500	-0.433205
0.068600	-0.294609
0.068700	-0.555897
0.068800	-0.975581
0.068900	-1.223238
0.069000	-1.395915
0.069100	-1.329376
0.069200	-1.219667
0.069300	-1.067438
0.069400	-1.142092
0.069500	-1.328078
0.069600	-1.457262
0.069700	-1.528994
0.069800	-1.438436
0.069900	-1.329051
0.070000	-1.330350
0.070100	-1.424803
0.070200	-1.519257
0.070300	-1.551390
0.070400	-1.486799
0.070500	-1.462779
0.070600	-1.411171
0.070700	-1.408250
0.070800	-1.428374
0.070900	-1.428698
0.071000	-1.402407
0.071100	-1.388775
0.071200	-1.357290
0.071300	-1.388450
0.071400	-1.412794
0.071500	-1.416364
0.071600	-1.384230
0.071700	-1.389099
0.071800	-1.414092
0.071900	-1.427075
0.072000	-1.356316
0.072100	-1.267056
0.072200	-1.232326
0.072300	-1.377090
0.072400	-1.474140
0.072500	-1.512441
0.072600	-1.366378
0.072700	-1.242713
0.072800	-1.206684
0.072900	-1.325481
0.073000	-1.485176
0.073100	-1.529968
0.073200	-1.439085
0.073300	-1.353071
0.073400	-1.284259
0.073500	-1.298216
0.073600	-1.322560
0.073700	-1.329701
0.073800	-1.308603
0.073900	-1.287180
0.074000	-1.244011
0.074100	-1.176822
0.074200	-1.109634
0.074300	-1.038226
0.074400	-0.979152
0.074500	-0.984345
0.074600	-0.974283
0.074700	-0.979801
0.074800	-0.946694
0.074900	-0.833415
0.075000	-0.811343
0.075100	-0.792517
0.075200	-0.767849
0.075300	-0.681510
0.075400	-0.631200
0.075500	-0.595171
0.075600	-0.529606
0.075700	-0.469558
0.075800	-0.455601
0.075900	-0.501367
0.076000	-0.511754
0.076100	-0.531553
0.076200	-0.576021
0.076300	-0.549730
0.076400	-0.562389
0.076500	-0.556871
0.076600	-0.605883
0.076700	-0.553949
0.076800	-0.627954
0.076900	-0.614322
0.077000	-0.674045
0.077100	-0.636718
0.077200	-0.531553
0.077300	-0.464365
0.077400	-0.362771
0.077500	-0.615945
0.077600	-0.772393
0.077700	-0.729873
0.077800	-0.712345
0.077900	-0.569205
0.078000	-0.523114
0.078100	-0.570179
0.078200	-0.674694
0.078300	-0.752269
0.078400	-0.681835
0.078500	-0.581864
0.078600	-0.526685
0.078700	-0.537396
0.078800	-0.574398
0.078900	-0.614646
0.079000	-0.630226
0.079100	-0.612699
0.079200	-0.577644
0.079300	-0.597119
0.079400	-0.582513
0.079500	-0.604909
0.079600	-0.608804
0.079700	-0.684431
0.079800	-0.660088
0.079900	-0.689300
0.080000	-0.704880
0.080100	-0.664632
0.080200	-0.633797
0.080300	-0.643534
0.080400	-0.802579
0.080500	-0.947667
0.080600	-0.883725
0.080700	-0.731171
0.080800	-0.650999
0.080900	-0.691572
0.081000	-0.874636
0.081100	-1.007715
0.081200	-0.955782
0.081300	-0.821080
0.081400	-0.715916
0.081500	-0.770446
0.081600	-0.832116
0.081700	-0.872689
0.081800	-0.881777
0.081900	-0.888269
0.082000	-0.831467
0.082100	-0.880803
0.082200	-0.723381
0.082300	-0.662035
0.082400	-0.423792
0.082500	-0.463391
0.082600	-0.518895
0.082700	-0.638341
0.082800	-0.507859
0.082900	-0.235859
0.083000	-0.047927
0.083100	0.025104
0.083200	-0.499744
0.083300	-0.909691
0.083400	-0.738961
0.083500	-0.592250
0.083600	-0.671448
0.083700	-0.884374
0.083800	-0.804851
0.083900	-0.527334
0.084000	-0.622761
0.084100	-0.567906
0.084200	-0.549730
0.084300	-0.703257
0.084400	-0.786026
0.084500	-0.739286
0.084600	-0.771419
0.084700	-0.691572
0.084800	-0.778236
0.084900	-0.661386
0.085000	-0.761357
0.085100	-0.655868
0.085200	-0.566284
0.085300	-0.874312
0.085400	-0.825300
0.085500	-1.204736
0.085600	-1.341061
0.085700	-1.440383
0.085800	-1.384555
0.085900	-1.234923
0.086000	-1.168708
0.086100	-1.233949
0.086200	-1.468297
0.086300	-1.572164
0.086400	-1.562426
0.086500	-1.456288
0.086600	-1.355343
0.086700	-1.356316
0.086800	-1.468622
0.086900	-1.567295
0.087000	-1.612087
0.087100	-1.531591
0.087200	-1.499782
0.087300	-1.474464
0.087400	-1.472517
0.087500	-1.472517
0.087600	-1.499782
0.087700	-1.466999
0.087800	-1.473815
0.087900	-1.454989
0.088000	-1.485825
0.088100	-1.503352
0.088200	-1.485500
0.088300	-1.479658
0.088400	-1.481281
0.088500	-1.515362
0.088600	-1.473166
0.088700	-1.334245
0.088800	-1.248880
0.088900	-1.268355
0.089000	-1.430970
0.089100	-1.509195
0.089200	-1.474464
0.089300	-1.327429
0.089400	-1.209930
0.089500	-1.227782
0.089600	-1.336192
0.089700	-1.461481
0.089800	-1.493939
0.089900	-1.387152
0.090000	-1.312173
0.090100	-1.277443
0.090200	-1.297242
0.090300	-1.320612
0.090400	-1.323209
0.090500	-1.317691
0.090600	-1.319314
0.090700	-1.255047
0.090800	-1.191429
0.090900	-1.133328
0.091000	-1.070359
0.091100	-1.049262
0.091200	-1.036278
0.091300	-1.031085
0.091400	-1.027190
0.091500	-0.942799
0.091600	-0.861004
0.091700	-0.840555
0.091800	-0.836985
0.091900	-0.794789
0.092000	-0.759085
0.092100	-0.719486
0.092200	-0.661061
0.092300	-0.591601
0.092400	-0.558169
0.092500	-0.528632
0.092600	-0.567906
0.092700	-0.584785
0.092800	-0.613023
0.092900	-0.669176
0.093000	-0.657491
0.093100	-0.694818
0.093200	-0.666579
0.093300	-0.712345
0.093400	-0.718837
0.093500	-0.760059
0.093600	-0.821405
0.093700	-0.806799
0.093800	-0.788298
0.093900	-0.650350
0.094000	-0.563687
0.094100	-0.634121
0.094200	-0.805825
0.094300	-0.928842
0.094400	-0.859706
0.094500	-0.782455
0.094600	-0.604909
0.094700	-0.576670
0.094800	-0.669501
0.094900	-0.756489
0.095000	-0.796412
0.095100	-0.695467
0.095200	-0.592899
0.095300	-0.550054
0.095400	-0.563038
0.095500	-0.623085
0.095600	-0.657167
0.095700	-0.662684
0.095800	-0.662684
0.095900	-0.645157
0.096000	-0.652622
0.096100	-0.640288
0.096200	-0.639315
0.096300	-0.684107
0.096400	-0.765901
0.096500	-0.759410
0.096600	-0.807123
0.096700	-0.824326
0.096800	-0.788298
0.096900	-0.818159
0.097000	-0.843801
0.097100	-1.073605
0.097200	-1.110608
0.097300	-1.036278
0.097400	-0.868145
0.097500	-0.841529
0.097600	-0.930789
0.097700	-1.125214
0.097800	-1.197271
0.097900	-1.137223
0.098000	-0.956107
0.098100	-0.906445
0.098200	-0.953834
0.098300	-1.040173
0.098400	-1.056727
0.098500	-1.041796
0.098600	-1.018751
0.098700	-1.000899
0.098800	-1.003171
0.098900	-0.984021
0.099000	-0.978178
0.099100	-0.933061
0.099200	-0.920402
0.099300	-1.034331
0.099400	-1.079448
0.099500	-1.079448
0.099600	-0.960002
0.099700	-0.804527
0.099800	-1.068412
0.099900	-1.175849
0.100000	-1.212526
0.100100	-1.214474
0.100200	-1.211553
0.100300	-1.231677
0.100400	-1.264784
0.100500	-1.206359
0.100600	-1.196622
0.100700	-1.192727
0.100800	-1.196297
0.100900	-1.209930
0.101000	-1.229405
0.101100	-1.242713
0.101200	-1.239791
0.101300	-1.264784
0.101400	-1.275495
0.101500	-1.283935
0.101600	-1.304059
0.101700	-1.292049
0.101800	-1.333271
0.101900	-1.365080
0.102000	-1.414741
0.102100	-1.431619
0.102200	-1.560154
0.102300	-1.714331
0.102400	-1.770484
0.102500	-1.680250
0.102600	-1.552040
0.102700	-1.501405
0.102800	-1.652011
0.102900	-1.885061
0.103000	-1.939267
0.103100	-1.882465
0.103200	-1.731858
0.103300	-1.657529
0.103400	-1.726665
0.103500	-1.843190
0.103600	-1.913625
0.103700	-1.873701
0.103800	-1.842216
0.103900	-1.800994
0.104000	-1.769510
0.104100	-1.781195
0.104200	-1.802942
0.104300	-1.820794
0.104400	-1.823066
0.104500	-1.834751
0.104600	-1.838646
0.104700	-1.869157
0.104800	-1.874675
0.104900	-1.855524
0.105000	-1.864613
0.105100	-1.890904
0.105200	-1.884737
0.105300	-1.823066
0.105400	-1.680899
0.105500	-1.618254
0.105600	-1.685768
0.105700	-1.830207
0.105800	-1.889606
0.105900	-1.797424
0.106000	-1.606245
0.106100	-1.517634
0.106200	-1.564698
0.106300	-1.707515
0.106400	-1.813978
0.106500	-1.785090
0.106600	-1.666942
0.106700	-1.556908
0.106800	-1.534837
0.106900	-1.522178
0.107000	-1.511142
0.107100	-1.479658
0.107200	-1.442006
0.107300	-1.415715
0.107400	-1.328402
0.107500	-1.273872
0.107600	-1.159620
0.107700	-1.070359
0.107800	-1.039524
0.107900	-1.038550
0.108000	-1.017777
0.108100	-1.004794
0.108200	-0.874636
0.108300	-0.830169
0.108400	-0.810369
0.108500	-0.808746
0.108600	-0.728575
0.108700	-0.686054
0.108800	-0.663983
0.108900	-0.617243
0.109000	-0.552327
0.109100	-0.520842
0.109200	-0.490656
0.109300	-0.533176
0.109400	-0.554599
0.109500	-0.555572
0.109600	-0.565634
0.109700	-0.551677
0.109800	-0.561739
0.109900	-0.567906
0.110000	-0.562713
0.110100	-0.622436
0.110200	-0.609453
0.110300	-0.661386
0.110400	-0.609128
0.110500	-0.590303
0.110600	-0.368938
0.110700	-0.333558
0.110800	-0.438074
0.110900	-0.609128
0.111000	-0.658465
0.111100	-0.592899
0.111200	-0.499095
0.111300	-0.371535
0.111400	-0.397826
0.111500	-0.514026
0.111600	-0.589653
0.111700	-0.564336
0.111800	-0.465014
0.111900	-0.374780
0.112000	-0.344919
0.112100	-0.379649
0.112200	-0.414055
0.112300	-0.442618
0.112400	-0.426389
0.112500	-0.398799
0.112600	-0.399773
0.112700	-0.398475
0.112800	-0.380298
0.112900	-0.380623
0.113000	-0.393281
0.113100	-0.444241
0.113200	-0.428985
0.113300	-0.459821
0.113400	-0.434503
0.113500	-0.400098
0.113600	-0.362771
0.113700	-0.534150
0.113800	-0.655868
0.113900	-0.683133
0.114000	-0.565634
0.114100	-0.061559
0.114200	0.280875
0.114300	-0.408537
0.114400	-0.736365
0.114500	-0.762980
0.114600	-0.662360
0.114700	0.216607
0.114800	0.601886
0.114900	0.284445
0.115000	-0.325444
0.115100	-0.204699
0.115200	-0.225473
0.115300	0.133839
0.115400	0.216607
0.115500	0.206545
0.115600	0.436025
0.115700	0.606105
0.115800	0.736587
0.115900	0.621361
0.116000	0.500941
0.116100	0.445762
0.116200	0.620062
0.116300	0.790468
0.116400	0.899527
0.116500	0.453877
0.116600	0.014718
0.116700	-0.108623
0.116800	-0.080709
0.116900	-0.096938
0.117000	-0.376728
0.117100	-0.385167
0.117200	-0.038189
0.117300	0.016990
0.117400	0.067949
0.117500	0.129295
0.117600	0.133839
0.117700	0.116636
0.117800	0.298402
0.117900	0.271137
0.118000	0.239004
0.118100	0.090345
0.118200	0.118908
0.118300	-0.007029
0.118400	-0.002485
0.118500	-0.227745
0.118600	-0.375429
0.118700	-0.521816
0.118800	-0.878856
0.118900	-1.226808
0.119000	-1.392994
0.119100	-1.360536
0.119200	-1.228106
0.119300	-1.085939
0.119400	-1.107362
0.119500	-1.307954
0.119600	-1.466350
0.119700	-1.525748
0.119800	-1.415066
0.119900	-1.298216
0.120000	-1.229080
0.120100	-1.328402
0.120200	-1.417987
0.120300	-1.464078
0.120400	-1.442655
0.120500	-1.392670
0.120600	-1.350149
0.120700	-1.320937
0.120800	-1.344307
0.120900	-1.351123
0.121000	-1.356316
0.121100	-1.346579
0.121200	-1.330999
0.121300	-1.339114
0.121400	-1.385529
0.121500	-1.387152
0.121600	-1.382283
0.121700	-1.376116
0.121800	-1.374168
0.121900	-1.377414
0.122000	-1.313147
0.122100	-1.187209
0.122200	-1.155725
0.122300	-1.280364
0.122400	-1.422531
0.122500	-1.468622
0.122600	-1.344631
0.122700	-1.158970
0.122800	-1.097624
0.122900	-1.182340
0.123000	-1.329701
0.123100	-1.390398
0.123200	-1.342359
0.123300	-1.253099
0.123400	-1.194674
0.123500	-1.206359
0.123600	-1.223562
0.123700	-1.239467
0.123800	-1.221939
0.123900	-1.206035
0.124000	-1.180717
0.124100	-1.142417
0.124200	-1.086264
0.124300	-1.016803
0.124400	-0.979476
0.124500	-0.975906
0.124600	-0.967467
0.124700	-1.007715
0.124800	-0.974932
0.124900	-0.886646
0.125000	-0.860355
0.125100	-0.870741
0.125200	-0.866846
0.125300	-0.795114
0.125400	-0.765577
0.125500	-0.730522
0.125600	-0.697415
0.125700	-0.650675
0.125800	-0.606532
0.125900	-0.635420
0.126000	-0.679887
0.126100	-0.699362
0.126200	-0.715916
0.126300	-0.717214
0.126400	-0.738312
0.126500	-0.726302
0.126600	-0.758111
0.126700	-0.734742
0.126800	-0.794789
0.126900	-0.785052
0.127000	-0.859381
0.127100	-0.758111
0.127200	-0.703257
0.127300	-0.533176
0.127400	-0.482217
0.127500	-0.657491
0.127600	-0.830169
0.127700	-0.794789
0.127800	-0.752269
0.127900	-0.613348
0.128000	-0.504288
0.128100	-0.580890
0.128200	-0.690598
0.128300	-0.748049
0.128400	-0.703257
0.128500	-0.587057
0.128600	-0.524413
0.128700	-0.531878
0.128800	-0.561090
0.128900	-0.593548
0.129000	-0.615620
0.129100	-0.587057
0.129200	-0.570179
0.129300	-0.569854
0.129400	-0.559467
0.129500	-0.562064
0.129600	-0.567582
0.129700	-0.675992
0.129800	-0.641587
0.129900	-0.706503
0.130000	-0.684756
0.130100	-0.723057
0.130200	-0.686703
0.130300	-0.739610
0.130400	-0.854837
0.130500	-1.017128
0.130600	-1.001548
0.130700	-0.878531
0.130800	-0.764603
0.130900	-0.831792
0.131000	-0.995381
0.131100	-1.122617
0.131200	-1.097949
0.131300	-0.958054
0.131400	-0.865873
0.131500	-0.885672
0.131600	-0.975581
0.131700	-1.012908
0.131800	-0.994732
0.131900	-0.994732
0.132000	-0.970064
0.132100	-0.999276
0.132200	-0.999276
0.132300	-0.994732
0.132400	-0.953185
0.132500	-1.002522
0.132600	-1.038550
0.132700	-1.075228
0.132800	-1.072956
0.132900	-0.954808
0.133000	-0.976555
0.133100	-0.959352
0.133200	-1.155725
0.133300	-1.213825
0.133400	-1.227133
0.133500	-1.210254
0.133600	-1.232001
0.133700	-1.284584
0.133800	-1.272574
0.133900	-1.228431
0.134000	-1.246932
0.134100	-1.235247
0.134200	-1.243362
0.134300	-1.232975
0.134400	-1.229080
0.134500	-1.231352
0.134600	-1.212526
0.134700	-1.220641
0.134800	-1.203114
0.134900	-1.223238
0.135000	-1.214474
0.135100	-1.263810
0.135200	-1.284584
0.135300	-1.299514
0.135400	-1.322235
0.135500	-1.397863
0.135600	-1.551390
0.135700	-1.674407
0.135800	-1.636756
0.135900	-1.468297
0.136000	-1.420908
0.136100	-1.461481
0.136200	-1.681223
0.136300	-1.801319
0.136400	-1.789309
0.136500	-1.693882
0.136600	-1.581577
0.136700	-1.605596
0.136800	-1.689013
0.136900	-1.754904
0.137000	-1.782818
0.137100	-1.735104
0.137200	-1.683171
0.137300	-1.675381
0.137400	-1.663047
0.137500	-1.682197
0.137600	-1.690312
0.137700	-1.689663
0.137800	-1.667591
0.137900	-1.662398
0.138000	-1.669538
0.138100	-1.661749
0.138200	-1.673109
0.138300	-1.658503
0.138400	-1.669863
0.138500	-1.689987
0.138600	-1.652011
0.138700	-1.543925
0.138800	-1.448173
0.138900	-1.449472
0.139000	-1.598130
0.139100	-1.670837
0.139200	-1.675381
0.139300	-1.514388
0.139400	-1.377414
0.139500	-1.389099
0.139600	-1.509519
0.139700	-1.658178
0.139800	-1.670512
0.139900	-1.555935
0.140000	-1.467973
0.140100	-1.425128
0.140200	-1.441682
0.140300	-1.464727
0.140400	-1.458560
0.140500	-1.432269
0.140600	-1.378063
0.140700	-1.313472
0.140800	-1.253099
0.140900	-1.182340
0.141000	-1.104441
0.141100	-1.032383
0.141200	-1.029787
0.141300	-1.019400
0.141400	-1.012259
0.141500	-0.921376
0.141600	-0.837309
0.141700	-0.825300
0.141800	-0.814264
0.141900	-0.781806
0.142000	-0.755190
0.142100	-0.703257
0.142200	-0.662360
0.142300	-0.620489
0.142400	-0.588680
0.142500	-0.591601
0.142600	-0.631200
0.142700	-0.655219
0.142800	-0.667878
0.142900	-0.706178
0.143000	-0.710723
0.143100	-0.769147
0.143200	-0.765252
0.143300	-0.815563
0.143400	-0.810369
0.143500	-0.870741
0.143600	-0.893787
0.143700	-0.927543
0.143800	-0.872689
0.143900	-0.776613
0.144000	-0.656517
0.144100	-0.669825
0.144200	-0.935982
0.144300	-0.971037
0.144400	-1.028164
0.144500	-0.878856
0.144600	-0.727276
0.144700	-0.677291
0.144800	-0.760059
0.144900	-0.868794
0.145000	-0.893462
0.145100	-0.799983
0.145200	-0.701634
0.145300	-0.642560
0.145400	-0.663983
0.145500	-0.704880
0.145600	-0.739286
0.145700	-0.718188
0.145800	-0.693844
0.145900	-0.664956
0.146000	-0.688651
0.146100	-0.687028
0.146200	-0.731820
0.146300	-0.790570
0.146400	-0.813290
0.146500	-0.829195
0.146600	-0.838608
0.146700	-0.829844
0.146800	-0.795763
0.146900	-0.771419
0.147000	-0.798684
0.147100	-1.007390
0.147200	-1.046340
0.147300	-0.973634
0.147400	-0.806150
0.147500	-0.749672
0.147600	-0.837634
0.147700	-1.018102
0.147800	-1.073605
0.147900	-0.981424
0.148000	-0.838283
0.148100	-0.749672
0.148200	-0.822703
0.148300	-0.903849
0.148400	-0.916183
0.148500	-0.892164
0.148600	-0.858083
0.148700	-0.691897
0.148800	-0.604260
0.148900	-0.339076
0.149000	-0.123554
0.149100	0.149095
0.149200	0.302297
0.149300	0.140006
0.149400	0.105601
0.149500	0.273734
0.149600	0.660960
0.149700	0.728148
0.149800	0.589227
0.149900	0.011796
0.150000	-0.171917
0.150100	-0.058962
0.150200	-0.042733
0.150300	-0.165425
0.150400	-0.378675
0.150500	-0.117387
0.150600	-0.019363
0.150700	-0.031048
0.150800	0.128970
0.150900	0.137085
0.151000	-0.063831
0.151100	-0.124852
0.151200	-0.118361
0.151300	-0.188146
0.151400	-0.302074
0.151500	-0.385167
0.151600	-0.512078
0.151700	-0.673396
0.151800	-0.804851
0.151900	-1.047639
0.152000	-1.154751
0.152100	-1.229729
0.152200	-1.318340
0.152300	-1.534512
0.152400	-1.573787
0.152500	-1.518932
0.152600	-1.367677
0.152700	-1.340412
0.152800	-1.474140
0.152900	-1.652660
0.153000	-1.733806
0.153100	-1.666942
0.153200	-1.541653
0.153300	-1.436813
0.153400	-1.496536
0.153500	-1.613710
0.153600	-1.660450
0.153700	-1.660126
0.153800	-1.581252
0.153900	-1.550092
0.154000	-1.530617
0.154100	-1.534188
0.154200	-1.576708
0.154300	-1.557882
0.154400	-1.568918
0.154500	-1.584822
0.154600	-1.584498
0.154700	-1.614359
0.154800	-1.610140
0.154900	-1.606569
0.155000	-1.577357
0.155100	-1.583200
0.155200	-1.576383
0.155300	-1.509195
0.155400	-1.351772
0.155500	-1.305682
0.155600	-1.346579
0.155700	-1.464402
0.155800	-1.537758
0.155900	-1.503352
0.156000	-1.336517
0.156100	-1.246283
0.156200	-1.293997
0.156300	-1.448498
0.156400	-1.554312
0.156500	-1.523476
0.156600	-1.419285
0.156700	-1.333596
0.156800	-1.313796
0.156900	-1.327753
0.157000	-1.372870
0.157100	-1.358913
0.157200	-1.351448
0.157300	-1.294321
0.157400	-1.215448
0.157500	-1.166111
0.157600	-1.086913
0.157700	-1.014531
0.157800	-0.979801
0.157900	-0.975257
0.158000	-0.993109
0.158100	-0.994732
0.158200	-0.901577
0.158300	-0.823352
0.158400	-0.823028
0.158500	-0.816212
0.158600	-0.761357
0.158700	-0.729548
0.158800	-0.692546
0.158900	-0.643209
0.159000	-0.585434
0.159100	-0.553300
0.159200	-0.567257
0.159300	-0.597443
0.159400	-0.620164
0.159500	-0.653921
0.159600	-0.672746
0.159700	-0.711047
0.159800	-0.700336
0.159900	-0.749348
0.160000	-0.776937
0.160100	-0.817510
0.160200	-0.874312
0.160300	-0.883076
0.160400	-0.946044
0.160500	-0.828546
0.160600	-0.800307
0.160700	-0.640937
0.160800	-0.765577
0.160900	-1.000574
0.161000	-1.062245
0.161100	-1.021672
0.161200	-0.917157
0.161300	-0.810045
0.161400	-0.805176
0.161500	-0.949290
0.161600	-1.032383
0.161700	-0.999276
0.161800	-0.905796
0.161900	-0.807773
0.162000	-0.774016
0.162100	-0.817185
0.162200	-0.888269
0.162300	-0.900928
0.162400	-0.873338
0.162500	-0.840555
0.162600	-0.834713
0.162700	-0.871391
0.162800	-0.846398
0.162900	-0.834064
0.163000	-0.874636
0.163100	-0.873987
0.163200	-0.888918
0.163300	-0.872040
0.163400	-0.823677
0.163500	-0.769472
0.163600	-0.742207
0.163700	-0.811668
0.163800	-0.968441
0.163900	-0.949290
0.164000	-0.862951
0.164100	-0.670799
0.164200	-0.655544
0.164300	-0.760384
0.164400	-0.926570
0.164500	-0.931438
0.164600	-0.786350
0.164700	-0.285196
0.164800	0.407461
0.164900	0.196808
0.165000	-0.193015
0.165100	-0.141081
0.165200	0.010174
0.165300	0.690497
0.165400	1.271173
0.165500	1.471765
0.165600	1.724938
0.165700	2.048546
0.165800	2.493873
0.165900	2.682131
0.166000	2.747047
0.166100	2.977501
0.166200	3.330322
0.166300	3.677302
0.166400	4.042783
0.166500	3.898992
0.166600	3.536433
0.166700	3.528643
0.166800	3.623096
0.166900	3.896720
0.167000	3.661397
0.167100	3.683469
0.167200	4.061284
0.167300	4.074268
0.167400	4.153466
0.167500	4.060635
0.167600	3.952549
0.167700	3.783765
0.167800	3.712032
0.167900	3.620824
0.168000	3.408547
0.168100	3.117072
0.168200	2.950561
0.168300	2.687973
0.168400	2.422140
0.168500	2.094637
0.168600	1.697349
0.168700	1.251698
0.168800	0.694067
0.168900	-0.451382
0.169000	-1.234923
0.169100	-1.282636
0.169200	-1.183639
0.169300	-1.116126
0.169400	-1.128135
0.169500	-1.411495
0.169600	-1.599104
0.169700	-1.702646
0.169800	-1.654283
0.169900	-1.562751
0.170000	-1.556584
0.170100	-1.683496
0.170200	-1.822742
0.170300	-1.917844
0.170400	-1.901615
0.170500	-1.895123
0.170600	-1.854226
0.170700	-1.882465
0.170800	-1.900966
0.170900	-1.948030
0.171000	-1.956794
0.171100	-1.951601
0.171200	-1.991525
0.171300	-1.987954
0.171400	-1.973348
0.171500	-1.988928
0.171600	-1.991849
0.171700	-1.995095
0.171800	-1.991525
0.171900	-1.958093
0.172000	-1.876622
0.172100	-1.726990
0.172200	-1.732508
0.172300	-1.811381
0.172400	-1.933100
0.172500	-1.959391
0.172600	-1.842216
0.172700	-1.684794
0.172800	-1.601701
0.172900	-1.670837
0.173000	-1.810083
0.173100	-1.882465
0.173200	-1.839944
0.173300	-1.708813
0.173400	-1.594560
0.173500	-1.561777
0.173600	-1.568593
0.173700	-1.584173
0.173800	-1.527047
0.173900	-1.464727
0.174000	-1.415390
0.174100	-1.313796
0.174200	-1.234273
0.174300	-1.136899
0.174400	-1.057376
0.174500	-1.025892
0.174600	-1.003171
0.174700	-0.995056
0.174800	-0.933061
0.174900	-0.797386
0.175000	-0.737663
0.175100	-0.694493
0.175200	-0.684107
0.175300	-0.584460
0.175400	-0.515649
0.175500	-0.462742
0.175600	-0.406589
0.175700	-0.316031
0.175800	-0.282275
0.175900	-0.302723
0.176000	-0.311487
0.176100	-0.340699
0.176200	-0.333558
0.176300	-0.386790
0.176400	-0.339401
0.176500	-0.377377
0.176600	-0.342322
0.176700	-0.359200
0.176800	-0.375105
0.176900	-0.381921
0.177000	-0.436775
0.177100	-0.350437
0.177200	-0.328365
0.177300	-0.094017
0.177400	-0.037540
0.177500	-0.210217
0.177600	-0.414704
0.177700	-0.486112
0.177800	-0.420222
0.177900	-0.280327
0.178000	-0.207621
0.178100	-0.277081
0.178200	-0.446837
0.178300	-0.545835
0.178400	-0.511105
0.178500	-0.436126
0.178600	-0.374456
0.178700	-0.402694
0.178800	-0.466962
0.178900	-0.530580
0.179000	-0.576346
0.179100	-0.589004
0.179200	-0.583811
0.179300	-0.593548
0.179400	-0.603611
0.179500	-0.614971
0.179600	-0.615295
0.179700	-0.658789
0.179800	-0.706503
0.179900	-0.769796
0.180000	-0.783429
0.180100	-0.772393
0.180200	-0.756164
0.180300	-0.759085
0.180400	-0.880803
0.180500	-1.058674
0.180600	-1.046016
0.180700	-0.978503
0.180800	-0.809395
0.180900	-0.897682
0.181000	-1.025243
0.181100	-1.173901
0.181200	-1.168059
0.181300	-1.061596
0.181400	-0.931438
0.181500	-0.930465
0.181600	-1.015505
0.181700	-1.108336
0.181800	-1.102168
0.181900	-1.147935
0.182000	-1.096651
0.182100	-1.127161
0.182200	-1.117748
0.182300	-1.133328
0.182400	-1.138197
0.182500	-1.128135
0.182600	-1.189481
0.182700	-1.227457
0.182800	-1.235896
0.182900	-1.206684
0.183000	-1.194674
0.183100	-1.207982
0.183200	-1.297892
0.183300	-1.342684
0.183400	-1.355667
0.183500	-1.354044
0.183600	-1.342684
0.183700	-1.386827
0.183800	-1.358913
0.183900	-1.280040
0.184000	-1.253099
0.184100	-1.223887
0.184200	-1.230378
0.184300	-1.196622
0.184400	-1.197271
0.184500	-1.140794
0.184600	-1.078149
0.184700	-0.947018
0.184800	-0.878207
0.184900	-0.706503
0.185000	-0.650026
0.185100	-0.666904
0.185200	-0.820431
0.185300	-0.946694
0.185400	-0.875286
0.185500	-1.184288
0.185600	-1.338464
0.185700	-1.446226
0.185800	-1.424479
0.185900	-1.283610
0.186000	-1.213500
0.186100	-1.246283
0.186200	-1.435514
0.186300	-1.601376
0.186400	-1.583524
0.186500	-1.454340
0.186600	-1.343333
0.186700	-1.321261
0.186800	-1.407276
0.186900	-1.481930
0.187000	-1.502703
0.187100	-1.402407
0.187200	-1.357290
0.187300	-1.319314
0.187400	-1.293997
0.187500	-1.278417
0.187600	-1.266407
0.187700	-1.256994
0.187800	-1.228106
0.187900	-1.247906
0.188000	-1.257319
0.188100	-1.299190
0.188200	-1.243037
0.188300	-1.242713
0.188400	-1.279066
0.188500	-1.297892
0.188600	-1.298216
0.188700	-1.194674
0.188800	-1.095677
0.188900	-1.130732
0.189000	-1.254398
0.189100	-1.393319
0.189200	-1.426102
0.189300	-1.315094
0.189400	-1.196622
0.189500	-1.209605
0.189600	-1.321586
0.189700	-1.498483
0.189800	-1.575734
0.189900	-1.549768
0.190000	-1.471543
0.190100	-1.475114
0.190200	-1.490369
0.190300	-1.524125
0.190400	-1.533214
0.190500	-1.523476
0.190600	-1.511467
0.190700	-1.474789
0.190800	-1.435839
0.190900	-1.379686
0.191000	-1.320612
0.191100	-1.285882
0.191200	-1.298865
0.191300	-1.309901
0.191400	-1.330999
0.191500	-1.248230
0.191600	-1.166436
0.191700	-1.157023
0.191800	-1.153128
0.191900	-1.118398
0.192000	-1.046016
0.192100	-1.008364
0.192200	-0.948641
0.192300	-0.878207
0.192400	-0.820107
0.192500	-0.803228
0.192600	-0.795438
0.192700	-0.839906
0.192800	-0.805500
0.192900	-0.848994
0.193000	-0.822379
0.193100	-0.818159
0.193200	-0.829844
0.193300	-0.800632
0.193400	-0.825625
0.193500	-0.809071
0.193600	-0.833739
0.193700	-0.828870
0.193800	-0.813940
0.193900	-0.731820
0.194000	-0.489682
0.194100	-0.571477
0.194200	-0.655868
0.194300	-0.860679
0.194400	-0.812317
0.194500	-0.716890
0.194600	-0.509806
0.194700	-0.455601
0.194800	-0.528957
0.194900	-0.639315
0.195000	-0.666904
0.195100	-0.572126
0.195200	-0.463067
0.195300	-0.414055
0.195400	-0.413730
0.195500	-0.453654
0.195600	-0.473129
0.195700	-0.483191
0.195800	-0.454303
0.195900	-0.453978
0.196000	-0.461444
0.196100	-0.474102
0.196200	-0.484489
0.196300	-0.507210
0.196400	-0.598093
0.196500	-0.597119
0.196600	-0.651649
0.196700	-0.668851
0.196800	-0.609778
0.196900	-0.621463
0.197000	-0.633472
0.197100	-0.874636
0.197200	-0.925920
0.197300	-0.897682
0.197400	-0.787648
0.197500	-0.660412
0.197600	-0.781157
0.197700	-0.911639
0.197800	-1.016479
0.197900	-0.948317
0.198000	-0.846073
0.198100	-0.764928
0.198200	-0.798360
0.198300	-0.888593
0.198400	-0.931763
0.198500	-0.920402
0.198600	-0.915209
0.198700	-0.865224
0.198800	-0.857758
0.198900	-0.666255
0.199000	-0.544861
0.199100	-0.254360
0.199200	-0.225148
0.199300	-0.376403
0.199400	-0.396852
0.199500	-0.333558
0.199600	-0.042084
0.199700	0.118259
0.199800	0.077687
0.199900	-0.428661
0.200000	-0.600040
0.200100	-0.664956
0.200200	-0.515000
0.200300	-0.660737
0.200400	-0.933061
0.200500	-0.560117
0.200600	-0.524413
0.200700	-0.377377
0.200800	-0.259229
0.200900	-0.123879
0.201000	-0.123229
0.201100	-0.013196
0.201200	-0.025855
0.201300	-0.008977
0.201400	-0.053120
0.201500	-0.091420
0.201600	-0.162179
0.201700	-0.176136
0.201800	-0.330313
0.201900	-0.358876
0.202000	-0.567582
0.202100	-0.764928
0.202200	-1.208631
0.202300	-1.388125
0.202400	-1.462455
0.202500	-1.395266
0.202600	-1.238168
0.202700	-1.187858
0.202800	-1.359562
0.202900	-1.593262
0.203000	-1.694531
0.203100	-1.687715
0.203200	-1.523152
0.203300	-1.495562
0.203400	-1.510818
0.203500	-1.646169
0.203600	-1.721796
0.203700	-1.706216
0.203800	-1.695505
0.203900	-1.660450
0.204000	-1.668240
0.204100	-1.643247
0.204200	-1.664021
0.204300	-1.641300
0.204400	-1.629615
0.204500	-1.652011
0.204600	-1.669863
0.204700	-1.672784
0.204800	-1.665319
0.204900	-1.667591
0.205000	-1.654608
0.205100	-1.714655
0.205200	-1.711410
0.205300	-1.677004
0.205400	-1.503028
0.205500	-1.483553
0.205600	-1.555935
0.205700	-1.682846
0.205800	-1.775352
0.205900	-1.751009
0.206000	-1.610789
0.206100	-1.527047
0.206200	-1.561128
0.206300	-1.702646
0.206400	-1.812679
0.206500	-1.799696
0.206600	-1.708813
0.206700	-1.646169
0.206800	-1.627018
0.206900	-1.649414
0.207000	-1.653309
0.207100	-1.621500
0.207200	-1.584822
0.207300	-1.567295
0.207400	-1.510493
0.207500	-1.427725
0.207600	-1.331648
0.207700	-1.246608
0.207800	-1.179744
0.207900	-1.143390
0.208000	-1.142092
0.208100	-1.113204
0.208200	-0.997004
0.208300	-0.915858
0.208400	-0.877233
0.208500	-0.856784
0.208600	-0.779209
0.208700	-0.699362
0.208800	-0.631525
0.208900	-0.560766
0.209000	-0.479945
0.209100	-0.452355
0.209200	-0.469558
0.209300	-0.471506
0.209400	-0.499420
0.209500	-0.495200
0.209600	-0.546484
0.209700	-0.532202
0.209800	-0.557195
0.209900	-0.527334
0.210000	-0.534150
0.210100	-0.541291
0.210200	-0.549405
0.210300	-0.579591
0.210400	-0.557520
0.210500	-0.543563
0.210600	-0.359850
0.210700	-0.270590
0.210800	-0.347840
0.210900	-0.568231
0.211000	-0.674694
0.211100	-0.641587
0.211200	-0.534150
0.211300	-0.413081
0.211400	-0.412107
0.211500	-0.518245
0.211600	-0.605883
0.211700	-0.600689
0.211800	-0.505262
0.211900	-0.388737
0.212000	-0.377052
0.212100	-0.426713
0.212200	-0.445539
0.212300	-0.430284
0.212400	-0.387114
0.212500	-0.348165
0.212600	-0.322198
0.212700	-0.308890
0.212800	-0.284222
0.212900	-0.256308
0.213000	-0.240079
0.213100	-0.340699
0.213200	-0.268318
0.213300	-0.366341
0.213400	-0.291363
0.213500	-0.136537
0.213600	0.272760
0.213700	-0.224499
0.213800	-0.525386
0.213900	-0.523114
0.214000	-0.462742
0.214100	0.496072
0.214200	0.625905
0.214300	0.021859
0.214400	-0.630875
0.214500	-0.696116
0.214600	-0.475725
0.214700	0.401294
0.214800	0.853761
0.214900	0.639213
0.215000	0.066326
0.215100	-0.007029
0.215200	0.155911
0.215300	0.433103
0.215400	0.662258
0.215500	0.621361
0.215600	0.727499
0.215700	0.761255
0.215800	1.001121
0.215900	0.826496
0.216000	0.703804
0.216100	0.660311
0.216200	0.745026
0.216300	0.767747
0.216400	0.909914
0.216500	0.764501
0.216600	0.288340
0.216700	0.078660
0.216800	0.115013
0.216900	0.060808
0.217000	-0.163153
0.217100	-0.325768
0.217200	-0.121282
0.217300	-0.141406
0.217400	-0.146924
0.217500	-0.239430
0.217600	-0.275783
0.217700	-0.398475
0.217800	-0.414379
0.217900	-0.519868
0.218000	-0.692871
0.218100	-0.696766
0.218200	-0.918455
0.218300	-0.885997
0.218400	-1.008364
0.218500	-1.019725
0.218600	-1.227782
0.218700	-1.187858
0.218800	-1.222913
0.218900	-1.357290
0.219000	-1.524125
0.219100	-1.563075
0.219200	-1.469920
0.219300	-1.320288
0.219400	-1.304708
0.219500	-1.494264
0.219600	-1.677004
0.219700	-1.754255
0.219800	-1.664345
0.219900	-1.529643
0.220000	-1.475763
0.220100	-1.554961
0.220200	-1.681873
0.220300	-1.720173
0.220400	-1.690961
0.220500	-1.622799
0.220600	-1.591963
0.220700	-1.602999
0.220800	-1.626369
0.220900	-1.652985
0.221000	-1.654283
0.221100	-1.604947
0.221200	-1.602999
0.221300	-1.615982
0.221400	-1.652985
0.221500	-1.640975
0.221600	-1.584822
0.221700	-1.602350
0.221800	-1.616307
0.221900	-1.614035
0.222000	-1.538083
0.222100	-1.393643
0.222200	-1.379037
0.222300	-1.433892
0.222400	-1.560479
0.222500	-1.638703
0.222600	-1.543276
0.222700	-1.387476
0.222800	-1.299514
0.222900	-1.366703
0.223000	-1.519581
0.223100	-1.621825
0.223200	-1.604622
0.223300	-1.468946
0.223400	-1.380985
0.223500	-1.341710
0.223600	-1.374168
0.223700	-1.412794
0.223800	-1.394293
0.223900	-1.365729
0.224000	-1.306331
0.224100	-1.235896
0.224200	-1.177796
0.224300	-1.083992
0.224400	-1.013882
0.224500	-0.985643
0.224600	-0.987266
0.224700	-0.971686
0.224800	-0.935982
0.224900	-0.827247
0.225000	-0.771095
0.225100	-0.761033
0.225200	-0.767849
0.225300	-0.692871
0.225400	-0.641587
0.225500	-0.610751
0.225600	-0.537071
0.225700	-0.495849
0.225800	-0.448460
0.225900	-0.451706
0.226000	-0.502990
0.226100	-0.502016
0.226200	-0.529281
0.226300	-0.562389
0.226400	-0.575372
0.226500	-0.608804
0.226600	-0.565310
0.226700	-0.640288
0.226800	-0.622112
0.226900	-0.671448
0.227000	-0.669825
0.227100	-0.704231
0.227200	-0.605558
0.227300	-0.487735
0.227400	-0.422169
0.227500	-0.546160
0.227600	-0.722407
0.227700	-0.773042
0.227800	-0.699038
0.227900	-0.615620
0.228000	-0.514350
0.228100	-0.549730
0.228200	-0.693520
0.228300	-0.766551
0.228400	-0.734092
0.228500	-0.617892
0.228600	-0.522140
0.228700	-0.570828
0.228800	-0.623085
0.228900	-0.700660
0.229000	-0.741233
0.229100	-0.744479
0.229200	-0.743181
0.229300	-0.764928
0.229400	-0.781157
0.229500	-0.781481
0.229600	-0.788298
0.229700	-0.910340
0.229800	-0.891839
0.229900	-0.944746
0.230000	-0.958054
0.230100	-0.915209
0.230200	-0.905147
0.230300	-0.864574
0.230400	-1.028164
0.230500	-1.151505
0.230600	-1.173577
0.230700	-1.088211
0.230800	-0.923973
0.230900	-0.975257
0.231000	-1.122617
0.231100	-1.277443
0.231200	-1.296593
0.231300	-1.187209
0.231400	-1.066789
0.231500	-1.038875
0.231600	-1.121968
0.231700	-1.202464
0.231800	-1.203114
0.231900	-1.237519
0.232000	-1.181691
0.232100	-1.191104
0.232200	-1.181367
0.232300	-1.161892
0.232400	-1.156049
0.232500	-1.151180
0.232600	-1.165462
0.232700	-1.193051
0.232800	-1.172927
0.232900	-1.131381
0.233000	-1.113853
0.233100	-1.046665
0.233200	-1.159944
0.233300	-1.210254
0.233400	-1.212202
0.233500	-1.173901
0.233600	-1.159944
0.233700	-1.201166
0.233800	-1.184288
0.233900	-1.120020
0.234000	-1.013233
0.234100	-0.802255
0.234200	-0.734742
0.234300	-0.540317
0.234400	-0.520193
0.234500	-0.369587
0.234600	-0.240403
0.234700	-0.214437
0.234800	-0.102781
0.234900	-0.030075
0.235000	0.000761
0.235100	0.067300
0.235200	-0.245597
0.235300	-0.192690
0.235400	-0.295258
0.235500	-0.642885
0.235600	-1.205710
0.235700	-1.342035
0.235800	-1.332297
0.235900	-1.208956
0.236000	-1.108660
0.236100	-1.136574
0.236200	-1.343333
0.236300	-1.467973
0.236400	-1.454665
0.236500	-1.347553
0.236600	-1.188183
0.236700	-1.204087
0.236800	-1.271276
0.236900	-1.377739
0.237000	-1.365729
0.237100	-1.312173
0.237200	-1.255696
0.237300	-1.228756
0.237400	-1.245309
0.237500	-1.238493
0.237600	-1.278092
0.237700	-1.281987
0.237800	-1.293997
0.237900	-1.292049
0.238000	-1.294321
0.238100	-1.289452
0.238200	-1.261863
0.238300	-1.290751
0.238400	-1.334569
0.238500	-1.347228
0.238600	-1.329376
0.238700	-1.237519
0.238800	-1.103791
0.238900	-1.113529
0.239000	-1.178770
0.239100	-1.285557
0.239200	-1.292374
0.239300	-1.142092
0.239400	-0.963247
0.239500	-0.919429
0.239600	-1.003496
0.239700	-1.114503
0.239800	-1.159295
0.239900	-1.108985
0.240000	-0.991486
0.240100	-0.930789
0.240200	-0.930465
0.240300	-0.938904
0.240400	-0.959352
0.240500	-0.945071
0.240600	-0.921376
0.240700	-0.890866
0.240800	-0.820431
0.240900	-0.788622
0.241000	-0.725653
0.241100	-0.705529
0.241200	-0.735391
0.241300	-0.782131
0.241400	-0.832765
0.241500	-0.788622
0.241600	-0.689949
0.241700	-0.694818
0.241800	-0.714618
0.241900	-0.708126
0.242000	-0.636069
0.242100	-0.617243
0.242200	-0.597443
0.242300	-0.524413
0.242400	-0.483191
0.242500	-0.460794
0.242600	-0.504613
0.242700	-0.498446
0.242800	-0.503964
0.242900	-0.499744
0.243000	-0.494551
0.243100	-0.482541
0.243200	-0.473453
0.243300	-0.492604
0.243400	-0.461444
0.243500	-0.533501
0.243600	-0.480594
0.243700	-0.575372
0.243800	-0.463391
0.243900	-0.462742
0.244000	-0.193015
0.244100	-0.293635
0.244200	-0.424441
0.244300	-0.651973
0.244400	-0.658140
0.244500	-0.555572
0.244600	-0.421845
0.244700	-0.403019
0.244800	-0.513052
0.244900	-0.683458
0.245000	-0.781157
0.245100	-0.735715
0.245200	-0.646131
0.245300	-0.612050
0.245400	-0.658465
0.245500	-0.724355
0.245600	-0.793166
0.245700	-0.840231
0.245800	-0.834388
0.245900	-0.864574
0.246000	-0.890541
0.246100	-0.926245
0.246200	-0.958054
0.246300	-0.981099
0.246400	-1.063543
0.246500	-1.117099
0.246600	-1.150207
0.246700	-1.186884
0.246800	-1.137223
0.246900	-1.132679
0.247000	-1.151505
0.247100	-1.351448
0.247200	-1.450770
0.247300	-1.407600
0.247400	-1.285233
0.247500	-1.150531
0.247600	-1.219667
0.247700	-1.387801
0.247800	-1.522178
0.247900	-1.481930
0.248000	-1.358913
0.248100	-1.224211
0.248200	-1.231677
0.248300	-1.338140
0.248400	-1.414741
0.248500	-1.406302
0.248600	-1.388450
0.248700	-1.327753
0.248800	-1.351448
0.248900	-1.335868
0.249000	-1.303409
0.249100	-1.287830
0.249200	-1.285557
0.249300	-1.303734
0.249400	-1.312498
0.249500	-1.292049
0.249600	-1.258617
0.249700	-1.253424
0.249800	-1.231677
0.249900	-1.284259
0.250000	-1.296918
0.250100	-1.274197
0.250200	-1.226159
0.250300	-1.215772
0.250400	-1.242713
0.250500	-1.159620
0.250600	-0.841854
0.250700	-0.638665
0.250800	-0.270590
0.250900	-0.120957
0.251000	0.095539
0.251100	0.226670
0.251200	0.355204
0.251300	0.382793
0.251400	0.409734
0.251500	0.592148
0.251600	0.587604
0.251700	0.552874
0.251800	0.389285
0.251900	0.371433
0.252000	0.200378
0.252100	0.089372
0.252200	-0.592575
0.252300	-1.225510
0.252400	-1.343658
0.252500	-1.225510
0.252600	-1.055429
0.252700	-0.820756
0.252800	-1.110608
0.252900	-1.361510
0.253000	-1.440708
0.253100	-1.415390
0.253200	-1.258293
0.253300	-1.174550
0.253400	-1.184288
0.253500	-1.324832
0.253600	-1.408250
0.253700	-1.405977
0.253800	-1.345930
0.253900	-1.282312
0.254000	-1.235572
0.254100	-1.219667
0.254200	-1.259915
0.254300	-1.270951
0.254400	-1.244011
0.254500	-1.248230
0.254600	-1.239791
0.254700	-1.271276
0.254800	-1.233949
0.254900	-1.243686
0.255000	-1.201815
0.255100	-1.234923
0.255200	-1.226483
0.255300	-1.223562
0.255400	-1.088211
0.255500	-1.012584
0.255600	-1.051858
0.255700	-1.181691
0.255800	-1.321911
0.255900	-1.308278
0.256000	-1.166111
0.256100	-1.018751
0.256200	-1.011935
0.256300	-1.104116
0.256400	-1.221615
0.256500	-1.259915
0.256600	-1.172603
0.256700	-1.071009
0.256800	-1.005443
0.256900	-0.997653
0.257000	-1.002197
0.257100	-1.017128
0.257200	-1.011610
0.257300	-0.994083
0.257400	-0.947667
0.257500	-0.891515
0.257600	-0.808097
0.257700	-0.750646
0.257800	-0.714618
0.257900	-0.722083
0.258000	-0.718188
0.258100	-0.716890
0.258200	-0.648403
0.258300	-0.582837
0.258400	-0.583486
0.258500	-0.575047
0.258600	-0.538370
0.258700	-0.502990
0.258800	-0.472155
0.258900	-0.459172
0.259000	-0.368289
0.259100	-0.316356
0.259200	-0.316031
0.259300	-0.346542
0.259400	-0.357577
0.259500	-0.395229
0.259600	-0.445539
0.259700	-0.446188
0.259800	-0.482541
0.259900	-0.446837
0.260000	-0.499420
0.260100	-0.463067
0.260200	-0.548756
0.260300	-0.541940
0.260400	-0.603935
0.260500	-0.483515
0.260600	-0.405940
0.260700	-0.271563
0.260800	-0.280327
0.260900	-0.573424
0.261000	-0.638341
0.261100	-0.602961
0.261200	-0.490331
0.261300	-0.352060
0.261400	-0.316031
0.261500	-0.425740
0.261600	-0.507859
0.261700	-0.517272
0.261800	-0.431582
0.261900	-0.332260
0.262000	-0.301749
0.262100	-0.317329
0.262200	-0.369912
0.262300	-0.368938
0.262400	-0.401396
0.262500	-0.397176
0.262600	-0.397176
0.262700	-0.390360
0.262800	-0.389711
0.262900	-0.401396
0.263000	-0.409835
0.263100	-0.535773
0.263200	-0.547133
0.263300	-0.654570
0.263400	-0.637042
0.263500	-0.654570
0.263600	-0.667229
0.263700	-0.774016
0.263800	-0.995381
0.263900	-1.061596
0.264000	-1.012908
0.264100	-0.887620
0.264200	-0.877882
0.264300	-1.007715
0.264400	-1.204412
0.264500	-1.296918
0.264600	-1.247257
0.264700	-1.148908
0.264800	-1.083667
0.264900	-1.164813
0.265000	-1.249853
0.265100	-1.276469
0.265200	-1.260565
0.265300	-1.226483
0.265400	-1.226159
0.265500	-1.260565
0.265600	-1.230703
0.265700	-1.208631
0.265800	-1.194674
0.265900	-1.198894
0.266000	-1.225834
0.266100	-1.248230
0.266200	-1.248555
0.266300	-1.233624
0.266400	-1.236546
0.266500	-1.265433
0.266600	-1.353720
0.266700	-1.398837
0.266800	-1.398837
0.266900	-1.398188
0.267000	-1.434865
0.267100	-1.448173
0.267200	-1.395915
0.267300	-1.372546
0.267400	-1.350798
0.267500	-1.337491
0.267600	-1.317367
0.267700	-1.303085
0.267800	-1.305682
0.267900	-1.310226
0.268000	-1.326779
0.268100	-1.313796
0.268200	-1.312498
0.268300	-1.309577
0.268400	-1.337815
0.268500	-1.351448
0.268600	-1.370598
0.268700	-1.401433
0.268800	-1.460832
0.268900	-1.587095
0.269000	-1.769185
0.269100	-1.815925
0.269200	-1.670837
0.269300	-1.541328
0.269400	-1.482579
0.269500	-1.645195
0.269600	-1.853252
0.269700	-1.882140
0.269800	-1.820145
0.269900	-1.634808
0.270000	-1.541978
0.270100	-1.584173
0.270200	-1.650064
0.270300	-1.678302
0.270400	-1.630913
0.270500	-1.550417
0.270600	-1.478035
0.270700	-1.447199
0.270800	-1.440708
0.270900	-1.409872
0.271000	-1.380660
0.271100	-1.344956
0.271200	-1.320937
0.271300	-1.358264
0.271400	-1.361510
0.271500	-1.338464
0.271600	-1.292049
0.271700	-1.289777
0.271800	-1.311199
0.271900	-1.342035
0.272000	-1.234273
0.272100	-1.106713
0.272200	-1.047314
0.272300	-1.107362
0.272400	-1.235896
0.272500	-1.317691
0.272600	-1.213825
0.272700	-1.033357
0.272800	-0.926245
0.272900	-0.970064
0.273000	-1.112555
0.273100	-1.209930
0.273200	-1.194674
0.273300	-1.066789
0.273400	-0.971362
0.273500	-0.959352
0.273600	-0.975581
0.273700	-0.988889
0.273800	-0.964546
0.273900	-0.913586
0.274000	-0.863925
0.274100	-0.799983
0.274200	-0.743181
0.274300	-0.681186
0.274400	-0.614971
0.274500	-0.576346
0.274600	-0.573749
0.274700	-0.590627
0.274800	-0.578618
0.274900	-0.490981
0.275000	-0.436126
0.275100	-0.450083
0.275200	-0.444565
0.275300	-0.380947
0.275400	-0.365692
0.275500	-0.337129
0.275600	-0.284871
0.275700	-0.231315
0.275800	-0.240403
0.275900	-0.230991
0.276000	-0.268642
0.276100	-0.297854
0.276200	-0.317979
0.276300	-0.354981
0.276400	-0.372184
0.276500	-0.360174
0.276600	-0.385167
0.276700	-0.385167
0.276800	-0.419248
0.276900	-0.432231
0.277000	-0.458522
0.277100	-0.407563
0.277200	-0.405616
0.277300	-0.163478
0.277400	-0.168022
0.277500	-0.265721
0.277600	-0.531878
0.277700	-0.550704
0.277800	-0.511105
0.277900	-0.384193
0.278000	-0.272537
0.278100	-0.306294
0.278200	-0.433205
0.278300	-0.578293
0.278400	-0.553300
0.278500	-0.463716
0.278600	-0.369912
0.278700	-0.353683
0.278800	-0.398150
0.278900	-0.447487
0.279000	-0.457224
0.279100	-0.438074
0.279200	-0.429635
0.279300	-0.442942
0.279400	-0.464040
0.279500	-0.454627
0.279600	-0.443916
0.279700	-0.495525
0.279800	-0.477348
0.279900	-0.521816
0.280000	-0.559143
0.280100	-0.528308
0.280200	-0.506236
0.280300	-0.461444
0.280400	-0.590303
0.280500	-0.729548
0.280600	-0.740909
0.280700	-0.654894
0.280800	-0.289740
0.280900	-0.091745
0.281000	-0.612050
0.281100	-0.754541
0.281200	-0.793491
0.281300	-0.683782
0.281400	0.102030
0.281500	0.635318
0.281600	0.416874
0.281700	-0.111869
0.281800	-0.181005
0.281900	-0.264423
0.282000	0.276655
0.282100	0.350011
0.282200	0.350011
0.282300	0.387662
0.282400	0.442192
0.282500	0.630774
0.282600	0.634669
0.282700	0.652196
0.282800	0.538592
0.282900	0.602860
0.283000	0.693742
0.283100	0.785599
0.283200	0.341247
0.283300	-0.175812
0.283400	-0.462093
0.283500	-0.560441
0.283600	-0.618866
0.283700	-0.976880
0.283800	-1.139820
0.283900	-0.864250
0.284000	-1.026541
0.284100	-1.029137
0.284200	-1.055104
0.284300	-1.101195
0.284400	-1.190455
0.284500	-1.208631
0.284600	-1.227782
0.284700	-1.235247
0.284800	-1.259591
0.284900	-1.280689
0.285000	-1.318016
0.285100	-1.344631
0.285200	-1.381958
0.285300	-1.408899
0.285400	-1.475438
0.285500	-1.483877
0.285600	-1.616956
0.285700	-1.773080
0.285800	-1.777300
0.285900	-1.641949
0.286000	-1.577357
0.286100	-1.552364
0.286200	-1.806837
0.286300	-1.978217
0.286400	-2.035343
0.286500	-1.962961
0.286600	-1.840594
0.286700	-1.827286
0.286800	-1.903887
0.286900	-2.013596
0.287000	-2.054169
0.287100	-2.022035
0.287200	-1.980489
0.287300	-1.936670
0.287400	-1.916221
0.287500	-1.922388
0.287600	-1.921415
0.287700	-1.934398
0.287800	-1.911028
0.287900	-1.959391
0.288000	-1.958417
0.288100	-1.976269
0.288200	-2.011649
0.288300	-2.012298
0.288400	-2.022360
0.288500	-2.018465
0.288600	-1.998016
0.288700	-1.892527
0.288800	-1.764317
0.288900	-1.762369
0.289000	-1.871104
0.289100	-1.985682
0.289200	-2.023658
0.289300	-1.894474
0.289400	-1.739973
0.289500	-1.668889
0.289600	-1.741920
0.289700	-1.843839
0.289800	-1.896746
0.289900	-1.833777
0.290000	-1.710436
0.290100	-1.633185
0.290200	-1.588717
0.290300	-1.588068
0.290400	-1.587095
0.290500	-1.561452
0.290600	-1.522178
0.290700	-1.451419
0.290800	-1.342035
0.290900	-1.255371
0.291000	-1.138522
0.291100	-1.070684
0.291200	-1.012584
0.291300	-0.983696
0.291400	-0.960651
0.291500	-0.863601
0.291600	-0.713319
0.291700	-0.657816
0.291800	-0.603611
0.291900	-0.571801
0.292000	-0.450732
0.292100	-0.386141
0.292200	-0.312136
0.292300	-0.247869
0.292400	-0.175487
0.292500	-0.156337
0.292600	-0.157311
0.292700	-0.150170
0.292800	-0.153740
0.292900	-0.178408
0.293000	-0.167048
0.293100	-0.152442
0.293200	-0.136213
0.293300	-0.140432
0.293400	-0.133292
0.293500	-0.179707
0.293600	-0.226446
0.293700	-0.222551
0.293800	-0.229368
0.293900	-0.118685
0.294000	-0.015793
0.294100	0.045228
0.294200	-0.241702
0.294300	-0.432556
0.294400	-0.541615
0.294500	-0.447487
0.294600	-0.363420
0.294700	-0.356279
0.294800	-0.459821
0.294900	-0.615620
0.295000	-0.733443
0.295100	-0.709749
0.295200	-0.656842
0.295300	-0.656517
0.295400	-0.748699
0.295500	-0.835037
0.295600	-0.890866
0.295700	-0.947667
0.295800	-0.965195
0.295900	-1.009338
0.296000	-1.031410
0.296100	-1.058350
0.296200	-1.089834
0.296300	-1.101519
0.296400	-1.190455
0.296500	-1.214474
0.296600	-1.260889
0.296700	-1.287180
0.296800	-1.234598
0.296900	-1.229729
0.297000	-1.214474
0.297100	-1.403381
0.297200	-1.462130
0.297300	-1.424479
0.297400	-1.295295
0.297500	-1.168059
0.297600	-1.255047
0.297700	-1.377414
0.297800	-1.510818
0.297900	-1.480307
0.298000	-1.356316
0.298100	-1.251152
0.298200	-1.277767
0.298300	-1.382608
0.298400	-1.435514
0.298500	-1.422531
0.298600	-1.428049
0.298700	-1.384880
0.298800	-1.415066
0.298900	-1.415715
0.299000	-1.416364
0.299100	-1.422531
0.299200	-1.418961
0.299300	-1.477710
0.299400	-1.538732
0.299500	-1.551390
0.299600	-1.568269
0.299700	-1.591314
0.299800	-1.623123
0.299900	-1.754579
0.300000	-1.854226
0.300100	-1.903563
0.300200	-1.905510
0.300300	-1.936995
0.300400	-2.018140
0.300500	-1.985358
0.300600	-1.925310
0.300700	-1.894474
0.300800	-1.872403
0.300900	-1.846111
0.301000	-1.812679
0.301100	-1.779572
0.301200	-1.745815
0.301300	-1.717577
0.301400	-1.685118
0.301500	-1.655581
0.301600	-1.620527
0.301700	-1.593262
0.301800	-1.574760
0.301900	-1.547495
0.302000	-1.526398
0.302100	-1.496536
0.302200	-1.536135
0.302300	-1.595858
0.302400	-1.690312
0.302500	-1.557233
0.302600	-1.363457
0.302700	-1.230703
0.302800	-1.277118
0.302900	-1.514713
0.303000	-1.586445
0.303100	-1.557882
0.303200	-1.395591
0.303300	-1.280040
0.303400	-1.291400
0.303500	-1.384555
0.303600	-1.450121
0.303700	-1.428049
0.303800	-1.347877
0.303900	-1.279390
0.304000	-1.239791
0.304100	-1.224536
0.304200	-1.253748
0.304300	-1.239791
0.304400	-1.236221
0.304500	-1.201491
0.304600	-1.227457
0.304700	-1.244335
0.304800	-1.239142
0.304900	-1.221615
0.305000	-1.228106
0.305100	-1.232326
0.305200	-1.260240
0.305300	-1.217071
0.305400	-1.157023
0.305500	-1.036603
0.305600	-1.077500
0.305700	-1.183963
0.305800	-1.292049
0.305900	-1.291400
0.306000	-1.131056
0.306100	-1.023295
0.306200	-1.046016
0.306300	-1.173252
0.306400	-1.340412
0.306500	-1.406627
0.306600	-1.344631
0.306700	-1.264135
0.306800	-1.202140
0.306900	-1.244335
0.307000	-1.291075
0.307100	-1.311199
0.307200	-1.298865
0.307300	-1.271600
0.307400	-1.214799
0.307500	-1.168708
0.307600	-1.114827
0.307700	-1.045367
0.307800	-0.996679
0.307900	-1.011610
0.308000	-1.008040
0.308100	-1.008689
0.308200	-0.932412
0.308300	-0.865873
0.308400	-0.861978
0.308500	-0.871391
0.308600	-0.858732
0.308700	-0.835687
0.308800	-0.796088
0.308900	-0.773042
0.309000	-0.710398
0.309100	-0.651649
0.309200	-0.673071
0.309300	-0.683782
0.309400	-0.728250
0.309500	-0.709424
0.309600	-0.750971
0.309700	-0.725329
0.309800	-0.727925
0.309900	-0.730522
0.310000	-0.723381
0.310100	-0.733119
0.310200	-0.749997
0.310300	-0.766551
0.310400	-0.784078
0.310500	-0.748699
0.310600	-0.617243
0.310700	-0.398150
0.310800	-0.505911
0.310900	-0.622761
0.311000	-0.795114
0.311100	-0.667878
0.311200	-0.588355
0.311300	-0.392957
0.311400	-0.344270
0.311500	-0.414704
0.311600	-0.506236
0.311700	-0.513377
0.311800	-0.400422
0.311900	-0.289091
0.312000	-0.222551
0.312100	-0.247869
0.312200	-0.309539
0.312300	-0.362771
0.312400	-0.375429
0.312500	-0.374780
0.312600	-0.381272
0.312700	-0.407563
0.312800	-0.446188
0.312900	-0.504938
0.313000	-0.556222
0.313100	-0.705529
0.313200	-0.696766
0.313300	-0.753243
0.313400	-0.768823
0.313500	-0.725329
0.313600	-0.721434
0.313700	-0.759410
0.313800	-0.985968
0.313900	-0.976555
0.314000	-0.953510
0.314100	-0.794465
0.314200	-0.736365
0.314300	-0.780508
0.314400	-0.975581
0.314500	-1.056727
0.314600	-1.008364
0.314700	-0.882426
0.314800	-0.819133
0.314900	-0.876259
0.315000	-1.018426
0.315100	-1.104116
0.315200	-1.147935
0.315300	-1.157023
0.315400	-1.190130
0.315500	-1.205386
0.315600	-1.219018
0.315700	-1.234598
0.315800	-1.244660
0.315900	-1.295295
0.316000	-1.324832
0.316100	-1.350798
0.316200	-1.359238
0.316300	-1.357615
0.316400	-1.372221
0.316500	-1.401433
0.316600	-1.487448
0.316700	-1.489720
0.316800	-1.477710
0.316900	-1.468297
0.317000	-1.482904
0.317100	-1.496211
0.317200	-1.409548
0.317300	-1.383906
0.317400	-1.353071
0.317500	-1.357939
0.317600	-1.352097
0.317700	-1.327429
0.317800	-1.306655
0.317900	-1.290751
0.318000	-1.312173
0.318100	-1.291400
0.318200	-1.281013
0.318300	-1.254722
0.318400	-1.294970
0.318500	-1.289777
0.318600	-1.319963
0.318700	-1.328727
0.318800	-1.321911
0.318900	-1.423180
0.319000	-1.588068
0.319100	-1.660450
0.319200	-1.533214
0.319300	-1.379037
0.319400	-1.371572
0.319500	-1.476736
0.319600	-1.740298
0.319700	-1.823715
0.319800	-1.765615
0.319900	-1.681873
0.320000	-1.618579
0.320100	-1.720173
0.320200	-1.834751
0.320300	-1.956145
0.320400	-1.961988
0.320500	-1.954198
0.320600	-1.911677
0.320700	-1.915897
0.320800	-1.921739
0.320900	-1.943486
0.321000	-1.911353
0.321100	-1.904861
0.321200	-1.888307
0.321300	-1.891228
0.321400	-1.866885
0.321500	-1.838646
0.321600	-1.764317
0.321700	-1.762369
0.321800	-1.734455
0.321900	-1.752307
0.322000	-1.633834
0.322100	-1.483877
0.322200	-1.386827
0.322300	-1.406627
0.322400	-1.521853
0.322500	-1.622799
0.322600	-1.538407
0.322700	-1.378063
0.322800	-1.275171
0.322900	-1.344307
0.323000	-1.487448
0.323100	-1.615333
0.323200	-1.636431
0.323300	-1.560154
0.323400	-1.503677
0.323500	-1.485500
0.323600	-1.509844
0.323700	-1.553013
0.323800	-1.586445
0.323900	-1.605920
0.324000	-1.614035
0.324100	-1.597806
0.324200	-1.559830
0.324300	-1.538083
0.324400	-1.529968
0.324500	-1.532565
0.324600	-1.587744
0.324700	-1.648765
0.324800	-1.683171
0.324900	-1.624422
0.325000	-1.580603
0.325100	-1.611763
0.325200	-1.629939
0.325300	-1.569567
0.325400	-1.556584
0.325500	-1.516011
0.325600	-1.460832
0.325700	-1.417013
0.325800	-1.378388
0.325900	-1.376440
0.326000	-1.358588
0.326100	-1.317367
0.326200	-1.302760
0.326300	-1.293347
0.326400	-1.317042
0.326500	-1.260565
0.326600	-1.319963
0.326700	-1.224536
0.326800	-1.247257
0.326900	-1.173577
0.327000	-1.222588
0.327100	-1.164164
0.327200	-1.033682
0.327300	-0.852565
0.327400	-0.597119
0.327500	-0.717539
0.327600	-0.860679
0.327700	-0.894111
0.327800	-0.769796
0.327900	-0.604584
0.328000	-0.447487
0.328100	-0.381597
0.328200	-0.476699
0.328300	-0.520518
0.328400	-0.468909
0.328500	-0.299153
0.328600	-0.198532
0.328700	-0.159907
0.328800	-0.189444
0.328900	-0.216384
0.329000	-0.218332
0.329100	-0.190418
0.329200	-0.156012
0.329300	-0.157635
0.329400	-0.178084
0.329500	-0.165425
0.329600	-0.192041
0.329700	-0.175163
0.329800	-0.269291
0.329900	-0.279678
0.330000	-0.362771
0.330100	-0.316031
0.330200	0.020236
0.330300	0.174087
0.330400	-0.352709
0.330500	-0.626656
0.330600	-0.612050
0.330700	-0.575372
0.330800	-0.025855
0.330900	0.020236
0.331000	-0.519868
0.331100	-0.763954
0.331200	-0.803553
0.331300	-0.725978
0.331400	0.041983
0.331500	0.675241
0.331600	0.542163
0.331700	0.090345
0.331800	0.115663
0.331900	0.307166
0.332000	0.766124
0.332100	0.955680
0.332200	1.122515
0.332300	1.350046
0.332400	1.477282
0.332500	1.678199
0.332600	1.687936
0.332700	1.640222
0.332800	1.660022
0.332900	1.767783
0.333000	2.018036
0.333100	2.037835
0.333200	1.793100
0.333300	1.372443
0.333400	1.338686
0.333500	1.383478
0.333600	1.422753
0.333700	1.164061
0.333800	1.019622
0.333900	1.352968
0.334000	1.374715
0.334100	1.410094
0.334200	1.428595
0.334300	1.473387
0.334400	1.314018
0.334500	1.308175
0.334600	1.162438
0.334700	1.120567
0.334800	1.062143
0.334900	0.888816
0.335000	0.902773
0.335100	0.565208
0.335200	0.467834
0.335300	0.414278
0.335400	0.003682
0.335500	-0.228394
0.335600	-1.173901
0.335700	-1.347228
0.335800	-1.361834
0.335900	-1.280364
0.336000	-1.141443
0.336100	-1.210904
0.336200	-1.412469
0.336300	-1.627667
0.336400	-1.717252
0.336500	-1.627667
0.336600	-1.544899
0.336700	-1.516011
0.336800	-1.639028
0.336900	-1.811057
0.337000	-1.875973
0.337100	-1.881816
0.337200	-1.839620
0.337300	-1.820145
0.337400	-1.837348
0.337500	-1.877921
0.337600	-1.946083
0.337700	-1.949004
0.337800	-1.947057
0.337900	-1.958093
0.338000	-2.039238
0.338100	-2.056766
0.338200	-2.053845
0.338300	-2.021386
0.338400	-2.039887
0.338500	-2.041186
0.338600	-2.066179
0.338700	-1.986980
0.338800	-1.851305
0.338900	-1.878570
0.339000	-1.953873
0.339100	-2.085978
0.339200	-2.147649
0.339300	-2.030150
0.339400	-1.877596
0.339500	-1.784765
0.339600	-1.854875
0.339700	-1.986331
0.339800	-2.060661
0.339900	-2.046055
0.340000	-1.948680
0.340100	-1.876298
0.340200	-1.826637
0.340300	-1.811706
0.340400	-1.841892
0.340500	-1.824040
0.340600	-1.787687
0.340700	-1.717901
0.340800	-1.621500
0.340900	-1.561128
0.341000	-1.457911
0.341100	-1.394617
0.341200	-1.356316
0.341300	-1.348526
0.341400	-1.357939
0.341500	-1.311199
0.341600	-1.201491
0.341700	-1.148584
0.341800	-1.133328
0.341900	-1.142741
0.342000	-1.083992
0.342100	-1.059324
0.342200	-1.058025
0.342300	-1.041796
0.342400	-0.992460
0.342500	-0.996679
0.342600	-1.016479
0.342700	-1.058025
0.342800	-1.053481
0.342900	-1.110932
0.343000	-1.141443
0.343100	-1.149557
0.343200	-1.191753
0.343300	-1.192727
0.343400	-1.256994
0.343500	-1.243686
0.343600	-1.326130
0.343700	-1.334569
0.343800	-1.334245
0.343900	-1.237519
0.344000	-1.115801
0.344100	-1.075553
0.344200	-1.218693
0.344300	-1.414741
0.344400	-1.387152
0.344500	-1.272574
0.344600	-1.128135
0.344700	-1.000899
0.344800	-1.040173
0.344900	-1.136899
0.345000	-1.195648
0.345100	-1.103142
0.345200	-0.964546
0.345300	-0.820107
0.345400	-0.786675
0.345500	-0.797386
0.345600	-0.784078
0.345700	-0.777262
0.345800	-0.723057
0.345900	-0.702283
0.346000	-0.667229
0.346100	-0.664632
0.346200	-0.647429
0.346300	-0.608155
0.346400	-0.692546
0.346500	-0.707152
0.346600	-0.744804
0.346700	-0.736365
0.346800	-0.677291
0.346900	-0.687353
0.347000	-0.640937
0.347100	-0.803553
0.347200	-0.901901
0.347300	-0.879505
0.347400	-0.786350
0.347500	-0.591601
0.347600	-0.661711
0.347700	-0.730522
0.347800	-0.827897
0.347900	-0.797061
0.348000	-0.674694
0.348100	0.103653
0.348200	0.551900
0.348300	0.278278
0.348400	0.074441
0.348500	0.412979
0.348600	0.525934
0.348700	0.810916
0.348800	0.853112
0.348900	1.163412
0.349000	1.429894
0.349100	1.700595
0.349200	1.901511
0.349300	1.689559
0.349400	1.474037
0.349500	1.425674
0.349600	1.617177
0.349700	1.778170
0.349800	1.869053
0.349900	1.253970
0.350000	0.796635
0.350100	0.617141
0.350200	0.520740
0.350300	0.438946
0.350400	-0.049874
0.350500	-0.136862
0.350600	0.058212
0.350700	0.059185
0.350800	0.009200
0.350900	-0.018390
0.351000	-0.102781
0.351100	-0.223850
0.351200	-0.380298
0.351300	-0.496823
0.351400	-0.763629
0.351500	-0.910990
0.351600	-1.360211
0.351700	-1.211877
0.351800	-1.262512
0.351900	-1.288479
0.352000	-1.357939
0.352100	-1.383906
0.352200	-1.498483
0.352300	-1.688364
0.352400	-1.814627
0.352500	-1.830207
0.352600	-1.690636
0.352700	-1.647142
0.352800	-1.735753
0.352900	-1.990226
0.353000	-2.183353
0.353100	-2.187248
0.353200	-2.085654
0.353300	-1.989577
0.353400	-2.034370
0.353500	-2.128174
0.353600	-2.194389
0.353700	-2.196986
0.353800	-2.138561
0.353900	-2.120709
0.354000	-2.089873
0.354100	-2.112269
0.354200	-2.100909
0.354300	-2.087601
0.354400	-2.085978
0.354500	-2.087277
0.354600	-2.113243
0.354700	-2.111296
0.354800	-2.111296
0.354900	-2.060012
0.355000	-2.030799
0.355100	-2.060336
0.355200	-2.048327
0.355300	-2.026255
0.355400	-1.892202
0.355500	-1.790283
0.355600	-1.813329
0.355700	-1.905186
0.355800	-2.015544
0.355900	-2.011649
0.356000	-1.866885
0.356100	-1.755228
0.356200	-1.776002
0.356300	-1.907133
0.356400	-2.042160
0.356500	-2.087601
0.356600	-2.037940
0.356700	-1.957443
0.356800	-1.941539
0.356900	-1.969778
0.357000	-2.016842
0.357100	-2.037291
0.357200	-2.008727
0.357300	-1.994770
0.357400	-1.952575
0.357500	-1.919143
0.357600	-1.864937
0.357700	-1.781520
0.357800	-1.715629
0.357900	-1.702970
0.358000	-1.699076
0.358100	-1.708813
0.358200	-1.628316
0.358300	-1.522178
0.358400	-1.487123
0.358500	-1.444278
0.358600	-1.398837
0.358700	-1.349500
0.358800	-1.301137
0.358900	-1.227133
0.359000	-1.180717
0.359100	-1.130083
0.359200	-1.118073
0.359300	-1.132679
0.359400	-1.136574
0.359500	-1.167409
0.359600	-1.178445
0.359700	-1.212202
0.359800	-1.170655
0.359900	-1.239791
0.360000	-1.209281
0.360100	-1.260240
0.360200	-1.247581
0.360300	-1.301137
0.360400	-1.279390
0.360500	-1.316068
0.360600	-1.246283
0.360700	-1.062245
0.360800	-1.127810
0.360900	-1.340412
0.361000	-1.466999
0.361100	-1.437462
0.361200	-1.381634
0.361300	-1.238168
0.361400	-1.204736
0.361500	-1.322884
0.361600	-1.468946
0.361700	-1.511467
0.361800	-1.426426
0.361900	-1.343009
0.362000	-1.335543
0.362100	-1.407600
0.362200	-1.481930
0.362300	-1.505300
0.362400	-1.509519
0.362500	-1.499133
0.362600	-1.522827
0.362700	-1.530942
0.362800	-1.554312
0.362900	-1.580603
0.363000	-1.598130
0.363100	-1.627992
0.363200	-1.680250
0.363300	-1.725691
0.363400	-1.752632
0.363500	-1.714980
0.363600	-1.707839
0.363700	-1.742245
0.363800	-1.933100
0.363900	-2.015219
0.364000	-1.977243
0.364100	-1.837348
0.364200	-1.750360
0.364300	-1.850980
0.364400	-2.010675
0.364500	-2.125902
0.364600	-2.095716
0.364700	-1.967830
0.364800	-1.881816
0.364900	-1.944460
0.365000	-2.059038
0.365100	-2.144403
0.365200	-2.135315
0.365300	-2.147974
0.365400	-2.100909
0.365500	-2.165826
0.365600	-2.175888
0.365700	-2.174265
0.365800	-2.162255
0.365900	-2.173940
0.366000	-2.181730
0.366100	-2.213539
0.366200	-2.202179
0.366300	-2.142131
0.366400	-2.104155
0.366500	-2.083057
0.366600	-2.130122
0.366700	-2.118437
0.366800	-2.074942
0.366900	-2.010350
0.367000	-1.990875
0.367100	-1.973673
0.367200	-1.876298
0.367300	-1.799696
0.367400	-1.752632
0.367500	-1.718226
0.367600	-1.699076
0.367700	-1.661099
0.367800	-1.637729
0.367900	-1.621176
0.368000	-1.616632
0.368100	-1.619877
0.368200	-1.574436
0.368300	-1.569892
0.368400	-1.541978
0.368500	-1.531915
0.368600	-1.470894
0.368700	-1.509195
0.368800	-1.476736
0.368900	-1.553987
0.369000	-1.688040
0.369100	-1.728288
0.369200	-1.603648
0.369300	-1.371247
0.369400	-1.280364
0.369500	-1.404679
0.369600	-1.600402
0.369700	-1.677004
0.369800	-1.595534
0.369900	-1.441357
0.370000	-1.374168
0.370100	-1.380011
0.370200	-1.493939
0.370300	-1.527047
0.370400	-1.520555
0.370500	-1.446875
0.370600	-1.418636
0.370700	-1.400460
0.370800	-1.421233
0.370900	-1.443629
0.371000	-1.452068
0.371100	-1.464402
0.371200	-1.480956
0.371300	-1.515686
0.371400	-1.564049
0.371500	-1.639028
0.371600	-1.653309
0.371700	-1.734455
0.371800	-1.768212
0.371900	-1.806188
0.372000	-1.793529
0.372100	-1.708164
0.372200	-1.698751
0.372300	-1.775028
0.372400	-1.921739
0.372500	-2.044432
0.372600	-2.035668
0.372700	-1.917520
0.372800	-1.860393
0.372900	-1.929529
0.373000	-2.093119
0.373100	-2.248919
0.373200	-2.293062
0.373300	-2.226198
0.373400	-2.191143
0.373500	-2.217434
0.373600	-2.296308
0.373700	-2.383296
0.373800	-2.456652
0.373900	-2.484891
0.374000	-2.495278
0.374100	-2.492032
0.374200	-2.443994
0.374300	-2.392385
0.374400	-2.342399
0.374500	-2.333311
0.374600	-2.341425
0.374700	-2.340127
0.374800	-2.302151
0.374900	-2.196337
0.375000	-2.109997
0.375100	-2.095067
0.375200	-2.081759
0.375300	-2.024307
0.375400	-1.958093
0.375500	-1.897396
0.375600	-1.849033
0.375700	-1.764966
0.375800	-1.732832
0.375900	-1.704269
0.376000	-1.725042
0.376100	-1.703620
0.376200	-1.729262
0.376300	-1.717577
0.376400	-1.726665
0.376500	-1.680250
0.376600	-1.714006
0.376700	-1.706541
0.376800	-1.692908
0.376900	-1.735753
0.377000	-1.770159
0.377100	-1.756527
0.377200	-1.691935
0.377300	-1.516336
0.377400	-1.373844
0.377500	-1.481281
0.377600	-1.708488
0.377700	-1.744517
0.377800	-1.727639
0.377900	-1.578331
0.378000	-1.439085
0.378100	-1.445901
0.378200	-1.556584
0.378300	-1.634808
0.378400	-1.627018
0.378500	-1.509519
0.378600	-1.430646
0.378700	-1.429672
0.378800	-1.476412
0.378900	-1.516985
0.379000	-1.512116
0.379100	-1.498483
0.379200	-1.482579
0.379300	-1.472192
0.379400	-1.474789
0.379500	-1.488097
0.379600	-1.462455
0.379700	-1.489720
0.379800	-1.568269
0.379900	-1.535810
0.380000	-1.570541
0.380100	-1.538083
0.380200	-1.513090
0.380300	-1.476087
0.380400	-1.615333
0.380500	-1.788336
0.380600	-1.831181
0.380700	-1.767238
0.380800	-1.582226
0.380900	-1.610789
0.381000	-1.717252
0.381100	-1.894150
0.381200	-1.942188
0.381300	-1.868508
0.381400	-1.720498
0.381500	-1.676679
0.381600	-1.771782
0.381700	-1.846436
0.381800	-1.894799
0.381900	-1.858770
0.382000	-1.863314
0.382100	-1.847734
0.382200	-1.877271
0.382300	-1.864288
0.382400	-1.861691
0.382500	-1.844813
0.382600	-1.848384
0.382700	-1.890579
0.382800	-1.918818
0.382900	-1.902589
0.383000	-1.876298
0.383100	-1.850331
0.383200	-1.907782
0.383300	-1.992823
0.383400	-2.013921
0.383500	-1.994770
0.383600	-1.988928
0.383700	-2.019439
0.383800	-2.030150
0.383900	-1.937319
0.384000	-1.926283
0.384100	-1.904536
0.384200	-1.876298
0.384300	-1.838971
0.384400	-1.819820
0.384500	-1.802293
0.384600	-1.797749
0.384700	-1.764966
0.384800	-1.762694
0.384900	-1.759448
0.385000	-1.758799
0.385100	-1.767887
0.385200	-1.802293
0.385300	-1.799372
0.385400	-1.840594
0.385500	-1.874999
0.385600	-2.022685
0.385700	-2.203802
0.385800	-2.250542
0.385900	-2.119735
0.386000	-2.018790
0.386100	-2.042484
0.386200	-2.235611
0.386300	-2.462495
0.386400	-2.480996
0.386500	-2.452108
0.386600	-2.297606
0.386700	-2.281053
0.386800	-2.374857
0.386900	-2.481321
0.387000	-2.532929
0.387100	-2.497874
0.387200	-2.444967
0.387300	-2.406991
0.387400	-2.404070
0.387500	-2.437502
0.387600	-2.466065
0.387700	-2.474504
0.387800	-2.458275
0.387900	-2.485216
0.388000	-2.521244
0.388100	-2.561493
0.388200	-2.541369
0.388300	-2.543316
0.388400	-2.530982
0.388500	-2.552729
0.388600	-2.547860
0.388700	-2.463469
0.388800	-2.342399
0.388900	-2.297606
0.389000	-2.387191
0.389100	-2.527087
0.389200	-2.593302
0.389300	-2.491383
0.389400	-2.342399
0.389500	-2.265148
0.389600	-2.335583
0.389700	-2.473531
0.389800	-2.585512
0.389900	-2.533903
0.390000	-2.392060
0.390100	-2.286571
0.390200	-2.238857
0.390300	-2.258332
0.390400	-2.239506
0.390500	-2.215487
0.390600	-2.178484
0.390700	-2.107725
0.390800	-2.022360
0.390900	-1.938942
0.391000	-1.858770
0.391100	-1.782169
0.391200	-1.740622
0.391300	-1.733806
0.391400	-1.708488
0.391500	-1.669863
0.391600	-1.551715
0.391700	-1.494588
0.391800	-1.469271
0.391900	-1.454340
0.392000	-1.379686
0.392100	-1.368651
0.392200	-1.327753
0.392300	-1.268355
0.392400	-1.211553
0.392500	-1.179744
0.392600	-1.196297
0.392700	-1.208956
0.392800	-1.220316
0.392900	-1.197920
0.393000	-1.232651
0.393100	-1.208956
0.393200	-1.230378
0.393300	-1.231677
0.393400	-1.268355
0.393500	-1.282312
0.393600	-1.282312
0.393700	-1.342359
0.393800	-1.286856
0.393900	-1.286531
0.394000	-1.088211
0.394100	-1.124889
0.394200	-1.240441
0.394300	-1.503677
0.394400	-1.507572
0.394500	-1.441682
0.394600	-1.312173
0.394700	-1.244335
0.394800	-1.282312
0.394900	-1.415390
0.395000	-1.505300
0.395100	-1.457586
0.395200	-1.343982
0.395300	-1.259915
0.395400	-1.267705
0.395500	-1.313796
0.395600	-1.365405
0.395700	-1.401758
0.395800	-1.395266
0.395900	-1.373844
0.396000	-1.343009
0.396100	-1.363133
0.396200	-1.382283
0.396300	-1.406627
0.396400	-1.448173
0.396500	-1.522178
0.396600	-1.581577
0.396700	-1.615333
0.396800	-1.597481
0.396900	-1.600727
0.397000	-1.574760
0.397100	-1.753930
0.397200	-1.871429
0.397300	-1.917844
0.397400	-1.835725
0.397500	-1.673758
0.397600	-1.742245
0.397700	-1.847085
0.397800	-2.006131
0.397900	-2.014895
0.398000	-1.903563
0.398100	-1.764641
0.398200	-1.737701
0.398300	-1.796450
0.398400	-1.874026
0.398500	-1.860069
0.398600	-1.885061
0.398700	-1.831181
0.398800	-1.801319
0.398900	-1.765615
0.399000	-1.716603
0.399100	-1.714006
0.399200	-1.697128
0.399300	-1.692259
0.399400	-1.701997
0.399500	-1.694207
0.399600	-1.660126
0.399700	-1.645519
0.399800	-1.617281
0.399900	-1.699076
0.400000	-1.747114
0.400100	-1.768861
0.400200	-1.746140
0.400300	-1.740947
0.400400	-1.785739
0.400500	-1.782818
0.400600	-1.731858
0.400700	-1.733806
0.400800	-1.739973
0.400900	-1.750684
0.401000	-1.748412
0.401100	-1.772756
0.401200	-1.771457
0.401300	-1.784765
0.401400	-1.768536
0.401500	-1.786388
0.401600	-1.783142
0.401700	-1.798073
0.401800	-1.816250
0.401900	-1.835400
0.402000	-1.856498
0.402100	-1.908107
0.402200	-1.912651
0.402300	-2.115191
0.402400	-2.208671
0.402500	-2.209644
0.402600	-2.026904
0.402700	-1.935696
0.402800	-1.973997
0.402900	-2.233988
0.403000	-2.373884
0.403100	-2.375831
0.403200	-2.282026
0.403300	-2.163554
0.403400	-2.191468
0.403500	-2.284299
0.403600	-2.414456
0.403700	-2.428738
0.403800	-2.420624
0.403900	-2.354084
0.404000	-2.346619
0.404100	-2.332337
0.404200	-2.345645
0.404300	-2.335258
0.404400	-2.347592
0.404500	-2.375506
0.404600	-2.415430
0.404700	-2.429063
0.404800	-2.412184
0.404900	-2.383621
0.405000	-2.375831
0.405100	-2.458275
0.405200	-2.475478
0.405300	-2.474504
0.405400	-2.345969
0.405500	-2.243401
0.405600	-2.274886
0.405700	-2.365120
0.405800	-2.496901
0.405900	-2.473531
0.406000	-2.340776
0.406100	-2.224900
0.406200	-2.193415
0.406300	-2.309941
0.406400	-2.429712
0.406500	-2.496252
0.406600	-2.465416
0.406700	-2.387516
0.406800	-2.350189
0.406900	-2.366094
0.407000	-2.411211
0.407100	-2.443994
0.407200	-2.441072
0.407300	-2.452757
0.407400	-2.412184
0.407500	-2.376480
0.407600	-2.336232
0.407700	-2.263525
0.407800	-2.231391
0.407900	-2.245998
0.408000	-2.253463
0.408100	-2.289492
0.408200	-2.249244
0.408300	-2.164527
0.408400	-2.131095
0.408500	-2.107725
0.408600	-2.075916
0.408700	-2.019763
0.408800	-1.978866
0.408900	-1.912651
0.409000	-1.852279
0.409100	-1.781195
0.409200	-1.765940
0.409300	-1.759448
0.409400	-1.771133
0.409500	-1.753605
0.409600	-1.815276
0.409700	-1.782493
0.409800	-1.816574
0.409900	-1.763667
0.410000	-1.808135
0.410100	-1.774054
0.410200	-1.816250
0.410300	-1.798398
0.410400	-1.842866
0.410500	-1.802942
0.410600	-1.683171
0.410700	-1.477710
0.410800	-1.506598
0.410900	-1.725042
0.411000	-1.816574
0.411100	-1.842216
0.411200	-1.644546
0.411300	-1.470894
0.411400	-1.381958
0.411500	-1.438436
0.411600	-1.565347
0.411700	-1.583849
0.411800	-1.488746
0.411900	-1.361510
0.412000	-1.310226
0.412100	-1.340412
0.412200	-1.385204
0.412300	-1.424154
0.412400	-1.436164
0.412500	-1.416040
0.412600	-1.421557
0.412700	-1.472841
0.412800	-1.492641
0.412900	-1.504975
0.413000	-1.519257
0.413100	-1.632861
0.413200	-1.686417
0.413300	-1.753605
0.413400	-1.812030
0.413500	-1.780870
0.413600	-1.796450
0.413700	-1.835400
0.413800	-2.026580
0.413900	-2.163554
0.414000	-2.152193
0.414100	-2.056766
0.414200	-1.949329
0.414300	-2.034694
0.414400	-2.212890
0.414500	-2.358953
0.414600	-2.342074
0.414700	-2.184652
0.414800	-2.080136
0.414900	-2.093119
0.415000	-2.177835
0.415100	-2.256060
0.415200	-2.238532
0.415300	-2.256384
0.415400	-2.207697
0.415500	-2.234313
0.415600	-2.233664
0.415700	-2.233988
0.415800	-2.221979
0.415900	-2.189520
0.416000	-2.208671
0.416100	-2.260279
0.416200	-2.260929
0.416300	-2.248594
0.416400	-2.208022
0.416500	-2.201854
0.416600	-2.303124
0.416700	-2.308967
0.416800	-2.318704
0.416900	-2.302475
0.417000	-2.308642
0.417100	-2.361549
0.417200	-2.288843
0.417300	-2.258656
0.417400	-2.247296
0.417500	-2.233988
0.417600	-2.236260
0.417700	-2.229444
0.417800	-2.207697
0.417900	-2.220680
0.418000	-2.185950
0.418100	-2.195687
0.418200	-2.171344
0.418300	-2.195687
0.418400	-2.198609
0.418500	-2.184002
0.418600	-2.210294
0.418700	-2.221005
0.418800	-2.266122
0.418900	-2.305721
0.419000	-2.502419
0.419100	-2.579345
0.419200	-2.498848
0.419300	-2.320327
0.419400	-2.245673
0.419500	-2.345645
0.419600	-2.569607
0.419700	-2.673799
0.419800	-2.631278
0.419900	-2.503068
0.420000	-2.409912
0.420100	-2.460872
0.420200	-2.587135
0.420300	-2.675746
0.420400	-2.697169
0.420500	-2.630954
0.420600	-2.590381
0.420700	-2.565063
0.420800	-2.592653
0.420900	-2.603689
0.421000	-2.574801
0.421100	-2.571555
0.421200	-2.535202
0.421300	-2.541693
0.421400	-2.564739
0.421500	-2.520920
0.421600	-2.460223
0.421700	-2.450161
0.421800	-2.436204
0.421900	-2.451134
0.422000	-2.392060
0.422100	-2.262876
0.422200	-2.175239
0.422300	-2.245998
0.422400	-2.376480
0.422500	-2.492357
0.422600	-2.445616
0.422700	-2.307344
0.422800	-2.176212
0.422900	-2.176862
0.423000	-2.304098
0.423100	-2.445941
0.423200	-2.492032
0.423300	-2.420299
0.423400	-2.319029
0.423500	-2.259955
0.423600	-2.284623
0.423700	-2.334284
0.423800	-2.354084
0.423900	-2.330714
0.424000	-2.311239
0.424100	-2.253463
0.424200	-2.219382
0.424300	-2.174265
0.424400	-2.131095
0.424500	-2.102207
0.424600	-2.132718
0.424700	-2.154465
0.424800	-2.169721
0.424900	-2.109673
0.425000	-2.055467
0.425100	-2.060012
0.425200	-2.071697
0.425300	-2.035343
0.425400	-1.993472
0.425500	-1.935372
0.425600	-1.892851
0.425700	-1.818847
0.425800	-1.764641
0.425900	-1.768212
0.426000	-1.757500
0.426100	-1.769510
0.426200	-1.740947
0.426300	-1.782818
0.426400	-1.738999
0.426500	-1.772107
0.426600	-1.721147
0.426700	-1.755877
0.426800	-1.749386
0.426900	-1.795152
0.427000	-1.804565
0.427100	-1.762045
0.427200	-1.729586
0.427300	-1.521204
0.427400	-1.433242
0.427500	-1.417987
0.427600	-1.699400
0.427700	-1.706865
0.427800	-1.708488
0.427900	-1.541004
0.428000	-1.377739
0.428100	-1.326779
0.428200	-1.416689
0.428300	-1.508221
0.428400	-1.518608
0.428500	-1.408574
0.428600	-1.300164
0.428700	-1.259266
0.428800	-1.299839
0.428900	-1.316717
0.429000	-1.313796
0.429100	-1.315744
0.429200	-1.300164
0.429300	-1.282636
0.429400	-1.286531
0.429500	-1.269328
0.429600	-1.239791
0.429700	-1.268030
0.429800	-1.305032
0.429900	-1.335543
0.430000	-1.353720
0.430100	-1.326779
0.430200	-1.301137
0.430300	-1.265109
0.430400	-1.347553
0.430500	-1.546846
0.430600	-1.571190
0.430700	-1.517958
0.430800	-1.357615
0.430900	-1.311849
0.431000	-1.393643
0.431100	-1.575410
0.431200	-1.621825
0.431300	-1.566970
0.431400	-1.429347
0.431500	-1.365405
0.431600	-1.437787
0.431700	-1.553663
0.431800	-1.590016
0.431900	-1.588393
0.432000	-1.592937
0.432100	-1.584822
0.432200	-1.614035
0.432300	-1.607868
0.432400	-1.613061
0.432500	-1.615009
0.432600	-1.632861
0.432700	-1.678302
0.432800	-1.718226
0.432900	-1.718875
0.433000	-1.701348
0.433100	-1.686417
0.433200	-1.718875
0.433300	-1.813004
0.433400	-1.842866
0.433500	-1.843515
0.433600	-1.826961
0.433700	-1.865586
0.433800	-1.884088
0.433900	-1.808135
0.434000	-1.804565
0.434100	-1.803591
0.434200	-1.810732
0.434300	-1.803591
0.434400	-1.821119
0.434500	-1.818522
0.434600	-1.827935
0.434700	-1.836374
0.434800	-1.863314
0.434900	-1.866560
0.435000	-1.891878
0.435100	-1.919792
0.435200	-1.921739
0.435300	-1.965558
0.435400	-1.971400
0.435500	-1.983735
0.435600	-2.131095
0.435700	-2.308967
0.435800	-2.338829
0.435900	-2.229444
0.436000	-2.080460
0.436100	-2.051248
0.436200	-2.228470
0.436300	-2.407965
0.436400	-2.506314
0.436500	-2.385244
0.436600	-2.271640
0.436700	-2.179458
0.436800	-2.260929
0.436900	-2.326494
0.437000	-2.362848
0.437100	-2.324547
0.437200	-2.248270
0.437300	-2.226198
0.437400	-2.190494
0.437500	-2.218084
0.437600	-2.173940
0.437700	-2.160957
0.437800	-2.137587
0.437900	-2.127525
0.438000	-2.132718
0.438100	-2.167449
0.438200	-2.139859
0.438300	-2.115515
0.438400	-2.138236
0.438500	-2.150246
0.438600	-2.174265
0.438700	-2.095391
0.438800	-2.011973
0.438900	-1.978541
0.439000	-2.082732
0.439100	-2.262227
0.439200	-2.380051
0.439300	-2.300852
0.439400	-2.121682
0.439500	-2.047353
0.439600	-2.159334
0.439700	-2.301826
0.439800	-2.408614
0.439900	-2.388165
0.440000	-2.287544
0.440100	-2.175563
0.440200	-2.168422
0.440300	-2.206723
0.440400	-2.247621
0.440500	-2.230093
0.440600	-2.188547
0.440700	-2.158036
0.440800	-2.119086
0.440900	-2.088900
0.441000	-2.040212
0.441100	-1.973348
0.441200	-1.943811
0.441300	-1.966532
0.441400	-1.976269
0.441500	-1.964584
0.441600	-1.874350
0.441700	-1.825987
0.441800	-1.809109
0.441900	-1.812030
0.442000	-1.740947
0.442100	-1.723419
0.442200	-1.685443
0.442300	-1.639677
0.442400	-1.588068
0.442500	-1.579305
0.442600	-1.574111
0.442700	-1.621500
0.442800	-1.635457
0.442900	-1.653634
0.443000	-1.681223
0.443100	-1.687391
0.443200	-1.712059
0.443300	-1.735753
0.443400	-1.801319
0.443500	-1.798722
0.443600	-1.899992
0.443700	-1.896422
0.443800	-1.970427
0.443900	-1.849357
0.444000	-1.734455
0.444100	-1.669538
0.444200	-1.826312
0.444300	-2.071047
0.444400	-2.134341
0.444500	-2.133367
0.444600	-1.970751
0.444700	-1.873701
0.444800	-1.889606
0.444900	-2.026904
0.445000	-2.124928
0.445100	-2.104479
0.445200	-2.022685
0.445300	-1.925634
0.445400	-1.932775
0.445500	-1.982112
0.445600	-2.024957
0.445700	-2.059038
0.445800	-2.045405
0.445900	-2.033071
0.446000	-2.017167
0.446100	-2.047677
0.446200	-2.028527
0.446300	-2.052222
0.446400	-2.089224
0.446500	-2.126876
0.446600	-2.125577
0.446700	-2.156413
0.446800	-2.151869
0.446900	-2.161931
0.447000	-2.102532
0.447100	-2.256709
0.447200	-2.336881
0.447300	-2.373559
0.447400	-2.244375
0.447500	-2.096689
0.447600	-2.049300
0.447700	-2.169721
0.447800	-2.304423
0.447900	-2.292089
0.448000	-2.142131
0.448100	-1.991849
0.448200	-1.952575
0.448300	-2.018140
0.448400	-2.085654
0.448500	-2.080785
0.448600	-2.054494
0.448700	-1.992498
0.448800	-1.958093
0.448900	-1.944135
0.449000	-1.946408
0.449100	-1.938293
0.449200	-1.922388
0.449300	-1.931152
0.449400	-1.967181
0.449500	-1.985358
0.449600	-1.986980
0.449700	-1.975945
0.449800	-1.983085
0.449900	-2.045730
0.450000	-2.112269
0.450100	-2.115840
0.450200	-2.134017
0.450300	-2.156088
0.450400	-2.229119
0.450500	-2.236585
0.450600	-2.160957
0.450700	-2.155764
0.450800	-2.146675
0.450900	-2.139859
0.451000	-2.144728
0.451100	-2.129148
0.451200	-2.154141
0.451300	-2.148623
0.451400	-2.165826
0.451500	-2.153492
0.451600	-2.166150
0.451700	-2.176537
0.451800	-2.169721
0.451900	-2.220356
0.452000	-2.237234
0.452100	-2.284623
0.452200	-2.316757
0.452300	-2.480022
0.452400	-2.643288
0.452500	-2.567984
0.452600	-2.458275
0.452700	-2.319678
0.452800	-2.385893
0.452900	-2.598820
0.453000	-2.717618
0.453100	-2.769226
0.453200	-2.675097
0.453300	-2.569607
0.453400	-2.554352
0.453500	-2.612777
0.453600	-2.711126
0.453700	-2.757541
0.453800	-2.728653
0.453900	-2.672825
0.454000	-2.630305
0.454100	-2.644586
0.454200	-2.633550
0.454300	-2.668930
0.454400	-2.654648
0.454500	-2.661140
0.454600	-2.660491
0.454700	-2.658543
0.454800	-2.655297
0.454900	-2.698792
0.455000	-2.692949
0.455100	-2.722811
0.455200	-2.749427
0.455300	-2.752673
0.455400	-2.670553
0.455500	-2.552080
0.455600	-2.610830
0.455700	-2.689379
0.455800	-2.811747
0.455900	-2.856539
0.456000	-2.737742
0.456100	-2.596548
0.456200	-2.558247
0.456300	-2.678668
0.456400	-2.800711
0.456500	-2.851346
0.456600	-2.798764
0.456700	-2.684185
0.456800	-2.620567
0.456900	-2.595574
0.457000	-2.618944
0.457100	-2.619918
0.457200	-2.587459
0.457300	-2.573502
0.457400	-2.518972
0.457500	-2.475478
0.457600	-2.386542
0.457700	-2.318380
0.457800	-2.269043
0.457900	-2.268719
0.458000	-2.247296
0.458100	-2.251191
0.458200	-2.193415
0.458300	-2.092470
0.458400	-2.051897
0.458500	-2.053520
0.458600	-2.023983
0.458700	-1.928880
0.458800	-1.874026
0.458900	-1.823066
0.459000	-1.759772
0.459100	-1.647142
0.459200	-1.643896
0.459300	-1.650064
0.459400	-1.634484
0.459500	-1.652660
0.459600	-1.648765
0.459700	-1.648116
0.459800	-1.629939
0.459900	-1.635457
0.460000	-1.612412
0.460100	-1.597806
0.460200	-1.598130
0.460300	-1.632211
0.460400	-1.607543
0.460500	-1.608842
0.460600	-1.458560
0.460700	-1.316717
0.460800	-1.255371
0.460900	-1.463753
0.461000	-1.610464
0.461100	-1.546197
0.461200	-1.447849
0.461300	-1.294646
0.461400	-1.203114
0.461500	-1.256670
0.461600	-1.372546
0.461700	-1.385853
0.461800	-1.280040
0.461900	-1.161242
0.462000	-1.083018
0.462100	-1.088211
0.462200	-1.107686
0.462300	-1.140794
0.462400	-1.152479
0.462500	-1.137548
0.462600	-1.106388
0.462700	-1.124240
0.462800	-1.132030
0.462900	-1.136250
0.463000	-1.137873
0.463100	-1.203438
0.463200	-1.249204
0.463300	-1.302436
0.463400	-1.317042
0.463500	-1.295944
0.463600	-1.288803
0.463700	-1.337491
0.463800	-1.527371
0.463900	-1.690636
0.464000	-1.669214
0.464100	-1.588717
0.464200	-1.463429
0.464300	-1.586121
0.464400	-1.788011
0.464500	-1.961014
0.464600	-1.934073
0.464700	-1.820794
0.464800	-1.749710
0.464900	-1.777949
0.465000	-1.922713
0.465100	-1.991849
0.465200	-2.000938
0.465300	-2.046379
0.465400	-2.015219
0.465500	-2.067802
0.465600	-2.082083
0.465700	-2.097988
0.465800	-2.115515
0.465900	-2.122981
0.466000	-2.194064
0.466100	-2.239181
0.466200	-2.265148
0.466300	-2.253463
0.466400	-2.267096
0.466500	-2.285272
0.466600	-2.404070
0.466700	-2.488786
0.466800	-2.525464
0.466900	-2.508261
0.467000	-2.541369
0.467100	-2.587459
0.467200	-2.563440
0.467300	-2.539421
0.467400	-2.532929
0.467500	-2.538123
0.467600	-2.492681
0.467700	-2.494304
0.467800	-2.481645
0.467900	-2.463469
0.468000	-2.425817
0.468100	-2.417378
0.468200	-2.383621
0.468300	-2.387191
0.468400	-2.362199
0.468500	-2.390762
0.468600	-2.374857
0.468700	-2.404394
0.468800	-2.407965
0.468900	-2.511507
0.469000	-2.670553
0.469100	-2.814019
0.469200	-2.714047
0.469300	-2.621541
0.469400	-2.464442
0.469500	-2.617646
0.469600	-2.876664
0.469700	-2.992216
0.469800	-3.019481
0.469900	-2.828950
0.470000	-2.783508
0.470100	-2.817265
0.470200	-2.981829
0.470300	-3.098030
0.470400	-3.100302
0.470500	-3.049018
0.470600	-2.984101
0.470700	-2.976311
0.470800	-3.003576
0.470900	-3.025648
0.471000	-3.021753
0.471100	-2.972741
0.471200	-2.962354
0.471300	-2.982803
0.471400	-3.008445
0.471500	-2.981180
0.471600	-2.916263
0.471700	-2.851671
0.471800	-2.844854
0.471900	-2.860434
0.472000	-2.827327
0.472100	-2.707880
0.472200	-2.584538
0.472300	-2.611803
0.472400	-2.694248
0.472500	-2.812071
0.472600	-2.770200
0.472700	-2.630954
0.472800	-2.472557
0.472900	-2.467364
0.473000	-2.586161
0.473100	-2.735145
0.473200	-2.764033
0.473300	-2.671527
0.473400	-2.519622
0.473500	-2.463144
0.473600	-2.448538
0.473700	-2.517674
0.473800	-2.533903
0.473900	-2.480672
0.474000	-2.409912
0.474100	-2.303124
0.474200	-2.225224
0.474300	-2.163878
0.474400	-2.093444
0.474500	-2.038914
0.474600	-2.012298
0.474700	-1.993148
0.474800	-2.015868
0.474900	-1.948030
0.475000	-1.870455
0.475100	-1.835400
0.475200	-1.842866
0.475300	-1.812679
0.475400	-1.781844
0.475500	-1.743868
0.475600	-1.701348
0.475700	-1.635457
0.475800	-1.598455
0.475900	-1.598455
0.476000	-1.653634
0.476100	-1.691935
0.476200	-1.734455
0.476300	-1.750035
0.476400	-1.766589
0.476500	-1.758799
0.476600	-1.779572
0.476700	-1.804889
0.476800	-1.837672
0.476900	-1.894474
0.477000	-1.887333
0.477100	-1.933749
0.477200	-1.841243
0.477300	-1.779897
0.477400	-1.561128
0.477500	-1.689338
0.477600	-1.894799
0.477700	-2.034694
0.477800	-2.002236
0.477900	-1.847734
0.478000	-1.702646
0.478100	-1.667591
0.478200	-1.774379
0.478300	-1.920441
0.478400	-1.945109
0.478500	-1.869157
0.478600	-1.742245
0.478700	-1.698751
0.478800	-1.714331
0.478900	-1.782169
0.479000	-1.829233
0.479100	-1.842866
0.479200	-1.816250
0.479300	-1.789634
0.479400	-1.768212
0.479500	-1.767887
0.479600	-1.778274
0.479700	-1.814627
0.479800	-1.862341
0.479900	-1.914598
0.480000	-1.937319
0.480100	-1.969128
0.480200	-1.899018
0.480300	-1.935047
0.480400	-1.928556
0.480500	-2.153167
0.480600	-2.181406
0.480700	-2.127525
0.480800	-1.996069
0.480900	-1.888632
0.481000	-2.001587
0.481100	-2.149272
0.481200	-2.257683
0.481300	-2.188547
0.481400	-2.047677
0.481500	-1.951925
0.481600	-1.951925
0.481700	-2.038914
0.481800	-2.079811
0.481900	-2.087277
0.482000	-2.070074
0.482100	-2.017816
0.482200	-1.992498
0.482300	-1.959715
0.482400	-1.949978
0.482500	-1.937319
0.482600	-1.933100
0.482700	-1.963286
0.482800	-1.980813
0.482900	-1.969778
0.483000	-1.900641
0.483100	-1.884088
0.483200	-1.908107
0.483300	-2.001587
0.483400	-2.009377
0.483500	-2.006131
0.483600	-1.988279
0.483700	-2.018465
0.483800	-2.039238
0.483900	-1.971725
0.484000	-1.973348
0.484100	-1.943811
0.484200	-1.941863
0.484300	-1.947057
0.484400	-1.919467
0.484500	-1.935372
0.484600	-1.927582
0.484700	-1.923687
0.484800	-1.917195
0.484900	-1.929529
0.485000	-1.920116
0.485100	-1.909405
0.485200	-1.936670
0.485300	-1.934723
0.485400	-1.974322
0.485500	-1.960040
0.485600	-2.075267
0.485700	-2.225874
0.485800	-2.268719
0.485900	-2.174589
0.486000	-2.013596
0.486100	-1.964909
0.486200	-2.102207
0.486300	-2.270341
0.486400	-2.380375
0.486500	-2.311239
0.486600	-2.175239
0.486700	-2.085654
0.486800	-2.133043
0.486900	-2.241778
0.487000	-2.330065
0.487100	-2.313186
0.487200	-2.266122
0.487300	-2.237234
0.487400	-2.231716
0.487500	-2.213864
0.487600	-2.209969
0.487700	-2.231067
0.487800	-2.241129
0.487900	-2.292738
0.488000	-2.300852
0.488100	-2.315459
0.488200	-2.303124
0.488300	-2.335583
0.488400	-2.347917
0.488500	-2.407965
0.488600	-2.454380
0.488700	-2.416729
0.488800	-2.305072
0.488900	-2.263201
0.489000	-2.372261
0.489100	-2.532605
0.489200	-2.649130
0.489300	-2.586810
0.489400	-2.443020
0.489500	-2.368041
0.489600	-2.425817
0.489700	-2.565712
0.489800	-2.707231
0.489900	-2.722162
0.490000	-2.652376
0.490100	-2.565388
0.490200	-2.528385
0.490300	-2.553703
0.490400	-2.582266
0.490500	-2.597522
0.490600	-2.572204
0.490700	-2.537798
0.490800	-2.479698
0.490900	-2.405368
0.491000	-2.354084
0.491100	-2.270666
0.491200	-2.221005
0.491300	-2.245024
0.491400	-2.253463
0.491500	-2.262876
0.491600	-2.154790
0.491700	-2.090522
0.491800	-2.071697
0.491900	-2.077215
0.492000	-2.013921
0.492100	-1.979515
0.492200	-1.918818
0.492300	-1.888956
0.492400	-1.812679
0.492500	-1.784116
0.492600	-1.787037
0.492700	-1.808135
0.492800	-1.807486
0.492900	-1.848384
0.493000	-1.867209
0.493100	-1.930828
0.493200	-1.892851
0.493300	-1.966856
0.493400	-1.914274
0.493500	-1.998341
0.493600	-1.994446
0.493700	-2.035343
0.493800	-2.055467
0.493900	-1.975295
0.494000	-1.898369
0.494100	-1.758150
0.494200	-1.942513
0.494300	-2.123630
0.494400	-2.232041
0.494500	-2.113892
0.494600	-1.999315
0.494700	-1.860718
0.494800	-1.885711
0.494900	-1.986331
0.495000	-2.092145
0.495100	-2.050923
0.495200	-1.950952
0.495300	-1.851629
0.495400	-1.861042
0.495500	-1.881491
0.495600	-1.915897
0.495700	-1.927257
0.495800	-1.920116
0.495900	-1.874350
0.496000	-1.876947
0.496100	-1.862341
0.496200	-1.853252
0.496300	-1.835725
0.496400	-1.836699
0.496500	-1.891228
0.496600	-1.929529
0.496700	-1.969778
0.496800	-1.899668
0.496900	-1.898045
0.497000	-1.835400
0.497100	-2.003210
0.497200	-2.119410
0.497300	-2.114542
0.497400	-2.039887
0.497500	-1.845462
0.497600	-1.824689
0.497700	-1.933100
0.497800	-2.097663
0.497900	-2.143429
0.498000	-2.036642
0.498100	-1.863314
0.498200	-1.797099
0.498300	-1.858121
0.498400	-1.931801
0.498500	-1.943162
0.498600	-1.925310
0.498700	-1.863314
0.498800	-1.840918
0.498900	-1.847085
0.499000	-1.838646
0.499100	-1.818522
0.499200	-1.789959
0.499300	-1.805863
0.499400	-1.855200
0.499500	-1.904212
0.499600	-1.902913
0.499700	-1.898045
0.499800	-1.895448
0.499900	-1.949653
0.500000	-2.054169
0.500100	-2.085654
0.500200	-2.113892
0.500300	-2.123305
0.500400	-2.191792
0.500500	-2.204451
0.500600	-2.143429
0.500700	-2.153167
0.500800	-2.152193
0.500900	-2.142780
0.501000	-2.128823
0.501100	-2.146026
0.501200	-2.117138
0.501300	-2.115191
0.501400	-2.111945
0.501500	-2.122332
0.501600	-2.096040
0.501700	-2.105129
0.501800	-2.079162
0.501900	-2.112919
0.502000	-2.150895
0.502100	-2.154465
0.502200	-2.201205
0.502300	-2.371611
0.502400	-2.542018
0.502500	-2.571555
0.502600	-2.419650
0.502700	-2.286571
0.502800	-2.330065
0.502900	-2.570581
0.503000	-2.748453
0.503100	-2.782534
0.503200	-2.714696
0.503300	-2.579020
0.503400	-2.578371
0.503500	-2.658543
0.503600	-2.790324
0.503700	-2.814019
0.503800	-2.798114
0.503900	-2.702362
0.504000	-2.687107
0.504100	-2.677694
0.504200	-2.679317
0.504300	-2.678668
0.504400	-2.661465
0.504500	-2.663737
0.504600	-2.651078
0.504700	-2.654324
0.504800	-2.686458
0.504900	-2.657245
0.505000	-2.675746
0.505100	-2.686782
0.505200	-2.687756
0.505300	-2.713723
0.505400	-2.649130
0.505500	-2.518972
0.505600	-2.517674
0.505700	-2.626734
0.505800	-2.776692
0.505900	-2.847776
0.506000	-2.747804
0.506100	-2.621865
0.506200	-2.568309
0.506300	-2.656271
0.506400	-2.796816
0.506500	-2.888998
0.506600	-2.853294
0.506700	-2.751050
0.506800	-2.679966
0.506900	-2.661789
0.507000	-2.687431
0.507100	-2.690028
0.507200	-2.684835
0.507300	-2.643288
0.507400	-2.586161
0.507500	-2.510533
0.507600	-2.420948
0.507700	-2.356031
0.507800	-2.298580
0.507900	-2.276184
0.508000	-2.271315
0.508100	-2.274561
0.508200	-2.231067
0.508300	-2.110647
0.508400	-2.046055
0.508500	-2.022035
0.508600	-2.015219
0.508700	-1.919143
0.508800	-1.891228
0.508900	-1.835076
0.509000	-1.760422
0.509100	-1.695830
0.509200	-1.638379
0.509300	-1.641624
0.509400	-1.652011
0.509500	-1.658827
0.509600	-1.667266
0.509700	-1.680250
0.509800	-1.664345
0.509900	-1.663371
0.510000	-1.645844
0.510100	-1.675381
0.510200	-1.638379
0.510300	-1.709462
0.510400	-1.682197
0.510500	-1.705243
0.510600	-1.588068
0.510700	-1.428698
0.510800	-1.394293
0.510900	-1.586121
0.511000	-1.746789
0.511100	-1.788985
0.511200	-1.749710
0.511300	-1.643896
0.511400	-1.566321
0.511500	-1.655906
0.511600	-1.789634
0.511700	-1.880517
0.511800	-1.867534
0.511900	-1.789309
0.512000	-1.759448
0.512100	-1.789959
0.512200	-1.846436
0.512300	-1.893176
0.512400	-1.933424
0.512500	-1.953224
0.512600	-1.942188
0.512700	-1.955820
0.512800	-1.967181
0.512900	-1.985358
0.513000	-1.976594
0.513100	-2.058064
0.513200	-2.071697
0.513300	-2.109024
0.513400	-2.097014
0.513500	-2.050599
0.513600	-2.030475
0.513700	-2.026580
0.513800	-2.212566
0.513900	-2.295334
0.514000	-2.255086
0.514100	-2.139859
0.514200	-1.990226
0.514300	-2.049950
0.514400	-2.162255
0.514500	-2.290466
0.514600	-2.225874
0.514700	-2.110322
0.514800	-1.983735
0.514900	-1.980813
0.515000	-2.034370
0.515100	-2.075592
0.515200	-2.027878
0.515300	-2.023334
0.515400	-1.989577
0.515500	-2.013921
0.515600	-1.993148
0.515700	-1.987305
0.515800	-1.953873
0.515900	-1.951276
0.516000	-1.988603
0.516100	-2.047028
0.516200	-2.021711
0.516300	-1.994446
0.516400	-1.971725
0.516500	-1.972699
0.516600	-2.043458
0.516700	-2.067477
0.516800	-2.067152
0.516900	-2.041510
0.517000	-2.039563
0.517100	-2.114866
0.517200	-2.086627
0.517300	-2.017491
0.517400	-2.003210
0.517500	-1.989902
0.517600	-1.982112
0.517700	-1.980489
0.517800	-1.997692
0.517900	-1.984059
0.518000	-1.990551
0.518100	-1.983410
0.518200	-1.963286
0.518300	-1.978217
0.518400	-1.961014
0.518500	-1.984384
0.518600	-2.022360
0.518700	-2.049300
0.518800	-2.079162
0.518900	-2.148947
0.519000	-2.333960
0.519100	-2.460547
0.519200	-2.431984
0.519300	-2.334284
0.519400	-2.210618
0.519500	-2.311239
0.519600	-2.546887
0.519700	-2.696520
0.519800	-2.708854
0.519900	-2.605312
0.520000	-2.551106
0.520100	-2.571879
0.520200	-2.670228
0.520300	-2.770525
0.520400	-2.779288
0.520500	-2.727680
0.520600	-2.692625
0.520700	-2.702038
0.520800	-2.716319
0.520900	-2.719565
0.521000	-2.720539
0.521100	-2.711126
0.521200	-2.699116
0.521300	-2.695221
0.521400	-2.741312
0.521500	-2.699765
0.521600	-2.659517
0.521700	-2.618620
0.521800	-2.648806
0.521900	-2.649780
0.522000	-2.626085
0.522100	-2.461846
0.522200	-2.351812
0.522300	-2.364795
0.522400	-2.442371
0.522500	-2.554677
0.522600	-2.521569
0.522700	-2.349215
0.522800	-2.220680
0.522900	-2.203153
0.523000	-2.321301
0.523100	-2.440423
0.523200	-2.442046
0.523300	-2.341750
0.523400	-2.191143
0.523500	-2.124279
0.523600	-2.135639
0.523700	-2.161931
0.523800	-2.134341
0.523900	-2.101558
0.524000	-2.045730
0.524100	-1.994770
0.524200	-1.936346
0.524300	-1.870780
0.524400	-1.803591
0.524500	-1.747114
0.524600	-1.733806
0.524700	-1.714006
0.524800	-1.712383
0.524900	-1.645844
0.525000	-1.551066
0.525100	-1.528994
0.525200	-1.528345
0.525300	-1.504975
0.525400	-1.477710
0.525500	-1.425452
0.525600	-1.374493
0.525700	-1.308603
0.525800	-1.259915
0.525900	-1.277443
0.526000	-1.300164
0.526100	-1.354693
0.526200	-1.362808
0.526300	-1.399810
0.526400	-1.397538
0.526500	-1.465051
0.526600	-1.478684
0.526700	-1.532565
0.526800	-1.601701
0.526900	-1.636106
0.527000	-1.720498
0.527100	-1.731858
0.527200	-1.773730
0.527300	-1.645519
0.527400	-1.563075
0.527500	-1.606894
0.527600	-1.875324
0.527700	-2.047028
0.527800	-2.091821
0.527900	-2.012947
0.528000	-1.886360
0.528100	-1.864937
0.528200	-2.013272
0.528300	-2.182055
0.528400	-2.223277
0.528500	-2.158685
0.528600	-2.049300
0.528700	-2.037940
0.528800	-2.097339
0.528900	-2.189845
0.529000	-2.246322
0.529100	-2.244050
0.529200	-2.214189
0.529300	-2.208022
0.529400	-2.217110
0.529500	-2.241129
0.529600	-2.258656
0.529700	-2.281053
0.529800	-2.308967
0.529900	-2.343048
0.530000	-2.372585
0.530100	-2.382647
0.530200	-2.320003
0.530300	-2.306695
0.530400	-2.340776
0.530500	-2.490409
0.530600	-2.588758
0.530700	-2.513454
0.530800	-2.356356
0.530900	-2.218408
0.531000	-2.306370
0.531100	-2.469311
0.531200	-2.573178
0.531300	-2.477426
0.531400	-2.310265
0.531500	-2.206074
0.531600	-2.230093
0.531700	-2.340776
0.531800	-2.401473
0.531900	-2.384595
0.532000	-2.346294
0.532100	-2.275859
0.532200	-2.292738
0.532300	-2.278131
0.532400	-2.283649
0.532500	-2.275535
0.532600	-2.276833
0.532700	-2.280404
0.532800	-2.302800
0.532900	-2.295659
0.533000	-2.287220
0.533100	-2.259306
0.533200	-2.281053
0.533300	-2.360576
0.533400	-2.366094
0.533500	-2.371936
0.533600	-2.330065
0.533700	-2.352461
0.533800	-2.356031
0.533900	-2.313186
0.534000	-2.279754
0.534100	-2.282676
0.534200	-2.252165
0.534300	-2.228470
0.534400	-2.218733
0.534500	-2.236260
0.534600	-2.196661
0.534700	-2.215162
0.534800	-2.215162
0.534900	-2.222628
0.535000	-2.207372
0.535100	-2.193091
0.535200	-2.179458
0.535300	-2.196661
0.535400	-2.207697
0.535500	-2.262551
0.535600	-2.338829
0.535700	-2.521894
0.535800	-2.593627
0.535900	-2.452433
0.536000	-2.269043
0.536100	-2.219706
0.536200	-2.353110
0.536300	-2.534877
0.536400	-2.611803
0.536500	-2.574152
0.536600	-2.393683
0.536700	-2.334609
0.536800	-2.330065
0.536900	-2.479698
0.537000	-2.540395
0.537100	-2.525789
0.537200	-2.440099
0.537300	-2.362848
0.537400	-2.331039
0.537500	-2.328117
0.537600	-2.336232
0.537700	-2.306046
0.537800	-2.257034
0.537900	-2.230093
0.538000	-2.188547
0.538100	-2.214513
0.538200	-2.196337
0.538300	-2.144079
0.538400	-2.121358
0.538500	-2.125902
0.538600	-2.120059
0.538700	-2.072995
0.538800	-1.930828
0.538900	-1.870780
0.539000	-1.916546
0.539100	-2.035019
0.539200	-2.138885
0.539300	-2.073969
0.539400	-1.926608
0.539500	-1.810732
0.539600	-1.840594
0.539700	-1.964260
0.539800	-2.102857
0.539900	-2.117138
0.540000	-2.033396
0.540100	-1.928231
0.540200	-1.877921
0.540300	-1.894150
0.540400	-1.929854
0.540500	-1.958742
0.540600	-1.946732
0.540700	-1.933100
0.540800	-1.857796
0.540900	-1.803916
0.541000	-1.795477
0.541100	-1.779897
0.541200	-1.802293
0.541300	-1.832479
0.541400	-1.875973
0.541500	-1.912976
0.541600	-1.859419
0.541700	-1.838971
0.541800	-1.881166
0.541900	-1.935372
0.542000	-1.921090
0.542100	-1.924336
0.542200	-1.921739
0.542300	-1.895123
0.542400	-1.859419
0.542500	-1.854226
0.542600	-1.874999
0.542700	-1.936021
0.542800	-1.948355
0.542900	-2.025281
0.543000	-2.079811
0.543100	-2.094417
0.543200	-2.116489
0.543300	-2.109024
0.543400	-2.139859
0.543500	-2.176537
0.543600	-2.214838
0.543700	-2.268069
0.543800	-2.250542
0.543900	-2.233339
0.544000	-2.076241
0.544100	-2.008727
0.544200	-1.993472
0.544300	-2.296308
0.544400	-2.295010
0.544500	-2.274886
0.544600	-2.129148
0.544700	-2.034045
0.544800	-2.041835
0.544900	-2.140184
0.545000	-2.250542
0.545100	-2.230093
0.545200	-2.136289
0.545300	-2.029825
0.545400	-1.983735
0.545500	-2.020088
0.545600	-2.052871
0.545700	-2.051897
0.545800	-2.045730
0.545900	-2.008403
0.546000	-2.012622
0.546100	-2.023658
0.546200	-2.013272
0.546300	-1.983735
0.546400	-2.002885
0.546500	-2.130122
0.546600	-2.107725
0.546700	-2.196986
0.546800	-2.128499
0.546900	-2.109024
0.547000	-2.076890
0.547100	-2.152842
0.547200	-2.344671
0.547300	-2.349864
0.547400	-2.284948
0.547500	-2.109673
0.547600	-2.115191
0.547700	-2.237883
0.547800	-2.386867
0.547900	-2.425817
0.548000	-2.335583
0.548100	-2.208995
0.548200	-2.149597
0.548300	-2.226198
0.548400	-2.328442
0.548500	-2.366418
0.548600	-2.372910
0.548700	-2.360576
0.548800	-2.322275
0.548900	-2.364146
0.549000	-2.351487
0.549100	-2.351812
0.549200	-2.315459
0.549300	-2.340776
0.549400	-2.363821
0.549500	-2.373234
0.549600	-2.336881
0.549700	-2.323249
0.549800	-2.282676
0.549900	-2.323249
0.550000	-2.387191
0.550100	-2.394332
0.550200	-2.362199
0.550300	-2.311888
0.550400	-2.326494
0.550500	-2.311888
0.550600	-2.199258
0.550700	-2.182055
0.550800	-2.124604
0.550900	-2.064556
0.551000	-2.028202
0.551100	-1.981787
0.551200	-1.947706
0.551300	-1.862341
0.551400	-1.823066
0.551500	-1.804240
0.551600	-1.750035
0.551700	-1.722770
0.551800	-1.699400
0.551900	-1.658178
0.552000	-1.633510
0.552100	-1.611763
0.552200	-1.611438
0.552300	-1.724068
0.552400	-1.874350
0.552500	-1.895123
0.552600	-1.723419
0.552700	-1.575085
0.552800	-1.549443
0.552900	-1.748737
0.553000	-1.929854
0.553100	-1.970751
0.553200	-1.887658
0.553300	-1.790283
0.553400	-1.762369
0.553500	-1.885386
0.553600	-2.002236
0.553700	-2.084680
0.553800	-2.036642
0.553900	-1.994770
0.554000	-2.014245
0.554100	-2.049300
0.554200	-2.075916
0.554300	-2.122981
0.554400	-2.146675
0.554500	-2.160308
0.554600	-2.187897
0.554700	-2.263201
0.554800	-2.294036
0.554900	-2.334934
0.555000	-2.333311
0.555100	-2.360900
0.555200	-2.399526
0.555300	-2.427115
0.555400	-2.362523
0.555500	-2.261902
0.555600	-2.263201
0.555700	-2.367392
0.555800	-2.506638
0.555900	-2.573502
0.556000	-2.490734
0.556100	-2.348566
0.556200	-2.289167
0.556300	-2.352136
0.556400	-2.499822
0.556500	-2.626085
0.556600	-2.597522
0.556700	-2.476776
0.556800	-2.379077
0.556900	-2.367716
0.557000	-2.393359
0.557100	-2.409263
0.557200	-2.389788
0.557300	-2.343373
0.557400	-2.282676
0.557500	-2.214513
0.557600	-2.147000
0.557700	-2.055792
0.557800	-1.987954
0.557900	-1.950627
0.558000	-1.943162
0.558100	-1.941863
0.558200	-1.924336
0.558300	-1.826312
0.558400	-1.780870
0.558500	-1.785090
0.558600	-1.799696
0.558700	-1.747438
0.558800	-1.725691
0.558900	-1.717252
0.559000	-1.698102
0.559100	-1.655906
0.559200	-1.657204
0.559300	-1.700698
0.559400	-1.750360
0.559500	-1.791257
0.559600	-1.854875
0.559700	-1.880193
0.559800	-1.941539
0.559900	-1.929205
0.560000	-2.012298
0.560100	-2.007429
0.560200	-2.122332
0.560300	-2.147000
0.560400	-2.203477
0.560500	-2.174265
0.560600	-2.124604
0.560700	-1.946408
0.560800	-1.876298
0.560900	-1.988279
0.561000	-2.226523
0.561100	-2.177186
0.561200	-2.084680
0.561300	-1.910054
0.561400	-1.795477
0.561500	-1.828909
0.561600	-1.903563
0.561700	-1.967830
0.561800	-1.878570
0.561900	-1.754579
0.562000	-1.645519
0.562100	-1.591963
0.562200	-1.636756
0.562300	-1.655581
0.562400	-1.646493
0.562500	-1.663371
0.562600	-1.619228
0.562700	-1.606245
0.562800	-1.584173
0.562900	-1.598130
0.563000	-1.583524
0.563100	-1.615982
0.563200	-1.668565
0.563300	-1.698751
0.563400	-1.691935
0.563500	-1.687715
0.563600	-1.661099
0.563700	-1.685443
0.563800	-1.776326
0.563900	-1.938293
0.564000	-1.942513
0.564100	-1.850980
0.564200	-1.668240
0.564300	-1.699076
0.564400	-1.803916
0.564500	-1.967505
0.564600	-1.969453
0.564700	-1.870780
0.564800	-1.747114
0.564900	-1.707515
0.565000	-1.801968
0.565100	-1.886360
0.565200	-1.895123
0.565300	-1.927257
0.565400	-1.870780
0.565500	-1.886035
0.565600	-1.870131
0.565700	-1.884088
0.565800	-1.887009
0.565900	-1.895123
0.566000	-1.942837
0.566100	-1.983735
0.566200	-2.027229
0.566300	-1.993148
0.566400	-2.003534
0.566500	-2.010026
0.566600	-2.082732
0.566700	-2.153167
0.566800	-2.171019
0.566900	-2.169396
0.567000	-2.185625
0.567100	-2.233664
0.567200	-2.247945
0.567300	-2.189845
0.567400	-2.189196
0.567500	-2.177835
0.567600	-2.177511
0.567700	-2.179458
0.567800	-2.203477
0.567900	-2.205749
0.568000	-2.219706
0.568100	-2.224575
0.568200	-2.239181
0.568300	-2.253788
0.568400	-2.250866
0.568500	-2.298905
0.568600	-2.293387
0.568700	-2.374533
0.568800	-2.387841
0.568900	-2.456328
0.569000	-2.629655
0.569100	-2.789026
0.569200	-2.720539
0.569300	-2.566686
0.569400	-2.489760
0.569500	-2.542018
0.569600	-2.754945
0.569700	-2.894191
0.569800	-2.866602
0.569900	-2.751374
0.570000	-2.641340
0.570100	-2.631603
0.570200	-2.722162
0.570300	-2.797465
0.570400	-2.819861
0.570500	-2.767928
0.570600	-2.712424
0.570700	-2.695546
0.570800	-2.669579
0.570900	-2.678018
0.571000	-2.678668
0.571100	-2.666009
0.571200	-2.681589
0.571300	-2.652052
0.571400	-2.705283
0.571500	-2.708854
0.571600	-2.625760
0.571700	-2.611479
0.571800	-2.606285
0.571900	-2.600767
0.572000	-2.556949
0.572100	-2.455029
0.572200	-2.345969
0.572300	-2.340776
0.572400	-2.440748
0.572500	-2.569932
0.572600	-2.539421
0.572700	-2.425817
0.572800	-2.272938
0.572900	-2.233664
0.573000	-2.338504
0.573100	-2.458275
0.573200	-2.524490
0.573300	-2.480996
0.573400	-2.370313
0.573500	-2.338179
0.573600	-2.311888
0.573700	-2.334934
0.573800	-2.333311
0.573900	-2.332661
0.574000	-2.297606
0.574100	-2.273587
0.574200	-2.204451
0.574300	-2.138236
0.574400	-2.044107
0.574500	-2.000938
0.574600	-1.986331
0.574700	-2.015868
0.574800	-2.014570
0.574900	-1.973673
0.575000	-1.866885
0.575100	-1.838971
0.575200	-1.827286
0.575300	-1.818522
0.575400	-1.750360
0.575500	-1.726340
0.575600	-1.674083
0.575700	-1.651037
0.575800	-1.600078
0.575900	-1.614684
0.576000	-1.653309
0.576100	-1.656231
0.576200	-1.715954
0.576300	-1.764317
0.576400	-1.781520
0.576500	-1.805539
0.576600	-1.809758
0.576700	-1.828259
0.576800	-1.812355
0.576900	-1.872403
0.577000	-1.903563
0.577100	-1.920441
0.577200	-1.924985
0.577300	-1.817873
0.577400	-1.681548
0.577500	-1.695830
0.577600	-1.926283
0.577700	-2.113568
0.577800	-2.057090
0.577900	-1.985358
0.578000	-1.817548
0.578100	-1.761395
0.578200	-1.861691
0.578300	-1.986331
0.578400	-2.037940
0.578500	-1.972050
0.578600	-1.835725
0.578700	-1.797099
0.578800	-1.813329
0.578900	-1.835400
0.579000	-1.870455
0.579100	-1.845462
0.579200	-1.817873
0.579300	-1.804240
0.579400	-1.792231
0.579500	-1.795477
0.579600	-1.761720
0.579700	-1.789634
0.579800	-1.807486
0.579900	-1.840269
0.580000	-1.850331
0.580100	-1.847085
0.580200	-1.774703
0.580300	-1.762694
0.580400	-1.725367
0.580500	-1.991849
0.580600	-2.009377
0.580700	-1.995420
0.580800	-1.843839
0.580900	-1.736403
0.581000	-1.810407
0.581100	-1.981463
0.581200	-2.094417
0.581300	-2.050923
0.581400	-1.911353
0.581500	-1.806188
0.581600	-1.848384
0.581700	-1.951276
0.581800	-2.034694
0.581900	-2.008727
0.582000	-1.999315
0.582100	-1.947057
0.582200	-1.985358
0.582300	-1.986656
0.582400	-1.976594
0.582500	-1.965558
0.582600	-1.949004
0.582700	-1.991849
0.582800	-2.016517
0.582900	-2.024957
0.583000	-2.015544
0.583100	-2.011324
0.583200	-2.034045
0.583300	-2.130771
0.583400	-2.184976
0.583500	-2.216136
0.583600	-2.216785
0.583700	-2.242427
0.583800	-2.289167
0.583900	-2.246971
0.584000	-2.236909
0.584100	-2.231716
0.584200	-2.227821
0.584300	-2.214838
0.584400	-2.213864
0.584500	-2.221005
0.584600	-2.194714
0.584700	-2.228146
0.584800	-2.212241
0.584900	-2.234637
0.585000	-2.213864
0.585100	-2.238532
0.585200	-2.273587
0.585300	-2.303449
0.585400	-2.337206
0.585500	-2.342724
0.585600	-2.461846
0.585700	-2.646858
0.585800	-2.739689
0.585900	-2.628682
0.586000	-2.517349
0.586100	-2.419650
0.586200	-2.533254
0.586300	-2.746506
0.586400	-2.846153
0.586500	-2.820186
0.586600	-2.700415
0.586700	-2.589732
0.586800	-2.648157
0.586900	-2.729303
0.587000	-2.836415
0.587100	-2.794869
0.587200	-2.756568
0.587300	-2.694572
0.587400	-2.713398
0.587500	-2.744233
0.587600	-2.765981
0.587700	-2.775718
0.587800	-2.731250
0.587900	-2.731899
0.588000	-2.763708
0.588100	-2.822458
0.588200	-2.839337
0.588300	-2.806554
0.588400	-2.776692
0.588500	-2.813694
0.588600	-2.821160
0.588700	-2.811098
0.588800	-2.676395
0.588900	-2.611479
0.589000	-2.681589
0.589100	-2.799088
0.589200	-2.916588
0.589300	-2.886726
0.589400	-2.754620
0.589500	-2.628032
0.589600	-2.622515
0.589700	-2.769876
0.589800	-2.922105
0.589900	-2.954239
0.590000	-2.856215
0.590100	-2.752348
0.590200	-2.690677
0.590300	-2.709828
0.590400	-2.752023
0.590500	-2.736443
0.590600	-2.715021
0.590700	-2.663087
0.590800	-2.590056
0.590900	-2.521244
0.591000	-2.449511
0.591100	-2.386867
0.591200	-2.329416
0.591300	-2.307669
0.591400	-2.283000
0.591500	-2.260929
0.591600	-2.159659
0.591700	-2.077539
0.591800	-2.031448
0.591900	-2.001911
0.592000	-1.936346
0.592100	-1.852279
0.592200	-1.791257
0.592300	-1.718875
0.592400	-1.632211
0.592500	-1.575410
0.592600	-1.560803
0.592700	-1.572488
0.592800	-1.555935
0.592900	-1.575734
0.593000	-1.560803
0.593100	-1.567944
0.593200	-1.559505
0.593300	-1.565347
0.593400	-1.560803
0.593500	-1.544574
0.593600	-1.565997
0.593700	-1.615333
0.593800	-1.585147
0.593900	-1.577682
0.594000	-1.375142
0.594100	-1.296269
0.594200	-1.337491
0.594300	-1.600727
0.594400	-1.701023
0.594500	-1.670837
0.594600	-1.516660
0.594700	-1.413443
0.594800	-1.397863
0.594900	-1.517958
0.595000	-1.634808
0.595100	-1.687391
0.595200	-1.598455
0.595300	-1.506598
0.595400	-1.494588
0.595500	-1.533214
0.595600	-1.595209
0.595700	-1.651362
0.595800	-1.675056
0.595900	-1.666617
0.596000	-1.678951
0.596100	-1.702646
0.596200	-1.732832
0.596300	-1.741271
0.596400	-1.758799
0.596500	-1.867534
0.596600	-1.853901
0.596700	-1.889930
0.596800	-1.853577
0.596900	-1.844813
0.597000	-1.812030
0.597100	-1.974646
0.597200	-2.171019
0.597300	-2.193415
0.597400	-2.124928
0.597500	-1.988603
0.597600	-1.937644
0.597700	-2.067802
0.597800	-2.206723
0.597900	-2.289167
0.598000	-2.182704
0.598100	-2.030799
0.598200	-1.948355
0.598300	-2.016193
0.598400	-2.112269
