LabVIEW Measurement	
Writer_Version	2
Reader_Version	2
Separator	Tab
Decimal_Separator	.
Multi_Headings	Yes
X_Columns	One
Time_Pref	Relative
Operator	as989
Description	Time Domain Data
Date	1903/12/31
Time	19:00:00
***End_of_Header***	
	
Channels	1	
Samples	15000	
Date	1903/12/31	
Time	19:00:00	
X_Dimension	Time	
X0	0.0000000000000000E+0	
Delta_X	0.000100	
***End_of_Header***		
X_Value	Untitled	Comment
0.000000	-2.093119	Tare Values:0.000000, 0.000000, 0.000000, 0.000000\0D\0A
0.000100	-2.465091
0.000200	-2.545588
0.000300	-2.403421
0.000400	-2.151869
0.000500	-2.147974
0.000600	-2.374208
0.000700	-2.596223
0.000800	-2.699116
0.000900	-2.668930
0.001000	-2.620892
0.001100	-2.631278
0.001200	-2.701388
0.001300	-2.744558
0.001400	-2.746830
0.001500	-2.758191
0.001600	-2.758515
0.001700	-2.823432
0.001800	-2.866926
0.001900	-2.956836
0.002000	-2.904578
0.002100	-2.882182
0.002200	-2.871146
0.002300	-2.956511
0.002400	-2.966249
0.002500	-2.840635
0.002600	-2.644262
0.002700	-2.618944
0.002800	-2.803632
0.002900	-3.065247
0.003000	-3.222995
0.003100	-3.050641
0.003200	-2.775069
0.003300	-2.651402
0.003400	-2.796167
0.003500	-3.071739
0.003600	-3.272981
0.003700	-3.249611
0.003800	-3.059080
0.003900	-2.916588
0.004000	-2.915614
0.004100	-3.009743
0.004200	-3.049342
0.004300	-3.000006
0.004400	-2.957810
0.004500	-2.889647
0.004600	-2.828625
0.004700	-2.731899
0.004800	-2.569932
0.004900	-2.407640
0.005000	-2.319678
0.005100	-2.305396
0.005200	-2.299229
0.005300	-2.265473
0.005400	-2.028527
0.005500	-1.934073
0.005600	-1.777300
0.005700	-1.634484
0.005800	-1.579954
0.005900	-1.494913
0.006000	-1.367352
0.006100	-1.237195
0.006200	-1.073605
0.006300	-0.993433
0.006400	-0.946694
0.006500	-0.925596
0.006600	-0.943123
0.006700	-0.878531
0.006800	-0.925920
0.006900	-0.829520
0.007000	-0.777911
0.007100	-0.753567
0.007200	-0.711047
0.007300	-0.708126
0.007400	-0.803228
0.007500	-0.737987
0.007600	-0.752594
0.007700	-0.454303
0.007800	-0.168671
0.007900	0.054641
0.008000	-0.312785
0.008100	-0.684431
0.008200	-0.660088
0.008300	-0.402370
0.008400	-0.053444
0.008500	0.091644
0.008600	0.061782
0.008700	-0.232289
0.008800	-0.312136
0.008900	-0.234886
0.009000	-0.008977
0.009100	0.076388
0.009200	0.201352
0.009300	0.155262
0.009400	0.063080
0.009500	0.068274
0.009600	0.094565
0.009700	0.152340
0.009800	0.167271
0.009900	0.112417
0.010000	0.136111
0.010100	0.078336
0.010200	-0.032671
0.010300	-0.058313
0.010400	-0.115440
0.010500	-0.193339
0.010600	-0.145301
0.010700	-0.156337
0.010800	-0.129397
0.010900	-0.377702
0.011000	-0.589978
0.011100	-0.609778
0.011200	-0.471181
0.011300	-0.167373
0.011400	-0.222551
0.011500	-0.449434
0.011600	-0.772393
0.011700	-0.811018
0.011800	-0.688326
0.011900	-0.463716
0.012000	-0.401396
0.012100	-0.528308
0.012200	-0.708450
0.012300	-0.785052
0.012400	-0.806150
0.012500	-0.735715
0.012600	-0.766551
0.012700	-0.835687
0.012800	-0.913262
0.012900	-0.913911
0.013000	-0.881453
0.013100	-0.926894
0.013200	-0.977854
0.013300	-0.982722
0.013400	-0.943448
0.013500	-0.919753
0.013600	-0.922025
0.013700	-1.052507
0.013800	-1.176822
0.013900	-1.195324
0.014000	-1.189157
0.014100	-1.028164
0.014200	-1.092431
0.014300	-1.121968
0.014400	-1.101195
0.014500	-1.113204
0.014600	-1.121643
0.014700	-1.108985
0.014800	-1.119696
0.014900	-1.125538
0.015000	-1.122617
0.015100	-1.136574
0.015200	-1.128784
0.015300	-1.142741
0.015400	-1.164488
0.015500	-1.194999
0.015600	-1.209605
0.015700	-1.282961
0.015800	-1.301787
0.015900	-1.376440
0.016000	-1.500431
0.016100	-1.892202
0.016200	-2.098962
0.016300	-2.048002
0.016400	-1.758799
0.016500	-1.578331
0.016600	-1.682197
0.016700	-2.142780
0.016800	-2.413483
0.016900	-2.461846
0.017000	-2.293711
0.017100	-2.149921
0.017200	-2.159983
0.017300	-2.425492
0.017400	-2.621541
0.017500	-2.740988
0.017600	-2.731899
0.017700	-2.704310
0.017800	-2.688080
0.017900	-2.729952
0.018000	-2.774420
0.018100	-2.782534
0.018200	-2.804606
0.018300	-2.822783
0.018400	-2.893867
0.018500	-2.951967
0.018600	-2.899385
0.018700	-2.895814
0.018800	-2.873418
0.018900	-2.927299
0.019000	-2.960731
0.019100	-2.982478
0.019200	-2.801685
0.019300	-2.602066
0.019400	-2.660815
0.019500	-2.851995
0.019600	-3.125944
0.019700	-3.212284
0.019800	-3.005848
0.019900	-2.742935
0.020000	-2.653999
0.020100	-2.826678
0.020200	-3.067195
0.020300	-3.215530
0.020400	-3.163272
0.020500	-3.019805
0.020600	-2.934440
0.020700	-2.932168
0.020800	-2.965275
0.020900	-3.002278
0.021000	-2.968196
0.021100	-2.971767
0.021200	-2.927948
0.021300	-2.863031
0.021400	-2.717293
0.021500	-2.532929
0.021600	-2.400175
0.021700	-2.361549
0.021800	-2.337530
0.021900	-2.329416
0.022000	-2.240155
0.022100	-2.014570
0.022200	-1.929529
0.022300	-1.689013
0.022400	-1.655257
0.022500	-1.581901
0.022600	-1.475114
0.022700	-1.342684
0.022800	-1.257643
0.022900	-1.043095
0.023000	-0.994083
0.023100	-0.939228
0.023200	-0.948641
0.023300	-0.877233
0.023400	-0.897682
0.023500	-0.881777
0.023600	-0.817185
0.023700	-0.786026
0.023800	-0.732470
0.023900	-0.711047
0.024000	-0.762006
0.024100	-0.749672
0.024200	-0.786026
0.024300	-0.647104
0.024400	-0.353358
0.024500	-0.027153
0.024600	-0.081683
0.024700	-0.401721
0.024800	-0.737338
0.024900	-0.614646
0.025000	-0.323821
0.025100	-0.008328
0.025200	0.044255
0.025300	-0.092070
0.025400	-0.372184
0.025500	-0.313434
0.025600	-0.230666
0.025700	0.022508
0.025800	0.124102
0.025900	0.082231
0.026000	0.044255
0.026100	-0.000862
0.026200	0.040360
0.026300	0.066326
0.026400	0.062756
0.026500	0.073142
0.026600	0.076388
0.026700	0.098135
0.026800	0.004980
0.026900	-0.069024
0.027000	-0.140432
0.027100	-0.189120
0.027200	-0.214437
0.027300	-0.093043
0.027400	-0.115115
0.027500	-0.175812
0.027600	-0.422494
0.027700	-0.650026
0.027800	-0.561090
0.027900	-0.354007
0.028000	-0.143029
0.028100	-0.270265
0.028200	-0.574723
0.028300	-0.802579
0.028400	-0.762656
0.028500	-0.582513
0.028600	-0.419897
0.028700	-0.454627
0.028800	-0.644508
0.028900	-0.772718
0.029000	-0.719162
0.029100	-0.747725
0.029200	-0.686703
0.029300	-0.787973
0.029400	-0.851916
0.029500	-0.917157
0.029600	-0.904173
0.029700	-0.877233
0.029800	-0.942149
0.029900	-1.020374
0.030000	-1.007390
0.030100	-0.989863
0.030200	-0.944746
0.030300	-0.959677
0.030400	-1.109634
0.030500	-1.210254
0.030600	-1.249529
0.030700	-1.165462
0.030800	-1.086913
0.030900	-1.164164
0.031000	-1.165137
0.031100	-1.163190
0.031200	-1.134302
0.031300	-1.134627
0.031400	-1.136250
0.031500	-1.126512
0.031600	-1.151830
0.031700	-1.130407
0.031800	-1.139495
0.031900	-1.149233
0.032000	-1.166760
0.032100	-1.196622
0.032200	-1.196946
0.032300	-1.216421
0.032400	-1.238818
0.032500	-1.304708
0.032600	-1.332946
0.032700	-1.546846
0.032800	-1.919143
0.032900	-2.137912
0.033000	-1.955496
0.033100	-1.687715
0.033200	-1.553013
0.033300	-1.743868
0.033400	-2.186274
0.033500	-2.432633
0.033600	-2.457301
0.033700	-2.212890
0.033800	-2.101558
0.033900	-2.159334
0.034000	-2.409912
0.034100	-2.636472
0.034200	-2.646858
0.034300	-2.591679
0.034400	-2.544614
0.034500	-2.550782
0.034600	-2.657570
0.034700	-2.710152
0.034800	-2.734496
0.034900	-2.709178
0.035000	-2.702362
0.035100	-2.752023
0.035200	-2.883155
0.035300	-2.876339
0.035400	-2.839986
0.035500	-2.828301
0.035600	-2.884129
0.035700	-2.920483
0.035800	-2.903929
0.035900	-2.693274
0.036000	-2.531956
0.036100	-2.646534
0.036200	-2.881857
0.036300	-3.158727
0.036400	-3.158727
0.036500	-2.915938
0.036600	-2.682887
0.036700	-2.637445
0.036800	-2.877962
0.036900	-3.170412
0.037000	-3.281745
0.037100	-3.169763
0.037200	-2.975337
0.037300	-2.901981
0.037400	-2.928273
0.037500	-3.006822
0.037600	-3.035061
0.037700	-3.018507
0.037800	-2.949695
0.037900	-2.857189
0.038000	-2.788377
0.038100	-2.665035
0.038200	-2.485540
0.038300	-2.375182
0.038400	-2.317081
0.038500	-2.295010
0.038600	-2.301177
0.038700	-2.133043
0.038800	-1.929205
0.038900	-1.870455
0.039000	-1.560803
0.039100	-1.574760
0.039200	-1.518608
0.039300	-1.392345
0.039400	-1.254722
0.039500	-1.105414
0.039600	-0.931114
0.039700	-0.862627
0.039800	-0.824651
0.039900	-0.850293
0.040000	-0.796412
0.040100	-0.828221
0.040200	-0.744154
0.040300	-0.726627
0.040400	-0.610427
0.040500	-0.620813
0.040600	-0.653921
0.040700	-0.678589
0.040800	-0.730847
0.040900	-0.692221
0.041000	-0.564012
0.041100	-0.189120
0.041200	0.072169
0.041300	0.017964
0.041400	-0.360823
0.041500	-0.664956
0.041600	-0.498121
0.041700	-0.210542
0.041800	0.118259
0.041900	0.113715
0.042000	-0.028776
0.042100	-0.203077
0.042200	-0.289415
0.042300	-0.116413
0.042400	0.075414
0.042500	0.181877
0.042600	0.134164
0.042700	0.109171
0.042800	0.053992
0.042900	0.016341
0.043000	0.083529
0.043100	0.099434
0.043200	0.068274
0.043300	0.026403
0.043400	0.033543
0.043500	-0.025530
0.043600	-0.188470
0.043700	-0.119335
0.043800	-0.232938
0.043900	-0.160556
0.044000	-0.144327
0.044100	-0.176785
0.044200	-0.222551
0.044300	-0.537071
0.044400	-0.588031
0.044500	-0.545186
0.044600	-0.307592
0.044700	-0.142380
0.044800	-0.313110
0.044900	-0.624708
0.045000	-0.810369
0.045100	-0.724680
0.045200	-0.486436
0.045300	-0.357577
0.045400	-0.409186
0.045500	-0.569205
0.045600	-0.703906
0.045700	-0.697090
0.045800	-0.695143
0.045900	-0.634121
0.046000	-0.696441
0.046100	-0.793491
0.046200	-0.854188
0.046300	-0.866522
0.046400	-0.875610
0.046500	-0.902226
0.046600	-0.950913
0.046700	-0.933386
0.046800	-0.889567
0.046900	-0.852240
0.047000	-0.886646
0.047100	-1.081071
0.047200	-1.121968
0.047300	-1.133004
0.047400	-0.966169
0.047500	-0.960975
0.047600	-1.045691
0.047700	-1.055753
0.047800	-1.069386
0.047900	-1.052832
0.048000	-1.046990
0.048100	-1.060297
0.048200	-1.071333
0.048300	-1.087238
0.048400	-1.102818
0.048500	-1.097624
0.048600	-1.136899
0.048700	-1.134302
0.048800	-1.189481
0.048900	-1.184612
0.049000	-1.211877
0.049100	-1.247906
0.049200	-1.281662
0.049300	-1.365729
0.049400	-1.580927
0.049500	-1.976594
0.049600	-2.094742
0.049700	-1.868508
0.049800	-1.587744
0.049900	-1.557882
0.050000	-1.860393
0.050100	-2.245024
0.050200	-2.456977
0.050300	-2.369339
0.050400	-2.143105
0.050500	-2.050599
0.050600	-2.255735
0.050700	-2.505664
0.050800	-2.661465
0.050900	-2.661789
0.051000	-2.573502
0.051100	-2.623488
0.051200	-2.648806
0.051300	-2.726381
0.051400	-2.744558
0.051500	-2.736768
0.051600	-2.771174
0.051700	-2.800062
0.051800	-2.907824
0.051900	-2.890945
0.052000	-2.925676
0.052100	-2.900358
0.052200	-2.945476
0.052300	-3.025648
0.052400	-3.054860
0.052500	-2.984101
0.052600	-2.741312
0.052700	-2.681589
0.052800	-2.830897
0.052900	-3.081801
0.053000	-3.294079
0.053100	-3.222021
0.053200	-2.957810
0.053300	-2.752673
0.053400	-2.789351
0.053500	-3.031815
0.053600	-3.300895
0.053700	-3.318748
0.053800	-3.157754
0.053900	-2.978583
0.054000	-2.947423
0.054100	-2.980206
0.054200	-3.032789
0.054300	-3.060378
0.054400	-2.997734
0.054500	-2.939958
0.054600	-2.904578
0.054700	-2.822458
0.054800	-2.662114
0.054900	-2.498524
0.055000	-2.396604
0.055100	-2.393359
0.055200	-2.380700
0.055300	-2.353759
0.055400	-2.141807
0.055500	-1.947706
0.055600	-1.892202
0.055700	-1.644870
0.055800	-1.671161
0.055900	-1.592937
0.056000	-1.463104
0.056100	-1.344631
0.056200	-1.170331
0.056300	-1.062569
0.056400	-1.009338
0.056500	-0.945071
0.056600	-0.949615
0.056700	-0.894436
0.056800	-0.957729
0.056900	-0.854188
0.057000	-0.854837
0.057100	-0.733443
0.057200	-0.810369
0.057300	-0.742532
0.057400	-0.814589
0.057500	-0.844126
0.057600	-0.774341
0.057700	-0.550054
0.057800	-0.263449
0.057900	-0.024881
0.058000	-0.173864
0.058100	-0.624059
0.058200	-0.758436
0.058300	-0.472479
0.058400	-0.154065
0.058500	0.094240
0.058600	-0.037540
0.058700	-0.241053
0.058800	-0.464040
0.058900	-0.399773
0.059000	-0.177110
0.059100	0.084178
0.059200	0.068923
0.059300	0.028675
0.059400	-0.126151
0.059500	-0.091420
0.059600	-0.108623
0.059700	-0.032347
0.059800	-0.038189
0.059900	-0.041759
0.060000	-0.042084
0.060100	-0.028452
0.060200	-0.059936
0.060300	-0.213139
0.060400	-0.184251
0.060500	-0.298504
0.060600	-0.306618
0.060700	-0.177435
0.060800	-0.250466
0.060900	-0.307267
0.061000	-0.749023
0.061100	-0.719486
0.061200	-0.643209
0.061300	-0.320575
0.061400	-0.273835
0.061500	-0.437100
0.061600	-0.802904
0.061700	-0.932737
0.061800	-0.836336
0.061900	-0.581214
0.062000	-0.440021
0.062100	-0.576346
0.062200	-0.795114
0.062300	-0.908068
0.062400	-0.927868
0.062500	-0.854837
0.062600	-0.817185
0.062700	-0.872689
0.062800	-0.984994
0.062900	-1.076526
0.063000	-1.047963
0.063100	-1.065815
0.063200	-1.119696
0.063300	-1.119047
0.063400	-1.112231
0.063500	-1.083018
0.063600	-1.073281
0.063700	-1.127486
0.063800	-1.293023
0.063900	-1.330999
0.064000	-1.321261
0.064100	-1.145987
0.064200	-1.194674
0.064300	-1.226808
0.064400	-1.217720
0.064500	-1.204412
0.064600	-1.179094
0.064700	-1.179419
0.064800	-1.186884
0.064900	-1.205710
0.065000	-1.200841
0.065100	-1.183963
0.065200	-1.200192
0.065300	-1.192078
0.065400	-1.202789
0.065500	-1.168383
0.065600	-1.234598
0.065700	-1.260565
0.065800	-1.301787
0.065900	-1.368001
0.066000	-1.418961
0.066100	-1.763992
0.066200	-1.996069
0.066300	-2.140833
0.066400	-1.798722
0.066500	-1.633185
0.066600	-1.606569
0.066700	-1.991200
0.066800	-2.385244
0.066900	-2.527736
0.067000	-2.383296
0.067100	-2.173291
0.067200	-2.084680
0.067300	-2.298256
0.067400	-2.553054
0.067500	-2.719240
0.067600	-2.723460
0.067700	-2.658543
0.067800	-2.640042
0.067900	-2.682563
0.068000	-2.706582
0.068100	-2.786105
0.068200	-2.825055
0.068300	-2.836091
0.068400	-2.826678
0.068500	-2.873093
0.068600	-2.927623
0.068700	-2.945800
0.068800	-2.910420
0.068900	-3.002602
0.069000	-3.037982
0.069100	-3.077906
0.069200	-2.948721
0.069300	-2.761761
0.069400	-2.741312
0.069500	-2.880559
0.069600	-3.144770
0.069700	-3.322643
0.069800	-3.187940
0.069900	-2.949695
0.070000	-2.767928
0.070100	-2.838687
0.070200	-3.086670
0.070300	-3.329783
0.070400	-3.361268
0.070500	-3.187615
0.070600	-3.031815
0.070700	-2.965275
0.070800	-2.992540
0.070900	-3.046746
0.071000	-3.072063
0.071100	-3.063624
0.071200	-2.998707
0.071300	-2.912368
0.071400	-2.808826
0.071500	-2.623488
0.071600	-2.498524
0.071700	-2.448862
0.071800	-2.433607
0.071900	-2.420299
0.072000	-2.351487
0.072100	-2.118112
0.072200	-1.977892
0.072300	-1.805539
0.072400	-1.692584
0.072500	-1.661099
0.072600	-1.587744
0.072700	-1.492316
0.072800	-1.391047
0.072900	-1.202789
0.073000	-1.111581
0.073100	-1.053806
0.073200	-1.044393
0.073300	-1.048937
0.073400	-1.038226
0.073500	-1.077176
0.073600	-1.015180
0.073700	-0.904823
0.073800	-0.910340
0.073900	-0.851267
0.074000	-0.961624
0.074100	-0.867496
0.074200	-1.046990
0.074300	-0.839906
0.074400	-0.678264
0.074500	-0.255983
0.074600	-0.133292
0.074700	-0.398799
0.074800	-0.754541
0.074900	-0.823352
0.075000	-0.491305
0.075100	-0.219630
0.075200	0.058861
0.075300	-0.022934
0.075400	-0.276107
0.075500	-0.262150
0.075600	-0.268642
0.075700	0.013744
0.075800	0.064054
0.075900	0.177982
0.076000	0.074116
0.076100	0.088722
0.076200	0.101706
0.076300	0.091968
0.076400	0.097811
0.076500	0.085477
0.076600	0.118259
0.076700	0.137734
0.076800	0.125075
0.076900	-0.042084
0.077000	-0.064480
0.077100	-0.221253
0.077200	-0.164776
0.077300	-0.163802
0.077400	-0.013521
0.077500	-0.083631
0.077600	-0.233263
0.077700	-0.527983
0.077800	-0.502016
0.077900	-0.351735
0.078000	-0.088499
0.078100	-0.128423
0.078200	-0.351086
0.078300	-0.659439
0.078400	-0.684756
0.078500	-0.581864
0.078600	-0.367640
0.078700	-0.328690
0.078800	-0.455601
0.078900	-0.612699
0.079000	-0.627954
0.079100	-0.681510
0.079200	-0.672746
0.079300	-0.749023
0.079400	-0.791868
0.079500	-0.871391
0.079600	-0.909042
0.079700	-0.911963
0.079800	-0.989538
0.079900	-1.073930
0.080000	-1.096001
0.080100	-1.055753
0.080200	-1.036927
0.080300	-1.035305
0.080400	-1.184937
0.080500	-1.332297
0.080600	-1.351448
0.080700	-1.336517
0.080800	-1.161567
0.080900	-1.204736
0.081000	-1.246283
0.081100	-1.247581
0.081200	-1.260565
0.081300	-1.254398
0.081400	-1.259915
0.081500	-1.256345
0.081600	-1.226483
0.081700	-1.207333
0.081800	-1.214149
0.081900	-1.213500
0.082000	-1.218044
0.082100	-1.200841
0.082200	-1.179744
0.082300	-1.209930
0.082400	-1.201491
0.082500	-1.262512
0.082600	-1.311524
0.082700	-1.432269
0.082800	-1.758799
0.082900	-2.044756
0.083000	-1.942513
0.083100	-1.663371
0.083200	-1.480307
0.083300	-1.565347
0.083400	-1.986656
0.083500	-2.288194
0.083600	-2.356356
0.083700	-2.153492
0.083800	-1.983085
0.083900	-1.965233
0.084000	-2.187573
0.084100	-2.410886
0.084200	-2.530657
0.084300	-2.469636
0.084400	-2.442695
0.084500	-2.449836
0.084600	-2.509559
0.084700	-2.541693
0.084800	-2.555975
0.084900	-2.538123
0.085000	-2.555001
0.085100	-2.623164
0.085200	-2.737093
0.085300	-2.728978
0.085400	-2.665684
0.085500	-2.632577
0.085600	-2.697169
0.085700	-2.778315
0.085800	-2.821809
0.085900	-2.622515
0.086000	-2.424194
0.086100	-2.436204
0.086200	-2.638095
0.086300	-2.917237
0.086400	-3.038956
0.086500	-2.816291
0.086600	-2.553054
0.086700	-2.469960
0.086800	-2.664386
0.086900	-2.926000
0.087000	-3.060378
0.087100	-2.990593
0.087200	-2.796167
0.087300	-2.704959
0.087400	-2.742286
0.087500	-2.794219
0.087600	-2.793895
0.087700	-2.750401
0.087800	-2.715670
0.087900	-2.659842
0.088000	-2.644262
0.088100	-2.552404
0.088200	-2.378428
0.088300	-2.258007
0.088400	-2.181730
0.088500	-2.167124
0.088600	-2.167124
0.088700	-2.091821
0.088800	-1.879544
0.088900	-1.783792
0.089000	-1.524125
0.089100	-1.499782
0.089200	-1.468297
0.089300	-1.386827
0.089400	-1.292049
0.089500	-1.183639
0.089600	-1.008689
0.089700	-0.954484
0.089800	-0.943772
0.089900	-0.946694
0.090000	-0.908718
0.090100	-0.884698
0.090200	-0.900928
0.090300	-0.877233
0.090400	-0.808746
0.090500	-0.794140
0.090600	-0.785376
0.090700	-0.811343
0.090800	-0.860355
0.090900	-0.881453
0.091000	-0.836011
0.091100	-0.599391
0.091200	-0.171268
0.091300	-0.151793
0.091400	-0.446188
0.091500	-0.902875
0.091600	-0.821405
0.091700	-0.604260
0.091800	-0.293635
0.091900	-0.063831
0.092000	-0.256308
0.092100	-0.450083
0.092200	-0.566608
0.092300	-0.388737
0.092400	-0.191392
0.092500	-0.065129
0.092600	0.007577
0.092700	-0.101483
0.092800	-0.128423
0.092900	-0.091096
0.093000	-0.047602
0.093100	0.004331
0.093200	0.001085
0.093300	-0.023258
0.093400	-0.020662
0.093500	0.000761
0.093600	-0.203726
0.093700	-0.113492
0.093800	-0.264423
0.093900	-0.282275
0.094000	-0.186847
0.094100	-0.172566
0.094200	-0.146275
0.094300	-0.508833
0.094400	-0.662360
0.094500	-0.665281
0.094600	-0.495525
0.094700	-0.186847
0.094800	-0.288442
0.094900	-0.515000
0.095000	-0.826923
0.095100	-0.805176
0.095200	-0.682484
0.095300	-0.469558
0.095400	-0.442293
0.095500	-0.593548
0.095600	-0.757138
0.095700	-0.761682
0.095800	-0.782455
0.095900	-0.711047
0.096000	-0.773691
0.096100	-0.841854
0.096200	-0.918780
0.096300	-0.933710
0.096400	-0.930465
0.096500	-0.950589
0.096600	-0.993433
0.096700	-0.986293
0.096800	-0.953510
0.096900	-0.915534
0.097000	-0.897033
0.097100	-1.025567
0.097200	-1.144040
0.097300	-1.161892
0.097400	-1.049586
0.097500	-0.977529
0.097600	-1.031085
0.097700	-1.043095
0.097800	-1.032383
0.097900	-1.024918
0.098000	-1.030111
0.098100	-1.039849
0.098200	-1.038550
0.098300	-1.066789
0.098400	-1.039524
0.098500	-1.086913
0.098600	-1.060297
0.098700	-1.077500
0.098800	-1.115801
0.098900	-1.125863
0.099000	-1.152479
0.099100	-1.131056
0.099200	-1.231352
0.099300	-1.269328
0.099400	-1.440708
0.099500	-1.817873
0.099600	-1.990551
0.099700	-1.897071
0.099800	-1.568593
0.099900	-1.491018
0.100000	-1.639352
0.100100	-2.061310
0.100200	-2.354733
0.100300	-2.336556
0.100400	-2.160957
0.100500	-1.991849
0.100600	-2.061959
0.100700	-2.286895
0.100800	-2.512805
0.100900	-2.536500
0.101000	-2.517674
0.101100	-2.498524
0.101200	-2.514104
0.101300	-2.573178
0.101400	-2.641990
0.101500	-2.722811
0.101600	-2.726381
0.101700	-2.731899
0.101800	-2.813370
0.101900	-2.883480
0.102000	-2.891919
0.102100	-2.861408
0.102200	-2.885103
0.102300	-2.980206
0.102400	-3.016884
0.102500	-3.019481
0.102600	-2.839012
0.102700	-2.680290
0.102800	-2.769551
0.102900	-2.963652
0.103000	-3.190537
0.103100	-3.209687
0.103200	-2.998383
0.103300	-2.803632
0.103400	-2.772472
0.103500	-2.953266
0.103600	-3.192809
0.103700	-3.278499
0.103800	-3.200599
0.103900	-3.042851
0.104000	-2.978259
0.104100	-2.953915
0.104200	-2.981829
0.104300	-3.001953
0.104400	-3.005524
0.104500	-2.994163
0.104600	-2.928273
0.104700	-2.869198
0.104800	-2.717293
0.104900	-2.520920
0.105000	-2.399201
0.105100	-2.346294
0.105200	-2.317731
0.105300	-2.302151
0.105400	-2.158685
0.105500	-1.949329
0.105600	-1.873052
0.105700	-1.574760
0.105800	-1.580603
0.105900	-1.491992
0.106000	-1.389748
0.106100	-1.246283
0.106200	-1.110608
0.106300	-0.927868
0.106400	-0.857434
0.106500	-0.821730
0.106600	-0.790570
0.106700	-0.759085
0.106800	-0.762006
0.106900	-0.728899
0.107000	-0.664956
0.107100	-0.577644
0.107200	-0.556222
0.107300	-0.564336
0.107400	-0.556871
0.107500	-0.576021
0.107600	-0.586083
0.107700	-0.445864
0.107800	-0.124203
0.107900	0.158183
0.108000	0.216932
0.108100	-0.264098
0.108200	-0.430284
0.108300	-0.388737
0.108400	0.012770
0.108500	0.239004
0.108600	0.287366
0.108700	0.138383
0.108800	-0.087525
0.108900	-0.083631
0.109000	0.062756
0.109100	0.322746
0.109200	0.372407
0.109300	0.360073
0.109400	0.298727
0.109500	0.305867
0.109600	0.339299
0.109700	0.385715
0.109800	0.369161
0.109900	0.375977
0.110000	0.376951
0.110100	0.392855
0.110200	0.406812
0.110300	0.201677
0.110400	0.257180
0.110500	0.149419
0.110600	0.164025
0.110700	0.289638
0.110800	0.192913
0.110900	0.231214
0.111000	-0.240403
0.111100	-0.228069
0.111200	-0.206647
0.111300	0.049123
0.111400	0.182202
0.111500	0.020560
0.111600	-0.255010
0.111700	-0.499744
0.111800	-0.470532
0.111900	-0.296881
0.112000	-0.159907
0.112100	-0.258580
0.112200	-0.451706
0.112300	-0.592899
0.112400	-0.552976
0.112500	-0.586408
0.112600	-0.545510
0.112700	-0.666579
0.112800	-0.765577
0.112900	-0.845424
0.113000	-0.867496
0.113100	-0.875935
0.113200	-0.923324
0.113300	-0.981749
0.113400	-0.973959
0.113500	-0.960975
0.113600	-0.944422
0.113700	-0.972985
0.113800	-1.142417
0.113900	-1.223238
0.114000	-1.263486
0.114100	-1.100221
0.114200	-1.101519
0.114300	-1.183639
0.114400	-1.200192
0.114500	-1.182989
0.114600	-1.175199
0.114700	-1.166760
0.114800	-1.185586
0.114900	-1.170331
0.115000	-1.208631
0.115100	-1.217395
0.115200	-1.207009
0.115300	-1.281338
0.115400	-1.273548
0.115500	-1.342684
0.115600	-1.336192
0.115700	-1.403705
0.115800	-1.473166
0.115900	-1.516011
0.116000	-1.632211
0.116100	-1.809758
0.116200	-2.238208
0.116300	-2.344671
0.116400	-2.186599
0.116500	-1.882140
0.116600	-1.814952
0.116700	-2.120059
0.116800	-2.544290
0.116900	-2.760138
0.117000	-2.648806
0.117100	-2.430686
0.117200	-2.302800
0.117300	-2.449836
0.117400	-2.721188
0.117500	-2.916263
0.117600	-2.904578
0.117700	-2.815317
0.117800	-2.774420
0.117900	-2.785131
0.118000	-2.873742
0.118100	-2.920483
0.118200	-2.916912
0.118300	-2.921781
0.118400	-2.884778
0.118500	-2.964301
0.118600	-3.007796
0.118700	-2.987022
0.118800	-2.986049
0.118900	-2.970144
0.119000	-3.073686
0.119100	-3.089591
0.119200	-3.049992
0.119300	-2.852644
0.119400	-2.720863
0.119500	-2.819537
0.119600	-3.058755
0.119700	-3.297650
0.119800	-3.281096
0.119900	-3.010717
0.120000	-2.792921
0.120100	-2.788701
0.120200	-3.038956
0.120300	-3.334652
0.120400	-3.390805
0.120500	-3.242795
0.120600	-3.023051
0.120700	-2.983452
0.120800	-3.050316
0.120900	-3.152236
0.121000	-3.190212
0.121100	-3.146069
0.121200	-3.074660
0.121300	-2.998383
0.121400	-2.936063
0.121500	-2.828625
0.121600	-2.671527
0.121700	-2.559545
0.121800	-2.540395
0.121900	-2.514428
0.122000	-2.481645
0.122100	-2.323898
0.122200	-2.122656
0.122300	-2.072670
0.122400	-1.783142
0.122500	-1.782818
0.122600	-1.698751
0.122700	-1.591963
0.122800	-1.451419
0.122900	-1.266407
0.123000	-1.139171
0.123100	-1.045691
0.123200	-1.041472
0.123300	-1.030760
0.123400	-0.977204
0.123500	-0.960651
0.123600	-0.900603
0.123700	-0.793491
0.123800	-0.792842
0.123900	-0.716240
0.124000	-0.801281
0.124100	-0.745128
0.124200	-0.766226
0.124300	-0.665606
0.124400	-0.577319
0.124500	-0.144003
0.124600	0.010174
0.124700	0.039711
0.124800	-0.468909
0.124900	-0.618541
0.125000	-0.404642
0.125100	-0.067077
0.125200	0.300350
0.125300	0.249715
0.125400	0.107223
0.125500	-0.129072
0.125600	-0.078437
0.125700	0.117935
0.125800	0.393504
0.125900	0.549304
0.126000	0.420445
0.126100	0.457122
0.126200	0.390583
0.126300	0.418822
0.126400	0.455824
0.126500	0.522363
0.126600	0.568129
0.126700	0.587929
0.126800	0.618764
0.126900	0.479843
0.127000	0.359423
0.127100	0.325018
0.127200	0.270163
0.127300	0.284445
0.127400	0.352283
0.127500	0.336054
0.127600	0.254584
0.127700	-0.077463
0.127800	-0.116089
0.127900	-0.068700
0.128000	0.155586
0.128100	0.204598
0.128200	0.038088
0.128300	-0.289415
0.128400	-0.429310
0.128500	-0.415678
0.128600	-0.234886
0.128700	-0.148547
0.128800	-0.207621
0.128900	-0.384193
0.129000	-0.480594
0.129100	-0.474427
0.129200	-0.495525
0.129300	-0.487735
0.129400	-0.573424
0.129500	-0.633797
0.129600	-0.688326
0.129700	-0.724680
0.129800	-0.776613
0.129900	-0.821730
0.130000	-0.828221
0.130100	-0.798035
0.130200	-0.735715
0.130300	-0.741558
0.130400	-0.809395
0.130500	-1.013882
0.130600	-1.063543
0.130700	-1.037577
0.130800	-0.867496
0.130900	-0.885023
0.131000	-0.935658
0.131100	-0.928842
0.131200	-0.922025
0.131300	-0.902875
0.131400	-0.906770
0.131500	-0.909691
0.131600	-0.884374
0.131700	-0.849968
0.131800	-0.852889
0.131900	-0.860030
0.132000	-0.862951
0.132100	-0.843152
0.132200	-0.873338
0.132300	-0.890541
0.132400	-0.883725
0.132500	-0.959352
0.132600	-0.969090
0.132700	-1.071009
0.132800	-1.332946
0.132900	-1.697777
0.133000	-1.705892
0.133100	-1.525099
0.133200	-1.277118
0.133300	-1.284259
0.133400	-1.660775
0.133500	-2.061310
0.133600	-2.205425
0.133700	-2.082083
0.133800	-1.872403
0.133900	-1.846436
0.134000	-2.035668
0.134100	-2.264499
0.134200	-2.398227
0.134300	-2.479698
0.134400	-2.416404
0.134500	-2.408289
0.134600	-2.433607
0.134700	-2.496576
0.134800	-2.551106
0.134900	-2.555001
0.135000	-2.593627
0.135100	-2.698143
0.135200	-2.757541
0.135300	-2.797141
0.135400	-2.811098
0.135500	-2.795518
0.135600	-2.811422
0.135700	-2.919184
0.135800	-2.972416
0.135900	-2.895165
0.136000	-2.688080
0.136100	-2.650753
0.136200	-2.771174
0.136300	-3.046746
0.136400	-3.233057
0.136500	-3.117181
0.136600	-2.825055
0.136700	-2.664061
0.136800	-2.827327
0.136900	-3.102250
0.137000	-3.293105
0.137100	-3.270384
0.137200	-3.155806
0.137300	-3.052264
0.137400	-3.023376
0.137500	-3.073362
0.137600	-3.124321
0.137700	-3.097706
0.137800	-3.061677
0.137900	-3.025323
0.138000	-2.983776
0.138100	-2.927623
0.138200	-2.802334
0.138300	-2.655297
0.138400	-2.559221
0.138500	-2.560844
0.138600	-2.542018
0.138700	-2.476127
0.138800	-2.266771
0.138900	-2.091172
0.139000	-1.814627
0.139100	-1.743543
0.139200	-1.761395
0.139300	-1.717252
0.139400	-1.586121
0.139500	-1.448498
0.139600	-1.270627
0.139700	-1.173901
0.139800	-1.121643
0.139900	-1.091782
0.140000	-1.035954
0.140100	-1.004145
0.140200	-0.969414
0.140300	-0.957080
0.140400	-0.842827
0.140500	-0.868794
0.140600	-0.818484
0.140700	-0.803553
0.140800	-0.838932
0.140900	-0.887295
0.141000	-0.856135
0.141100	-0.605883
0.141200	-0.349138
0.141300	-0.100184
0.141400	-0.360823
0.141500	-0.769796
0.141600	-0.816861
0.141700	-0.571801
0.141800	-0.245272
0.141900	-0.176136
0.142000	-0.275783
0.142100	-0.508508
0.142200	-0.618217
0.142300	-0.560117
0.142400	-0.332260
0.142500	-0.128098
0.142600	-0.174838
0.142700	-0.238131
0.142800	-0.301749
0.142900	-0.316031
0.143000	-0.288766
0.143100	-0.284222
0.143200	-0.274809
0.143300	-0.345243
0.143400	-0.316356
0.143500	-0.367315
0.143600	-0.462742
0.143700	-0.536422
0.143800	-0.561739
0.143900	-0.630551
0.144000	-0.613673
0.144100	-0.561090
0.144200	-0.511429
0.144300	-0.725004
0.144400	-1.050235
0.144500	-1.056727
0.144600	-0.927219
0.144700	-0.615945
0.144800	-0.597119
0.144900	-0.798684
0.145000	-1.147610
0.145100	-1.209281
0.145200	-1.012259
0.145300	-0.772718
0.145400	-0.688326
0.145500	-0.817185
0.145600	-0.995706
0.145700	-1.021348
0.145800	-0.971362
0.145900	-0.853539
0.146000	-0.835687
0.146100	-0.890541
0.146200	-0.953185
0.146300	-0.944097
0.146400	-0.849319
0.146500	-0.832765
0.146600	-0.868794
0.146700	-0.860355
0.146800	-0.827247
0.146900	-0.787324
0.147000	-0.707801
0.147100	-0.763305
0.147200	-0.898655
0.147300	-0.948966
0.147400	-0.916832
0.147500	-0.861004
0.147600	-0.804527
0.147700	-0.824002
0.147800	-0.809071
0.147900	-0.814589
0.148000	-0.805500
0.148100	-0.820107
0.148200	-0.806799
0.148300	-0.833415
0.148400	-0.807773
0.148500	-0.815887
0.148600	-0.840231
0.148700	-0.831792
0.148800	-0.857758
0.148900	-0.847696
0.149000	-0.906445
0.149100	-0.909367
0.149200	-0.959028
0.149300	-0.982073
0.149400	-1.098273
0.149500	-1.408899
0.149600	-1.689013
0.149700	-1.688040
0.149800	-1.405653
0.149900	-1.180393
0.150000	-1.253099
0.150100	-1.607543
0.150200	-1.952575
0.150300	-2.035992
0.150400	-1.884088
0.150500	-1.644221
0.150600	-1.654608
0.150700	-1.834426
0.150800	-2.125902
0.150900	-2.231391
0.151000	-2.270991
0.151100	-2.199907
0.151200	-2.153816
0.151300	-2.190819
0.151400	-2.283974
0.151500	-2.343048
0.151600	-2.380375
0.151700	-2.373234
0.151800	-2.440423
0.151900	-2.524490
0.152000	-2.562467
0.152100	-2.553054
0.152200	-2.570906
0.152300	-2.590381
0.152400	-2.663087
0.152500	-2.703011
0.152600	-2.609856
0.152700	-2.398876
0.152800	-2.389464
0.152900	-2.584214
0.153000	-2.846477
0.153100	-2.988970
0.153200	-2.820186
0.153300	-2.546237
0.153400	-2.431335
0.153500	-2.570581
0.153600	-2.837389
0.153700	-3.052588
0.153800	-3.061677
0.153900	-2.926974
0.154000	-2.762086
0.154100	-2.716644
0.154200	-2.752023
0.154300	-2.798114
0.154400	-2.798439
0.154500	-2.787403
0.154600	-2.719890
0.154700	-2.663412
0.154800	-2.566686
0.154900	-2.404070
0.155000	-2.284623
0.155100	-2.241454
0.155200	-2.236260
0.155300	-2.231067
0.155400	-2.204451
0.155500	-2.015544
0.155600	-1.934723
0.155700	-1.752307
0.155800	-1.669863
0.155900	-1.658178
0.156000	-1.608842
0.156100	-1.535161
0.156200	-1.423830
0.156300	-1.254398
0.156400	-1.207982
0.156500	-1.165787
0.156600	-1.182665
0.156700	-1.158970
0.156800	-1.143390
0.156900	-1.162541
0.157000	-1.070359
0.157100	-1.048612
0.157200	-0.911314
0.157300	-0.984994
0.157400	-0.900928
0.157500	-0.974283
0.157600	-0.981424
0.157700	-0.836660
0.157800	-0.661711
0.157900	-0.188470
0.158000	-0.163153
0.158100	-0.349463
0.158200	-0.712670
0.158300	-0.701310
0.158400	-0.332585
0.158500	-0.150819
0.158600	0.083204
0.158700	-0.092394
0.158800	-0.204050
0.158900	-0.354007
0.159000	-0.204050
0.159100	0.001085
0.159200	0.151367
0.159300	0.155262
0.159400	0.101056
0.159500	0.098784
0.159600	0.042632
0.159700	0.089047
0.159800	0.100732
0.159900	0.143252
0.160000	0.131243
0.160100	0.133839
0.160200	0.205572
0.160300	-0.026829
0.160400	-0.019688
0.160500	-0.178733
0.160600	-0.157311
0.160700	-0.131669
0.160800	-0.045330
0.160900	-0.119010
0.161000	-0.393281
0.161100	-0.637367
0.161200	-0.576346
0.161300	-0.420546
0.161400	-0.131344
0.161500	-0.225473
0.161600	-0.452031
0.161700	-0.728899
0.161800	-0.747400
0.161900	-0.618541
0.162000	-0.419897
0.162100	-0.395878
0.162200	-0.566608
0.162300	-0.710723
0.162400	-0.693195
0.162500	-0.728250
0.162600	-0.683782
0.162700	-0.751944
0.162800	-0.807773
0.162900	-0.862951
0.163000	-0.902550
0.163100	-0.814264
0.163200	-0.813615
0.163300	-0.903524
0.163400	-0.920402
0.163500	-0.894111
0.163600	-0.844450
0.163700	-0.801281
0.163800	-0.925920
0.163900	-1.054779
0.164000	-1.078799
0.164100	-1.072307
0.164200	-1.034980
0.164300	-0.974932
0.164400	-0.985319
0.164500	-0.965519
0.164600	-0.954159
0.164700	-0.947992
0.164800	-0.964870
0.164900	-0.967791
0.165000	-0.971037
0.165100	-0.999925
0.165200	-1.022970
0.165300	-1.084641
0.165400	-1.123266
0.165500	-1.165787
0.165600	-1.193051
0.165700	-1.257643
0.165800	-1.294321
0.165900	-1.390073
0.166000	-1.482579
0.166100	-1.644221
0.166200	-2.024632
0.166300	-2.297282
0.166400	-2.227496
0.166500	-1.949978
0.166600	-1.762045
0.166700	-1.912651
0.166800	-2.369664
0.166900	-2.623164
0.167000	-2.649455
0.167100	-2.482294
0.167200	-2.283649
0.167300	-2.301826
0.167400	-2.506638
0.167500	-2.714047
0.167600	-2.767928
0.167700	-2.763384
0.167800	-2.707880
0.167900	-2.746830
0.168000	-2.810773
0.168100	-2.851346
0.168200	-2.884454
0.168300	-2.859136
0.168400	-2.886726
0.168500	-2.966573
0.168600	-3.067844
0.168700	-3.046097
0.168800	-3.024349
0.168900	-3.049667
0.169000	-3.118154
0.169100	-3.204818
0.169200	-3.192484
0.169300	-3.059080
0.169400	-2.813370
0.169500	-2.884454
0.169600	-3.081476
0.169700	-3.303167
0.169800	-3.378471
0.169900	-3.145095
0.170000	-2.875690
0.170100	-2.813694
0.170200	-2.981180
0.170300	-3.240847
0.170400	-3.372953
0.170500	-3.301220
0.170600	-3.113610
0.170700	-3.007471
0.170800	-3.026622
0.170900	-3.089266
0.171000	-3.080178
0.171100	-3.025323
0.171200	-2.987347
0.171300	-2.944826
0.171400	-2.902630
0.171500	-2.837389
0.171600	-2.668930
0.171700	-2.541369
0.171800	-2.480022
0.171900	-2.467364
0.172000	-2.479698
0.172100	-2.379401
0.172200	-2.152518
0.172300	-2.046704
0.172400	-1.766913
0.172500	-1.755877
0.172600	-1.713033
0.172700	-1.647791
0.172800	-1.505300
0.172900	-1.400460
0.173000	-1.200517
0.173100	-1.174226
0.173200	-1.105090
0.173300	-1.132030
0.173400	-1.117099
0.173500	-1.092106
0.173600	-1.073281
0.173700	-1.039524
0.173800	-0.966493
0.173900	-0.948317
0.174000	-0.957080
0.174100	-0.985968
0.174200	-1.035629
0.174300	-1.030436
0.174400	-0.911639
0.174500	-0.680212
0.174600	-0.279353
0.174700	-0.215735
0.174800	-0.610427
0.174900	-0.987916
0.175000	-0.769796
0.175100	-0.596145
0.175200	-0.246895
0.175300	-0.145301
0.175400	-0.249167
0.175500	-0.530255
0.175600	-0.624708
0.175700	-0.424441
0.175800	-0.242026
0.175900	-0.116738
0.176000	-0.106676
0.176100	-0.219306
0.176200	-0.218657
0.176300	-0.256633
0.176400	-0.198857
0.176500	-0.187821
0.176600	-0.189444
0.176700	-0.187497
0.176800	-0.196910
0.176900	-0.210867
0.177000	-0.378026
0.177100	-0.336155
0.177200	-0.434503
0.177300	-0.409511
0.177400	-0.336804
0.177500	-0.308890
0.177600	-0.319926
0.177700	-0.684431
0.177800	-0.737987
0.177900	-0.697739
0.178000	-0.503964
0.178100	-0.206972
0.178200	-0.306618
0.178300	-0.520193
0.178400	-0.784078
0.178500	-0.748374
0.178600	-0.549405
0.178700	-0.323172
0.178800	-0.292986
0.178900	-0.417301
0.179000	-0.552002
0.179100	-0.551353
0.179200	-0.561090
0.179300	-0.464365
0.179400	-0.508508
0.179500	-0.539668
0.179600	-0.577319
0.179700	-0.583486
0.179800	-0.600365
0.179900	-0.618541
0.180000	-0.662360
0.180100	-0.655219
0.180200	-0.639315
0.180300	-0.614646
0.180400	-0.641911
0.180500	-0.822703
0.180600	-0.917481
0.180700	-0.900603
0.180800	-0.890866
0.180900	-0.882426
0.181000	-0.897357
0.181100	-0.902226
0.181200	-0.888918
0.181300	-0.878207
0.181400	-0.887620
0.181500	-0.893138
0.181600	-0.902226
0.181700	-0.919104
0.181800	-0.917806
0.181900	-0.922675
0.182000	-0.982398
0.182100	-0.997653
0.182200	-1.021348
0.182300	-1.064517
0.182400	-1.085939
0.182500	-1.159944
0.182600	-1.172927
0.182700	-1.287180
0.182800	-1.465051
0.182900	-1.863964
0.183000	-2.062933
0.183100	-1.929854
0.183200	-1.651362
0.183300	-1.531591
0.183400	-1.796126
0.183500	-2.197959
0.183600	-2.473855
0.183700	-2.419650
0.183800	-2.242103
0.183900	-2.140833
0.184000	-2.243401
0.184100	-2.484242
0.184200	-2.698792
0.184300	-2.729627
0.184400	-2.642314
0.184500	-2.626085
0.184600	-2.638419
0.184700	-2.670878
0.184800	-2.691651
0.184900	-2.696520
0.185000	-2.719565
0.185100	-2.739689
0.185200	-2.794869
0.185300	-2.816291
0.185400	-2.768577
0.185500	-2.748453
0.185600	-2.765007
0.185700	-2.818239
0.185800	-2.814993
0.185900	-2.770849
0.186000	-2.548185
0.186100	-2.408939
0.186200	-2.519946
0.186300	-2.793895
0.186400	-3.030192
0.186500	-3.015910
0.186600	-2.746181
0.186700	-2.498848
0.186800	-2.475154
0.186900	-2.694248
0.187000	-2.948072
0.187100	-3.021753
0.187200	-2.875365
0.187300	-2.704959
0.187400	-2.627708
0.187500	-2.644586
0.187600	-2.688080
0.187700	-2.733198
0.187800	-2.691975
0.187900	-2.646858
0.188000	-2.579669
0.188100	-2.520920
0.188200	-2.398552
0.188300	-2.182704
0.188400	-2.094417
0.188500	-2.070398
0.188600	-2.026255
0.188700	-2.030150
0.188800	-1.868183
0.188900	-1.644221
0.189000	-1.512116
0.189100	-1.303409
0.189200	-1.341710
0.189300	-1.267056
0.189400	-1.151505
0.189500	-1.045042
0.189600	-0.912613
0.189700	-0.764603
0.189800	-0.717863
0.189900	-0.665930
0.190000	-0.673396
0.190100	-0.637042
0.190200	-0.654570
0.190300	-0.622112
0.190400	-0.525386
0.190500	-0.510131
0.190600	-0.433530
0.190700	-0.478646
0.190800	-0.446188
0.190900	-0.512078
0.191000	-0.487410
0.191100	-0.317329
0.191200	0.030298
0.191300	0.311061
0.191400	0.215634
0.191500	-0.189120
0.191600	-0.396527
0.191700	-0.200805
0.191800	0.148770
0.191900	0.404865
0.192000	0.408111
0.192100	0.229591
0.192200	0.074441
0.192300	0.088073
0.192400	0.294182
0.192500	0.465237
0.192600	0.542163
0.192700	0.443165
0.192800	0.424664
0.192900	0.412655
0.193000	0.441218
0.193100	0.451605
0.193200	0.421743
0.193300	0.408111
0.193400	0.399672
0.193500	0.382793
0.193600	0.409409
0.193700	0.164674
0.193800	0.163376
0.193900	0.074765
0.194000	0.063405
0.194100	0.159157
0.194200	0.141305
0.194300	0.102030
0.194400	-0.349788
0.194500	-0.424117
0.194600	-0.307916
0.194700	0.001085
0.194800	0.124426
0.194900	-0.041759
0.195000	-0.393281
0.195100	-0.599716
0.195200	-0.504938
0.195300	-0.244298
0.195400	-0.095315
0.195500	-0.229692
0.195600	-0.456250
0.195700	-0.578942
0.195800	-0.504613
0.195900	-0.515324
0.196000	-0.486436
0.196100	-0.589329
0.196200	-0.674369
0.196300	-0.705205
0.196400	-0.649701
0.196500	-0.653921
0.196600	-0.701959
0.196700	-0.782131
0.196800	-0.797386
0.196900	-0.767849
0.197000	-0.747400
0.197100	-0.784078
0.197200	-0.978503
0.197300	-1.084641
0.197400	-1.068737
0.197500	-1.077825
0.197600	-0.982398
0.197700	-1.060297
0.197800	-1.051858
0.197900	-1.040173
0.198000	-1.048937
0.198100	-1.039200
0.198200	-1.010636
0.198300	-1.008689
0.198400	-1.005768
0.198500	-1.012259
0.198600	-0.986942
0.198700	-0.994407
0.198800	-0.998302
0.198900	-0.997653
0.199000	-1.029137
0.199100	-1.038226
0.199200	-1.086913
0.199300	-1.095352
0.199400	-1.151180
0.199500	-1.417662
0.199600	-1.732832
0.199700	-1.864613
0.199800	-1.600727
0.199900	-1.319639
0.200000	-1.268030
0.200100	-1.573137
0.200200	-1.942837
0.200300	-2.126551
0.200400	-1.996069
0.200500	-1.760746
0.200600	-1.645519
0.200700	-1.791906
0.200800	-2.034694
0.200900	-2.227172
0.201000	-2.234962
0.201100	-2.150246
0.201200	-2.091172
0.201300	-2.134017
0.201400	-2.238532
0.201500	-2.293387
0.201600	-2.311239
0.201700	-2.288843
0.201800	-2.305396
0.201900	-2.344022
0.202000	-2.435230
0.202100	-2.396604
0.202200	-2.369015
0.202300	-2.389464
0.202400	-2.411211
0.202500	-2.468986
0.202600	-2.358628
0.202700	-2.194389
0.202800	-2.057415
0.202900	-2.209969
0.203000	-2.504691
0.203100	-2.726381
0.203200	-2.631927
0.203300	-2.342399
0.203400	-2.112269
0.203500	-2.178809
0.203600	-2.424519
0.203700	-2.737417
0.203800	-2.790324
0.203900	-2.604013
0.204000	-2.407640
0.204100	-2.303124
0.204200	-2.374857
0.204300	-2.457626
0.204400	-2.478399
0.204500	-2.435879
0.204600	-2.344022
0.204700	-2.248594
0.204800	-2.137912
0.204900	-2.002885
0.205000	-1.842541
0.205100	-1.734130
0.205200	-1.679601
0.205300	-1.611438
0.205400	-1.588717
0.205500	-1.403381
0.205600	-1.239142
0.205700	-1.000250
0.205800	-0.879830
0.205900	-0.887620
0.206000	-0.878856
0.206100	-0.777262
0.206200	-0.682484
0.206300	-0.543563
0.206400	-0.461119
0.206500	-0.427038
0.206600	-0.426713
0.206700	-0.496823
0.206800	-0.521816
0.206900	-0.582513
0.207000	-0.520842
0.207100	-0.545186
0.207200	-0.485138
0.207300	-0.607505
0.207400	-0.572775
0.207500	-0.731820
0.207600	-0.738312
0.207700	-0.736040
0.207800	-0.514675
0.207900	-0.207945
0.208000	-0.061884
0.208100	-0.244948
0.208200	-0.744154
0.208300	-0.812641
0.208400	-0.693195
0.208500	-0.355305
0.208600	-0.102456
0.208700	-0.255010
0.208800	-0.412756
0.208900	-0.715267
0.209000	-0.656193
0.209100	-0.532852
0.209200	-0.279353
0.209300	-0.215086
0.209400	-0.267344
0.209500	-0.346542
0.209600	-0.418274
0.209700	-0.435477
0.209800	-0.402694
0.209900	-0.357253
0.210000	-0.342322
0.210100	-0.341024
0.210200	-0.366666
0.210300	-0.457549
0.210400	-0.606856
0.210500	-0.610102
0.210600	-0.711696
0.210700	-0.638990
0.210800	-0.605883
0.210900	-0.576021
0.211000	-0.716565
0.211100	-1.016803
0.211200	-1.004469
0.211300	-0.903849
0.211400	-0.602637
0.211500	-0.561415
0.211600	-0.748699
0.211700	-1.089185
0.211800	-1.212202
0.211900	-1.125538
0.212000	-0.881777
0.212100	-0.759734
0.212200	-0.866197
0.212300	-1.025892
0.212400	-1.096975
0.212500	-1.130407
0.212600	-1.111257
0.212700	-1.097949
0.212800	-1.107686
0.212900	-1.149882
0.213000	-1.186560
0.213100	-1.157023
0.213200	-1.182016
0.213300	-1.239142
0.213400	-1.261863
0.213500	-1.193051
0.213600	-1.127486
0.213700	-1.085290
0.213800	-1.136899
0.213900	-1.276469
0.214000	-1.295619
0.214100	-1.260889
0.214200	-1.246932
0.214300	-1.146312
0.214400	-1.179094
0.214500	-1.160269
0.214600	-1.149557
0.214700	-1.133328
0.214800	-1.142092
0.214900	-1.110283
0.215000	-1.112880
0.215100	-1.091457
0.215200	-1.083667
0.215300	-1.089510
0.215400	-1.069061
0.215500	-1.110608
0.215600	-1.107686
0.215700	-1.127161
0.215800	-1.122617
0.215900	-1.126512
0.216000	-1.221290
0.216100	-1.225510
0.216200	-1.539381
0.216300	-1.823715
0.216400	-1.834102
0.216500	-1.520880
0.216600	-1.262837
0.216700	-1.297567
0.216800	-1.663047
0.216900	-1.971076
0.217000	-2.053845
0.217100	-1.886035
0.217200	-1.644546
0.217300	-1.626694
0.217400	-1.779572
0.217500	-2.047028
0.217600	-2.121358
0.217700	-2.109997
0.217800	-2.045081
0.217900	-2.050923
0.218000	-2.102207
0.218100	-2.131095
0.218200	-2.109024
0.218300	-2.130446
0.218400	-2.117138
0.218500	-2.207048
0.218600	-2.274236
0.218700	-2.282026
0.218800	-2.223277
0.218900	-2.192442
0.219000	-2.250866
0.219100	-2.338179
0.219200	-2.374533
0.219300	-2.261253
0.219400	-2.032747
0.219500	-2.002885
0.219600	-2.179458
0.219700	-2.489435
0.219800	-2.662114
0.219900	-2.519622
0.220000	-2.276184
0.220100	-2.152518
0.220200	-2.276509
0.220300	-2.558896
0.220400	-2.798114
0.220500	-2.805255
0.220600	-2.649780
0.220700	-2.515402
0.220800	-2.518323
0.220900	-2.591354
0.221000	-2.651402
0.221100	-2.642314
0.221200	-2.623164
0.221300	-2.569932
0.221400	-2.502094
0.221500	-2.393034
0.221600	-2.216461
0.221700	-2.071047
0.221800	-1.997043
0.221900	-1.987630
0.222000	-2.008078
0.222100	-1.973997
0.222200	-1.769835
0.222300	-1.643247
0.222400	-1.531266
0.222500	-1.361834
0.222600	-1.357290
0.222700	-1.286531
0.222800	-1.174226
0.222900	-1.071982
0.223000	-0.920402
0.223100	-0.888269
0.223200	-0.836985
0.223300	-0.854188
0.223400	-0.814589
0.223500	-0.798035
0.223600	-0.788622
0.223700	-0.760384
0.223800	-0.687353
0.223900	-0.691897
0.224000	-0.626007
0.224100	-0.678589
0.224200	-0.642885
0.224300	-0.720460
0.224400	-0.650999
0.224500	-0.452355
0.224600	-0.128423
0.224700	0.054641
0.224800	-0.208270
0.224900	-0.624059
0.225000	-0.589653
0.225100	-0.420222
0.225200	-0.043382
0.225300	0.060808
0.225400	-0.007678
0.225500	-0.252088
0.225600	-0.363095
0.225700	-0.204699
0.225800	-0.001511
0.225900	0.159481
0.226000	0.167920
0.226100	0.129620
0.226200	0.053343
0.226300	0.078336
0.226400	0.126374
0.226500	0.169868
0.226600	0.194211
0.226700	0.173114
0.226800	0.167920
0.226900	0.227643
0.227000	0.147472
0.227100	0.066326
0.227200	0.012446
0.227300	0.016665
0.227400	0.049448
0.227500	0.154288
0.227600	0.082231
0.227700	-0.056041
0.227800	-0.338427
0.227900	-0.309539
0.228000	-0.170618
0.228100	0.110145
0.228200	0.075739
0.228300	-0.171592
0.228400	-0.486761
0.228500	-0.565310
0.228600	-0.440670
0.228700	-0.231315
0.228800	-0.189769
0.228900	-0.355955
0.229000	-0.565959
0.229100	-0.614322
0.229200	-0.663983
0.229300	-0.624059
0.229400	-0.649377
0.229500	-0.730847
0.229600	-0.832116
0.229700	-0.922025
0.229800	-0.919753
0.229900	-0.940527
0.230000	-1.011935
0.230100	-1.043095
0.230200	-1.057701
0.230300	-1.028813
0.230400	-1.031410
0.230500	-1.151505
0.230600	-1.322235
0.230700	-1.375791
0.230800	-1.382283
0.230900	-1.234598
0.231000	-1.291400
0.231100	-1.338464
0.231200	-1.365080
0.231300	-1.369624
0.231400	-1.372870
0.231500	-1.396240
0.231600	-1.382608
0.231700	-1.426426
0.231800	-1.421233
0.231900	-1.442655
0.232000	-1.435190
0.232100	-1.463104
0.232200	-1.474140
0.232300	-1.480956
0.232400	-1.490044
0.232500	-1.479982
0.232600	-1.520555
0.232700	-1.571515
0.232800	-1.708488
0.232900	-2.033720
0.233000	-2.336556
0.233100	-2.267096
0.233200	-1.930503
0.233300	-1.736078
0.233400	-1.807162
0.233500	-2.272289
0.233600	-2.555975
0.233700	-2.644586
0.233800	-2.454056
0.233900	-2.288843
0.234000	-2.271315
0.234100	-2.506638
0.234200	-2.778964
0.234300	-2.878611
0.234400	-2.853943
0.234500	-2.806229
0.234600	-2.843232
0.234700	-2.891595
0.234800	-2.960731
0.234900	-2.987996
0.235000	-3.012989
0.235100	-3.023376
0.235200	-3.060703
0.235300	-3.125620
0.235400	-3.071090
0.235500	-3.054211
0.235600	-3.012989
0.235700	-3.080827
0.235800	-3.119777
0.235900	-3.116207
0.236000	-2.962029
0.236100	-2.738391
0.236200	-2.814993
0.236300	-2.968521
0.236400	-3.207090
0.236500	-3.288237
0.236600	-3.092837
0.236700	-2.837064
0.236800	-2.739040
0.236900	-2.890945
0.237000	-3.149964
0.237100	-3.300571
0.237200	-3.262919
0.237300	-3.098355
0.237400	-2.967223
0.237500	-2.936063
0.237600	-2.965600
0.237700	-3.000979
0.237800	-3.003901
0.237900	-2.962029
0.238000	-2.891919
0.238100	-2.819861
0.238200	-2.709503
0.238300	-2.589732
0.238400	-2.454380
0.238500	-2.387841
0.238600	-2.373884
0.238700	-2.354733
0.238800	-2.257358
0.238900	-2.038914
0.239000	-1.851954
0.239100	-1.626369
0.239200	-1.626044
0.239300	-1.601052
0.239400	-1.496536
0.239500	-1.381958
0.239600	-1.255047
0.239700	-1.068087
0.239800	-1.005768
0.239900	-0.913262
0.240000	-0.926570
0.240100	-0.894436
0.240200	-0.866846
0.240300	-0.870092
0.240400	-0.745128
0.240500	-0.755839
0.240600	-0.649052
0.240700	-0.722407
0.240800	-0.726302
0.240900	-0.815563
0.241000	-0.813615
0.241100	-0.768498
0.241200	-0.481568
0.241300	-0.194313
0.241400	-0.079411
0.241500	-0.507859
0.241600	-0.789596
0.241700	-0.734742
0.241800	-0.422818
0.241900	-0.138485
0.242000	0.014718
0.242100	-0.109597
0.242200	-0.313759
0.242300	-0.358227
0.242400	-0.250466
0.242500	0.010174
0.242600	0.091968
0.242700	0.140331
0.242800	0.082231
0.242900	0.141305
0.243000	0.135787
0.243100	0.164025
0.243200	0.190641
0.243300	0.209142
0.243400	0.213037
0.243500	0.196483
0.243600	0.269514
0.243700	0.084827
0.243800	0.037763
0.243900	-0.100509
0.244000	-0.052146
0.244100	0.008226
0.244200	0.037763
0.244300	-0.010924
0.244400	-0.306618
0.244500	-0.484814
0.244600	-0.415353
0.244700	-0.245597
0.244800	-0.004757
0.244900	-0.150494
0.245000	-0.400098
0.245100	-0.692221
0.245200	-0.648078
0.245300	-0.475401
0.245400	-0.309539
0.245500	-0.389711
0.245600	-0.561090
0.245700	-0.678914
0.245800	-0.655544
0.245900	-0.702283
0.246000	-0.686054
0.246100	-0.766875
0.246200	-0.892164
0.246300	-0.958379
0.246400	-0.933710
0.246500	-0.919429
0.246600	-0.998302
0.246700	-1.070359
0.246800	-1.111257
0.246900	-1.042770
0.247000	-1.009338
0.247100	-0.981099
0.247200	-1.157997
0.247300	-1.269977
0.247400	-1.263161
0.247500	-1.255047
0.247600	-1.098598
0.247700	-1.178445
0.247800	-1.183314
0.247900	-1.143066
0.248000	-1.158646
0.248100	-1.177796
0.248200	-1.162541
0.248300	-1.174875
0.248400	-1.179094
0.248500	-1.185911
0.248600	-1.183963
0.248700	-1.223887
0.248800	-1.204736
0.248900	-1.220641
0.249000	-1.200517
0.249100	-1.235896
0.249200	-1.298216
0.249300	-1.324507
0.249400	-1.383257
0.249500	-1.535486
0.249600	-1.895773
0.249700	-2.110971
0.249800	-1.954522
0.249900	-1.675706
0.250000	-1.517309
0.250100	-1.715629
0.250200	-2.138885
0.250300	-2.377129
0.250400	-2.342399
0.250500	-2.096040
0.250600	-1.967830
0.250700	-2.049950
0.250800	-2.362523
0.250900	-2.581292
0.251000	-2.606935
0.251100	-2.509884
0.251200	-2.473531
0.251300	-2.518323
0.251400	-2.568309
0.251500	-2.615049
0.251600	-2.588758
0.251700	-2.556949
0.251800	-2.561817
0.251900	-2.641340
0.252000	-2.720863
0.252100	-2.733522
0.252200	-2.669579
0.252300	-2.643288
0.252400	-2.688405
0.252500	-2.744233
0.252600	-2.760138
0.252700	-2.542018
0.252800	-2.389788
0.252900	-2.457951
0.253000	-2.682238
0.253100	-2.962678
0.253200	-2.949371
0.253300	-2.742935
0.253400	-2.502419
0.253500	-2.482944
0.253600	-2.691651
0.253700	-3.009419
0.253800	-3.114908
0.253900	-2.985399
0.254000	-2.787728
0.254100	-2.726057
0.254200	-2.795842
0.254300	-2.881532
0.254400	-2.926000
0.254500	-2.889322
0.254600	-2.834792
0.254700	-2.805904
0.254800	-2.756892
0.254900	-2.717942
0.255000	-2.563765
0.255100	-2.414132
0.255200	-2.350514
0.255300	-2.318055
0.255400	-2.306370
0.255500	-2.163878
0.255600	-1.938293
0.255700	-1.688040
0.255800	-1.521204
0.255900	-1.532889
0.256000	-1.466350
0.256100	-1.368651
0.256200	-1.234923
0.256300	-1.131381
0.256400	-0.960975
0.256500	-0.922350
0.256600	-0.923324
0.256700	-0.937605
0.256800	-0.947667
0.256900	-0.932412
0.257000	-0.930789
0.257100	-0.888918
0.257200	-0.864899
0.257300	-0.873663
0.257400	-0.883400
0.257500	-0.962923
0.257600	-0.935658
0.257700	-1.018426
0.257800	-0.808422
0.257900	-0.569854
0.258000	-0.229368
0.258100	-0.264423
0.258200	-0.636069
0.258300	-0.885672
0.258400	-0.750646
0.258500	-0.438723
0.258600	-0.065454
0.258700	-0.036566
0.258800	-0.127774
0.258900	-0.364718
0.259000	-0.311811
0.259100	-0.137836
0.259200	0.061782
0.259300	0.240627
0.259400	0.196483
0.259500	0.193238
0.259600	0.080283
0.259700	0.131243
0.259800	0.150393
0.259900	0.190966
0.260000	0.195185
0.260100	0.153314
0.260200	0.169543
0.260300	0.117610
0.260400	0.022183
0.260500	0.004656
0.260600	-0.050848
0.260700	-0.080060
0.260800	-0.046953
0.260900	-0.042409
0.261000	-0.128423
0.261100	-0.476050
0.261200	-0.585434
0.261300	-0.553625
0.261400	-0.322198
0.261500	-0.189444
0.261600	-0.314084
0.261700	-0.649377
0.261800	-0.878531
0.261900	-0.896059
0.262000	-0.696116
0.262100	-0.535448
0.262200	-0.608804
0.262300	-0.795438
0.262400	-0.945395
0.262500	-0.971037
0.262600	-0.992784
0.262700	-0.940202
0.262800	-0.993433
0.262900	-1.063219
0.263000	-1.163515
0.263100	-1.165787
0.263200	-1.198894
0.263300	-1.232001
0.263400	-1.257968
0.263500	-1.264784
0.263600	-1.220641
0.263700	-1.233624
0.263800	-1.281662
0.263900	-1.448498
0.264000	-1.493290
0.264100	-1.507896
0.264200	-1.494913
0.264300	-1.376440
0.264400	-1.422531
0.264500	-1.407600
0.264600	-1.385853
0.264700	-1.385853
0.264800	-1.370923
0.264900	-1.372546
0.265000	-1.382932
0.265100	-1.377414
0.265200	-1.348851
0.265300	-1.382608
0.265400	-1.360536
0.265500	-1.392994
0.265600	-1.383581
0.265700	-1.423505
0.265800	-1.463753
0.265900	-1.505949
0.266000	-1.547171
0.266100	-1.545548
0.266200	-1.823715
0.266300	-2.186274
0.266400	-2.300203
0.266500	-2.107076
0.266600	-1.811381
0.266700	-1.756527
0.266800	-2.016842
0.266900	-2.401149
0.267000	-2.579669
0.267100	-2.501120
0.267200	-2.324871
0.267300	-2.215811
0.267400	-2.388165
0.267500	-2.607259
0.267600	-2.781885
0.267700	-2.785456
0.267800	-2.783833
0.267900	-2.743260
0.268000	-2.796816
0.268100	-2.805904
0.268200	-2.836415
0.268300	-2.898411
0.268400	-2.908798
0.268500	-2.929895
0.268600	-2.963977
0.268700	-3.056159
0.268800	-3.020779
0.268900	-3.014612
0.269000	-3.008445
0.269100	-3.046097
0.269200	-3.064273
0.269300	-2.960082
0.269400	-2.742286
0.269500	-2.622839
0.269600	-2.707231
0.269700	-2.933141
0.269800	-3.105820
0.269900	-3.040903
0.270000	-2.766305
0.270100	-2.564414
0.270200	-2.575125
0.270300	-2.776367
0.270400	-2.990268
0.270500	-3.011042
0.270600	-2.862707
0.270700	-2.708529
0.270800	-2.648806
0.270900	-2.626085
0.271000	-2.650104
0.271100	-2.628032
0.271200	-2.618944
0.271300	-2.598820
0.271400	-2.516376
0.271500	-2.408289
0.271600	-2.284623
0.271700	-2.125253
0.271800	-2.034045
0.271900	-1.984708
0.272000	-1.946408
0.272100	-1.876622
0.272200	-1.690636
0.272300	-1.467648
0.272400	-1.183963
0.272500	-1.057376
0.272600	-1.038550
0.272700	-0.946369
0.272800	-0.820107
0.272900	-0.690598
0.273000	-0.561090
0.273100	-0.466637
0.273200	-0.412756
0.273300	-0.376728
0.273400	-0.372184
0.273500	-0.358876
0.273600	-0.404966
0.273700	-0.355955
0.273800	-0.378675
0.273900	-0.267668
0.274000	-0.304346
0.274100	-0.231315
0.274200	-0.342647
0.274300	-0.386141
0.274400	-0.355955
0.274500	-0.303048
0.274600	0.142603
0.274700	0.297104
0.274800	0.258803
0.274900	-0.190093
0.275000	-0.372833
0.275100	-0.050199
0.275200	0.088073
0.275300	0.431481
0.275400	0.344168
0.275500	0.180904
0.275600	-0.014170
0.275700	0.032894
0.275800	0.240951
0.275900	0.364617
0.276000	0.462316
0.276100	0.336378
0.276200	0.351958
0.276300	0.299051
0.276400	0.360722
0.276500	0.384416
0.276600	0.346440
0.276700	0.328264
0.276800	0.328264
0.276900	0.378574
0.277000	0.315605
0.277100	0.207844
0.277200	0.111118
0.277300	0.053343
0.277400	0.101056
0.277500	0.156235
0.277600	0.213362
0.277700	0.003682
0.277800	-0.351410
0.277900	-0.390685
0.278000	-0.285845
0.278100	-0.017091
0.278200	0.000112
0.278300	-0.183277
0.278400	-0.521491
0.278500	-0.662360
0.278600	-0.550379
0.278700	-0.333558
0.278800	-0.225473
0.278900	-0.393931
0.279000	-0.564661
0.279100	-0.661386
0.279200	-0.622761
0.279300	-0.602637
0.279400	-0.560117
0.279500	-0.667878
0.279600	-0.749672
0.279700	-0.846073
0.279800	-0.793166
0.279900	-0.822703
0.280000	-0.881453
0.280100	-0.937930
0.280200	-0.919753
0.280300	-0.880479
0.280400	-0.871715
0.280500	-0.935009
0.280600	-1.094703
0.280700	-1.154751
0.280800	-1.145662
0.280900	-0.968116
0.281000	-0.992460
0.281100	-1.053806
0.281200	-1.046665
0.281300	-1.051534
0.281400	-1.036278
0.281500	-1.027515
0.281600	-1.026541
0.281700	-1.057052
0.281800	-1.071009
0.281900	-1.046340
0.282000	-1.081395
0.282100	-1.064192
0.282200	-1.120345
0.282300	-1.112880
0.282400	-1.128135
0.282500	-1.193376
0.282600	-1.194025
0.282700	-1.295944
0.282800	-1.307629
0.282900	-1.699076
0.283000	-1.989902
0.283100	-2.079162
0.283200	-1.822417
0.283300	-1.572164
0.283400	-1.606245
0.283500	-1.954847
0.283600	-2.431010
0.283700	-2.600443
0.283800	-2.473531
0.283900	-2.286571
0.284000	-2.221979
0.284100	-2.446266
0.284200	-2.715670
0.284300	-2.878287
0.284400	-2.815642
0.284500	-2.769551
0.284600	-2.744233
0.284700	-2.784482
0.284800	-2.827651
0.284900	-2.863031
0.285000	-2.846477
0.285100	-2.857513
0.285200	-2.900034
0.285300	-2.959433
0.285400	-2.988970
0.285500	-2.972741
0.285600	-2.979232
0.285700	-3.015910
0.285800	-3.076283
0.285900	-3.114908
0.286000	-3.034087
0.286100	-2.765656
0.286200	-2.776043
0.286300	-2.941256
0.286400	-3.239549
0.286500	-3.420343
0.286600	-3.317774
0.286700	-3.028894
0.286800	-2.848100
0.286900	-2.909447
0.287000	-3.208713
0.287100	-3.441441
0.287200	-3.479742
0.287300	-3.262919
0.287400	-3.059080
0.287500	-2.976311
0.287600	-3.001629
0.287700	-3.069467
0.287800	-3.042202
0.287900	-2.998707
0.288000	-2.891919
0.288100	-2.797141
0.288200	-2.713073
0.288300	-2.521894
0.288400	-2.369339
0.288500	-2.243401
0.288600	-2.178160
0.288700	-2.157387
0.288800	-2.089873
0.288900	-1.862016
0.289000	-1.685768
0.289100	-1.490044
0.289200	-1.331648
0.289300	-1.301787
0.289400	-1.234598
0.289500	-1.111581
0.289600	-0.963896
0.289700	-0.776613
0.289800	-0.663658
0.289900	-0.582188
0.290000	-0.590303
0.290100	-0.580890
0.290200	-0.553300
0.290300	-0.531553
0.290400	-0.483840
0.290500	-0.385816
0.290600	-0.330962
0.290700	-0.343945
0.290800	-0.286170
0.290900	-0.395554
0.291000	-0.312785
0.291100	-0.273835
0.291200	-0.002485
0.291300	0.299376
0.291400	0.633370
0.291500	0.317552
0.291600	0.009200
0.291700	-0.047927
0.291800	0.190316
0.291900	0.586306
0.292000	0.850191
0.292100	0.758983
0.292200	0.600588
0.292300	0.453877
0.292400	0.572024
0.292500	0.834286
0.292600	1.023842
0.292700	1.084539
0.292800	1.023193
0.292900	0.996252
0.293000	0.943670
0.293100	1.011832
0.293200	1.051431
0.293300	1.078372
0.293400	1.104014
0.293500	1.129980
0.293600	1.116672
0.293700	1.054353
0.293800	0.925494
0.293900	0.900825
0.294000	0.859928
0.294100	0.951785
0.294200	1.002095
0.294300	0.950162
0.294400	0.844673
0.294500	0.493151
0.294600	0.521390
0.294700	0.620062
0.294800	0.853761
0.294900	0.845647
0.295000	0.609027
0.295100	0.259777
0.295200	0.158183
0.295300	0.212063
0.295400	0.409734
0.295500	0.442841
0.295600	0.270813
0.295700	0.053992
0.295800	-0.082008
0.295900	-0.153740
0.296000	-0.218657
0.296100	-0.257931
0.296200	-0.386465
0.296300	-0.473778
0.296400	-0.527334
0.296500	-0.559143
0.296600	-0.656517
0.296700	-0.782780
0.296800	-0.844775
0.296900	-0.843801
0.297000	-0.867171
0.297100	-0.856135
0.297200	-1.002522
0.297300	-1.187534
0.297400	-1.284259
0.297500	-1.299190
0.297600	-1.318989
0.297700	-1.281987
0.297800	-1.345605
0.297900	-1.348202
0.298000	-1.374818
0.298100	-1.372546
0.298200	-1.395915
0.298300	-1.420259
0.298400	-1.444927
0.298500	-1.475114
0.298600	-1.456288
0.298700	-1.516011
0.298800	-1.530942
0.298900	-1.547495
0.299000	-1.571190
0.299100	-1.603973
0.299200	-1.635457
0.299300	-1.705567
0.299400	-1.762369
0.299500	-1.898694
0.299600	-2.206723
0.299700	-2.548509
0.299800	-2.501445
0.299900	-2.222303
0.300000	-2.002560
0.300100	-2.109024
0.300200	-2.511507
0.300300	-2.810773
0.300400	-2.899060
0.300500	-2.710152
0.300600	-2.530008
0.300700	-2.580643
0.300800	-2.755918
0.300900	-3.024025
0.301000	-3.103548
0.301100	-3.062001
0.301200	-3.017533
0.301300	-3.041552
0.301400	-3.092188
0.301500	-3.119453
0.301600	-3.121725
0.301700	-3.113286
0.301800	-3.099653
0.301900	-3.146718
0.302000	-3.212284
0.302100	-3.212284
0.302200	-3.212284
0.302300	-3.157754
0.302400	-3.219100
0.302500	-3.269086
0.302600	-3.275902
0.302700	-3.131787
0.302800	-2.913666
0.302900	-2.939308
0.303000	-3.149314
0.303100	-3.412228
0.303200	-3.560239
0.303300	-3.361917
0.303400	-3.109066
0.303500	-2.981180
0.303600	-3.116207
0.303700	-3.396648
0.303800	-3.581012
0.303900	-3.540114
0.304000	-3.330108
0.304100	-3.216828
0.304200	-3.197028
0.304300	-3.258050
0.304400	-3.280771
0.304500	-3.269411
0.304600	-3.216179
0.304700	-3.171386
0.304800	-3.112961
0.304900	-3.059729
0.305000	-2.903280
0.305100	-2.761112
0.305200	-2.674123
0.305300	-2.684835
0.305400	-2.683536
0.305500	-2.639068
0.305600	-2.406991
0.305700	-2.294685
0.305800	-1.981463
0.305900	-1.985358
0.306000	-1.955820
0.306100	-1.882140
0.306200	-1.755553
0.306300	-1.641300
0.306400	-1.459534
0.306500	-1.383257
0.306600	-1.335868
0.306700	-1.333920
0.306800	-1.300488
0.306900	-1.270951
0.307000	-1.250827
0.307100	-1.213176
0.307200	-1.123915
0.307300	-1.134302
0.307400	-1.078799
0.307500	-1.120020
0.307600	-1.095028
0.307700	-1.149882
0.307800	-1.031085
0.307900	-0.796412
0.308000	-0.371535
0.308100	-0.354656
0.308200	-0.657167
0.308300	-0.984670
0.308400	-0.960651
0.308500	-0.692546
0.308600	-0.309215
0.308700	-0.227420
0.308800	-0.339725
0.308900	-0.632823
0.309000	-0.716565
0.309100	-0.605233
0.309200	-0.376728
0.309300	-0.261177
0.309400	-0.275458
0.309500	-0.375429
0.309600	-0.413730
0.309700	-0.432231
0.309800	-0.377377
0.309900	-0.397501
0.310000	-0.433205
0.310100	-0.435477
0.310200	-0.457549
0.310300	-0.452355
0.310400	-0.587057
0.310500	-0.642560
0.310600	-0.694493
0.310700	-0.752594
0.310800	-0.680861
0.310900	-0.640937
0.311000	-0.632174
0.311100	-0.894111
0.311200	-1.193701
0.311300	-1.170006
0.311400	-1.010961
0.311500	-0.691897
0.311600	-0.756489
0.311700	-1.001223
0.311800	-1.351123
0.311900	-1.380335
0.312000	-1.218044
0.312100	-0.941500
0.312200	-0.880479
0.312300	-1.037577
0.312400	-1.208956
0.312500	-1.216097
0.312600	-1.183314
0.312700	-1.061920
0.312800	-1.071009
0.312900	-1.097300
0.313000	-1.150207
0.313100	-1.112231
0.313200	-1.030760
0.313300	-1.043744
0.313400	-1.049262
0.313500	-1.060947
0.313600	-1.016479
0.313700	-0.952861
0.313800	-0.918130
0.313900	-1.034655
0.314000	-1.139495
0.314100	-1.157672
0.314200	-1.150856
0.314300	-1.152154
0.314400	-1.102168
0.314500	-1.143066
0.314600	-1.149233
0.314700	-1.174875
0.314800	-1.174226
0.314900	-1.186560
0.315000	-1.194999
0.315100	-1.189806
0.315200	-1.201491
0.315300	-1.206035
0.315400	-1.232651
0.315500	-1.245309
0.315600	-1.292698
0.315700	-1.301462
0.315800	-1.367028
0.315900	-1.380011
0.316000	-1.464727
0.316100	-1.495887
0.316200	-1.711085
0.316300	-2.043458
0.316400	-2.326819
0.316500	-2.172642
0.316600	-1.909405
0.316700	-1.646818
0.316800	-1.804889
0.316900	-2.248270
0.317000	-2.563440
0.317100	-2.596872
0.317200	-2.396280
0.317300	-2.161606
0.317400	-2.211267
0.317500	-2.434905
0.317600	-2.658868
0.317700	-2.779938
0.317800	-2.742611
0.317900	-2.676395
0.318000	-2.662114
0.318100	-2.652376
0.318200	-2.693598
0.318300	-2.690677
0.318400	-2.667956
0.318500	-2.604662
0.318600	-2.598495
0.318700	-2.637121
0.318800	-2.584863
0.318900	-2.548834
0.319000	-2.484242
0.319100	-2.474180
0.319200	-2.473206
0.319300	-2.421273
0.319400	-2.206723
0.319500	-2.002236
0.319600	-2.023334
0.319700	-2.202828
0.319800	-2.443669
0.319900	-2.507612
0.320000	-2.256060
0.320100	-1.981138
0.320200	-1.866560
0.320300	-1.976269
0.320400	-2.225224
0.320500	-2.336556
0.320600	-2.269692
0.320700	-2.095067
0.320800	-1.979515
0.320900	-1.966856
0.321000	-1.999639
0.321100	-2.011973
0.321200	-1.993797
0.321300	-1.965233
0.321400	-1.899668
0.321500	-1.805539
0.321600	-1.674083
0.321700	-1.480307
0.321800	-1.346254
0.321900	-1.261863
0.322000	-1.215448
0.322100	-1.174875
0.322200	-1.057376
0.322300	-0.813615
0.322400	-0.746102
0.322500	-0.455601
0.322600	-0.444890
0.322700	-0.364069
0.322800	-0.282599
0.322900	-0.167697
0.323000	-0.052795
0.323100	0.076388
0.323200	0.120531
0.323300	0.136760
0.323400	0.093591
0.323500	0.051395
0.323600	-0.001187
0.323700	-0.034943
0.323800	-0.073244
0.323900	-0.049549
0.324000	-0.110571
0.324100	-0.158933
0.324200	-0.298504
0.324300	-0.447162
0.324400	-0.465014
0.324500	-0.539343
0.324600	-0.179707
0.324700	-0.072919
0.324800	0.066002
0.324900	-0.497472
0.325000	-0.804202
0.325100	-0.676966
0.325200	-0.573100
0.325300	-0.220929
0.325400	-0.298179
0.325500	-0.417950
0.325600	-0.691572
0.325700	-0.710723
0.325800	-0.596470
0.325900	-0.490656
0.326000	-0.375105
0.326100	-0.422818
0.326200	-0.463716
0.326300	-0.532527
0.326400	-0.525711
0.326500	-0.516623
0.326600	-0.518245
0.326700	-0.507534
0.326800	-0.553625
0.326900	-0.487410
0.327000	-0.542265
0.327100	-0.602637
0.327200	-0.794140
0.327300	-0.810045
0.327400	-0.864250
0.327500	-0.717863
0.327600	-0.737338
0.327700	-0.727601
0.327800	-1.108336
0.327900	-1.273548
0.328000	-1.242063
0.328100	-1.020049
0.328200	-0.842178
0.328300	-1.021348
0.328400	-1.345930
0.328500	-1.654608
0.328600	-1.619877
0.328700	-1.493290
0.328800	-1.371247
0.328900	-1.464078
0.329000	-1.690312
0.329100	-1.829233
0.329200	-1.815925
0.329300	-1.850006
0.329400	-1.842541
0.329500	-1.969778
0.329600	-2.018790
0.329700	-2.070074
0.329800	-2.049625
0.329900	-2.047353
0.330000	-2.093444
0.330100	-2.119410
0.330200	-2.077539
0.330300	-1.996393
0.330400	-1.936346
0.330500	-1.899343
0.330600	-2.035992
0.330700	-2.099935
0.330800	-2.063257
0.330900	-1.851954
0.331000	-1.779897
0.331100	-1.805863
0.331200	-1.761720
0.331300	-1.708164
0.331400	-1.662398
0.331500	-1.615982
0.331600	-1.585796
0.331700	-1.522503
0.331800	-1.484851
0.331900	-1.421882
0.332000	-1.378713
0.332100	-1.342684
0.332200	-1.288803
0.332300	-1.247581
0.332400	-1.203763
0.332500	-1.237195
0.332600	-1.213825
0.332700	-1.226808
0.332800	-1.254722
0.332900	-1.496861
0.333000	-1.812030
0.333100	-1.951925
0.333200	-1.807486
0.333300	-1.515686
0.333400	-1.440708
0.333500	-1.729911
0.333600	-2.129148
0.333700	-2.332986
0.333800	-2.281053
0.333900	-2.073644
0.334000	-1.950952
0.334100	-2.090522
0.334200	-2.370962
0.334300	-2.521569
0.334400	-2.550132
0.334500	-2.473531
0.334600	-2.469960
0.334700	-2.514753
0.334800	-2.627708
0.334900	-2.709178
0.335000	-2.726057
0.335100	-2.732224
0.335200	-2.787728
0.335300	-2.883805
0.335400	-3.006497
0.335500	-3.058106
0.335600	-3.062650
0.335700	-3.103548
0.335800	-3.219425
0.335900	-3.336924
0.336000	-3.370357
0.336100	-3.176255
0.336200	-3.098355
0.336300	-3.253181
0.336400	-3.530052
0.336500	-3.813091
0.336600	-3.801406
0.336700	-3.565432
0.336800	-3.350881
0.336900	-3.368409
0.337000	-3.611523
0.337100	-3.880280
0.337200	-3.961426
0.337300	-3.764078
0.337400	-3.569652
0.337500	-3.486233
0.337600	-3.564783
0.337700	-3.586855
0.337800	-3.597891
0.337900	-3.536219
0.338000	-3.475847
0.338100	-3.383664
0.338200	-3.305115
0.338300	-3.162298
0.338400	-2.987671
0.338500	-2.846802
0.338600	-2.780587
0.338700	-2.732873
0.338800	-2.712100
0.338900	-2.530657
0.339000	-2.279430
0.339100	-2.192117
0.339200	-1.881816
0.339300	-1.853901
0.339400	-1.770159
0.339500	-1.621176
0.339600	-1.477710
0.339700	-1.305357
0.339800	-1.144364
0.339900	-1.066140
0.340000	-1.052832
0.340100	-1.056078
0.340200	-1.020698
0.340300	-0.997653
0.340400	-1.010312
0.340500	-0.966169
0.340600	-0.928517
0.340700	-0.931438
0.340800	-0.944746
0.340900	-0.981749
0.341000	-0.997004
0.341100	-1.026216
0.341200	-0.899629
0.341300	-0.455926
0.341400	-0.316356
0.341500	-0.257931
0.341600	-0.792842
0.341700	-0.905147
0.341800	-0.846722
0.341900	-0.355630
0.342000	-0.139459
0.342100	-0.121282
0.342200	-0.297530
0.342300	-0.505911
0.342400	-0.508833
0.342500	-0.299802
0.342600	-0.091745
0.342700	-0.017416
0.342800	-0.028776
0.342900	-0.151468
0.343000	-0.191392
0.343100	-0.165101
0.343200	-0.093368
0.343300	-0.081034
0.343400	-0.097588
0.343500	-0.111869
0.343600	-0.083631
0.343700	-0.169320
0.343800	-0.191067
0.343900	-0.307267
0.344000	-0.260528
0.344100	-0.355630
0.344200	-0.204699
0.344300	-0.193015
0.344400	-0.220279
0.344500	-0.622112
0.344600	-0.615620
0.344700	-0.552976
0.344800	-0.261501
0.344900	-0.159907
0.345000	-0.273186
0.345100	-0.651649
0.345200	-0.811992
0.345300	-0.768174
0.345400	-0.542589
0.345500	-0.390036
0.345600	-0.467935
0.345700	-0.710398
0.345800	-0.835687
0.345900	-0.870741
0.346000	-0.853214
0.346100	-0.805176
0.346200	-0.895410
0.346300	-0.980126
0.346400	-1.077176
0.346500	-1.063219
0.346600	-1.071009
0.346700	-1.127810
0.346800	-1.202464
0.346900	-1.228431
0.347000	-1.221939
0.347100	-1.249853
0.347200	-1.326455
0.347300	-1.506273
0.347400	-1.606569
0.347500	-1.620851
0.347600	-1.504326
0.347700	-1.481281
0.347800	-1.571515
0.347900	-1.594884
0.348000	-1.603324
0.348100	-1.591639
0.348200	-1.599753
0.348300	-1.608517
0.348400	-1.658827
0.348500	-1.676030
0.348600	-1.732508
0.348700	-1.750684
0.348800	-1.834751
0.348900	-1.888632
0.349000	-1.954847
0.349100	-1.994770
0.349200	-2.072670
0.349300	-2.138561
0.349400	-2.230418
0.349500	-2.292089
0.349600	-2.598171
0.349700	-2.947748
0.349800	-3.006497
0.349900	-2.780911
0.350000	-2.535851
0.350100	-2.549483
0.350200	-2.865628
0.350300	-3.279473
0.350400	-3.423913
0.350500	-3.330433
0.350600	-3.094784
0.350700	-3.051939
0.350800	-3.201248
0.350900	-3.495322
0.351000	-3.631972
0.351100	-3.682283
0.351200	-3.576143
0.351300	-3.531675
0.351400	-3.578740
0.351500	-3.634893
0.351600	-3.708250
0.351700	-3.753691
0.351800	-3.750770
0.351900	-3.800432
0.352000	-3.892614
0.352100	-3.941627
0.352200	-3.913063
0.352300	-3.857559
0.352400	-3.836785
0.352500	-3.883201
0.352600	-3.883850
0.352700	-3.767324
0.352800	-3.503112
0.352900	-3.392753
0.353000	-3.515121
0.353100	-3.754341
0.353200	-3.951040
0.353300	-3.819582
0.353400	-3.518043
0.353500	-3.232408
0.353600	-3.270709
0.353700	-3.481689
0.353800	-3.703056
0.353900	-3.714092
0.354000	-3.487532
0.354100	-3.275253
0.354200	-3.176904
0.354300	-3.187940
0.354400	-3.222671
0.354500	-3.198976
0.354600	-3.162298
0.354700	-3.043175
0.354800	-2.935413
0.354900	-2.837064
0.355000	-2.633550
0.355100	-2.434905
0.355200	-2.289816
0.355300	-2.249244
0.355400	-2.206074
0.355500	-2.152518
0.355600	-1.922388
0.355700	-1.732508
0.355800	-1.560154
0.355900	-1.351448
0.356000	-1.331973
0.356100	-1.262188
0.356200	-1.131381
0.356300	-0.979152
0.356400	-0.826274
0.356500	-0.697090
0.356600	-0.621138
0.356700	-0.549405
0.356800	-0.528308
0.356900	-0.488059
0.357000	-0.470532
0.357100	-0.404642
0.357200	-0.329339
0.357300	-0.289091
0.357400	-0.297530
0.357500	-0.290064
0.357600	-0.321873
0.357700	-0.346866
0.357800	-0.304995
0.357900	-0.148222
0.358000	0.197133
0.358100	0.275681
0.358200	0.145200
0.358300	-0.402370
0.358400	-0.462093
0.358500	-0.368938
0.358600	0.081582
0.358700	0.158183
0.358800	0.112092
0.358900	-0.183602
0.359000	-0.371859
0.359100	-0.323172
0.359200	-0.177110
0.359300	0.027052
0.359400	-0.012223
0.359500	-0.074542
0.359600	-0.147573
0.359700	-0.184251
0.359800	-0.154065
0.359900	-0.207296
0.360000	-0.184575
0.360100	-0.268967
0.360200	-0.271239
0.360300	-0.337453
0.360400	-0.391983
0.360500	-0.629577
0.360600	-0.580241
0.360700	-0.755515
0.360800	-0.669176
0.360900	-0.687353
0.361000	-0.650026
0.361100	-0.869768
0.361200	-1.263810
0.361300	-1.278741
0.361400	-1.234923
0.361500	-0.936307
0.361600	-0.930789
0.361700	-1.154426
0.361800	-1.537109
0.361900	-1.688040
0.362000	-1.615982
0.362100	-1.375467
0.362200	-1.258293
0.362300	-1.394293
0.362400	-1.618904
0.362500	-1.690961
0.362600	-1.705892
0.362700	-1.611114
0.362800	-1.615658
0.362900	-1.692584
0.363000	-1.760746
0.363100	-1.788985
0.363200	-1.757825
0.363300	-1.751009
0.363400	-1.813653
0.363500	-1.853577
0.363600	-1.864288
0.363700	-1.845787
0.363800	-1.809434
0.363900	-1.908431
0.364000	-2.073969
0.364100	-2.079811
0.364200	-2.062608
0.364300	-2.030475
0.364400	-1.938942
0.364500	-1.947057
0.364600	-1.927257
0.364700	-1.907133
0.364800	-1.858121
0.364900	-1.864937
0.365000	-1.838321
0.365100	-1.830532
0.365200	-1.829233
0.365300	-1.819171
0.365400	-1.831830
0.365500	-1.826312
0.365600	-1.822742
0.365700	-1.830207
0.365800	-1.832154
0.365900	-1.876298
0.366000	-1.898694
0.366100	-1.966532
0.366200	-1.991200
0.366300	-2.312537
0.366400	-2.575774
0.366500	-2.562142
0.366600	-2.317406
0.366700	-2.002885
0.366800	-2.063257
0.366900	-2.370962
0.367000	-2.769876
0.367100	-2.848749
0.367200	-2.681589
0.367300	-2.406666
0.367400	-2.347917
0.367500	-2.530008
0.367600	-2.761761
0.367700	-2.907499
0.367800	-2.852969
0.367900	-2.793895
0.368000	-2.773446
0.368100	-2.808826
0.368200	-2.880883
0.368300	-2.936712
0.368400	-2.989944
0.368500	-2.975013
0.368600	-3.050965
0.368700	-3.069142
0.368800	-3.109066
0.368900	-3.136980
0.369000	-3.148016
0.369100	-3.211635
0.369200	-3.304141
0.369300	-3.320046
0.369400	-3.242470
0.369500	-2.994488
0.369600	-3.044474
0.369700	-3.214231
0.369800	-3.484935
0.369900	-3.671247
0.370000	-3.534596
0.370100	-3.280122
0.370200	-3.078230
0.370300	-3.182422
0.370400	-3.446309
0.370500	-3.680660
0.370600	-3.663132
0.370700	-3.485909
0.370800	-3.307712
0.370900	-3.275253
0.371000	-3.277525
0.371100	-3.347960
0.371200	-3.349583
0.371300	-3.354127
0.371400	-3.332705
0.371500	-3.261945
0.371600	-3.186642
0.371700	-3.039280
0.371800	-2.896463
0.371900	-2.847776
0.372000	-2.849723
0.372100	-2.837389
0.372200	-2.812721
0.372300	-2.604013
0.372400	-2.508910
0.372500	-2.243401
0.372600	-2.245349
0.372700	-2.231391
0.372800	-2.181081
0.372900	-2.098312
0.373000	-2.012622
0.373100	-1.829233
0.373200	-1.708164
0.373300	-1.654932
0.373400	-1.639352
0.373500	-1.603973
0.373600	-1.579629
0.373700	-1.573787
0.373800	-1.493615
0.373900	-1.415390
0.374000	-1.350798
0.374100	-1.282636
0.374200	-1.283935
0.374300	-1.286531
0.374400	-1.273548
0.374500	-1.245309
0.374600	-0.941825
0.374700	-0.567906
0.374800	-0.309215
0.374900	-0.604909
0.375000	-0.934684
0.375100	-0.970064
0.375200	-0.683782
0.375300	-0.345893
0.375400	-0.144003
0.375500	-0.211840
0.375600	-0.458847
0.375700	-0.481892
0.375800	-0.376079
0.375900	-0.195936
0.376000	0.012121
0.376100	0.034842
0.376200	0.082231
0.376300	0.004980
0.376400	0.079309
0.376500	0.050097
0.376600	0.093916
0.376700	0.118908
0.376800	0.143252
0.376900	0.164350
0.377000	0.193238
0.377100	0.101706
0.377200	-0.019363
0.377300	-0.041110
0.377400	-0.066103
0.377500	0.034193
0.377600	0.057563
0.377700	0.072818
0.377800	-0.203077
0.377900	-0.554274
0.378000	-0.561739
0.378100	-0.440995
0.378200	-0.223525
0.378300	-0.309539
0.378400	-0.628928
0.378500	-0.988240
0.378600	-1.098923
0.378700	-1.034331
0.378800	-0.848994
0.378900	-0.855486
0.379000	-1.044717
0.379100	-1.237519
0.379200	-1.306655
0.379300	-1.345281
0.379400	-1.373195
0.379500	-1.438436
0.379600	-1.542302
0.379700	-1.599753
0.379800	-1.604297
0.379900	-1.640326
0.380000	-1.743219
0.380100	-1.903887
0.380200	-1.946083
0.380300	-1.967181
0.380400	-1.965883
0.380500	-1.999639
0.380600	-2.148623
0.380700	-2.359277
0.380800	-2.425492
0.380900	-2.482619
0.381000	-2.451134
0.381100	-2.464442
0.381200	-2.526113
0.381300	-2.544939
0.381400	-2.606610
0.381500	-2.626410
0.381600	-2.678018
0.381700	-2.698792
0.381800	-2.712749
0.381900	-2.744883
0.382000	-2.752673
0.382100	-2.785131
0.382200	-2.790324
0.382300	-2.800062
0.382400	-2.802983
0.382500	-2.821809
0.382600	-2.803632
0.382700	-2.838363
0.382800	-2.839986
0.382900	-2.958134
0.383000	-3.224618
0.383100	-3.413202
0.383200	-3.288561
0.383300	-2.883480
0.383400	-2.662438
0.383500	-2.653350
0.383600	-3.012015
0.383700	-3.236952
0.383800	-3.216828
0.383900	-2.962354
0.384000	-2.747804
0.384100	-2.734171
0.384200	-2.896463
0.384300	-3.067844
0.384400	-3.086020
0.384500	-2.994812
0.384600	-2.907175
0.384700	-2.869847
0.384800	-2.931518
0.384900	-2.932817
0.385000	-2.929895
0.385100	-2.887375
0.385200	-2.860759
0.385300	-2.913991
0.385400	-2.999681
0.385500	-2.970468
0.385600	-2.963652
0.385700	-2.930545
0.385800	-3.022077
0.385900	-3.075634
0.386000	-3.114584
0.386100	-2.991566
0.386200	-2.785456
0.386300	-2.875365
0.386400	-3.102250
0.386500	-3.399569
0.386600	-3.563485
0.386700	-3.382366
0.386800	-3.112636
0.386900	-3.089915
0.387000	-3.363216
0.387100	-3.666703
0.387200	-3.847172
0.387300	-3.776412
0.387400	-3.656316
0.387500	-3.614769
0.387600	-3.664106
0.387700	-3.753691
0.387800	-3.833540
0.387900	-3.837110
0.388000	-3.828346
0.388100	-3.779983
0.388200	-3.767649
0.388300	-3.741357
0.388400	-3.631323
0.388500	-3.490778
0.388600	-3.492076
0.388700	-3.512849
0.388800	-3.519666
0.388900	-3.476820
0.389000	-3.260647
0.389100	-3.178527
0.389200	-2.909447
0.389300	-2.910745
0.389400	-2.892568
0.389500	-2.835442
0.389600	-2.703336
0.389700	-2.613751
0.389800	-2.442695
0.389900	-2.356681
0.390000	-2.325521
0.390100	-2.312213
0.390200	-2.258656
0.390300	-2.195687
0.390400	-2.215811
0.390500	-2.166475
0.390600	-2.082408
0.390700	-2.091172
0.390800	-2.054494
0.390900	-2.073320
0.391000	-2.117787
0.391100	-2.105129
0.391200	-2.133043
0.391300	-1.802942
0.391400	-1.553013
0.391500	-1.380335
0.391600	-1.896746
0.391700	-2.134017
0.391800	-2.127849
0.391900	-1.820469
0.392000	-1.465051
0.392100	-1.428698
0.392200	-1.510493
0.392300	-1.734130
0.392400	-1.841567
0.392500	-1.676355
0.392600	-1.482904
0.392700	-1.288154
0.392800	-1.316717
0.392900	-1.375142
0.393000	-1.402732
0.393100	-1.422531
0.393200	-1.402732
0.393300	-1.351448
0.393400	-1.374168
0.393500	-1.339438
0.393600	-1.305032
0.393700	-1.355992
0.393800	-1.381309
0.393900	-1.452068
0.394000	-1.525424
0.394100	-1.602999
0.394200	-1.501405
0.394300	-1.496536
0.394400	-1.458235
0.394500	-1.782493
0.394600	-1.990551
0.394700	-1.960040
0.394800	-1.725691
0.394900	-1.471219
0.395000	-1.561452
0.395100	-1.872078
0.395200	-2.168747
0.395300	-2.150895
0.395400	-1.908756
0.395500	-1.744192
0.395600	-1.763018
0.395700	-1.969453
0.395800	-2.112269
0.395900	-2.086627
0.396000	-2.113243
0.396100	-2.074942
0.396200	-2.173291
0.396300	-2.221005
0.396400	-2.246647
0.396500	-2.236909
0.396600	-2.247296
0.396700	-2.316432
0.396800	-2.369664
0.396900	-2.387841
0.397000	-2.349215
0.397100	-2.349540
0.397200	-2.349540
0.397300	-2.497874
0.397400	-2.613426
0.397500	-2.636796
0.397600	-2.636796
0.397700	-2.567660
0.397800	-2.567984
0.397900	-2.573502
0.398000	-2.547860
0.398100	-2.513130
0.398200	-2.497874
0.398300	-2.489760
0.398400	-2.470609
0.398500	-2.426141
0.398600	-2.454705
0.398700	-2.400824
0.398800	-2.430036
0.398900	-2.399850
0.399000	-2.435230
0.399100	-2.402122
0.399200	-2.447889
0.399300	-2.471259
0.399400	-2.498848
0.399500	-2.595574
0.399600	-2.747479
0.399700	-3.174307
0.399800	-3.371655
0.399900	-3.274604
0.400000	-3.009094
0.400100	-2.951967
0.400200	-3.144121
0.400300	-3.524210
0.400400	-3.846523
0.400500	-3.834513
0.400600	-3.647552
0.400700	-3.521938
0.400800	-3.599838
0.400900	-3.836461
0.401000	-4.038029
0.401100	-4.135729
0.401200	-4.065294
0.401300	-4.066267
0.401400	-4.084769
0.401500	-4.180522
0.401600	-4.237000
0.401700	-4.267835
0.401800	-4.294452
0.401900	-4.350280
0.402000	-4.359369
0.402100	-4.421365
0.402200	-4.479791
0.402300	-4.457719
0.402400	-4.516144
0.402500	-4.567429
0.402600	-4.623907
0.402700	-4.649874
0.402800	-4.447981
0.402900	-4.356123
0.403000	-4.454797
0.403100	-4.722257
0.403200	-4.963426
0.403300	-5.046845
0.403400	-4.827423
0.403500	-4.570026
0.403600	-4.576842
0.403700	-4.820607
0.403800	-5.059828
0.403900	-5.107218
0.404000	-5.015035
0.404100	-4.827423
0.404200	-4.733293
0.404300	-4.720309
0.404400	-4.756663
0.404500	-4.746601
0.404600	-4.706352
0.404700	-4.631373
0.404800	-4.525233
0.404900	-4.446683
0.405000	-4.317822
0.405100	-4.136378
0.405200	-3.966620
0.405300	-3.882227
0.405400	-3.820232
0.405500	-3.755314
0.405600	-3.575494
0.405700	-3.251559
0.405800	-3.094784
0.405900	-2.824406
0.406000	-2.774095
0.406100	-2.651078
0.406200	-2.505340
0.406300	-2.341101
0.406400	-2.155439
0.406500	-1.999639
0.406600	-1.902913
0.406700	-1.860718
0.406800	-1.786713
0.406900	-1.781520
0.407000	-1.733806
0.407100	-1.697128
0.407200	-1.641624
0.407300	-1.506598
0.407400	-1.567944
0.407500	-1.484202
0.407600	-1.613061
0.407700	-1.512765
0.407800	-1.610464
0.407900	-1.385529
0.408000	-1.182016
0.408100	-0.757462
0.408200	-0.907095
0.408300	-1.320288
0.408400	-1.499133
0.408500	-1.471543
0.408600	-1.079448
0.408700	-0.833739
0.408800	-0.809071
0.408900	-1.011610
0.409000	-1.268679
0.409100	-1.302111
0.409200	-1.151180
0.409300	-0.954484
0.409400	-0.853863
0.409500	-0.897682
0.409600	-0.989214
0.409700	-1.081395
0.409800	-1.095352
0.409900	-1.107362
0.410000	-1.099572
0.410100	-1.148908
0.410200	-1.197596
0.410300	-1.208956
0.410400	-1.293672
0.410500	-1.474789
0.410600	-1.553663
0.410700	-1.652011
0.410800	-1.673433
0.410900	-1.625395
0.411000	-1.621176
0.411100	-1.745815
0.411200	-2.144728
0.411300	-2.317731
0.411400	-2.244050
0.411500	-2.099286
0.411600	-1.972699
0.411700	-2.175888
0.411800	-2.537798
0.411900	-2.780911
0.412000	-2.697169
0.412100	-2.567011
0.412200	-2.449836
0.412300	-2.562467
0.412400	-2.735794
0.412500	-2.864329
0.412600	-2.834468
0.412700	-2.830573
0.412800	-2.812721
0.412900	-2.915614
0.413000	-2.989294
0.413100	-3.029867
0.413200	-2.985724
0.413300	-2.986698
0.413400	-3.038307
0.413500	-3.079853
0.413600	-3.082450
0.413700	-3.047070
0.413800	-3.021753
0.413900	-3.031815
0.414000	-3.210336
0.414100	-3.281745
0.414200	-3.289535
0.414300	-3.218126
0.414400	-3.100627
0.414500	-3.169439
0.414600	-3.148990
0.414700	-3.093486
0.414800	-3.060378
0.414900	-3.038307
0.415000	-3.028569
0.415100	-3.007796
0.415200	-2.978259
0.415300	-2.959108
0.415400	-2.927299
0.415500	-2.921781
0.415600	-2.894840
0.415700	-2.898086
0.415800	-2.881857
0.415900	-2.882506
0.416000	-2.898411
0.416100	-2.868874
0.416200	-2.910096
0.416300	-3.088293
0.416400	-3.430080
0.416500	-3.530377
0.416600	-3.272981
0.416700	-2.950993
0.416800	-2.804606
0.416900	-3.085047
0.417000	-3.443064
0.417100	-3.641385
0.417200	-3.538167
0.417300	-3.310308
0.417400	-3.152236
0.417500	-3.274279
0.417600	-3.541413
0.417700	-3.701758
0.417800	-3.705977
0.417900	-3.668975
0.418000	-3.620612
0.418100	-3.629051
0.418200	-3.686178
0.418300	-3.754341
0.418400	-3.782255
0.418500	-3.758560
0.418600	-3.829969
0.418700	-3.904624
0.418800	-3.964348
0.418900	-3.920204
0.419000	-3.927345
0.419100	-3.929941
0.419200	-4.026993
0.419300	-4.074382
0.419400	-4.066917
0.419500	-3.904299
0.419600	-3.815038
0.419700	-3.924748
0.419800	-4.160722
0.419900	-4.400267
0.420000	-4.339245
0.420100	-4.095805
0.420200	-3.871841
0.420300	-3.926371
0.420400	-4.152607
0.420500	-4.420067
0.420600	-4.472000
0.420700	-4.314576
0.420800	-4.135080
0.420900	-4.081848
0.421000	-4.114955
0.421100	-4.200322
0.421200	-4.208436
0.421300	-4.190584
0.421400	-4.137352
0.421500	-4.052310
0.421600	-3.986095
0.421700	-3.891640
0.421800	-3.746551
0.421900	-3.667027
0.422000	-3.642034
0.422100	-3.632297
0.422200	-3.646578
0.422300	-3.493699
0.422400	-3.350232
0.422500	-3.152236
0.422600	-3.061352
0.422700	-3.095758
0.422800	-3.070765
0.422900	-3.012015
0.423000	-2.900358
0.423100	-2.764682
0.423200	-2.679317
0.423300	-2.654648
0.423400	-2.642963
0.423500	-2.691002
0.423600	-2.663412
0.423700	-2.711775
0.423800	-2.676395
0.423900	-2.610180
0.424000	-2.556624
0.424100	-2.591679
0.424200	-2.594600
0.424300	-2.668605
0.424400	-2.695221
0.424500	-2.671202
0.424600	-2.492357
0.424700	-2.212890
0.424800	-1.846436
0.424900	-2.054169
0.425000	-2.456977
0.425100	-2.689703
0.425200	-2.437826
0.425300	-2.157387
0.425400	-1.910054
0.425500	-1.924985
0.425600	-2.056441
0.425700	-2.297931
0.425800	-2.227821
0.425900	-2.025606
0.426000	-1.749061
0.426100	-1.718226
0.426200	-1.699400
0.426300	-1.720173
0.426400	-1.711085
0.426500	-1.680250
0.426600	-1.610140
0.426700	-1.565997
0.426800	-1.534837
0.426900	-1.499457
0.427000	-1.460183
0.427100	-1.587419
0.427200	-1.690312
0.427300	-1.724393
0.427400	-1.672135
0.427500	-1.659476
0.427600	-1.545548
0.427700	-1.581252
0.427800	-1.704918
0.427900	-2.043133
0.428000	-2.048002
0.428100	-1.917844
0.428200	-1.678951
0.428300	-1.621500
0.428400	-1.818197
0.428500	-2.143429
0.428600	-2.295334
0.428700	-2.231716
0.428800	-2.014895
0.428900	-1.902589
0.429000	-2.035992
0.429100	-2.242427
0.429200	-2.346294
0.429300	-2.358628
0.429400	-2.357654
0.429500	-2.347592
0.429600	-2.433282
0.429700	-2.505989
0.429800	-2.591679
0.429900	-2.589407
0.430000	-2.627383
0.430100	-2.710477
0.430200	-2.740988
0.430300	-2.736443
0.430400	-2.718267
0.430500	-2.709178
0.430600	-2.808501
0.430700	-3.012015
0.430800	-3.081476
0.430900	-3.124646
0.431000	-3.032789
0.431100	-3.000655
0.431200	-3.071739
0.431300	-3.099653
0.431400	-3.106469
0.431500	-3.127567
0.431600	-3.182747
0.431700	-3.191835
0.431800	-3.257726
0.431900	-3.280771
0.432000	-3.327511
0.432100	-3.379120
0.432200	-3.412877
0.432300	-3.511226
0.432400	-3.498243
0.432500	-3.526806
0.432600	-3.550826
0.432700	-3.666378
0.432800	-3.757587
0.432900	-3.863077
0.433000	-4.187987
0.433100	-4.550550
0.433200	-4.634294
0.433300	-4.311005
0.433400	-4.155529
0.433500	-4.214279
0.433600	-4.595668
0.433700	-4.954662
0.433800	-5.112736
0.433900	-5.014710
0.434000	-4.771270
0.434100	-4.829695
0.434200	-5.005297
0.434300	-5.307814
0.434400	-5.442518
0.434500	-5.506137
0.434600	-5.455177
0.434700	-5.467836
0.434800	-5.529183
0.434900	-5.593776
0.435000	-5.629157
0.435100	-5.664212
0.435200	-5.660966
0.435300	-5.727507
0.435400	-5.764835
0.435500	-5.835271
0.435600	-5.791127
0.435700	-5.767107
0.435800	-5.858966
0.435900	-5.925183
0.436000	-5.931999
0.436100	-5.807032
0.436200	-5.574626
0.436300	-5.527560
0.436400	-5.674599
0.436500	-5.906681
0.436600	-6.076442
0.436700	-5.918691
0.436800	-5.644412
0.436900	-5.437649
0.437000	-5.515226
0.437100	-5.757370
0.437200	-5.922261
0.437300	-5.859615
0.437400	-5.635648
0.437500	-5.435702
0.437600	-5.374679
0.437700	-5.396102
0.437800	-5.421744
0.437900	-5.355853
0.438000	-5.287689
0.438100	-5.221473
0.438200	-5.142274
0.438300	-5.038081
0.438400	-4.845925
0.438500	-4.657340
0.438600	-4.570999
0.438700	-4.540164
0.438800	-4.538541
0.438900	-4.470377
0.439000	-4.242193
0.439100	-4.099051
0.439200	-3.949417
0.439300	-3.753042
0.439400	-3.739085
0.439500	-3.669299
0.439600	-3.566081
0.439700	-3.404438
0.439800	-3.276876
0.439900	-3.194756
0.440000	-3.150937
0.440100	-3.192484
0.440200	-3.198651
0.440300	-3.180799
0.440400	-3.239549
0.440500	-3.179501
0.440600	-3.182422
0.440700	-3.096732
0.440800	-3.205143
0.440900	-3.155157
0.441000	-3.276552
0.441100	-3.270060
0.441200	-3.273630
0.441300	-3.034736
0.441400	-2.688730
0.441500	-2.493655
0.441600	-2.805904
0.441700	-3.297325
0.441800	-3.381068
0.441900	-3.078555
0.442000	-2.784157
0.442100	-2.542018
0.442200	-2.649780
0.442300	-2.851995
0.442400	-3.086670
0.442500	-3.037333
0.442600	-2.807203
0.442700	-2.640367
0.442800	-2.555001
0.442900	-2.693598
0.443000	-2.713073
0.443100	-2.784806
0.443200	-2.751699
0.443300	-2.723785
0.443400	-2.691326
0.443500	-2.682238
0.443600	-2.691651
0.443700	-2.656596
0.443800	-2.746506
0.443900	-2.841609
0.444000	-2.900358
0.444100	-2.923079
0.444200	-2.864329
0.444300	-2.748128
0.444400	-2.743260
0.444500	-2.971442
0.444600	-3.238900
0.444700	-3.197678
0.444800	-3.081476
0.444900	-2.731899
0.445000	-2.774420
0.445100	-3.022727
0.445200	-3.352504
0.445300	-3.424562
0.445400	-3.281096
0.445500	-3.009094
0.445600	-2.932817
0.445700	-3.069467
0.445800	-3.255778
0.445900	-3.297325
0.446000	-3.293755
0.446100	-3.234356
0.446200	-3.230785
0.446300	-3.291482
0.446400	-3.375550
0.446500	-3.445011
0.446600	-3.431054
0.446700	-3.446959
0.446800	-3.512849
0.446900	-3.531675
0.447000	-3.505384
0.447100	-3.505384
0.447200	-3.473574
0.447300	-3.586205
0.447400	-3.779983
0.447500	-3.812117
0.447600	-3.854313
0.447700	-3.690722
0.447800	-3.755964
0.447900	-3.811143
0.448000	-3.810169
0.448100	-3.816661
0.448200	-3.810494
0.448300	-3.803028
0.448400	-3.797186
0.448500	-3.801406
0.448600	-3.783553
0.448700	-3.803353
0.448800	-3.800107
0.448900	-3.799133
0.449000	-3.779658
0.449100	-3.800756
0.449200	-3.795238
0.449300	-3.780307
0.449400	-3.816986
0.449500	-3.838084
0.449600	-3.931889
0.449700	-4.227262
0.449800	-4.515170
0.449900	-4.487256
0.450000	-4.159748
0.450100	-3.964672
0.450200	-3.951364
0.450300	-4.410004
0.450400	-4.740434
0.450500	-4.825800
0.450600	-4.634943
0.450700	-4.421689
0.450800	-4.410004
0.450900	-4.589176
0.451000	-4.866698
0.451100	-5.006271
0.451200	-4.980953
0.451300	-4.922852
0.451400	-4.873839
0.451500	-4.898833
0.451600	-4.969268
0.451700	-4.992963
0.451800	-5.013737
0.451900	-4.994261
0.452000	-5.052038
0.452100	-5.144221
0.452200	-5.169539
0.452300	-5.132536
0.452400	-5.120202
0.452500	-5.154608
0.452600	-5.249712
0.452700	-5.249063
0.452800	-5.148116
0.452900	-4.926747
0.453000	-4.962776
0.453100	-5.160126
0.453200	-5.448361
0.453300	-5.601242
0.453400	-5.432456
0.453500	-5.145844
0.453600	-5.019904
0.453700	-5.156555
0.453800	-5.456800
0.453900	-5.684012
0.454000	-5.660642
0.454100	-5.486013
0.454200	-5.351308
0.454300	-5.341895
0.454400	-5.418823
0.454500	-5.485039
0.454600	-5.516849
0.454700	-5.463292
0.454800	-5.427587
0.454900	-5.361695
0.455000	-5.249388
0.455100	-5.096507
0.455200	-4.980304
0.455300	-4.912790
0.455400	-4.914413
0.455500	-4.897859
0.455600	-4.834564
0.455700	-4.617091
0.455800	-4.533997
0.455900	-4.300619
0.456000	-4.215577
0.456100	-4.184092
0.456200	-4.097428
0.456300	-3.991937
0.456400	-3.854638
0.456500	-3.671896
0.456600	-3.574520
0.456700	-3.541413
0.456800	-3.524210
0.456900	-3.500840
0.457000	-3.447932
0.457100	-3.465135
0.457200	-3.342767
0.457300	-3.280771
0.457400	-3.270709
0.457500	-3.254480
0.457600	-3.322967
0.457700	-3.290833
0.457800	-3.371979
0.457900	-3.198651
0.458000	-3.055185
0.458100	-2.550132
0.458200	-2.557922
0.458300	-2.743909
0.458400	-3.259349
0.458500	-3.099328
0.458600	-2.897112
0.458700	-2.587135
0.458800	-2.416404
0.458900	-2.589407
0.459000	-2.762410
0.459100	-2.920483
0.459200	-2.794219
0.459300	-2.578047
0.459400	-2.420299
0.459500	-2.449511
0.459600	-2.466390
0.459700	-2.548509
0.459800	-2.530982
0.459900	-2.548834
0.460000	-2.524815
0.460100	-2.537149
0.460200	-2.522867
0.460300	-2.535526
0.460400	-2.537798
0.460500	-2.702362
0.460600	-2.738716
0.460700	-2.811422
0.460800	-2.814019
0.460900	-2.752023
0.461000	-2.728004
0.461100	-2.706582
0.461200	-3.036684
0.461300	-3.236628
0.461400	-3.211635
0.461500	-3.026297
0.461600	-2.746181
0.461700	-2.819861
0.461800	-3.054211
0.461900	-3.367111
0.462000	-3.403789
0.462100	-3.262270
0.462200	-3.044474
0.462300	-3.030517
0.462400	-3.190212
0.462500	-3.361268
0.462600	-3.364514
0.462700	-3.417097
0.462800	-3.346986
0.462900	-3.416772
0.463000	-3.441765
0.463100	-3.553747
0.463200	-3.605681
0.463300	-3.599513
0.463400	-3.621910
0.463500	-3.674493
0.463600	-3.670598
0.463700	-3.622884
0.463800	-3.585232
0.463900	-3.576793
0.464000	-3.685853
0.464100	-3.818284
0.464200	-3.816336
0.464300	-3.739085
0.464400	-3.609576
0.464500	-3.662158
0.464600	-3.688450
0.464700	-3.644306
0.464800	-3.644955
0.464900	-3.626129
0.465000	-3.607628
0.465100	-3.617041
0.465200	-3.603409
0.465300	-3.630674
0.465400	-3.608602
0.465500	-3.643332
0.465600	-3.615094
0.465700	-3.677089
0.465800	-3.698187
0.465900	-3.708574
0.466000	-3.758236
0.466100	-3.763754
0.466200	-3.865998
0.466300	-3.965646
0.466400	-4.412601
0.466500	-4.631697
0.466600	-4.555744
0.466700	-4.278222
0.466800	-4.136378
0.466900	-4.325287
0.467000	-4.705378
0.467100	-5.091638
0.467200	-5.095533
0.467300	-4.889744
0.467400	-4.755040
0.467500	-4.807299
0.467600	-5.016009
0.467700	-5.179601
0.467800	-5.291909
0.467900	-5.224719
0.468000	-5.172785
0.468100	-5.222447
0.468200	-5.240299
0.468300	-5.287365
0.468400	-5.272109
0.468500	-5.269512
0.468600	-5.299374
0.468700	-5.401295
0.468800	-5.459072
0.468900	-5.487636
0.469000	-5.424341
0.469100	-5.441220
0.469200	-5.532104
0.469300	-5.600917
0.469400	-5.606435
0.469500	-5.406164
0.469600	-5.255879
0.469700	-5.315928
0.469800	-5.550931
0.469900	-5.841114
0.470000	-5.887855
0.470100	-5.664537
0.470200	-5.400321
0.470300	-5.358449
0.470400	-5.571704
0.470500	-5.870651
0.470600	-6.018989
0.470700	-5.940114
0.470800	-5.796969
0.470900	-5.720691
0.471000	-5.751202
0.471100	-5.826183
0.471200	-5.850851
0.471300	-5.838517
0.471400	-5.815471
0.471500	-5.770678
0.471600	-5.746009
0.471700	-5.625262
0.471800	-5.448685
0.471900	-5.321446
0.472000	-5.251011
0.472100	-5.235106
0.472200	-5.212060
0.472300	-5.113385
0.472400	-4.882279
0.472500	-4.790745
0.472600	-4.498941
0.472700	-4.484984
0.472800	-4.438243
0.472900	-4.318146
0.473000	-4.186040
0.473100	-4.060425
0.473200	-3.905273
0.473300	-3.823802
0.473400	-3.772842
0.473500	-3.749472
0.473600	-3.745901
0.473700	-3.694942
0.473800	-3.704355
0.473900	-3.606654
0.474000	-3.539141
0.474100	-3.518043
0.474200	-3.494673
0.474300	-3.559590
0.474400	-3.536219
0.474500	-3.561862
0.474600	-3.479417
0.474700	-3.136980
0.474800	-2.853943
0.474900	-2.762086
0.475000	-3.208064
0.475100	-3.420343
0.475200	-3.408658
0.475300	-3.091538
0.475400	-2.795518
0.475500	-2.789675
0.475600	-2.890945
0.475700	-3.135682
0.475800	-3.152560
0.475900	-3.001304
0.476000	-2.797465
0.476100	-2.688080
0.476200	-2.677694
0.476300	-2.733847
0.476400	-2.773446
0.476500	-2.718591
0.476600	-2.678668
0.476700	-2.641990
0.476800	-2.631603
0.476900	-2.624787
0.477000	-2.579669
0.477100	-2.648806
0.477200	-2.681264
0.477300	-2.842582
0.477400	-2.815317
0.477500	-2.913342
0.477600	-2.773446
0.477700	-2.742286
0.477800	-2.769876
0.477900	-3.092512
0.478000	-3.261945
0.478100	-3.202222
0.478200	-3.023700
0.478300	-2.780587
0.478400	-2.946774
0.478500	-3.207090
0.478600	-3.524210
0.478700	-3.535570
0.478800	-3.376524
0.478900	-3.210985
0.479000	-3.256752
0.479100	-3.477145
0.479200	-3.678063
0.479300	-3.703705
0.479400	-3.738111
0.479500	-3.710846
0.479600	-3.829644
0.479700	-3.889368
0.479800	-3.986095
0.479900	-4.042573
0.480000	-4.053933
0.480100	-4.104893
0.480200	-4.161371
0.480300	-4.180197
0.480400	-4.138975
0.480500	-4.104893
0.480600	-4.121447
0.480700	-4.299970
0.480800	-4.396372
0.480900	-4.390205
0.481000	-4.226938
0.481100	-4.176302
0.481200	-4.240246
0.481300	-4.228885
0.481400	-4.202594
0.481500	-4.162020
0.481600	-4.117227
0.481700	-4.114631
0.481800	-4.101972
0.481900	-4.061723
0.482000	-4.038029
0.482100	-4.012386
0.482200	-4.003947
0.482300	-3.939030
0.482400	-3.935784
0.482500	-3.886122
0.482600	-3.874437
0.482700	-3.873788
0.482800	-3.863401
0.482900	-3.894562
0.483000	-4.004272
0.483100	-4.359369
0.483200	-4.452201
0.483300	-4.235052
0.483400	-3.863726
0.483500	-3.710846
0.483600	-3.898781
0.483700	-4.301592
0.483800	-4.553796
0.483900	-4.481089
0.484000	-4.224016
0.484100	-4.083471
0.484200	-4.154879
0.484300	-4.378844
0.484400	-4.575544
0.484500	-4.613520
0.484600	-4.566131
0.484700	-4.528479
0.484800	-4.524908
0.484900	-4.559314
0.485000	-4.596642
0.485100	-4.608652
0.485200	-4.609625
0.485300	-4.641435
0.485400	-4.701808
0.485500	-4.763480
0.485600	-4.717064
0.485700	-4.658313
0.485800	-4.667726
0.485900	-4.752768
0.486000	-4.785876
0.486100	-4.754067
0.486200	-4.551200
0.486300	-4.428181
0.486400	-4.584632
0.486500	-4.849820
0.486600	-5.117605
0.486700	-5.126044
0.486800	-4.905649
0.486900	-4.699536
0.487000	-4.722906
0.487100	-5.002376
0.487200	-5.315604
0.487300	-5.475626
0.487400	-5.381171
0.487500	-5.246466
0.487600	-5.208490
0.487700	-5.283469
0.487800	-5.388636
0.487900	-5.454852
0.488000	-5.431157
0.488100	-5.401620
0.488200	-5.336053
0.488300	-5.315604
0.488400	-5.215955
0.488500	-5.096831
0.488600	-5.003999
0.488700	-4.996858
0.488800	-4.974137
0.488900	-4.959530
0.489000	-4.806974
0.489100	-4.643707
0.489200	-4.605406
0.489300	-4.342815
0.489400	-4.372677
0.489500	-4.335025
0.489600	-4.255501
0.489700	-4.120473
0.489800	-3.970190
0.489900	-3.896509
0.490000	-3.876060
0.490100	-3.833215
0.490200	-3.876385
0.490300	-3.815687
0.490400	-3.913712
0.490500	-3.810819
0.490600	-3.811468
0.490700	-3.721558
0.490800	-3.754665
0.490900	-3.739085
0.491000	-3.747200
0.491100	-3.818284
0.491200	-3.771868
0.491300	-3.664755
0.491400	-3.324915
0.491500	-3.076283
0.491600	-3.184370
0.491700	-3.600812
0.491800	-3.887421
0.491900	-3.601136
0.492000	-3.353803
0.492100	-3.037008
0.492200	-3.022077
0.492300	-3.247664
0.492400	-3.456047
0.492500	-3.484610
0.492600	-3.184045
0.492700	-3.040254
0.492800	-2.952941
0.492900	-3.020779
0.493000	-3.094460
0.493100	-3.157104
0.493200	-3.171386
0.493300	-3.119128
0.493400	-3.121076
0.493500	-3.126594
0.493600	-3.158403
0.493700	-3.162298
0.493800	-3.276552
0.493900	-3.402166
0.494000	-3.464811
0.494100	-3.564783
0.494200	-3.511551
0.494300	-3.474548
0.494400	-3.443388
0.494500	-3.536869
0.494600	-3.890991
0.494700	-4.001350
0.494800	-3.899106
0.494900	-3.677739
0.495000	-3.551799
0.495100	-3.730321
0.495200	-4.087041
0.495300	-4.311979
0.495400	-4.265888
0.495500	-4.013360
0.495600	-3.870218
0.495700	-3.995832
0.495800	-4.247711
0.495900	-4.362290
0.496000	-4.329831
0.496100	-4.327884
0.496200	-4.284714
0.496300	-4.401241
0.496400	-4.488230
0.496500	-4.609301
0.496600	-4.586904
0.496700	-4.605730
0.496800	-4.637540
0.496900	-4.688825
0.497000	-4.667726
0.497100	-4.632022
0.497200	-4.603134
0.497300	-4.628451
0.497400	-4.815089
0.497500	-4.893315
0.497600	-4.885200
0.497700	-4.690447
0.497800	-4.720634
0.497900	-4.811194
0.498000	-4.809896
0.498100	-4.804378
0.498200	-4.823204
0.498300	-4.832941
0.498400	-4.834240
0.498500	-4.819633
0.498600	-4.813791
0.498700	-4.807299
0.498800	-4.795938
0.498900	-4.806001
0.499000	-4.780358
0.499100	-4.814440
0.499200	-4.793342
0.499300	-4.854364
0.499400	-4.843328
0.499500	-4.927721
0.499600	-4.950442
0.499700	-5.189663
0.499800	-5.508734
0.499900	-5.556773
0.500000	-5.345466
0.500100	-5.015684
0.500200	-5.022825
0.500300	-5.326964
0.500400	-5.748606
0.500500	-5.911874
0.500600	-5.797294
0.500700	-5.536649
0.500800	-5.477898
0.500900	-5.627534
0.501000	-5.851501
0.501100	-6.027428
0.501200	-5.976792
0.501300	-5.903435
0.501400	-5.836245
0.501500	-5.889153
0.501600	-5.938491
0.501700	-5.957966
0.501800	-5.954720
0.501900	-5.911225
0.502000	-5.929727
0.502100	-5.968028
0.502200	-6.019638
0.502300	-5.957966
0.502400	-5.945632
0.502500	-5.930701
0.502600	-6.006330
0.502700	-6.043333
0.502800	-5.955369
0.502900	-5.717120
0.503000	-5.637271
0.503100	-5.776520
0.503200	-6.026779
0.503300	-6.266327
0.503400	-6.171547
0.503500	-5.891750
0.503600	-5.663239
0.503700	-5.721665
0.503800	-5.977117
0.503900	-6.233219
0.504000	-6.267950
0.504100	-6.092347
0.504200	-5.884284
0.504300	-5.833324
0.504400	-5.899864
0.504500	-5.975494
0.504600	-5.985556
0.504700	-5.924209
0.504800	-5.849553
0.504900	-5.791451
0.505000	-5.736271
0.505100	-5.576898
0.505200	-5.408436
0.505300	-5.304568
0.505400	-5.290610
0.505500	-5.264319
0.505600	-5.233807
0.505700	-5.056907
0.505800	-4.899482
0.505900	-4.800158
0.506000	-4.607029
0.506100	-4.597291
0.506200	-4.546006
0.506300	-4.466158
0.506400	-4.317173
0.506500	-4.158450
0.506600	-4.018229
0.506700	-3.964997
0.506800	-3.975708
0.506900	-3.958830
0.507000	-3.934161
0.507100	-3.935135
0.507200	-3.845874
0.507300	-3.811792
0.507400	-3.722856
0.507500	-3.768622
0.507600	-3.726751
0.507700	-3.783553
0.507800	-3.787448
0.507900	-3.790045
0.508000	-3.529728
0.508100	-3.162947
0.508200	-2.955862
0.508300	-3.147367
0.508400	-3.553747
0.508500	-3.630674
0.508600	-3.445011
0.508700	-3.129515
0.508800	-2.890296
0.508900	-2.889647
0.509000	-3.155157
0.509100	-3.248962
0.509200	-3.212608
0.509300	-2.960731
0.509400	-2.776043
0.509500	-2.710801
0.509600	-2.733198
0.509700	-2.776692
0.509800	-2.814668
0.509900	-2.793246
0.510000	-2.737093
0.510100	-2.690677
0.510200	-2.708205
0.510300	-2.705933
0.510400	-2.743260
0.510500	-2.782534
0.510600	-2.914315
0.510700	-2.861084
0.510800	-3.014937
0.510900	-2.933790
0.511000	-2.962354
0.511100	-2.902306
0.511200	-3.089591
0.511300	-3.398271
0.511400	-3.440467
0.511500	-3.322967
0.511600	-3.032789
0.511700	-2.979232
0.511800	-3.197028
0.511900	-3.555695
0.512000	-3.653719
0.512100	-3.526482
0.512200	-3.265840
0.512300	-3.191186
0.512400	-3.331082
0.512500	-3.541737
0.512600	-3.622884
0.512700	-3.602759
0.512800	-3.555695
0.512900	-3.521288
0.513000	-3.623208
0.513100	-3.693968
0.513200	-3.804651
0.513300	-3.802704
0.513400	-3.813415
0.513500	-3.858208
0.513600	-3.873788
0.513700	-3.851392
0.513800	-3.831917
0.513900	-3.782904
0.514000	-3.883526
0.514100	-4.044845
0.514200	-4.093208
0.514300	-4.098726
0.514400	-3.923125
0.514500	-3.978954
0.514600	-4.028291
0.514700	-4.015632
0.514800	-4.036730
0.514900	-4.008491
0.515000	-4.013360
0.515100	-3.988042
0.515200	-4.004921
0.515300	-4.017255
0.515400	-4.030563
0.515500	-4.041924
0.515600	-4.058477
0.515700	-4.107814
0.515800	-4.162670
0.515900	-4.186364
0.516000	-4.232780
0.516100	-4.308084
0.516200	-4.323340
0.516300	-4.486931
0.516400	-4.745627
0.516500	-5.115008
0.516600	-5.120202
0.516700	-4.871243
0.516800	-4.662208
0.516900	-4.674218
0.517000	-5.081576
0.517100	-5.417849
0.517200	-5.579819
0.517300	-5.389935
0.517400	-5.220175
0.517500	-5.164021
0.517600	-5.375977
0.517700	-5.625586
0.517800	-5.801189
0.517900	-5.847606
0.518000	-5.800540
0.518100	-5.792101
0.518200	-5.843710
0.518300	-5.948878
0.518400	-5.998864
0.518500	-6.049825
0.518600	-6.067028
0.518700	-6.142333
0.518800	-6.233219
0.518900	-6.246527
0.519000	-6.261458
0.519100	-6.293917
0.519200	-6.379285
0.519300	-6.417911
0.519400	-6.419859
0.519500	-6.420833
0.519600	-6.156615
0.519700	-6.134219
0.519800	-6.325403
0.519900	-6.422780
0.520000	-6.420508
0.520100	-6.420183
0.520200	-6.419859
0.520300	-6.419859
0.520400	-6.419859
0.520500	-6.419210
0.520600	-6.419210
0.520700	-6.418885
0.520800	-6.419210
0.520900	-6.419534
0.521000	-6.419859
0.521100	-6.419534
0.521200	-6.418885
0.521300	-6.418560
0.521400	-6.418560
0.521500	-6.418560
0.521600	-6.418885
0.521700	-6.419210
0.521800	-6.417911
0.521900	-6.417587
0.522000	-6.417911
0.522100	-6.417587
0.522200	-6.417587
0.522300	-6.282557
0.522400	-5.714199
0.522500	-5.614226
0.522600	-5.386689
0.522700	-5.272433
0.522800	-5.232509
0.522900	-5.162398
0.523000	-5.025097
0.523100	-4.870593
0.523200	-4.696290
0.523300	-4.632996
0.523400	-4.529777
0.523500	-4.566780
0.523600	-4.510626
0.523700	-4.516144
0.523800	-4.517767
0.523900	-4.435971
0.524000	-4.387283
0.524100	-4.353526
0.524200	-4.366185
0.524300	-4.353526
0.524400	-4.354825
0.524500	-4.391178
0.524600	-4.261993
0.524700	-4.028940
0.524800	-3.588802
0.524900	-3.529079
0.525000	-3.791019
0.525100	-4.204866
0.525200	-4.173381
0.525300	-3.912089
0.525400	-3.578740
0.525500	-3.416123
0.525600	-3.538816
0.525700	-3.709223
0.525800	-3.876709
0.525900	-3.751419
0.526000	-3.593996
0.526100	-3.378796
0.526200	-3.364189
0.526300	-3.372953
0.526400	-3.373927
0.526500	-3.393077
0.526600	-3.371330
0.526700	-3.332056
0.526800	-3.293755
0.526900	-3.272007
0.527000	-3.227539
0.527100	-3.237926
0.527200	-3.387884
0.527300	-3.414175
0.527400	-3.430729
0.527500	-3.388858
0.527600	-3.317774
0.527700	-3.231110
0.527800	-3.259024
0.527900	-3.415474
0.528000	-3.747200
0.528100	-3.642359
0.528200	-3.449231
0.528300	-3.182422
0.528400	-3.163596
0.528500	-3.381717
0.528600	-3.704679
0.528700	-3.720584
0.528800	-3.535246
0.528900	-3.311282
0.529000	-3.287587
0.529100	-3.396648
0.529200	-3.536219
0.529300	-3.543685
0.529400	-3.549852
0.529500	-3.507981
0.529600	-3.534921
0.529700	-3.559590
0.529800	-3.621910
0.529900	-3.683256
0.530000	-3.682932
0.530100	-3.711820
0.530200	-3.755639
0.530300	-3.781930
0.530400	-3.744928
0.530500	-3.726102
0.530600	-3.701758
0.530700	-3.860156
0.530800	-4.014009
0.530900	-4.044845
0.531000	-3.987718
0.531100	-3.849120
0.531200	-3.894886
0.531300	-3.951689
0.531400	-3.914686
0.531500	-3.928319
0.531600	-3.929292
0.531700	-3.933187
0.531800	-3.927345
0.531900	-3.946820
0.532000	-3.997455
0.532100	-4.000377
0.532200	-4.030238
0.532300	-4.034133
0.532400	-4.068864
0.532500	-4.086392
0.532600	-4.124693
0.532700	-4.161047
0.532800	-4.239921
0.532900	-4.320743
0.533000	-4.503485
0.533100	-4.837810
0.533200	-5.171811
0.533300	-5.110139
0.533400	-4.858259
0.533500	-4.700834
0.533600	-4.844302
0.533700	-5.223745
0.533800	-5.577222
0.533900	-5.619744
0.534000	-5.474977
0.534100	-5.306840
0.534200	-5.369485
0.534300	-5.629806
0.534400	-5.871301
0.534500	-6.035219
0.534600	-6.036842
0.534700	-6.030674
0.534800	-6.076442
0.534900	-6.166353
0.535000	-6.253019
0.535100	-6.301708
0.535200	-6.331895
0.535300	-6.415315
0.535400	-6.421482
0.535500	-6.420833
0.535600	-6.420833
0.535700	-6.421157
0.535800	-6.420833
0.535900	-6.420833
0.536000	-6.420508
0.536100	-6.420508
0.536200	-6.420833
0.536300	-6.420833
0.536400	-6.421157
0.536500	-6.420833
0.536600	-6.420183
0.536700	-6.419859
0.536800	-6.419534
0.536900	-6.420508
0.537000	-6.420508
0.537100	-6.420183
0.537200	-6.419210
0.537300	-6.418885
0.537400	-6.418560
0.537500	-6.418560
0.537600	-6.418560
0.537700	-6.418560
0.537800	-6.418236
0.537900	-6.418560
0.538000	-6.418236
0.538100	-6.417911
0.538200	-6.417911
0.538300	-6.417911
0.538400	-6.417911
0.538500	-6.418236
0.538600	-6.418236
0.538700	-6.417262
0.538800	-6.417262
0.538900	-6.417262
0.539000	-6.417262
0.539100	-6.416938
0.539200	-5.746658
0.539300	-5.346115
0.539400	-5.267240
0.539500	-5.188365
0.539600	-5.069566
0.539700	-4.897859
0.539800	-4.719660
0.539900	-4.540813
0.540000	-4.434673
0.540100	-4.367808
0.540200	-4.344438
0.540300	-4.326261
0.540400	-4.274327
0.540500	-4.319120
0.540600	-4.221744
0.540700	-4.175004
0.540800	-4.173705
0.540900	-4.112683
0.541000	-4.175653
0.541100	-4.093533
0.541200	-4.225639
0.541300	-4.040301
0.541400	-3.786475
0.541500	-3.392428
0.541600	-3.333678
0.541700	-3.679361
0.541800	-3.986744
0.541900	-3.993560
0.542000	-3.676440
0.542100	-3.494348
0.542200	-3.301545
0.542300	-3.517069
0.542400	-3.695591
0.542500	-3.780632
0.542600	-3.631972
0.542700	-3.422939
0.542800	-3.295702
0.542900	-3.363865
0.543000	-3.460591
0.543100	-3.507656
0.543200	-3.551475
0.543300	-3.550826
0.543400	-3.515446
0.543500	-3.537193
0.543600	-3.575819
0.543700	-3.553747
0.543800	-3.671247
0.543900	-3.757262
0.544000	-3.752393
0.544100	-3.852365
0.544200	-3.871191
0.544300	-3.860480
0.544400	-3.788422
0.544500	-3.882552
0.544600	-4.104569
0.544700	-4.429480
0.544800	-4.342166
0.544900	-4.127290
0.545000	-3.911115
0.545100	-4.030563
0.545200	-4.294452
0.545300	-4.621310
0.545400	-4.572622
0.545500	-4.359369
0.545600	-4.169810
0.545700	-4.196427
0.545800	-4.446033
0.545900	-4.595019
0.546000	-4.558990
0.546100	-4.554770
0.546200	-4.512574
0.546300	-4.619687
0.546400	-4.688500
0.546500	-4.770945
0.546600	-4.746601
0.546700	-4.722257
0.546800	-4.776139
0.546900	-4.825151
0.547000	-4.841381
0.547100	-4.808273
0.547200	-4.793342
0.547300	-4.765103
0.547400	-4.885200
0.547500	-5.014386
0.547600	-5.029966
0.547700	-5.019904
0.547800	-4.905324
0.547900	-4.931616
0.548000	-4.950767
0.548100	-4.937783
0.548200	-4.950442
0.548300	-4.962776
0.548400	-4.968619
0.548500	-4.958232
0.548600	-4.966347
0.548700	-4.958557
0.548800	-4.982576
0.548900	-4.997507
0.549000	-5.031914
0.549100	-5.063723
0.549200	-5.059504
0.549300	-5.115982
0.549400	-5.131238
0.549500	-5.226342
0.549600	-5.240948
0.549700	-5.445764
0.549800	-5.834297
0.549900	-5.984258
0.550000	-5.917717
0.550100	-5.586311
0.550200	-5.509708
0.550300	-5.711927
0.550400	-6.129674
0.550500	-6.370521
0.550600	-6.404278
0.550700	-6.183881
0.550800	-6.100461
0.550900	-6.168625
0.551000	-6.379934
0.551100	-6.420833
0.551200	-6.421482
0.551300	-6.420508
0.551400	-6.420833
0.551500	-6.421482
0.551600	-6.421157
0.551700	-6.421157
0.551800	-6.421157
0.551900	-6.420833
0.552000	-6.420508
0.552100	-6.420508
0.552200	-6.420183
0.552300	-6.419859
0.552400	-6.420183
0.552500	-6.419534
0.552600	-6.419859
0.552700	-6.418885
0.552800	-6.418885
0.552900	-6.419534
0.553000	-6.419859
0.553100	-6.419210
0.553200	-6.419210
0.553300	-6.418560
0.553400	-6.417911
0.553500	-6.418560
0.553600	-6.418885
0.553700	-6.418560
0.553800	-6.418560
0.553900	-6.418236
0.554000	-6.417262
0.554100	-6.417262
0.554200	-6.417587
0.554300	-6.417911
0.554400	-6.417587
0.554500	-6.417587
0.554600	-6.417587
0.554700	-6.417262
0.554800	-6.417262
0.554900	-6.417262
0.555000	-6.416938
0.555100	-6.415964
0.555200	-6.416288
0.555300	-6.415964
0.555400	-6.415964
0.555500	-5.732701
0.555600	-5.796969
0.555700	-5.653176
0.555800	-5.445764
0.555900	-5.362020
0.556000	-5.077680
0.556100	-5.087743
0.556200	-5.030615
0.556300	-4.924800
0.556400	-4.779060
0.556500	-4.624881
0.556600	-4.516469
0.556700	-4.410329
0.556800	-4.383713
0.556900	-4.378195
0.557000	-4.355798
0.557100	-4.354500
0.557200	-4.364238
0.557300	-4.267186
0.557400	-4.260370
0.557500	-4.204541
0.557600	-4.216551
0.557700	-4.273029
0.557800	-4.272704
0.557900	-4.324638
0.558000	-4.153906
0.558100	-3.908519
0.558200	-3.535246
0.558300	-3.681634
0.558400	-3.985121
0.558500	-4.252255
0.558600	-4.074058
0.558700	-3.798160
0.558800	-3.619962
0.558900	-3.517069
0.559000	-3.734866
0.559100	-3.902027
0.559200	-3.938705
0.559300	-3.753042
0.559400	-3.661509
0.559500	-3.506358
0.559600	-3.538491
0.559700	-3.583609
0.559800	-3.600163
0.559900	-3.632946
0.560000	-3.620287
0.560100	-3.631323
0.560200	-3.621910
0.560300	-3.644955
0.560400	-3.629700
0.560500	-3.820232
0.560600	-3.838408
0.560700	-3.854313
0.560800	-3.950390
0.560900	-3.949741
0.561000	-3.900404
0.561100	-3.904948
0.561200	-3.946495
0.561300	-4.348982
0.561400	-4.476545
0.561500	-4.375923
0.561600	-4.083471
0.561700	-3.996157
0.561800	-4.128263
0.561900	-4.505433
0.562000	-4.714467
0.562100	-4.655717
0.562200	-4.400591
0.562300	-4.278871
0.562400	-4.403513
0.562500	-4.602160
0.562600	-4.706352
0.562700	-4.696939
0.562800	-4.678762
0.562900	-4.649874
0.563000	-4.765103
0.563100	-4.837486
0.563200	-4.849171
0.563300	-4.807299
0.563400	-4.821905
0.563500	-4.900456
0.563600	-4.972839
0.563700	-4.970566
0.563800	-4.914413
0.563900	-4.873190
0.564000	-4.920255
0.564100	-5.074759
0.564200	-5.148765
0.564300	-5.161100
0.564400	-5.122798
0.564500	-5.057231
0.564600	-5.087094
0.564700	-5.077031
0.564800	-5.082549
0.564900	-5.057881
0.565000	-5.044248
0.565100	-5.044897
0.565200	-5.040677
0.565300	-5.033537
0.565400	-5.031589
0.565500	-5.030940
0.565600	-5.017632
0.565700	-5.021851
0.565800	-5.017307
0.565900	-5.038081
0.566000	-5.027369
0.566100	-5.089366
0.566200	-5.101375
0.566300	-5.177978
0.566400	-5.400971
0.566500	-5.785609
0.566600	-5.869353
0.566700	-5.702189
0.566800	-5.405515
0.566900	-5.392856
0.567000	-5.660317
0.567100	-5.986205
0.567200	-6.192970
0.567300	-6.115068
0.567400	-5.916743
0.567500	-5.858966
0.567600	-5.940438
0.567700	-6.180311
0.567800	-6.341957
0.567900	-6.385128
0.568000	-6.313718
0.568100	-6.270871
0.568200	-6.294242
0.568300	-6.345203
0.568400	-6.398111
0.568500	-6.401033
0.568600	-6.421806
0.568700	-6.420183
0.568800	-6.420508
0.568900	-6.419859
0.569000	-6.419534
0.569100	-6.419534
0.569200	-6.419534
0.569300	-6.419210
0.569400	-6.418885
0.569500	-6.418885
0.569600	-6.418560
0.569700	-6.418560
0.569800	-6.418560
0.569900	-6.418560
0.570000	-6.418236
0.570100	-6.417911
0.570200	-6.418236
0.570300	-6.417587
0.570400	-6.417911
0.570500	-6.417587
0.570600	-6.417587
0.570700	-6.416938
0.570800	-6.416938
0.570900	-6.416938
0.571000	-6.416613
0.571100	-6.416938
0.571200	-6.416613
0.571300	-6.416288
0.571400	-6.416288
0.571500	-6.416613
0.571600	-6.416288
0.571700	-6.415964
0.571800	-6.416288
0.571900	-6.043333
0.572000	-5.760615
0.572100	-5.716147
0.572200	-5.687583
0.572300	-5.670380
0.572400	-5.499321
0.572500	-5.304892
0.572600	-5.093261
0.572700	-4.922852
0.572800	-4.972189
0.572900	-4.905324
0.573000	-4.822555
0.573100	-4.684605
0.573200	-4.525557
0.573300	-4.411303
0.573400	-4.354175
0.573500	-4.331779
0.573600	-4.354825
0.573700	-4.323989
0.573800	-4.380792
0.573900	-4.301268
0.574000	-4.281793
0.574100	-4.225315
0.574200	-4.225639
0.574300	-4.270432
0.574400	-4.313278
0.574500	-4.395723
0.574600	-4.337946
0.574700	-4.191233
0.574800	-3.787448
0.574900	-3.658913
0.575000	-3.801406
0.575100	-4.235377
0.575200	-4.412276
0.575300	-4.223367
0.575400	-3.952338
0.575500	-3.799458
0.575600	-3.838408
0.575700	-4.088989
0.575800	-4.265888
0.575900	-4.292829
0.576000	-4.087366
0.576100	-3.927020
0.576200	-3.903001
0.576300	-3.912414
0.576400	-4.002324
0.576500	-4.094182
0.576600	-4.131509
0.576700	-4.099051
0.576800	-4.116254
0.576900	-4.070487
0.577000	-4.115280
0.577100	-4.154230
0.577200	-4.322041
0.577300	-4.291855
0.577400	-4.387932
0.577500	-4.500889
0.577600	-4.476545
0.577700	-4.455122
0.577800	-4.448630
0.577900	-4.560288
0.578000	-4.928045
0.578100	-5.007894
0.578200	-4.859557
0.578300	-4.623907
0.578400	-4.580412
0.578500	-4.800807
0.578600	-5.161424
0.578700	-5.298076
0.578800	-5.178627
0.578900	-4.911167
0.579000	-4.814440
0.579100	-4.949144
0.579200	-5.115333
0.579300	-5.208165
0.579400	-5.132860
0.579500	-5.137729
0.579600	-5.085795
0.579700	-5.162723
0.579800	-5.196480
0.579900	-5.239975
0.580000	-5.212709
0.580100	-5.204919
0.580200	-5.246142
0.580300	-5.240948
0.580400	-5.178627
0.580500	-5.095857
0.580600	-5.013412
0.580700	-5.054635
0.580800	-5.210762
0.580900	-5.210437
0.581000	-5.186093
0.581100	-4.975111
0.581200	-4.961153
0.581300	-4.982576
0.581400	-4.931291
0.581500	-4.905324
0.581600	-4.868321
0.581700	-4.831968
0.581800	-4.817361
0.581900	-4.773542
0.582000	-4.767050
0.582100	-4.735890
0.582200	-4.715441
0.582300	-4.690123
0.582400	-4.690123
0.582500	-4.694992
0.582600	-4.701808
0.582700	-4.713169
0.582800	-4.780358
0.582900	-4.833266
0.583000	-4.911167
0.583100	-5.185119
0.583200	-5.487636
0.583300	-5.513928
0.583400	-5.244194
0.583500	-5.036133
0.583600	-5.061776
0.583700	-5.372731
0.583800	-5.685311
0.583900	-5.791451
0.584000	-5.666484
0.584100	-5.461020
0.584200	-5.453229
0.584300	-5.608058
0.584400	-5.807356
0.584500	-5.978740
0.584600	-5.992373
0.584700	-5.945307
0.584800	-5.901487
0.584900	-5.929402
0.585000	-6.017691
0.585100	-6.066704
0.585200	-6.121884
0.585300	-6.170573
0.585400	-6.197514
0.585500	-6.259186
0.585600	-6.368249
0.585700	-6.375714
0.585800	-6.371170
0.585900	-6.416613
0.586000	-6.419859
0.586100	-6.418885
0.586200	-6.418885
0.586300	-6.418885
0.586400	-6.419210
0.586500	-6.418885
0.586600	-6.418560
0.586700	-6.417911
0.586800	-6.418236
0.586900	-6.418560
0.587000	-6.418236
0.587100	-6.418236
0.587200	-6.417587
0.587300	-6.416938
0.587400	-6.416288
0.587500	-6.416938
0.587600	-6.416938
0.587700	-6.416613
0.587800	-6.416613
0.587900	-6.416288
0.588000	-6.415964
0.588100	-6.416288
0.588200	-6.416288
0.588300	-6.416288
0.588400	-6.415639
0.588500	-6.416613
0.588600	-6.416613
0.588700	-6.416938
0.588800	-6.416613
0.588900	-6.416613
0.589000	-6.416938
0.589100	-6.416613
0.589200	-6.415964
0.589300	-6.415639
0.589400	-6.415639
0.589500	-6.391619
0.589600	-5.691478
0.589700	-5.561642
0.589800	-5.389285
0.589900	-5.206542
0.590000	-5.106569
0.590100	-5.038405
0.590200	-4.977058
0.590300	-4.930642
0.590400	-4.869295
0.590500	-4.871243
0.590600	-4.773542
0.590700	-4.682657
0.590800	-4.644031
0.590900	-4.589825
0.591000	-4.636891
0.591100	-4.596642
0.591200	-4.715441
0.591300	-4.627478
0.591400	-4.384362
0.591500	-4.021150
0.591600	-3.910142
0.591700	-4.182794
0.591800	-4.570350
0.591900	-4.644356
0.592000	-4.427857
0.592100	-4.161696
0.592200	-3.994209
0.592300	-4.119175
0.592400	-4.368133
0.592500	-4.519390
0.592600	-4.411627
0.592700	-4.223043
0.592800	-4.056205
0.592900	-4.052310
0.593000	-4.155204
0.593100	-4.290557
0.593200	-4.219148
0.593300	-4.185391
0.593400	-4.113008
0.593500	-4.106192
0.593600	-4.079900
0.593700	-4.075356
0.593800	-4.088339
0.593900	-4.017904
0.594000	-4.128263
0.594100	-4.151958
0.594200	-4.172407
0.594300	-4.064645
0.594400	-3.928643
0.594500	-3.937082
0.594600	-4.128913
0.594700	-4.421040
0.594800	-4.346061
0.594900	-4.127290
0.595000	-3.817310
0.595100	-3.822828
0.595200	-3.999078
0.595300	-4.336648
0.595400	-4.362939
0.595500	-4.208436
0.595600	-3.910791
0.595700	-3.802704
0.595800	-3.923125
0.595900	-4.059776
0.596000	-4.102946
0.596100	-4.078277
0.596200	-4.013685
0.596300	-3.959479
0.596400	-3.997131
0.596500	-4.070812
0.596600	-4.098402
0.596700	-4.046468
0.596800	-4.000377
0.596900	-4.013360
0.597000	-3.995508
0.597100	-3.924099
0.597200	-3.871841
0.597300	-3.792642
0.597400	-3.850418
0.597500	-3.991937
0.597600	-3.986744
0.597700	-3.983174
0.597800	-3.800107
0.597900	-3.827048
0.598000	-3.869893
0.598100	-3.852365
0.598200	-3.856910
0.598300	-3.861129
0.598400	-3.837759
0.598500	-3.858533
0.598600	-3.843277
0.598700	-3.915335
0.598800	-3.906247
0.598900	-3.952013
0.599000	-3.991613
