LabVIEW Measurement	
Writer_Version	2
Reader_Version	2
Separator	Tab
Decimal_Separator	.
Multi_Headings	Yes
X_Columns	One
Time_Pref	Relative
Operator	as989
Description	Time Domain Data
Date	1903/12/31
Time	19:00:00
***End_of_Header***	
	
Channels	1	
Samples	15000	
Date	1903/12/31	
Time	19:00:00	
X_Dimension	Time	
X0	0.0000000000000000E+0	
Delta_X	0.000100	
***End_of_Header***		
X_Value	Untitled	Comment
0.000000	-3.258699	Tare Values:0.000000, 0.000000, 0.000000, 0.000000\0D\0A
0.000100	-3.184694
0.000200	-3.157104
0.000300	-3.219749
0.000400	-3.305440
0.000500	-3.310958
0.000600	-3.315177
0.000700	-3.328161
0.000800	-3.386261
0.000900	-3.458319
0.001000	-3.486233
0.001100	-3.471952
0.001200	-3.459942
0.001300	-3.472276
0.001400	-3.540114
0.001500	-3.545957
0.001600	-3.459617
0.001700	-3.229487
0.001800	-3.195081
0.001900	-3.359970
0.002000	-3.657290
0.002100	-3.844575
0.002200	-3.719610
0.002300	-3.403789
0.002400	-3.264542
0.002500	-3.424238
0.002600	-3.694292
0.002700	-3.885798
0.002800	-3.876060
0.002900	-3.720259
0.003000	-3.589451
0.003100	-3.557642
0.003200	-3.617041
0.003300	-3.660536
0.003400	-3.642683
0.003500	-3.569002
0.003600	-3.495322
0.003700	-3.449555
0.003800	-3.382042
0.003900	-3.243769
0.004000	-3.048369
0.004100	-2.929895
0.004200	-2.914315
0.004300	-2.882506
0.004400	-2.845828
0.004500	-2.611154
0.004600	-2.451459
0.004700	-2.192117
0.004800	-2.103181
0.004900	-2.103830
0.005000	-2.039563
0.005100	-1.904861
0.005200	-1.760746
0.005300	-1.589042
0.005400	-1.511142
0.005500	-1.460832
0.005600	-1.422531
0.005700	-1.426102
0.005800	-1.343658
0.005900	-1.399810
0.006000	-1.300488
0.006100	-1.277118
0.006200	-1.206035
0.006300	-1.271276
0.006400	-1.220316
0.006500	-1.337815
0.006600	-1.270951
0.006700	-1.290426
0.006800	-0.959677
0.006900	-0.710398
0.007000	-0.389386
0.007100	-0.799009
0.007200	-1.143715
0.007300	-1.182340
0.007400	-0.902550
0.007500	-0.548756
0.007600	-0.393606
0.007700	-0.384518
0.007800	-0.700660
0.007900	-0.858083
0.008000	-0.838283
0.008100	-0.522790
0.008200	-0.408537
0.008300	-0.392308
0.008400	-0.434179
0.008500	-0.520518
0.008600	-0.522465
0.008700	-0.500393
0.008800	-0.470207
0.008900	-0.474427
0.009000	-0.501367
0.009100	-0.502666
0.009200	-0.526035
0.009300	-0.600365
0.009400	-0.780832
0.009500	-0.795763
0.009600	-0.867171
0.009700	-0.806799
0.009800	-0.799333
0.009900	-0.742856
0.010000	-1.011285
0.010100	-1.290751
0.010200	-1.342684
0.010300	-1.188507
0.010400	-0.880479
0.010500	-0.870417
0.010600	-1.110608
0.010700	-1.479982
0.010800	-1.576708
0.010900	-1.369949
0.011000	-1.148584
0.011100	-1.120020
0.011200	-1.299190
0.011300	-1.479009
0.011400	-1.530617
0.011500	-1.522178
0.011600	-1.477710
0.011700	-1.484526
0.011800	-1.554961
0.011900	-1.641300
0.012000	-1.638379
0.012100	-1.609815
0.012200	-1.654283
0.012300	-1.723095
0.012400	-1.759448
0.012500	-1.709138
0.012600	-1.700049
0.012700	-1.673109
0.012800	-1.799696
0.012900	-1.976269
0.013000	-2.030150
0.013100	-1.997692
0.013200	-1.987305
0.013300	-1.923362
0.013400	-1.968479
0.013500	-1.945109
0.013600	-1.948030
0.013700	-1.974322
0.013800	-1.958742
0.013900	-1.981787
0.014000	-2.010026
0.014100	-2.003534
0.014200	-2.013921
0.014300	-2.040861
0.014400	-2.048976
0.014500	-2.084355
0.014600	-2.108699
0.014700	-2.115191
0.014800	-2.147000
0.014900	-2.147000
0.015000	-2.240804
0.015100	-2.251516
0.015200	-2.675422
0.015300	-2.946774
0.015400	-2.949046
0.015500	-2.625760
0.015600	-2.409263
0.015700	-2.531631
0.015800	-2.917886
0.015900	-3.299272
0.016000	-3.317125
0.016100	-3.137629
0.016200	-2.948721
0.016300	-2.910420
0.016400	-3.123348
0.016500	-3.352829
0.016600	-3.466434
0.016700	-3.441441
0.016800	-3.339196
0.016900	-3.333678
0.017000	-3.403789
0.017100	-3.479742
0.017200	-3.557317
0.017300	-3.521938
0.017400	-3.523236
0.017500	-3.527131
0.017600	-3.604382
0.017700	-3.636516
0.017800	-3.670598
0.017900	-3.654044
0.018000	-3.704030
0.018100	-3.719285
0.018200	-3.761482
0.018300	-3.650798
0.018400	-3.433001
0.018500	-3.452476
0.018600	-3.626129
0.018700	-3.878008
0.018800	-4.023098
0.018900	-3.832890
0.019000	-3.542711
0.019100	-3.442739
0.019200	-3.611199
0.019300	-3.885473
0.019400	-4.059127
0.019500	-4.001999
0.019600	-3.804976
0.019700	-3.680011
0.019800	-3.657939
0.019900	-3.743305
0.020000	-3.817959
0.020100	-3.784203
0.020200	-3.718961
0.020300	-3.663781
0.020400	-3.595294
0.020500	-3.494023
0.020600	-3.320370
0.020700	-3.191510
0.020800	-3.119777
0.020900	-3.098030
0.021000	-3.051939
0.021100	-2.974039
0.021200	-2.757217
0.021300	-2.631278
0.021400	-2.338829
0.021500	-2.317081
0.021600	-2.273263
0.021700	-2.163878
0.021800	-2.038914
0.021900	-1.892527
0.022000	-1.696803
0.022100	-1.637729
0.022200	-1.563075
0.022300	-1.599753
0.022400	-1.565347
0.022500	-1.542951
0.022600	-1.525748
0.022700	-1.493615
0.022800	-1.423830
0.022900	-1.458884
0.023000	-1.410522
0.023100	-1.432593
0.023200	-1.442655
0.023300	-1.503352
0.023400	-1.328727
0.023500	-1.181367
0.023600	-0.679563
0.023700	-0.718512
0.023800	-0.988240
0.023900	-1.408574
0.024000	-1.338789
0.024100	-0.991486
0.024200	-0.752269
0.024300	-0.544212
0.024400	-0.782131
0.024500	-0.957405
0.024600	-1.080421
0.024700	-0.892813
0.024800	-0.655868
0.024900	-0.521167
0.025000	-0.516298
0.025100	-0.615620
0.025200	-0.603935
0.025300	-0.687677
0.025400	-0.605883
0.025500	-0.569854
0.025600	-0.532527
0.025700	-0.542265
0.025800	-0.592250
0.025900	-0.551677
0.026000	-0.787324
0.026100	-0.701959
0.026200	-0.923973
0.026300	-0.858083
0.026400	-0.829844
0.026500	-0.775314
0.026600	-0.794789
0.026700	-1.105090
0.026800	-1.321261
0.026900	-1.314121
0.027000	-1.101519
0.027100	-0.842503
0.027200	-0.919104
0.027300	-1.197596
0.027400	-1.473166
0.027500	-1.505949
0.027600	-1.337491
0.027700	-1.120994
0.027800	-1.088536
0.027900	-1.260889
0.028000	-1.442655
0.028100	-1.432918
0.028200	-1.464402
0.028300	-1.378063
0.028400	-1.435190
0.028500	-1.459858
0.028600	-1.525099
0.028700	-1.522827
0.028800	-1.508221
0.028900	-1.565023
0.029000	-1.612412
0.029100	-1.632211
0.029200	-1.585147
0.029300	-1.555285
0.029400	-1.542951
0.029500	-1.696479
0.029600	-1.818197
0.029700	-1.845787
0.029800	-1.840918
0.029900	-1.813004
0.030000	-1.793204
0.030100	-1.780221
0.030200	-1.770159
0.030300	-1.778598
0.030400	-1.796775
0.030500	-1.790608
0.030600	-1.762045
0.030700	-1.785090
0.030800	-1.809434
0.030900	-1.826312
0.031000	-1.843515
0.031100	-1.857796
0.031200	-1.853901
0.031300	-1.883439
0.031400	-1.910703
0.031500	-1.952575
0.031600	-2.002236
0.031700	-2.067152
0.031800	-2.244699
0.031900	-2.582266
0.032000	-2.839986
0.032100	-2.656271
0.032200	-2.388490
0.032300	-2.219382
0.032400	-2.453082
0.032500	-2.829924
0.032600	-3.138603
0.032700	-3.107768
0.032800	-2.902955
0.032900	-2.738066
0.033000	-2.816616
0.033100	-3.052588
0.033200	-3.280122
0.033300	-3.369058
0.033400	-3.297325
0.033500	-3.287263
0.033600	-3.304466
0.033700	-3.384638
0.033800	-3.422939
0.033900	-3.457345
0.034000	-3.491427
0.034100	-3.519016
0.034200	-3.554721
0.034300	-3.614120
0.034400	-3.589127
0.034500	-3.565107
0.034600	-3.567055
0.034700	-3.657614
0.034800	-3.700135
0.034900	-3.702732
0.035000	-3.505384
0.035100	-3.303492
0.035200	-3.397297
0.035300	-3.609900
0.035400	-3.872814
0.035500	-3.916309
0.035600	-3.672870
0.035700	-3.447608
0.035800	-3.415474
0.035900	-3.616717
0.036000	-3.873788
0.036100	-4.007842
0.036200	-3.916958
0.036300	-3.758885
0.036400	-3.667352
0.036500	-3.676765
0.036600	-3.746875
0.036700	-3.743629
0.036800	-3.720908
0.036900	-3.717987
0.037000	-3.644306
0.037100	-3.569652
0.037200	-3.489155
0.037300	-3.305764
0.037400	-3.180150
0.037500	-3.103548
0.037600	-3.061027
0.037700	-3.027595
0.037800	-2.860434
0.037900	-2.615374
0.038000	-2.463793
0.038100	-2.179134
0.038200	-2.171668
0.038300	-2.111945
0.038400	-1.998665
0.038500	-1.843190
0.038600	-1.742570
0.038700	-1.574436
0.038800	-1.534512
0.038900	-1.470245
0.039000	-1.465701
0.039100	-1.440383
0.039200	-1.449147
0.039300	-1.458560
0.039400	-1.387152
0.039500	-1.329376
0.039600	-1.298216
0.039700	-1.309901
0.039800	-1.313472
0.039900	-1.378388
0.040000	-1.324183
0.040100	-1.232651
0.040200	-0.870741
0.040300	-0.660088
0.040400	-0.528957
0.040500	-1.065166
0.040600	-1.216746
0.040700	-1.185911
0.040800	-0.848670
0.040900	-0.584460
0.041000	-0.517272
0.041100	-0.751295
0.041200	-0.941500
0.041300	-1.021348
0.041400	-0.839257
0.041500	-0.606856
0.041600	-0.523439
0.041700	-0.531553
0.041800	-0.608804
0.041900	-0.668202
0.042000	-0.650350
0.042100	-0.631525
0.042200	-0.591926
0.042300	-0.571477
0.042400	-0.583162
0.042500	-0.619840
0.042600	-0.602312
0.042700	-0.832765
0.042800	-0.770121
0.042900	-0.917157
0.043000	-0.873014
0.043100	-0.819457
0.043200	-0.798035
0.043300	-0.840555
0.043400	-1.185911
0.043500	-1.273223
0.043600	-1.255371
0.043700	-1.017453
0.043800	-0.808422
0.043900	-0.957080
0.044000	-1.247257
0.044100	-1.472517
0.044200	-1.434541
0.044300	-1.236221
0.044400	-1.068087
0.044500	-1.133978
0.044600	-1.324183
0.044700	-1.460183
0.044800	-1.431295
0.044900	-1.475763
0.045000	-1.416040
0.045100	-1.503352
0.045200	-1.579305
0.045300	-1.620527
0.045400	-1.625720
0.045500	-1.647467
0.045600	-1.716603
0.045700	-1.779572
0.045800	-1.780870
0.045900	-1.746789
0.046000	-1.689013
0.046100	-1.746140
0.046200	-1.931801
0.046300	-2.017491
0.046400	-2.027878
0.046500	-2.057740
0.046600	-1.964260
0.046700	-2.020412
0.046800	-2.018465
0.046900	-2.023009
0.047000	-2.024632
0.047100	-2.037291
0.047200	-2.033071
0.047300	-2.028527
0.047400	-2.043782
0.047500	-2.047677
0.047600	-2.041510
0.047700	-2.043782
0.047800	-2.045081
0.047900	-2.053845
0.048000	-2.041510
0.048100	-2.088575
0.048200	-2.080460
0.048300	-2.148298
0.048400	-2.201205
0.048500	-2.443344
0.048600	-2.828950
0.048700	-3.003251
0.048800	-2.775069
0.048900	-2.514428
0.049000	-2.406342
0.049100	-2.655622
0.049200	-3.110364
0.049300	-3.312580
0.049400	-3.277525
0.049500	-3.037008
0.049600	-2.877962
0.049700	-2.961380
0.049800	-3.210661
0.049900	-3.416123
0.050000	-3.470978
0.050100	-3.384638
0.050200	-3.340495
0.050300	-3.351531
0.050400	-3.430080
0.050500	-3.484286
0.050600	-3.476496
0.050700	-3.486558
0.050800	-3.511876
0.050900	-3.559914
0.051000	-3.598864
0.051100	-3.629051
0.051200	-3.578091
0.051300	-3.582960
0.051400	-3.629051
0.051500	-3.677739
0.051600	-3.702732
0.051700	-3.458319
0.051800	-3.318748
0.051900	-3.403464
0.052000	-3.639437
0.052100	-3.865673
0.052200	-3.827048
0.052300	-3.560888
0.052400	-3.321993
0.052500	-3.325888
0.052600	-3.555045
0.052700	-3.817635
0.052800	-3.922476
0.052900	-3.757587
0.053000	-3.592373
0.053100	-3.525508
0.053200	-3.524859
0.053300	-3.589451
0.053400	-3.607304
0.053500	-3.571275
0.053600	-3.508630
0.053700	-3.439493
0.053800	-3.370032
0.053900	-3.272007
0.054000	-3.097056
0.054100	-2.985075
0.054200	-2.963977
0.054300	-2.917237
0.054400	-2.926650
0.054500	-2.743584
0.054600	-2.535526
0.054700	-2.300528
0.054800	-2.159009
0.054900	-2.198609
0.055000	-2.134990
0.055100	-2.031448
0.055200	-1.883439
0.055300	-1.753930
0.055400	-1.625720
0.055500	-1.598455
0.055600	-1.521204
0.055700	-1.540679
0.055800	-1.478684
0.055900	-1.537758
0.056000	-1.470569
0.056100	-1.444603
0.056200	-1.381958
0.056300	-1.330999
0.056400	-1.398837
0.056500	-1.326455
0.056600	-1.522503
0.056700	-1.305032
0.056800	-1.273872
0.056900	-0.805176
0.057000	-0.651649
0.057100	-0.709100
0.057200	-1.170331
0.057300	-1.371247
0.057400	-1.163515
0.057500	-0.919104
0.057600	-0.628928
0.057700	-0.638990
0.057800	-0.894761
0.057900	-1.004145
0.058000	-1.053481
0.058100	-0.769472
0.058200	-0.673396
0.058300	-0.519544
0.058400	-0.684107
0.058500	-0.689625
0.058600	-0.645157
0.058700	-0.664307
0.058800	-0.616269
0.058900	-0.660737
0.059000	-0.650675
0.059100	-0.731171
0.059200	-0.668851
0.059300	-0.760384
0.059400	-0.800956
0.059500	-0.877233
0.059600	-0.947343
0.059700	-0.894436
0.059800	-0.824651
0.059900	-0.800632
0.060000	-0.937605
0.060100	-1.287180
0.060200	-1.368001
0.060300	-1.268679
0.060400	-0.993758
0.060500	-0.864250
0.060600	-1.047639
0.060700	-1.406951
0.060800	-1.592288
0.060900	-1.523152
0.061000	-1.272899
0.061100	-1.166760
0.061200	-1.257643
0.061300	-1.473815
0.061400	-1.560154
0.061500	-1.559830
0.061600	-1.528345
0.061700	-1.509195
0.061800	-1.588393
0.061900	-1.690961
0.062000	-1.696479
0.062100	-1.639028
0.062200	-1.663371
0.062300	-1.735104
0.062400	-1.791257
0.062500	-1.766264
0.062600	-1.759123
0.062700	-1.710111
0.062800	-1.757176
0.062900	-1.964260
0.063000	-2.039887
0.063100	-2.028852
0.063200	-2.008727
0.063300	-1.893501
0.063400	-1.963610
0.063500	-1.946083
0.063600	-1.940241
0.063700	-1.925959
0.063800	-1.932775
0.063900	-1.926608
0.064000	-1.941214
0.064100	-1.933424
0.064200	-1.932451
0.064300	-1.920766
0.064400	-1.954847
0.064500	-1.968155
0.064600	-1.957119
0.064700	-1.954847
0.064800	-1.992498
0.064900	-2.045405
0.065000	-2.089549
0.065100	-2.138885
0.065200	-2.412509
0.065300	-2.759813
0.065400	-2.857838
0.065500	-2.562142
0.065600	-2.354409
0.065700	-2.301501
0.065800	-2.660166
0.065900	-3.055185
0.066000	-3.192160
0.066100	-3.028244
0.066200	-2.814668
0.066300	-2.715345
0.066400	-2.916912
0.066500	-3.181773
0.066600	-3.332705
0.066700	-3.330108
0.066800	-3.248637
0.066900	-3.262594
0.067000	-3.335626
0.067100	-3.396972
0.067200	-3.431378
0.067300	-3.433001
0.067400	-3.439493
0.067500	-3.455398
0.067600	-3.544334
0.067700	-3.598864
0.067800	-3.574845
0.067900	-3.557967
0.068000	-3.539465
0.068100	-3.620287
0.068200	-3.657290
0.068300	-3.583284
0.068400	-3.350557
0.068500	-3.243119
0.068600	-3.411579
0.068700	-3.684230
0.068800	-3.872165
0.068900	-3.789071
0.069000	-3.517393
0.069100	-3.315502
0.069200	-3.368084
0.069300	-3.622884
0.069400	-3.901378
0.069500	-3.899106
0.069600	-3.707276
0.069700	-3.543036
0.069800	-3.494673
0.069900	-3.575170
0.070000	-3.626454
0.070100	-3.611523
0.070200	-3.534921
0.070300	-3.475847
0.070400	-3.424562
0.070500	-3.352829
0.070600	-3.268112
0.070700	-3.099653
0.070800	-2.999681
0.070900	-2.975337
0.071000	-2.928922
0.071100	-2.907175
0.071200	-2.694248
0.071300	-2.515727
0.071400	-2.220680
0.071500	-2.170694
0.071600	-2.177835
0.071700	-2.096689
0.071800	-1.950627
0.071900	-1.852603
0.072000	-1.654932
0.072100	-1.533214
0.072200	-1.480631
0.072300	-1.442980
0.072400	-1.444603
0.072500	-1.406627
0.072600	-1.391371
0.072700	-1.354693
0.072800	-1.260889
0.072900	-1.282312
0.073000	-1.229405
0.073100	-1.271276
0.073200	-1.250178
0.073300	-1.331324
0.073400	-1.254398
0.073500	-1.048612
0.073600	-0.699687
0.073700	-0.519868
0.073800	-0.696116
0.073900	-1.127486
0.074000	-1.162865
0.074100	-0.974932
0.074200	-0.671773
0.074300	-0.417950
0.074400	-0.530580
0.074500	-0.795438
0.074600	-0.928192
0.074700	-0.857109
0.074800	-0.675343
0.074900	-0.486436
0.075000	-0.472804
0.075100	-0.518570
0.075200	-0.604260
0.075300	-0.567257
0.075400	-0.592250
0.075500	-0.555572
0.075600	-0.581864
0.075700	-0.572775
0.075800	-0.614971
0.075900	-0.592250
0.076000	-0.719162
0.076100	-0.795438
0.076200	-0.827897
0.076300	-0.898006
0.076400	-0.852240
0.076500	-0.874312
0.076600	-0.820756
0.076700	-1.037577
0.076800	-1.360211
0.076900	-1.349176
0.077000	-1.269328
0.077100	-0.929815
0.077200	-0.921701
0.077300	-1.110608
0.077400	-1.502378
0.077500	-1.609815
0.077600	-1.507247
0.077700	-1.244335
0.077800	-1.110283
0.077900	-1.290751
0.078000	-1.484202
0.078100	-1.575734
0.078200	-1.590340
0.078300	-1.503677
0.078400	-1.521853
0.078500	-1.572813
0.078600	-1.694531
0.078700	-1.721796
0.078800	-1.691286
0.078900	-1.698102
0.079000	-1.746465
0.079100	-1.794503
0.079200	-1.757500
0.079300	-1.736078
0.079400	-1.742570
0.079500	-1.825663
0.079600	-1.996393
0.079700	-2.032097
0.079800	-2.038589
0.079900	-2.042484
0.080000	-1.978217
0.080100	-2.025281
0.080200	-2.016517
0.080300	-2.035992
0.080400	-2.054818
0.080500	-2.029501
0.080600	-2.044432
0.080700	-2.044432
0.080800	-2.047677
0.080900	-2.082083
0.081000	-2.062608
0.081100	-2.101234
0.081200	-2.102857
0.081300	-2.113243
0.081400	-2.153492
0.081500	-2.148947
0.081600	-2.225549
0.081700	-2.227172
0.081800	-2.329091
0.081900	-2.672500
0.082000	-2.936712
0.082100	-2.926650
0.082200	-2.540070
0.082300	-2.395631
0.082400	-2.383296
0.082500	-2.816940
0.082600	-3.176580
0.082700	-3.243769
0.082800	-3.074660
0.082900	-2.870821
0.083000	-2.826678
0.083100	-3.012015
0.083200	-3.230136
0.083300	-3.392104
0.083400	-3.358022
0.083500	-3.303167
0.083600	-3.282719
0.083700	-3.301869
0.083800	-3.340819
0.083900	-3.360944
0.084000	-3.369058
0.084100	-3.361593
0.084200	-3.415798
0.084300	-3.430729
0.084400	-3.490778
0.084500	-3.436896
0.084600	-3.462214
0.084700	-3.449880
0.084800	-3.550826
0.084900	-3.524859
0.085000	-3.402815
0.085100	-3.186642
0.085200	-3.196379
0.085300	-3.416123
0.085400	-3.704679
0.085500	-3.882877
0.085600	-3.714417
0.085700	-3.447608
0.085800	-3.297325
0.085900	-3.424238
0.086000	-3.698837
0.086100	-3.912738
0.086200	-3.912738
0.086300	-3.734866
0.086400	-3.592373
0.086500	-3.583284
0.086600	-3.663132
0.086700	-3.702732
0.086800	-3.677414
0.086900	-3.659886
0.087000	-3.608926
0.087100	-3.528754
0.087200	-3.413851
0.087300	-3.286938
0.087400	-3.163272
0.087500	-3.098030
0.087600	-3.092188
0.087700	-3.057457
0.087800	-2.984101
0.087900	-2.746506
0.088000	-2.602715
0.088100	-2.346294
0.088200	-2.337530
0.088300	-2.303449
0.088400	-2.201530
0.088500	-2.071697
0.088600	-1.973023
0.088700	-1.780221
0.088800	-1.711410
0.088900	-1.630264
0.089000	-1.631238
0.089100	-1.631562
0.089200	-1.571839
0.089300	-1.593911
0.089400	-1.521204
0.089500	-1.488421
0.089600	-1.396240
0.089700	-1.429997
0.089800	-1.404030
0.089900	-1.542302
0.090000	-1.434865
0.090100	-1.492641
0.090200	-1.123266
0.090300	-0.888269
0.090400	-0.575696
0.090500	-1.120020
0.090600	-1.427725
0.090700	-1.367028
0.090800	-1.098273
0.090900	-0.792517
0.091000	-0.633147
0.091100	-0.768498
0.091200	-1.066140
0.091300	-1.097949
0.091400	-0.933061
0.091500	-0.742532
0.091600	-0.540317
0.091700	-0.572775
0.091800	-0.625682
0.091900	-0.685081
0.092000	-0.698388
0.092100	-0.671448
0.092200	-0.655219
0.092300	-0.636393
0.092400	-0.647754
0.092500	-0.593224
0.092600	-0.624384
0.092700	-0.775314
0.092800	-0.829195
0.092900	-0.890541
0.093000	-0.915534
0.093100	-0.831142
0.093200	-0.778560
0.093300	-0.788298
0.093400	-1.091457
0.093500	-1.346579
0.093600	-1.342035
0.093700	-1.120994
0.093800	-0.827572
0.093900	-0.912288
0.094000	-1.172927
0.094100	-1.515686
0.094200	-1.550092
0.094300	-1.373844
0.094400	-1.113853
0.094500	-1.101844
0.094600	-1.291075
0.094700	-1.499782
0.094800	-1.528345
0.094900	-1.527371
0.095000	-1.459209
0.095100	-1.496861
0.095200	-1.572813
0.095300	-1.627992
0.095400	-1.615009
0.095500	-1.589367
0.095600	-1.623123
0.095700	-1.689987
0.095800	-1.707839
0.095900	-1.670512
0.096000	-1.609491
0.096100	-1.579629
0.096200	-1.737376
0.096300	-1.860393
0.096400	-1.872727
0.096500	-1.837023
0.096600	-1.732508
0.096700	-1.773405
0.096800	-1.775028
0.096900	-1.758150
0.097000	-1.776002
0.097100	-1.775352
0.097200	-1.760746
0.097300	-1.771457
0.097400	-1.786713
0.097500	-1.795477
0.097600	-1.792555
0.097700	-1.843839
0.097800	-1.825338
0.097900	-1.849357
0.098000	-1.836049
0.098100	-1.894799
0.098200	-1.875649
0.098300	-1.980164
0.098400	-1.988279
0.098500	-2.154465
0.098600	-2.503068
0.098700	-2.761761
0.098800	-2.672825
0.098900	-2.350189
0.099000	-2.192117
0.099100	-2.355707
0.099200	-2.790324
0.099300	-3.079853
0.099400	-3.109391
0.099500	-2.902306
0.099600	-2.710152
0.099700	-2.770525
0.099800	-2.996111
0.099900	-3.265191
0.100000	-3.302194
0.100100	-3.253506
0.100200	-3.224943
0.100300	-3.223969
0.100400	-3.312256
0.100500	-3.406385
0.100600	-3.439169
0.100700	-3.441441
0.100800	-3.445336
0.100900	-3.520639
0.101000	-3.591399
0.101100	-3.592697
0.101200	-3.612497
0.101300	-3.572573
0.101400	-3.662808
0.101500	-3.758560
0.101600	-3.785176
0.101700	-3.594645
0.101800	-3.367435
0.101900	-3.411903
0.102000	-3.630349
0.102100	-3.908843
0.102200	-3.986095
0.102300	-3.755639
0.102400	-3.467407
0.102500	-3.339521
0.102600	-3.510902
0.102700	-3.815687
0.102800	-3.989990
0.102900	-3.886447
0.103000	-3.683256
0.103100	-3.549527
0.103200	-3.533947
0.103300	-3.613795
0.103400	-3.675791
0.103500	-3.639437
0.103600	-3.599513
0.103700	-3.521938
0.103800	-3.424238
0.103900	-3.346013
0.104000	-3.224293
0.104100	-3.093486
0.104200	-3.009419
0.104300	-2.952616
0.104400	-2.946125
0.104500	-2.848425
0.104600	-2.604338
0.104700	-2.412834
0.104800	-2.177511
0.104900	-2.190819
0.105000	-2.148298
0.105100	-2.058713
0.105200	-1.931477
0.105300	-1.780870
0.105400	-1.582550
0.105500	-1.530293
0.105600	-1.504326
0.105700	-1.534512
0.105800	-1.510168
0.105900	-1.531915
0.106000	-1.500431
0.106100	-1.478359
0.106200	-1.381309
0.106300	-1.419285
0.106400	-1.336841
0.106500	-1.476087
0.106600	-1.425128
0.106700	-1.506273
0.106800	-1.333920
0.106900	-1.064517
0.107000	-0.706503
0.107100	-0.677291
0.107200	-1.124889
0.107300	-1.297892
0.107400	-1.330674
0.107500	-0.979152
0.107600	-0.741558
0.107700	-0.591276
0.107800	-0.840555
0.107900	-0.998951
0.108000	-1.082369
0.108100	-0.950264
0.108200	-0.646131
0.108300	-0.557520
0.108400	-0.590303
0.108500	-0.676317
0.108600	-0.707801
0.108700	-0.692546
0.108800	-0.640613
0.108900	-0.608804
0.109000	-0.599391
0.109100	-0.613348
0.109200	-0.629902
0.109300	-0.672746
0.109400	-0.844126
0.109500	-0.867820
0.109600	-0.901901
0.109700	-0.910340
0.109800	-0.785052
0.109900	-0.794140
0.110000	-0.741558
0.110100	-1.111581
0.110200	-1.294321
0.110300	-1.231028
0.110400	-0.973309
0.110500	-0.760708
0.110600	-0.838932
0.110700	-1.137223
0.110800	-1.387801
0.110900	-1.395266
0.111000	-1.202140
0.111100	-1.015180
0.111200	-1.021997
0.111300	-1.190130
0.111400	-1.346903
0.111500	-1.374818
0.111600	-1.412794
0.111700	-1.332297
0.111800	-1.373519
0.111900	-1.438760
0.112000	-1.512116
0.112100	-1.515037
0.112200	-1.538083
0.112300	-1.606569
0.112400	-1.669214
0.112500	-1.679925
0.112600	-1.644546
0.112700	-1.611763
0.112800	-1.635782
0.112900	-1.808135
0.113000	-1.930828
0.113100	-1.955171
0.113200	-1.918493
0.113300	-1.779247
0.113400	-1.853901
0.113500	-1.876622
0.113600	-1.882140
0.113700	-1.867534
0.113800	-1.853901
0.113900	-1.844164
0.114000	-1.834751
0.114100	-1.835076
0.114200	-1.847410
0.114300	-1.849682
0.114400	-1.872403
0.114500	-1.880193
0.114600	-1.880517
0.114700	-1.886684
0.114800	-1.933749
0.114900	-1.945434
0.115000	-2.008403
0.115100	-2.035019
0.115200	-2.292413
0.115300	-2.627059
0.115400	-2.815317
0.115500	-2.670228
0.115600	-2.347592
0.115700	-2.281702
0.115800	-2.483917
0.115900	-2.925676
0.116000	-3.126918
0.116100	-3.124971
0.116200	-2.895165
0.116300	-2.766954
0.116400	-2.898735
0.116500	-3.114259
0.116600	-3.346337
0.116700	-3.371330
0.116800	-3.327511
0.116900	-3.266489
0.117000	-3.304466
0.117100	-3.385937
0.117200	-3.408008
0.117300	-3.443713
0.117400	-3.457994
0.117500	-3.494023
0.117600	-3.542062
0.117700	-3.615743
0.117800	-3.546606
0.117900	-3.535895
0.118000	-3.545308
0.118100	-3.637165
0.118200	-3.648526
0.118300	-3.599838
0.118400	-3.425861
0.118500	-3.236303
0.118600	-3.364189
0.118700	-3.603084
0.118800	-3.847821
0.118900	-3.816012
0.119000	-3.571924
0.119100	-3.321344
0.119200	-3.309659
0.119300	-3.538167
0.119400	-3.837435
0.119500	-3.957207
0.119600	-3.828346
0.119700	-3.615743
0.119800	-3.543036
0.119900	-3.590750
0.120000	-3.660536
0.120100	-3.695915
0.120200	-3.679686
0.120300	-3.646578
0.120400	-3.577442
0.120500	-3.519341
0.120600	-3.433001
0.120700	-3.256103
0.120800	-3.120751
0.120900	-3.070440
0.121000	-3.034412
0.121100	-3.023051
0.121200	-2.868874
0.121300	-2.641016
0.121400	-2.386218
0.121500	-2.243076
0.121600	-2.274886
0.121700	-2.227496
0.121800	-2.115840
0.121900	-1.984708
0.122000	-1.827935
0.122100	-1.708164
0.122200	-1.647791
0.122300	-1.609491
0.122400	-1.641949
0.122500	-1.572488
0.122600	-1.609491
0.122700	-1.569242
0.122800	-1.516011
0.122900	-1.483877
0.123000	-1.413767
0.123100	-1.472517
0.123200	-1.427725
0.123300	-1.534837
0.123400	-1.417013
0.123500	-1.346254
0.123600	-1.023944
0.123700	-0.719811
0.123800	-0.809395
0.123900	-1.231352
0.124000	-1.428698
0.124100	-1.286531
0.124200	-0.982398
0.124300	-0.789596
0.124400	-0.680536
0.124500	-0.921701
0.124600	-1.084966
0.124700	-1.059324
0.124800	-0.888918
0.124900	-0.729873
0.125000	-0.638016
0.125100	-0.668202
0.125200	-0.735391
0.125300	-0.757462
0.125400	-0.729548
0.125500	-0.715267
0.125600	-0.701959
0.125700	-0.712345
0.125800	-0.712995
0.125900	-0.696766
0.126000	-0.683782
0.126100	-0.858732
0.126200	-0.906445
0.126300	-1.018751
0.126400	-0.977204
0.126500	-0.922999
0.126600	-0.890541
0.126700	-0.954484
0.126800	-1.309577
0.126900	-1.438436
0.127000	-1.360211
0.127100	-1.101519
0.127200	-0.926570
0.127300	-1.096651
0.127400	-1.428049
0.127500	-1.667591
0.127600	-1.626044
0.127700	-1.376765
0.127800	-1.207982
0.127900	-1.266083
0.128000	-1.466350
0.128100	-1.601376
0.128200	-1.596183
0.128300	-1.584498
0.128400	-1.474464
0.128500	-1.552040
0.128600	-1.606569
0.128700	-1.647791
0.128800	-1.601701
0.128900	-1.594235
0.129000	-1.637729
0.129100	-1.688364
0.129200	-1.653634
0.129300	-1.608192
0.129400	-1.588717
0.129500	-1.594884
0.129600	-1.773080
0.129700	-1.813329
0.129800	-1.817548
0.129900	-1.804889
0.130000	-1.677004
0.130100	-1.728613
0.130200	-1.733481
0.130300	-1.723419
0.130400	-1.677978
0.130500	-1.659152
0.130600	-1.672784
0.130700	-1.660126
0.130800	-1.674083
0.130900	-1.660126
0.131000	-1.663371
0.131100	-1.661749
0.131200	-1.697453
0.131300	-1.705892
0.131400	-1.702970
0.131500	-1.755228
0.131600	-1.822092
0.131700	-1.892202
0.131800	-1.933100
0.131900	-2.209644
0.132000	-2.526762
0.132100	-2.663412
0.132200	-2.393683
0.132300	-2.159009
0.132400	-2.109024
0.132500	-2.412509
0.132600	-2.790000
0.132700	-2.959757
0.132800	-2.886401
0.132900	-2.652052
0.133000	-2.552404
0.133100	-2.679641
0.133200	-2.931843
0.133300	-3.069142
0.133400	-3.104197
0.133500	-3.052588
0.133600	-3.056483
0.133700	-3.039930
0.133800	-3.119453
0.133900	-3.142823
0.134000	-3.167167
0.134100	-3.187291
0.134200	-3.219425
0.134300	-3.291158
0.134400	-3.369707
0.134500	-3.297974
0.134600	-3.306738
0.134700	-3.295053
0.134800	-3.400543
0.134900	-3.448906
0.135000	-3.435598
0.135100	-3.244742
0.135200	-3.166842
0.135300	-3.329459
0.135400	-3.563160
0.135500	-3.792966
0.135600	-3.745252
0.135700	-3.511551
0.135800	-3.281096
0.135900	-3.304790
0.136000	-3.534921
0.136100	-3.817310
0.136200	-3.881903
0.136300	-3.752069
0.136400	-3.591399
0.136500	-3.527131
0.136600	-3.549852
0.136700	-3.623857
0.136800	-3.610549
0.136900	-3.607953
0.137000	-3.565432
0.137100	-3.507331
0.137200	-3.412228
0.137300	-3.312580
0.137400	-3.151911
0.137500	-3.054860
0.137600	-3.041228
0.137700	-3.005848
0.137800	-2.978908
0.137900	-2.771823
0.138000	-2.565388
0.138100	-2.294361
0.138200	-2.226847
0.138300	-2.208671
0.138400	-2.131420
0.138500	-1.995420
0.138600	-1.902264
0.138700	-1.710111
0.138800	-1.613386
0.138900	-1.547820
0.139000	-1.477061
0.139100	-1.478035
0.139200	-1.418636
0.139300	-1.460832
0.139400	-1.376440
0.139500	-1.356316
0.139600	-1.302436
0.139700	-1.272574
0.139800	-1.322235
0.139900	-1.309901
0.140000	-1.341710
0.140100	-1.244011
0.140200	-1.077825
0.140300	-0.733443
0.140400	-0.620164
0.140500	-0.759734
0.140600	-1.260565
0.140700	-1.299514
0.140800	-1.105090
0.140900	-0.715267
0.141000	-0.597119
0.141100	-0.644832
0.141200	-0.910665
0.141300	-1.048288
0.141400	-0.969739
0.141500	-0.766226
0.141600	-0.584785
0.141700	-0.562064
0.141800	-0.599391
0.141900	-0.713968
0.142000	-0.650026
0.142100	-0.661711
0.142200	-0.636069
0.142300	-0.653921
0.142400	-0.663983
0.142500	-0.665930
0.142600	-0.673396
0.142700	-0.734742
0.142800	-0.930465
0.142900	-0.950589
0.143000	-1.011610
0.143100	-1.034980
0.143200	-0.939553
0.143300	-0.994732
0.143400	-1.071009
0.143500	-1.503677
0.143600	-1.482904
0.143700	-1.400460
0.143800	-1.100546
0.143900	-1.125214
0.144000	-1.280364
0.144100	-1.702321
0.144200	-1.716278
0.144300	-1.646818
0.144400	-1.384230
0.144500	-1.310875
0.144600	-1.493615
0.144700	-1.629615
0.144800	-1.664345
0.144900	-1.630264
0.145000	-1.604947
0.145100	-1.637405
0.145200	-1.731858
0.145300	-1.828909
0.145400	-1.862341
0.145500	-1.805863
0.145600	-1.852603
0.145700	-1.883114
0.145800	-1.907133
0.145900	-1.847410
0.146000	-1.795152
0.146100	-1.747763
0.146200	-1.802293
0.146300	-1.979840
0.146400	-2.006131
0.146500	-1.992174
0.146600	-1.831830
0.146700	-1.857796
0.146800	-1.909081
0.146900	-1.901291
0.147000	-1.894474
0.147100	-1.911353
0.147200	-1.888956
0.147300	-1.940890
0.147400	-1.944785
0.147500	-1.985033
0.147600	-1.990551
0.147700	-2.020737
0.147800	-2.028527
0.147900	-2.047677
0.148000	-2.074618
0.148100	-2.111620
0.148200	-2.151869
0.148300	-2.204127
0.148400	-2.269692
0.148500	-2.336232
0.148600	-2.672176
0.148700	-3.000006
0.148800	-2.876988
0.148900	-2.681589
0.149000	-2.384270
0.149100	-2.521244
0.149200	-2.856864
0.149300	-3.198327
0.149400	-3.288886
0.149500	-3.120102
0.149600	-2.914965
0.149700	-2.828301
0.149800	-3.062001
0.149900	-3.284017
0.150000	-3.422615
0.150100	-3.377822
0.150200	-3.349908
0.150300	-3.339196
0.150400	-3.390805
0.150500	-3.454099
0.150600	-3.488830
0.150700	-3.463837
0.150800	-3.435923
0.150900	-3.467083
0.151000	-3.536219
0.151100	-3.616067
0.151200	-3.570625
0.151300	-3.563485
0.151400	-3.580688
0.151500	-3.627752
0.151600	-3.637490
0.151700	-3.478443
0.151800	-3.272657
0.151900	-3.254480
0.152000	-3.404113
0.152100	-3.692020
0.152200	-3.838733
0.152300	-3.675142
0.152400	-3.366462
0.152500	-3.186966
0.152600	-3.331406
0.152700	-3.612497
0.152800	-3.833540
0.152900	-3.769921
0.153000	-3.556019
0.153100	-3.439493
0.153200	-3.431054
0.153300	-3.498243
0.153400	-3.547580
0.153500	-3.523885
0.153600	-3.479092
0.153700	-3.388209
0.153800	-3.327836
0.153900	-3.248962
0.154000	-3.084398
0.154100	-2.952616
0.154200	-2.868224
0.154300	-2.846802
0.154400	-2.824406
0.154500	-2.783833
0.154600	-2.578047
0.154700	-2.427115
0.154800	-2.233664
0.154900	-2.121358
0.155000	-2.083706
0.155100	-2.010026
0.155200	-1.894474
0.155300	-1.783792
0.155400	-1.590016
0.155500	-1.530942
0.155600	-1.479982
0.155700	-1.499457
0.155800	-1.477061
0.155900	-1.414741
0.156000	-1.446550
0.156100	-1.386503
0.156200	-1.369300
0.156300	-1.325806
0.156400	-1.399161
0.156500	-1.364756
0.156600	-1.482904
0.156700	-1.463753
0.156800	-1.404355
0.156900	-1.154751
0.157000	-0.702608
0.157100	-0.712995
0.157200	-0.952861
0.157300	-1.484202
0.157400	-1.394293
0.157500	-1.258617
0.157600	-0.794465
0.157700	-0.668527
0.157800	-0.738961
0.157900	-0.987266
0.158000	-1.096001
0.158100	-0.976555
0.158200	-0.773691
0.158300	-0.564985
0.158400	-0.625357
0.158500	-0.628279
0.158600	-0.742532
0.158700	-0.702608
0.158800	-0.678264
0.158900	-0.597768
0.159000	-0.595171
0.159100	-0.638990
0.159200	-0.673720
0.159300	-0.696116
0.159400	-0.798035
0.159500	-0.901901
0.159600	-0.912937
0.159700	-0.964870
0.159800	-0.928192
0.159900	-0.890216
0.160000	-0.912937
0.160100	-1.128135
0.160200	-1.494588
0.160300	-1.463104
0.160400	-1.279715
0.160500	-0.979476
0.160600	-0.990512
0.160700	-1.278092
0.160800	-1.606894
0.160900	-1.664994
0.161000	-1.522178
0.161100	-1.277767
0.161200	-1.195648
0.161300	-1.373519
0.161400	-1.576059
0.161500	-1.639352
0.161600	-1.649090
0.161700	-1.550417
0.161800	-1.566321
0.161900	-1.617605
0.162000	-1.673109
0.162100	-1.687391
0.162200	-1.671161
0.162300	-1.710111
0.162400	-1.760422
0.162500	-1.767887
0.162600	-1.728937
0.162700	-1.698751
0.162800	-1.695181
0.162900	-1.816250
0.163000	-1.940565
0.163100	-1.961988
0.163200	-1.944460
0.163300	-1.956470
0.163400	-1.888632
0.163500	-1.905186
0.163600	-1.895448
0.163700	-1.877271
0.163800	-1.879868
0.163900	-1.862016
0.164000	-1.865911
0.164100	-1.878245
0.164200	-1.861691
0.164300	-1.882789
0.164400	-1.888307
0.164500	-1.901940
0.164600	-1.934398
0.164700	-1.904861
0.164800	-1.949329
0.164900	-1.895773
0.165000	-1.953873
0.165100	-1.976269
0.165200	-2.121033
0.165300	-2.473206
0.165400	-2.672500
0.165500	-2.590381
0.165600	-2.224575
0.165700	-2.087601
0.165800	-2.163878
0.165900	-2.618944
0.166000	-2.920158
0.166100	-2.941256
0.166200	-2.726057
0.166300	-2.522218
0.166400	-2.567011
0.166500	-2.797465
0.166600	-3.068493
0.166700	-3.166842
0.166800	-3.116856
0.166900	-3.041552
0.167000	-3.046097
0.167100	-3.115882
0.167200	-3.190861
0.167300	-3.218775
0.167400	-3.240847
0.167500	-3.200274
0.167600	-3.272657
0.167700	-3.317125
0.167800	-3.392428
0.167900	-3.313230
0.168000	-3.323292
0.168100	-3.391779
0.168200	-3.474548
0.168300	-3.465135
0.168400	-3.281420
0.168500	-3.094135
0.168600	-3.135682
0.168700	-3.337573
0.168800	-3.618664
0.168900	-3.717013
0.169000	-3.506358
0.169100	-3.276552
0.169200	-3.212608
0.169300	-3.408982
0.169400	-3.695915
0.169500	-3.866647
0.169600	-3.806274
0.169700	-3.622884
0.169800	-3.494997
0.169900	-3.492400
0.170000	-3.551475
0.170100	-3.592373
0.170200	-3.565757
0.170300	-3.543036
0.170400	-3.457994
0.170500	-3.352504
0.170600	-3.259349
0.170700	-3.078230
0.170800	-2.917561
0.170900	-2.840310
0.171000	-2.810124
0.171100	-2.813694
0.171200	-2.713073
0.171300	-2.503717
0.171400	-2.386218
0.171500	-2.104155
0.171600	-2.125902
0.171700	-2.058064
0.171800	-2.028527
0.171900	-1.892851
0.172000	-1.788660
0.172100	-1.613061
0.172200	-1.552040
0.172300	-1.503352
0.172400	-1.492966
0.172500	-1.503028
0.172600	-1.468946
0.172700	-1.498159
0.172800	-1.467973
0.172900	-1.375791
0.173000	-1.381958
0.173100	-1.326779
0.173200	-1.416364
0.173300	-1.370598
0.173400	-1.526398
0.173500	-1.338789
0.173600	-1.164488
0.173700	-0.735066
0.173800	-0.725329
0.173900	-1.046990
0.174000	-1.383581
0.174100	-1.293997
0.174200	-0.992135
0.174300	-0.786350
0.174400	-0.659114
0.174500	-0.852240
0.174600	-1.013233
0.174700	-1.159620
0.174800	-0.945720
0.174900	-0.762656
0.175000	-0.626656
0.175100	-0.676966
0.175200	-0.747400
0.175300	-0.761357
0.175400	-0.749672
0.175500	-0.690923
0.175600	-0.692546
0.175700	-0.699362
0.175800	-0.726627
0.175900	-0.681835
0.176000	-0.688326
0.176100	-0.775314
0.176200	-0.903200
0.176300	-0.939553
0.176400	-0.958379
0.176500	-0.896708
0.176600	-0.877558
0.176700	-0.952212
0.176800	-1.242063
0.176900	-1.487123
0.177000	-1.410522
0.177100	-1.242063
0.177200	-0.945071
0.177300	-1.092756
0.177400	-1.353720
0.177500	-1.643247
0.177600	-1.608192
0.177700	-1.410846
0.177800	-1.175524
0.177900	-1.164813
0.178000	-1.342035
0.178100	-1.495887
0.178200	-1.494264
0.178300	-1.492966
0.178400	-1.366378
0.178500	-1.413118
0.178600	-1.474140
0.178700	-1.509195
0.178800	-1.504326
0.178900	-1.499782
0.179000	-1.530942
0.179100	-1.596832
0.179200	-1.616956
0.179300	-1.601701
0.179400	-1.595534
0.179500	-1.574760
0.179600	-1.756202
0.179700	-1.848059
0.179800	-1.867859
0.179900	-1.853901
0.180000	-1.817548
0.180100	-1.798073
0.180200	-1.807811
0.180300	-1.806837
0.180400	-1.782169
0.180500	-1.773405
0.180600	-1.789309
0.180700	-1.766589
0.180800	-1.781195
0.180900	-1.777625
0.181000	-1.769835
0.181100	-1.816574
0.181200	-1.795152
0.181300	-1.820469
0.181400	-1.849033
0.181500	-1.834426
0.181600	-1.874675
0.181700	-1.885711
0.181800	-1.993472
0.181900	-2.141482
0.182000	-2.528061
0.182100	-2.722811
0.182200	-2.566362
0.182300	-2.280728
0.182400	-2.093119
0.182500	-2.378103
0.182600	-2.772148
0.182700	-3.037008
0.182800	-3.019805
0.182900	-2.802659
0.183000	-2.608233
0.183100	-2.690353
0.183200	-2.954564
0.183300	-3.221048
0.183400	-3.282069
0.183500	-3.210985
0.183600	-3.142823
0.183700	-3.188589
0.183800	-3.259998
0.183900	-3.326538
0.184000	-3.346662
0.184100	-3.350232
0.184200	-3.373278
0.184300	-3.436572
0.184400	-3.529403
0.184500	-3.489479
0.184600	-3.505059
0.184700	-3.496945
0.184800	-3.574845
0.184900	-3.600487
0.185000	-3.590425
0.185100	-3.381392
0.185200	-3.222671
0.185300	-3.340819
0.185400	-3.531675
0.185500	-3.765377
0.185600	-3.802055
0.185700	-3.565107
0.185800	-3.326538
0.185900	-3.263568
0.186000	-3.472925
0.186100	-3.784203
0.186200	-3.896834
0.186300	-3.813415
0.186400	-3.631323
0.186500	-3.501489
0.186600	-3.493050
0.186700	-3.549527
0.186800	-3.599838
0.186900	-3.590101
0.187000	-3.554072
0.187100	-3.470004
0.187200	-3.391455
0.187300	-3.280771
0.187400	-3.118803
0.187500	-2.986698
0.187600	-2.970468
0.187700	-2.933466
0.187800	-2.929895
0.187900	-2.781236
0.188000	-2.559545
0.188100	-2.431335
0.188200	-2.203153
0.188300	-2.232690
0.188400	-2.176537
0.188500	-2.095067
0.188600	-1.975945
0.188700	-1.841892
0.188800	-1.686417
0.188900	-1.656880
0.189000	-1.560154
0.189100	-1.620202
0.189200	-1.567620
0.189300	-1.619228
0.189400	-1.589367
0.189500	-1.499133
0.189600	-1.502703
0.189700	-1.373195
0.189800	-1.490044
0.189900	-1.411171
0.190000	-1.515037
0.190100	-1.442006
0.190200	-1.332297
0.190300	-1.025892
0.190400	-0.738637
0.190500	-0.866846
0.190600	-1.249204
0.190700	-1.471868
0.190800	-1.328078
0.190900	-0.960651
0.191000	-0.820107
0.191100	-0.709424
0.191200	-0.981099
0.191300	-1.097624
0.191400	-1.143066
0.191500	-0.972336
0.191600	-0.733119
0.191700	-0.725653
0.191800	-0.701310
0.191900	-0.774665
0.192000	-0.760708
0.192100	-0.774341
0.192200	-0.787324
0.192300	-0.776937
0.192400	-0.767849
0.192500	-0.774341
0.192600	-0.755839
0.192700	-0.815887
0.192800	-0.961300
0.192900	-0.997004
0.193000	-0.978827
0.193100	-1.028488
0.193200	-0.888918
0.193300	-0.975581
0.193400	-0.943448
0.193500	-1.402732
0.193600	-1.397214
0.193700	-1.341710
0.193800	-1.076851
0.193900	-0.860030
0.194000	-1.013233
0.194100	-1.290751
0.194200	-1.500106
0.194300	-1.388775
0.194400	-1.227457
0.194500	-1.059973
0.194600	-1.124240
0.194700	-1.248230
0.194800	-1.362159
0.194900	-1.338140
0.195000	-1.388450
0.195100	-1.337815
0.195200	-1.426102
0.195300	-1.462779
0.195400	-1.463429
0.195500	-1.407925
0.195600	-1.431619
0.195700	-1.513414
0.195800	-1.582875
0.195900	-1.566646
0.196000	-1.510493
0.196100	-1.481605
0.196200	-1.465051
0.196300	-1.640001
0.196400	-1.732183
0.196500	-1.731534
0.196600	-1.718550
0.196700	-1.598130
0.196800	-1.634808
0.196900	-1.635133
0.197000	-1.626694
0.197100	-1.626694
0.197200	-1.626694
0.197300	-1.653309
0.197400	-1.651037
0.197500	-1.669863
0.197600	-1.649739
0.197700	-1.677004
0.197800	-1.679276
0.197900	-1.699725
0.198000	-1.708164
0.198100	-1.711410
0.198200	-1.763992
0.198300	-1.786064
0.198400	-1.875973
0.198500	-1.918493
0.198600	-2.146351
0.198700	-2.549483
0.198800	-2.629655
0.198900	-2.444318
0.199000	-2.135964
0.199100	-2.179134
0.199200	-2.434256
0.199300	-2.844205
0.199400	-3.044474
0.199500	-2.930220
0.199600	-2.735470
0.199700	-2.655622
0.199800	-2.836415
0.199900	-3.053237
0.200000	-3.250909
0.200100	-3.260322
0.200200	-3.207415
0.200300	-3.198651
0.200400	-3.276227
0.200500	-3.337898
0.200600	-3.365812
0.200700	-3.359970
0.200800	-3.355426
0.200900	-3.461565
0.201000	-3.573222
0.201100	-3.624182
0.201200	-3.640087
0.201300	-3.587828
0.201400	-3.643008
0.201500	-3.708250
0.201600	-3.771868
0.201700	-3.731620
0.201800	-3.519666
0.201900	-3.425861
0.202000	-3.503436
0.202100	-3.772842
0.202200	-3.970190
0.202300	-3.956233
0.202400	-3.682607
0.202500	-3.450854
0.202600	-3.504410
0.202700	-3.784527
0.202800	-4.020501
0.202900	-4.009790
0.203000	-3.867621
0.203100	-3.732269
0.203200	-3.719610
0.203300	-3.754990
0.203400	-3.792966
0.203500	-3.793291
0.203600	-3.732593
0.203700	-3.642359
0.203800	-3.600163
0.203900	-3.541088
0.204000	-3.432028
0.204100	-3.251883
0.204200	-3.105496
0.204300	-3.046421
0.204400	-3.017209
0.204500	-3.015261
0.204600	-2.833494
0.204700	-2.653350
0.204800	-2.393034
0.204900	-2.267420
0.205000	-2.297282
0.205100	-2.244375
0.205200	-2.127849
0.205300	-2.021062
0.205400	-1.876947
0.205500	-1.769510
0.205600	-1.750684
0.205700	-1.701997
0.205800	-1.729911
0.205900	-1.615009
0.206000	-1.680899
0.206100	-1.572164
0.206200	-1.572813
0.206300	-1.480631
0.206400	-1.491992
0.206500	-1.489071
0.206600	-1.456612
0.206700	-1.498808
0.206800	-1.416689
0.206900	-1.287830
0.207000	-0.887295
0.207100	-0.676966
0.207200	-0.798035
0.207300	-1.188832
0.207400	-1.290426
0.207500	-1.010961
0.207600	-0.725653
0.207700	-0.483840
0.207800	-0.506561
0.207900	-0.763305
0.208000	-0.901901
0.208100	-0.807448
0.208200	-0.642560
0.208300	-0.444890
0.208400	-0.333883
0.208500	-0.398799
0.208600	-0.467935
0.208700	-0.461444
0.208800	-0.373157
0.208900	-0.369587
0.209000	-0.342647
0.209100	-0.363420
0.209200	-0.384518
0.209300	-0.386141
0.209400	-0.456575
0.209500	-0.528632
0.209600	-0.574398
0.209700	-0.640288
0.209800	-0.690274
0.209900	-0.580241
0.210000	-0.658789
0.210100	-0.693844
0.210200	-1.147285
0.210300	-1.155400
0.210400	-1.091782
0.210500	-0.795763
0.210600	-0.744154
0.210700	-0.945071
0.210800	-1.321261
0.210900	-1.437787
0.211000	-1.350798
0.211100	-1.140794
0.211200	-1.040498
0.211300	-1.134951
0.211400	-1.326130
0.211500	-1.432918
0.211600	-1.389099
0.211700	-1.360536
0.211800	-1.343009
0.211900	-1.435839
0.212000	-1.511142
0.212100	-1.529319
0.212200	-1.481605
0.212300	-1.499782
0.212400	-1.574111
0.212500	-1.602999
0.212600	-1.572813
0.212700	-1.547495
0.212800	-1.532565
0.212900	-1.593586
0.213000	-1.761720
0.213100	-1.806188
0.213200	-1.804889
0.213300	-1.793204
0.213400	-1.690636
0.213500	-1.741596
0.213600	-1.748087
0.213700	-1.741920
0.213800	-1.736078
0.213900	-1.755877
0.214000	-1.790932
0.214100	-1.781520
0.214200	-1.793204
0.214300	-1.800345
0.214400	-1.841567
0.214500	-1.864613
0.214600	-1.866236
0.214700	-1.908756
0.214800	-1.925634
0.214900	-2.004508
0.215000	-2.026904
0.215100	-2.139534
0.215200	-2.165826
0.215300	-2.500147
0.215400	-2.779613
0.215500	-2.790324
0.215600	-2.525789
0.215700	-2.256384
0.215800	-2.296957
0.215900	-2.642314
0.216000	-3.058431
0.216100	-3.227539
0.216200	-3.054211
0.216300	-2.847776
0.216400	-2.767603
0.216500	-2.999356
0.216600	-3.193133
0.216700	-3.381392
0.216800	-3.395350
0.216900	-3.361268
0.217000	-3.340819
0.217100	-3.373602
0.217200	-3.438195
0.217300	-3.485260
0.217400	-3.483312
0.217500	-3.481365
0.217600	-3.523561
0.217700	-3.566406
0.217800	-3.645605
0.217900	-3.601461
0.218000	-3.569327
0.218100	-3.618015
0.218200	-3.633270
0.218300	-3.686178
0.218400	-3.562186
0.218500	-3.336600
0.218600	-3.321993
0.218700	-3.464486
0.218800	-3.749147
0.218900	-3.926696
0.219000	-3.815038
0.219100	-3.544009
0.219200	-3.355101
0.219300	-3.453775
0.219400	-3.711171
0.219500	-3.935784
0.219600	-3.937082
0.219700	-3.759534
0.219800	-3.603733
0.219900	-3.540114
0.220000	-3.569976
0.220100	-3.635542
0.220200	-3.617690
0.220300	-3.607628
0.220400	-3.555045
0.220500	-3.484286
0.220600	-3.400867
0.220700	-3.272657
0.220800	-3.129839
0.220900	-3.029867
0.221000	-3.007796
0.221100	-3.005199
0.221200	-2.958459
0.221300	-2.735470
0.221400	-2.608882
0.221500	-2.328117
0.221600	-2.282026
0.221700	-2.241778
0.221800	-2.224900
0.221900	-2.117463
0.222000	-2.003859
0.222100	-1.820794
0.222200	-1.735753
0.222300	-1.689013
0.222400	-1.652985
0.222500	-1.633185
0.222600	-1.568269
0.222700	-1.592288
0.222800	-1.527371
0.222900	-1.479658
0.223000	-1.447849
0.223100	-1.470894
0.223200	-1.468946
0.223300	-1.516660
0.223400	-1.502054
0.223500	-1.417662
0.223600	-1.176822
0.223700	-0.735066
0.223800	-0.729224
0.223900	-0.861978
0.224000	-1.403381
0.224100	-1.287830
0.224200	-1.126837
0.224300	-0.716565
0.224400	-0.526035
0.224500	-0.582837
0.224600	-0.817185
0.224700	-0.904823
0.224800	-0.816536
0.224900	-0.626007
0.225000	-0.431582
0.225100	-0.440995
0.225200	-0.478971
0.225300	-0.477348
0.225400	-0.465663
0.225500	-0.458522
0.225600	-0.435153
0.225700	-0.453978
0.225800	-0.476050
0.225900	-0.418274
0.226000	-0.432231
0.226100	-0.581214
0.226200	-0.580565
0.226300	-0.680861
0.226400	-0.678914
0.226500	-0.639639
0.226600	-0.563687
0.226700	-0.612050
0.226800	-0.774341
0.226900	-1.161892
0.227000	-1.068087
0.227100	-0.954484
0.227200	-0.604260
0.227300	-0.688651
0.227400	-0.886971
0.227500	-1.242063
0.227600	-1.301787
0.227700	-1.159620
0.227800	-0.908718
0.227900	-0.873987
0.228000	-1.053806
0.228100	-1.221615
0.228200	-1.265109
0.228300	-1.285233
0.228400	-1.223887
0.228500	-1.274522
0.228600	-1.365080
0.228700	-1.434541
0.228800	-1.453042
0.228900	-1.448173
0.229000	-1.492316
0.229100	-1.548794
0.229200	-1.544574
0.229300	-1.541653
0.229400	-1.480307
0.229500	-1.454340
0.229600	-1.561452
0.229700	-1.718226
0.229800	-1.736727
0.229900	-1.701672
0.230000	-1.660775
0.230100	-1.619553
0.230200	-1.632861
0.230300	-1.640326
0.230400	-1.628641
0.230500	-1.640326
0.230600	-1.621500
0.230700	-1.624746
0.230800	-1.631238
0.230900	-1.622149
0.231000	-1.623772
0.231100	-1.659476
0.231200	-1.636756
0.231300	-1.676355
0.231400	-1.670837
0.231500	-1.728937
0.231600	-1.707515
0.231700	-1.783467
0.231800	-1.825014
0.231900	-1.918818
0.232000	-2.336232
0.232100	-2.564089
0.232200	-2.544290
0.232300	-2.233339
0.232400	-2.032097
0.232500	-2.176862
0.232600	-2.564414
0.232700	-2.903929
0.232800	-2.984426
0.232900	-2.752673
0.233000	-2.567984
0.233100	-2.592004
0.233200	-2.826678
0.233300	-3.084398
0.233400	-3.159701
0.233500	-3.128866
0.233600	-3.098355
0.233700	-3.113610
0.233800	-3.182097
0.233900	-3.259349
0.234000	-3.295377
0.234100	-3.256752
0.234200	-3.234680
0.234300	-3.319397
0.234400	-3.448906
0.234500	-3.439818
0.234600	-3.427808
0.234700	-3.383340
0.234800	-3.462863
0.234900	-3.480066
0.235000	-3.521938
0.235100	-3.311282
0.235200	-3.117181
0.235300	-3.125944
0.235400	-3.342118
0.235500	-3.625156
0.235600	-3.763104
0.235700	-3.570950
0.235800	-3.269411
0.235900	-3.132111
0.236000	-3.332056
0.236100	-3.626779
0.236200	-3.813740
0.236300	-3.740708
0.236400	-3.510577
0.236500	-3.369707
0.236600	-3.378796
0.236700	-3.444686
0.236800	-3.511876
0.236900	-3.461889
0.237000	-3.376524
0.237100	-3.269086
0.237200	-3.199300
0.237300	-3.133410
0.237400	-2.979232
0.237500	-2.837064
0.237600	-2.732873
0.237700	-2.688405
0.237800	-2.675422
0.237900	-2.586161
0.238000	-2.349864
0.238100	-2.219382
0.238200	-1.913625
0.238300	-1.926283
0.238400	-1.896097
0.238500	-1.828584
0.238600	-1.723095
0.238700	-1.609815
0.238800	-1.406627
0.238900	-1.383257
0.239000	-1.344631
0.239100	-1.357939
0.239200	-1.345281
0.239300	-1.327753
0.239400	-1.329376
0.239500	-1.262188
0.239600	-1.196622
0.239700	-1.213176
0.239800	-1.205061
0.239900	-1.268030
0.240000	-1.255047
0.240100	-1.306006
0.240200	-1.178121
0.240300	-1.009987
0.240400	-0.502341
0.240500	-0.591926
0.240600	-0.855162
0.240700	-1.278741
0.240800	-1.157672
0.240900	-1.006417
0.241000	-0.581864
0.241100	-0.479296
0.241200	-0.612050
0.241300	-0.880479
0.241400	-0.979152
0.241500	-0.821080
0.241600	-0.604260
0.241700	-0.468909
0.241800	-0.504613
0.241900	-0.610751
0.242000	-0.700985
0.242100	-0.712021
0.242200	-0.688002
0.242300	-0.657816
0.242400	-0.632823
0.242500	-0.640937
0.242600	-0.668851
0.242700	-0.741233
0.242800	-0.923648
0.242900	-0.908393
0.243000	-1.004145
0.243100	-0.998627
0.243200	-0.993109
0.243300	-0.937930
0.243400	-0.938904
0.243500	-1.228106
0.243600	-1.438436
0.243700	-1.374168
0.243800	-1.156049
0.243900	-0.906770
0.244000	-0.965844
0.244100	-1.246283
0.244200	-1.520880
0.244300	-1.548794
0.244400	-1.363782
0.244500	-1.109309
0.244600	-1.081395
0.244700	-1.245958
0.244800	-1.442980
0.244900	-1.459858
0.245000	-1.504326
0.245100	-1.415390
0.245200	-1.423180
0.245300	-1.454016
0.245400	-1.535810
0.245500	-1.552689
0.245600	-1.551390
0.245700	-1.585472
0.245800	-1.605920
0.245900	-1.593262
0.246000	-1.568593
0.246100	-1.533538
0.246200	-1.528670
0.246300	-1.698102
0.246400	-1.832479
0.246500	-1.847734
0.246600	-1.845138
0.246700	-1.677978
0.246800	-1.749710
0.246900	-1.748737
0.247000	-1.756527
0.247100	-1.740622
0.247200	-1.750035
0.247300	-1.752307
0.247400	-1.727314
0.247500	-1.733481
0.247600	-1.717577
0.247700	-1.739973
0.247800	-1.730885
0.247900	-1.787687
0.248000	-1.784765
0.248100	-1.799372
0.248200	-1.821768
0.248300	-1.835400
0.248400	-1.879544
0.248500	-1.931152
0.248600	-2.094093
0.248700	-2.421273
0.248800	-2.652052
0.248900	-2.452108
0.249000	-2.182704
0.249100	-2.052546
0.249200	-2.235286
0.249300	-2.706582
0.249400	-2.956187
0.249500	-2.950669
0.249600	-2.685159
0.249700	-2.540070
0.249800	-2.603689
0.249900	-2.887050
0.250000	-3.101601
0.250100	-3.193458
0.250200	-3.145095
0.250300	-3.119128
0.250400	-3.119128
0.250500	-3.179501
0.250600	-3.232733
0.250700	-3.257726
0.250800	-3.280771
0.250900	-3.295053
0.251000	-3.390481
0.251100	-3.396972
0.251200	-3.429756
0.251300	-3.371979
0.251400	-3.385937
0.251500	-3.446309
0.251600	-3.486233
0.251700	-3.450529
0.251800	-3.293755
0.251900	-3.117830
0.252000	-3.199950
0.252100	-3.406385
0.252200	-3.668975
0.252300	-3.718961
0.252400	-3.474548
0.252500	-3.260322
0.252600	-3.250909
0.252700	-3.460267
0.252800	-3.739410
0.252900	-3.871191
0.253000	-3.770895
0.253100	-3.585556
0.253200	-3.496945
0.253300	-3.519666
0.253400	-3.568353
0.253500	-3.607953
0.253600	-3.595294
0.253700	-3.547580
0.253800	-3.495646
0.253900	-3.425861
0.254000	-3.292781
0.254100	-3.094784
0.254200	-2.959108
0.254300	-2.940282
0.254400	-2.930545
0.254500	-2.943203
0.254600	-2.806229
0.254700	-2.576748
0.254800	-2.509884
0.254900	-2.205425
0.255000	-2.232041
0.255100	-2.178160
0.255200	-2.047677
0.255300	-1.913625
0.255400	-1.769835
0.255500	-1.659801
0.255600	-1.562751
0.255700	-1.532889
0.255800	-1.528020
0.255900	-1.474464
0.256000	-1.483553
0.256100	-1.488097
0.256200	-1.407276
0.256300	-1.382932
0.256400	-1.310875
0.256500	-1.353071
0.256600	-1.380985
0.256700	-1.370598
0.256800	-1.407276
0.256900	-1.268679
0.257000	-1.008040
0.257100	-0.639315
0.257200	-0.743181
0.257300	-1.058025
0.257400	-1.404679
0.257500	-1.281662
0.257600	-0.915858
0.257700	-0.616594
0.257800	-0.600040
0.257900	-0.749997
0.258000	-1.022321
0.258100	-1.038226
0.258200	-0.825949
0.258300	-0.575696
0.258400	-0.536422
0.258500	-0.511105
0.258600	-0.597119
0.258700	-0.576346
0.258800	-0.542914
0.258900	-0.528308
0.259000	-0.518570
0.259100	-0.542265
0.259200	-0.520193
0.259300	-0.506236
0.259400	-0.484164
0.259500	-0.600689
0.259600	-0.702933
0.259700	-0.716240
0.259800	-0.807123
0.259900	-0.636718
0.260000	-0.681510
0.260100	-0.688651
0.260200	-1.085615
0.260300	-1.227133
0.260400	-1.141768
0.260500	-0.855811
0.260600	-0.657816
0.260700	-0.814264
0.260800	-1.164164
0.260900	-1.407925
0.261000	-1.373844
0.261100	-1.133978
0.261200	-0.919104
0.261300	-0.970064
0.261400	-1.208307
0.261500	-1.394293
0.261600	-1.383581
0.261700	-1.331324
0.261800	-1.256020
0.261900	-1.359562
0.262000	-1.432918
0.262100	-1.476412
0.262200	-1.464402
0.262300	-1.447524
0.262400	-1.491667
0.262500	-1.567944
0.262600	-1.583849
0.262700	-1.546846
0.262800	-1.522503
0.262900	-1.535810
0.263000	-1.736078
0.263100	-1.841243
0.263200	-1.829233
0.263300	-1.806837
0.263400	-1.715305
0.263500	-1.788011
0.263600	-1.794178
0.263700	-1.768861
0.263800	-1.752632
0.263900	-1.759772
0.264000	-1.791257
0.264100	-1.762369
0.264200	-1.758150
0.264300	-1.761071
0.264400	-1.779897
0.264500	-1.774054
0.264600	-1.768536
0.264700	-1.788660
0.264800	-1.788660
0.264900	-1.818197
0.265000	-1.845787
0.265100	-1.892527
0.265200	-1.984059
0.265300	-2.155114
0.265400	-2.592328
0.265500	-2.641990
0.265600	-2.524490
0.265700	-2.204127
0.265800	-2.162904
0.265900	-2.407316
0.266000	-2.852320
0.266100	-3.103873
0.266200	-3.003901
0.266300	-2.798764
0.266400	-2.661465
0.266500	-2.808176
0.266600	-3.092512
0.266700	-3.256103
0.266800	-3.332705
0.266900	-3.258375
0.267000	-3.190212
0.267100	-3.216179
0.267200	-3.313879
0.267300	-3.409631
0.267400	-3.437221
0.267500	-3.441116
0.267600	-3.486233
0.267700	-3.561537
0.267800	-3.629051
0.267900	-3.631323
0.268000	-3.607953
0.268100	-3.653070
0.268200	-3.711495
0.268300	-3.786150
0.268400	-3.737138
0.268500	-3.562835
0.268600	-3.444362
0.268700	-3.552124
0.268800	-3.825749
0.268900	-4.096779
0.269000	-4.045494
0.269100	-3.794265
0.269200	-3.501164
0.269300	-3.491102
0.269400	-3.735839
0.269500	-4.038029
0.269600	-4.143194
0.269700	-4.018553
0.269800	-3.820881
0.269900	-3.694292
0.270000	-3.715066
0.270100	-3.803028
0.270200	-3.862752
0.270300	-3.831267
0.270400	-3.775439
0.270500	-3.672870
0.270600	-3.581337
0.270700	-3.470329
0.270800	-3.310958
0.270900	-3.196704
0.271000	-3.141524
0.271100	-3.086020
0.271200	-3.046097
0.271300	-2.867251
0.271400	-2.666658
0.271500	-2.470609
0.271600	-2.293062
0.271700	-2.261253
0.271800	-2.230093
0.271900	-2.110322
0.272000	-1.999639
0.272100	-1.799047
0.272200	-1.679601
0.272300	-1.581252
0.272400	-1.536460
0.272500	-1.557233
0.272600	-1.511142
0.272700	-1.548469
0.272800	-1.458884
0.272900	-1.392345
0.273000	-1.360861
0.273100	-1.267381
0.273200	-1.309577
0.273300	-1.233624
0.273400	-1.288479
0.273500	-1.202140
0.273600	-1.077176
0.273700	-0.694818
0.273800	-0.466962
0.273900	-0.592250
0.274000	-0.997328
0.274100	-1.067763
0.274200	-0.876259
0.274300	-0.502666
0.274400	-0.375754
0.274500	-0.354981
0.274600	-0.601988
0.274700	-0.770446
0.274800	-0.771419
0.274900	-0.528957
0.275000	-0.363420
0.275100	-0.251764
0.275200	-0.277406
0.275300	-0.370236
0.275400	-0.326093
0.275500	-0.378675
0.275600	-0.374456
0.275700	-0.326093
0.275800	-0.294609
0.275900	-0.281301
0.276000	-0.269291
0.276100	-0.324795
0.276200	-0.527334
0.276300	-0.445539
0.276400	-0.573100
0.276500	-0.520842
0.276600	-0.470857
0.276700	-0.482217
0.276800	-0.548432
0.276900	-0.926245
0.277000	-0.883400
0.277100	-0.857109
0.277200	-0.539019
0.277300	-0.466637
0.277400	-0.582837
0.277500	-0.902550
0.277600	-1.035629
0.277700	-0.963572
0.277800	-0.754541
0.277900	-0.638665
0.278000	-0.723706
0.278100	-0.870092
0.278200	-0.909367
0.278300	-0.920078
0.278400	-0.934360
0.278500	-0.946369
0.278600	-1.004469
0.278700	-1.072631
0.278800	-1.075228
0.278900	-1.048288
0.279000	-1.105739
0.279100	-1.166111
0.279200	-1.188183
0.279300	-1.186884
0.279400	-1.140145
0.279500	-1.139495
0.279600	-1.170980
0.279700	-1.366054
0.279800	-1.431295
0.279900	-1.402083
0.280000	-1.371247
0.280100	-1.267381
0.280200	-1.306655
0.280300	-1.264135
0.280400	-1.239791
0.280500	-1.209281
0.280600	-1.175199
0.280700	-1.156049
0.280800	-1.111906
0.280900	-1.092756
0.281000	-1.072956
0.281100	-1.081395
0.281200	-1.052507
0.281300	-1.047639
0.281400	-1.005118
0.281500	-1.019400
0.281600	-0.992135
0.281700	-1.006417
0.281800	-1.033032
0.281900	-1.096651
0.282000	-1.390398
0.282100	-1.745491
0.282200	-1.770159
0.282300	-1.516011
0.282400	-1.225185
0.282500	-1.258293
0.282600	-1.601701
0.282700	-1.979840
0.282800	-2.080785
0.282900	-1.944460
0.283000	-1.734780
0.283100	-1.658178
0.283200	-1.791582
0.283300	-1.987305
0.283400	-2.133692
0.283500	-2.117463
0.283600	-2.109997
0.283700	-2.093768
0.283800	-2.170370
0.283900	-2.208346
0.284000	-2.198609
0.284100	-2.217110
0.284200	-2.181081
0.284300	-2.260279
0.284400	-2.383296
0.284500	-2.460872
0.284600	-2.386867
0.284700	-2.368041
0.284800	-2.386867
0.284900	-2.512805
0.285000	-2.524166
0.285100	-2.487812
0.285200	-2.260929
0.285300	-2.199582
0.285400	-2.373559
0.285500	-2.678992
0.285600	-2.899060
0.285700	-2.795842
0.285800	-2.530657
0.285900	-2.350514
0.286000	-2.477750
0.286100	-2.776692
0.286200	-3.037333
0.286300	-3.095758
0.286400	-2.956511
0.286500	-2.868874
0.286600	-2.898086
0.286700	-2.991891
0.286800	-3.061677
0.286900	-3.081152
0.287000	-3.102250
0.287100	-3.121400
0.287200	-3.124971
0.287300	-3.109066
0.287400	-2.981829
0.287500	-2.877637
0.287600	-2.849399
0.287700	-2.899709
0.287800	-2.934764
0.287900	-2.969495
0.288000	-2.837714
0.288100	-2.727355
0.288200	-2.698467
0.288300	-2.502094
0.288400	-2.537149
0.288500	-2.500796
0.288600	-2.403421
0.288700	-2.310590
0.288800	-2.179783
0.288900	-2.142131
0.289000	-2.130771
0.289100	-2.109024
0.289200	-2.163229
0.289300	-2.131095
0.289400	-2.227821
0.289500	-2.191792
0.289600	-2.188871
0.289700	-2.204127
0.289800	-2.206399
0.289900	-2.238532
0.290000	-2.270341
0.290100	-2.342074
0.290200	-2.255735
0.290300	-2.105453
0.290400	-1.666942
0.290500	-1.547820
0.290600	-1.760746
0.290700	-2.171344
0.290800	-2.291439
0.290900	-1.994770
0.291000	-1.628316
0.291100	-1.515686
0.291200	-1.508221
0.291300	-1.744517
0.291400	-1.860718
0.291500	-1.783142
0.291600	-1.509195
0.291700	-1.306331
0.291800	-1.268030
0.291900	-1.330350
0.292000	-1.389748
0.292100	-1.354369
0.292200	-1.299514
0.292300	-1.249853
0.292400	-1.225834
0.292500	-1.242063
0.292600	-1.267381
0.292700	-1.226808
0.292800	-1.292698
0.292900	-1.314445
0.293000	-1.354044
0.293100	-1.464078
0.293200	-1.415066
0.293300	-1.329701
0.293400	-1.314121
0.293500	-1.510493
0.293600	-1.845462
0.293700	-1.836374
0.293800	-1.708488
0.293900	-1.335868
0.294000	-1.354693
0.294100	-1.559505
0.294200	-1.918169
0.294300	-2.062933
0.294400	-1.944785
0.294500	-1.687066
0.294600	-1.570865
0.294700	-1.736727
0.294800	-1.980164
0.294900	-2.029176
0.295000	-2.056117
0.295100	-1.949004
0.295200	-1.961014
0.295300	-2.005157
0.295400	-2.114542
0.295500	-2.232690
0.295600	-2.205100
0.295700	-2.189520
0.295800	-2.226198
0.295900	-2.253463
0.296000	-2.258332
0.296100	-2.227496
0.296200	-2.207372
0.296300	-2.331688
0.296400	-2.468986
0.296500	-2.492032
0.296600	-2.470609
0.296700	-2.307344
0.296800	-2.321626
0.296900	-2.361225
0.297000	-2.371611
0.297100	-2.380700
0.297200	-2.377129
0.297300	-2.381349
0.297400	-2.384270
0.297500	-2.375506
0.297600	-2.406017
0.297700	-2.422896
0.297800	-2.433931
0.297900	-2.446915
0.298000	-2.471908
0.298100	-2.470285
0.298200	-2.462170
0.298300	-2.488137
0.298400	-2.552729
0.298500	-2.589082
0.298600	-2.686458
0.298700	-3.002602
0.298800	-3.303817
0.298900	-3.230785
0.299000	-2.970144
0.299100	-2.710477
0.299200	-2.783184
0.299300	-3.173983
0.299400	-3.452152
0.299500	-3.552449
0.299600	-3.307712
0.299700	-3.150937
0.299800	-3.106469
0.299900	-3.308036
0.300000	-3.512525
0.300100	-3.625480
0.300200	-3.564458
0.300300	-3.444037
0.300400	-3.437870
0.300500	-3.469679
0.300600	-3.517393
0.300700	-3.533298
0.300800	-3.513823
0.300900	-3.471952
0.301000	-3.506358
0.301100	-3.543685
0.301200	-3.528429
0.301300	-3.512200
0.301400	-3.510577
0.301500	-3.575170
0.301600	-3.617366
0.301700	-3.624182
0.301800	-3.465135
0.301900	-3.222995
0.302000	-3.254804
0.302100	-3.420667
0.302200	-3.663132
0.302300	-3.787448
0.302400	-3.594320
0.302500	-3.313230
0.302600	-3.156131
0.302700	-3.268762
0.302800	-3.521288
0.302900	-3.690397
0.303000	-3.648526
0.303100	-3.448906
0.303200	-3.304141
0.303300	-3.285315
0.303400	-3.364839
0.303500	-3.430405
0.303600	-3.413851
0.303700	-3.397946
0.303800	-3.324590
0.303900	-3.257076
0.304000	-3.209038
0.304100	-3.093810
0.304200	-2.981829
0.304300	-2.929895
0.304400	-2.916263
0.304500	-2.927299
0.304600	-2.859136
0.304700	-2.650429
0.304800	-2.499497
0.304900	-2.266771
0.305000	-2.252165
0.305100	-2.233014
0.305200	-2.182055
0.305300	-2.052222
0.305400	-1.957443
0.305500	-1.786713
0.305600	-1.731858
0.305700	-1.692584
0.305800	-1.698751
0.305900	-1.681223
0.306000	-1.636756
0.306100	-1.640975
0.306200	-1.542302
0.306300	-1.471219
0.306400	-1.429672
0.306500	-1.430970
0.306600	-1.465701
0.306700	-1.491343
0.306800	-1.401758
0.306900	-1.369300
0.307000	-1.020374
0.307100	-0.686379
0.307200	-0.578618
0.307300	-0.949615
0.307400	-1.225185
0.307500	-1.158646
0.307600	-0.833415
0.307700	-0.567582
0.307800	-0.365043
0.307900	-0.542589
0.308000	-0.735066
0.308100	-0.790245
0.308200	-0.535448
0.308300	-0.309864
0.308400	-0.169645
0.308500	-0.177110
0.308600	-0.240403
0.308700	-0.269940
0.308800	-0.198532
0.308900	-0.136213
0.309000	-0.121607
0.309100	-0.092394
0.309200	-0.082981
0.309300	-0.074867
0.309400	-0.088499
0.309500	-0.227420
0.309600	-0.292337
0.309700	-0.335831
0.309800	-0.289415
0.309900	-0.238456
0.310000	-0.132318
0.310100	-0.214437
0.310200	-0.501692
0.310300	-0.724030
0.310400	-0.697415
0.310500	-0.522140
0.310600	-0.269616
0.310700	-0.352384
0.310800	-0.649377
0.310900	-0.919429
0.311000	-0.942149
0.311100	-0.740259
0.311200	-0.501692
0.311300	-0.477997
0.311400	-0.656842
0.311500	-0.845749
0.311600	-0.834064
0.311700	-0.811992
0.311800	-0.738312
0.311900	-0.776937
0.312000	-0.853863
0.312100	-0.896708
0.312200	-0.905472
0.312300	-0.892164
0.312400	-0.935009
0.312500	-1.020374
0.312600	-1.036278
0.312700	-1.014856
0.312800	-0.992460
0.312900	-0.989863
0.313000	-1.175849
0.313100	-1.361185
0.313200	-1.404355
0.313300	-1.413118
0.313400	-1.293023
0.313500	-1.385204
0.313600	-1.430970
0.313700	-1.454016
0.313800	-1.486149
0.313900	-1.509844
0.314000	-1.585796
0.314100	-1.593911
0.314200	-1.630913
0.314300	-1.652336
0.314400	-1.678951
0.314500	-1.711085
0.314600	-1.724718
0.314700	-1.752632
0.314800	-1.784765
0.314900	-1.794178
0.315000	-1.816899
0.315100	-1.948680
0.315200	-1.963935
0.315300	-2.207697
0.315400	-2.443669
0.315500	-2.776043
0.315600	-2.644586
0.315700	-2.364471
0.315800	-2.229444
0.315900	-2.374533
0.316000	-2.813694
0.316100	-3.062975
0.316200	-3.145419
0.316300	-2.891270
0.316400	-2.705933
0.316500	-2.784806
0.316600	-3.012989
0.316700	-3.247988
0.316800	-3.269411
0.316900	-3.215854
0.317000	-3.133410
0.317100	-3.102250
0.317200	-3.194432
0.317300	-3.256427
0.317400	-3.264217
0.317500	-3.244418
0.317600	-3.219425
0.317700	-3.297650
0.317800	-3.356399
0.317900	-3.323292
0.318000	-3.316151
0.318100	-3.298623
0.318200	-3.338223
0.318300	-3.385612
0.318400	-3.367111
0.318500	-3.204169
0.318600	-2.974039
0.318700	-3.050641
0.318800	-3.245067
0.318900	-3.482014
0.319000	-3.556668
0.319100	-3.310308
0.319200	-3.024025
0.319300	-2.958134
0.319400	-3.185668
0.319500	-3.472925
0.319600	-3.610874
0.319700	-3.541737
0.319800	-3.299272
0.319900	-3.179176
0.320000	-3.204169
0.320100	-3.319072
0.320200	-3.401841
0.320300	-3.344390
0.320400	-3.254155
0.320500	-3.170088
0.320600	-3.096732
0.320700	-3.014287
0.320800	-2.878287
0.320900	-2.733198
0.321000	-2.662114
0.321100	-2.596872
0.321200	-2.601741
0.321300	-2.485216
0.321400	-2.252489
0.321500	-2.032097
0.321600	-1.848384
0.321700	-1.860393
0.321800	-1.840918
0.321900	-1.779247
0.322000	-1.657529
0.322100	-1.545548
0.322200	-1.353395
0.322300	-1.282312
0.322400	-1.250178
0.322500	-1.294970
0.322600	-1.297242
0.322700	-1.293672
0.322800	-1.287830
0.322900	-1.177796
0.323000	-1.165787
0.323100	-1.128135
0.323200	-1.110283
0.323300	-1.203438
0.323400	-1.145987
0.323500	-1.317042
0.323600	-1.014207
0.323700	-0.877558
0.323800	-0.413081
0.323900	-0.502016
0.324000	-0.901577
0.324100	-1.128784
0.324200	-1.146961
0.324300	-0.694818
0.324400	-0.565634
0.324500	-0.393281
0.324600	-0.579916
0.324700	-0.803228
0.324800	-0.832116
0.324900	-0.746427
0.325000	-0.507210
0.325100	-0.397826
0.325200	-0.390036
0.325300	-0.472479
0.325400	-0.513701
0.325500	-0.498446
0.325600	-0.519868
0.325700	-0.454952
0.325800	-0.438398
0.325900	-0.385167
0.326000	-0.426389
0.326100	-0.473129
0.326200	-0.603286
0.326300	-0.608479
0.326400	-0.642236
0.326500	-0.689625
0.326600	-0.661711
0.326700	-0.697415
0.326800	-0.688002
0.326900	-1.032059
0.327000	-1.251476
0.327100	-1.195324
0.327200	-1.026216
0.327300	-0.806474
0.327400	-0.955133
0.327500	-1.259266
0.327600	-1.576708
0.327700	-1.571515
0.327800	-1.360861
0.327900	-1.184612
0.328000	-1.223887
0.328100	-1.395266
0.328200	-1.566321
0.328300	-1.584173
0.328400	-1.651686
0.328500	-1.629939
0.328600	-1.705567
0.328700	-1.771133
0.328800	-1.828259
0.328900	-1.859419
0.329000	-1.926933
0.329100	-2.001911
0.329200	-2.043133
0.329300	-1.999315
0.329400	-1.955496
0.329500	-1.955820
0.329600	-1.969128
0.329700	-2.178160
0.329800	-2.257358
0.329900	-2.240804
0.330000	-2.223601
0.330100	-2.108374
0.330200	-2.203477
0.330300	-2.188547
0.330400	-2.181406
0.330500	-2.190169
0.330600	-2.195038
0.330700	-2.216785
0.330800	-2.200881
0.330900	-2.223926
0.331000	-2.189196
0.331100	-2.220680
0.331200	-2.208022
0.331300	-2.217110
0.331400	-2.220031
0.331500	-2.206074
0.331600	-2.266122
0.331700	-2.276833
0.331800	-2.329091
0.331900	-2.389464
0.332000	-2.553378
0.332100	-2.937036
0.332200	-2.980206
0.332300	-2.895165
0.332400	-2.606285
0.332500	-2.547536
0.332600	-2.780587
0.332700	-3.153209
0.332800	-3.414175
0.332900	-3.309010
0.333000	-3.139901
0.333100	-3.007146
0.333200	-3.071090
0.333300	-3.286938
0.333400	-3.471627
0.333500	-3.509603
0.333600	-3.508630
0.333700	-3.466109
0.333800	-3.442090
0.333900	-3.435598
0.334000	-3.456371
0.334100	-3.451503
0.334200	-3.480391
0.334300	-3.520315
0.334400	-3.533947
0.334500	-3.556993
0.334600	-3.541413
0.334700	-3.471302
0.334800	-3.440467
0.334900	-3.468706
0.335000	-3.462214
0.335100	-3.438844
0.335200	-3.247988
0.335300	-3.059729
0.335400	-3.083099
0.335500	-3.367760
0.335600	-3.510577
0.335700	-3.487207
0.335800	-3.148016
0.335900	-2.870172
0.336000	-2.877637
0.336100	-3.088617
0.336200	-3.337249
0.336300	-3.361593
0.336400	-3.186317
0.336500	-3.004225
0.336600	-2.931518
0.336700	-2.910745
0.336800	-2.894516
0.336900	-2.831222
0.337000	-2.776043
0.337100	-2.724434
0.337200	-2.682563
0.337300	-2.570581
0.337400	-2.389788
0.337500	-2.198284
0.337600	-2.068451
0.337700	-2.020412
0.337800	-1.979515
0.337900	-1.958417
0.338000	-1.803916
0.338100	-1.572813
0.338200	-1.310550
0.338300	-1.176173
0.338400	-1.223562
0.338500	-1.194350
0.338600	-1.078799
0.338700	-0.951562
0.338800	-0.839906
0.338900	-0.719811
0.339000	-0.687028
0.339100	-0.650026
0.339200	-0.690274
0.339300	-0.667229
0.339400	-0.730522
0.339500	-0.677615
0.339600	-0.664956
0.339700	-0.645482
0.339800	-0.622761
0.339900	-0.697739
0.340000	-0.693520
0.340100	-0.852889
0.340200	-0.767200
0.340300	-0.679887
0.340400	-0.295258
0.340500	-0.075516
0.340600	-0.291687
0.340700	-0.658465
0.340800	-1.003820
0.340900	-0.634121
0.341000	-0.477348
0.341100	-0.154389
0.341200	-0.186523
0.341300	-0.470857
0.341400	-0.656517
0.341500	-0.709749
0.341600	-0.518570
0.341700	-0.352384
0.341800	-0.281301
0.341900	-0.280976
0.342000	-0.411133
0.342100	-0.418274
0.342200	-0.511754
0.342300	-0.441644
0.342400	-0.458847
0.342500	-0.472804
0.342600	-0.441969
0.342700	-0.536422
0.342800	-0.552976
0.342900	-0.704555
0.343000	-0.735391
0.343100	-0.932412
0.343200	-0.949290
0.343300	-0.893462
0.343400	-0.876584
0.343500	-0.942149
0.343600	-1.421557
0.343700	-1.480956
0.343800	-1.450445
0.343900	-1.108660
0.344000	-1.133004
0.344100	-1.224536
0.344200	-1.701997
0.344300	-1.845138
0.344400	-1.772431
0.344500	-1.496861
0.344600	-1.385204
0.344700	-1.543276
0.344800	-1.768536
0.344900	-1.869806
0.345000	-1.845138
0.345100	-1.825987
0.345200	-1.816574
0.345300	-1.954198
0.345400	-2.048651
0.345500	-2.141807
0.345600	-2.108374
0.345700	-2.100584
0.345800	-2.147974
0.345900	-2.188547
0.346000	-2.186924
0.346100	-2.132394
0.346200	-2.096040
0.346300	-2.127525
0.346400	-2.295659
0.346500	-2.341750
0.346600	-2.352461
0.346700	-2.143429
0.346800	-2.126551
0.346900	-2.182055
0.347000	-2.199907
0.347100	-2.185301
0.347200	-2.168422
0.347300	-2.141807
0.347400	-2.110647
0.347500	-2.081759
0.347600	-2.063582
0.347700	-2.037940
0.347800	-2.021711
0.347900	-1.937644
0.348000	-1.946083
0.348100	-1.932126
0.348200	-1.928880
0.348300	-1.903887
0.348400	-1.948030
0.348500	-1.938942
0.348600	-2.004833
0.348700	-2.226523
0.348800	-2.564739
0.348900	-2.579669
0.349000	-2.295010
0.349100	-2.049625
0.349200	-2.071372
0.349300	-2.354409
0.349400	-2.718916
0.349500	-2.888673
0.349600	-2.750076
0.349700	-2.558896
0.349800	-2.473855
0.349900	-2.599469
0.350000	-2.865628
0.350100	-3.028244
0.350200	-3.097381
0.350300	-3.062975
0.350400	-2.987671
0.350500	-3.032789
0.350600	-3.100951
0.350700	-3.177229
0.350800	-3.208713
0.350900	-3.213582
0.351000	-3.253831
0.351100	-3.278824
0.351200	-3.398595
0.351300	-3.421966
0.351400	-3.420343
0.351500	-3.414825
0.351600	-3.461565
0.351700	-3.514472
0.351800	-3.445011
0.351900	-3.253181
0.352000	-3.093161
0.352100	-3.282719
0.352200	-3.601461
0.352300	-3.766999
0.352400	-3.685853
0.352500	-3.357698
0.352600	-3.145744
0.352700	-3.208064
0.352800	-3.492076
0.352900	-3.721882
0.353000	-3.796212
0.353100	-3.645929
0.353200	-3.504735
0.353300	-3.473899
0.353400	-3.534272
0.353500	-3.611523
0.353600	-3.619638
0.353700	-3.599513
0.353800	-3.581012
0.353900	-3.559590
0.354000	-3.508954
0.354100	-3.384638
0.354200	-3.243444
0.354300	-3.179501
0.354400	-3.182747
0.354500	-3.195730
0.354600	-3.186642
0.354700	-3.008120
0.354800	-2.883155
0.354900	-2.766954
0.355000	-2.589082
0.355100	-2.615698
0.355200	-2.592653
0.355300	-2.495278
0.355400	-2.383296
0.355500	-2.221654
0.355600	-2.133692
0.355700	-2.084355
0.355800	-2.031448
0.355900	-2.026580
0.356000	-2.028202
0.356100	-2.002560
0.356200	-1.980489
0.356300	-1.871104
0.356400	-1.891228
0.356500	-1.791582
0.356600	-1.846436
0.356700	-1.865586
0.356800	-1.889606
0.356900	-1.828259
0.357000	-1.620202
0.357100	-1.210579
0.357200	-1.101844
0.357300	-1.241090
0.357400	-1.759448
0.357500	-1.680899
0.357600	-1.641300
0.357700	-1.156698
0.357800	-1.034655
0.357900	-1.008689
0.358000	-1.198569
0.358100	-1.408899
0.358200	-1.331973
0.358300	-1.205386
0.358400	-0.955133
0.358500	-0.930140
0.358600	-0.866846
0.358700	-0.912613
0.358800	-0.932412
0.358900	-0.941500
0.359000	-0.886971
0.359100	-0.862627
0.359200	-0.836336
0.359300	-0.833739
0.359400	-0.838932
0.359500	-1.004145
0.359600	-0.956756
0.359700	-1.015505
0.359800	-0.997653
0.359900	-1.035629
0.360000	-0.892164
0.360100	-0.947667
0.360200	-1.001873
0.360300	-1.386503
0.360400	-1.345930
0.360500	-1.145013
0.360600	-0.834388
0.360700	-0.769147
0.360800	-0.927543
0.360900	-1.276794
0.361000	-1.364431
0.361100	-1.206359
0.361200	-0.916183
0.361300	-0.854512
0.361400	-1.007066
0.361500	-1.149882
0.361600	-1.157672
0.361700	-1.113853
0.361800	-1.051858
0.361900	-1.061920
0.362000	-1.149882
0.362100	-1.192402
0.362200	-1.168059
0.362300	-1.106713
0.362400	-1.124889
0.362500	-1.181042
0.362600	-1.217395
0.362700	-1.173577
0.362800	-1.103791
0.362900	-1.056078
0.363000	-1.133004
0.363100	-1.285557
0.363200	-1.334245
0.363300	-1.299190
0.363400	-1.310875
0.363500	-1.221615
0.363600	-1.287830
0.363700	-1.260240
0.363800	-1.267705
0.363900	-1.262512
0.364000	-1.274846
0.364100	-1.279390
0.364200	-1.318016
0.364300	-1.346903
0.364400	-1.359887
0.364500	-1.399486
0.364600	-1.436813
0.364700	-1.472192
0.364800	-1.514713
0.364900	-1.548145
0.365000	-1.605920
0.365100	-1.674732
0.365200	-1.764966
0.365300	-1.867859
0.365400	-2.202504
0.365500	-2.505015
0.365600	-2.513130
0.365700	-2.283325
0.365800	-2.039563
0.365900	-2.164527
0.366000	-2.562142
0.366100	-2.945151
0.366200	-3.077257
0.366300	-3.005848
0.366400	-2.805904
0.366500	-2.852969
0.366600	-3.071739
0.366700	-3.319397
0.366800	-3.481040
0.366900	-3.493050
0.367000	-3.491427
0.367100	-3.507331
0.367200	-3.567055
0.367300	-3.656640
0.367400	-3.696564
0.367500	-3.699161
0.367600	-3.728698
0.367700	-3.743954
0.367800	-3.810169
0.367900	-3.922151
0.368000	-3.912089
0.368100	-3.862752
0.368200	-3.862752
0.368300	-3.932214
0.368400	-3.950715
0.368500	-3.845874
0.368600	-3.593022
0.368700	-3.548878
0.368800	-3.777062
0.368900	-4.102946
0.369000	-4.230183
0.369100	-4.087690
0.369200	-3.758560
0.369300	-3.595294
0.369400	-3.749472
0.369500	-4.083471
0.369600	-4.238298
0.369700	-4.182469
0.369800	-3.942925
0.369900	-3.807573
0.370000	-3.821205
0.370100	-3.919230
0.370200	-3.943249
0.370300	-3.842303
0.370400	-3.751744
0.370500	-3.664431
0.370600	-3.619962
0.370700	-3.546931
0.370800	-3.373927
0.370900	-3.181448
0.371000	-3.074660
0.371100	-3.019156
0.371200	-2.968196
0.371300	-2.906525
0.371400	-2.668930
0.371500	-2.504691
0.371600	-2.175239
0.371700	-2.130771
0.371800	-2.099286
0.371900	-2.005482
0.372000	-1.843190
0.372100	-1.710111
0.372200	-1.497834
0.372300	-1.413118
0.372400	-1.339114
0.372500	-1.349176
0.372600	-1.304059
0.372700	-1.259591
0.372800	-1.264784
0.372900	-1.178770
0.373000	-1.090159
0.373100	-1.121319
0.373200	-1.026216
0.373300	-1.117748
0.373400	-1.048612
0.373500	-1.188832
0.373600	-1.066140
0.373700	-0.796412
0.373800	-0.519544
0.373900	-0.389062
0.374000	-0.667878
0.374100	-0.975581
0.374200	-1.035954
0.374300	-0.771419
0.374400	-0.388088
0.374500	-0.330962
0.374600	-0.328365
0.374700	-0.619515
0.374800	-0.658789
0.374900	-0.644183
0.375000	-0.358876
0.375100	-0.210542
0.375200	-0.168671
0.375300	-0.214437
0.375400	-0.335831
0.375500	-0.335831
0.375600	-0.341998
0.375700	-0.261177
0.375800	-0.245597
0.375900	-0.272862
0.376000	-0.338103
0.376100	-0.418923
0.376200	-0.542265
0.376300	-0.641911
0.376400	-0.678914
0.376500	-0.840880
0.376600	-0.764279
0.376700	-0.857109
0.376800	-0.808422
0.376900	-1.080746
0.377000	-1.401109
0.377100	-1.416689
0.377200	-1.241090
0.377300	-0.984345
0.377400	-1.048612
0.377500	-1.346579
0.377600	-1.689338
0.377700	-1.746465
0.377800	-1.560154
0.377900	-1.318665
0.378000	-1.303409
0.378100	-1.485500
0.378200	-1.704918
0.378300	-1.719524
0.378400	-1.753930
0.378500	-1.653309
0.378600	-1.680250
0.378700	-1.757500
0.378800	-1.824364
0.378900	-1.842866
0.379000	-1.786064
0.379100	-1.827286
0.379200	-1.906159
0.379300	-1.903887
0.379400	-1.869157
0.379500	-1.826312
0.379600	-1.799047
0.379700	-1.932775
0.379800	-2.028202
0.379900	-2.057090
0.380000	-1.990226
0.380100	-1.890579
0.380200	-1.822742
0.380300	-1.789634
0.380400	-1.739324
0.380500	-1.701672
0.380600	-1.635133
0.380700	-1.590016
0.380800	-1.537758
0.380900	-1.522503
0.381000	-1.477386
0.381100	-1.406951
0.381200	-1.412469
0.381300	-1.388125
0.381400	-1.393968
0.381500	-1.380985
0.381600	-1.392020
0.381700	-1.434216
0.381800	-1.489071
0.381900	-1.546522
0.382000	-1.674407
0.382100	-2.067477
0.382200	-2.310914
0.382300	-2.254437
0.382400	-2.000938
0.382500	-1.893501
0.382600	-2.003210
0.382700	-2.395631
0.382800	-2.698143
0.382900	-2.737742
0.383000	-2.577073
0.383100	-2.396280
0.383200	-2.468013
0.383300	-2.619269
0.383400	-2.903280
0.383500	-2.987996
0.383600	-3.001629
0.383700	-2.953266
0.383800	-2.974688
0.383900	-3.012340
0.384000	-3.061352
0.384100	-3.126594
0.384200	-3.179825
0.384300	-3.200274
0.384400	-3.203845
0.384500	-3.246690
0.384600	-3.262594
0.384700	-3.288886
0.384800	-3.297325
0.384900	-3.368734
0.385000	-3.416772
0.385100	-3.417097
0.385200	-3.306738
0.385300	-3.074985
0.385400	-3.110689
0.385500	-3.372629
0.385600	-3.653719
0.385700	-3.762131
0.385800	-3.521613
0.385900	-3.246690
0.386000	-3.195081
0.386100	-3.383989
0.386200	-3.698187
0.386300	-3.813415
0.386400	-3.744279
0.386500	-3.549527
0.386600	-3.423913
0.386700	-3.445660
0.386800	-3.489804
0.386900	-3.492400
0.387000	-3.461889
0.387100	-3.450204
0.387200	-3.438519
0.387300	-3.363865
0.387400	-3.257076
0.387500	-3.070765
0.387600	-2.914640
0.387700	-2.885752
0.387800	-2.887050
0.387900	-2.885427
0.388000	-2.781236
0.388100	-2.537798
0.388200	-2.452433
0.388300	-2.185301
0.388400	-2.228795
0.388500	-2.189845
0.388600	-2.098637
0.388700	-1.973673
0.388800	-1.889281
0.388900	-1.732508
0.389000	-1.685443
0.389100	-1.627667
0.389200	-1.651037
0.389300	-1.619228
0.389400	-1.643896
0.389500	-1.603973
0.389600	-1.594884
0.389700	-1.488746
0.389800	-1.500431
0.389900	-1.441357
0.390000	-1.482254
0.390100	-1.489395
0.390200	-1.476736
0.390300	-1.438111
0.390400	-1.085615
0.390500	-0.880803
0.390600	-0.800307
0.390700	-1.305357
0.390800	-1.493615
0.390900	-1.492966
0.391000	-1.165787
0.391100	-0.985968
0.391200	-0.868145
0.391300	-1.026216
0.391400	-1.210579
0.391500	-1.282636
0.391600	-1.102493
0.391700	-0.904823
0.391800	-0.870741
0.391900	-0.782780
0.392000	-0.797710
0.392100	-0.801281
0.392200	-0.798684
0.392300	-0.747400
0.392400	-0.712995
0.392500	-0.696441
0.392600	-0.636718
0.392700	-0.619190
0.392800	-0.612699
0.392900	-0.728899
0.393000	-0.728250
0.393100	-0.775964
0.393200	-0.823028
0.393300	-0.665281
0.393400	-0.620489
0.393500	-0.633147
0.393600	-1.002197
0.393700	-1.184937
0.393800	-1.133328
0.393900	-0.844775
0.394000	-0.659114
0.394100	-0.759085
0.394200	-1.113853
0.394300	-1.397214
0.394400	-1.335543
0.394500	-1.093729
0.394600	-0.885348
0.394700	-0.991486
0.394800	-1.216746
0.394900	-1.360536
0.395000	-1.328727
0.395100	-1.301787
0.395200	-1.279390
0.395300	-1.380335
0.395400	-1.463753
0.395500	-1.509195
0.395600	-1.497185
0.395700	-1.515362
0.395800	-1.611763
0.395900	-1.727963
0.396000	-1.743219
0.396100	-1.700374
0.396200	-1.719524
0.396300	-1.752956
0.396400	-1.984384
0.396500	-2.125902
0.396600	-2.173291
0.396700	-2.245673
0.396800	-2.138561
0.396900	-2.215487
0.397000	-2.229119
0.397100	-2.228470
0.397200	-2.253139
0.397300	-2.241778
0.397400	-2.258981
0.397500	-2.224575
0.397600	-2.249244
0.397700	-2.250866
0.397800	-2.241129
0.397900	-2.250542
0.398000	-2.258007
0.398100	-2.257358
0.398200	-2.266771
0.398300	-2.278456
0.398400	-2.303449
0.398500	-2.355382
0.398600	-2.380051
0.398700	-2.566037
0.398800	-2.914640
0.398900	-3.081476
0.399000	-2.856539
0.399100	-2.626085
0.399200	-2.516376
0.399300	-2.732224
0.399400	-3.113610
0.399500	-3.364839
0.399600	-3.252532
0.399700	-3.059729
0.399800	-2.863031
0.399900	-2.949371
0.400000	-3.196704
0.400100	-3.389832
0.400200	-3.410605
0.400300	-3.318748
0.400400	-3.213258
0.400500	-3.170412
0.400600	-3.200599
0.400700	-3.267139
0.400800	-3.249936
0.400900	-3.233706
0.401000	-3.180150
0.401100	-3.168140
0.401200	-3.185668
0.401300	-3.212933
0.401400	-3.190212
0.401500	-3.126269
0.401600	-3.158727
0.401700	-3.229487
0.401800	-3.217153
0.401900	-2.957161
0.402000	-2.766954
0.402100	-2.818888
0.402200	-3.123023
0.402300	-3.328161
0.402400	-3.339521
0.402500	-3.021753
0.402600	-2.709828
0.402700	-2.708529
0.402800	-2.965275
0.402900	-3.314528
0.403000	-3.404763
0.403100	-3.212933
0.403200	-2.995461
0.403300	-2.886726
0.403400	-2.938335
0.403500	-3.000655
0.403600	-3.001953
0.403700	-2.930220
0.403800	-2.886401
0.403900	-2.820511
0.404000	-2.741312
0.404100	-2.622190
0.404200	-2.472881
0.404300	-2.327793
0.404400	-2.283325
0.404500	-2.257034
0.404600	-2.267096
0.404700	-2.148298
0.404800	-1.938942
0.404900	-1.742570
0.405000	-1.582550
0.405100	-1.617930
0.405200	-1.607543
0.405300	-1.542951
0.405400	-1.436813
0.405500	-1.291725
0.405600	-1.141768
0.405700	-1.126837
0.405800	-1.138197
0.405900	-1.193701
0.406000	-1.197596
0.406100	-1.202789
0.406200	-1.220641
0.406300	-1.200841
0.406400	-1.190130
0.406500	-1.246283
0.406600	-1.223238
0.406700	-1.316393
0.406800	-1.373519
0.406900	-1.341061
0.407000	-1.343982
0.407100	-0.889243
0.407200	-0.856460
0.407300	-0.783104
0.407400	-1.353395
0.407500	-1.415715
0.407600	-1.384880
0.407700	-1.127810
0.407800	-0.824651
0.407900	-0.873663
0.408000	-1.032708
0.408100	-1.237844
0.408200	-1.286207
0.408300	-1.071982
0.408400	-0.923973
0.408500	-0.751295
0.408600	-0.808746
0.408700	-0.889243
0.408800	-1.022970
0.408900	-1.057701
0.409000	-1.001223
0.409100	-0.925271
0.409200	-0.912288
0.409300	-0.908718
0.409400	-0.935009
0.409500	-1.013233
0.409600	-1.076202
0.409700	-1.118073
0.409800	-1.127486
0.409900	-1.122293
0.410000	-1.036603
0.410100	-0.905796
0.410200	-0.971686
0.410300	-1.256020
0.410400	-1.321261
0.410500	-1.187534
0.410600	-0.849968
0.410700	-0.654245
0.410800	-0.710398
0.410900	-1.025567
0.411000	-1.183639
0.411100	-1.057701
0.411200	-0.775639
0.411300	-0.571801
0.411400	-0.598093
0.411500	-0.712021
0.411600	-0.778885
0.411700	-0.727601
0.411800	-0.723381
0.411900	-0.645806
0.412000	-0.701634
0.412100	-0.721434
0.412200	-0.730197
0.412300	-0.685081
0.412400	-0.724030
0.412500	-0.796737
0.412600	-0.837634
0.412700	-0.829195
0.412800	-0.783429
0.412900	-0.767524
0.413000	-0.782455
0.413100	-0.963572
0.413200	-1.032059
0.413300	-1.035629
0.413400	-1.021672
0.413500	-0.876584
0.413600	-0.930789
0.413700	-0.925596
0.413800	-0.896383
0.413900	-0.874312
0.414000	-0.855486
0.414100	-0.825625
0.414200	-0.833415
0.414300	-0.838932
0.414400	-0.838932
0.414500	-0.844126
0.414600	-0.900278
0.414700	-0.949939
0.414800	-0.992135
0.414900	-1.066789
0.415000	-1.179094
0.415100	-1.260889
0.415200	-1.398837
0.415300	-1.516985
0.415400	-1.828259
0.415500	-2.275535
0.415600	-2.426141
0.415700	-2.276833
0.415800	-2.139534
0.415900	-2.155764
0.416000	-2.514428
0.416100	-2.910096
0.416200	-3.170412
0.416300	-3.154508
0.416400	-3.008445
0.416500	-2.938984
0.416600	-3.077581
0.416700	-3.318423
0.416800	-3.517069
0.416900	-3.593996
0.417000	-3.603084
0.417100	-3.633920
0.417200	-3.661509
0.417300	-3.694617
0.417400	-3.762131
0.417500	-3.795563
0.417600	-3.854313
0.417700	-3.904948
0.417800	-3.896834
0.417900	-3.920204
0.418000	-3.867946
0.418100	-3.774790
0.418200	-3.669624
0.418300	-3.668326
0.418400	-3.635867
0.418500	-3.497918
0.418600	-3.182097
0.418700	-2.975013
0.418800	-3.031166
0.418900	-3.246690
0.419000	-3.295377
0.419100	-3.132436
0.419200	-2.761436
0.419300	-2.491058
0.419400	-2.472232
0.419500	-2.663737
0.419600	-2.815317
0.419700	-2.792272
0.419800	-2.595574
0.419900	-2.440423
0.420000	-2.423869
0.420100	-2.466390
0.420200	-2.496252
0.420300	-2.457626
0.420400	-2.477426
0.420500	-2.494953
0.420600	-2.489760
0.420700	-2.428738
0.420800	-2.329416
0.420900	-2.157387
0.421000	-2.045405
0.421100	-2.043782
0.421200	-2.029825
0.421300	-2.016193
0.421400	-1.866236
0.421500	-1.702970
0.421600	-1.423505
0.421700	-1.374493
0.421800	-1.438111
0.421900	-1.433242
0.422000	-1.373844
0.422100	-1.283935
0.422200	-1.188832
0.422300	-1.136574
0.422400	-1.115801
0.422500	-1.099896
0.422600	-1.121968
0.422700	-1.087887
0.422800	-1.152479
0.422900	-1.136574
0.423000	-1.100546
0.423100	-1.080421
0.423200	-1.041796
0.423300	-1.104441
0.423400	-1.109634
0.423500	-1.164164
0.423600	-1.181042
0.423700	-0.934035
0.423800	-0.754541
0.423900	-0.477997
0.424000	-0.775639
0.424100	-1.059324
0.424200	-1.243037
0.424300	-0.979476
0.424400	-0.701959
0.424500	-0.554274
0.424600	-0.540966
0.424700	-0.796412
0.424800	-0.971037
0.424900	-0.963247
0.425000	-0.774341
0.425100	-0.662035
0.425200	-0.670474
0.425300	-0.755839
0.425400	-0.852240
0.425500	-0.930465
0.425600	-0.959677
0.425700	-1.033682
0.425800	-1.128460
0.425900	-1.244011
0.426000	-1.342684
0.426100	-1.435514
0.426200	-1.555935
0.426300	-1.712383
0.426400	-1.839295
0.426500	-1.968479
0.426600	-2.074942
0.426700	-2.007105
0.426800	-2.146675
0.426900	-2.225874
0.427000	-2.739365
0.427100	-2.795842
0.427200	-2.672500
0.427300	-2.367716
0.427400	-2.307993
0.427500	-2.513130
0.427600	-2.893542
0.427700	-2.999356
0.427800	-2.864329
0.427900	-2.567660
0.428000	-2.458275
0.428100	-2.576748
0.428200	-2.735794
0.428300	-2.771498
0.428400	-2.677694
0.428500	-2.619918
0.428600	-2.589082
0.428700	-2.656271
0.428800	-2.706582
0.428900	-2.669904
0.429000	-2.564414
0.429100	-2.494629
0.429200	-2.517674
0.429300	-2.508261
0.429400	-2.442371
0.429500	-2.313836
0.429600	-2.208022
0.429700	-2.224251
0.429800	-2.314485
0.429900	-2.311564
0.430000	-2.274561
0.430100	-2.181406
0.430200	-2.036317
0.430300	-2.035668
0.430400	-2.015868
0.430500	-1.989577
0.430600	-1.935372
0.430700	-1.901291
0.430800	-1.853252
0.430900	-1.814627
0.431000	-1.804240
0.431100	-1.770159
0.431200	-1.729586
0.431300	-1.708164
0.431400	-1.700698
0.431500	-1.688689
0.431600	-1.667266
0.431700	-1.697128
0.431800	-1.717577
0.431900	-1.753930
0.432000	-1.823715
0.432100	-2.128174
0.432200	-2.474504
0.432300	-2.451459
0.432400	-2.199907
0.432500	-1.914274
0.432600	-1.946408
0.432700	-2.205425
0.432800	-2.625436
0.432900	-2.762086
0.433000	-2.627059
0.433100	-2.434581
0.433200	-2.362848
0.433300	-2.502094
0.433400	-2.768577
0.433500	-2.920807
0.433600	-2.914640
0.433700	-2.879260
0.433800	-2.859785
0.433900	-2.922430
0.434000	-3.008769
0.434100	-3.078555
0.434200	-3.099328
0.434300	-3.124971
0.434400	-3.134708
0.434500	-3.203195
0.434600	-3.350881
0.434700	-3.417421
0.434800	-3.403140
0.434900	-3.455073
0.435000	-3.502138
0.435100	-3.586530
0.435200	-3.527456
0.435300	-3.354776
0.435400	-3.294079
0.435500	-3.487532
0.435600	-3.864700
0.435700	-4.054258
0.435800	-4.000052
0.435900	-3.749796
0.436000	-3.633595
0.436100	-3.769596
0.436200	-4.104244
0.436300	-4.322691
0.436400	-4.353202
0.436500	-4.199348
0.436600	-4.071136
0.436700	-4.081523
0.436800	-4.144493
0.436900	-4.188312
0.437000	-4.137676
0.437100	-4.081198
0.437200	-4.037379
0.437300	-3.950066
0.437400	-3.859182
0.437500	-3.712794
0.437600	-3.551799
0.437700	-3.423588
0.437800	-3.370032
0.437900	-3.309984
0.438000	-3.256752
0.438100	-2.985724
0.438200	-2.823107
0.438300	-2.509884
0.438400	-2.435554
0.438500	-2.367716
0.438600	-2.283649
0.438700	-2.156088
0.438800	-2.043782
0.438900	-1.879219
0.439000	-1.778274
0.439100	-1.731858
0.439200	-1.726990
0.439300	-1.752307
0.439400	-1.672784
0.439500	-1.782818
0.439600	-1.647467
0.439700	-1.657204
0.439800	-1.595858
0.439900	-1.606245
0.440000	-1.632211
0.440100	-1.639028
0.440200	-1.673433
0.440300	-1.626694
0.440400	-1.380985
0.440500	-1.066140
0.440600	-0.885997
0.440700	-1.190455
0.440800	-1.462130
0.440900	-1.603973
0.441000	-1.307954
0.441100	-1.068087
0.441200	-0.915858
0.441300	-0.967791
0.441400	-1.245634
0.441500	-1.334245
0.441600	-1.294321
0.441700	-1.220316
0.441800	-1.147285
0.441900	-1.176498
0.442000	-1.280040
0.442100	-1.358588
0.442200	-1.433892
0.442300	-1.447199
0.442400	-1.457586
0.442500	-1.483553
0.442600	-1.502703
0.442700	-1.525099
0.442800	-1.636431
0.442900	-1.712383
0.443000	-1.848384
0.443100	-1.903563
0.443200	-1.965233
0.443300	-1.841567
0.443400	-1.880842
0.443500	-1.788985
0.443600	-2.059687
0.443700	-2.281377
0.443800	-2.202828
0.443900	-1.955496
0.444000	-1.618579
0.444100	-1.592612
0.444200	-1.706541
0.444300	-1.950627
0.444400	-1.864288
0.444500	-1.596507
0.444600	-1.274522
0.444700	-1.205061
0.444800	-1.269977
0.444900	-1.362483
0.445000	-1.284259
0.445100	-1.221615
0.445200	-1.118073
0.445300	-1.101195
0.445400	-1.162216
0.445500	-1.203763
0.445600	-1.145987
0.445700	-1.058350
0.445800	-1.070359
0.445900	-1.108660
0.446000	-1.108985
0.446100	-1.015830
0.446200	-0.924947
0.446300	-0.843152
0.446400	-0.936632
0.446500	-1.058999
0.446600	-1.060622
0.446700	-1.016479
0.446800	-0.890541
0.446900	-0.868145
0.447000	-0.871715
0.447100	-0.835687
0.447200	-0.811992
0.447300	-0.789271
0.447400	-0.738961
0.447500	-0.733768
0.447600	-0.732794
0.447700	-0.699687
0.447800	-0.706178
0.447900	-0.718188
0.448000	-0.737663
0.448100	-0.741233
0.448200	-0.769796
0.448300	-0.806474
0.448400	-0.875286
0.448500	-0.962598
0.448600	-1.026865
0.448700	-1.196622
0.448800	-1.556259
0.448900	-1.849357
0.449000	-1.891228
0.449100	-1.603973
0.449200	-1.517958
0.449300	-1.645519
0.449400	-2.101558
0.449500	-2.457301
0.449600	-2.512156
0.449700	-2.428089
0.449800	-2.254761
0.449900	-2.348241
0.450000	-2.533254
0.450100	-2.808176
0.450200	-2.888349
0.450300	-2.854592
0.450400	-2.835442
0.450500	-2.880559
0.450600	-2.979232
0.450700	-3.052588
0.450800	-3.050641
0.450900	-3.028894
0.451000	-3.017858
0.451100	-3.080503
0.451200	-3.151911
0.451300	-3.229162
0.451400	-3.110364
0.451500	-3.070765
0.451600	-3.108741
0.451700	-3.176580
0.451800	-3.174957
0.451900	-2.968846
0.452000	-2.715670
0.452100	-2.725408
0.452200	-2.939308
0.452300	-3.196379
0.452400	-3.207740
0.452500	-3.037657
0.452600	-2.744883
0.452700	-2.630305
0.452800	-2.819212
0.452900	-3.104522
0.453000	-3.292781
0.453100	-3.195081
0.453200	-3.019156
0.453300	-2.895814
0.453400	-2.944502
0.453500	-3.039930
0.453600	-3.128216
0.453700	-3.131138
0.453800	-3.103548
0.453900	-3.052264
0.454000	-3.001953
0.454100	-2.962354
0.454200	-2.870821
0.454300	-2.752997
0.454400	-2.695546
0.454500	-2.675097
0.454600	-2.685484
0.454700	-2.611479
0.454800	-2.416079
0.454900	-2.249893
0.455000	-2.038265
0.455100	-2.061310
0.455200	-2.040212
0.455300	-1.984059
0.455400	-1.850331
0.455500	-1.757500
0.455600	-1.555610
0.455700	-1.526073
0.455800	-1.502703
0.455900	-1.536784
0.456000	-1.538407
0.456100	-1.515037
0.456200	-1.533863
0.456300	-1.424479
0.456400	-1.459209
0.456500	-1.357290
0.456600	-1.402407
0.456700	-1.355667
0.456800	-1.400135
0.456900	-1.422207
0.457000	-1.317042
0.457100	-1.045367
0.457200	-0.688002
0.457300	-0.611725
0.457400	-0.969090
0.457500	-1.241739
0.457600	-1.145662
0.457700	-0.827247
0.457800	-0.648403
0.457900	-0.438723
0.458000	-0.603935
0.458100	-0.755190
0.458200	-0.855811
0.458300	-0.671124
0.458400	-0.432231
0.458500	-0.321224
0.458600	-0.307267
0.458700	-0.367315
0.458800	-0.419573
0.458900	-0.407888
0.459000	-0.397176
0.459100	-0.320575
0.459200	-0.289091
0.459300	-0.326742
0.459400	-0.383219
0.459500	-0.376728
0.459600	-0.565959
0.459700	-0.602312
0.459800	-0.663009
0.459900	-0.677940
0.460000	-0.587057
0.460100	-0.670799
0.460200	-0.602961
0.460300	-1.018426
0.460400	-1.157347
0.460500	-1.157672
0.460600	-0.895410
0.460700	-0.727276
0.460800	-0.874636
0.460900	-1.079123
0.461000	-1.454665
0.461100	-1.485500
0.461200	-1.316393
0.461300	-1.136250
0.461400	-1.094054
0.461500	-1.282636
0.461600	-1.485500
0.461700	-1.543925
0.461800	-1.592288
0.461900	-1.521529
0.462000	-1.538732
0.462100	-1.594235
0.462200	-1.686092
0.462300	-1.691610
0.462400	-1.716278
0.462500	-1.767562
0.462600	-1.803591
0.462700	-1.779897
0.462800	-1.727963
0.462900	-1.732183
0.463000	-1.714655
0.463100	-1.834751
0.463200	-1.936995
0.463300	-1.945758
0.463400	-1.979190
0.463500	-1.866885
0.463600	-1.900317
0.463700	-1.926933
0.463800	-1.927582
0.463900	-1.932451
0.464000	-1.946732
0.464100	-1.949653
0.464200	-1.953548
0.464300	-1.963935
0.464400	-1.976269
0.464500	-1.973348
0.464600	-2.003859
0.464700	-2.023009
0.464800	-2.050274
0.464900	-2.083706
0.465000	-2.095391
0.465100	-2.117463
0.465200	-2.121358
0.465300	-2.181730
0.465400	-2.372910
0.465500	-2.749102
0.465600	-2.945151
0.465700	-2.765007
0.465800	-2.506963
0.465900	-2.328117
0.466000	-2.541369
0.466100	-2.899060
0.466200	-3.126269
0.466300	-3.156131
0.466400	-2.955862
0.466500	-2.826678
0.466600	-2.840959
0.466700	-3.041552
0.466800	-3.218775
0.466900	-3.344065
0.467000	-3.326538
0.467100	-3.276552
0.467200	-3.241821
0.467300	-3.231434
0.467400	-3.296676
0.467500	-3.408982
0.467600	-3.428133
0.467700	-3.420343
0.467800	-3.427808
0.467900	-3.539141
0.468000	-3.446959
0.468100	-3.461240
0.468200	-3.492400
0.468300	-3.606654
0.468400	-3.649175
0.468500	-3.580688
0.468600	-3.379120
0.468700	-3.219425
0.468800	-3.337898
0.468900	-3.603084
0.469000	-3.813091
0.469100	-3.789396
0.469200	-3.623533
0.469300	-3.383015
0.469400	-3.332705
0.469500	-3.490128
0.469600	-3.742006
0.469700	-3.899755
0.469800	-3.882552
0.469900	-3.703381
0.470000	-3.564783
0.470100	-3.517718
0.470200	-3.559590
0.470300	-3.609251
0.470400	-3.646903
0.470500	-3.622884
0.470600	-3.547580
0.470700	-3.430729
0.470800	-3.308361
0.470900	-3.152885
0.471000	-3.017533
0.471100	-2.959108
0.471200	-2.915938
0.471300	-2.880559
0.471400	-2.719890
0.471500	-2.475154
0.471600	-2.252814
0.471700	-2.048976
0.471800	-2.036317
0.471900	-1.995095
0.472000	-1.904212
0.472100	-1.780546
0.472200	-1.638379
0.472300	-1.465051
0.472400	-1.377090
0.472500	-1.336192
0.472600	-1.326130
0.472700	-1.324183
0.472800	-1.320937
0.472900	-1.317691
0.473000	-1.256020
0.473100	-1.180068
0.473200	-1.138522
0.473300	-1.192078
0.473400	-1.241414
0.473500	-1.298541
0.473600	-1.276469
0.473700	-1.192402
0.473800	-0.790245
0.473900	-0.658465
0.474000	-0.713968
0.474100	-1.151180
0.474200	-1.412794
0.474300	-1.209930
0.474400	-1.007066
0.474500	-0.731820
0.474600	-0.742856
0.474700	-0.922350
0.474800	-1.126837
0.474900	-1.116775
0.475000	-0.984994
0.475100	-0.822379
0.475200	-0.726302
0.475300	-0.719162
0.475400	-0.743181
0.475500	-0.798360
0.475600	-0.814589
0.475700	-0.818808
0.475800	-0.750322
0.475900	-0.759085
0.476000	-0.803228
0.476100	-0.800307
0.476200	-0.821405
0.476300	-0.904823
0.476400	-1.089834
0.476500	-0.991811
0.476600	-0.981099
0.476700	-0.856460
0.476800	-0.861653
0.476900	-0.935658
0.477000	-1.263810
0.477100	-1.368975
0.477200	-1.266407
0.477300	-0.924297
0.477400	-0.832441
0.477500	-1.000574
0.477600	-1.221290
0.477700	-1.405328
0.477800	-1.386178
0.477900	-1.242388
0.478000	-1.085939
0.478100	-1.019725
0.478200	-1.142741
0.478300	-1.274522
0.478400	-1.303734
0.478500	-1.299514
0.478600	-1.224536
0.478700	-1.258617
0.478800	-1.296269
0.478900	-1.356316
0.479000	-1.314121
0.479100	-1.330025
0.479200	-1.351772
0.479300	-1.371247
0.479400	-1.359562
0.479500	-1.251152
0.479600	-1.214474
0.479700	-1.199543
0.479800	-1.389424
0.479900	-1.464078
0.480000	-1.464402
0.480100	-1.293023
0.480200	-1.256670
0.480300	-1.311849
0.480400	-1.341386
0.480500	-1.347877
0.480600	-1.351772
0.480700	-1.357290
0.480800	-1.365405
0.480900	-1.380011
0.481000	-1.359562
0.481100	-1.402732
0.481200	-1.410522
0.481300	-1.442655
0.481400	-1.455639
0.481500	-1.495562
0.481600	-1.517958
0.481700	-1.568918
0.481800	-1.593262
0.481900	-1.685118
0.482000	-1.758474
0.482100	-2.053845
0.482200	-2.410886
0.482300	-2.565712
0.482400	-2.388490
0.482500	-2.124279
0.482600	-2.089549
0.482700	-2.344346
0.482800	-2.754620
0.482900	-3.019156
0.483000	-3.016559
0.483100	-2.810124
0.483200	-2.715995
0.483300	-2.837714
0.483400	-3.076932
0.483500	-3.300895
0.483600	-3.422615
0.483700	-3.413851
0.483800	-3.366462
0.483900	-3.414500
0.484000	-3.488181
0.484100	-3.593022
0.484200	-3.621910
0.484300	-3.585881
0.484400	-3.620287
0.484500	-3.754665
0.484600	-3.821530
0.484700	-3.744603
0.484800	-3.712794
0.484900	-3.760508
0.485000	-3.878981
0.485100	-3.964997
0.485200	-3.868919
0.485300	-3.641710
0.485400	-3.579714
0.485500	-3.738761
0.485600	-4.072110
0.485700	-4.266862
0.485800	-4.165915
0.485900	-3.953961
0.486000	-3.808871
0.486100	-3.832890
0.486200	-4.017904
0.486300	-4.257773
0.486400	-4.371703
0.486500	-4.369431
0.486600	-4.229859
0.486700	-4.092559
0.486800	-4.070812
0.486900	-4.171109
0.487000	-4.225315
0.487100	-4.243492
0.487200	-4.180846
0.487300	-4.048091
0.487400	-3.960777
0.487500	-3.820556
0.487600	-3.681958
0.487700	-3.552773
0.487800	-3.492725
0.487900	-3.457670
0.488000	-3.416123
0.488100	-3.274929
0.488200	-3.112636
0.488300	-3.032464
0.488400	-2.763059
0.488500	-2.764358
0.488600	-2.766305
0.488700	-2.674448
0.488800	-2.569607
0.488900	-2.401149
0.489000	-2.266122
0.489100	-2.207048
0.489200	-2.177835
0.489300	-2.125902
0.489400	-2.161931
0.489500	-2.116489
0.489600	-2.113243
0.489700	-2.011649
0.489800	-1.917195
0.489900	-1.898369
0.490000	-1.835400
0.490100	-1.981138
0.490200	-1.903238
0.490300	-1.950952
0.490400	-1.667591
0.490500	-1.382932
0.490600	-1.036278
0.490700	-1.199868
0.490800	-1.626694
0.490900	-1.746789
0.491000	-1.646818
0.491100	-1.279066
0.491200	-0.948966
0.491300	-0.994732
0.491400	-1.034006
0.491500	-1.278741
0.491600	-1.189157
0.491700	-1.093729
0.491800	-0.832116
0.491900	-0.653921
0.492000	-0.686054
0.492100	-0.666255
0.492200	-0.758761
0.492300	-0.663334
0.492400	-0.607830
0.492500	-0.575047
0.492600	-0.622436
0.492700	-0.613673
0.492800	-0.491954
0.492900	-0.632174
0.493000	-0.721434
0.493100	-0.833415
0.493200	-0.779209
0.493300	-0.672422
0.493400	-0.629902
0.493500	-0.591601
0.493600	-0.846398
0.493700	-1.117748
0.493800	-1.236870
0.493900	-1.133978
0.494000	-0.844775
0.494100	-0.838608
0.494200	-1.062245
0.494300	-1.335219
0.494400	-1.494588
0.494500	-1.470245
0.494600	-1.382608
0.494700	-1.297242
0.494800	-1.330999
0.494900	-1.421233
0.495000	-1.541653
0.495100	-1.676355
0.495200	-1.714006
0.495300	-1.677653
0.495400	-1.715954
0.495500	-1.744517
0.495600	-1.783142
0.495700	-1.789634
0.495800	-1.850656
0.495900	-1.903563
0.496000	-1.924336
0.496100	-1.915572
0.496200	-1.906808
0.496300	-1.898045
0.496400	-1.938942
0.496500	-2.123954
0.496600	-2.195038
0.496700	-2.232365
0.496800	-2.228146
0.496900	-2.129797
0.497000	-2.166150
0.497100	-2.162255
0.497200	-2.138561
0.497300	-2.114866
0.497400	-2.140833
0.497500	-2.147000
0.497600	-2.145052
0.497700	-2.173616
0.497800	-2.152518
0.497900	-2.141482
0.498000	-2.164527
0.498100	-2.163554
0.498200	-2.159334
0.498300	-2.171019
0.498400	-2.205749
0.498500	-2.277807
0.498600	-2.290141
0.498700	-2.390113
0.498800	-2.670228
0.498900	-2.945151
0.499000	-3.007471
0.499100	-2.805580
0.499200	-2.568958
0.499300	-2.572204
0.499400	-2.887050
0.499500	-3.219100
0.499600	-3.425211
0.499700	-3.360294
0.499800	-3.160350
0.499900	-3.057457
0.500000	-3.146393
0.500100	-3.358671
0.500200	-3.561537
0.500300	-3.546282
0.500400	-3.522911
0.500500	-3.472276
0.500600	-3.502787
0.500700	-3.560239
0.500800	-3.553422
0.500900	-3.527456
0.501000	-3.455398
0.501100	-3.555370
0.501200	-3.647877
0.501300	-3.593996
0.501400	-3.536219
0.501500	-3.527456
0.501600	-3.569327
0.501700	-3.645605
0.501800	-3.625156
0.501900	-3.485584
0.502000	-3.247339
0.502100	-3.196704
0.502200	-3.371330
0.502300	-3.675142
0.502400	-3.810494
0.502500	-3.654693
0.502600	-3.414175
0.502700	-3.358671
0.502800	-3.447283
0.502900	-3.679037
0.503000	-3.845549
0.503100	-3.887096
0.503200	-3.875736
0.503300	-3.793940
0.503400	-3.748174
0.503500	-3.743305
0.503600	-3.780957
0.503700	-3.821205
0.503800	-3.832890
0.503900	-3.800107
0.504000	-3.715715
0.504100	-3.639113
0.504200	-3.512200
0.504300	-3.358347
0.504400	-3.291158
0.504500	-3.297974
0.504600	-3.257401
0.504700	-3.246041
0.504800	-3.060054
0.504900	-2.930545
0.505000	-2.680615
0.505100	-2.626085
0.505200	-2.633226
0.505300	-2.576424
0.505400	-2.483917
0.505500	-2.381674
0.505600	-2.214513
0.505700	-2.173940
0.505800	-2.097663
0.505900	-2.107076
0.506000	-2.060336
0.506100	-2.037940
0.506200	-2.043133
0.506300	-2.049625
0.506400	-1.942513
0.506500	-1.957443
0.506600	-1.878570
0.506700	-1.873376
0.506800	-1.954522
0.506900	-1.888956
0.507000	-1.919467
0.507100	-1.588393
0.507200	-1.288479
0.507300	-1.062894
0.507400	-1.324832
0.507500	-1.588068
0.507600	-1.701997
0.507700	-1.395915
0.507800	-1.136250
0.507900	-0.820756
0.508000	-0.918780
0.508100	-1.085290
0.508200	-1.227133
0.508300	-1.150531
0.508400	-0.952212
0.508500	-0.737338
0.508600	-0.623085
0.508700	-0.736689
0.508800	-0.734742
0.508900	-0.786350
0.509000	-0.694818
0.509100	-0.626007
0.509200	-0.650999
0.509300	-0.672746
0.509400	-0.732145
0.509500	-0.606856
0.509600	-0.777262
0.509700	-0.828221
0.509800	-0.939553
0.509900	-0.865224
0.510000	-0.853863
0.510100	-0.812641
0.510200	-0.874961
0.510300	-1.083343
0.510400	-1.364106
0.510500	-1.359887
0.510600	-1.237195
0.510700	-0.899954
0.510800	-0.970064
0.510900	-1.211877
0.511000	-1.446875
0.511100	-1.480307
0.511200	-1.409223
0.511300	-1.257968
0.511400	-1.215448
0.511500	-1.264135
0.511600	-1.399486
0.511700	-1.482904
0.511800	-1.558531
0.511900	-1.509195
0.512000	-1.501729
0.512100	-1.531915
0.512200	-1.615009
0.512300	-1.669214
0.512400	-1.681223
0.512500	-1.742245
0.512600	-1.831505
0.512700	-1.866560
0.512800	-1.868832
0.512900	-1.925959
0.513000	-1.956470
0.513100	-2.051572
0.513200	-2.203802
0.513300	-2.270017
0.513400	-2.322275
0.513500	-2.343697
0.513600	-2.277807
0.513700	-2.370962
0.513800	-2.374208
0.513900	-2.406017
0.514000	-2.420948
0.514100	-2.436204
0.514200	-2.483593
0.514300	-2.494304
0.514400	-2.532605
0.514500	-2.577073
0.514600	-2.594600
0.514700	-2.615698
0.514800	-2.623164
0.514900	-2.652376
0.515000	-2.679641
0.515100	-2.738066
0.515200	-2.809150
0.515300	-2.850372
0.515400	-2.953590
0.515500	-3.293430
0.515600	-3.576468
0.515700	-3.551475
0.515800	-3.310958
0.515900	-3.149964
0.516000	-3.148016
0.516100	-3.529728
0.516200	-3.809845
0.516300	-3.953636
0.516400	-3.819258
0.516500	-3.619638
0.516600	-3.554072
0.516700	-3.715390
0.516800	-3.918581
0.516900	-4.059776
0.517000	-4.062697
0.517100	-3.947794
0.517200	-3.912089
0.517300	-3.902027
0.517400	-3.984796
0.517500	-4.016930
0.517600	-3.974085
0.517700	-3.929941
0.517800	-3.993560
0.517900	-4.043222
0.518000	-3.962075
0.518100	-3.887745
0.518200	-3.939030
0.518300	-4.021475
0.518400	-4.084769
0.518500	-4.026019
0.518600	-3.808222
0.518700	-3.657290
0.518800	-3.672221
0.518900	-3.865024
0.519000	-4.190259
0.519100	-4.260695
0.519200	-4.042573
0.519300	-3.853015
0.519400	-3.799458
0.519500	-3.917607
0.519600	-4.138326
0.519700	-4.298022
0.519800	-4.334700
0.519900	-4.234079
0.520000	-4.073733
0.520100	-4.004921
0.520200	-4.027642
0.520300	-4.103270
0.520400	-4.157152
0.520500	-4.139949
0.520600	-4.036730
0.520700	-3.905598
0.520800	-3.810494
0.520900	-3.680984
0.521000	-3.560888
0.521100	-3.494673
0.521200	-3.460916
0.521300	-3.413202
0.521400	-3.307387
0.521500	-3.067195
0.521600	-2.963652
0.521700	-2.676071
0.521800	-2.618944
0.521900	-2.580319
0.522000	-2.501120
0.522100	-2.373559
0.522200	-2.242103
0.522300	-2.024957
0.522400	-1.946083
0.522500	-1.853577
0.522600	-1.853577
0.522700	-1.836049
0.522800	-1.797099
0.522900	-1.773405
0.523000	-1.727314
0.523100	-1.599104
0.523200	-1.597157
0.523300	-1.547171
0.523400	-1.583849
0.523500	-1.599104
0.523600	-1.590989
0.523700	-1.539056
0.523800	-1.155400
0.523900	-0.910016
0.524000	-0.707801
0.524100	-1.040498
0.524200	-1.338464
0.524300	-1.272899
0.524400	-1.092756
0.524500	-0.673396
0.524600	-0.560766
0.524700	-0.582188
0.524800	-0.764603
0.524900	-0.856135
0.525000	-0.775314
0.525100	-0.546809
0.525200	-0.460145
0.525300	-0.315382
0.525400	-0.444890
0.525500	-0.530904
0.525600	-0.586083
0.525700	-0.577319
0.525800	-0.531229
0.525900	-0.568231
0.526000	-0.610427
0.526100	-0.651973
0.526200	-0.621138
0.526300	-0.893462
0.526400	-0.979152
0.526500	-1.030760
0.526600	-1.064192
0.526700	-0.890216
0.526800	-1.004145
0.526900	-1.001873
0.527000	-1.393968
0.527100	-1.606894
0.527200	-1.550741
0.527300	-1.308278
0.527400	-1.136250
0.527500	-1.300164
0.527600	-1.572164
0.527700	-1.822417
0.527800	-1.858770
0.527900	-1.776326
0.528000	-1.658503
0.528100	-1.655581
0.528200	-1.732832
0.528300	-1.926933
0.528400	-2.023009
0.528500	-2.113568
0.528600	-2.074942
0.528700	-2.108374
0.528800	-2.159983
0.528900	-2.246971
0.529000	-2.264499
0.529100	-2.289492
0.529200	-2.352136
0.529300	-2.402771
0.529400	-2.395631
0.529500	-2.382972
0.529600	-2.391086
0.529700	-2.412184
0.529800	-2.574152
0.529900	-2.715995
0.530000	-2.754945
0.530100	-2.757217
0.530200	-2.625760
0.530300	-2.699116
0.530400	-2.746181
0.530500	-2.754620
0.530600	-2.749427
0.530700	-2.762410
0.530800	-2.768902
0.530900	-2.749751
0.531000	-2.753971
0.531100	-2.761112
0.531200	-2.759813
0.531300	-2.776043
0.531400	-2.770200
0.531500	-2.764358
0.531600	-2.750725
0.531700	-2.762410
0.531800	-2.732224
0.531900	-2.781561
0.532000	-2.801036
0.532100	-2.927623
0.532200	-3.226241
0.532300	-3.434624
0.532400	-3.290184
0.532500	-2.958459
0.532600	-2.866926
0.532700	-2.963977
0.532800	-3.317125
0.532900	-3.578740
0.533000	-3.551799
0.533100	-3.346337
0.533200	-3.159701
0.533300	-3.214231
0.533400	-3.438844
0.533500	-3.618339
0.533600	-3.699486
0.533700	-3.598864
0.533800	-3.554721
0.533900	-3.524534
0.534000	-3.569002
0.534100	-3.676116
0.534200	-3.678712
0.534300	-3.644306
0.534400	-3.654693
0.534500	-3.775763
0.534600	-3.836461
0.534700	-3.774465
0.534800	-3.693968
0.534900	-3.766026
0.535000	-3.847172
0.535100	-3.882877
0.535200	-3.835812
0.535300	-3.565107
0.535400	-3.420667
0.535500	-3.521288
0.535600	-3.762131
0.535700	-4.041924
0.535800	-4.026343
0.535900	-3.791993
0.536000	-3.633270
0.536100	-3.609576
0.536200	-3.779983
0.536300	-4.031212
0.536400	-4.164942
0.536500	-4.198374
0.536600	-4.088015
0.536700	-3.987393
0.536800	-3.992262
0.536900	-4.086716
0.537000	-4.186040
0.537100	-4.264265
0.537200	-4.254527
0.537300	-4.201620
0.537400	-4.139949
0.537500	-4.073084
0.537600	-3.966944
0.537700	-3.869893
0.537800	-3.837435
0.537900	-3.798809
0.538000	-3.808546
0.538100	-3.709872
0.538200	-3.463837
0.538300	-3.246041
0.538400	-3.064273
0.538500	-3.075634
0.538600	-3.052588
0.538700	-2.972091
0.538800	-2.834143
0.538900	-2.689703
0.539000	-2.518323
0.539100	-2.469960
0.539200	-2.415430
0.539300	-2.446266
0.539400	-2.381674
0.539500	-2.389788
0.539600	-2.351163
0.539700	-2.286571
0.539800	-2.241129
0.539900	-2.161931
0.540000	-2.197310
0.540100	-2.204127
0.540200	-2.206723
0.540300	-2.136613
0.540400	-2.014245
0.540500	-1.687066
0.540600	-1.357290
0.540700	-1.384555
0.540800	-1.720498
0.540900	-2.005806
0.541000	-1.822417
0.541100	-1.493615
0.541200	-1.220966
0.541300	-1.048288
0.541400	-1.248230
0.541500	-1.389424
0.541600	-1.491018
0.541700	-1.306006
0.541800	-1.071009
0.541900	-0.912937
0.542000	-0.872040
0.542100	-0.939553
0.542200	-0.947018
0.542300	-0.994083
0.542400	-0.902875
0.542500	-0.823352
0.542600	-0.861653
0.542700	-0.853214
0.542800	-0.844450
0.542900	-0.781481
0.543000	-1.021997
0.543100	-1.045367
0.543200	-1.127810
0.543300	-1.106388
0.543400	-1.004145
0.543500	-1.039524
0.543600	-1.088211
0.543700	-1.488421
0.543800	-1.623123
0.543900	-1.550417
0.544000	-1.246283
0.544100	-1.166111
0.544200	-1.343009
0.544300	-1.602674
0.544400	-1.801968
0.544500	-1.807486
0.544600	-1.696479
0.544700	-1.531591
0.544800	-1.560154
0.544900	-1.677328
0.545000	-1.884412
0.545100	-1.959715
0.545200	-2.070074
0.545300	-2.010026
0.545400	-2.069100
0.545500	-2.151544
0.545600	-2.267745
0.545700	-2.300203
0.545800	-2.357979
0.545900	-2.443344
0.546000	-2.513779
0.546100	-2.520271
0.546200	-2.526762
0.546300	-2.540395
0.546400	-2.583564
0.546500	-2.781236
0.546600	-2.944826
0.546700	-2.956187
0.546800	-2.953915
0.546900	-2.836415
0.547000	-2.942554
0.547100	-2.995786
0.547200	-3.014937
0.547300	-3.050316
0.547400	-3.082125
0.547500	-3.108417
0.547600	-3.141849
0.547700	-3.152560
0.547800	-3.190212
0.547900	-3.186642
0.548000	-3.209363
0.548100	-3.233706
0.548200	-3.241821
0.548300	-3.272981
0.548400	-3.253506
0.548500	-3.309010
0.548600	-3.334652
0.548700	-3.398271
0.548800	-3.563160
0.548900	-3.893912
0.549000	-3.996806
0.549100	-3.799458
0.549200	-3.536869
0.549300	-3.401517
0.549400	-3.649824
0.549500	-4.016281
0.549600	-4.237000
0.549700	-4.171109
0.549800	-3.943899
0.549900	-3.818284
0.550000	-3.842628
0.550100	-4.079251
0.550200	-4.219148
0.550300	-4.329831
0.550400	-4.249983
0.550500	-4.133457
0.550600	-4.113657
0.550700	-4.105542
0.550800	-4.162670
0.550900	-4.149037
0.551000	-4.089638
0.551100	-4.077953
0.551200	-4.162670
0.551300	-4.187987
0.551400	-4.119824
0.551500	-4.071785
0.551600	-4.102621
0.551700	-4.209410
0.551800	-4.206489
0.551900	-4.118201
0.552000	-3.877034
0.552100	-3.781606
0.552200	-3.915984
0.552300	-4.184092
0.552400	-4.369756
0.552500	-4.243492
0.552600	-4.018553
0.552700	-3.846198
0.552800	-3.837435
0.552900	-4.015308
0.553000	-4.217525
0.553100	-4.321717
0.553200	-4.284714
0.553300	-4.160397
0.553400	-4.029265
0.553500	-3.991288
0.553600	-4.057504
0.553700	-4.138650
0.553800	-4.157801
0.553900	-4.121772
0.554000	-4.009465
0.554100	-3.922151
0.554200	-3.812441
0.554300	-3.643332
0.554400	-3.511226
0.554500	-3.441441
0.554600	-3.409631
0.554700	-3.371979
0.554800	-3.184370
0.554900	-2.956511
0.555000	-2.637770
0.555100	-2.511832
0.555200	-2.524166
0.555300	-2.470609
0.555400	-2.354084
0.555500	-2.248270
0.555600	-2.093768
0.555700	-1.943486
0.555800	-1.884412
0.555900	-1.841567
0.556000	-1.869806
0.556100	-1.847410
0.556200	-1.869806
0.556300	-1.884412
0.556400	-1.796126
0.556500	-1.809758
0.556600	-1.732183
0.556700	-1.820469
0.556800	-1.786064
0.556900	-1.875649
0.557000	-1.831830
0.557100	-1.714006
0.557200	-1.376765
0.557300	-1.077176
0.557400	-1.172603
0.557500	-1.581577
0.557600	-1.772431
0.557700	-1.645195
0.557800	-1.316068
0.557900	-1.144040
0.558000	-1.031085
0.558100	-1.319963
0.558200	-1.431295
0.558300	-1.440708
0.558400	-1.291400
0.558500	-1.021023
0.558600	-0.974283
0.558700	-0.949939
0.558800	-1.053806
0.558900	-1.104765
0.559000	-1.081071
0.559100	-1.024269
0.559200	-0.969739
0.559300	-1.013558
0.559400	-1.009663
0.559500	-0.983371
0.559600	-0.916832
0.559700	-1.189157
0.559800	-1.217395
0.559900	-1.284259
0.560000	-1.185911
0.560100	-1.140469
0.560200	-1.096326
0.560300	-1.220641
0.560400	-1.550417
0.560500	-1.599429
0.560600	-1.531591
0.560700	-1.169682
0.560800	-1.170655
0.560900	-1.328402
0.561000	-1.588068
0.561100	-1.745815
0.561200	-1.727314
0.561300	-1.589691
0.561400	-1.466350
0.561500	-1.452393
0.561600	-1.575410
0.561700	-1.737376
0.561800	-1.770808
0.561900	-1.785739
0.562000	-1.701348
0.562100	-1.756527
0.562200	-1.829233
0.562300	-1.924011
0.562400	-1.927257
0.562500	-1.943162
0.562600	-2.014245
0.562700	-2.049625
0.562800	-2.053845
0.562900	-2.022360
0.563000	-2.012622
0.563100	-2.076565
0.563200	-2.215487
0.563300	-2.302475
0.563400	-2.326494
0.563500	-2.291115
0.563600	-2.233339
0.563700	-2.313836
0.563800	-2.320003
0.563900	-2.326819
0.564000	-2.311564
0.564100	-2.351812
0.564200	-2.354409
0.564300	-2.374208
0.564400	-2.368366
0.564500	-2.369989
0.564600	-2.408614
0.564700	-2.418676
0.564800	-2.428414
0.564900	-2.441397
0.565000	-2.457626
0.565100	-2.443994
0.565200	-2.516700
0.565300	-2.527412
0.565400	-2.621865
0.565500	-2.851995
0.565600	-3.210012
0.565700	-3.228838
0.565800	-2.996760
0.565900	-2.724109
0.566000	-2.709828
0.566100	-2.993514
0.566200	-3.395350
0.566300	-3.577766
0.566400	-3.437870
0.566500	-3.165868
0.566600	-3.122698
0.566700	-3.213907
0.566800	-3.463512
0.566900	-3.613795
0.567000	-3.694292
0.567100	-3.628077
0.567200	-3.537518
0.567300	-3.571599
0.567400	-3.651123
0.567500	-3.731944
0.567600	-3.712469
0.567700	-3.658263
0.567800	-3.690073
0.567900	-3.808546
0.568000	-3.879306
0.568100	-3.796212
0.568200	-3.834189
0.568300	-3.901053
0.568400	-3.986095
0.568500	-4.014334
0.568600	-3.897807
0.568700	-3.671896
0.568800	-3.661834
0.568900	-3.824776
0.569000	-4.132808
0.569100	-4.296399
0.569200	-4.170460
0.569300	-3.966620
0.569400	-3.862752
0.569500	-3.896834
0.569600	-4.103270
0.569700	-4.297697
0.569800	-4.368782
0.569900	-4.338920
0.570000	-4.200971
0.570100	-4.090611
0.570200	-4.099700
0.570300	-4.183768
0.570400	-4.239272
0.570500	-4.218174
0.570600	-4.162670
0.570700	-4.047117
0.570800	-3.969865
0.570900	-3.864375
0.571000	-3.697538
0.571100	-3.594320
0.571200	-3.542387
0.571300	-3.502138
0.571400	-3.432352
0.571500	-3.199950
0.571600	-3.018507
0.571700	-2.719565
0.571800	-2.598171
0.571900	-2.535202
0.572000	-2.478724
0.572100	-2.335907
0.572200	-2.175563
0.572300	-1.957443
0.572400	-1.814627
0.572500	-1.722770
0.572600	-1.665319
0.572700	-1.607219
0.572800	-1.563075
0.572900	-1.546197
0.573000	-1.466674
0.573100	-1.406302
0.573200	-1.356966
0.573300	-1.309577
0.573400	-1.370273
0.573500	-1.273223
0.573600	-1.357615
0.573700	-1.226483
0.573800	-1.091133
0.573900	-0.643534
0.574000	-0.472804
0.574100	-0.598742
0.574200	-1.014856
0.574300	-1.156698
0.574400	-0.846722
0.574500	-0.670150
0.574600	-0.363420
0.574700	-0.373157
0.574800	-0.560441
0.574900	-0.662035
0.575000	-0.642885
0.575100	-0.503315
0.575200	-0.396203
0.575300	-0.267344
0.575400	-0.334532
0.575500	-0.352060
0.575600	-0.438074
0.575700	-0.469558
0.575800	-0.438723
0.575900	-0.447162
0.576000	-0.502990
0.576100	-0.539668
0.576200	-0.509482
0.576300	-0.766875
0.576400	-0.905147
0.576500	-0.964221
0.576600	-0.954484
0.576700	-0.909367
0.576800	-0.906445
0.576900	-0.960326
0.577000	-1.230378
0.577100	-1.615009
0.577200	-1.549443
0.577300	-1.514713
0.577400	-1.261863
0.577500	-1.332297
0.577600	-1.585147
0.577700	-1.810083
0.577800	-1.928231
0.577900	-1.913300
0.578000	-1.817224
0.578100	-1.824689
0.578200	-1.887983
0.578300	-2.042809
0.578400	-2.152842
0.578500	-2.261578
0.578600	-2.292089
0.578700	-2.325196
0.578800	-2.415430
0.578900	-2.512156
0.579000	-2.568309
0.579100	-2.613102
0.579200	-2.673799
0.579300	-2.739689
0.579400	-2.759813
0.579500	-2.752673
0.579600	-2.769551
0.579700	-2.749102
0.579800	-2.836415
0.579900	-2.969495
0.580000	-3.019481
0.580100	-3.014287
0.580200	-2.905876
0.580300	-2.935413
0.580400	-2.971442
0.580500	-2.957810
0.580600	-2.961705
0.580700	-2.965275
0.580800	-2.968521
0.580900	-2.994163
0.581000	-2.981829
0.581100	-3.000330
0.581200	-3.012340
0.581300	-3.061352
0.581400	-3.061027
0.581500	-3.087319
0.581600	-3.107118
0.581700	-3.174307
0.581800	-3.189887
0.581900	-3.246365
0.582000	-3.299922
0.582100	-3.416448
0.582200	-3.725777
0.582300	-4.030238
0.582400	-4.059776
0.582500	-3.769921
0.582600	-3.538167
0.582700	-3.626454
0.582800	-3.923125
0.582900	-4.302566
0.583000	-4.357746
0.583100	-4.250632
0.583200	-4.039651
0.583300	-4.047442
0.583400	-4.205840
0.583500	-4.401565
0.583600	-4.503161
0.583700	-4.522961
0.583800	-4.471027
0.583900	-4.439866
0.584000	-4.444086
0.584100	-4.516144
0.584200	-4.580088
0.584300	-4.548928
0.584400	-4.503810
0.584500	-4.558665
0.584600	-4.698887
0.584700	-4.687202
0.584800	-4.598589
0.584900	-4.553147
0.585000	-4.637215
0.585100	-4.670323
0.585200	-4.648251
0.585300	-4.475246
0.585400	-4.233105
0.585500	-4.220770
0.585600	-4.373975
0.585700	-4.645005
0.585800	-4.662858
0.585900	-4.455771
0.586000	-4.268809
0.586100	-4.173056
0.586200	-4.259721
0.586300	-4.446683
0.586400	-4.547629
0.586500	-4.555419
0.586600	-4.433375
0.586700	-4.308733
0.586800	-4.285039
0.586900	-4.310032
0.587000	-4.368133
0.587100	-4.359369
0.587200	-4.311655
0.587300	-4.215577
0.587400	-4.185066
0.587500	-4.084769
0.587600	-3.927345
0.587700	-3.780632
0.587800	-3.704355
0.587900	-3.667027
0.588000	-3.619313
0.588100	-3.560239
0.588200	-3.325564
0.588300	-3.205468
0.588400	-3.000006
0.588500	-2.851671
0.588600	-2.832845
0.588700	-2.751699
0.588800	-2.586161
0.588900	-2.438476
0.589000	-2.236585
0.589100	-2.193415
0.589200	-2.112269
0.589300	-2.124604
0.589400	-2.057415
0.589500	-2.028852
0.589600	-2.023983
0.589700	-1.955496
0.589800	-1.912651
0.589900	-1.827935
0.590000	-1.873701
0.590100	-1.794827
0.590200	-1.913300
0.590300	-1.845138
0.590400	-1.825338
0.590500	-1.496536
0.590600	-1.173252
0.590700	-1.015505
0.590800	-1.303085
0.590900	-1.668240
0.591000	-1.567944
0.591100	-1.321911
0.591200	-1.016479
0.591300	-0.775964
0.591400	-0.995381
0.591500	-1.101195
0.591600	-1.229080
0.591700	-1.066789
0.591800	-0.908718
0.591900	-0.776937
0.592000	-0.779858
0.592100	-0.808746
0.592200	-0.891190
0.592300	-0.949290
0.592400	-0.919753
0.592500	-0.882751
0.592600	-0.912937
0.592700	-0.970388
0.592800	-1.034331
0.592900	-1.088211
0.593000	-1.198569
0.593100	-1.319639
0.593200	-1.410197
0.593300	-1.417338
0.593400	-1.339438
0.593500	-1.361834
0.593600	-1.403381
0.593700	-1.799696
0.593800	-1.993797
0.593900	-1.954522
0.594000	-1.740622
0.594100	-1.541328
0.594200	-1.700374
0.594300	-1.883439
0.594400	-2.207372
0.594500	-2.232690
0.594600	-2.137262
0.594700	-1.947381
0.594800	-1.906484
0.594900	-2.049625
0.595000	-2.212890
0.595100	-2.279105
0.595200	-2.327793
0.595300	-2.241778
0.595400	-2.283325
0.595500	-2.353759
0.595600	-2.474829
0.595700	-2.530333
0.595800	-2.523517
0.595900	-2.580319
0.596000	-2.616023
0.596100	-2.623164
0.596200	-2.599794
0.596300	-2.607908
0.596400	-2.577722
0.596500	-2.728653
0.596600	-2.852969
0.596700	-2.879910
0.596800	-2.856864
0.596900	-2.694248
0.597000	-2.756568
0.597100	-2.788701
0.597200	-2.760138
0.597300	-2.764033
0.597400	-2.778315
