LabVIEW Measurement	
Writer_Version	2
Reader_Version	2
Separator	Tab
Decimal_Separator	.
Multi_Headings	Yes
X_Columns	One
Time_Pref	Relative
Operator	as989
Description	Time Domain Data
Date	1903/12/31
Time	19:00:00
***End_of_Header***	
	
Channels	1	
Samples	15000	
Date	1903/12/31	
Time	19:00:00	
X_Dimension	Time	
X0	0.0000000000000000E+0	
Delta_X	0.000100	
***End_of_Header***		
X_Value	Untitled	Comment
0.000000	-2.591679	Tare Values:0.000000, 0.000000, 0.000000, 0.000000\0D\0A
0.000100	-2.674123
0.000200	-2.692625
0.000300	-2.670553
0.000400	-2.655297
0.000500	-2.714372
0.000600	-2.783833
0.000700	-2.782210
0.000800	-2.730926
0.000900	-2.797790
0.001000	-2.841284
0.001100	-2.914640
0.001200	-2.728329
0.001300	-2.522867
0.001400	-2.615049
0.001500	-2.895490
0.001600	-3.160026
0.001700	-3.234031
0.001800	-3.030192
0.001900	-2.736119
0.002000	-2.703660
0.002100	-2.953266
0.002200	-3.286289
0.002300	-3.404113
0.002400	-3.328161
0.002500	-3.095433
0.002600	-3.008120
0.002700	-3.002602
0.002800	-3.089915
0.002900	-3.141524
0.003000	-3.099004
0.003100	-3.037333
0.003200	-2.928922
0.003300	-2.854267
0.003400	-2.677045
0.003500	-2.498199
0.003600	-2.376480
0.003700	-2.300852
0.003800	-2.294361
0.003900	-2.274236
0.004000	-2.161606
0.004100	-1.926283
0.004200	-1.842216
0.004300	-1.623123
0.004400	-1.571515
0.004500	-1.511467
0.004600	-1.453367
0.004700	-1.324183
0.004800	-1.209930
0.004900	-1.031734
0.005000	-0.972985
0.005100	-0.941825
0.005200	-0.988240
0.005300	-0.982073
0.005400	-0.993109
0.005500	-0.960975
0.005600	-0.916183
0.005700	-0.849644
0.005800	-0.879830
0.005900	-0.823028
0.006000	-0.971362
0.006100	-0.942799
0.006200	-1.028164
0.006300	-0.852240
0.006400	-0.628928
0.006500	-0.208594
0.006600	-0.249816
0.006700	-0.678589
0.006800	-0.966169
0.006900	-0.885997
0.007000	-0.561090
0.007100	-0.335506
0.007200	-0.297530
0.007300	-0.348165
0.007400	-0.620489
0.007500	-0.562713
0.007600	-0.547782
0.007700	-0.264747
0.007800	-0.255334
0.007900	-0.183602
0.008000	-0.267019
0.008100	-0.292337
0.008200	-0.304021
0.008300	-0.271239
0.008400	-0.239105
0.008500	-0.234561
0.008600	-0.242676
0.008700	-0.285520
0.008800	-0.331611
0.008900	-0.477024
0.009000	-0.469558
0.009100	-0.562389
0.009200	-0.561090
0.009300	-0.491954
0.009400	-0.412107
0.009500	-0.465988
0.009600	-0.878207
0.009700	-0.997328
0.009800	-0.905147
0.009900	-0.541940
0.010000	-0.510780
0.010100	-0.570828
0.010200	-0.906121
0.010300	-1.092756
0.010400	-1.000574
0.010500	-0.762980
0.010600	-0.572451
0.010700	-0.634770
0.010800	-0.832116
0.010900	-0.931438
0.011000	-0.928192
0.011100	-0.939228
0.011200	-0.855811
0.011300	-0.946369
0.011400	-1.013233
0.011500	-1.082694
0.011600	-1.073930
0.011700	-1.047639
0.011800	-1.125214
0.011900	-1.165462
0.012000	-1.162216
0.012100	-1.128784
0.012200	-1.094703
0.012300	-1.115476
0.012400	-1.296918
0.012500	-1.388450
0.012600	-1.421557
0.012700	-1.345930
0.012800	-1.242063
0.012900	-1.310226
0.013000	-1.311524
0.013100	-1.305357
0.013200	-1.319314
0.013300	-1.330025
0.013400	-1.316068
0.013500	-1.303409
0.013600	-1.312822
0.013700	-1.295295
0.013800	-1.312173
0.013900	-1.300813
0.014000	-1.306655
0.014100	-1.292049
0.014200	-1.303734
0.014300	-1.343658
0.014400	-1.318016
0.014500	-1.400135
0.014600	-1.398188
0.014700	-1.681548
0.014800	-2.021062
0.014900	-2.172642
0.015000	-1.927582
0.015100	-1.698751
0.015200	-1.647467
0.015300	-1.938618
0.015400	-2.351487
0.015500	-2.531956
0.015600	-2.459574
0.015700	-2.219382
0.015800	-2.170370
0.015900	-2.308967
0.016000	-2.584538
0.016100	-2.803308
0.016200	-2.836415
0.016300	-2.804281
0.016400	-2.735470
0.016500	-2.776692
0.016600	-2.871470
0.016700	-2.939958
0.016800	-2.965600
0.016900	-2.940931
0.017000	-2.929246
0.017100	-2.993514
0.017200	-3.078555
0.017300	-3.106794
0.017400	-3.019805
0.017500	-2.965275
0.017600	-3.049992
0.017700	-3.090565
0.017800	-3.071090
0.017900	-2.818563
0.018000	-2.662763
0.018100	-2.798764
0.018200	-3.108741
0.018300	-3.262919
0.018400	-3.220074
0.018500	-2.914965
0.018600	-2.681264
0.018700	-2.737093
0.018800	-3.026946
0.018900	-3.331082
0.019000	-3.364514
0.019100	-3.213582
0.019200	-3.026946
0.019300	-3.001304
0.019400	-3.052913
0.019500	-3.122374
0.019600	-3.151587
0.019700	-3.099328
0.019800	-3.046421
0.019900	-2.984426
0.020000	-2.948072
0.020100	-2.879910
0.020200	-2.677045
0.020300	-2.557922
0.020400	-2.482294
0.020500	-2.441397
0.020600	-2.432309
0.020700	-2.249244
0.020800	-2.043782
0.020900	-1.743543
0.021000	-1.639352
0.021100	-1.652660
0.021200	-1.611438
0.021300	-1.502703
0.021400	-1.379686
0.021500	-1.209605
0.021600	-1.053806
0.021700	-1.048612
0.021800	-1.018102
0.021900	-1.031085
0.022000	-0.927219
0.022100	-0.975257
0.022200	-0.910016
0.022300	-0.844450
0.022400	-0.826274
0.022500	-0.757138
0.022600	-0.863276
0.022700	-0.751620
0.022800	-0.910340
0.022900	-0.691897
0.023000	-0.640937
0.023100	-0.193015
0.023200	-0.128423
0.023300	-0.156337
0.023400	-0.670799
0.023500	-0.816212
0.023600	-0.541940
0.023700	-0.270590
0.023800	-0.020337
0.023900	-0.038838
0.024000	-0.297854
0.024100	-0.494551
0.024200	-0.436775
0.024300	-0.235210
0.024400	-0.056690
0.024500	0.090670
0.024600	0.023157
0.024700	-0.031373
0.024800	-0.035268
0.024900	-0.045005
0.025000	-0.025530
0.025100	0.008875
0.025200	0.012770
0.025300	0.029648
0.025400	-0.019363
0.025500	-0.104404
0.025600	-0.203401
0.025700	-0.169645
0.025800	-0.285196
0.025900	-0.222227
0.026000	-0.200805
0.026100	-0.137836
0.026200	-0.293635
0.026300	-0.599066
0.026400	-0.675992
0.026500	-0.480594
0.026600	-0.276432
0.026700	-0.452031
0.026800	-0.387114
0.026900	-0.711696
0.027000	-0.813940
0.027100	-0.698064
0.027200	-0.522140
0.027300	-0.408861
0.027400	-0.545186
0.027500	-0.652622
0.027600	-0.724355
0.027700	-0.778560
0.027800	-0.786350
0.027900	-0.783104
0.028000	-0.823677
0.028100	-0.832765
0.028200	-0.830493
0.028300	-0.855162
0.028400	-0.903849
0.028500	-0.954159
0.028600	-0.974283
0.028700	-0.912613
0.028800	-0.878856
0.028900	-0.858732
0.029000	-0.948966
0.029100	-1.102818
0.029200	-1.140145
0.029300	-1.164488
0.029400	-1.164813
0.029500	-1.037577
0.029600	-1.111581
0.029700	-1.112555
0.029800	-1.146312
0.029900	-1.143390
0.030000	-1.150207
0.030100	-1.162865
0.030200	-1.162865
0.030300	-1.179094
0.030400	-1.195648
0.030500	-1.214799
0.030600	-1.206684
0.030700	-1.224211
0.030800	-1.250503
0.030900	-1.253099
0.031000	-1.261538
0.031100	-1.342359
0.031200	-1.393968
0.031300	-1.480956
0.031400	-1.804565
0.031500	-2.085654
0.031600	-2.107401
0.031700	-1.737376
0.031800	-1.567944
0.031900	-1.675381
0.032000	-2.021386
0.032100	-2.412184
0.032200	-2.508261
0.032300	-2.324871
0.032400	-2.099611
0.032500	-2.090198
0.032600	-2.279105
0.032700	-2.531956
0.032800	-2.669904
0.032900	-2.702038
0.033000	-2.658543
0.033100	-2.652376
0.033200	-2.752997
0.033300	-2.811098
0.033400	-2.830897
0.033500	-2.840310
0.033600	-2.879260
0.033700	-2.966573
0.033800	-3.027920
0.033900	-2.983776
0.034000	-2.982154
0.034100	-2.907175
0.034200	-2.968846
0.034300	-3.010068
0.034400	-3.059405
0.034500	-2.898411
0.034600	-2.682563
0.034700	-2.705933
0.034800	-2.852969
0.034900	-3.076608
0.035000	-3.228188
0.035100	-3.060054
0.035200	-2.775393
0.035300	-2.676395
0.035400	-2.860110
0.035500	-3.076608
0.035600	-3.229811
0.035700	-3.174957
0.035800	-3.083099
0.035900	-3.006173
0.036000	-2.970144
0.036100	-2.982803
0.036200	-2.972091
0.036300	-2.934440
0.036400	-2.906201
0.036500	-2.885103
0.036600	-2.828950
0.036700	-2.753971
0.036800	-2.571555
0.036900	-2.366094
0.037000	-2.264499
0.037100	-2.238857
0.037200	-2.217110
0.037300	-2.151219
0.037400	-1.909081
0.037500	-1.747114
0.037600	-1.422531
0.037700	-1.413118
0.037800	-1.362159
0.037900	-1.303085
0.038000	-1.158646
0.038100	-1.026541
0.038200	-0.888269
0.038300	-0.801930
0.038400	-0.750646
0.038500	-0.760384
0.038600	-0.692871
0.038700	-0.709100
0.038800	-0.689625
0.038900	-0.713319
0.039000	-0.576995
0.039100	-0.650675
0.039200	-0.539992
0.039300	-0.678914
0.039400	-0.649052
0.039500	-0.678589
0.039600	-0.581214
0.039700	-0.360823
0.039800	-0.022285
0.039900	0.159481
0.040000	-0.303372
0.040100	-0.674045
0.040200	-0.552651
0.040300	-0.308890
0.040400	0.047825
0.040500	0.127672
0.040600	0.029648
0.040700	-0.260528
0.040800	-0.330313
0.040900	-0.182628
0.041000	-0.024232
0.041100	0.090345
0.041200	0.076064
0.041300	0.003682
0.041400	0.002708
0.041500	0.025429
0.041600	0.037114
0.041700	0.005954
0.041800	-0.016118
0.041900	-0.084280
0.042000	-0.032347
0.042100	-0.075191
0.042200	-0.091420
0.042300	-0.307916
0.042400	-0.354332
0.042500	-0.422494
0.042600	-0.347840
0.042700	-0.325444
0.042800	-0.314733
0.042900	-0.600040
0.043000	-0.867496
0.043100	-0.806474
0.043200	-0.588031
0.043300	-0.358551
0.043400	-0.425740
0.043500	-0.718188
0.043600	-0.995706
0.043700	-0.945071
0.043800	-0.767849
0.043900	-0.560441
0.044000	-0.566608
0.044100	-0.729548
0.044200	-0.844775
0.044300	-0.796412
0.044400	-0.754217
0.044500	-0.650999
0.044600	-0.760384
0.044700	-0.853863
0.044800	-0.902875
0.044900	-0.817835
0.045000	-0.761682
0.045100	-0.796088
0.045200	-0.847372
0.045300	-0.867496
0.045400	-0.823028
0.045500	-0.767524
0.045600	-0.735391
0.045700	-0.873987
0.045800	-0.978827
0.045900	-0.971037
0.046000	-0.952536
0.046100	-0.800956
0.046200	-0.844450
0.046300	-0.876584
0.046400	-0.872689
0.046500	-0.892164
0.046600	-0.887944
0.046700	-0.911314
0.046800	-0.930789
0.046900	-0.935009
0.047000	-0.952212
0.047100	-0.989214
0.047200	-1.005443
0.047300	-1.030436
0.047400	-1.021997
0.047500	-1.047314
0.047600	-1.076202
0.047700	-1.107362
0.047800	-1.130083
0.047900	-1.180717
0.048000	-1.311524
0.048100	-1.654283
0.048200	-1.895448
0.048300	-1.775677
0.048400	-1.428049
0.048500	-1.280689
0.048600	-1.425452
0.048700	-1.823391
0.048800	-2.079162
0.048900	-2.040861
0.049000	-1.845138
0.049100	-1.634808
0.049200	-1.713357
0.049300	-1.953224
0.049400	-2.153816
0.049500	-2.188222
0.049600	-2.151544
0.049700	-2.110322
0.049800	-2.113243
0.049900	-2.196337
0.050000	-2.296633
0.050100	-2.342074
0.050200	-2.284623
0.050300	-2.294685
0.050400	-2.393034
0.050500	-2.505989
0.050600	-2.574476
0.050700	-2.549159
0.050800	-2.581617
0.050900	-2.623813
0.051000	-2.697169
0.051100	-2.694897
0.051200	-2.555650
0.051300	-2.377779
0.051400	-2.490409
0.051500	-2.735470
0.051600	-2.993839
0.051700	-3.074660
0.051800	-2.841609
0.051900	-2.592328
0.052000	-2.579994
0.052100	-2.810124
0.052200	-3.099653
0.052300	-3.210661
0.052400	-3.110689
0.052500	-2.941580
0.052600	-2.856215
0.052700	-2.886077
0.052800	-2.981829
0.052900	-3.017858
0.053000	-2.975337
0.053100	-2.893867
0.053200	-2.821809
0.053300	-2.778639
0.053400	-2.714696
0.053500	-2.572529
0.053600	-2.451459
0.053700	-2.400175
0.053800	-2.366094
0.053900	-2.324222
0.054000	-2.206723
0.054100	-1.960689
0.054200	-1.741596
0.054300	-1.597157
0.054400	-1.606894
0.054500	-1.544250
0.054600	-1.493290
0.054700	-1.360211
0.054800	-1.246932
0.054900	-1.104116
0.055000	-1.001548
0.055100	-1.022321
0.055200	-0.990188
0.055300	-1.034655
0.055400	-0.983047
0.055500	-1.022646
0.055600	-0.897357
0.055700	-0.893787
0.055800	-0.877558
0.055900	-0.866197
0.056000	-0.912937
0.056100	-0.980775
0.056200	-0.888918
0.056300	-0.805500
0.056400	-0.521167
0.056500	-0.232614
0.056600	-0.232938
0.056700	-0.696766
0.056800	-0.887620
0.056900	-0.740584
0.057000	-0.339725
0.057100	-0.146275
0.057200	-0.010600
0.057300	-0.273835
0.057400	-0.474102
0.057500	-0.542589
0.057600	-0.330637
0.057700	-0.177759
0.057800	0.018613
0.057900	-0.027802
0.058000	-0.085578
0.058100	-0.099860
0.058200	-0.102456
0.058300	-0.054094
0.058400	-0.022609
0.058500	-0.013196
0.058600	-0.040786
0.058700	-0.052795
0.058800	-0.101483
0.058900	-0.242026
0.059000	-0.235859
0.059100	-0.291363
0.059200	-0.317979
0.059300	-0.264098
0.059400	-0.222876
0.059500	-0.271563
0.059600	-0.622112
0.059700	-0.704880
0.059800	-0.655544
0.059900	-0.412107
0.060000	-0.288442
0.060100	-0.402694
0.060200	-0.712670
0.060300	-0.873338
0.060400	-0.834713
0.060500	-0.671773
0.060600	-0.535773
0.060700	-0.555248
0.060800	-0.762006
0.060900	-0.852565
0.061000	-0.864574
0.061100	-0.865548
0.061200	-0.819457
0.061300	-0.920078
0.061400	-0.954808
0.061500	-1.018751
0.061600	-0.983696
0.061700	-1.001223
0.061800	-1.073930
0.061900	-1.100546
0.062000	-1.071009
0.062100	-1.021997
0.062200	-1.031410
0.062300	-1.102493
0.062400	-1.276145
0.062500	-1.355992
0.062600	-1.331648
0.062700	-1.313472
0.062800	-1.196946
0.062900	-1.294321
0.063000	-1.319639
0.063100	-1.306331
0.063200	-1.301462
0.063300	-1.333271
0.063400	-1.329376
0.063500	-1.351448
0.063600	-1.357290
0.063700	-1.378063
0.063800	-1.380660
0.063900	-1.412794
0.064000	-1.412145
0.064100	-1.426751
0.064200	-1.395591
0.064300	-1.463753
0.064400	-1.460183
0.064500	-1.530293
0.064600	-1.555610
0.064700	-1.817873
0.064800	-2.160957
0.064900	-2.273587
0.065000	-2.055467
0.065100	-1.755553
0.065200	-1.684794
0.065300	-2.011973
0.065400	-2.360576
0.065500	-2.554027
0.065600	-2.395306
0.065700	-2.171993
0.065800	-2.116814
0.065900	-2.263850
0.066000	-2.483917
0.066100	-2.645560
0.066200	-2.616997
0.066300	-2.553703
0.066400	-2.511507
0.066500	-2.561817
0.066600	-2.616023
0.066700	-2.621865
0.066800	-2.637770
0.066900	-2.594276
0.067000	-2.616347
0.067100	-2.702038
0.067200	-2.704634
0.067300	-2.740014
0.067400	-2.717618
0.067500	-2.739689
0.067600	-2.795193
0.067700	-2.819861
0.067800	-2.748778
0.067900	-2.509559
0.068000	-2.430036
0.068100	-2.567011
0.068200	-2.805580
0.068300	-3.035385
0.068400	-2.912043
0.068500	-2.611479
0.068600	-2.435879
0.068700	-2.539421
0.068800	-2.797465
0.068900	-3.000006
0.069000	-3.028244
0.069100	-2.855890
0.069200	-2.693274
0.069300	-2.687107
0.069400	-2.753322
0.069500	-2.819212
0.069600	-2.801036
0.069700	-2.743260
0.069800	-2.714372
0.069900	-2.644586
0.070000	-2.581292
0.070100	-2.493979
0.070200	-2.319678
0.070300	-2.246322
0.070400	-2.225874
0.070500	-2.218408
0.070600	-2.181081
0.070700	-1.980489
0.070800	-1.845462
0.070900	-1.598779
0.071000	-1.552689
0.071100	-1.548145
0.071200	-1.514063
0.071300	-1.409223
0.071400	-1.255696
0.071500	-1.117099
0.071600	-1.045042
0.071700	-1.001548
0.071800	-0.998951
0.071900	-1.006417
0.072000	-0.993109
0.072100	-0.979476
0.072200	-0.975257
0.072300	-0.880154
0.072400	-0.900278
0.072500	-0.846073
0.072600	-0.874961
0.072700	-0.814264
0.072800	-0.955782
0.072900	-0.848345
0.073000	-0.650026
0.073100	-0.380947
0.073200	-0.057664
0.073300	-0.337778
0.073400	-0.729873
0.073500	-0.758436
0.073600	-0.543238
0.073700	-0.123879
0.073800	0.039386
0.073900	0.025104
0.074000	-0.321873
0.074100	-0.433854
0.074200	-0.360823
0.074300	-0.070647
0.074400	0.126374
0.074500	0.167271
0.074600	0.119882
0.074700	0.059510
0.074800	0.011796
0.074900	0.090021
0.075000	0.141629
0.075100	0.137410
0.075200	0.114689
0.075300	0.078660
0.075400	0.096837
0.075500	-0.015793
0.075600	-0.045654
0.075700	-0.051497
0.075800	-0.176461
0.075900	-0.104079
0.076000	-0.092394
0.076100	0.040035
0.076200	-0.299477
0.076300	-0.555572
0.076400	-0.564661
0.076500	-0.452355
0.076600	0.117286
0.076700	-0.030724
0.076800	-0.362771
0.076900	-0.738637
0.077000	-0.819782
0.077100	-0.711372
0.077200	-0.489033
0.077300	-0.414055
0.077400	-0.575696
0.077500	-0.791543
0.077600	-0.870417
0.077700	-0.830169
0.077800	-0.752269
0.077900	-0.746427
0.078000	-0.838283
0.078100	-0.919104
0.078200	-0.998627
0.078300	-0.971362
0.078400	-0.984670
0.078500	-1.011610
0.078600	-1.023295
0.078700	-0.985968
0.078800	-0.955133
0.078900	-0.907419
0.079000	-1.042770
0.079100	-1.200841
0.079200	-1.219667
0.079300	-1.188507
0.079400	-1.010312
0.079500	-1.086913
0.079600	-1.143066
0.079700	-1.135600
0.079800	-1.155075
0.079900	-1.162865
0.080000	-1.165462
0.080100	-1.161242
0.080200	-1.168383
0.080300	-1.205386
0.080400	-1.224861
0.080500	-1.222588
0.080600	-1.236870
0.080700	-1.222588
0.080800	-1.283935
0.080900	-1.292049
0.081000	-1.307304
0.081100	-1.330350
0.081200	-1.354693
0.081300	-1.502378
0.081400	-1.794178
0.081500	-2.121682
0.081600	-2.120059
0.081700	-1.819820
0.081800	-1.594884
0.081900	-1.613386
0.082000	-2.054169
0.082100	-2.387191
0.082200	-2.496576
0.082300	-2.316757
0.082400	-2.071697
0.082500	-2.093444
0.082600	-2.281377
0.082700	-2.543316
0.082800	-2.674123
0.082900	-2.660166
0.083000	-2.580319
0.083100	-2.480672
0.083200	-2.506314
0.083300	-2.580968
0.083400	-2.611803
0.083500	-2.639717
0.083600	-2.609531
0.083700	-2.647832
0.083800	-2.694248
0.083900	-2.747155
0.084000	-2.715021
0.084100	-2.713398
0.084200	-2.749102
0.084300	-2.806229
0.084400	-2.807852
0.084500	-2.710477
0.084600	-2.480022
0.084700	-2.539097
0.084800	-2.755269
0.084900	-2.999032
0.085000	-3.164570
0.085100	-2.944177
0.085200	-2.673150
0.085300	-2.594925
0.085400	-2.751374
0.085500	-3.011042
0.085600	-3.153859
0.085700	-3.122698
0.085800	-2.978583
0.085900	-2.859785
0.086000	-2.829924
0.086100	-2.848749
0.086200	-2.889972
0.086300	-2.882831
0.086400	-2.883480
0.086500	-2.835117
0.086600	-2.758840
0.086700	-2.611154
0.086800	-2.409263
0.086900	-2.235936
0.087000	-2.201854
0.087100	-2.166150
0.087200	-2.125253
0.087300	-2.046379
0.087400	-1.771133
0.087500	-1.675056
0.087600	-1.375467
0.087700	-1.373844
0.087800	-1.321586
0.087900	-1.251801
0.088000	-1.145338
0.088100	-1.027190
0.088200	-0.862951
0.088300	-0.777262
0.088400	-0.733119
0.088500	-0.737338
0.088600	-0.744804
0.088700	-0.725329
0.088800	-0.828870
0.088900	-0.692221
0.089000	-0.709100
0.089100	-0.639964
0.089200	-0.672422
0.089300	-0.703582
0.089400	-0.732794
0.089500	-0.819457
0.089600	-0.688002
0.089700	-0.474752
0.089800	-0.105702
0.089900	-0.001511
0.090000	-0.368289
0.090100	-0.735715
0.090200	-0.679238
0.090300	-0.438723
0.090400	-0.131993
0.090500	0.001734
0.090600	-0.140108
0.090700	-0.417301
0.090800	-0.455926
0.090900	-0.307592
0.091000	-0.088824
0.091100	-0.013196
0.091200	0.032894
0.091300	-0.048576
0.091400	-0.095965
0.091500	-0.085903
0.091600	-0.028127
0.091700	-0.008977
0.091800	-0.012223
0.091900	-0.025855
0.092000	0.004331
0.092100	-0.051172
0.092200	-0.163802
0.092300	-0.171592
0.092400	-0.285845
0.092500	-0.298504
0.092600	-0.169969
0.092700	-0.157960
0.092800	-0.130370
0.092900	-0.488709
0.093000	-0.671773
0.093100	-0.606207
0.093200	-0.381597
0.093300	0.008226
0.093400	-0.246571
0.093500	-0.519868
0.093600	-0.785701
0.093700	-0.736040
0.093800	-0.551677
0.093900	-0.339725
0.094000	-0.331936
0.094100	-0.558818
0.094200	-0.664632
0.094300	-0.641587
0.094400	-0.624384
0.094500	-0.580565
0.094600	-0.677291
0.094700	-0.717863
0.094800	-0.750322
0.094900	-0.706503
0.095000	-0.682808
0.095100	-0.767849
0.095200	-0.847372
0.095300	-0.870741
0.095400	-0.835362
0.095500	-0.792517
0.095600	-0.774665
0.095700	-0.941500
0.095800	-1.073281
0.095900	-1.103142
0.096000	-1.110283
0.096100	-1.045691
0.096200	-1.045042
0.096300	-1.093405
0.096400	-1.078799
0.096500	-1.077176
0.096600	-1.078149
0.096700	-1.089185
0.096800	-1.093729
0.096900	-1.056402
0.097000	-1.063543
0.097100	-1.036927
0.097200	-1.037577
0.097300	-1.036927
0.097400	-1.029462
0.097500	-1.037901
0.097600	-1.075228
0.097700	-1.100546
0.097800	-1.108336
0.097900	-1.197920
0.098000	-1.392670
0.098100	-1.788660
0.098200	-1.964584
0.098300	-1.851305
0.098400	-1.531591
0.098500	-1.348202
0.098600	-1.607543
0.098700	-2.028202
0.098800	-2.360576
0.098900	-2.313186
0.099000	-2.091172
0.099100	-1.928880
0.099200	-2.006780
0.099300	-2.274236
0.099400	-2.499822
0.099500	-2.604987
0.099600	-2.531631
0.099700	-2.464442
0.099800	-2.475803
0.099900	-2.592977
0.100000	-2.674448
0.100100	-2.716319
0.100200	-2.705608
0.100300	-2.763384
0.100400	-2.839337
0.100500	-2.916588
0.100600	-2.967547
0.100700	-2.900034
0.100800	-2.914315
0.100900	-2.942879
0.101000	-3.068168
0.101100	-3.040254
0.101200	-2.891270
0.101300	-2.735145
0.101400	-2.826029
0.101500	-3.077581
0.101600	-3.350232
0.101700	-3.356399
0.101800	-3.072713
0.101900	-2.807852
0.102000	-2.791298
0.102100	-3.034087
0.102200	-3.312256
0.102300	-3.430405
0.102400	-3.331082
0.102500	-3.123672
0.102600	-3.012015
0.102700	-3.020779
0.102800	-3.109715
0.102900	-3.115882
0.103000	-3.070116
0.103100	-2.991566
0.103200	-2.923404
0.103300	-2.871470
0.103400	-2.761436
0.103500	-2.555001
0.103600	-2.396929
0.103700	-2.314160
0.103800	-2.271640
0.103900	-2.221654
0.104000	-2.064231
0.104100	-1.818847
0.104200	-1.627018
0.104300	-1.381309
0.104400	-1.370598
0.104500	-1.325806
0.104600	-1.216746
0.104700	-1.089510
0.104800	-0.904498
0.104900	-0.766875
0.105000	-0.676641
0.105100	-0.655544
0.105200	-0.672422
0.105300	-0.627305
0.105400	-0.657491
0.105500	-0.607505
0.105600	-0.544537
0.105700	-0.528632
0.105800	-0.497148
0.105900	-0.541940
0.106000	-0.594847
0.106100	-0.634121
0.106200	-0.639315
0.106300	-0.514675
0.106400	-0.230991
0.106500	0.081582
0.106600	-0.085903
0.106700	-0.386141
0.106800	-0.765901
0.106900	-0.521491
0.107000	-0.293310
0.107100	0.038412
0.107200	0.054966
0.107300	-0.147573
0.107400	-0.362771
0.107500	-0.412107
0.107600	-0.240403
0.107700	-0.031373
0.107800	0.072818
0.107900	0.089047
0.108000	0.007252
0.108100	-0.038189
0.108200	-0.048576
0.108300	0.025429
0.108400	0.057238
0.108500	0.093266
0.108600	0.078011
0.108700	0.159481
0.108800	-0.064480
0.108900	0.002708
0.109000	-0.187497
0.109100	-0.145950
0.109200	-0.249167
0.109300	-0.127774
0.109400	-0.157960
0.109500	-0.187821
0.109600	-0.572775
0.109700	-0.652947
0.109800	-0.602961
0.109900	-0.357902
0.110000	-0.231315
0.110100	-0.402694
0.110200	-0.704555
0.110300	-0.907744
0.110400	-0.879181
0.110500	-0.733443
0.110600	-0.564012
0.110700	-0.616594
0.110800	-0.789921
0.110900	-0.907095
0.111000	-0.908068
0.111100	-0.937281
0.111200	-0.886646
0.111300	-0.987591
0.111400	-0.997978
0.111500	-1.039524
0.111600	-1.014531
0.111700	-1.023620
0.111800	-1.078799
0.111900	-1.120670
0.112000	-1.089834
0.112100	-1.061920
0.112200	-1.023295
0.112300	-1.055104
0.112400	-1.210254
0.112500	-1.253099
0.112600	-1.237519
0.112700	-1.209930
0.112800	-1.083343
0.112900	-1.141118
0.113000	-1.135600
0.113100	-1.114503
0.113200	-1.107686
0.113300	-1.094703
0.113400	-1.116775
0.113500	-1.096001
0.113600	-1.117424
0.113700	-1.107686
0.113800	-1.138197
0.113900	-1.110608
0.114000	-1.112231
0.114100	-1.124889
0.114200	-1.120020
0.114300	-1.141768
0.114400	-1.164813
0.114500	-1.217395
0.114600	-1.269653
0.114700	-1.483553
0.114800	-1.840269
0.114900	-1.883114
0.115000	-1.644546
0.115100	-1.330674
0.115200	-1.336517
0.115300	-1.583200
0.115400	-2.036317
0.115500	-2.170045
0.115600	-2.080136
0.115700	-1.824689
0.115800	-1.755228
0.115900	-1.864613
0.116000	-2.092794
0.116100	-2.256384
0.116200	-2.265797
0.116300	-2.245024
0.116400	-2.230418
0.116500	-2.292413
0.116600	-2.327793
0.116700	-2.343373
0.116800	-2.351487
0.116900	-2.352461
0.117000	-2.464442
0.117100	-2.529359
0.117200	-2.621865
0.117300	-2.535526
0.117400	-2.536824
0.117500	-2.567011
0.117600	-2.685159
0.117700	-2.706257
0.117800	-2.658543
0.117900	-2.420624
0.118000	-2.402122
0.118100	-2.594276
0.118200	-2.841933
0.118300	-3.032464
0.118400	-2.905552
0.118500	-2.664710
0.118600	-2.500796
0.118700	-2.567984
0.118800	-2.820835
0.118900	-3.024999
0.119000	-3.047720
0.119100	-2.897437
0.119200	-2.791623
0.119300	-2.776692
0.119400	-2.795193
0.119500	-2.823107
0.119600	-2.792921
0.119700	-2.742611
0.119800	-2.716968
0.119900	-2.667956
0.120000	-2.607584
0.120100	-2.462819
0.120200	-2.270991
0.120300	-2.169072
0.120400	-2.139859
0.120500	-2.131420
0.120600	-2.115515
0.120700	-1.901291
0.120800	-1.755228
0.120900	-1.499457
0.121000	-1.453042
0.121100	-1.453367
0.121200	-1.399161
0.121300	-1.290426
0.121400	-1.156374
0.121500	-1.020049
0.121600	-0.950264
0.121700	-0.961300
0.121800	-0.909367
0.121900	-0.931114
0.122000	-0.890541
0.122100	-0.928842
0.122200	-0.924947
0.122300	-0.843801
0.122400	-0.888593
0.122500	-0.833739
0.122600	-0.911963
0.122700	-0.920078
0.122800	-0.919753
0.122900	-0.902226
0.123000	-0.594847
0.123100	-0.371535
0.123200	-0.006705
0.123300	-0.440021
0.123400	-0.703582
0.123500	-0.882751
0.123600	-0.518895
0.123700	-0.217358
0.123800	0.003357
0.123900	-0.047277
0.124000	-0.316031
0.124100	-0.395229
0.124200	-0.367640
0.124300	-0.079736
0.124400	0.027376
0.124500	0.102355
0.124600	-0.005082
0.124700	0.000436
0.124800	0.004656
0.124900	0.028999
0.125000	0.044255
0.125100	0.009524
0.125200	-0.025855
0.125300	-0.056041
0.125400	-0.087850
0.125500	-0.136862
0.125600	-0.302074
0.125700	-0.323172
0.125800	-0.402694
0.125900	-0.335506
0.126000	-0.274809
0.126100	-0.228069
0.126200	-0.422494
0.126300	-0.779534
0.126400	-0.746427
0.126500	-0.602312
0.126600	-0.258580
0.126700	-0.310838
0.126800	-0.517921
0.126900	-0.884049
0.127000	-0.896059
0.127100	-0.728575
0.127200	-0.474752
0.127300	-0.431258
0.127400	-0.593548
0.127500	-0.780832
0.127600	-0.806799
0.127700	-0.755190
0.127800	-0.676641
0.127900	-0.709749
0.128000	-0.835687
0.128100	-0.928517
0.128200	-0.923324
0.128300	-0.856135
0.128400	-0.877882
0.128500	-0.972011
0.128600	-1.030760
0.128700	-1.040173
0.128800	-1.023295
0.128900	-0.981424
0.129000	-1.125538
0.129100	-1.290102
0.129200	-1.303409
0.129300	-1.282636
0.129400	-1.249204
0.129500	-1.195973
0.129600	-1.230703
0.129700	-1.199219
0.129800	-1.184612
0.129900	-1.163515
0.130000	-1.168059
0.130100	-1.148908
0.130200	-1.145013
0.130300	-1.117424
0.130400	-1.132030
0.130500	-1.124565
0.130600	-1.133653
0.130700	-1.155725
0.130800	-1.169357
0.130900	-1.163190
0.131000	-1.223887
0.131100	-1.231028
0.131200	-1.296593
0.131300	-1.375142
0.131400	-1.705243
0.131500	-2.026904
0.131600	-1.921739
0.131700	-1.651362
0.131800	-1.431619
0.131900	-1.551715
0.132000	-1.934398
0.132100	-2.259955
0.132200	-2.311564
0.132300	-2.093444
0.132400	-1.899343
0.132500	-1.936670
0.132600	-2.150246
0.132700	-2.363172
0.132800	-2.501120
0.132900	-2.447564
0.133000	-2.369989
0.133100	-2.344346
0.133200	-2.409588
0.133300	-2.485216
0.133400	-2.553054
0.133500	-2.532605
0.133600	-2.515402
0.133700	-2.570257
0.133800	-2.649455
0.133900	-2.634849
0.134000	-2.730276
0.134100	-2.686133
0.134200	-2.755269
0.134300	-2.752348
0.134400	-2.791623
0.134500	-2.656596
0.134600	-2.444318
0.134700	-2.508910
0.134800	-2.695870
0.134900	-2.954888
0.135000	-3.089266
0.135100	-2.866926
0.135200	-2.577397
0.135300	-2.488786
0.135400	-2.655947
0.135500	-2.935738
0.135600	-3.088617
0.135700	-3.017858
0.135800	-2.819212
0.135900	-2.710477
0.136000	-2.721837
0.136100	-2.837064
0.136200	-2.889322
0.136300	-2.890296
0.136400	-2.839661
0.136500	-2.785780
0.136600	-2.709178
0.136700	-2.639393
0.136800	-2.502743
0.136900	-2.404070
0.137000	-2.359277
0.137100	-2.331688
0.137200	-2.308967
0.137300	-2.200881
0.137400	-1.956145
0.137500	-1.869157
0.137600	-1.580927
0.137700	-1.590340
0.137800	-1.526398
0.137900	-1.448822
0.138000	-1.348526
0.138100	-1.227457
0.138200	-1.090159
0.138300	-0.969414
0.138400	-1.026865
0.138500	-0.985643
0.138600	-1.026216
0.138700	-0.977854
0.138800	-1.012259
0.138900	-0.901577
0.139000	-0.905472
0.139100	-0.886971
0.139200	-0.884698
0.139300	-0.966493
0.139400	-0.934684
0.139500	-0.960975
0.139600	-0.824002
0.139700	-0.543887
0.139800	-0.171917
0.139900	-0.135239
0.140000	-0.610751
0.140100	-0.790245
0.140200	-0.854512
0.140300	-0.380298
0.140400	-0.201778
0.140500	-0.044356
0.140600	-0.206322
0.140700	-0.420222
0.140800	-0.449434
0.140900	-0.391659
0.141000	-0.086227
0.141100	-0.006056
0.141200	0.066975
0.141300	0.001734
0.141400	0.008226
0.141500	0.007577
0.141600	0.041658
0.141700	0.082880
0.141800	0.135462
0.141900	0.108197
0.142000	0.115338
0.142100	0.137410
0.142200	-0.079086
0.142300	-0.043707
0.142400	-0.107325
0.142500	-0.085578
0.142600	0.072818
0.142700	0.241276
0.142800	0.297428
0.142900	-0.280652
0.143000	-0.419573
0.143100	-0.372508
0.143200	-0.058638
0.143300	1.130954
0.143400	1.002419
0.143500	-0.346542
0.143600	-0.564012
0.143700	-0.519219
0.143800	0.197457
0.143900	1.085512
0.144000	0.664855
0.144100	-0.226446
0.144200	-0.511754
0.144300	-0.360823
0.144400	-0.311811
0.144500	0.164025
0.144600	-0.166399
0.144700	-0.248518
0.144800	-0.430608
0.144900	-0.142055
0.145000	-0.034619
0.145100	-0.327067
0.145200	-0.627954
0.145300	-0.520842
0.145400	-0.090771
0.145500	0.104627
0.145600	0.217257
0.145700	-0.989863
0.145800	-0.839257
0.145900	-0.816861
0.146000	-0.773367
0.146100	-0.288766
0.146200	-0.491305
0.146300	-0.685081
0.146400	-0.516947
0.146500	-0.524088
0.146600	-0.371535
0.146700	-0.366341
0.146800	-0.224824
0.146900	-0.280327
0.147000	-0.409186
0.147100	-0.356604
0.147200	-0.355955
0.147300	-0.104728
0.147400	-0.243974
0.147500	-0.049549
0.147600	-0.355630
0.147700	-0.292986
0.147800	-0.727925
0.147900	-0.820107
0.148000	-1.043419
0.148100	-1.378388
0.148200	-1.530942
0.148300	-1.324832
0.148400	-1.017128
0.148500	-0.999925
0.148600	-1.248880
0.148700	-1.698102
0.148800	-1.947381
0.148900	-1.873701
0.149000	-1.691286
0.149100	-1.566321
0.149200	-1.691286
0.149300	-1.936021
0.149400	-2.151869
0.149500	-2.251191
0.149600	-2.206399
0.149700	-2.194064
0.149800	-2.217110
0.149900	-2.305396
0.150000	-2.405044
0.150100	-2.417378
0.150200	-2.450485
0.150300	-2.462819
0.150400	-2.492032
0.150500	-2.614075
0.150600	-2.640042
0.150700	-2.593302
0.150800	-2.611479
0.150900	-2.674123
0.151000	-2.777666
0.151100	-2.722162
0.151200	-2.523517
0.151300	-2.339153
0.151400	-2.444967
0.151500	-2.811422
0.151600	-3.022727
0.151700	-3.032789
0.151800	-2.710477
0.151900	-2.457626
0.152000	-2.504691
0.152100	-2.796816
0.152200	-3.110689
0.152300	-3.166842
0.152400	-3.002927
0.152500	-2.820835
0.152600	-2.754945
0.152700	-2.821160
0.152800	-2.946774
0.152900	-3.009743
0.153000	-2.979881
0.153100	-2.887050
0.153200	-2.834792
0.153300	-2.783184
0.153400	-2.730926
0.153500	-2.597522
0.153600	-2.468013
0.153700	-2.427764
0.153800	-2.395306
0.153900	-2.391411
0.154000	-2.243401
0.154100	-2.006131
0.154200	-1.784441
0.154300	-1.621500
0.154400	-1.643247
0.154500	-1.592612
0.154600	-1.477710
0.154700	-1.320937
0.154800	-1.149882
0.154900	-0.994407
0.155000	-0.929491
0.155100	-0.880479
0.155200	-0.883725
0.155300	-0.828870
0.155400	-0.803553
0.155500	-0.745453
0.155600	-0.644832
0.155700	-0.657167
0.155800	-0.530904
0.155900	-0.667878
0.156000	-0.544861
0.156100	-0.749672
0.156200	-0.583486
0.156300	-0.546160
0.156400	-0.046304
0.156500	0.080283
0.156600	0.039061
0.156700	-0.453005
0.156800	-0.621138
0.156900	-0.505262
0.157000	-0.223525
0.157100	0.017639
0.157200	0.028999
0.157300	-0.224174
0.157400	-0.393931
0.157500	-0.478971
0.157600	-0.233587
0.157700	-0.109922
0.157800	0.080932
0.157900	-0.018065
0.158000	-0.139134
0.158100	-0.243325
0.158200	-0.209244
0.158300	-0.105053
0.158400	-0.059936
0.158500	-0.039163
0.158600	-0.057339
0.158700	-0.099210
0.158800	-0.201778
0.158900	-0.193988
0.159000	-0.267019
0.159100	-0.261826
0.159200	-0.305320
0.159300	-0.163153
0.159400	-0.109272
0.159500	-0.192690
0.159600	-0.546160
0.159700	-0.655868
0.159800	-0.483840
0.159900	-0.185549
0.160000	0.304894
0.160100	-0.273835
0.160200	-0.626980
0.160300	-0.802255
0.160400	-0.723381
0.160500	-0.470207
0.160600	-0.030399
0.160700	-0.385492
0.160800	-0.622112
0.160900	-0.737338
0.161000	-0.742207
0.161100	-0.738637
0.161200	-0.685730
0.161300	-0.764928
0.161400	-0.840555
0.161500	-0.917157
0.161600	-0.894761
0.161700	-0.934035
0.161800	-0.964221
0.161900	-1.000899
0.162000	-0.985968
0.162100	-0.947667
0.162200	-0.922675
0.162300	-0.979801
0.162400	-1.135276
0.162500	-1.188832
0.162600	-1.158321
0.162700	-1.134627
0.162800	-1.016479
0.162900	-1.066789
0.163000	-1.069710
0.163100	-1.061920
0.163200	-1.061920
0.163300	-1.045691
0.163400	-1.050560
0.163500	-1.070684
0.163600	-1.081071
0.163700	-1.101844
0.163800	-1.102493
0.163900	-1.130407
0.164000	-1.131056
0.164100	-1.170006
0.164200	-1.156049
0.164300	-1.195973
0.164400	-1.199219
0.164500	-1.265433
0.164600	-1.331648
0.164700	-1.624746
0.164800	-1.942837
0.164900	-1.995420
0.165000	-1.755228
0.165100	-1.454665
0.165200	-1.489395
0.165300	-1.841243
0.165400	-2.270666
0.165500	-2.443669
0.165600	-2.326819
0.165700	-2.140184
0.165800	-2.094093
0.165900	-2.264174
0.166000	-2.563765
0.166100	-2.775393
0.166200	-2.845179
0.166300	-2.807527
0.166400	-2.822458
0.166500	-2.908798
0.166600	-2.972416
0.166700	-3.093486
0.166800	-3.145744
0.166900	-3.238575
0.167000	-3.339846
0.167100	-3.341793
0.167200	-3.383340
0.167300	-3.414175
0.167400	-3.422939
0.167500	-3.475197
0.167600	-3.528429
0.167700	-3.535570
0.167800	-3.416123
0.167900	-3.128866
0.168000	-3.105171
0.168100	-3.194432
0.168200	-3.444686
0.168300	-3.574520
0.168400	-3.423913
0.168500	-3.093810
0.168600	-2.870497
0.168700	-2.961056
0.168800	-3.185343
0.168900	-3.331082
0.169000	-3.303492
0.169100	-3.133734
0.169200	-2.977609
0.169300	-2.859461
0.169400	-2.845828
0.169500	-2.894516
0.169600	-2.883155
0.169700	-2.827976
0.169800	-2.788052
0.169900	-2.692949
0.170000	-2.616347
0.170100	-2.425168
0.170200	-2.237883
0.170300	-2.134990
0.170400	-2.103830
0.170500	-2.085654
0.170600	-2.020412
0.170700	-1.772431
0.170800	-1.604297
0.170900	-1.276145
0.171000	-1.225834
0.171100	-1.182989
0.171200	-1.140794
0.171300	-1.008364
0.171400	-0.865224
0.171500	-0.695467
0.171600	-0.584785
0.171700	-0.521816
0.171800	-0.474427
0.171900	-0.434503
0.172000	-0.442293
0.172100	-0.401721
0.172200	-0.347840
0.172300	-0.267993
0.172400	-0.223201
0.172500	-0.281950
0.172600	-0.198208
0.172700	-0.402694
0.172800	-0.295582
0.172900	-0.334532
0.173000	0.015042
0.173100	0.219853
0.173200	0.438297
0.173300	0.104951
0.173400	-0.295582
0.173500	-0.345243
0.173600	-0.164127
0.173700	0.197457
0.173800	0.260101
0.173900	0.165648
0.174000	-0.103105
0.174100	-0.218332
0.174200	-0.105377
0.174300	0.081906
0.174400	0.198756
0.174500	0.119558
0.174600	0.101706
0.174700	-0.001836
0.174800	0.043281
0.174900	0.041333
0.175000	0.019262
0.175100	-0.009301
0.175200	-0.014170
0.175300	-0.017416
0.175400	-0.020986
0.175500	-0.121282
0.175600	-0.302399
0.175700	-0.362771
0.175800	-0.464689
0.175900	-0.343945
0.176000	-0.346866
0.176100	-0.329663
0.176200	-0.648078
0.176300	-0.900603
0.176400	-0.891515
0.176500	-0.762980
0.176600	-0.440346
0.176700	-0.536097
0.176800	-0.749023
0.176900	-1.061596
0.177000	-1.088536
0.177100	-0.948317
0.177200	-0.706828
0.177300	-0.681510
0.177400	-0.813940
0.177500	-0.953834
0.177600	-0.913911
0.177700	-0.909691
0.177800	-0.882102
0.177900	-0.953834
0.178000	-1.030760
0.178100	-1.067763
0.178200	-1.018426
0.178300	-0.963896
0.178400	-0.989538
0.178500	-1.062569
0.178600	-1.062894
0.178700	-0.990188
0.178800	-0.928517
0.178900	-0.876259
0.179000	-0.990837
0.179100	-1.140469
0.179200	-1.147935
0.179300	-1.082369
0.179400	-0.939877
0.179500	-0.949290
0.179600	-0.952212
0.179700	-0.895085
0.179800	-0.904173
0.179900	-0.841529
0.180000	-0.851591
0.180100	-0.818484
0.180200	-0.810369
0.180300	-0.660412
0.180400	-0.737987
0.180500	-0.592575
0.180600	-0.932087
0.180700	-0.743181
0.180800	-0.662684
0.180900	-0.740584
0.181000	-0.832441
0.181100	-0.862302
0.181200	-0.897357
0.181300	-1.033357
0.181400	-1.415066
0.181500	-1.675381
0.181600	-1.603324
0.181700	-1.292049
0.181800	-1.139495
0.181900	-1.251476
0.182000	-1.711734
0.182100	-2.024307
0.182200	-2.028527
0.182300	-1.794827
0.182400	-1.593911
0.182500	-1.627667
0.182600	-1.883439
0.182700	-2.116489
0.182800	-2.205100
0.182900	-2.139210
0.183000	-2.086627
0.183100	-2.111620
0.183200	-2.210943
0.183300	-2.271315
0.183400	-2.284299
0.183500	-2.273587
0.183600	-2.272938
0.183700	-2.367067
0.183800	-2.471259
0.183900	-2.465091
0.184000	-2.479373
0.184100	-2.461846
0.184200	-2.548834
0.184300	-2.623813
0.184400	-2.622515
0.184500	-2.441397
0.184600	-2.291115
0.184700	-2.312213
0.184800	-2.549808
0.184900	-2.815966
0.185000	-2.912368
0.185100	-2.662438
0.185200	-2.371287
0.185300	-2.287869
0.185400	-2.479049
0.185500	-2.767279
0.185600	-2.936387
0.185700	-2.860759
0.185800	-2.642314
0.185900	-2.508261
0.186000	-2.509884
0.186100	-2.576424
0.186200	-2.632901
0.186300	-2.629331
0.186400	-2.582915
0.186500	-2.520271
0.186600	-2.472557
0.186700	-2.415106
0.186800	-2.278131
0.186900	-2.161282
0.187000	-2.078513
0.187100	-2.056766
0.187200	-2.034045
0.187300	-1.968479
0.187400	-1.746789
0.187500	-1.613061
0.187600	-1.383257
0.187700	-1.466350
0.187800	-1.464402
0.187900	-1.420908
0.188000	-1.352746
0.188100	-1.262188
0.188200	-1.133978
0.188300	-1.081720
0.188400	-1.086913
0.188500	-1.109309
0.188600	-1.132030
0.188700	-1.110608
0.188800	-1.097624
0.188900	-1.072631
0.189000	-0.983696
0.189100	-1.015505
0.189200	-0.960975
0.189300	-1.005118
0.189400	-0.966493
0.189500	-1.003171
0.189600	-0.820756
0.189700	-0.482866
0.189800	-0.166074
0.189900	-0.081034
0.190000	-0.525062
0.190100	-0.725978
0.190200	-0.719811
0.190300	-0.248518
0.190400	-0.032347
0.190500	0.133839
0.190600	-0.063506
0.190700	-0.267993
0.190800	-0.322523
0.190900	-0.115115
0.191000	0.082880
0.191100	0.237705
0.191200	0.180254
0.191300	0.112092
0.191400	0.152016
0.191500	0.147147
0.191600	0.163052
0.191700	0.200054
0.191800	0.204598
0.191900	0.203624
0.192000	0.190966
0.192100	0.134164
0.192200	-0.091420
0.192300	-0.055067
0.192400	-0.192041
0.192500	-0.200805
0.192600	-0.103105
0.192700	-0.127124
0.192800	-0.102781
0.192900	-0.512403
0.193000	-0.580241
0.193100	-0.548107
0.193200	-0.349788
0.193300	0.314956
0.193400	-0.254360
0.193500	-0.476699
0.193600	-0.725004
0.193700	-0.691248
0.193800	-0.496174
0.193900	-0.134590
0.194000	-0.157635
0.194100	-0.549081
0.194200	-0.687028
0.194300	-0.675343
0.194400	-0.736689
0.194500	-0.676317
0.194600	-0.776937
0.194700	-0.832441
0.194800	-0.941176
0.194900	-0.918130
0.195000	-0.939553
0.195100	-0.976880
0.195200	-1.071009
0.195300	-1.092756
0.195400	-1.045367
0.195500	-1.035629
0.195600	-1.047639
0.195700	-1.231028
0.195800	-1.336192
0.195900	-1.333596
0.196000	-1.336841
0.196100	-1.161242
0.196200	-1.227782
0.196300	-1.208307
0.196400	-1.170655
0.196500	-1.147285
0.196600	-1.140469
0.196700	-1.141443
0.196800	-1.129109
0.196900	-1.100870
0.197000	-1.104765
0.197100	-1.103791
0.197200	-1.112555
0.197300	-1.118722
0.197400	-1.121968
0.197500	-1.148908
0.197600	-1.142741
0.197700	-1.201166
0.197800	-1.280364
0.197900	-1.360211
0.198000	-1.614035
0.198100	-1.998990
0.198200	-2.206399
0.198300	-1.946408
0.198400	-1.665319
0.198500	-1.604297
0.198600	-1.960689
0.198700	-2.398552
0.198800	-2.570257
0.198900	-2.479373
0.199000	-2.231067
0.199100	-2.142780
0.199200	-2.261578
0.199300	-2.515402
0.199400	-2.665360
0.199500	-2.650753
0.199600	-2.575125
0.199700	-2.516700
0.199800	-2.597197
0.199900	-2.646858
0.200000	-2.640367
0.200100	-2.615698
0.200200	-2.586161
0.200300	-2.634200
0.200400	-2.718267
0.200500	-2.742611
0.200600	-2.641990
0.200700	-2.604338
0.200800	-2.594600
0.200900	-2.647183
0.201000	-2.670553
0.201100	-2.594600
0.201200	-2.313186
0.201300	-2.199258
0.201400	-2.338504
0.201500	-2.604013
0.201600	-2.830248
0.201700	-2.796167
0.201800	-2.523517
0.201900	-2.300852
0.202000	-2.326170
0.202100	-2.589082
0.202200	-2.832196
0.202300	-2.876988
0.202400	-2.713723
0.202500	-2.551431
0.202600	-2.519297
0.202700	-2.570906
0.202800	-2.625760
0.202900	-2.624787
0.203000	-2.572529
0.203100	-2.544614
0.203200	-2.494629
0.203300	-2.474829
0.203400	-2.381349
0.203500	-2.229769
0.203600	-2.116164
0.203700	-2.091172
0.203800	-2.088250
0.203900	-2.086952
0.204000	-1.923362
0.204100	-1.738025
0.204200	-1.495887
0.204300	-1.400135
0.204400	-1.442331
0.204500	-1.394942
0.204600	-1.306331
0.204700	-1.182340
0.204800	-1.059324
0.204900	-0.946369
0.205000	-0.913262
0.205100	-0.878531
0.205200	-0.839582
0.205300	-0.816536
0.205400	-0.816212
0.205500	-0.760059
0.205600	-0.689949
0.205700	-0.673720
0.205800	-0.560766
0.205900	-0.624384
0.206000	-0.555248
0.206100	-0.678264
0.206200	-0.533501
0.206300	-0.455277
0.206400	-0.021635
0.206500	0.135462
0.206600	0.065352
0.206700	-0.503639
0.206800	-0.598417
0.206900	-0.459821
0.207000	-0.029750
0.207100	0.113391
0.207200	0.133190
0.207300	-0.144976
0.207400	-0.288442
0.207500	-0.303697
0.207600	-0.035592
0.207700	0.109820
0.207800	0.188693
0.207900	0.101056
0.208000	0.038737
0.208100	0.072169
0.208200	0.117286
0.208300	0.188369
0.208400	0.203624
0.208500	0.192264
0.208600	0.206221
0.208700	0.233810
0.208800	0.697637
0.208900	0.240302
0.209000	0.396750
0.209100	0.413304
0.209200	0.824873
0.209300	1.764862
0.209400	2.043678
0.209500	1.412366
0.209600	-0.095315
0.209700	-0.105053
0.209800	0.607404
0.209900	2.566255
0.210000	2.910961
0.210100	2.201425
0.210200	-0.109597
0.210300	-0.324146
0.210400	-0.010275
0.210500	1.845683
0.210600	2.845720
0.210700	2.049520
0.210800	0.967040
0.210900	0.367213
0.211000	0.862525
0.211100	1.283832
0.211200	1.772003
0.211300	1.422104
0.211400	0.929064
0.211500	0.556769
0.211600	0.901475
0.211700	0.902448
0.211800	0.817408
0.211900	0.666153
0.212000	0.732043
0.212100	0.799231
0.212200	0.920625
0.212300	0.379547
0.212400	-0.624059
0.212500	-0.800632
0.212600	-0.804851
0.212700	-0.628279
0.212800	-0.568231
0.212900	-0.837309
0.213000	-0.855811
0.213100	-0.893787
0.213200	-0.912288
0.213300	-0.899954
0.213400	-0.906121
0.213500	-0.882102
0.213600	-0.890216
0.213700	-0.889243
0.213800	-0.876584
0.213900	-0.838608
0.214000	-0.666255
0.214100	-0.539343
0.214200	-0.718512
0.214300	-0.743830
0.214400	-0.955457
0.214500	-0.858407
0.214600	-0.867171
0.214700	-1.157672
0.214800	-1.518608
0.214900	-1.537109
0.215000	-1.208956
0.215100	-0.919429
0.215200	-0.969739
0.215300	-1.266732
0.215400	-1.697777
0.215500	-1.774379
0.215600	-1.598130
0.215700	-1.361834
0.215800	-1.284584
0.215900	-1.430321
0.216000	-1.687715
0.216100	-1.779897
0.216200	-1.758799
0.216300	-1.688364
0.216400	-1.674732
0.216500	-1.748737
0.216600	-1.861367
0.216700	-1.945434
0.216800	-1.972050
0.216900	-1.973348
0.217000	-2.000288
0.217100	-2.042809
0.217200	-2.102532
0.217300	-2.075267
0.217400	-2.112919
0.217500	-2.150246
0.217600	-2.207697
0.217700	-2.243401
0.217800	-2.182704
0.217900	-1.915897
0.218000	-1.902264
0.218100	-2.075592
0.218200	-2.380051
0.218300	-2.549808
0.218400	-2.418351
0.218500	-2.150570
0.218600	-2.000288
0.218700	-2.123954
0.218800	-2.418676
0.218900	-2.668281
0.219000	-2.685159
0.219100	-2.506314
0.219200	-2.369015
0.219300	-2.375182
0.219400	-2.480022
0.219500	-2.593302
0.219600	-2.635822
0.219700	-2.627383
0.219800	-2.579345
0.219900	-2.504366
0.220000	-2.469960
0.220100	-2.403421
0.220200	-2.349540
0.220300	-2.304098
0.220400	-2.304423
0.220500	-2.278456
0.220600	-2.248919
0.220700	-2.018790
0.220800	-1.908107
0.220900	-1.656555
0.221000	-1.657854
0.221100	-1.667916
0.221200	-1.612087
0.221300	-1.533214
0.221400	-1.420259
0.221500	-1.311524
0.221600	-1.236221
0.221700	-1.219018
0.221800	-1.280040
0.221900	-1.300488
0.222000	-1.290102
0.222100	-1.325481
0.222200	-1.271600
0.222300	-1.247257
0.222400	-1.201491
0.222500	-1.293347
0.222600	-1.268679
0.222700	-1.401433
0.222800	-1.324832
0.222900	-1.354369
0.223000	-1.040498
0.223100	-0.758761
0.223200	-0.600040
0.223300	-0.938579
0.223400	-1.340087
0.223500	-1.297567
0.223600	-0.976231
0.223700	-0.641262
0.223800	-0.579591
0.223900	-0.637367
0.224000	-0.844450
0.224100	-0.920078
0.224200	-0.738961
0.224300	-0.453005
0.224400	-0.311162
0.224500	-0.292986
0.224600	-0.232614
0.224700	-0.333234
0.224800	-0.292986
0.224900	-0.262800
0.225000	-0.207945
0.225100	-0.141081
0.225200	-0.117712
0.225300	-0.069998
0.225400	-0.111869
0.225500	-0.239754
0.225600	-0.259878
0.225700	-0.400747
0.225800	-0.325768
0.225900	-0.255334
0.226000	-0.171592
0.226100	-0.201129
0.226200	-0.517921
0.226300	-0.748049
0.226400	-0.698064
0.226500	-0.510456
0.226600	-0.209244
0.226700	-0.339401
0.226800	-0.534150
0.226900	-0.845749
0.227000	-0.840880
0.227100	-0.690274
0.227200	-0.456900
0.227300	-0.442618
0.227400	-0.602961
0.227500	-0.751944
0.227600	-0.752918
0.227700	-0.816212
0.227800	-0.744804
0.227900	-0.810045
0.228000	-0.794465
0.228100	-0.861004
0.228200	-0.855811
0.228300	-0.821405
0.228400	-0.848345
0.228500	-0.886321
0.228600	-0.867820
0.228700	-0.804851
0.228800	-0.769147
0.228900	-0.770770
0.229000	-0.920727
0.229100	-1.055104
0.229200	-1.094054
0.229300	-1.088211
0.229400	-0.950913
0.229500	-1.032059
0.229600	-1.098923
0.229700	-1.132355
0.229800	-1.180393
0.229900	-1.204087
0.230000	-1.263486
0.230100	-1.269653
0.230200	-1.300164
0.230300	-1.324832
0.230400	-1.337815
0.230500	-1.360211
0.230600	-1.392994
0.230700	-1.419610
0.230800	-1.476087
0.230900	-1.495238
0.231000	-1.547820
0.231100	-1.589042
0.231200	-1.695181
0.231300	-1.901615
0.231400	-2.248270
0.231500	-2.577397
0.231600	-2.410561
0.231700	-2.232365
0.231800	-2.089549
0.231900	-2.326170
0.232000	-2.772797
0.232100	-3.072388
0.232200	-3.047070
0.232300	-2.767279
0.232400	-2.645235
0.232500	-2.728978
0.232600	-2.994812
0.232700	-3.225592
0.232800	-3.204169
0.232900	-3.116531
0.233000	-2.975662
0.233100	-3.038307
0.233200	-3.068818
0.233300	-3.101276
0.233400	-3.078555
0.233500	-3.037008
0.233600	-2.997734
0.233700	-3.046421
0.233800	-3.050641
0.233900	-3.009094
0.234000	-2.936063
0.234100	-2.914965
0.234200	-2.985724
0.234300	-3.068168
0.234400	-3.007796
0.234500	-2.825379
0.234600	-2.609207
0.234700	-2.722162
0.234800	-2.937685
0.234900	-3.218126
0.235000	-3.246365
0.235100	-2.995461
0.235200	-2.760138
0.235300	-2.715345
0.235400	-2.940282
0.235500	-3.220074
0.235600	-3.352504
0.235700	-3.243444
0.235800	-3.040254
0.235900	-2.932168
0.236000	-2.946449
0.236100	-3.015261
0.236200	-3.011366
0.236300	-2.953590
0.236400	-2.917561
0.236500	-2.831222
0.236600	-2.733198
0.236700	-2.557598
0.236800	-2.332661
0.236900	-2.177835
0.237000	-2.113243
0.237100	-2.085005
0.237200	-2.062284
0.237300	-1.933100
0.237400	-1.691935
0.237500	-1.606569
0.237600	-1.383257
0.237700	-1.360211
0.237800	-1.305357
0.237900	-1.212851
0.238000	-1.070684
0.238100	-0.936307
0.238200	-0.822054
0.238300	-0.758761
0.238400	-0.714293
0.238500	-0.753892
0.238600	-0.720785
0.238700	-0.776288
0.238800	-0.772718
0.238900	-0.782455
0.239000	-0.701959
0.239100	-0.727276
0.239200	-0.676641
0.239300	-0.783753
0.239400	-0.775964
0.239500	-0.845099
0.239600	-0.682808
0.239700	-0.459172
0.239800	-0.077139
0.239900	-0.133941
0.240000	-0.614971
0.240100	-0.846722
0.240200	-0.820107
0.240300	-0.400422
0.240400	-0.137186
0.240500	-0.010275
0.240600	-0.232614
0.240700	-0.454303
0.240800	-0.457549
0.240900	-0.282275
0.241000	-0.016118
0.241100	0.083529
0.241200	0.051720
0.241300	-0.055067
0.241400	-0.084280
0.241500	-0.069674
0.241600	0.038088
0.241700	0.059510
0.241800	0.088398
0.241900	0.077037
0.242000	0.124426
0.242100	0.084178
0.242200	-0.059611
0.242300	-0.072919
0.242400	-0.169320
0.242500	-0.149521
0.242600	-0.074542
0.242700	-0.031048
0.242800	-0.068051
0.242900	-0.410484
0.243000	-0.501367
0.243100	-0.375429
0.243200	-0.130370
0.243300	1.526619
0.243400	0.846296
0.243500	-0.310838
0.243600	-0.553625
0.243700	-0.490656
0.243800	0.152340
0.243900	1.879115
0.244000	2.113138
0.244100	1.491564
0.244200	0.714840
0.244300	0.859279
0.244400	1.280911
0.244500	2.232584
0.244600	2.275105
0.244700	2.173835
0.244800	1.979086
0.244900	2.120279
0.245000	2.217654
0.245100	2.168317
0.245200	1.971621
0.245300	2.107296
0.245400	2.177730
0.245500	2.422140
0.245600	2.245243
0.245700	1.037799
0.245800	0.462316
0.245900	0.387337
0.246000	0.623633
0.246100	1.257216
0.246200	0.636941
0.246300	0.582086
0.246400	0.526583
0.246500	0.408111
0.246600	0.371433
0.246700	0.261400
0.246800	0.109820
0.246900	-0.048576
0.247000	-0.211516
0.247100	-0.389062
0.247200	-0.753892
0.247300	-0.836985
0.247400	-0.886646
0.247500	-0.947667
0.247600	-0.998627
0.247700	-1.098273
0.247800	-1.186235
0.247900	-1.262512
0.248000	-1.558207
0.248100	-1.920766
0.248200	-2.120059
0.248300	-1.837023
0.248400	-1.664670
0.248500	-1.592288
0.248600	-1.937319
0.248700	-2.378428
0.248800	-2.538447
0.248900	-2.472232
0.249000	-2.164203
0.249100	-2.074942
0.249200	-2.215811
0.249300	-2.480347
0.249400	-2.672500
0.249500	-2.703336
0.249600	-2.622515
0.249700	-2.574801
0.249800	-2.555650
0.249900	-2.570581
0.250000	-2.594925
0.250100	-2.590381
0.250200	-2.590705
0.250300	-2.554352
0.250400	-2.565712
0.250500	-2.518972
0.250600	-2.465091
0.250700	-2.437826
0.250800	-2.435230
0.250900	-2.490734
0.251000	-2.489435
0.251100	-2.418351
0.251200	-2.196661
0.251300	-2.116489
0.251400	-2.275859
0.251500	-2.552404
0.251600	-2.811098
0.251700	-2.782534
0.251800	-2.557922
0.251900	-2.429063
0.252000	-2.530657
0.252100	-2.814993
0.252200	-3.106469
0.252300	-3.210012
0.252400	-3.173009
0.252500	-3.044474
0.252600	-2.994163
0.252700	-3.049342
0.252800	-3.100302
0.252900	-3.126594
0.253000	-3.073362
0.253100	-3.042526
0.253200	-2.984426
0.253300	-2.920158
0.253400	-2.792272
0.253500	-2.624787
0.253600	-2.487163
0.253700	-2.453082
0.253800	-2.396604
0.253900	-2.378103
0.254000	-2.165826
0.254100	-1.954847
0.254200	-1.679925
0.254300	-1.541004
0.254400	-1.523476
0.254500	-1.433567
0.254600	-1.296918
0.254700	-1.164813
0.254800	-0.981424
0.254900	-0.860355
0.255000	-0.812317
0.255100	-0.765577
0.255200	-0.826598
0.255300	-0.713319
0.255400	-0.818808
0.255500	-0.703582
0.255600	-0.687677
0.255700	-0.635095
0.255800	-0.578293
0.255900	-0.600689
0.256000	-0.602637
0.256100	-0.672746
0.256200	-0.533176
0.256300	-0.352709
0.256400	0.049448
0.256500	0.294182
0.256600	0.135787
0.256700	-0.227420
0.256800	-0.282924
0.256900	-0.084604
0.257000	0.340922
0.257100	0.507433
0.257200	0.564234
0.257300	0.251338
0.257400	0.239004
0.257500	0.239004
0.257600	0.487633
0.257700	0.892062
0.257800	1.573034
0.257900	1.807707
0.258000	1.688910
0.258100	2.061854
0.258200	2.276403
0.258300	2.690245
0.258400	2.988861
0.258500	3.027811
0.258600	3.426074
0.258700	3.334542
0.258800	3.168031
0.258900	2.363066
0.259000	2.370207
0.259100	1.889177
0.259200	2.096909
0.259300	2.599362
0.259400	2.900899
0.259500	2.096909
0.259600	0.282498
0.259700	0.046527
0.259800	1.066037
0.259900	3.102790
0.260000	3.690610
0.260100	2.806446
0.260200	0.854410
0.260300	0.609676
0.260400	1.763239
0.260500	3.437110
0.260600	4.213190
0.260700	3.498132
0.260800	2.646427
0.260900	2.531525
0.261000	2.462713
0.261100	2.742828
0.261200	2.610723
0.261300	2.323467
0.261400	1.653530
0.261500	1.388347
0.261600	1.607764
0.261700	1.387698
0.261800	0.790792
0.261900	0.350335
0.262000	0.408435
0.262100	0.407137
0.262200	0.439920
0.262300	-0.027802
0.262400	-0.827247
0.262500	-0.892488
0.262600	-0.923973
0.262700	-0.943448
0.262800	-0.888918
0.262900	-1.012259
0.263000	-1.025243
0.263100	-1.068737
0.263200	-1.110608
0.263300	-1.125214
0.263400	-1.149233
0.263500	-1.173577
0.263600	-1.182340
0.263700	-1.197920
0.263800	-1.159295
0.263900	-1.190455
0.264000	-1.180068
0.264100	-1.178770
0.264200	-1.217720
0.264300	-1.233624
0.264400	-1.342684
0.264500	-1.391696
0.264600	-1.562426
0.264700	-1.947706
0.264800	-2.314160
0.264900	-2.287544
0.265000	-2.034694
0.265100	-1.781844
0.265200	-1.912326
0.265300	-2.346619
0.265400	-2.706582
0.265500	-2.836740
0.265600	-2.644911
0.265700	-2.504042
0.265800	-2.511507
0.265900	-2.750076
0.266000	-3.047395
0.266100	-3.278824
0.266200	-3.301220
0.266300	-3.270384
0.266400	-3.310633
0.266500	-3.421641
0.266600	-3.561537
0.266700	-3.654693
0.266800	-3.684230
0.266900	-3.751744
0.267000	-3.846848
0.267100	-3.908194
0.267200	-4.042248
0.267300	-4.054258
0.267400	-4.066917
0.267500	-4.101972
0.267600	-4.188961
0.267700	-4.233429
0.267800	-4.124693
0.267900	-3.953636
0.268000	-3.920528
0.268100	-4.136703
0.268200	-4.428830
0.268300	-4.638514
0.268400	-4.446033
0.268500	-4.120149
0.268600	-3.964997
0.268700	-4.108139
0.268800	-4.322366
0.268900	-4.471676
0.269000	-4.404811
0.269100	-4.186040
0.269200	-3.984472
0.269300	-3.923774
0.269400	-3.925397
0.269500	-3.916958
0.269600	-3.807897
0.269700	-3.661509
0.269800	-3.523885
0.269900	-3.383340
0.270000	-3.260322
0.270100	-3.055185
0.270200	-2.830897
0.270300	-2.638744
0.270400	-2.558896
0.270500	-2.457626
0.270600	-2.345320
0.270700	-2.045405
0.270800	-1.866236
0.270900	-1.484851
0.271000	-1.407276
0.271100	-1.288154
0.271200	-1.162541
0.271300	-0.959352
0.271400	-0.790570
0.271500	-0.571477
0.271600	-0.441320
0.271700	-0.339076
0.271800	-0.321873
0.271900	-0.260203
0.272000	-0.208919
0.272100	-0.181005
0.272200	-0.154065
0.272300	-0.119335
0.272400	-0.117712
0.272500	-0.131993
0.272600	-0.116089
0.272700	-0.156337
0.272800	-0.157960
0.272900	-0.069349
0.273000	0.232837
0.273100	0.521714
0.273200	0.644081
0.273300	0.339948
0.273400	-0.032022
0.273500	0.093916
0.273600	0.323719
0.273700	0.651547
0.273800	0.723279
0.273900	0.557743
0.274000	0.214985
0.274100	0.162078
0.274200	0.227968
0.274300	0.508406
0.274400	0.554172
0.274500	0.560339
0.274600	0.457447
0.274700	0.360073
0.274800	0.300999
0.274900	0.283471
0.275000	0.261724
0.275100	0.240627
0.275200	0.160130
0.275300	0.124102
0.275400	0.070870
0.275500	-0.057339
0.275600	-0.149196
0.275700	-0.251764
0.275800	-0.312461
0.275900	-0.260203
0.276000	-0.259554
0.276100	-0.273511
0.276200	-0.545186
0.276300	-0.761357
0.276400	-0.732145
0.276500	-0.561415
0.276600	-0.283573
0.276700	-0.372508
0.276800	-0.654245
0.276900	-0.916508
0.277000	-0.913262
0.277100	-0.786026
0.277200	-0.615620
0.277300	-0.561415
0.277400	-0.716565
0.277500	-0.826923
0.277600	-0.754541
0.277700	-0.758761
0.277800	-0.661061
0.277900	-0.708450
0.278000	-0.705854
0.278100	-0.750646
0.278200	-0.744804
0.278300	-0.739286
0.278400	-0.763305
0.278500	-0.806150
0.278600	-0.778560
0.278700	-0.726627
0.278800	-0.675343
0.278900	-0.667229
0.279000	-0.798684
0.279100	-0.886646
0.279200	-0.820107
0.279300	-0.749672
0.279400	-0.568880
0.279500	-0.584785
0.279600	-0.522140
0.279700	-0.409186
0.279800	-0.072270
0.279900	0.155911
0.280000	0.444139
0.280100	0.773914
0.280200	1.073178
0.280300	1.303956
0.280400	1.495134
0.280500	1.841788
0.280600	1.983305
0.280700	2.325415
0.280800	2.377348
0.280900	2.707448
0.281000	2.599687
0.281100	2.661358
0.281200	2.472775
0.281300	1.759019
0.281400	-0.749023
0.281500	-0.593873
0.281600	-0.389386
0.281700	1.264357
0.281800	2.448432
0.281900	1.537005
0.282000	-0.380947
0.282100	-0.598417
0.282200	-0.520842
0.282300	-0.212489
0.282400	0.379547
0.282500	0.313333
0.282600	-0.286819
0.282700	-0.439048
0.282800	-0.494226
0.282900	-0.400098
0.283000	-0.369912
0.283100	-0.383869
0.283200	-0.447162
0.283300	-0.521491
0.283400	-0.527009
0.283500	-0.561090
0.283600	-0.564661
0.283700	-0.694493
0.283800	-0.776288
0.283900	-0.856135
0.284000	-0.895734
0.284100	-0.956756
0.284200	-1.061271
0.284300	-1.206035
0.284400	-1.254722
0.284500	-1.104441
0.284600	-1.048612
0.284700	-1.205710
0.284800	-1.516660
0.284900	-1.846436
0.285000	-1.961988
0.285100	-1.776326
0.285200	-1.636106
0.285300	-1.730235
0.285400	-2.055143
0.285500	-2.397578
0.285600	-2.575774
0.285700	-2.498199
0.285800	-2.405044
0.285900	-2.427440
0.286000	-2.529359
0.286100	-2.646534
0.286200	-2.720214
0.286300	-2.724434
0.286400	-2.756892
0.286500	-2.753322
0.286600	-2.760787
0.286700	-2.698792
0.286800	-2.609531
0.286900	-2.536500
0.287000	-2.554352
0.287100	-2.584863
0.287200	-2.643288
0.287300	-2.561168
0.287400	-2.357330
0.287500	-2.161606
0.287600	-2.051897
0.287700	-2.112594
0.287800	-2.065530
0.287900	-1.969453
0.288000	-1.826637
0.288100	-1.687391
0.288200	-1.593262
0.288300	-1.530293
0.288400	-1.546846
0.288500	-1.546197
0.288600	-1.536135
0.288700	-1.501405
0.288800	-1.499782
0.288900	-1.444603
0.289000	-1.362159
0.289100	-1.371247
0.289200	-1.318340
0.289300	-1.379037
0.289400	-1.361185
0.289500	-1.355667
0.289600	-1.219343
0.289700	-0.865224
0.289800	-0.604584
0.289900	-0.693195
0.290000	-1.155075
0.290100	-1.359887
0.290200	-1.221939
0.290300	-0.781481
0.290400	-0.556546
0.290500	-0.492604
0.290600	-0.691248
0.290700	-0.943772
0.290800	-0.901901
0.290900	-0.711047
0.291000	-0.392632
0.291100	-0.323821
0.291200	-0.375429
0.291300	-0.381597
0.291400	-0.480269
0.291500	-0.357902
0.291600	-0.293310
0.291700	-0.202752
0.291800	-0.214437
0.291900	-0.233263
0.292000	-0.156661
0.292100	-0.207945
0.292200	-0.268318
0.292300	-0.253062
0.292400	-0.320900
0.292500	-0.329988
0.292600	-0.177759
0.292700	-0.101158
0.292800	-0.095315
0.292900	-0.421196
0.293000	-0.513052
0.293100	-0.388088
0.293200	-0.063506
0.293300	0.126698
0.293400	0.008551
0.293500	-0.279353
0.293600	-0.425740
0.293700	-0.318303
0.293800	0.118259
0.293900	1.692805
0.294000	1.531488
0.294100	0.518793
0.294200	-0.025206
0.294300	0.200378
0.294400	0.778783
0.294500	1.598027
0.294600	1.481177
0.294700	1.180939
0.294800	0.845647
0.294900	1.131603
0.295000	1.388347
0.295100	1.295192
0.295200	1.271173
0.295300	1.335440
0.295400	1.762265
0.295500	2.079057
0.295600	2.050819
0.295700	1.050458
0.295800	0.581437
0.295900	0.685952
0.296000	0.956978
0.296100	1.861263
0.296200	1.425674
0.296300	1.533760
0.296400	1.410743
0.296500	1.433464
0.296600	1.545445
0.296700	1.315965
0.296800	1.131278
0.296900	0.727499
0.297000	0.575595
0.297100	0.210116
0.297200	-0.037540
0.297300	-0.515324
0.297400	-0.548107
0.297500	-0.639639
0.297600	-0.715267
0.297700	-0.812317
0.297800	-0.946044
0.297900	-1.045367
0.298000	-1.377414
0.298100	-1.816250
0.298200	-2.012622
0.298300	-1.764317
0.298400	-1.575085
0.298500	-1.570865
0.298600	-2.001911
0.298700	-2.441072
0.298800	-2.674773
0.298900	-2.610180
0.299000	-2.385244
0.299100	-2.343697
0.299200	-2.511182
0.299300	-2.842907
0.299400	-3.073686
0.299500	-3.147367
0.299600	-3.084398
0.299700	-3.024349
0.299800	-3.108741
0.299900	-3.209038
0.300000	-3.304466
0.300100	-3.354127
0.300200	-3.331406
0.300300	-3.327187
0.300400	-3.388858
0.300500	-3.424887
0.300600	-3.379769
0.300700	-3.371330
0.300800	-3.357373
0.300900	-3.411579
0.301000	-3.453775
0.301100	-3.350232
0.301200	-3.067519
0.301300	-2.936063
0.301400	-3.077581
0.301500	-3.333354
0.301600	-3.524210
0.301700	-3.350881
0.301800	-3.026622
0.301900	-2.786429
0.302000	-2.798114
0.302100	-3.019805
0.302200	-3.223969
0.302300	-3.221048
0.302400	-2.997084
0.302500	-2.764033
0.302600	-2.668605
0.302700	-2.701713
0.302800	-2.748453
0.302900	-2.780262
0.303000	-2.733522
0.303100	-2.673799
0.303200	-2.595574
0.303300	-2.505340
0.303400	-2.443344
0.303500	-2.301177
0.303600	-2.216136
0.303700	-2.204776
0.303800	-2.173940
0.303900	-2.163878
0.304000	-1.984059
0.304100	-1.844164
0.304200	-1.571839
0.304300	-1.523476
0.304400	-1.566970
0.304500	-1.534837
0.304600	-1.436488
0.304700	-1.305357
0.304800	-1.145987
0.304900	-1.063219
0.305000	-1.003820
0.305100	-1.016154
0.305200	-1.018426
0.305300	-1.026865
0.305400	-1.032383
0.305500	-0.975257
0.305600	-0.898980
0.305700	-0.886646
0.305800	-0.870092
0.305900	-0.928517
0.306000	-1.000899
0.306100	-0.975581
0.306200	-0.950913
0.306300	-0.650999
0.306400	-0.482866
0.306500	-0.116089
0.306600	-0.552976
0.306700	-0.939877
0.306800	-0.905796
0.306900	-0.755515
0.307000	-0.372508
0.307100	-0.282924
0.307200	-0.296232
0.307300	-0.631849
0.307400	-0.737987
0.307500	-0.732145
0.307600	-0.474102
0.307700	-0.317005
0.307800	-0.241053
0.307900	-0.328365
0.308000	-0.411458
0.308100	-0.366017
0.308200	-0.390685
0.308300	-0.343296
0.308400	-0.336804
0.308500	-0.350761
0.308600	-0.334857
0.308700	-0.330637
0.308800	-0.356604
0.308900	-0.564012
0.309000	-0.582837
0.309100	-0.651324
0.309200	-0.600689
0.309300	-0.490981
0.309400	-0.473453
0.309500	-0.675343
0.309600	-1.007390
0.309700	-0.944097
0.309800	-0.814913
0.309900	-0.468909
0.310000	-0.508833
0.310100	-0.676641
0.310200	-1.014856
0.310300	-1.075228
0.310400	-0.940851
0.310500	-0.662035
0.310600	-0.539019
0.310700	-0.673071
0.310800	-0.820756
0.310900	-0.878531
0.311000	-0.891515
0.311100	-0.814589
0.311200	-0.786675
0.311300	-0.803228
0.311400	-0.878531
0.311500	-0.910990
0.311600	-0.900603
0.311700	-0.931114
0.311800	-0.984670
0.311900	-1.019075
0.312000	-0.989538
0.312100	-0.962923
0.312200	-0.933710
0.312300	-1.042770
0.312400	-1.216097
0.312500	-1.238818
0.312600	-1.232326
0.312700	-1.099247
0.312800	-1.105414
0.312900	-1.154751
0.313000	-1.140145
0.313100	-1.142092
0.313200	-1.124889
0.313300	-1.116126
0.313400	-1.108336
0.313500	-1.131381
0.313600	-1.160593
0.313700	-1.207658
0.313800	-1.215772
0.313900	-1.282961
0.314000	-1.287180
0.314100	-1.369300
0.314200	-1.427400
0.314300	-1.490369
0.314400	-1.608842
0.314500	-1.712059
0.314600	-1.852928
0.314700	-2.144728
0.314800	-2.511507
0.314900	-2.452757
0.315000	-2.188222
0.315100	-1.942837
0.315200	-2.110971
0.315300	-2.547211
0.315400	-2.929895
0.315500	-2.986698
0.315600	-2.795518
0.315700	-2.578047
0.315800	-2.578371
0.315900	-2.854267
0.316000	-3.110364
0.316100	-3.250585
0.316200	-3.210012
0.316300	-3.139252
0.316400	-3.143147
0.316500	-3.229487
0.316600	-3.296351
0.316700	-3.332705
0.316800	-3.353803
0.316900	-3.392104
0.317000	-3.423913
0.317100	-3.474873
0.317200	-3.514797
0.317300	-3.460916
0.317400	-3.476496
0.317500	-3.549203
0.317600	-3.611848
0.317700	-3.626454
0.317800	-3.461565
0.317900	-3.292132
0.318000	-3.287263
0.318100	-3.490778
0.318200	-3.739734
0.318300	-3.855611
0.318400	-3.642359
0.318500	-3.355101
0.318600	-3.220074
0.318700	-3.357698
0.318800	-3.617041
0.318900	-3.803028
0.319000	-3.707276
0.319100	-3.492076
0.319200	-3.342442
0.319300	-3.304790
0.319400	-3.352504
0.319500	-3.379769
0.319600	-3.375874
0.319700	-3.312580
0.319800	-3.246041
0.319900	-3.167167
0.320000	-3.071414
0.320100	-2.953915
0.320200	-2.790974
0.320300	-2.715021
0.320400	-2.702362
0.320500	-2.674123
0.320600	-2.622190
0.320700	-2.377454
0.320800	-2.164852
0.320900	-1.955820
0.321000	-1.953224
0.321100	-1.946732
0.321200	-1.889606
0.321300	-1.770159
0.321400	-1.659152
0.321500	-1.520880
0.321600	-1.421557
0.321700	-1.395915
0.321800	-1.375142
0.321900	-1.378388
0.322000	-1.351448
0.322100	-1.375791
0.322200	-1.238493
0.322300	-1.231677
0.322400	-1.178121
0.322500	-1.194025
0.322600	-1.173577
0.322700	-1.262837
0.322800	-1.238818
0.322900	-1.201166
0.323000	-0.955457
0.323100	-0.592575
0.323200	-0.542589
0.323300	-0.934684
0.323400	-1.268030
0.323500	-1.171954
0.323600	-0.857109
0.323700	-0.643859
0.323800	-0.518570
0.323900	-0.740584
0.324000	-0.920727
0.324100	-1.029137
0.324200	-0.846722
0.324300	-0.712021
0.324400	-0.550379
0.324500	-0.617243
0.324600	-0.675343
0.324700	-0.684756
0.324800	-0.697090
0.324900	-0.723381
0.325000	-0.721434
0.325100	-0.738961
0.325200	-0.729224
0.325300	-0.733768
0.325400	-0.816212
0.325500	-0.913586
0.325600	-1.045367
0.325700	-1.032708
0.325800	-1.094379
0.325900	-0.953185
0.326000	-0.986942
0.326100	-0.943772
0.326200	-1.281987
0.326300	-1.391371
0.326400	-1.297242
0.326500	-1.085615
0.326600	-0.819782
0.326700	-0.912937
0.326800	-1.132030
0.326900	-1.422531
0.327000	-1.372221
0.327100	-1.183314
0.327200	-0.941825
0.327300	-0.916183
0.327400	-1.060622
0.327500	-1.161892
0.327600	-1.141118
0.327700	-1.170980
0.327800	-1.090808
0.327900	-1.135600
0.328000	-1.146312
0.328100	-1.216421
0.328200	-1.192078
0.328300	-1.173252
0.328400	-1.245309
0.328500	-1.294646
0.328600	-1.285557
0.328700	-1.211877
0.328800	-1.177147
0.328900	-1.175849
0.329000	-1.328402
0.329100	-1.451094
0.329200	-1.436813
0.329300	-1.421557
0.329400	-1.279715
0.329500	-1.338140
0.329600	-1.352421
0.329700	-1.318665
0.329800	-1.328727
0.329900	-1.333920
0.330000	-1.313472
0.330100	-1.297567
0.330200	-1.322884
0.330300	-1.306655
0.330400	-1.339438
0.330500	-1.347228
0.330600	-1.356316
0.330700	-1.373519
0.330800	-1.365729
0.330900	-1.389099
0.331000	-1.405653
0.331100	-1.465701
0.331200	-1.477710
0.331300	-1.670188
0.331400	-2.059038
0.331500	-2.204127
0.331600	-2.009701
0.331700	-1.721796
0.331800	-1.577682
0.331900	-1.824689
0.332000	-2.259630
0.332100	-2.493655
0.332200	-2.419650
0.332300	-2.201854
0.332400	-2.105778
0.332500	-2.216136
0.332600	-2.423220
0.332700	-2.639393
0.332800	-2.650753
0.332900	-2.644911
0.333000	-2.580643
0.333100	-2.631603
0.333200	-2.650429
0.333300	-2.702687
0.333400	-2.741312
0.333500	-2.746830
0.333600	-2.757217
0.333700	-2.799737
0.333800	-2.835442
0.333900	-2.806229
0.334000	-2.730926
0.334100	-2.749427
0.334200	-2.771174
0.334300	-2.823107
0.334400	-2.813694
0.334500	-2.597197
0.334600	-2.438800
0.334700	-2.538447
0.334800	-2.787728
0.334900	-3.045447
0.335000	-3.019481
0.335100	-2.783508
0.335200	-2.563116
0.335300	-2.542018
0.335400	-2.758840
0.335500	-3.030192
0.335600	-3.136331
0.335700	-3.024349
0.335800	-2.864979
0.335900	-2.818239
0.336000	-2.860110
0.336100	-2.922755
0.336200	-2.941580
0.336300	-2.938335
0.336400	-2.956836
0.336500	-2.921132
0.336600	-2.904253
0.336700	-2.834792
0.336800	-2.671527
0.336900	-2.584863
0.337000	-2.544614
0.337100	-2.594600
0.337200	-2.644262
0.337300	-2.533254
0.337400	-2.412834
0.337500	-2.394332
0.337600	-2.163878
0.337700	-2.233988
0.337800	-2.207048
0.337900	-2.134017
0.338000	-2.027229
0.338100	-1.933100
0.338200	-1.866560
0.338300	-1.847085
0.338400	-1.872078
0.338500	-1.865911
0.338600	-1.902589
0.338700	-1.885386
0.338800	-1.916871
0.338900	-1.879219
0.339000	-1.838321
0.339100	-1.916546
0.339200	-1.876298
0.339300	-1.955171
0.339400	-1.976918
0.339500	-2.005806
0.339600	-1.822092
0.339700	-1.462130
0.339800	-1.282636
0.339900	-1.243362
0.340000	-1.846436
0.340100	-1.815276
0.340200	-1.797749
0.340300	-1.244011
0.340400	-1.140469
0.340500	-1.034655
0.340600	-1.325156
0.340700	-1.428698
0.340800	-1.384555
0.340900	-1.144364
0.341000	-0.906445
0.341100	-0.873663
0.341200	-0.913586
0.341300	-0.967467
0.341400	-0.934684
0.341500	-0.929491
0.341600	-0.943123
0.341700	-0.899954
0.341800	-0.917806
0.341900	-1.013882
0.342000	-0.978178
0.342100	-1.024918
0.342200	-1.120994
0.342300	-1.237195
0.342400	-1.341061
0.342500	-1.304708
0.342600	-1.256020
0.342700	-1.184288
0.342800	-1.282961
0.342900	-1.650064
0.343000	-1.767562
0.343100	-1.679601
0.343200	-1.384880
0.343300	-1.275171
0.343400	-1.463429
0.343500	-1.760097
0.343600	-1.903887
0.343700	-1.822092
0.343800	-1.564049
0.343900	-1.429023
0.344000	-1.527371
0.344100	-1.754904
0.344200	-1.833128
0.344300	-1.764966
0.344400	-1.740298
0.344500	-1.687066
0.344600	-1.768861
0.344700	-1.844489
0.344800	-1.922388
0.344900	-1.914598
0.345000	-1.862665
0.345100	-1.911028
0.345200	-1.961014
0.345300	-1.928556
0.345400	-1.815276
0.345500	-1.796126
0.345600	-1.862341
0.345700	-2.051572
0.345800	-2.091821
0.345900	-2.087277
0.346000	-2.069100
0.346100	-1.968155
0.346200	-2.020088
0.346300	-1.998990
0.346400	-2.000288
0.346500	-1.992498
0.346600	-1.975295
0.346700	-1.955171
0.346800	-1.975620
0.346900	-1.977568
0.347000	-1.999639
0.347100	-2.008078
0.347200	-1.972699
0.347300	-1.976594
0.347400	-1.958417
0.347500	-1.997367
0.347600	-1.985033
0.347700	-2.061959
0.347800	-2.096365
0.347900	-2.184327
0.348000	-2.432633
0.348100	-2.837389
0.348200	-2.897437
0.348300	-2.601092
0.348400	-2.408614
0.348500	-2.443669
0.348600	-2.795518
0.348700	-3.175606
0.348800	-3.370032
0.348900	-3.184370
0.349000	-2.937685
0.349100	-2.902955
0.349200	-3.046097
0.349300	-3.297974
0.349400	-3.442414
0.349500	-3.413851
0.349600	-3.302843
0.349700	-3.264867
0.349800	-3.307387
0.349900	-3.386586
0.350000	-3.414500
0.350100	-3.409631
0.350200	-3.366462
0.350300	-3.393727
0.350400	-3.450529
0.350500	-3.496620
0.350600	-3.492400
0.350700	-3.399894
0.350800	-3.432352
0.350900	-3.505384
0.351000	-3.520964
0.351100	-3.443064
0.351200	-3.232733
0.351300	-3.181124
0.351400	-3.281420
0.351500	-3.525508
0.351600	-3.746875
0.351700	-3.613471
0.351800	-3.337249
0.351900	-3.168465
0.352000	-3.302518
0.352100	-3.591074
0.352200	-3.831267
0.352300	-3.837435
0.352400	-3.675466
0.352500	-3.509279
0.352600	-3.477794
0.352700	-3.581661
0.352800	-3.655991
0.352900	-3.651772
0.353000	-3.583933
0.353100	-3.500190
0.353200	-3.417746
0.353300	-3.352180
0.353400	-3.236303
0.353500	-3.059729
0.353600	-2.974039
0.353700	-2.954564
0.353800	-2.906525
0.353900	-2.874392
0.354000	-2.693923
0.354100	-2.569607
0.354200	-2.304747
0.354300	-2.247296
0.354400	-2.242427
0.354500	-2.199582
0.354600	-2.107076
0.354700	-1.976918
0.354800	-1.856498
0.354900	-1.780221
0.355000	-1.726665
0.355100	-1.777949
0.355200	-1.736727
0.355300	-1.749386
0.355400	-1.701672
0.355500	-1.698102
0.355600	-1.647142
0.355700	-1.635457
0.355800	-1.611438
0.355900	-1.664670
0.356000	-1.656555
0.356100	-1.708488
0.356200	-1.563725
0.356300	-1.439734
0.356400	-0.978827
0.356500	-0.924297
0.356600	-1.148908
0.356700	-1.605271
0.356800	-1.525099
0.356900	-1.356966
0.357000	-0.994083
0.357100	-0.811343
0.357200	-0.972336
0.357300	-1.138846
0.357400	-1.331324
0.357500	-1.147935
0.357600	-0.937930
0.357700	-0.722083
0.357800	-0.729873
0.357900	-0.798035
0.358000	-0.877558
0.358100	-0.901252
0.358200	-0.920402
0.358300	-0.883400
0.358400	-0.879181
0.358500	-0.909042
0.358600	-0.982073
0.358700	-1.007715
0.358800	-1.060622
0.358900	-1.204412
0.359000	-1.259266
0.359100	-1.324507
0.359200	-1.298541
0.359300	-1.212526
0.359400	-1.239467
0.359500	-1.423505
0.359600	-1.814302
0.359700	-1.732183
0.359800	-1.650388
0.359900	-1.365729
0.360000	-1.458560
0.360100	-1.696479
0.360200	-2.042160
0.360300	-2.079162
0.360400	-1.922064
0.360500	-1.692259
0.360600	-1.649414
0.360700	-1.839295
0.360800	-2.022035
0.360900	-2.070074
0.361000	-2.038914
0.361100	-1.973348
0.361200	-1.980813
0.361300	-2.026255
0.361400	-2.125577
0.361500	-2.139859
0.361600	-2.093768
0.361700	-2.113243
0.361800	-2.149272
0.361900	-2.163878
0.362000	-2.126876
0.362100	-2.111945
0.362200	-2.082732
0.362300	-2.184976
0.362400	-2.341101
0.362500	-2.338504
0.362600	-2.323898
0.362700	-2.213539
0.362800	-2.207697
0.362900	-2.201205
0.363000	-2.159009
0.363100	-2.172967
0.363200	-2.141807
0.363300	-2.130446
0.363400	-2.088900
0.363500	-2.079487
0.363600	-2.063257
0.363700	-2.081759
0.363800	-2.066828
0.363900	-2.046055
0.364000	-2.073969
0.364100	-2.023009
0.364200	-2.059687
0.364300	-2.025606
0.364400	-2.128174
0.364500	-2.122981
0.364600	-2.272614
0.364700	-2.576424
0.364800	-2.864979
0.364900	-2.742935
0.365000	-2.425168
0.365100	-2.230093
0.365200	-2.375506
0.365300	-2.752348
0.365400	-3.084073
0.365500	-3.062650
0.365600	-2.829274
0.365700	-2.665684
0.365800	-2.636796
0.365900	-2.847776
0.366000	-3.034412
0.366100	-3.107443
0.366200	-3.023700
0.366300	-2.910745
0.366400	-2.879585
0.366500	-2.910096
0.366600	-2.947423
0.366700	-2.913342
0.366800	-2.875690
0.366900	-2.849074
0.367000	-2.895490
0.367100	-2.905552
0.367200	-2.900034
0.367300	-2.846477
0.367400	-2.841609
0.367500	-2.875041
0.367600	-2.955862
0.367700	-2.938659
0.367800	-2.802983
0.367900	-2.539746
0.368000	-2.625436
0.368100	-2.893867
0.368200	-3.169439
0.368300	-3.245391
0.368400	-3.023051
0.368500	-2.763708
0.368600	-2.697818
0.368700	-2.914640
0.368800	-3.233057
0.368900	-3.395674
0.369000	-3.313879
0.369100	-3.128216
0.369200	-2.984101
0.369300	-3.012989
0.369400	-3.098355
0.369500	-3.155482
0.369600	-3.122374
0.369700	-3.091214
0.369800	-3.016559
0.369900	-2.983452
0.370000	-2.933141
0.370100	-2.836415
0.370200	-2.710801
0.370300	-2.690353
0.370400	-2.683536
0.370500	-2.693274
0.370600	-2.632577
0.370700	-2.405368
0.370800	-2.233014
0.370900	-2.038265
0.371000	-2.065205
0.371100	-2.064880
0.371200	-2.012622
0.371300	-1.944135
0.371400	-1.822417
0.371500	-1.742894
0.371600	-1.684794
0.371700	-1.705567
0.371800	-1.742245
0.371900	-1.791582
0.372000	-1.798398
0.372100	-1.912326
0.372200	-1.768861
0.372300	-1.867209
0.372400	-1.773730
0.372500	-1.906484
0.372600	-1.869157
0.372700	-2.031773
0.372800	-2.090198
0.372900	-1.936995
0.373000	-1.781195
0.373100	-1.364756
0.373200	-1.471868
0.373300	-1.804240
0.373400	-2.230742
0.373500	-2.062284
0.373600	-1.733806
0.373700	-1.514063
0.373800	-1.359562
0.373900	-1.654932
0.374000	-1.805863
0.374100	-1.917844
0.374200	-1.656555
0.374300	-1.481930
0.374400	-1.297242
0.374500	-1.359238
0.374600	-1.428374
0.374700	-1.372221
0.374800	-1.360211
0.374900	-1.265109
0.375000	-1.180068
0.375100	-1.146312
0.375200	-1.124240
0.375300	-1.077500
0.375400	-1.021997
0.375500	-1.183639
0.375600	-1.178770
0.375700	-1.212202
0.375800	-1.154426
0.375900	-0.988240
0.376000	-0.985643
0.376100	-0.967467
0.376200	-1.301462
0.376300	-1.458560
0.376400	-1.321261
0.376500	-1.111257
0.376600	-0.776288
0.376700	-0.960002
0.376800	-1.194025
0.376900	-1.462130
0.377000	-1.381958
0.377100	-1.185262
0.377200	-0.968441
0.377300	-0.978503
0.377400	-1.199868
0.377500	-1.335868
0.377600	-1.331648
0.377700	-1.325806
0.377800	-1.220641
0.377900	-1.264135
0.378000	-1.293347
0.378100	-1.359238
0.378200	-1.341061
0.378300	-1.337815
0.378400	-1.381958
0.378500	-1.445577
0.378600	-1.456937
0.378700	-1.401758
0.378800	-1.380011
0.378900	-1.411820
0.379000	-1.620202
0.379100	-1.744192
0.379200	-1.749386
0.379300	-1.767562
0.379400	-1.669214
0.379500	-1.790283
0.379600	-1.841567
0.379700	-1.850006
0.379800	-1.898045
0.379900	-1.923038
0.380000	-1.963935
0.380100	-1.990551
0.380200	-2.029501
0.380300	-2.060336
0.380400	-2.099611
0.380500	-2.101234
0.380600	-2.190169
0.380700	-2.191143
0.380800	-2.260279
0.380900	-2.283974
0.381000	-2.364471
0.381100	-2.447564
0.381200	-2.509235
0.381300	-2.759813
0.381400	-3.136980
0.381500	-3.381717
0.381600	-3.162947
0.381700	-2.908148
0.381800	-2.790649
0.381900	-3.088293
0.382000	-3.499866
0.382100	-3.725777
0.382200	-3.656640
0.382300	-3.380094
0.382400	-3.268762
0.382500	-3.349583
0.382600	-3.649175
0.382700	-3.835812
0.382800	-3.886447
0.382900	-3.770570
0.383000	-3.724479
0.383100	-3.758236
0.383200	-3.803353
0.383300	-3.898457
0.383400	-3.941951
0.383500	-3.973436
0.383600	-4.004921
0.383700	-4.055556
0.383800	-4.092884
0.383900	-4.127290
0.384000	-4.092559
0.384100	-4.128913
0.384200	-4.238947
0.384300	-4.265888
0.384400	-4.242193
0.384500	-3.979603
0.384600	-3.907220
0.384700	-3.975059
0.384800	-4.237974
0.384900	-4.465833
0.385000	-4.392152
0.385100	-4.109113
0.385200	-3.878657
0.385300	-3.879955
0.385400	-4.114631
0.385500	-4.360992
0.385600	-4.445709
0.385700	-4.295750
0.385800	-4.096454
0.385900	-4.010439
0.386000	-4.034783
0.386100	-4.107814
0.386200	-4.125018
0.386300	-4.111385
0.386400	-4.078602
0.386500	-4.014334
0.386600	-3.932863
0.386700	-3.801081
0.386800	-3.626129
0.386900	-3.499217
0.387000	-3.438519
0.387100	-3.401517
0.387200	-3.370357
0.387300	-3.152560
0.387400	-2.895490
0.387500	-2.612128
0.387600	-2.506638
0.387700	-2.515727
0.387800	-2.455679
0.387900	-2.330389
0.388000	-2.160957
0.388100	-2.022685
0.388200	-1.901291
0.388300	-1.801644
0.388400	-1.767887
0.388500	-1.726340
0.388600	-1.709462
0.388700	-1.718550
0.388800	-1.677004
0.388900	-1.632861
0.389000	-1.556908
0.389100	-1.558531
0.389200	-1.564049
0.389300	-1.604947
0.389400	-1.687715
0.389500	-1.586770
0.389600	-1.570865
0.389700	-1.139820
0.389800	-1.100221
0.389900	-1.054130
0.390000	-1.704918
0.390100	-1.708164
0.390200	-1.600078
0.390300	-1.274522
0.390400	-1.091133
0.390500	-1.187858
0.390600	-1.394617
0.390700	-1.615009
0.390800	-1.533214
0.390900	-1.253748
0.391000	-1.083018
0.391100	-0.983371
0.391200	-1.122617
0.391300	-1.134951
0.391400	-1.243037
0.391500	-1.139820
0.391600	-1.128135
0.391700	-1.098598
0.391800	-1.088536
0.391900	-1.104441
0.392000	-1.059973
0.392100	-1.195648
0.392200	-1.287180
0.392300	-1.390073
0.392400	-1.399161
0.392500	-1.415390
0.392600	-1.317367
0.392700	-1.299514
0.392800	-1.398512
0.392900	-1.749710
0.393000	-1.786388
0.393100	-1.673433
0.393200	-1.391047
0.393300	-1.308278
0.393400	-1.517309
0.393500	-1.839620
0.393600	-1.971400
0.393700	-1.884088
0.393800	-1.639677
0.393900	-1.528345
0.394000	-1.655906
0.394100	-1.821119
0.394200	-1.889930
0.394300	-1.859095
0.394400	-1.846436
0.394500	-1.820145
0.394600	-1.896422
0.394700	-1.921090
0.394800	-1.939916
0.394900	-1.890255
0.395000	-1.893825
0.395100	-1.979190
0.395200	-1.990875
0.395300	-1.965883
0.395400	-1.890904
0.395500	-1.854226
0.395600	-1.936670
0.395700	-2.111296
0.395800	-2.164852
0.395900	-2.117138
0.396000	-2.032747
0.396100	-1.982761
0.396200	-2.017816
0.396300	-2.015544
0.396400	-2.006455
0.396500	-2.008078
0.396600	-2.009377
0.396700	-2.012947
0.396800	-2.001587
0.396900	-2.016517
0.397000	-2.006780
0.397100	-2.041510
0.397200	-2.048002
0.397300	-2.071372
0.397400	-2.081110
0.397500	-2.085329
0.397600	-2.122981
0.397700	-2.150246
0.397800	-2.167449
0.397900	-2.254112
0.398000	-2.523517
0.398100	-2.865952
0.398200	-2.892244
0.398300	-2.607908
0.398400	-2.279430
0.398500	-2.350838
0.398600	-2.707231
0.398700	-3.094460
0.398800	-3.212933
0.398900	-3.051939
0.399000	-2.829274
0.399100	-2.804931
0.399200	-2.995461
0.399300	-3.263244
0.399400	-3.448906
0.399500	-3.404113
0.399600	-3.333354
0.399700	-3.335951
0.399800	-3.378796
0.399900	-3.438844
0.400000	-3.504410
0.400100	-3.512200
0.400200	-3.520964
0.400300	-3.593346
0.400400	-3.670273
0.400500	-3.738436
0.400600	-3.713767
0.400700	-3.660860
0.400800	-3.710846
0.400900	-3.770245
0.401000	-3.836461
0.401100	-3.706302
0.401200	-3.485584
0.401300	-3.444362
0.401400	-3.657290
0.401500	-3.927345
0.401600	-4.119175
0.401700	-3.968892
0.401800	-3.678712
0.401900	-3.511551
0.402000	-3.612172
0.402100	-3.908843
0.402200	-4.149037
0.402300	-4.169486
0.402400	-3.999078
0.402500	-3.832890
0.402600	-3.830294
0.402700	-3.879306
0.402800	-3.964348
0.402900	-3.950715
0.403000	-3.904948
0.403100	-3.853988
0.403200	-3.777386
0.403300	-3.697214
0.403400	-3.572573
0.403500	-3.407684
0.403600	-3.321020
0.403700	-3.275578
0.403800	-3.224293
0.403900	-3.187291
0.404000	-2.956511
0.404100	-2.793570
0.404200	-2.489435
0.404300	-2.443020
0.404400	-2.427764
0.404500	-2.364471
0.404600	-2.243401
0.404700	-2.080136
0.404800	-1.888956
0.404900	-1.745491
0.405000	-1.724718
0.405100	-1.677978
0.405200	-1.718550
0.405300	-1.618904
0.405400	-1.701348
0.405500	-1.540679
0.405600	-1.573787
0.405700	-1.450770
0.405800	-1.476412
0.405900	-1.431619
0.406000	-1.476736
0.406100	-1.525424
0.406200	-1.395915
0.406300	-1.218369
0.406400	-0.778885
0.406500	-0.785052
0.406600	-1.020049
0.406700	-1.469920
0.406800	-1.458560
0.406900	-1.110932
0.407000	-0.878856
0.407100	-0.638016
0.407200	-0.862627
0.407300	-1.000899
0.407400	-1.261538
0.407500	-1.092431
0.407600	-0.931763
0.407700	-0.735066
0.407800	-0.759085
0.407900	-0.797386
0.408000	-0.813615
0.408100	-0.864250
0.408200	-0.819782
0.408300	-0.800307
0.408400	-0.763954
0.408500	-0.799658
0.408600	-0.799333
0.408700	-0.804527
0.408800	-0.901901
0.408900	-0.963572
0.409000	-1.064517
0.409100	-1.118398
0.409200	-1.019725
0.409300	-0.960002
0.409400	-0.995706
0.409500	-1.193051
0.409600	-1.558531
0.409700	-1.491343
0.409800	-1.353395
0.409900	-1.037901
0.410000	-1.087887
0.410100	-1.337166
0.410200	-1.654608
0.410300	-1.718875
0.410400	-1.582550
0.410500	-1.327104
0.410600	-1.282312
0.410700	-1.452393
0.410800	-1.617930
0.410900	-1.640001
0.411000	-1.667266
0.411100	-1.648116
0.411200	-1.654608
0.411300	-1.694207
0.411400	-1.758474
0.411500	-1.748087
0.411600	-1.728937
0.411700	-1.739973
0.411800	-1.797424
0.411900	-1.787362
0.412000	-1.746465
0.412100	-1.741271
0.412200	-1.696479
0.412300	-1.845787
0.412400	-1.977243
0.412500	-1.975945
0.412600	-1.970102
0.412700	-1.848059
0.412800	-1.902264
0.412900	-1.924985
0.413000	-1.899668
0.413100	-1.943486
0.413200	-1.941539
0.413300	-1.936346
0.413400	-1.952899
0.413500	-1.945434
0.413600	-1.992823
0.413700	-1.994121
0.413800	-2.011649
0.413900	-2.025930
0.414000	-2.036966
0.414100	-2.103506
0.414200	-2.117787
0.414300	-2.183678
0.414400	-2.278456
0.414500	-2.304747
0.414600	-2.518972
0.414700	-2.833169
0.414800	-3.169114
0.414900	-2.993839
0.415000	-2.745856
0.415100	-2.595899
0.415200	-2.768253
0.415300	-3.231110
0.415400	-3.517069
0.415500	-3.542062
0.415600	-3.330108
0.415700	-3.161324
0.415800	-3.195405
0.415900	-3.415149
0.416000	-3.677089
0.416100	-3.753367
0.416200	-3.712794
0.416300	-3.626454
0.416400	-3.679686
0.416500	-3.722856
0.416600	-3.773491
0.416700	-3.770245
0.416800	-3.800107
0.416900	-3.791993
0.417000	-3.859831
0.417100	-3.927669
0.417200	-3.902676
0.417300	-3.924748
0.417400	-3.930266
0.417500	-3.976682
0.417600	-4.045819
0.417700	-4.057179
0.417800	-3.893588
0.417900	-3.664106
0.418000	-3.773167
0.418100	-3.967269
0.418200	-4.207462
0.418300	-4.236026
0.418400	-3.986095
0.418500	-3.724479
0.418600	-3.656316
0.418700	-3.794265
0.418800	-4.051337
0.418900	-4.173381
0.419000	-4.084444
0.419100	-3.900080
0.419200	-3.793291
0.419300	-3.782580
0.419400	-3.813415
0.419500	-3.791668
0.419600	-3.763104
0.419700	-3.715390
0.419800	-3.637490
0.419900	-3.555695
0.420000	-3.430729
0.420100	-3.269411
0.420200	-3.135357
0.420300	-3.082125
0.420400	-3.037982
0.420500	-3.000655
0.420600	-2.906525
0.420700	-2.667632
0.420800	-2.444967
0.420900	-2.250866
0.421000	-2.247945
0.421100	-2.207372
0.421200	-2.133043
0.421300	-2.002560
0.421400	-1.927582
0.421500	-1.759772
0.421600	-1.708488
0.421700	-1.669863
0.421800	-1.711734
0.421900	-1.662073
0.422000	-1.698751
0.422100	-1.671811
0.422200	-1.642923
0.422300	-1.607868
0.422400	-1.602674
0.422500	-1.627992
0.422600	-1.631887
0.422700	-1.733157
0.422800	-1.687715
0.422900	-1.644546
0.423000	-1.216097
0.423100	-1.043744
0.423200	-1.021348
0.423300	-1.498159
0.423400	-1.783792
0.423500	-1.592937
0.423600	-1.345281
0.423700	-0.946369
0.423800	-1.017128
0.423900	-1.130732
0.424000	-1.459209
0.424100	-1.461157
0.424200	-1.294646
0.424300	-1.073930
0.424400	-0.967467
0.424500	-1.014856
0.424600	-1.071333
0.424700	-1.133653
0.424800	-1.071009
0.424900	-1.127161
0.425000	-1.105739
0.425100	-1.132355
0.425200	-1.135276
0.425300	-1.126512
0.425400	-1.149233
0.425500	-1.290426
0.425600	-1.334245
0.425700	-1.384555
0.425800	-1.424803
0.425900	-1.242063
0.426000	-1.262837
0.426100	-1.297892
0.426200	-1.715954
0.426300	-1.772431
0.426400	-1.765290
0.426500	-1.477061
0.426600	-1.362483
0.426700	-1.507247
0.426800	-1.812030
0.426900	-2.022360
0.427000	-1.944785
0.427100	-1.737376
0.427200	-1.554961
0.427300	-1.657529
0.427400	-1.835400
0.427500	-1.949004
0.427600	-1.912976
0.427700	-1.924336
0.427800	-1.893825
0.427900	-1.987954
0.428000	-2.042809
0.428100	-2.154465
0.428200	-2.172642
0.428300	-2.143429
0.428400	-2.176212
0.428500	-2.202179
0.428600	-2.204451
0.428700	-2.129472
0.428800	-2.087926
0.428900	-2.109673
0.429000	-2.265797
0.429100	-2.340127
0.429200	-2.300528
0.429300	-2.106427
0.429400	-2.090847
0.429500	-2.153816
0.429600	-2.130771
0.429700	-2.092145
0.429800	-2.082083
0.429900	-2.084355
0.430000	-2.108374
0.430100	-2.110322
0.430200	-2.132718
0.430300	-2.130122
0.430400	-2.141482
0.430500	-2.129797
0.430600	-2.176212
0.430700	-2.171668
0.430800	-2.192766
0.430900	-2.202828
0.431000	-2.223926
0.431100	-2.301177
0.431200	-2.332986
0.431300	-2.558247
0.431400	-2.929895
0.431500	-3.021104
0.431600	-2.750725
0.431700	-2.413158
0.431800	-2.354084
0.431900	-2.625436
0.432000	-3.029867
0.432100	-3.224293
0.432200	-3.089591
0.432300	-2.837389
0.432400	-2.728329
0.432500	-2.840959
0.432600	-3.081476
0.432700	-3.250260
0.432800	-3.282394
0.432900	-3.141200
0.433000	-3.138928
0.433100	-3.151587
0.433200	-3.248313
0.433300	-3.320046
0.433400	-3.298299
0.433500	-3.261621
0.433600	-3.336275
0.433700	-3.378147
0.433800	-3.447608
0.433900	-3.457021
0.434000	-3.397622
0.434100	-3.411254
0.434200	-3.467732
0.434300	-3.537518
0.434400	-3.419369
0.434500	-3.205143
0.434600	-3.101925
0.434700	-3.252208
0.434800	-3.518043
0.434900	-3.770245
0.435000	-3.674817
0.435100	-3.368084
0.435200	-3.124971
0.435300	-3.157429
0.435400	-3.390481
0.435500	-3.635218
0.435600	-3.669948
0.435700	-3.474873
0.435800	-3.230785
0.435900	-3.154832
0.436000	-3.191835
0.436100	-3.262919
0.436200	-3.242470
0.436300	-3.150937
0.436400	-3.068818
0.436500	-2.941256
0.436600	-2.882506
0.436700	-2.735145
0.436800	-2.571879
0.436900	-2.460872
0.437000	-2.419974
0.437100	-2.419001
0.437200	-2.400175
0.437300	-2.219382
0.437400	-2.037291
0.437500	-1.943811
0.437600	-1.726340
0.437700	-1.743219
0.437800	-1.726990
0.437900	-1.652011
0.438000	-1.514713
0.438100	-1.371247
0.438200	-1.270302
0.438300	-1.270951
0.438400	-1.277443
0.438500	-1.308927
0.438600	-1.318016
0.438700	-1.379362
0.438800	-1.322884
0.438900	-1.361185
0.439000	-1.285882
0.439100	-1.364756
0.439200	-1.342359
0.439300	-1.493939
0.439400	-1.493290
0.439500	-1.496536
0.439600	-1.379037
0.439700	-1.091782
0.439800	-0.847696
0.439900	-1.070359
0.440000	-1.547820
0.440100	-1.615009
0.440200	-1.434216
0.440300	-1.102818
0.440400	-0.946369
0.440500	-1.065815
0.440600	-1.263161
0.440700	-1.559830
0.440800	-1.415715
0.440900	-1.195648
0.441000	-1.035305
0.441100	-1.023944
0.441200	-1.045367
0.441300	-1.186884
0.441400	-1.163190
0.441500	-1.149233
0.441600	-1.056078
0.441700	-1.070359
0.441800	-1.076851
0.441900	-1.105739
0.442000	-1.105414
0.442100	-1.191429
0.442200	-1.284584
0.442300	-1.292698
0.442400	-1.327104
0.442500	-1.239467
0.442600	-1.182665
0.442700	-1.171304
0.442800	-1.372221
0.442900	-1.655906
0.443000	-1.622474
0.443100	-1.485500
0.443200	-1.154426
0.443300	-1.147610
0.443400	-1.306655
0.443500	-1.655906
0.443600	-1.796775
0.443700	-1.663696
0.443800	-1.401109
0.443900	-1.276469
0.444000	-1.443629
0.444100	-1.608842
0.444200	-1.718226
0.444300	-1.658827
0.444400	-1.609815
0.444500	-1.546522
0.444600	-1.621500
0.444700	-1.658827
0.444800	-1.689987
0.444900	-1.655906
0.445000	-1.657204
0.445100	-1.701348
0.445200	-1.718875
0.445300	-1.672135
0.445400	-1.642923
0.445500	-1.595858
0.445600	-1.681223
0.445700	-1.862990
0.445800	-1.873701
0.445900	-1.838971
0.446000	-1.839295
0.446100	-1.767887
0.446200	-1.842541
0.446300	-1.825338
0.446400	-1.847085
0.446500	-1.846761
0.446600	-1.862016
0.446700	-1.872403
0.446800	-1.918169
0.446900	-1.941539
0.447000	-1.968155
0.447100	-1.985033
0.447200	-2.028202
0.447300	-2.061635
0.447400	-2.124928
0.447500	-2.136613
0.447600	-2.208995
0.447700	-2.295659
0.447800	-2.397578
0.447900	-2.499822
0.448000	-2.818563
0.448100	-3.216179
0.448200	-3.196704
0.448300	-2.994488
0.448400	-2.803957
0.448500	-2.913342
0.448600	-3.320695
0.448700	-3.725453
0.448800	-3.853339
0.448900	-3.686178
0.449000	-3.459617
0.449100	-3.408333
0.449200	-3.665729
0.449300	-3.937407
0.449400	-4.104569
0.449500	-4.088339
0.449600	-4.023747
0.449700	-4.012386
0.449800	-4.074382
0.449900	-4.180846
0.450000	-4.236675
0.450100	-4.259072
0.450200	-4.268160
0.450300	-4.330481
0.450400	-4.377870
0.450500	-4.383713
0.450600	-4.360343
0.450700	-4.366185
0.450800	-4.423312
0.450900	-4.450578
0.451000	-4.491476
0.451100	-4.369756
0.451200	-4.101972
0.451300	-4.094831
0.451400	-4.285688
0.451500	-4.533347
0.451600	-4.647602
0.451700	-4.467781
0.451800	-4.162345
0.451900	-4.017580
0.452000	-4.126965
0.452100	-4.415198
0.452200	-4.610274
0.452300	-4.570350
0.452400	-4.337622
0.452500	-4.136053
0.452600	-4.105867
0.452700	-4.148063
0.452800	-4.214603
0.452900	-4.170784
0.453000	-4.083795
0.453100	-3.999078
0.453200	-3.894237
0.453300	-3.802379
0.453400	-3.632297
0.453500	-3.460591
0.453600	-3.362242
0.453700	-3.301220
0.453800	-3.259349
0.453900	-3.204169
0.454000	-2.948072
0.454100	-2.779613
0.454200	-2.450485
0.454300	-2.443344
0.454400	-2.426141
0.454500	-2.334284
0.454600	-2.213539
0.454700	-2.074293
0.454800	-1.890579
0.454900	-1.772756
0.455000	-1.744192
0.455100	-1.763018
0.455200	-1.779247
0.455300	-1.717252
0.455400	-1.776651
0.455500	-1.634484
0.455600	-1.664021
0.455700	-1.592937
0.455800	-1.647791
0.455900	-1.619877
0.456000	-1.700049
0.456100	-1.764317
0.456200	-1.701348
0.456300	-1.396889
0.456400	-1.206359
0.456500	-0.884049
0.456600	-1.438760
0.456700	-1.712708
0.456800	-1.785415
0.456900	-1.337491
0.457000	-1.145662
0.457100	-1.012584
0.457200	-1.157347
0.457300	-1.406951
0.457400	-1.566970
0.457500	-1.432593
0.457600	-1.183639
0.457700	-1.078799
0.457800	-1.052832
0.457900	-1.117748
0.458000	-1.176173
0.458100	-1.171304
0.458200	-1.180717
0.458300	-1.135600
0.458400	-1.140145
0.458500	-1.168708
0.458600	-1.202464
0.458700	-1.238818
0.458800	-1.394293
0.458900	-1.395266
0.459000	-1.517309
0.459100	-1.503028
0.459200	-1.434865
0.459300	-1.381634
0.459400	-1.395915
0.459500	-1.637405
0.459600	-1.896097
0.459700	-1.888307
0.459800	-1.703944
0.459900	-1.371247
0.460000	-1.482904
0.460100	-1.721796
0.460200	-2.036642
0.460300	-2.063257
0.460400	-1.878570
0.460500	-1.630589
0.460600	-1.570541
0.460700	-1.733157
0.460800	-1.885386
0.460900	-1.906808
0.461000	-1.913300
0.461100	-1.847085
0.461200	-1.850656
0.461300	-1.871429
0.461400	-1.930503
0.461500	-1.901291
0.461600	-1.870780
0.461700	-1.933100
0.461800	-2.004508
0.461900	-2.008078
0.462000	-1.934398
0.462100	-1.906808
0.462200	-1.880842
0.462300	-2.033396
0.462400	-2.154790
0.462500	-2.178484
0.462600	-2.149597
0.462700	-2.081434
0.462800	-2.098962
0.462900	-2.131095
0.463000	-2.094093
0.463100	-2.132718
0.463200	-2.120059
0.463300	-2.122007
0.463400	-2.112919
0.463500	-2.134666
0.463600	-2.107401
0.463700	-2.126227
0.463800	-2.098637
0.463900	-2.133692
0.464000	-2.122332
0.464100	-2.137587
0.464200	-2.127525
0.464300	-2.153816
0.464400	-2.211267
0.464500	-2.207048
0.464600	-2.388490
0.464700	-2.730276
0.464800	-2.960082
0.464900	-2.823756
0.465000	-2.522543
0.465100	-2.364471
0.465200	-2.511832
0.465300	-2.997084
0.465400	-3.245067
0.465500	-3.243444
0.465600	-2.995461
0.465700	-2.854917
0.465800	-2.915938
0.465900	-3.121400
0.466000	-3.345688
0.466100	-3.413202
0.466200	-3.350557
0.466300	-3.292132
0.466400	-3.317774
0.466500	-3.341144
0.466600	-3.400218
0.466700	-3.436572
0.466800	-3.461565
0.466900	-3.472601
0.467000	-3.535246
0.467100	-3.624182
0.467200	-3.559914
0.467300	-3.501489
0.467400	-3.499866
0.467500	-3.556019
0.467600	-3.625805
0.467700	-3.594320
0.467800	-3.444362
0.467900	-3.244093
0.468000	-3.359970
0.468100	-3.561862
0.468200	-3.813091
0.468300	-3.841979
0.468400	-3.578740
0.468500	-3.341468
0.468600	-3.293430
0.468700	-3.516744
0.468800	-3.794914
0.468900	-3.953961
0.469000	-3.833215
0.469100	-3.625805
0.469200	-3.521938
0.469300	-3.531351
0.469400	-3.580688
0.469500	-3.600487
0.469600	-3.603084
0.469700	-3.584258
0.469800	-3.522587
0.469900	-3.452152
0.470000	-3.357373
0.470100	-3.170088
0.470200	-3.085047
0.470300	-3.068818
0.470400	-3.049018
0.470500	-3.025648
0.470600	-2.903604
0.470700	-2.684835
0.470800	-2.567335
0.470900	-2.300852
0.471000	-2.336881
0.471100	-2.284948
0.471200	-2.186599
0.471300	-2.070723
0.471400	-1.936021
0.471500	-1.785090
0.471600	-1.742570
0.471700	-1.710760
0.471800	-1.763667
0.471900	-1.726340
0.472000	-1.781195
0.472100	-1.736403
0.472200	-1.694207
0.472300	-1.640651
0.472400	-1.649739
0.472500	-1.648441
0.472600	-1.648765
0.472700	-1.759123
0.472800	-1.709462
0.472900	-1.639028
0.473000	-1.266083
0.473100	-1.093405
0.473200	-1.088536
0.473300	-1.664345
0.473400	-1.812355
0.473500	-1.678627
0.473600	-1.318016
0.473700	-1.046016
0.473800	-0.991811
0.473900	-1.231677
0.474000	-1.521853
0.474100	-1.516336
0.474200	-1.304383
0.474300	-1.099896
0.474400	-0.992135
0.474500	-1.001873
0.474600	-1.016479
0.474700	-1.117424
0.474800	-1.079448
0.474900	-1.033682
0.475000	-1.024593
0.475100	-1.042121
0.475200	-1.021023
0.475300	-1.026541
0.475400	-1.079772
0.475500	-1.217395
0.475600	-1.178770
0.475700	-1.258942
0.475800	-1.194025
0.475900	-1.068737
0.476000	-1.010961
0.476100	-1.083992
0.476200	-1.423830
0.476300	-1.508870
0.476400	-1.419610
0.476500	-1.196622
0.476600	-0.982398
0.476700	-1.166760
0.476800	-1.453691
0.476900	-1.690636
0.477000	-1.621176
0.477100	-1.415715
0.477200	-1.235572
0.477300	-1.353395
0.477400	-1.504326
0.477500	-1.641624
0.477600	-1.627018
0.477700	-1.672784
0.477800	-1.664670
0.477900	-1.777949
0.478000	-1.835076
0.478100	-1.880842
0.478200	-1.854226
0.478300	-1.922713
0.478400	-2.000938
0.478500	-2.091172
0.478600	-2.100584
0.478700	-2.037940
0.478800	-2.020088
0.478900	-2.044432
0.479000	-2.238208
0.479100	-2.318380
0.479200	-2.325845
0.479300	-2.313511
0.479400	-2.185301
0.479500	-2.232041
0.479600	-2.226198
0.479700	-2.198609
0.479800	-2.204776
0.479900	-2.166150
0.480000	-2.173940
0.480100	-2.161606
0.480200	-2.159983
0.480300	-2.191468
0.480400	-2.198609
0.480500	-2.205100
0.480600	-2.213215
0.480700	-2.207048
0.480800	-2.243726
0.480900	-2.275535
0.481000	-2.318055
0.481100	-2.334609
0.481200	-2.360576
0.481300	-2.612452
0.481400	-2.944826
0.481500	-3.037657
0.481600	-2.784482
0.481700	-2.480022
0.481800	-2.472881
0.481900	-2.766305
0.482000	-3.118479
0.482100	-3.279797
0.482200	-3.135033
0.482300	-2.907824
0.482400	-2.807203
0.482500	-2.939308
0.482600	-3.134384
0.482700	-3.308685
0.482800	-3.300571
0.482900	-3.235654
0.483000	-3.208064
0.483100	-3.240847
0.483200	-3.277525
0.483300	-3.274929
0.483400	-3.263568
0.483500	-3.263893
0.483600	-3.289860
0.483700	-3.347960
0.483800	-3.401517
0.483900	-3.375225
0.484000	-3.311607
0.484100	-3.279473
0.484200	-3.332705
0.484300	-3.355426
0.484400	-3.297325
0.484500	-3.043500
0.484600	-2.951967
0.484700	-3.068168
0.484800	-3.359645
0.484900	-3.541088
0.485000	-3.439818
0.485100	-3.152885
0.485200	-2.949046
0.485300	-3.034736
0.485400	-3.276227
0.485500	-3.515771
0.485600	-3.563809
0.485700	-3.422939
0.485800	-3.318098
0.485900	-3.278824
0.486000	-3.338872
0.486100	-3.376524
0.486200	-3.370032
0.486300	-3.360294
0.486400	-3.363540
0.486500	-3.317774
0.486600	-3.269086
0.486700	-3.177553
0.486800	-3.047720
0.486900	-2.971767
0.487000	-2.970144
0.487100	-2.979881
0.487200	-2.970793
0.487300	-2.808501
0.487400	-2.634524
0.487500	-2.398552
0.487600	-2.359277
0.487700	-2.374208
0.487800	-2.382972
0.487900	-2.259306
0.488000	-2.171344
0.488100	-2.067802
0.488200	-1.957443
0.488300	-1.979515
0.488400	-1.929854
0.488500	-1.944135
0.488600	-1.952575
0.488700	-1.956145
0.488800	-1.963935
0.488900	-1.887333
0.489000	-1.889281
0.489100	-1.877271
0.489200	-1.890579
0.489300	-1.931801
0.489400	-1.947381
0.489500	-1.936995
0.489600	-1.629939
0.489700	-1.343333
0.489800	-1.107037
0.489900	-1.382283
0.490000	-1.801644
0.490100	-1.941539
0.490200	-1.683820
0.490300	-1.364756
0.490400	-1.133004
0.490500	-1.214474
0.490600	-1.443954
0.490700	-1.590016
0.490800	-1.501405
0.490900	-1.266407
0.491000	-1.104765
0.491100	-1.116775
0.491200	-1.111581
0.491300	-1.208631
0.491400	-1.164813
0.491500	-1.126188
0.491600	-1.088211
0.491700	-1.108011
0.491800	-1.155400
0.491900	-1.114827
0.492000	-1.067114
0.492100	-1.160918
0.492200	-1.204736
0.492300	-1.329376
0.492400	-1.282636
0.492500	-1.246283
0.492600	-1.089834
0.492700	-1.048612
0.492800	-1.237195
0.492900	-1.562751
0.493000	-1.512441
0.493100	-1.364756
0.493200	-1.026865
0.493300	-1.035954
0.493400	-1.232651
0.493500	-1.572488
0.493600	-1.648116
0.493700	-1.465701
0.493800	-1.212851
0.493900	-1.154751
0.494000	-1.357939
0.494100	-1.525424
0.494200	-1.551066
0.494300	-1.555610
0.494400	-1.494588
0.494500	-1.518283
0.494600	-1.606245
0.494700	-1.708813
0.494800	-1.760097
0.494900	-1.687391
0.495000	-1.728937
0.495100	-1.794827
0.495200	-1.841243
0.495300	-1.859095
0.495400	-1.818197
0.495500	-1.831505
0.495600	-1.923362
0.495700	-2.111945
0.495800	-2.162904
0.495900	-2.128174
0.496000	-2.099611
0.496100	-2.057740
0.496200	-2.105778
0.496300	-2.108050
0.496400	-2.136289
0.496500	-2.180757
0.496600	-2.188547
0.496700	-2.196986
0.496800	-2.228470
0.496900	-2.258007
0.497000	-2.263201
0.497100	-2.304747
0.497200	-2.288194
0.497300	-2.357654
0.497400	-2.349540
0.497500	-2.431010
0.497600	-2.431335
0.497700	-2.493979
0.497800	-2.553378
0.497900	-2.640367
0.498000	-3.019481
0.498100	-3.278824
0.498200	-3.268762
0.498300	-2.933141
0.498400	-2.734821
0.498500	-2.845504
0.498600	-3.226890
0.498700	-3.620287
0.498800	-3.647552
0.498900	-3.475197
0.499000	-3.244093
0.499100	-3.217477
0.499200	-3.457994
0.499300	-3.711820
0.499400	-3.816012
0.499500	-3.736488
0.499600	-3.670922
0.499700	-3.668001
0.499800	-3.761482
0.499900	-3.815687
0.500000	-3.840031
0.500100	-3.806274
0.500200	-3.783878
0.500300	-3.857234
0.500400	-3.899106
0.500500	-3.941627
0.500600	-3.940653
0.500700	-3.874113
0.500800	-3.931240
0.500900	-3.986095
0.501000	-4.007517
0.501100	-3.835162
0.501200	-3.649500
0.501300	-3.643657
0.501400	-3.835162
0.501500	-4.139949
0.501600	-4.281144
0.501700	-4.073733
0.501800	-3.821205
0.501900	-3.684230
0.502000	-3.837759
0.502100	-4.126965
0.502200	-4.322366
0.502300	-4.276924
0.502400	-4.057504
0.502500	-3.918256
0.502600	-3.914361
0.502700	-4.002973
0.502800	-4.066917
0.502900	-4.027317
0.503000	-3.978629
0.503100	-3.891965
0.503200	-3.813091
0.503300	-3.766999
0.503400	-3.620612
0.503500	-3.499217
0.503600	-3.398595
0.503700	-3.333354
0.503800	-3.319072
0.503900	-3.239224
0.504000	-3.033762
0.504100	-2.897437
0.504200	-2.569283
0.504300	-2.589732
0.504400	-2.528385
0.504500	-2.492357
0.504600	-2.366094
0.504700	-2.244050
0.504800	-2.086627
0.504900	-2.004183
0.505000	-1.996718
0.505100	-1.998341
0.505200	-1.988279
0.505300	-1.970427
0.505400	-1.960365
0.505500	-1.899668
0.505600	-1.850006
0.505700	-1.864613
0.505800	-1.829558
0.505900	-1.890255
0.506000	-1.841567
0.506100	-1.920116
0.506200	-1.805214
0.506300	-1.531591
0.506400	-1.100546
0.506500	-1.040173
0.506600	-1.469271
0.506700	-1.735429
0.506800	-1.776002
0.506900	-1.385204
0.507000	-1.112555
0.507100	-0.894436
0.507200	-1.132355
0.507300	-1.272574
0.507400	-1.312173
0.507500	-1.161567
0.507600	-0.852565
0.507700	-0.713644
0.507800	-0.742532
0.507900	-0.780183
0.508000	-0.796737
0.508100	-0.792517
0.508200	-0.769796
0.508300	-0.685081
0.508400	-0.661386
0.508500	-0.694818
0.508600	-0.689625
0.508700	-0.729548
0.508800	-0.801930
0.508900	-0.913262
0.509000	-0.898006
0.509100	-0.998951
0.509200	-0.842827
0.509300	-0.853539
0.509400	-0.750971
0.509500	-1.098598
0.509600	-1.261214
0.509700	-1.209281
0.509800	-1.010312
0.509900	-0.740909
0.510000	-0.834064
0.510100	-1.093080
0.510200	-1.397538
0.510300	-1.381958
0.510400	-1.231028
0.510500	-1.018102
0.510600	-1.007715
0.510700	-1.191104
0.510800	-1.353720
0.510900	-1.367677
0.511000	-1.389424
0.511100	-1.306331
0.511200	-1.354693
0.511300	-1.387152
0.511400	-1.501729
0.511500	-1.516011
0.511600	-1.534512
0.511700	-1.571515
0.511800	-1.661099
0.511900	-1.666293
0.512000	-1.667266
0.512100	-1.672135
0.512200	-1.720498
0.512300	-1.929529
0.512400	-2.035019
0.512500	-2.058064
0.512600	-2.082083
0.512700	-1.984059
0.512800	-2.071697
0.512900	-2.121033
0.513000	-2.137912
0.513100	-2.174589
0.513200	-2.177511
0.513300	-2.209969
0.513400	-2.233664
0.513500	-2.291439
0.513600	-2.314809
0.513700	-2.337855
0.513800	-2.386218
0.513900	-2.438800
0.514000	-2.481970
0.514100	-2.547211
0.514200	-2.525139
0.514300	-2.619269
0.514400	-2.654973
0.514500	-2.754620
0.514600	-2.895165
0.514700	-3.339196
0.514800	-3.504410
0.514900	-3.324590
0.515000	-3.010068
0.515100	-2.914640
0.515200	-3.106145
0.515300	-3.482014
0.515400	-3.739085
0.515500	-3.677089
0.515600	-3.458968
0.515700	-3.273306
0.515800	-3.344065
0.515900	-3.560239
0.516000	-3.754990
0.516100	-3.820556
0.516200	-3.703705
0.516300	-3.622559
0.516400	-3.628726
0.516500	-3.716040
0.516600	-3.753367
0.516700	-3.746875
0.516800	-3.724154
0.516900	-3.711820
0.517000	-3.714092
0.517100	-3.766675
0.517200	-3.717338
0.517300	-3.701433
0.517400	-3.655991
0.517500	-3.712794
0.517600	-3.698512
0.517700	-3.678388
0.517800	-3.394700
0.517900	-3.270060
0.518000	-3.352504
0.518100	-3.591074
0.518200	-3.782580
0.518300	-3.805950
0.518400	-3.512525
0.518500	-3.229811
0.518600	-3.229162
0.518700	-3.475847
0.518800	-3.707925
0.518900	-3.763429
0.519000	-3.613146
0.519100	-3.446634
0.519200	-3.365812
0.519300	-3.403140
0.519400	-3.461565
0.519500	-3.483961
0.519600	-3.437546
0.519700	-3.421966
0.519800	-3.351531
0.519900	-3.266814
0.520000	-3.167816
0.520100	-3.002278
0.520200	-2.867900
0.520300	-2.839012
0.520400	-2.805255
0.520500	-2.771823
0.520600	-2.608233
0.520700	-2.371936
0.520800	-2.173291
0.520900	-2.027553
0.521000	-2.052222
0.521100	-1.988603
0.521200	-1.905835
0.521300	-1.783142
0.521400	-1.673433
0.521500	-1.566970
0.521600	-1.481281
0.521700	-1.450770
0.521800	-1.473166
0.521900	-1.475763
0.522000	-1.493615
0.522100	-1.466025
0.522200	-1.453367
0.522300	-1.368651
0.522400	-1.416040
0.522500	-1.358264
0.522600	-1.500431
0.522700	-1.461806
0.522800	-1.553338
0.522900	-1.402732
0.523000	-1.103142
0.523100	-0.938255
0.523200	-0.947343
0.523300	-1.416364
0.523400	-1.614684
0.523500	-1.472192
0.523600	-1.194025
0.523700	-0.949290
0.523800	-0.973634
0.523900	-1.128784
0.524000	-1.352097
0.524100	-1.309252
0.524200	-1.144689
0.524300	-0.948966
0.524400	-0.982722
0.524500	-1.012259
0.524600	-1.024269
0.524700	-1.070359
0.524800	-1.054779
0.524900	-1.004469
0.525000	-0.989863
0.525100	-0.998951
0.525200	-1.027190
0.525300	-1.058999
0.525400	-1.166760
0.525500	-1.202464
0.525600	-1.317367
0.525700	-1.345930
0.525800	-1.325156
0.525900	-1.245958
0.526000	-1.240765
0.526100	-1.320937
0.526200	-1.741596
0.526300	-1.809758
0.526400	-1.717901
0.526500	-1.395591
0.526600	-1.360211
0.526700	-1.491992
0.526800	-1.870131
0.526900	-2.057090
0.527000	-1.952250
0.527100	-1.669214
0.527200	-1.539381
0.527300	-1.639352
0.527400	-1.850006
0.527500	-1.954847
0.527600	-1.944460
0.527700	-1.919143
0.527800	-1.862016
0.527900	-1.943162
0.528000	-2.018465
0.528100	-2.081759
0.528200	-2.015868
0.528300	-2.008727
0.528400	-2.028527
0.528500	-2.077215
0.528600	-2.048327
0.528700	-1.970751
0.528800	-1.912002
0.528900	-1.960689
0.529000	-2.153492
0.529100	-2.212566
0.529200	-2.190169
0.529300	-2.126227
0.529400	-2.050274
0.529500	-2.115515
0.529600	-2.120059
0.529700	-2.122981
0.529800	-2.149921
0.529900	-2.137262
0.530000	-2.177186
0.530100	-2.215811
0.530200	-2.238208
0.530300	-2.250866
0.530400	-2.262551
0.530500	-2.313186
0.530600	-2.313836
0.530700	-2.367716
0.530800	-2.388490
0.530900	-2.449511
0.531000	-2.490409
0.531100	-2.519297
0.531200	-2.598171
0.531300	-2.880559
0.531400	-3.214231
0.531500	-3.275253
0.531600	-2.992540
0.531700	-2.768902
0.531800	-2.702362
0.531900	-3.061677
0.532000	-3.358347
0.532100	-3.571924
0.532200	-3.405087
0.532300	-3.212608
0.532400	-3.075958
0.532500	-3.220074
0.532600	-3.436572
0.532700	-3.647228
0.532800	-3.656640
0.532900	-3.543036
0.533000	-3.464486
0.533100	-3.506358
0.533200	-3.571924
0.533300	-3.618664
0.533400	-3.642359
0.533500	-3.652096
0.533600	-3.652096
0.533700	-3.697863
0.533800	-3.748174
0.533900	-3.787124
0.534000	-3.728049
0.534100	-3.777386
0.534200	-3.835162
0.534300	-3.876709
0.534400	-3.754016
0.534500	-3.503112
0.534600	-3.437546
0.534700	-3.599838
0.534800	-3.929941
0.534900	-4.012062
0.535000	-3.941302
0.535100	-3.633270
0.535200	-3.428133
0.535300	-3.504410
0.535400	-3.777062
0.535500	-4.012062
0.535600	-4.019203
0.535700	-3.858533
0.535800	-3.680660
0.535900	-3.603084
0.536000	-3.618664
0.536100	-3.678063
0.536200	-3.716364
0.536300	-3.698187
0.536400	-3.653070
0.536500	-3.558616
0.536600	-3.435923
0.536700	-3.247014
0.536800	-3.113286
0.536900	-3.056483
0.537000	-3.032139
0.537100	-2.996435
0.537200	-2.973714
0.537300	-2.776692
0.537400	-2.624137
0.537500	-2.527736
0.537600	-2.353110
0.537700	-2.373559
0.537800	-2.322599
0.537900	-2.217759
0.538000	-2.113892
0.538100	-1.966207
0.538200	-1.876298
0.538300	-1.863639
0.538400	-1.891878
0.538500	-1.894799
0.538600	-1.929205
0.538700	-1.915572
0.538800	-1.937644
0.538900	-1.806512
0.539000	-1.882465
0.539100	-1.778923
0.539200	-1.894799
0.539300	-1.895123
0.539400	-2.043133
0.539500	-1.908431
0.539600	-1.754904
0.539700	-1.326779
0.539800	-1.230378
0.539900	-1.473815
0.540000	-1.848384
0.540100	-1.962637
0.540200	-1.702646
0.540300	-1.464727
0.540400	-1.233949
0.540500	-1.295944
0.540600	-1.501729
0.540700	-1.562751
0.540800	-1.554961
0.540900	-1.265433
0.541000	-1.197271
0.541100	-1.050235
0.541200	-1.187534
0.541300	-1.178121
0.541400	-1.232001
0.541500	-1.144040
0.541600	-1.134302
0.541700	-1.096326
0.541800	-1.080097
0.541900	-1.073605
0.542000	-1.069061
0.542100	-1.068412
0.542200	-1.199219
0.542300	-1.354369
0.542400	-1.338140
0.542500	-1.361510
0.542600	-1.186235
0.542700	-1.311199
0.542800	-1.445252
0.542900	-1.830532
0.543000	-1.755228
0.543100	-1.571515
0.543200	-1.297892
0.543300	-1.370598
0.543400	-1.576059
0.543500	-1.927906
0.543600	-1.981138
0.543700	-1.858121
0.543800	-1.643896
0.543900	-1.556584
0.544000	-1.724718
0.544100	-1.831830
0.544200	-1.858770
0.544300	-1.896097
0.544400	-1.853252
0.544500	-1.879544
0.544600	-1.891228
0.544700	-1.931477
0.544800	-1.964584
0.544900	-1.953224
0.545000	-1.960689
0.545100	-2.006131
0.545200	-1.994446
0.545300	-1.912326
0.545400	-1.861691
0.545500	-1.812679
0.545600	-1.900641
0.545700	-2.013272
0.545800	-2.015868
0.545900	-1.988928
0.546000	-1.796775
0.546100	-1.814952
0.546200	-1.836049
0.546300	-1.793529
0.546400	-1.779247
0.546500	-1.764317
0.546600	-1.755877
0.546700	-1.715629
0.546800	-1.703295
0.546900	-1.707515
0.547000	-1.736078
0.547100	-1.723744
0.547200	-1.734455
0.547300	-1.807162
0.547400	-1.783467
0.547500	-1.857472
0.547600	-1.866560
0.547700	-1.975295
0.547800	-1.976594
0.547900	-2.142456
0.548000	-2.455029
0.548100	-2.785456
0.548200	-2.709178
0.548300	-2.440099
0.548400	-2.271640
0.548500	-2.438800
0.548600	-2.782859
0.548700	-3.123023
0.548800	-3.197678
0.548900	-3.020779
0.549000	-2.833169
0.549100	-2.843881
0.549200	-3.003901
0.549300	-3.282394
0.549400	-3.396972
0.549500	-3.380743
0.549600	-3.251559
0.549700	-3.256427
0.549800	-3.321344
0.549900	-3.314203
0.550000	-3.335626
0.550100	-3.324915
0.550200	-3.312256
0.550300	-3.298299
0.550400	-3.411254
0.550500	-3.421316
0.550600	-3.351855
0.550700	-3.277850
0.550800	-3.329783
0.550900	-3.360944
0.551000	-3.373602
0.551100	-3.193133
0.551200	-2.947748
0.551300	-2.999032
0.551400	-3.227215
0.551500	-3.501489
0.551600	-3.501813
0.551700	-3.332705
0.551800	-3.041552
0.551900	-2.960406
0.552000	-3.162622
0.552100	-3.426834
0.552200	-3.652421
0.552300	-3.588802
0.552400	-3.407359
0.552500	-3.313230
0.552600	-3.315502
0.552700	-3.363865
0.552800	-3.418070
0.552900	-3.434949
0.553000	-3.440467
0.553100	-3.392753
0.553200	-3.340495
0.553300	-3.243444
0.553400	-3.079529
0.553500	-2.986049
0.553600	-2.950020
0.553700	-2.942230
0.553800	-2.934764
0.553900	-2.906850
0.554000	-2.737093
0.554100	-2.690353
0.554200	-2.427764
0.554300	-2.418351
0.554400	-2.423220
0.554500	-2.404070
0.554600	-2.291439
0.554700	-2.218408
0.554800	-2.064880
0.554900	-1.972050
0.555000	-1.975620
0.555100	-2.013272
0.555200	-2.016842
0.555300	-2.022685
0.555400	-2.026580
0.555500	-1.998341
0.555600	-1.975945
0.555700	-1.949004
0.555800	-1.934073
0.555900	-1.947381
0.556000	-2.008078
0.556100	-1.993472
0.556200	-1.948680
0.556300	-1.597806
0.556400	-1.419935
0.556500	-1.292049
0.556600	-1.761395
0.556700	-1.977568
0.556800	-1.831505
0.556900	-1.604297
0.557000	-1.295295
0.557100	-1.242063
0.557200	-1.356316
0.557300	-1.578331
0.557400	-1.608842
0.557500	-1.461481
0.557600	-1.249204
0.557700	-1.053481
0.557800	-1.064842
0.557900	-0.981099
0.558000	-1.106388
0.558100	-1.038550
0.558200	-1.065166
0.558300	-0.977529
0.558400	-0.951238
0.558500	-0.949939
0.558600	-0.937281
0.558700	-0.877558
0.558800	-0.940527
0.558900	-1.071009
0.559000	-1.152479
0.559100	-1.120345
0.559200	-0.997653
0.559300	-1.031410
0.559400	-1.007715
0.559500	-1.368651
0.559600	-1.563075
0.559700	-1.481605
0.559800	-1.257643
0.559900	-1.046990
0.560000	-1.193376
0.560100	-1.365405
0.560200	-1.675056
0.560300	-1.672135
0.560400	-1.550092
0.560500	-1.379362
0.560600	-1.360536
0.560700	-1.504651
0.560800	-1.626044
0.560900	-1.651362
0.561000	-1.706865
0.561100	-1.619553
0.561200	-1.720498
0.561300	-1.735753
0.561400	-1.820145
0.561500	-1.856498
0.561600	-1.850006
0.561700	-1.900641
0.561800	-1.935696
0.561900	-1.912326
0.562000	-1.865586
0.562100	-1.827610
0.562200	-1.817548
0.562300	-1.982112
0.562400	-2.068126
0.562500	-2.070398
0.562600	-1.962637
0.562700	-1.923362
0.562800	-1.961988
0.562900	-1.987630
0.563000	-2.001911
0.563100	-2.006780
0.563200	-1.998016
0.563300	-2.013596
0.563400	-2.016193
0.563500	-2.058389
0.563600	-2.059687
0.563700	-2.095067
0.563800	-2.082083
0.563900	-2.074942
0.564000	-2.093444
0.564100	-2.097988
0.564200	-2.124279
0.564300	-2.166475
0.564400	-2.199258
0.564500	-2.263201
0.564600	-2.461846
0.564700	-2.801036
0.564800	-2.933790
0.564900	-2.730276
0.565000	-2.444643
0.565100	-2.364471
0.565200	-2.614725
0.565300	-2.942879
0.565400	-3.156780
0.565500	-3.126269
0.565600	-2.921781
0.565700	-2.788701
0.565800	-2.814344
0.565900	-2.999032
0.566000	-3.197353
0.566100	-3.274279
0.566200	-3.285640
0.566300	-3.205792
0.566400	-3.185343
0.566500	-3.248962
0.566600	-3.301545
0.566700	-3.340170
0.566800	-3.323292
0.566900	-3.321669
0.567000	-3.457021
0.567100	-3.508954
0.567200	-3.485260
0.567300	-3.405736
0.567400	-3.472925
0.567500	-3.560563
0.567600	-3.599838
0.567700	-3.562511
0.567800	-3.346013
0.567900	-3.197028
0.568000	-3.402815
0.568100	-3.685204
0.568200	-3.896185
0.568300	-3.848470
0.568400	-3.662158
0.568500	-3.524859
0.568600	-3.501164
0.568700	-3.679037
0.568800	-3.865998
0.568900	-3.970515
0.569000	-3.989990
0.569100	-3.838733
0.569200	-3.734541
0.569300	-3.700135
0.569400	-3.737462
0.569500	-3.775439
0.569600	-3.752393
0.569700	-3.747524
0.569800	-3.666378
0.569900	-3.609251
0.570000	-3.474224
0.570100	-3.311282
0.570200	-3.222671
0.570300	-3.165868
0.570400	-3.131787
0.570500	-3.165219
0.570600	-3.029867
0.570700	-2.815642
0.570800	-2.737742
0.570900	-2.425492
0.571000	-2.424843
0.571100	-2.345320
0.571200	-2.257683
0.571300	-2.098312
0.571400	-1.962961
0.571500	-1.852279
0.571600	-1.737701
0.571700	-1.688364
0.571800	-1.652660
0.571900	-1.606894
0.572000	-1.618254
0.572100	-1.558207
0.572200	-1.511142
0.572300	-1.454665
0.572400	-1.413118
0.572500	-1.416364
0.572600	-1.417013
0.572700	-1.492966
0.572800	-1.386503
0.572900	-1.254722
0.573000	-0.970388
0.573100	-0.745453
0.573200	-0.946044
0.573300	-1.271925
0.573400	-1.472841
0.573500	-1.217071
0.573600	-0.965195
0.573700	-0.659763
0.573800	-0.655219
0.573900	-0.821080
0.574000	-1.003496
0.574100	-1.006092
0.574200	-0.854188
0.574300	-0.643209
0.574400	-0.524088
0.574500	-0.529930
0.574600	-0.537396
0.574700	-0.552651
0.574800	-0.479945
0.574900	-0.418923
0.575000	-0.410160
0.575100	-0.449759
0.575200	-0.501043
0.575300	-0.431258
0.575400	-0.449434
0.575500	-0.564012
0.575600	-0.669825
0.575700	-0.652298
0.575800	-0.600040
0.575900	-0.503964
0.576000	-0.615620
0.576100	-0.685081
0.576200	-1.086913
0.576300	-1.088861
0.576400	-1.036927
0.576500	-0.716565
0.576600	-0.772718
0.576700	-0.897682
0.576800	-1.180393
0.576900	-1.277767
0.577000	-1.283285
0.577100	-1.166111
0.577200	-1.102493
0.577300	-1.121319
0.577400	-1.244335
0.577500	-1.337166
0.577600	-1.371572
0.577700	-1.397863
0.577800	-1.320937
0.577900	-1.341061
0.578000	-1.413767
0.578100	-1.513414
0.578200	-1.539381
0.578300	-1.501729
0.578400	-1.519906
0.578500	-1.513414
0.578600	-1.476412
0.578700	-1.449472
0.578800	-1.408574
0.578900	-1.424803
0.579000	-1.587744
0.579100	-1.590016
0.579200	-1.590989
0.579300	-1.393319
0.579400	-1.400135
0.579500	-1.465376
0.579600	-1.459534
0.579700	-1.474464
0.579800	-1.476412
0.579900	-1.484202
0.580000	-1.498159
0.580100	-1.512441
0.580200	-1.579954
0.580300	-1.596183
0.580400	-1.626044
0.580500	-1.674407
0.580600	-1.714006
0.580700	-1.746465
0.580800	-1.783467
0.580900	-1.813004
0.581000	-1.923362
0.581100	-1.988279
0.581200	-2.061635
0.581300	-2.359926
0.581400	-2.688730
0.581500	-2.705933
0.581600	-2.473206
0.581700	-2.294361
0.581800	-2.268069
0.581900	-2.629331
0.582000	-2.966898
0.582100	-3.129190
0.582200	-3.028894
0.582300	-2.843232
0.582400	-2.763708
0.582500	-2.892568
0.582600	-3.151587
0.582700	-3.333354
0.582800	-3.336275
0.582900	-3.217153
0.583000	-3.194107
0.583100	-3.245391
0.583200	-3.365488
0.583300	-3.416772
0.583400	-3.420667
0.583500	-3.376199
0.583600	-3.406710
0.583700	-3.537842
0.583800	-3.514148
0.583900	-3.473899
0.584000	-3.502787
0.584100	-3.606330
0.584200	-3.636841
0.584300	-3.632297
0.584400	-3.509603
0.584500	-3.331731
0.584600	-3.317449
0.584700	-3.525508
0.584800	-3.852690
0.584900	-3.924099
0.585000	-3.737787
0.585100	-3.516420
0.585200	-3.506033
0.585300	-3.610549
0.585400	-3.796861
0.585500	-3.967918
0.585600	-4.019203
0.585700	-3.972138
0.585800	-3.854638
0.585900	-3.773491
0.586000	-3.800756
0.586100	-3.868270
0.586200	-3.902027
0.586300	-3.888070
0.586400	-3.804002
0.586500	-3.692020
0.586600	-3.594320
0.586700	-3.436896
0.586800	-3.290184
0.586900	-3.258375
0.587000	-3.230136
0.587100	-3.173983
0.587200	-3.142498
0.587300	-2.940282
0.587400	-2.817265
0.587500	-2.628032
0.587600	-2.509884
0.587700	-2.498524
0.587800	-2.459574
0.587900	-2.322924
0.588000	-2.182704
0.588100	-2.035019
0.588200	-1.928231
0.588300	-1.884412
0.588400	-1.904861
0.588500	-1.882140
0.588600	-1.854551
0.588700	-1.838321
0.588800	-1.808135
0.588900	-1.697128
0.589000	-1.706216
0.589100	-1.696803
0.589200	-1.703944
0.589300	-1.737052
0.589400	-1.738025
0.589500	-1.645519
0.589600	-1.417338
0.589700	-1.083018
0.589800	-0.980126
0.589900	-1.123266
0.590000	-1.591314
0.590100	-1.492316
0.590200	-1.342684
0.590300	-1.007715
0.590400	-0.863276
0.590500	-0.878531
0.590600	-1.129109
0.590700	-1.205386
0.590800	-1.108336
0.590900	-0.899305
0.591000	-0.700336
0.591100	-0.642885
0.591200	-0.742532
0.591300	-0.821080
0.591400	-0.849968
0.591500	-0.791219
0.591600	-0.704880
0.591700	-0.700985
0.591800	-0.728899
0.591900	-0.701310
0.592000	-0.667553
0.592100	-0.837959
0.592200	-0.984670
0.592300	-1.005443
0.592400	-0.954484
0.592500	-0.869443
0.592600	-0.855811
0.592700	-0.874961
0.592800	-1.188507
0.592900	-1.384880
0.593000	-1.361510
0.593100	-1.159295
0.593200	-0.972985
0.593300	-1.077176
0.593400	-1.340412
0.593500	-1.565023
0.593600	-1.586770
0.593700	-1.510493
0.593800	-1.405004
0.593900	-1.387801
0.594000	-1.483553
0.594100	-1.604297
0.594200	-1.694856
0.594300	-1.790932
0.594400	-1.761395
0.594500	-1.782493
0.594600	-1.793854
0.594700	-1.895773
0.594800	-2.014245
0.594900	-1.964584
0.595000	-1.925959
0.595100	-1.984708
0.595200	-2.017816
0.595300	-1.990226
0.595400	-1.956470
0.595500	-1.971725
0.595600	-2.102857
0.595700	-2.256709
0.595800	-2.268069
0.595900	-2.265473
0.596000	-2.298256
0.596100	-2.200232
0.596200	-2.250217
0.596300	-2.264824
0.596400	-2.280079
0.596500	-2.261902
0.596600	-2.276184
0.596700	-2.279754
0.596800	-2.285272
0.596900	-2.292738
0.597000	-2.293387
0.597100	-2.307019
0.597200	-2.317081
0.597300	-2.332337
0.597400	-2.334284
0.597500	-2.315134
0.597600	-2.363821
0.597700	-2.370638
0.597800	-2.421273
0.597900	-2.549808
0.598000	-2.902306
0.598100	-3.130813
0.598200	-3.046746
0.598300	-2.789675
0.598400	-2.547860
0.598500	-2.722486
0.598600	-3.081476
0.598700	-3.374901
0.598800	-3.399569
0.598900	-3.221697
0.599000	-3.043500
0.599100	-3.069791
