LabVIEW Measurement	
Writer_Version	2
Reader_Version	2
Separator	Tab
Decimal_Separator	.
Multi_Headings	Yes
X_Columns	One
Time_Pref	Relative
Operator	as989
Description	Time Domain Data
Date	2021/11/24
Time	13:31:58.1513438224792480469
***End_of_Header***	
	
Channels	1	
Samples	15000	
Date	1903/12/31	
Time	19:00:00	
X_Dimension	Time	
X0	0.0000000000000000E+0	
Delta_X	0.000100	
***End_of_Header***		
X_Value	Untitled	Comment
0.000000	-2.688405	Tare Values:0.000000, 0.000000, 0.000000, 0.000000\0D\0A
0.000100	-2.725408
0.000200	-2.672500
0.000300	-2.551755
0.000400	-2.431984
0.000500	-2.437826
0.000600	-2.470285
0.000700	-2.523192
0.000800	-2.476452
0.000900	-2.430036
0.001000	-2.332012
0.001100	-2.324547
0.001200	-2.324871
0.001300	-2.314809
0.001400	-2.325521
0.001500	-2.330714
0.001600	-2.333635
0.001700	-2.326819
0.001800	-2.329091
0.001900	-2.316108
0.002000	-2.310590
0.002100	-2.349864
0.002200	-2.369664
0.002300	-2.381998
0.002400	-2.372585
0.002500	-2.367392
0.002600	-2.345645
0.002700	-2.330714
0.002800	-2.403096
0.002900	-2.515402
0.003000	-2.555975
0.003100	-2.502419
0.003200	-2.421273
0.003300	-2.425817
0.003400	-2.490084
0.003500	-2.617970
0.003600	-2.627059
0.003700	-2.566037
0.003800	-2.486189
0.003900	-2.473531
0.004000	-2.521244
0.004100	-2.606285
0.004200	-2.614400
0.004300	-2.630305
0.004400	-2.598495
0.004500	-2.602715
0.004600	-2.639393
0.004700	-2.677694
0.004800	-2.693274
0.004900	-2.707231
0.005000	-2.710152
0.005100	-2.751050
0.005200	-2.769226
0.005300	-2.780911
0.005400	-2.783184
0.005500	-2.797465
0.005600	-2.856864
0.005700	-2.911719
0.005800	-2.933790
0.005900	-2.949371
0.006000	-2.961380
0.006100	-2.952292
0.006200	-2.964301
0.006300	-2.971118
0.006400	-2.965275
0.006500	-2.975986
0.006600	-2.986698
0.006700	-2.997084
0.006800	-2.984426
0.006900	-2.986049
0.007000	-3.009743
0.007100	-3.029543
0.007200	-3.029867
0.007300	-3.050965
0.007400	-3.058755
0.007500	-3.062650
0.007600	-3.096407
0.007700	-3.115233
0.007800	-3.148341
0.007900	-3.182747
0.008000	-3.322967
0.008100	-3.438844
0.008200	-3.456047
0.008300	-3.415474
0.008400	-3.340495
0.008500	-3.385937
0.008600	-3.517069
0.008700	-3.663457
0.008800	-3.728374
0.008900	-3.705004
0.009000	-3.645929
0.009100	-3.638788
0.009200	-3.728374
0.009300	-3.810494
0.009400	-3.894237
0.009500	-3.922476
0.009600	-3.912414
0.009700	-3.895211
0.009800	-3.916958
0.009900	-3.959803
0.010000	-3.993236
0.010100	-4.015632
0.010200	-4.024396
0.010300	-4.042573
0.010400	-4.051661
0.010500	-4.075680
0.010600	-4.108464
0.010700	-4.098726
0.010800	-4.126965
0.010900	-4.152283
0.011000	-4.137027
0.011100	-4.072110
0.011200	-3.967593
0.011300	-3.949092
0.011400	-4.007842
0.011500	-4.094182
0.011600	-4.136703
0.011700	-4.070487
0.011800	-3.951689
0.011900	-3.910791
0.012000	-3.967269
0.012100	-4.069189
0.012200	-4.148388
0.012300	-4.129237
0.012400	-4.088339
0.012500	-4.066592
0.012600	-4.096779
0.012700	-4.149037
0.012800	-4.181820
0.012900	-4.187663
0.013000	-4.200322
0.013100	-4.209410
0.013200	-4.205515
0.013300	-4.209085
0.013400	-4.166565
0.013500	-4.132158
0.013600	-4.109762
0.013700	-4.092884
0.013800	-4.116903
0.013900	-4.065943
0.014000	-3.992586
0.014100	-3.942925
0.014200	-3.849769
0.014300	-3.849444
0.014400	-3.827372
0.014500	-3.804002
0.014600	-3.786150
0.014700	-3.754990
0.014800	-3.712145
0.014900	-3.693319
0.015000	-3.700784
0.015100	-3.688450
0.015200	-3.704030
0.015300	-3.705004
0.015400	-3.741682
0.015500	-3.723830
0.015600	-3.726751
0.015700	-3.730971
0.015800	-3.748823
0.015900	-3.754665
0.016000	-3.781930
0.016100	-3.795563
0.016200	-3.748498
0.016300	-3.696240
0.016400	-3.535895
0.016500	-3.494997
0.016600	-3.581012
0.016700	-3.671247
0.016800	-3.720259
0.016900	-3.603084
0.017000	-3.530377
0.017100	-3.436247
0.017200	-3.482987
0.017300	-3.524859
0.017400	-3.554396
0.017500	-3.482338
0.017600	-3.375225
0.017700	-3.320370
0.017800	-3.314528
0.017900	-3.326862
0.018000	-3.326862
0.018100	-3.343091
0.018200	-3.304790
0.018300	-3.264217
0.018400	-3.255778
0.018500	-3.243444
0.018600	-3.232408
0.018700	-3.198651
0.018800	-3.255129
0.018900	-3.242146
0.019000	-3.272007
0.019100	-3.259024
0.019200	-3.231434
0.019300	-3.205143
0.019400	-3.181124
0.019500	-3.323292
0.019600	-3.359645
0.019700	-3.356075
0.019800	-3.281420
0.019900	-3.204494
0.020000	-3.197028
0.020100	-3.297650
0.020200	-3.375550
0.020300	-3.359970
0.020400	-3.248637
0.020500	-3.182422
0.020600	-3.170412
0.020700	-3.220398
0.020800	-3.248962
0.020900	-3.261621
0.021000	-3.267463
0.021100	-3.221697
0.021200	-3.228513
0.021300	-3.231434
0.021400	-3.261621
0.021500	-3.267463
0.021600	-3.283692
0.021700	-3.302194
0.021800	-3.299922
0.021900	-3.287263
0.022000	-3.280771
0.022100	-3.272657
0.022200	-3.266489
0.022300	-3.331082
0.022400	-3.368084
0.022500	-3.366462
0.022600	-3.344390
0.022700	-3.285640
0.022800	-3.315177
0.022900	-3.297000
0.023000	-3.294728
0.023100	-3.289535
0.023200	-3.308036
0.023300	-3.303817
0.023400	-3.315502
0.023500	-3.304141
0.023600	-3.329134
0.023700	-3.325564
0.023800	-3.340819
0.023900	-3.343416
0.024000	-3.358671
0.024100	-3.363216
0.024200	-3.373278
0.024300	-3.393727
0.024400	-3.414825
0.024500	-3.442414
0.024600	-3.529079
0.024700	-3.660211
0.024800	-3.764078
0.024900	-3.734866
0.025000	-3.658913
0.025100	-3.589127
0.025200	-3.661509
0.025300	-3.797835
0.025400	-3.938381
0.025500	-3.935459
0.025600	-3.888394
0.025700	-3.846848
0.025800	-3.881254
0.025900	-3.959479
0.026000	-4.058802
0.026100	-4.088989
0.026200	-4.089962
0.026300	-4.067566
0.026400	-4.071136
0.026500	-4.083795
0.026600	-4.102621
0.026700	-4.111710
0.026800	-4.115605
0.026900	-4.133781
0.027000	-4.174679
0.027100	-4.205190
0.027200	-4.218823
0.027300	-4.241869
0.027400	-4.272055
0.027500	-4.304189
0.027600	-4.350280
0.027700	-4.371054
0.027800	-4.333727
0.027900	-4.256800
0.028000	-4.318796
0.028100	-4.437594
0.028200	-4.534321
0.028300	-4.535944
0.028400	-4.486931
0.028500	-4.414549
0.028600	-4.454797
0.028700	-4.554445
0.028800	-4.649874
0.028900	-4.687526
0.029000	-4.653769
0.029100	-4.603458
0.029200	-4.598589
0.029300	-4.608652
0.029400	-4.643707
0.029500	-4.647277
0.029600	-4.625855
0.029700	-4.614819
0.029800	-4.608327
0.029900	-4.605081
0.030000	-4.550226
0.030100	-4.496020
0.030200	-4.438243
0.030300	-4.418444
0.030400	-4.396047
0.030500	-4.408057
0.030600	-4.346385
0.030700	-4.261019
0.030800	-4.204866
0.030900	-4.110087
0.031000	-4.098726
0.031100	-4.068540
0.031200	-4.018229
0.031300	-3.952338
0.031400	-3.881578
0.031500	-3.821205
0.031600	-3.778035
0.031700	-3.769272
0.031800	-3.744279
0.031900	-3.740059
0.032000	-3.752393
0.032100	-3.729348
0.032200	-3.717663
0.032300	-3.728374
0.032400	-3.705004
0.032500	-3.691696
0.032600	-3.693643
0.032700	-3.702732
0.032800	-3.648526
0.032900	-3.622884
0.033000	-3.471627
0.033100	-3.351855
0.033200	-3.332380
0.033300	-3.460916
0.033400	-3.547904
0.033500	-3.523885
0.033600	-3.417746
0.033700	-3.268437
0.033800	-3.212608
0.033900	-3.275253
0.034000	-3.346986
0.034100	-3.374576
0.034200	-3.281745
0.034300	-3.211959
0.034400	-3.128216
0.034500	-3.145095
0.034600	-3.131462
0.034700	-3.148341
0.034800	-3.137954
0.034900	-3.128541
0.035000	-3.099978
0.035100	-3.128216
0.035200	-3.106145
0.035300	-3.095758
0.035400	-3.090240
0.035500	-3.116856
0.035600	-3.154508
0.035700	-3.207740
0.035800	-3.182747
0.035900	-3.188589
0.036000	-3.156780
0.036100	-3.222346
0.036200	-3.365488
0.036300	-3.400218
0.036400	-3.375225
0.036500	-3.280771
0.036600	-3.247014
0.036700	-3.271683
0.036800	-3.395999
0.036900	-3.449880
0.037000	-3.419044
0.037100	-3.337573
0.037200	-3.247664
0.037300	-3.248313
0.037400	-3.325888
0.037500	-3.370357
0.037600	-3.395350
0.037700	-3.379445
0.037800	-3.355750
0.037900	-3.352180
0.038000	-3.387884
0.038100	-3.410280
0.038200	-3.401517
0.038300	-3.387235
0.038400	-3.387235
0.038500	-3.378471
0.038600	-3.384638
0.038700	-3.366786
0.038800	-3.350881
0.038900	-3.357698
0.039000	-3.418070
0.039100	-3.458644
0.039200	-3.454424
0.039300	-3.394700
0.039400	-3.378147
0.039500	-3.386910
0.039600	-3.393402
0.039700	-3.399245
0.039800	-3.400218
0.039900	-3.402490
0.040000	-3.387884
0.040100	-3.397297
0.040200	-3.384638
0.040300	-3.383989
0.040400	-3.380743
0.040500	-3.397297
0.040600	-3.404113
0.040700	-3.433326
0.040800	-3.428782
0.040900	-3.450204
0.041000	-3.454424
0.041100	-3.487856
0.041200	-3.508954
0.041300	-3.623533
0.041400	-3.767649
0.041500	-3.833540
0.041600	-3.791668
0.041700	-3.715066
0.041800	-3.715066
0.041900	-3.858208
0.042000	-4.006868
0.042100	-4.133457
0.042200	-4.105542
0.042300	-4.079251
0.042400	-4.051661
0.042500	-4.105867
0.042600	-4.192207
0.042700	-4.298671
0.042800	-4.330481
0.042900	-4.325936
0.043000	-4.318796
0.043100	-4.326261
0.043200	-4.358720
0.043300	-4.384687
0.043400	-4.399942
0.043500	-4.405136
0.043600	-4.423962
0.043700	-4.454473
0.043800	-4.482063
0.043900	-4.501538
0.044000	-4.492449
0.044100	-4.505108
0.044200	-4.506082
0.044300	-4.533023
0.044400	-4.499915
0.044500	-4.442138
0.044600	-4.408057
0.044700	-4.468755
0.044800	-4.580088
0.044900	-4.654094
0.045000	-4.633645
0.045100	-4.544383
0.045200	-4.453174
0.045300	-4.491151
0.045400	-4.570026
0.045500	-4.681034
0.045600	-4.723880
0.045700	-4.696615
0.045800	-4.635592
0.045900	-4.600537
0.046000	-4.596966
0.046100	-4.646628
0.046200	-4.665130
0.046300	-4.662208
0.046400	-4.646628
0.046500	-4.627802
0.046600	-4.572622
0.046700	-4.512898
0.046800	-4.461289
0.046900	-4.422014
0.047000	-4.391828
0.047100	-4.403513
0.047200	-4.380792
0.047300	-4.295101
0.047400	-4.251282
0.047500	-4.204217
0.047600	-4.145466
0.047700	-4.130536
0.047800	-4.086392
0.047900	-4.043871
0.048000	-3.989665
0.048100	-3.944223
0.048200	-3.897483
0.048300	-3.859506
0.048400	-3.846198
0.048500	-3.830943
0.048600	-3.838408
0.048700	-3.833540
0.048800	-3.843277
0.048900	-3.792642
0.049000	-3.801406
0.049100	-3.774465
0.049200	-3.792317
0.049300	-3.767649
0.049400	-3.785176
0.049500	-3.722531
0.049600	-3.705977
0.049700	-3.537193
0.049800	-3.463188
0.049900	-3.525508
0.050000	-3.651447
0.050100	-3.705653
0.050200	-3.607304
0.050300	-3.494023
0.050400	-3.402490
0.050500	-3.394051
0.050600	-3.478119
0.050700	-3.522262
0.050800	-3.498243
0.050900	-3.421316
0.051000	-3.346986
0.051100	-3.306413
0.051200	-3.296676
0.051300	-3.318748
0.051400	-3.315502
0.051500	-3.290184
0.051600	-3.301220
0.051700	-3.295053
0.051800	-3.257726
0.051900	-3.252208
0.052000	-3.247988
0.052100	-3.240523
0.052200	-3.267463
0.052300	-3.294404
0.052400	-3.321344
0.052500	-3.280122
0.052600	-3.313879
0.052700	-3.265191
0.052800	-3.398595
0.052900	-3.434624
0.053000	-3.473899
0.053100	-3.436572
0.053200	-3.332380
0.053300	-3.333354
0.053400	-3.409631
0.053500	-3.518367
0.053600	-3.562511
0.053700	-3.520315
0.053800	-3.470329
0.053900	-3.420343
0.054000	-3.463837
0.054100	-3.527131
0.054200	-3.535246
0.054300	-3.556019
0.054400	-3.537518
0.054500	-3.545957
0.054600	-3.546606
0.054700	-3.566730
0.054800	-3.577442
0.054900	-3.573222
0.055000	-3.579065
0.055100	-3.612821
0.055200	-3.608602
0.055300	-3.604707
0.055400	-3.537842
0.055500	-3.537193
0.055600	-3.548878
0.055700	-3.590750
0.055800	-3.579389
0.055900	-3.574845
0.056000	-3.506033
0.056100	-3.531675
0.056200	-3.494348
0.056300	-3.469679
0.056400	-3.459617
0.056500	-3.424887
0.056600	-3.403464
0.056700	-3.382042
0.056800	-3.377173
0.056900	-3.355101
0.057000	-3.345363
0.057100	-3.329783
0.057200	-3.317449
0.057300	-3.285965
0.057400	-3.276876
0.057500	-3.258699
0.057600	-3.274604
0.057700	-3.287263
0.057800	-3.299597
0.057900	-3.334328
0.058000	-3.457345
0.058100	-3.612172
0.058200	-3.615743
0.058300	-3.543360
0.058400	-3.468381
0.058500	-3.502138
0.058600	-3.638464
0.058700	-3.773167
0.058800	-3.847172
0.058900	-3.788747
0.059000	-3.704030
0.059100	-3.702732
0.059200	-3.776088
0.059300	-3.844575
0.059400	-3.890667
0.059500	-3.883526
0.059600	-3.864700
0.059700	-3.887421
0.059800	-3.904624
0.059900	-3.926371
0.060000	-3.950715
0.060100	-3.969541
0.060200	-3.984147
0.060300	-4.027966
0.060400	-4.093857
0.060500	-4.125991
0.060600	-4.131834
0.060700	-4.136378
0.060800	-4.162345
0.060900	-4.196102
0.061000	-4.196751
0.061100	-4.170784
0.061200	-4.074382
0.061300	-4.093208
0.061400	-4.184741
0.061500	-4.281468
0.061600	-4.319120
0.061700	-4.273678
0.061800	-4.183443
0.061900	-4.148712
0.062000	-4.205515
0.062100	-4.328533
0.062200	-4.398644
0.062300	-4.402214
0.062400	-4.354175
0.062500	-4.297048
0.062600	-4.293802
0.062700	-4.296399
0.062800	-4.296399
0.062900	-4.272704
0.063000	-4.256475
0.063100	-4.242518
0.063200	-4.244790
0.063300	-4.215577
0.063400	-4.186040
0.063500	-4.125018
0.063600	-4.088015
0.063700	-4.063346
0.063800	-4.049389
0.063900	-3.999727
0.064000	-3.914361
0.064100	-3.834838
0.064200	-3.729348
0.064300	-3.697538
0.064400	-3.665729
0.064500	-3.595294
0.064600	-3.528754
0.064700	-3.466109
0.064800	-3.393402
0.064900	-3.358347
0.065000	-3.326862
0.065100	-3.309335
0.065200	-3.294404
0.065300	-3.307712
0.065400	-3.296676
0.065500	-3.282394
0.065600	-3.252857
0.065700	-3.243769
0.065800	-3.218126
0.065900	-3.234031
0.066000	-3.243769
0.066100	-3.240523
0.066200	-3.218775
0.066300	-3.118154
0.066400	-2.956187
0.066500	-2.931843
0.066600	-3.033438
0.066700	-3.169763
0.066800	-3.182097
0.066900	-3.130164
0.067000	-2.987347
0.067100	-2.937361
0.067200	-2.986049
0.067300	-3.091863
0.067400	-3.159052
0.067500	-3.079853
0.067600	-3.036684
0.067700	-2.942879
0.067800	-3.011691
0.067900	-3.037982
0.068000	-3.101925
0.068100	-3.086670
0.068200	-3.090565
0.068300	-3.082450
0.068400	-3.072713
0.068500	-3.084722
0.068600	-3.098355
0.068700	-3.111987
0.068800	-3.116856
0.068900	-3.156780
0.069000	-3.172684
0.069100	-3.210012
0.069200	-3.184694
0.069300	-3.146069
0.069400	-3.169763
0.069500	-3.256752
0.069600	-3.359321
0.069700	-3.370681
0.069800	-3.331082
0.069900	-3.235329
0.070000	-3.261621
0.070100	-3.342442
0.070200	-3.432352
0.070300	-3.446959
0.070400	-3.353478
0.070500	-3.268112
0.070600	-3.252208
0.070700	-3.323941
0.070800	-3.374252
0.070900	-3.370681
0.071000	-3.343091
0.071100	-3.312905
0.071200	-3.312905
0.071300	-3.327187
0.071400	-3.350232
0.071500	-3.346986
0.071600	-3.334977
0.071700	-3.332380
0.071800	-3.315826
0.071900	-3.299597
0.072000	-3.284017
0.072100	-3.265840
0.072200	-3.252857
0.072300	-3.302843
0.072400	-3.343091
0.072500	-3.361268
0.072600	-3.346337
0.072700	-3.327187
0.072800	-3.341468
0.072900	-3.331731
0.073000	-3.333354
0.073100	-3.331082
0.073200	-3.308685
0.073300	-3.312256
0.073400	-3.329459
0.073500	-3.334003
0.073600	-3.344714
0.073700	-3.347960
0.073800	-3.360294
0.073900	-3.362242
0.074000	-3.344065
0.074100	-3.366462
0.074200	-3.363540
0.074300	-3.375225
0.074400	-3.377822
0.074500	-3.410605
0.074600	-3.450529
0.074700	-3.589776
0.074800	-3.680335
0.074900	-3.655991
0.075000	-3.562186
0.075100	-3.488181
0.075200	-3.565432
0.075300	-3.705977
0.075400	-3.850093
0.075500	-3.866647
0.075600	-3.811143
0.075700	-3.767649
0.075800	-3.777062
0.075900	-3.872814
0.076000	-3.963698
0.076100	-3.999727
0.076200	-3.959479
0.076300	-3.936109
0.076400	-3.944872
0.076500	-3.970839
0.076600	-3.991613
0.076700	-4.010439
0.076800	-4.018229
0.076900	-4.042897
0.077000	-4.065618
0.077100	-4.084120
0.077200	-4.107814
0.077300	-4.118201
0.077400	-4.146116
0.077500	-4.173056
0.077600	-4.196427
0.077700	-4.173056
0.077800	-4.104893
0.077900	-4.071461
0.078000	-4.103919
0.078100	-4.181820
0.078200	-4.275950
0.078300	-4.291206
0.078400	-4.231157
0.078500	-4.149037
0.078600	-4.152607
0.078700	-4.211033
0.078800	-4.311655
0.078900	-4.377870
0.079000	-4.357421
0.079100	-4.321717
0.079200	-4.301268
0.079300	-4.311655
0.079400	-4.317173
0.079500	-4.313278
0.079600	-4.301592
0.079700	-4.293802
0.079800	-4.264590
0.079900	-4.209085
0.080000	-4.137352
0.080100	-4.063022
0.080200	-4.014009
0.080300	-3.981551
0.080400	-3.948767
0.080500	-3.933836
0.080600	-3.856261
0.080700	-3.777711
0.080800	-3.726751
0.080900	-3.630024
0.081000	-3.606330
0.081100	-3.559265
0.081200	-3.484286
0.081300	-3.453775
0.081400	-3.395999
0.081500	-3.336924
0.081600	-3.318748
0.081700	-3.289210
0.081800	-3.317125
0.081900	-3.304466
0.082000	-3.309335
0.082100	-3.285315
0.082200	-3.291158
0.082300	-3.260322
0.082400	-3.257401
0.082500	-3.253506
0.082600	-3.257401
0.082700	-3.286289
0.082800	-3.255129
0.082900	-3.244093
0.083000	-3.083099
0.083100	-3.008769
0.083200	-2.969170
0.083300	-3.101276
0.083400	-3.161324
0.083500	-3.138928
0.083600	-3.064598
0.083700	-2.909447
0.083800	-2.902955
0.083900	-2.945476
0.084000	-3.001629
0.084100	-3.016235
0.084200	-2.908798
0.084300	-2.881532
0.084400	-2.818563
0.084500	-2.863031
0.084600	-2.887700
0.084700	-2.915938
0.084800	-2.885103
0.084900	-2.892244
0.085000	-2.899709
0.085100	-2.913017
0.085200	-2.949695
0.085300	-2.952292
0.085400	-2.988321
0.085500	-2.989944
0.085600	-3.045123
0.085700	-3.082775
0.085800	-3.096083
0.085900	-3.069467
0.086000	-3.070440
0.086100	-3.104846
0.086200	-3.247988
0.086300	-3.274279
0.086400	-3.249286
0.086500	-3.161649
0.086600	-3.140551
0.086700	-3.175606
0.086800	-3.271683
0.086900	-3.310633
0.087000	-3.277201
0.087100	-3.191510
0.087200	-3.138928
0.087300	-3.153209
0.087400	-3.225592
0.087500	-3.251883
0.087600	-3.284991
0.087700	-3.262594
0.087800	-3.271683
0.087900	-3.301220
0.088000	-3.366137
0.088100	-3.421641
0.088200	-3.412877
0.088300	-3.434949
0.088400	-3.476820
0.088500	-3.498568
0.088600	-3.519016
0.088700	-3.514797
0.088800	-3.515446
0.088900	-3.538816
0.089000	-3.622559
0.089100	-3.650473
0.089200	-3.680335
0.089300	-3.635542
0.089400	-3.631323
0.089500	-3.636516
0.089600	-3.641385
0.089700	-3.614120
0.089800	-3.605031
0.089900	-3.595294
0.090000	-3.575819
0.090100	-3.563160
0.090200	-3.541737
0.090300	-3.516744
0.090400	-3.514472
0.090500	-3.501164
0.090600	-3.476820
0.090700	-3.487532
0.090800	-3.440142
0.090900	-3.447608
0.091000	-3.432677
0.091100	-3.452152
0.091200	-3.451827
0.091300	-3.518692
0.091400	-3.643982
0.091500	-3.687476
0.091600	-3.637165
0.091700	-3.516095
0.091800	-3.496945
0.091900	-3.593346
0.092000	-3.751419
0.092100	-3.864051
0.092200	-3.844575
0.092300	-3.798484
0.092400	-3.781281
0.092500	-3.859182
0.092600	-3.946495
0.092700	-4.020825
0.092800	-4.047442
0.092900	-4.033484
0.093000	-4.022448
0.093100	-4.039651
0.093200	-4.077628
0.093300	-4.115929
0.093400	-4.129237
0.093500	-4.140273
0.093600	-4.143844
0.093700	-4.181820
0.093800	-4.212331
0.093900	-4.231482
0.094000	-4.225639
0.094100	-4.250632
0.094200	-4.326586
0.094300	-4.384037
0.094400	-4.375598
0.094500	-4.311005
0.094600	-4.302566
0.094700	-4.353851
0.094800	-4.461614
0.094900	-4.544383
0.095000	-4.539190
0.095100	-4.479466
0.095200	-4.436620
0.095300	-4.469079
0.095400	-4.569701
0.095500	-4.656366
0.095600	-4.673569
0.095700	-4.612871
0.095800	-4.560613
0.095900	-4.554445
0.096000	-4.565806
0.096100	-4.601511
0.096200	-4.585606
0.096300	-4.558016
0.096400	-4.561911
0.096500	-4.526856
0.096600	-4.490177
0.096700	-4.449604
0.096800	-4.383388
0.096900	-4.335999
0.097000	-4.273353
0.097100	-4.232131
0.097200	-4.188961
0.097300	-4.096779
0.097400	-4.040950
0.097500	-3.987069
0.097600	-3.919555
0.097700	-3.888719
0.097800	-3.837435
0.097900	-3.768947
0.098000	-3.729023
0.098100	-3.659562
0.098200	-3.606654
0.098300	-3.579714
0.098400	-3.559914
0.098500	-3.544659
0.098600	-3.519990
0.098700	-3.511876
0.098800	-3.484610
0.098900	-3.503761
0.099000	-3.466434
0.099100	-3.501164
0.099200	-3.466109
0.099300	-3.490778
0.099400	-3.518043
0.099500	-3.507981
0.099600	-3.473574
0.099700	-3.310308
0.099800	-3.272007
0.099900	-3.298299
0.100000	-3.446634
0.100100	-3.487532
0.100200	-3.461889
0.100300	-3.346662
0.100400	-3.278824
0.100500	-3.260322
0.100600	-3.330757
0.100700	-3.391455
0.100800	-3.377822
0.100900	-3.283043
0.101000	-3.220723
0.101100	-3.213907
0.101200	-3.245716
0.101300	-3.267139
0.101400	-3.285965
0.101500	-3.260971
0.101600	-3.235005
0.101700	-3.225916
0.101800	-3.201897
0.101900	-3.220723
0.102000	-3.233706
0.102100	-3.244418
0.102200	-3.257726
0.102300	-3.276552
0.102400	-3.280771
0.102500	-3.290833
0.102600	-3.284666
0.102700	-3.237926
0.102800	-3.307387
0.102900	-3.403140
0.103000	-3.427159
0.103100	-3.395999
0.103200	-3.276876
0.103300	-3.272981
0.103400	-3.334977
0.103500	-3.440791
0.103600	-3.471952
0.103700	-3.399569
0.103800	-3.321020
0.103900	-3.270060
0.104000	-3.309659
0.104100	-3.364189
0.104200	-3.382691
0.104300	-3.398595
0.104400	-3.362566
0.104500	-3.355101
0.104600	-3.379445
0.104700	-3.389507
0.104800	-3.400867
0.104900	-3.388209
0.105000	-3.395350
0.105100	-3.399245
0.105200	-3.408658
0.105300	-3.407359
0.105400	-3.404438
0.105500	-3.393077
0.105600	-3.421641
0.105700	-3.474873
0.105800	-3.484935
0.105900	-3.492400
0.106000	-3.432352
0.106100	-3.450529
0.106200	-3.426834
0.106300	-3.437870
0.106400	-3.433001
0.106500	-3.422615
0.106600	-3.411254
0.106700	-3.396323
0.106800	-3.401841
0.106900	-3.392428
0.107000	-3.391455
0.107100	-3.401841
0.107200	-3.399245
0.107300	-3.413851
0.107400	-3.423913
0.107500	-3.429431
0.107600	-3.441441
0.107700	-3.468057
0.107800	-3.498568
0.107900	-3.541413
0.108000	-3.646578
0.108100	-3.780307
0.108200	-3.815038
0.108300	-3.738761
0.108400	-3.660860
0.108500	-3.656640
0.108600	-3.797511
0.108700	-3.917932
0.108800	-3.949417
0.108900	-3.921178
0.109000	-3.828995
0.109100	-3.830943
0.109200	-3.878332
0.109300	-3.969541
0.109400	-3.992911
0.109500	-3.998754
0.109600	-3.966944
0.109700	-3.944223
0.109800	-3.952662
0.109900	-3.975059
0.110000	-3.999403
0.110100	-4.032186
0.110200	-4.040625
0.110300	-4.073084
0.110400	-4.099051
0.110500	-4.114955
0.110600	-4.119175
0.110700	-4.107814
0.110800	-4.145466
0.110900	-4.174679
0.111000	-4.195777
0.111100	-4.133781
0.111200	-4.065943
0.111300	-4.069189
0.111400	-4.145142
0.111500	-4.242193
0.111600	-4.276275
0.111700	-4.233105
0.111800	-4.149686
0.111900	-4.136053
0.112000	-4.185715
0.112100	-4.288934
0.112200	-4.364887
0.112300	-4.364562
0.112400	-4.298347
0.112500	-4.266537
0.112600	-4.245439
0.112700	-4.256150
0.112800	-4.258422
0.112900	-4.257773
0.113000	-4.255501
0.113100	-4.231157
0.113200	-4.225639
0.113300	-4.157801
0.113400	-4.088989
0.113500	-4.023747
0.113600	-4.019203
0.113700	-3.999078
0.113800	-3.989016
0.113900	-3.952662
0.114000	-3.878332
0.114100	-3.829644
0.114200	-3.754016
0.114300	-3.768622
0.114400	-3.747849
0.114500	-3.700135
0.114600	-3.664431
0.114700	-3.588802
0.114800	-3.535895
0.114900	-3.494023
0.115000	-3.496620
0.115100	-3.470329
0.115200	-3.476496
0.115300	-3.471952
0.115400	-3.464486
0.115500	-3.441116
0.115600	-3.443388
0.115700	-3.428457
0.115800	-3.415798
0.115900	-3.434624
0.116000	-3.424562
0.116100	-3.414825
0.116200	-3.382691
0.116300	-3.270060
0.116400	-3.159701
0.116500	-3.075634
0.116600	-3.217477
0.116700	-3.297000
0.116800	-3.303167
0.116900	-3.200599
0.117000	-3.043825
0.117100	-2.986049
0.117200	-2.972091
0.117300	-3.092837
0.117400	-3.053887
0.117500	-3.028569
0.117600	-2.922105
0.117700	-2.881857
0.117800	-2.863680
0.117900	-2.876015
0.118000	-2.868224
0.118100	-2.861408
0.118200	-2.852969
0.118300	-2.814019
0.118400	-2.823432
0.118500	-2.821809
0.118600	-2.829274
0.118700	-2.796167
0.118800	-2.816940
0.118900	-2.857838
0.119000	-2.884778
0.119100	-2.875365
0.119200	-2.854267
0.119300	-2.822458
0.119400	-2.822458
0.119500	-2.934440
0.119600	-3.014937
0.119700	-3.015586
0.119800	-2.949371
0.119900	-2.849074
0.120000	-2.879585
0.120100	-2.963652
0.120200	-3.076932
0.120300	-3.084073
0.120400	-3.009094
0.120500	-2.933141
0.120600	-2.931518
0.120700	-2.970793
0.120800	-3.048044
0.120900	-3.073362
0.121000	-3.097381
0.121100	-3.069467
0.121200	-3.093161
0.121300	-3.124971
0.121400	-3.146393
0.121500	-3.161649
0.121600	-3.173658
0.121700	-3.210012
0.121800	-3.238251
0.121900	-3.244093
0.122000	-3.247664
0.122100	-3.241172
0.122200	-3.240198
0.122300	-3.315177
0.122400	-3.369707
0.122500	-3.410605
0.122600	-3.371655
0.122700	-3.337898
0.122800	-3.366786
0.122900	-3.371006
0.123000	-3.371655
0.123100	-3.378471
0.123200	-3.378796
0.123300	-3.374252
0.123400	-3.348609
0.123500	-3.356399
0.123600	-3.351206
0.123700	-3.339846
0.123800	-3.336275
0.123900	-3.320370
0.124000	-3.333678
0.124100	-3.316475
0.124200	-3.335301
0.124300	-3.352829
0.124400	-3.358347
0.124500	-3.383340
0.124600	-3.448581
0.124700	-3.556668
0.124800	-3.627103
0.124900	-3.615743
0.125000	-3.516744
0.125100	-3.409631
0.125200	-3.471952
0.125300	-3.631647
0.125400	-3.755639
0.125500	-3.760183
0.125600	-3.690073
0.125700	-3.608926
0.125800	-3.603409
0.125900	-3.683581
0.126000	-3.740059
0.126100	-3.763754
0.126200	-3.738111
0.126300	-3.720584
0.126400	-3.716689
0.126500	-3.723505
0.126600	-3.748174
0.126700	-3.759209
0.126800	-3.757587
0.126900	-3.755639
0.127000	-3.794589
0.127100	-3.803678
0.127200	-3.817959
0.127300	-3.814064
0.127400	-3.821205
0.127500	-3.837759
0.127600	-3.851716
0.127700	-3.836461
0.127800	-3.739734
0.127900	-3.675466
0.128000	-3.708899
0.128100	-3.787448
0.128200	-3.893588
0.128300	-3.906896
0.128400	-3.815363
0.128500	-3.723180
0.128600	-3.715066
0.128700	-3.787124
0.128800	-3.906896
0.128900	-3.970190
0.129000	-3.951040
0.129100	-3.880280
0.129200	-3.856910
0.129300	-3.851067
0.129400	-3.864700
0.129500	-3.872490
0.129600	-3.873788
0.129700	-3.852690
0.129800	-3.836461
0.129900	-3.834513
0.130000	-3.799458
0.130100	-3.744928
0.130200	-3.671571
0.130300	-3.640411
0.130400	-3.640411
0.130500	-3.618664
0.130600	-3.537842
0.130700	-3.446959
0.130800	-3.338872
0.130900	-3.273630
0.131000	-3.261945
0.131100	-3.258050
0.131200	-3.217802
0.131300	-3.196055
0.131400	-3.146069
0.131500	-3.102899
0.131600	-3.065896
0.131700	-3.058106
0.131800	-3.059729
0.131900	-3.056808
0.132000	-3.063624
0.132100	-3.053237
0.132200	-3.054536
0.132300	-3.057132
0.132400	-3.048693
0.132500	-3.047395
0.132600	-3.071414
0.132700	-3.045123
0.132800	-3.048369
0.132900	-3.003251
0.133000	-2.917886
0.133100	-2.782859
0.133200	-2.788701
0.133300	-2.926974
0.133400	-3.020779
0.133500	-3.051615
0.133600	-2.901007
0.133700	-2.799088
0.133800	-2.781885
0.133900	-2.841284
0.134000	-2.935089
0.134100	-2.961380
0.134200	-2.896139
0.134300	-2.828301
0.134400	-2.767928
0.134500	-2.760463
0.134600	-2.773771
0.134700	-2.766954
0.134800	-2.758191
0.134900	-2.722486
0.135000	-2.717293
0.135100	-2.730926
0.135200	-2.711775
0.135300	-2.727680
0.135400	-2.723785
0.135500	-2.763708
0.135600	-2.749427
0.135700	-2.773446
0.135800	-2.761436
0.135900	-2.763059
0.136000	-2.726057
0.136100	-2.744233
0.136200	-2.859461
0.136300	-2.881532
0.136400	-2.858487
0.136500	-2.753646
0.136600	-2.683212
0.136700	-2.734496
0.136800	-2.854917
0.136900	-2.935413
0.137000	-2.911070
0.137100	-2.825055
0.137200	-2.762410
0.137300	-2.772472
0.137400	-2.824081
0.137500	-2.881532
0.137600	-2.914965
0.137700	-2.912043
0.137800	-2.906850
0.137900	-2.921132
0.138000	-2.943203
0.138100	-2.976960
0.138200	-2.966573
0.138300	-2.955538
0.138400	-2.966249
0.138500	-2.996435
0.138600	-2.975986
0.138700	-2.964626
0.138800	-2.939633
0.138900	-2.928597
0.139000	-2.974363
0.139100	-3.014612
0.139200	-3.016559
0.139300	-3.003251
0.139400	-2.974039
0.139500	-2.964301
0.139600	-2.955538
0.139700	-2.937036
0.139800	-2.945800
0.139900	-2.924378
0.140000	-2.924702
0.140100	-2.903929
0.140200	-2.907499
0.140300	-2.919184
0.140400	-2.908473
0.140500	-2.903929
0.140600	-2.891595
0.140700	-2.891595
0.140800	-2.899385
0.140900	-2.882506
0.141000	-2.890945
0.141100	-2.913991
0.141200	-2.935738
0.141300	-3.012664
0.141400	-3.165219
0.141500	-3.206117
0.141600	-3.161324
0.141700	-3.059080
0.141800	-3.051615
0.141900	-3.133410
0.142000	-3.276552
0.142100	-3.379769
0.142200	-3.331082
0.142300	-3.265516
0.142400	-3.211959
0.142500	-3.250585
0.142600	-3.319721
0.142700	-3.385937
0.142800	-3.389507
0.142900	-3.361593
0.143000	-3.360294
0.143100	-3.372629
0.143200	-3.383989
0.143300	-3.406385
0.143400	-3.419693
0.143500	-3.423913
0.143600	-3.438519
0.143700	-3.457345
0.143800	-3.445660
0.143900	-3.457670
0.144000	-3.454424
0.144100	-3.482014
0.144200	-3.501489
0.144300	-3.514472
0.144400	-3.492725
0.144500	-3.392428
0.144600	-3.376524
0.144700	-3.410280
0.144800	-3.530052
0.144900	-3.599513
0.145000	-3.570950
0.145100	-3.477794
0.145200	-3.410930
0.145300	-3.419693
0.145400	-3.495646
0.145500	-3.577766
0.145600	-3.579714
0.145700	-3.548229
0.145800	-3.492400
0.145900	-3.470004
0.146000	-3.469679
0.146100	-3.487532
0.146200	-3.471627
0.146300	-3.454424
0.146400	-3.435273
0.146500	-3.426510
0.146600	-3.382042
0.146700	-3.320695
0.146800	-3.250260
0.146900	-3.199950
0.147000	-3.181124
0.147100	-3.157429
0.147200	-3.124646
0.147300	-3.046421
0.147400	-2.998383
0.147500	-2.961380
0.147600	-2.888024
0.147700	-2.867251
0.147800	-2.833819
0.147900	-2.793570
0.148000	-2.770200
0.148100	-2.698467
0.148200	-2.651078
0.148300	-2.620892
0.148400	-2.599145
0.148500	-2.585187
0.148600	-2.551755
0.148700	-2.570906
0.148800	-2.553703
0.148900	-2.567984
0.149000	-2.538447
0.149100	-2.547211
0.149200	-2.530982
0.149300	-2.551755
0.149400	-2.561817
0.149500	-2.538123
0.149600	-2.524815
0.149700	-2.396280
0.149800	-2.316108
0.149900	-2.379401
0.150000	-2.495602
0.150100	-2.559221
0.150200	-2.505340
0.150300	-2.416079
0.150400	-2.324222
0.150500	-2.348241
0.150600	-2.409912
0.150700	-2.473855
0.150800	-2.442371
0.150900	-2.357654
0.151000	-2.284948
0.151100	-2.237883
0.151200	-2.223277
0.151300	-2.236585
0.151400	-2.238208
0.151500	-2.231391
0.151600	-2.213215
0.151700	-2.177835
0.151800	-2.178809
0.151900	-2.164527
0.152000	-2.147649
0.152100	-2.188222
0.152200	-2.210618
0.152300	-2.229769
0.152400	-2.257358
0.152500	-2.241454
0.152600	-2.208671
0.152700	-2.215487
0.152800	-2.291115
0.152900	-2.410561
0.153000	-2.398227
0.153100	-2.360576
0.153200	-2.239506
0.153300	-2.251516
0.153400	-2.325521
0.153500	-2.434905
0.153600	-2.461521
0.153700	-2.411860
0.153800	-2.330714
0.153900	-2.287220
0.154000	-2.318704
0.154100	-2.390113
0.154200	-2.377129
0.154300	-2.380375
0.154400	-2.334934
0.154500	-2.336556
0.154600	-2.343697
0.154700	-2.369339
0.154800	-2.370962
0.154900	-2.361874
0.155000	-2.349540
0.155100	-2.350838
0.155200	-2.374857
0.155300	-2.382647
0.155400	-2.362523
0.155500	-2.353435
0.155600	-2.392385
0.155700	-2.431659
0.155800	-2.457301
0.155900	-2.440423
0.156000	-2.375506
0.156100	-2.384919
0.156200	-2.360900
0.156300	-2.346294
0.156400	-2.357005
0.156500	-2.347592
0.156600	-2.338829
0.156700	-2.347268
0.156800	-2.333635
0.156900	-2.328117
0.157000	-2.316432
0.157100	-2.337530
0.157200	-2.332661
0.157300	-2.336881
0.157400	-2.343048
0.157500	-2.357979
0.157600	-2.368690
0.157700	-2.386867
0.157800	-2.406017
0.157900	-2.438476
0.158000	-2.545264
0.158100	-2.660491
0.158200	-2.678018
0.158300	-2.576099
0.158400	-2.512805
0.158500	-2.522218
0.158600	-2.663737
0.158700	-2.793570
0.158800	-2.842907
0.158900	-2.773771
0.159000	-2.711126
0.159100	-2.675422
0.159200	-2.721513
0.159300	-2.803632
0.159400	-2.863356
0.159500	-2.846477
0.159600	-2.827327
0.159700	-2.803957
0.159800	-2.833819
0.159900	-2.851995
0.160000	-2.849399
0.160100	-2.856215
0.160200	-2.866277
0.160300	-2.878287
0.160400	-2.913017
0.160500	-2.920158
0.160600	-2.921132
0.160700	-2.931843
0.160800	-2.944502
0.160900	-2.976311
0.161000	-2.986373
0.161100	-2.938010
0.161200	-2.842907
0.161300	-2.841933
0.161400	-2.900034
0.161500	-3.001304
0.161600	-3.056159
0.161700	-2.984426
0.161800	-2.886401
0.161900	-2.858812
0.162000	-2.904253
0.162100	-2.997409
0.162200	-3.065896
0.162300	-3.049992
0.162400	-2.975662
0.162500	-2.902306
0.162600	-2.893867
0.162700	-2.906850
0.162800	-2.922430
0.162900	-2.900034
0.163000	-2.900034
0.163100	-2.846477
0.163200	-2.795518
0.163300	-2.752348
0.163400	-2.701064
0.163500	-2.659517
0.163600	-2.628032
0.163700	-2.618620
0.163800	-2.607584
0.163900	-2.566686
0.164000	-2.478075
0.164100	-2.438800
0.164200	-2.355382
0.164300	-2.332986
0.164400	-2.296308
0.164500	-2.273587
0.164600	-2.238208
0.164700	-2.195363
0.164800	-2.149921
0.164900	-2.136613
0.165000	-2.124604
0.165100	-2.146351
0.165200	-2.136613
0.165300	-2.151869
0.165400	-2.133367
0.165500	-2.167124
0.165600	-2.122007
0.165700	-2.136613
0.165800	-2.112919
0.165900	-2.132718
0.166000	-2.160957
0.166100	-2.154790
0.166200	-2.156413
0.166300	-2.042809
0.166400	-1.942513
0.166500	-1.854551
0.166600	-1.973997
0.166700	-2.085005
0.166800	-2.080136
0.166900	-2.035019
0.167000	-1.890579
0.167100	-1.815276
0.167200	-1.844164
0.167300	-1.919467
0.167400	-1.953548
0.167500	-1.904861
0.167600	-1.823391
0.167700	-1.759772
0.167800	-1.740622
0.167900	-1.772431
0.168000	-1.793529
0.168100	-1.787037
0.168200	-1.782818
0.168300	-1.778923
0.168400	-1.776975
0.168500	-1.790932
0.168600	-1.795477
0.168700	-1.794503
0.168800	-1.825338
0.168900	-1.868508
0.169000	-1.924011
0.169100	-1.934723
0.169200	-1.925310
0.169300	-1.899343
0.169400	-1.957768
0.169500	-2.037940
0.169600	-2.138885
0.169700	-2.122332
0.169800	-2.084680
0.169900	-1.974646
0.170000	-2.001262
0.170100	-2.077539
0.170200	-2.160308
0.170300	-2.155764
0.170400	-2.070074
0.170500	-1.974971
0.170600	-1.950303
0.170700	-1.994770
0.170800	-2.043133
0.170900	-2.049625
0.171000	-2.039563
0.171100	-1.994770
0.171200	-1.996069
0.171300	-1.989253
0.171400	-2.006780
0.171500	-2.007429
0.171600	-1.992174
0.171700	-1.993472
0.171800	-1.972050
0.171900	-1.932451
0.172000	-1.906484
0.172100	-1.884412
0.172200	-1.862665
0.172300	-1.924336
0.172400	-1.949329
0.172500	-1.963610
0.172600	-1.914923
0.172700	-1.904861
0.172800	-1.914923
0.172900	-1.903238
0.173000	-1.901291
0.173100	-1.906808
0.173200	-1.928880
0.173300	-1.912976
0.173400	-1.942837
0.173500	-1.944460
0.173600	-1.953873
0.173700	-1.954847
0.173800	-1.963286
0.173900	-1.939916
0.174000	-1.944460
0.174100	-1.915248
0.174200	-1.921415
0.174300	-1.927906
0.174400	-1.955171
0.174500	-1.970102
0.174600	-2.022360
0.174700	-2.161282
0.174800	-2.250217
0.174900	-2.264499
0.175000	-2.161282
0.175100	-2.120059
0.175200	-2.184002
0.175300	-2.335258
0.175400	-2.468662
0.175500	-2.512156
0.175600	-2.446266
0.175700	-2.399526
0.175800	-2.428738
0.175900	-2.527736
0.176000	-2.629980
0.176100	-2.671202
0.176200	-2.649455
0.176300	-2.641340
0.176400	-2.647183
0.176500	-2.676395
0.176600	-2.709503
0.176700	-2.723785
0.176800	-2.732873
0.176900	-2.750725
0.177000	-2.757866
0.177100	-2.778315
0.177200	-2.791298
0.177300	-2.774095
0.177400	-2.782859
0.177500	-2.784482
0.177600	-2.797465
0.177700	-2.791298
0.177800	-2.718267
0.177900	-2.657894
0.178000	-2.676720
0.178100	-2.763384
0.178200	-2.863356
0.178300	-2.844854
0.178400	-2.778315
0.178500	-2.679317
0.178600	-2.663087
0.178700	-2.733847
0.178800	-2.819861
0.178900	-2.873742
0.179000	-2.816291
0.179100	-2.745207
0.179200	-2.704959
0.179300	-2.690677
0.179400	-2.706906
0.179500	-2.720863
0.179600	-2.696195
0.179700	-2.687756
0.179800	-2.684510
0.179900	-2.660491
0.180000	-2.652052
0.180100	-2.587459
0.180200	-2.540395
0.180300	-2.495278
0.180400	-2.461196
0.180500	-2.468013
0.180600	-2.423220
0.180700	-2.345645
0.180800	-2.309941
0.180900	-2.237883
0.181000	-2.242103
0.181100	-2.225549
0.181200	-2.186924
0.181300	-2.149921
0.181400	-2.093119
0.181500	-2.055792
0.181600	-2.018465
0.181700	-1.999639
0.181800	-1.977568
0.181900	-1.965558
0.182000	-1.964584
0.182100	-1.941539
0.182200	-1.946732
0.182300	-1.937644
0.182400	-1.913300
0.182500	-1.928556
0.182600	-1.898045
0.182700	-1.917195
0.182800	-1.858121
0.182900	-1.846761
0.183000	-1.731858
0.183100	-1.615982
0.183200	-1.602674
0.183300	-1.709462
0.183400	-1.802942
0.183500	-1.758799
0.183600	-1.668565
0.183700	-1.504975
0.183800	-1.465376
0.183900	-1.493939
0.184000	-1.589367
0.184100	-1.567295
0.184200	-1.507572
0.184300	-1.410846
0.184400	-1.371572
0.184500	-1.358264
0.184600	-1.417338
0.184700	-1.397863
0.184800	-1.398188
0.184900	-1.379362
0.185000	-1.391371
0.185100	-1.388450
0.185200	-1.381958
0.185300	-1.363457
0.185400	-1.348851
0.185500	-1.380985
0.185600	-1.416689
0.185700	-1.437787
0.185800	-1.430970
0.185900	-1.432918
0.186000	-1.405328
0.186100	-1.453691
0.186200	-1.564049
0.186300	-1.628316
0.186400	-1.620527
0.186500	-1.547495
0.186600	-1.485825
0.186700	-1.553338
0.186800	-1.662398
0.186900	-1.733806
0.187000	-1.703944
0.187100	-1.624746
0.187200	-1.568269
0.187300	-1.577682
0.187400	-1.651686
0.187500	-1.687391
0.187600	-1.705567
0.187700	-1.665968
0.187800	-1.642598
0.187900	-1.646493
0.188000	-1.670837
0.188100	-1.695181
0.188200	-1.674083
0.188300	-1.655581
0.188400	-1.661749
0.188500	-1.687391
0.188600	-1.661424
0.188700	-1.636756
0.188800	-1.607543
0.188900	-1.622799
0.189000	-1.675706
0.189100	-1.710760
0.189200	-1.730235
0.189300	-1.677978
0.189400	-1.674407
0.189500	-1.702321
0.189600	-1.681873
0.189700	-1.680574
0.189800	-1.687066
0.189900	-1.675056
0.190000	-1.671486
0.190100	-1.679601
0.190200	-1.677653
0.190300	-1.664345
0.190400	-1.650064
0.190500	-1.649739
0.190600	-1.650713
0.190700	-1.648441
0.190800	-1.638703
0.190900	-1.662073
0.191000	-1.686092
0.191100	-1.714006
0.191200	-1.736078
0.191300	-1.812679
0.191400	-1.937644
0.191500	-1.985682
0.191600	-1.912326
0.191700	-1.828259
0.191800	-1.807811
0.191900	-1.919467
0.192000	-2.082083
0.192100	-2.171993
0.192200	-2.173291
0.192300	-2.087601
0.192400	-2.062933
0.192500	-2.113568
0.192600	-2.232041
0.192700	-2.289492
0.192800	-2.321950
0.192900	-2.278456
0.193000	-2.254437
0.193100	-2.274561
0.193200	-2.275859
0.193300	-2.289167
0.193400	-2.312537
0.193500	-2.319029
0.193600	-2.333635
0.193700	-2.335583
0.193800	-2.369989
0.193900	-2.383621
0.194000	-2.396604
0.194100	-2.420299
0.194200	-2.433607
0.194300	-2.449836
0.194400	-2.437826
0.194500	-2.383946
0.194600	-2.347917
0.194700	-2.399201
0.194800	-2.486189
0.194900	-2.578047
0.195000	-2.548834
0.195100	-2.458600
0.195200	-2.399526
0.195300	-2.402447
0.195400	-2.490734
0.195500	-2.606610
0.195600	-2.647832
0.195700	-2.594276
0.195800	-2.529034
0.195900	-2.516700
0.196000	-2.535851
0.196100	-2.557922
0.196200	-2.569607
0.196300	-2.579669
0.196400	-2.555326
0.196500	-2.544614
0.196600	-2.532929
0.196700	-2.479373
0.196800	-2.429063
0.196900	-2.385569
0.197000	-2.367716
0.197100	-2.375831
0.197200	-2.359602
0.197300	-2.310914
0.197400	-2.233014
0.197500	-2.154790
0.197600	-2.113243
0.197700	-2.101883
0.197800	-2.038265
0.197900	-1.985358
0.198000	-1.925310
0.198100	-1.871429
0.198200	-1.809109
0.198300	-1.751009
0.198400	-1.746140
0.198500	-1.718875
0.198600	-1.732183
0.198700	-1.714655
0.198800	-1.714331
0.198900	-1.662398
0.199000	-1.660450
0.199100	-1.607868
0.199200	-1.612087
0.199300	-1.576708
0.199400	-1.590665
0.199500	-1.567944
0.199600	-1.480631
0.199700	-1.354693
0.199800	-1.238493
0.199900	-1.297242
0.200000	-1.415715
0.200100	-1.451744
0.200200	-1.421233
0.200300	-1.297892
0.200400	-1.226159
0.200500	-1.262188
0.200600	-1.341386
0.200700	-1.429997
0.200800	-1.385204
0.200900	-1.348851
0.201000	-1.273548
0.201100	-1.246932
0.201200	-1.257643
0.201300	-1.306980
0.201400	-1.322884
0.201500	-1.314770
0.201600	-1.298865
0.201700	-1.296269
0.201800	-1.268030
0.201900	-1.248230
0.202000	-1.256994
0.202100	-1.304059
0.202200	-1.297567
0.202300	-1.342359
0.202400	-1.351772
0.202500	-1.372221
0.202600	-1.358913
0.202700	-1.363782
0.202800	-1.436488
0.202900	-1.549443
0.203000	-1.567944
0.203100	-1.527696
0.203200	-1.444278
0.203300	-1.426751
0.203400	-1.494588
0.203500	-1.637405
0.203600	-1.693233
0.203700	-1.656555
0.203800	-1.570541
0.203900	-1.530617
0.204000	-1.568918
0.204100	-1.620202
0.204200	-1.646169
0.204300	-1.671161
0.204400	-1.655906
0.204500	-1.655906
0.204600	-1.655906
0.204700	-1.690961
0.204800	-1.716603
0.204900	-1.706216
0.205000	-1.710436
0.205100	-1.694531
0.205200	-1.675381
0.205300	-1.658503
0.205400	-1.621500
0.205500	-1.604297
0.205600	-1.645519
0.205700	-1.696154
0.205800	-1.696479
0.205900	-1.683496
0.206000	-1.611438
0.206100	-1.611763
0.206200	-1.593911
0.206300	-1.583524
0.206400	-1.581252
0.206500	-1.566970
0.206600	-1.552040
0.206700	-1.551390
0.206800	-1.535486
0.206900	-1.531266
0.207000	-1.520555
0.207100	-1.513414
0.207200	-1.503028
0.207300	-1.497510
0.207400	-1.495238
0.207500	-1.496861
0.207600	-1.489071
0.207700	-1.505300
0.207800	-1.539056
0.207900	-1.573787
0.208000	-1.696154
0.208100	-1.808135
0.208200	-1.816574
0.208300	-1.730560
0.208400	-1.640975
0.208500	-1.675056
0.208600	-1.785415
0.208700	-1.927257
0.208800	-2.005482
0.208900	-1.952899
0.209000	-1.890255
0.209100	-1.868183
0.209200	-1.962637
0.209300	-2.064556
0.209400	-2.126551
0.209500	-2.116164
0.209600	-2.110322
0.209700	-2.116164
0.209800	-2.126227
0.209900	-2.151219
0.210000	-2.192442
0.210100	-2.211592
0.210200	-2.253788
0.210300	-2.275210
0.210400	-2.293387
0.210500	-2.306695
0.210600	-2.317081
0.210700	-2.321301
0.210800	-2.362523
0.210900	-2.374208
0.211000	-2.390113
0.211100	-2.332337
0.211200	-2.252489
0.211300	-2.260604
0.211400	-2.326494
0.211500	-2.446915
0.211600	-2.495927
0.211700	-2.456652
0.211800	-2.358304
0.211900	-2.321626
0.212000	-2.370313
0.212100	-2.468337
0.212200	-2.562791
0.212300	-2.539746
0.212400	-2.491058
0.212500	-2.446590
0.212600	-2.424519
0.212700	-2.441072
0.212800	-2.422246
0.212900	-2.421273
0.213000	-2.413483
0.213100	-2.397254
0.213200	-2.385893
0.213300	-2.341425
0.213400	-2.272614
0.213500	-2.212890
0.213600	-2.181081
0.213700	-2.156413
0.213800	-2.142780
0.213900	-2.107401
0.214000	-2.019439
0.214100	-1.965883
0.214200	-1.840269
0.214300	-1.830856
0.214400	-1.794178
0.214500	-1.758474
0.214600	-1.704593
0.214700	-1.643247
0.214800	-1.555610
0.214900	-1.509844
0.215000	-1.491343
0.215100	-1.496211
0.215200	-1.468946
0.215300	-1.478359
0.215400	-1.465051
0.215500	-1.472192
0.215600	-1.462455
0.215700	-1.453042
0.215800	-1.454016
0.215900	-1.476412
0.216000	-1.483228
0.216100	-1.483877
0.216200	-1.471543
0.216300	-1.399810
0.216400	-1.266083
0.216500	-1.215123
0.216600	-1.320612
0.216700	-1.434216
0.216800	-1.476412
0.216900	-1.415066
0.217000	-1.295295
0.217100	-1.190779
0.217200	-1.231677
0.217300	-1.294321
0.217400	-1.303409
0.217500	-1.281662
0.217600	-1.201491
0.217700	-1.141118
0.217800	-1.144689
0.217900	-1.152479
0.218000	-1.184288
0.218100	-1.153128
0.218200	-1.151830
0.218300	-1.128135
0.218400	-1.144364
0.218500	-1.169357
0.218600	-1.157023
0.218700	-1.140469
0.218800	-1.149233
0.218900	-1.188507
0.219000	-1.200192
0.219100	-1.197596
0.219200	-1.173577
0.219300	-1.169357
0.219400	-1.180717
0.219500	-1.292374
0.219600	-1.378388
0.219700	-1.373195
0.219800	-1.307304
0.219900	-1.203438
0.220000	-1.245958
0.220100	-1.310875
0.220200	-1.392020
0.220300	-1.397538
0.220400	-1.325806
0.220500	-1.251152
0.220600	-1.237519
0.220700	-1.305682
0.220800	-1.347553
0.220900	-1.355667
0.221000	-1.366703
0.221100	-1.327429
0.221200	-1.333596
0.221300	-1.346903
0.221400	-1.375791
0.221500	-1.373844
0.221600	-1.346579
0.221700	-1.364431
0.221800	-1.388775
0.221900	-1.403381
0.222000	-1.383906
0.222100	-1.374168
0.222200	-1.377414
0.222300	-1.436164
0.222400	-1.475114
0.222500	-1.488421
0.222600	-1.488097
0.222700	-1.462130
0.222800	-1.491667
0.222900	-1.483553
0.223000	-1.490369
0.223100	-1.494264
0.223200	-1.501729
0.223300	-1.483877
0.223400	-1.496861
0.223500	-1.514063
0.223600	-1.509844
0.223700	-1.530942
0.223800	-1.541328
0.223900	-1.543600
0.224000	-1.548794
0.224100	-1.539705
0.224200	-1.545873
0.224300	-1.544250
0.224400	-1.566321
0.224500	-1.581901
0.224600	-1.663047
0.224700	-1.775028
0.224800	-1.885386
0.224900	-1.863964
0.225000	-1.771457
0.225100	-1.678627
0.225200	-1.755228
0.225300	-1.903563
0.225400	-2.027553
0.225500	-2.078513
0.225600	-2.024632
0.225700	-1.954198
0.225800	-1.954198
0.225900	-2.035992
0.226000	-2.128174
0.226100	-2.166150
0.226200	-2.153816
0.226300	-2.132718
0.226400	-2.145052
0.226500	-2.154141
0.226600	-2.180432
0.226700	-2.199258
0.226800	-2.177186
0.226900	-2.189196
0.227000	-2.211916
0.227100	-2.267745
0.227200	-2.278456
0.227300	-2.292738
0.227400	-2.292738
0.227500	-2.332012
0.227600	-2.320652
0.227700	-2.320003
0.227800	-2.230742
0.227900	-2.167124
0.228000	-2.182379
0.228100	-2.266771
0.228200	-2.350189
0.228300	-2.339153
0.228400	-2.260279
0.228500	-2.177186
0.228600	-2.167773
0.228700	-2.247621
0.228800	-2.339478
0.228900	-2.371936
0.229000	-2.326819
0.229100	-2.276509
0.229200	-2.251516
0.229300	-2.253788
0.229400	-2.269692
0.229500	-2.266122
0.229600	-2.253463
0.229700	-2.230418
0.229800	-2.203477
0.229900	-2.188871
0.230000	-2.153492
0.230100	-2.105453
0.230200	-2.049625
0.230300	-2.033720
0.230400	-2.016842
0.230500	-2.008403
0.230600	-1.943486
0.230700	-1.858770
0.230800	-1.759448
0.230900	-1.702646
0.231000	-1.684145
0.231100	-1.640651
0.231200	-1.585796
0.231300	-1.550417
0.231400	-1.485825
0.231500	-1.425777
0.231600	-1.373195
0.231700	-1.365080
0.231800	-1.332622
0.231900	-1.321586
0.232000	-1.303409
0.232100	-1.273548
0.232200	-1.268030
0.232300	-1.268679
0.232400	-1.292374
0.232500	-1.256994
0.232600	-1.274197
0.232700	-1.287505
0.232800	-1.285557
0.232900	-1.275820
0.233000	-1.174875
0.233100	-1.071982
0.233200	-1.072631
0.233300	-1.199219
0.233400	-1.295944
0.233500	-1.293023
0.233600	-1.210904
0.233700	-1.105414
0.233800	-1.061920
0.233900	-1.092106
0.234000	-1.196946
0.234100	-1.192727
0.234200	-1.157347
0.234300	-1.087238
0.234400	-1.032383
0.234500	-1.057701
0.234600	-1.050235
0.234700	-1.075877
0.234800	-1.045042
0.234900	-1.051858
0.235000	-1.007715
0.235100	-0.995706
0.235200	-1.006417
0.235300	-0.988565
0.235400	-1.011610
0.235500	-1.016154
0.235600	-1.060297
0.235700	-1.072631
0.235800	-1.072956
0.235900	-1.062569
0.236000	-1.017777
0.236100	-1.089185
0.236200	-1.194999
0.236300	-1.249853
0.236400	-1.209605
0.236500	-1.127810
0.236600	-1.082044
0.236700	-1.131381
0.236800	-1.223887
0.236900	-1.264784
0.237000	-1.238493
0.237100	-1.147935
0.237200	-1.102168
0.237300	-1.115476
0.237400	-1.155400
0.237500	-1.181042
0.237600	-1.192078
0.237700	-1.164813
0.237800	-1.159620
0.237900	-1.174226
0.238000	-1.174875
0.238100	-1.172278
0.238200	-1.152479
0.238300	-1.132355
0.238400	-1.141768
0.238500	-1.174226
0.238600	-1.167409
0.238700	-1.153128
0.238800	-1.155075
0.238900	-1.185911
0.239000	-1.242713
0.239100	-1.259266
0.239200	-1.270302
0.239300	-1.273223
0.239400	-1.246283
0.239500	-1.259915
0.239600	-1.258293
0.239700	-1.270627
0.239800	-1.275820
0.239900	-1.276794
0.240000	-1.289452
0.240100	-1.285233
0.240200	-1.299190
0.240300	-1.294970
0.240400	-1.291075
0.240500	-1.306655
0.240600	-1.310875
0.240700	-1.342359
0.240800	-1.321911
0.240900	-1.347553
0.241000	-1.353071
0.241100	-1.391371
0.241200	-1.395591
0.241300	-1.514063
0.241400	-1.642598
0.241500	-1.711734
0.241600	-1.675056
0.241700	-1.591314
0.241800	-1.584822
0.241900	-1.663047
0.242000	-1.808784
0.242100	-1.902913
0.242200	-1.895448
0.242300	-1.832154
0.242400	-1.784765
0.242500	-1.828909
0.242600	-1.902913
0.242700	-1.978217
0.242800	-1.967505
0.242900	-1.935696
0.243000	-1.896422
0.243100	-1.885386
0.243200	-1.904861
0.243300	-1.915897
0.243400	-1.904861
0.243500	-1.914274
0.243600	-1.926608
0.243700	-1.951276
0.243800	-1.978217
0.243900	-1.964584
0.244000	-1.966532
0.244100	-1.963935
0.244200	-1.999315
0.244300	-2.041186
0.244400	-2.033720
0.244500	-1.947706
0.244600	-1.935372
0.244700	-1.954522
0.244800	-2.050923
0.244900	-2.126227
0.245000	-2.104155
0.245100	-2.025930
0.245200	-1.958093
0.245300	-1.969453
0.245400	-2.072346
0.245500	-2.159334
0.245600	-2.195687
0.245700	-2.134017
0.245800	-2.063582
0.245900	-2.033071
0.246000	-2.064556
0.246100	-2.087926
0.246200	-2.091821
0.246300	-2.073644
0.246400	-2.035343
0.246500	-2.007754
0.246600	-1.986656
0.246700	-1.952575
0.246800	-1.903887
0.246900	-1.861367
0.247000	-1.849682
0.247100	-1.832479
0.247200	-1.828584
0.247300	-1.748737
0.247400	-1.691610
0.247500	-1.563725
0.247600	-1.538083
0.247700	-1.509195
0.247800	-1.489071
0.247900	-1.434865
0.248000	-1.398837
0.248100	-1.324832
0.248200	-1.281338
0.248300	-1.269977
0.248400	-1.257968
0.248500	-1.241090
0.248600	-1.235572
0.248700	-1.240116
0.248800	-1.220316
0.248900	-1.231677
0.249000	-1.220641
0.249100	-1.205061
0.249200	-1.200841
0.249300	-1.202789
0.249400	-1.230054
0.249500	-1.179094
0.249600	-1.185911
0.249700	-1.002522
0.249800	-0.986942
0.249900	-0.993758
0.250000	-1.118722
0.250100	-1.143390
0.250200	-1.093080
0.250300	-0.994732
0.250400	-0.877233
0.250500	-0.886646
0.250600	-0.969090
0.250700	-1.026865
0.250800	-1.030436
0.250900	-0.941500
0.251000	-0.883076
0.251100	-0.852565
0.251200	-0.897357
0.251300	-0.926570
0.251400	-0.949939
0.251500	-0.938579
0.251600	-0.925596
0.251700	-0.936307
0.251800	-0.926570
0.251900	-0.924947
0.252000	-0.930465
0.252100	-0.918780
0.252200	-0.938904
0.252300	-0.944422
0.252400	-0.966169
0.252500	-0.916508
0.252600	-0.921701
0.252700	-0.906121
0.252800	-0.974283
0.252900	-1.063219
0.253000	-1.078149
0.253100	-1.044717
0.253200	-0.922675
0.253300	-0.902226
0.253400	-0.954159
0.253500	-1.056078
0.253600	-1.067114
0.253700	-1.006741
0.253800	-0.915858
0.253900	-0.877882
0.254000	-0.907419
0.254100	-0.970713
0.254200	-1.016154
0.254300	-1.017453
0.254400	-0.972985
0.254500	-0.995706
0.254600	-1.021348
0.254700	-1.065166
0.254800	-1.066464
0.254900	-1.063868
0.255000	-1.080421
0.255100	-1.092756
0.255200	-1.109958
0.255300	-1.110608
0.255400	-1.097300
0.255500	-1.096326
0.255600	-1.127161
0.255700	-1.182340
0.255800	-1.191104
0.255900	-1.193051
0.256000	-1.178445
0.256100	-1.161892
0.256200	-1.152154
0.256300	-1.143715
0.256400	-1.135600
0.256500	-1.132355
0.256600	-1.119047
0.256700	-1.121319
0.256800	-1.132679
0.256900	-1.132679
0.257000	-1.129433
0.257100	-1.130083
0.257200	-1.127486
0.257300	-1.145987
0.257400	-1.151830
0.257500	-1.150531
0.257600	-1.149557
0.257700	-1.189481
0.257800	-1.216097
0.257900	-1.239791
0.258000	-1.376765
0.258100	-1.479009
0.258200	-1.517634
0.258300	-1.411495
0.258400	-1.360211
0.258500	-1.359887
0.258600	-1.500106
0.258700	-1.637405
0.258800	-1.678951
0.258900	-1.638379
0.259000	-1.560479
0.259100	-1.550741
0.259200	-1.615333
0.259300	-1.723095
0.259400	-1.777949
0.259500	-1.792231
0.259600	-1.779247
0.259700	-1.766589
0.259800	-1.770808
0.259900	-1.788985
0.260000	-1.802293
0.260100	-1.797749
0.260200	-1.792555
0.260300	-1.806188
0.260400	-1.817548
0.260500	-1.829558
0.260600	-1.826312
0.260700	-1.843190
0.260800	-1.838646
0.260900	-1.869806
0.261000	-1.872727
0.261100	-1.843515
0.261200	-1.741920
0.261300	-1.770159
0.261400	-1.797424
0.261500	-1.876298
0.261600	-1.923038
0.261700	-1.872078
0.261800	-1.781844
0.261900	-1.738999
0.262000	-1.799372
0.262100	-1.896422
0.262200	-1.978866
0.262300	-1.985682
0.262400	-1.934723
0.262500	-1.882465
0.262600	-1.872403
0.262700	-1.888632
0.262800	-1.905510
0.262900	-1.912976
0.263000	-1.901615
0.263100	-1.889606
0.263200	-1.885386
0.263300	-1.861691
0.263400	-1.804240
0.263500	-1.744842
0.263600	-1.729262
0.263700	-1.714980
0.263800	-1.705243
0.263900	-1.668565
0.264000	-1.596832
0.264100	-1.536460
0.264200	-1.433892
0.264300	-1.450121
0.264400	-1.416689
0.264500	-1.381309
0.264600	-1.342359
0.264700	-1.309901
0.264800	-1.240441
0.264900	-1.220316
0.265000	-1.210579
0.265100	-1.198569
0.265200	-1.202464
0.265300	-1.211553
0.265400	-1.218044
0.265500	-1.193051
0.265600	-1.197920
0.265700	-1.169032
0.265800	-1.161567
0.265900	-1.152154
0.266000	-1.157347
0.266100	-1.193051
0.266200	-1.122617
0.266300	-1.069710
0.266400	-0.917481
0.266500	-0.907095
0.266600	-0.978827
0.266700	-1.116126
0.266800	-1.124565
0.266900	-1.037252
0.267000	-0.882102
0.267100	-0.857758
0.267200	-0.895085
0.267300	-0.984345
0.267400	-1.001223
0.267500	-0.959677
0.267600	-0.887295
0.267700	-0.824651
0.267800	-0.848345
0.267900	-0.869119
0.268000	-0.899954
0.268100	-0.912288
0.268200	-0.869119
0.268300	-0.886646
0.268400	-0.876259
0.268500	-0.876909
0.268600	-0.864574
0.268700	-0.880803
0.268800	-0.888269
0.268900	-0.939553
0.269000	-0.955457
0.269100	-0.969414
0.269200	-0.928192
0.269300	-0.919429
0.269400	-0.917157
0.269500	-1.040498
0.269600	-1.108336
0.269700	-1.109958
0.269800	-1.048288
0.269900	-0.965519
0.270000	-0.998951
0.270100	-1.087562
0.270200	-1.183639
0.270300	-1.183963
0.270400	-1.132030
0.270500	-1.034655
0.270600	-1.028813
0.270700	-1.086264
0.270800	-1.135600
0.270900	-1.143390
0.271000	-1.147285
0.271100	-1.107362
0.271200	-1.116450
0.271300	-1.137873
0.271400	-1.170006
0.271500	-1.175199
0.271600	-1.168708
0.271700	-1.181691
0.271800	-1.216097
0.271900	-1.211228
0.272000	-1.198569
0.272100	-1.183639
0.272200	-1.176498
0.272300	-1.205061
0.272400	-1.265433
0.272500	-1.274197
0.272600	-1.196622
0.272700	-1.170006
0.272800	-1.159295
0.272900	-1.153777
0.273000	-1.127486
0.273100	-1.097949
0.273200	-1.096975
0.273300	-1.062245
0.273400	-1.056078
0.273500	-1.027190
0.273600	-1.032708
0.273700	-1.020698
0.273800	-1.022321
0.273900	-1.030436
0.274000	-1.022646
0.274100	-1.031085
0.274200	-1.038226
0.274300	-1.058350
0.274400	-1.074904
0.274500	-1.123591
0.274600	-1.187534
0.274700	-1.340736
0.274800	-1.427725
0.274900	-1.407925
0.275000	-1.310550
0.275100	-1.232001
0.275200	-1.313147
0.275300	-1.431295
0.275400	-1.560479
0.275500	-1.565023
0.275600	-1.503677
0.275700	-1.442331
0.275800	-1.466350
0.275900	-1.558531
0.276000	-1.639028
0.276100	-1.708164
0.276200	-1.703944
0.276300	-1.696479
0.276400	-1.711410
0.276500	-1.718550
0.276600	-1.761395
0.276700	-1.788985
0.276800	-1.804240
0.276900	-1.817224
0.277000	-1.845787
0.277100	-1.894150
0.277200	-1.913949
0.277300	-1.896422
0.277400	-1.908756
0.277500	-1.905510
0.277600	-1.928556
0.277700	-1.924336
0.277800	-1.860718
0.277900	-1.811381
0.278000	-1.849682
0.278100	-1.928556
0.278200	-2.031448
0.278300	-2.033720
0.278400	-1.934398
0.278500	-1.837023
0.278600	-1.805863
0.278700	-1.867534
0.278800	-1.998341
0.278900	-2.052222
0.279000	-2.008078
0.279100	-1.932126
0.279200	-1.893176
0.279300	-1.893176
0.279400	-1.899018
0.279500	-1.910703
0.279600	-1.888632
0.279700	-1.861691
0.279800	-1.838321
0.279900	-1.811706
0.280000	-1.750684
0.280100	-1.695181
0.280200	-1.645519
0.280300	-1.617930
0.280400	-1.604947
0.280500	-1.580603
0.280600	-1.509844
0.280700	-1.443304
0.280800	-1.380660
0.280900	-1.293672
0.281000	-1.277443
0.281100	-1.250503
0.281200	-1.205386
0.281300	-1.143066
0.281400	-1.067438
0.281500	-1.018751
0.281600	-0.956756
0.281700	-0.933386
0.281800	-0.916183
0.281900	-0.914560
0.282000	-0.926570
0.282100	-0.941500
0.282200	-0.923324
0.282300	-0.909691
0.282400	-0.913262
0.282500	-0.890541
0.282600	-0.911963
0.282700	-0.913586
0.282800	-0.940527
0.282900	-0.872689
0.283000	-0.821730
0.283100	-0.644183
0.283200	-0.689625
0.283300	-0.795114
0.283400	-0.857109
0.283500	-0.847372
0.283600	-0.717539
0.283700	-0.626331
0.283800	-0.562064
0.283900	-0.640937
0.284000	-0.726627
0.284100	-0.716240
0.284200	-0.670474
0.284300	-0.559143
0.284400	-0.525711
0.284500	-0.485138
0.284600	-0.544212
0.284700	-0.585759
0.284800	-0.571152
0.284900	-0.575372
0.285000	-0.543887
0.285100	-0.561090
0.285200	-0.564336
0.285300	-0.595496
0.285400	-0.595171
0.285500	-0.620489
0.285600	-0.653596
0.285700	-0.660412
0.285800	-0.676317
0.285900	-0.635420
0.286000	-0.649052
0.286100	-0.667878
0.286200	-0.808746
0.286300	-0.856460
0.286400	-0.855162
0.286500	-0.727276
0.286600	-0.705529
0.286700	-0.755515
0.286800	-0.870417
0.286900	-0.928517
0.287000	-0.907419
0.287100	-0.825300
0.287200	-0.772393
0.287300	-0.762006
0.287400	-0.847696
0.287500	-0.883400
0.287600	-0.887944
0.287700	-0.899629
0.287800	-0.888269
0.287900	-0.914560
0.288000	-0.945720
0.288100	-0.946044
0.288200	-0.945720
0.288300	-0.949939
0.288400	-0.966169
0.288500	-0.977854
0.288600	-0.978827
0.288700	-0.967467
0.288800	-0.951887
0.288900	-0.966169
0.289000	-1.008040
0.289100	-1.032059
0.289200	-1.058350
0.289300	-1.037252
0.289400	-1.016479
0.289500	-1.014856
0.289600	-1.002522
0.289700	-0.996030
0.289800	-0.982722
0.289900	-0.990837
0.290000	-0.993433
0.290100	-0.986293
0.290200	-0.976880
0.290300	-0.965195
0.290400	-0.974283
0.290500	-0.967467
0.290600	-0.960975
0.290700	-0.977204
0.290800	-0.983696
0.290900	-0.999925
0.291000	-1.002197
0.291100	-1.028164
0.291200	-1.054130
0.291300	-1.132355
0.291400	-1.290426
0.291500	-1.371572
0.291600	-1.326779
0.291700	-1.231677
0.291800	-1.207658
0.291900	-1.290426
0.292000	-1.452393
0.292100	-1.540355
0.292200	-1.548145
0.292300	-1.468622
0.292400	-1.436164
0.292500	-1.481930
0.292600	-1.579629
0.292700	-1.659152
0.292800	-1.685443
0.292900	-1.669214
0.293000	-1.651686
0.293100	-1.658827
0.293200	-1.666617
0.293300	-1.690636
0.293400	-1.707190
0.293500	-1.711410
0.293600	-1.713357
0.293700	-1.737376
0.293800	-1.757176
0.293900	-1.768861
0.294000	-1.776002
0.294100	-1.801319
0.294200	-1.840918
0.294300	-1.849033
0.294400	-1.841892
0.294500	-1.751982
0.294600	-1.730560
0.294700	-1.785090
0.294800	-1.891878
0.294900	-1.964909
0.295000	-1.951276
0.295100	-1.865911
0.295200	-1.796126
0.295300	-1.802293
0.295400	-1.902913
0.295500	-1.978541
0.295600	-2.004508
0.295700	-1.952575
0.295800	-1.910054
0.295900	-1.878245
0.296000	-1.890904
0.296100	-1.920766
0.296200	-1.912002
0.296300	-1.898045
0.296400	-1.872727
0.296500	-1.840918
0.296600	-1.818522
0.296700	-1.774703
0.296800	-1.713357
0.296900	-1.666942
0.297000	-1.641624
0.297100	-1.631887
0.297200	-1.628641
0.297300	-1.544250
0.297400	-1.481605
0.297500	-1.357939
0.297600	-1.327429
0.297700	-1.301462
0.297800	-1.265758
0.297900	-1.226483
0.298000	-1.189481
0.298100	-1.104441
0.298200	-1.078474
0.298300	-1.056402
0.298400	-1.057052
0.298500	-1.045042
0.298600	-1.035629
0.298700	-1.061271
0.298800	-1.048288
0.298900	-1.048937
0.299000	-1.042445
0.299100	-1.023620
0.299200	-1.043744
0.299300	-1.029137
0.299400	-1.049911
0.299500	-1.021348
0.299600	-0.965844
0.299700	-0.885672
0.299800	-0.736040
0.299900	-0.852889
0.300000	-0.920078
0.300100	-0.998302
0.300200	-0.892813
0.300300	-0.779534
0.300400	-0.670799
0.300500	-0.633797
0.300600	-0.739610
0.300700	-0.739610
0.300800	-0.749997
0.300900	-0.661386
0.301000	-0.575372
0.301100	-0.515649
0.301200	-0.545510
0.301300	-0.566284
0.301400	-0.541940
0.301500	-0.530904
0.301600	-0.513377
0.301700	-0.506561
0.301800	-0.493253
0.301900	-0.488059
0.302000	-0.489682
0.302100	-0.487086
0.302200	-0.539343
0.302300	-0.523763
0.302400	-0.538694
0.302500	-0.516623
0.302600	-0.521491
0.302700	-0.519868
0.302800	-0.609128
0.302900	-0.730197
0.303000	-0.733768
0.303100	-0.702933
0.303200	-0.612699
0.303300	-0.626656
0.303400	-0.700336
0.303500	-0.800956
0.303600	-0.841854
0.303700	-0.800632
0.303800	-0.737987
0.303900	-0.717539
0.304000	-0.746751
0.304100	-0.805176
0.304200	-0.815563
0.304300	-0.835362
0.304400	-0.814913
0.304500	-0.788947
0.304600	-0.819133
0.304700	-0.840231
0.304800	-0.832116
0.304900	-0.808746
0.305000	-0.803878
0.305100	-0.812966
0.305200	-0.816861
0.305300	-0.792842
0.305400	-0.794140
0.305500	-0.769147
0.305600	-0.792842
0.305700	-0.849968
0.305800	-0.876259
0.305900	-0.879830
0.306000	-0.887944
0.306100	-0.844126
0.306200	-0.862951
0.306300	-0.845749
0.306400	-0.851267
0.306500	-0.838608
0.306600	-0.817835
0.306700	-0.841204
0.306800	-0.854188
0.306900	-0.848670
0.307000	-0.865873
0.307100	-0.868794
0.307200	-0.867496
0.307300	-0.876259
0.307400	-0.885672
0.307500	-0.885672
0.307600	-0.893787
0.307700	-0.901252
0.307800	-0.944422
0.307900	-0.956107
0.308000	-1.046665
0.308100	-1.187534
0.308200	-1.214474
0.308300	-1.133328
0.308400	-1.058025
0.308500	-1.064842
0.308600	-1.192727
0.308700	-1.322560
0.308800	-1.384880
0.308900	-1.364431
0.309000	-1.322560
0.309100	-1.306331
0.309200	-1.383906
0.309300	-1.503028
0.309400	-1.555610
0.309500	-1.554312
0.309600	-1.537433
0.309700	-1.547171
0.309800	-1.568593
0.309900	-1.600402
0.310000	-1.627992
0.310100	-1.638054
0.310200	-1.644221
0.310300	-1.656231
0.310400	-1.681873
0.310500	-1.695830
0.310600	-1.699400
0.310700	-1.725042
0.310800	-1.740947
0.310900	-1.776326
0.311000	-1.792880
0.311100	-1.734780
0.311200	-1.653959
0.311300	-1.676030
0.311400	-1.762045
0.311500	-1.856823
0.311600	-1.909730
0.311700	-1.862341
0.311800	-1.793529
0.311900	-1.776975
0.312000	-1.825014
0.312100	-1.937319
0.312200	-2.025930
0.312300	-2.012622
0.312400	-1.972374
0.312500	-1.949329
0.312600	-1.931801
0.312700	-1.974322
0.312800	-1.989902
0.312900	-2.007105
0.313000	-1.986007
0.313100	-1.980164
0.313200	-1.968479
0.313300	-1.935047
0.313400	-1.896422
0.313500	-1.842541
0.313600	-1.812679
0.313700	-1.796450
0.313800	-1.769185
0.313900	-1.716603
0.314000	-1.612412
0.314100	-1.551390
0.314200	-1.512116
0.314300	-1.501405
0.314400	-1.462779
0.314500	-1.416040
0.314600	-1.373844
0.314700	-1.321261
0.314800	-1.261214
0.314900	-1.221615
0.315000	-1.213500
0.315100	-1.195324
0.315200	-1.211228
0.315300	-1.189806
0.315400	-1.201491
0.315500	-1.150207
0.315600	-1.170980
0.315700	-1.158321
0.315800	-1.152154
0.315900	-1.170655
0.316000	-1.167085
0.316100	-1.170655
0.316200	-1.168708
0.316300	-1.088536
0.316400	-0.972660
0.316500	-0.908393
0.316600	-1.042770
0.316700	-1.102818
0.316800	-1.137873
0.316900	-1.067438
0.317000	-0.914560
0.317100	-0.875286
0.317200	-0.885672
0.317300	-0.994083
0.317400	-1.020698
0.317500	-0.965844
0.317600	-0.882426
0.317700	-0.842178
0.317800	-0.842827
0.317900	-0.895734
0.318000	-0.947667
0.318100	-0.944097
0.318200	-0.930140
0.318300	-0.916508
0.318400	-0.919753
0.318500	-0.942799
0.318600	-0.935982
0.318700	-0.949290
0.318800	-0.980775
0.318900	-1.026865
0.319000	-1.045367
0.319100	-1.063868
0.319200	-1.036278
0.319300	-1.020698
0.319400	-1.029137
0.319500	-1.137873
0.319600	-1.192402
0.319700	-1.195648
0.319800	-1.138846
0.319900	-1.036278
0.320000	-1.058999
0.320100	-1.131056
0.320200	-1.187858
0.320300	-1.181042
0.320400	-1.086264
0.320500	-1.005443
0.320600	-0.992135
0.320700	-1.035954
0.320800	-1.077176
0.320900	-1.077500
0.321000	-1.099896
0.321100	-1.070035
0.321200	-1.069386
0.321300	-1.100870
0.321400	-1.117748
0.321500	-1.111906
0.321600	-1.099896
0.321700	-1.108336
0.321800	-1.129433
0.321900	-1.114178
0.322000	-1.064842
0.322100	-1.062245
0.322200	-1.061920
0.322300	-1.124889
0.322400	-1.152154
0.322500	-1.166760
0.322600	-1.158321
0.322700	-1.105739
0.322800	-1.132030
0.322900	-1.145662
0.323000	-1.169357
0.323100	-1.166111
0.323200	-1.186235
0.323300	-1.203763
0.323400	-1.217720
0.323500	-1.211553
0.323600	-1.223562
0.323700	-1.235247
0.323800	-1.257968
0.323900	-1.280040
0.324000	-1.306331
0.324100	-1.303085
0.324200	-1.331324
0.324300	-1.347877
0.324400	-1.362483
0.324500	-1.394617
0.324600	-1.450445
0.324700	-1.584173
0.324800	-1.655906
0.324900	-1.648116
0.325000	-1.540679
0.325100	-1.438111
0.325200	-1.494588
0.325300	-1.623772
0.325400	-1.744517
0.325500	-1.735753
0.325600	-1.664994
0.325700	-1.600402
0.325800	-1.600727
0.325900	-1.680250
0.326000	-1.748412
0.326100	-1.761720
0.326200	-1.740298
0.326300	-1.702321
0.326400	-1.697777
0.326500	-1.717901
0.326600	-1.714655
0.326700	-1.728613
0.326800	-1.739973
0.326900	-1.745491
0.327000	-1.764317
0.327100	-1.777300
0.327200	-1.813004
0.327300	-1.801319
0.327400	-1.798722
0.327500	-1.845787
0.327600	-1.866236
0.327700	-1.873052
0.327800	-1.821119
0.327900	-1.784441
0.328000	-1.795477
0.328100	-1.885386
0.328200	-1.981138
0.328300	-1.977243
0.328400	-1.899992
0.328500	-1.809758
0.328600	-1.791257
0.328700	-1.860069
0.328800	-1.961338
0.328900	-2.021062
0.329000	-1.973997
0.329100	-1.906159
0.329200	-1.891228
0.329300	-1.885711
0.329400	-1.921090
0.329500	-1.949653
0.329600	-1.918493
0.329700	-1.923038
0.329800	-1.914274
0.329900	-1.896097
0.330000	-1.888956
0.330100	-1.832154
0.330200	-1.813653
0.330300	-1.801644
0.330400	-1.810083
0.330500	-1.812030
0.330600	-1.753281
0.330700	-1.687066
0.330800	-1.602999
0.330900	-1.562751
0.331000	-1.581901
0.331100	-1.560803
0.331200	-1.521529
0.331300	-1.479333
0.331400	-1.437137
0.331500	-1.392670
0.331600	-1.357939
0.331700	-1.368001
0.331800	-1.366054
0.331900	-1.368975
0.332000	-1.371572
0.332100	-1.344956
0.332200	-1.361185
0.332300	-1.340736
0.332400	-1.333920
0.332500	-1.321261
0.332600	-1.341386
0.332700	-1.320612
0.332800	-1.340087
0.332900	-1.305032
0.333000	-1.181691
0.333100	-1.050884
0.333200	-1.050884
0.333300	-1.167085
0.333400	-1.245634
0.333500	-1.232651
0.333600	-1.123915
0.333700	-1.022321
0.333800	-1.005768
0.333900	-1.070359
0.334000	-1.167734
0.334100	-1.145013
0.334200	-1.105090
0.334300	-1.020374
0.334400	-0.991811
0.334500	-0.984345
0.334600	-1.027515
0.334700	-1.048288
0.334800	-1.028164
0.334900	-1.026216
0.335000	-0.996030
0.335100	-0.998302
0.335200	-0.984994
0.335300	-0.988565
0.335400	-0.960651
0.335500	-0.977204
0.335600	-0.972660
0.335700	-0.965844
0.335800	-0.977529
0.335900	-0.921052
0.336000	-0.929166
0.336100	-0.919104
0.336200	-1.073605
0.336300	-1.116775
0.336400	-1.078149
0.336500	-0.998951
0.336600	-0.945720
0.336700	-1.016479
0.336800	-1.122617
0.336900	-1.198245
0.337000	-1.178121
0.337100	-1.077500
0.337200	-1.008689
0.337300	-1.027190
0.337400	-1.094379
0.337500	-1.127810
0.337600	-1.160918
0.337700	-1.150856
0.337800	-1.130407
0.337900	-1.165137
0.338000	-1.179419
0.338100	-1.214474
0.338200	-1.202789
0.338300	-1.217395
0.338400	-1.248880
0.338500	-1.240765
0.338600	-1.245309
0.338700	-1.220316
0.338800	-1.198894
0.338900	-1.231352
0.339000	-1.289452
0.339100	-1.331973
0.339200	-1.355667
0.339300	-1.328727
0.339400	-1.330674
0.339500	-1.324183
0.339600	-1.333271
0.339700	-1.330999
0.339800	-1.311199
0.339900	-1.310226
0.340000	-1.317042
0.340100	-1.305357
0.340200	-1.283610
0.340300	-1.272899
0.340400	-1.274197
0.340500	-1.272250
0.340600	-1.264135
0.340700	-1.279715
0.340800	-1.294970
0.340900	-1.308603
0.341000	-1.312173
0.341100	-1.322884
0.341200	-1.353395
0.341300	-1.421557
0.341400	-1.579629
0.341500	-1.608517
0.341600	-1.577032
0.341700	-1.488097
0.341800	-1.461157
0.341900	-1.566646
0.342000	-1.703295
0.342100	-1.822417
0.342200	-1.804240
0.342300	-1.738350
0.342400	-1.689663
0.342500	-1.734130
0.342600	-1.809434
0.342700	-1.887983
0.342800	-1.903238
0.342900	-1.877271
0.343000	-1.887983
0.343100	-1.913949
0.343200	-1.929205
0.343300	-1.949004
0.343400	-1.977243
0.343500	-1.991849
0.343600	-1.995095
0.343700	-2.037291
0.343800	-2.071697
0.343900	-2.100909
0.344000	-2.096365
0.344100	-2.114217
0.344200	-2.136289
0.344300	-2.163229
0.344400	-2.133692
0.344500	-2.049950
0.344600	-2.041186
0.344700	-2.091821
0.344800	-2.194714
0.344900	-2.267745
0.345000	-2.235936
0.345100	-2.128823
0.345200	-2.063582
0.345300	-2.078188
0.345400	-2.181081
0.345500	-2.289816
0.345600	-2.329416
0.345700	-2.276184
0.345800	-2.190169
0.345900	-2.160308
0.346000	-2.171668
0.346100	-2.194064
0.346200	-2.208671
0.346300	-2.208995
0.346400	-2.196986
0.346500	-2.165826
0.346600	-2.120709
0.346700	-2.074942
0.346800	-2.012947
0.346900	-1.977892
0.347000	-1.940890
0.347100	-1.941863
0.347200	-1.912002
0.347300	-1.837348
0.347400	-1.778598
0.347500	-1.690636
0.347600	-1.636106
0.347700	-1.615333
0.347800	-1.556908
0.347900	-1.518608
0.348000	-1.468297
0.348100	-1.410522
0.348200	-1.356966
0.348300	-1.332946
0.348400	-1.344631
0.348500	-1.317367
0.348600	-1.332946
0.348700	-1.327753
0.348800	-1.323534
0.348900	-1.290426
0.349000	-1.269004
0.349100	-1.248230
0.349200	-1.222913
0.349300	-1.256994
0.349400	-1.261538
0.349500	-1.236870
0.349600	-1.183963
0.349700	-1.085290
0.349800	-0.992460
0.349900	-1.042445
0.350000	-1.173901
0.350100	-1.237195
0.350200	-1.174875
0.350300	-1.094379
0.350400	-0.995706
0.350500	-1.016479
0.350600	-1.063868
0.350700	-1.153128
0.350800	-1.134302
0.350900	-1.049262
0.351000	-0.978827
0.351100	-0.955782
0.351200	-0.970388
0.351300	-0.997653
0.351400	-0.993758
0.351500	-0.977204
0.351600	-0.967142
0.351700	-0.945395
0.351800	-0.940202
0.351900	-0.939228
0.352000	-0.945395
0.352100	-0.933061
0.352200	-0.995381
0.352300	-0.982722
0.352400	-0.994083
0.352500	-0.951562
0.352600	-0.957405
0.352700	-0.945395
0.352800	-1.018751
0.352900	-1.152479
0.353000	-1.165137
0.353100	-1.148584
0.353200	-1.026541
0.353300	-1.021672
0.353400	-1.093729
0.353500	-1.209605
0.353600	-1.263161
0.353700	-1.244985
0.353800	-1.156374
0.353900	-1.114178
0.354000	-1.138522
0.354100	-1.204087
0.354200	-1.218369
0.354300	-1.231028
0.354400	-1.201815
0.354500	-1.198569
0.354600	-1.214149
0.354700	-1.231352
0.354800	-1.251152
0.354900	-1.235896
0.355000	-1.267381
0.355100	-1.280364
0.355200	-1.271925
0.355300	-1.256020
0.355400	-1.259266
0.355500	-1.243362
0.355600	-1.279066
0.355700	-1.310226
0.355800	-1.334894
0.355900	-1.353720
0.356000	-1.289128
0.356100	-1.301787
0.356200	-1.295944
0.356300	-1.279066
0.356400	-1.302760
0.356500	-1.317367
0.356600	-1.304708
0.356700	-1.309252
0.356800	-1.321911
0.356900	-1.309252
0.357000	-1.302436
0.357100	-1.300488
0.357200	-1.275171
0.357300	-1.293997
0.357400	-1.297567
0.357500	-1.292698
0.357600	-1.294970
0.357700	-1.302436
0.357800	-1.308603
0.357900	-1.333596
0.358000	-1.438111
0.358100	-1.555610
0.358200	-1.564374
0.358300	-1.474789
0.358400	-1.401109
0.358500	-1.416040
0.358600	-1.563725
0.358700	-1.685768
0.358800	-1.762369
0.358900	-1.727639
0.359000	-1.705243
0.359100	-1.701023
0.359200	-1.764966
0.359300	-1.862990
0.359400	-1.925310
0.359500	-1.943486
0.359600	-1.923687
0.359700	-1.932451
0.359800	-1.946083
0.359900	-1.961663
0.360000	-1.965233
0.360100	-1.989253
0.360200	-1.990226
0.360300	-2.000938
0.360400	-2.043133
0.360500	-2.068775
0.360600	-2.073969
0.360700	-2.072670
0.360800	-2.074618
0.360900	-2.122981
0.361000	-2.125902
0.361100	-2.081759
0.361200	-2.031448
0.361300	-2.032097
0.361400	-2.098637
0.361500	-2.191468
0.361600	-2.244050
0.361700	-2.190494
0.361800	-2.130122
0.361900	-2.111296
0.362000	-2.149597
0.362100	-2.246322
0.362200	-2.316757
0.362300	-2.306370
0.362400	-2.249568
0.362500	-2.227496
0.362600	-2.233339
0.362700	-2.234962
0.362800	-2.239831
0.362900	-2.238208
0.363000	-2.232690
0.363100	-2.227496
0.363200	-2.224900
0.363300	-2.177835
0.363400	-2.135639
0.363500	-2.081434
0.363600	-2.055143
0.363700	-2.042484
0.363800	-2.019763
0.363900	-2.002236
0.364000	-1.909405
0.364100	-1.849357
0.364200	-1.765290
0.364300	-1.735429
0.364400	-1.712059
0.364500	-1.656555
0.364600	-1.605271
0.364700	-1.553663
0.364800	-1.497510
0.364900	-1.465051
0.365000	-1.444927
0.365100	-1.435190
0.365200	-1.430970
0.365300	-1.417338
0.365400	-1.425777
0.365500	-1.383581
0.365600	-1.374493
0.365700	-1.355343
0.365800	-1.340736
0.365900	-1.355667
0.366000	-1.323209
0.366100	-1.362808
0.366200	-1.302111
0.366300	-1.262188
0.366400	-1.088211
0.366500	-1.079123
0.366600	-1.198245
0.366700	-1.316068
0.366800	-1.379362
0.366900	-1.296269
0.367000	-1.187209
0.367100	-1.130083
0.367200	-1.163190
0.367300	-1.260240
0.367400	-1.276145
0.367500	-1.285233
0.367600	-1.190130
0.367700	-1.147285
0.367800	-1.147935
0.367900	-1.145013
0.368000	-1.184937
0.368100	-1.172927
0.368200	-1.182340
0.368300	-1.164164
0.368400	-1.167085
0.368500	-1.158646
0.368600	-1.175849
0.368700	-1.164488
0.368800	-1.178445
0.368900	-1.199868
0.369000	-1.222913
0.369100	-1.241414
0.369200	-1.191104
0.369300	-1.193376
0.369400	-1.173577
0.369500	-1.319963
0.369600	-1.379362
0.369700	-1.375791
0.369800	-1.302111
0.369900	-1.206684
0.370000	-1.245309
0.370100	-1.317367
0.370200	-1.415715
0.370300	-1.395266
0.370400	-1.330999
0.370500	-1.256345
0.370600	-1.256020
0.370700	-1.320937
0.370800	-1.392994
0.370900	-1.380985
0.371000	-1.406951
0.371100	-1.386178
0.371200	-1.409223
0.371300	-1.412794
0.371400	-1.435190
0.371500	-1.446875
0.371600	-1.431619
0.371700	-1.460183
0.371800	-1.468622
0.371900	-1.476736
0.372000	-1.465701
0.372100	-1.446226
0.372200	-1.436813
0.372300	-1.466025
0.372400	-1.518283
0.372500	-1.530942
0.372600	-1.501080
0.372700	-1.454016
0.372800	-1.455963
0.372900	-1.451094
0.373000	-1.452393
0.373100	-1.418961
0.373200	-1.394942
0.373300	-1.387152
0.373400	-1.375791
0.373500	-1.358913
0.373600	-1.355992
0.373700	-1.333271
0.373800	-1.324832
0.373900	-1.323534
0.374000	-1.314445
0.374100	-1.312173
0.374200	-1.301137
0.374300	-1.292374
0.374400	-1.310550
0.374500	-1.325156
0.374600	-1.374818
0.374700	-1.521853
0.374800	-1.626694
0.374900	-1.637729
0.375000	-1.563075
0.375100	-1.502703
0.375200	-1.576383
0.375300	-1.710760
0.375400	-1.876947
0.375500	-1.884737
0.375600	-1.845787
0.375700	-1.787687
0.375800	-1.816899
0.375900	-1.925634
0.376000	-2.004183
0.376100	-2.046379
0.376200	-2.020737
0.376300	-2.012298
0.376400	-1.999639
0.376500	-2.047677
0.376600	-2.084031
0.376700	-2.097988
0.376800	-2.102532
0.376900	-2.129797
0.377000	-2.185950
0.377100	-2.229769
0.377200	-2.265797
0.377300	-2.282026
0.377400	-2.312537
0.377500	-2.359602
0.377600	-2.393359
0.377700	-2.390113
0.377800	-2.312862
0.377900	-2.284623
0.378000	-2.312862
0.378100	-2.402447
0.378200	-2.512805
0.378300	-2.530657
0.378400	-2.472232
0.378500	-2.378752
0.378600	-2.383296
0.378700	-2.452108
0.378800	-2.572204
0.378900	-2.634524
0.379000	-2.608233
0.379100	-2.543965
0.379200	-2.513130
0.379300	-2.542018
0.379400	-2.574801
0.379500	-2.595899
0.379600	-2.591354
0.379700	-2.587135
0.379800	-2.549808
0.379900	-2.539097
0.380000	-2.490084
0.380100	-2.423869
0.380200	-2.370638
0.380300	-2.307344
0.380400	-2.296957
0.380500	-2.280404
0.380600	-2.199907
0.380700	-2.121033
0.380800	-2.067802
0.380900	-1.955820
0.381000	-1.925634
0.381100	-1.881816
0.381200	-1.848059
0.381300	-1.807486
0.381400	-1.742894
0.381500	-1.680250
0.381600	-1.640326
0.381700	-1.608842
0.381800	-1.617930
0.381900	-1.595858
0.382000	-1.612737
0.382100	-1.587419
0.382200	-1.604947
0.382300	-1.580603
0.382400	-1.583524
0.382500	-1.557882
0.382600	-1.561777
0.382700	-1.600727
0.382800	-1.539381
0.382900	-1.542302
0.383000	-1.399810
0.383100	-1.297567
0.383200	-1.262512
0.383300	-1.370273
0.383400	-1.457262
0.383500	-1.395915
0.383600	-1.340087
0.383700	-1.209281
0.383800	-1.157023
0.383900	-1.242388
0.384000	-1.280364
0.384100	-1.318665
0.384200	-1.203114
0.384300	-1.151180
0.384400	-1.097624
0.384500	-1.102168
0.384600	-1.131705
0.384700	-1.133328
0.384800	-1.132355
0.384900	-1.122293
0.385000	-1.112555
0.385100	-1.097300
0.385200	-1.086264
0.385300	-1.085290
0.385400	-1.095677
0.385500	-1.168059
0.385600	-1.149557
0.385700	-1.188507
0.385800	-1.168383
0.385900	-1.149882
0.386000	-1.101519
0.386100	-1.164164
0.386200	-1.280040
0.386300	-1.312498
0.386400	-1.290751
0.386500	-1.179419
0.386600	-1.152803
0.386700	-1.194999
0.386800	-1.294646
0.386900	-1.351123
0.387000	-1.291400
0.387100	-1.188832
0.387200	-1.121968
0.387300	-1.126837
0.387400	-1.177796
0.387500	-1.205061
0.387600	-1.203114
0.387700	-1.178770
0.387800	-1.156374
0.387900	-1.177147
0.388000	-1.212202
0.388100	-1.223887
0.388200	-1.232651
0.388300	-1.223887
0.388400	-1.225834
0.388500	-1.239142
0.388600	-1.227133
0.388700	-1.224536
0.388800	-1.213825
0.388900	-1.224211
0.389000	-1.293672
0.389100	-1.315094
0.389200	-1.325806
0.389300	-1.265433
0.389400	-1.264135
0.389500	-1.282312
0.389600	-1.291725
0.389700	-1.281338
0.389800	-1.287830
0.389900	-1.284259
0.390000	-1.280364
0.390100	-1.280689
0.390200	-1.274846
0.390300	-1.287505
0.390400	-1.291075
0.390500	-1.293672
0.390600	-1.295619
0.390700	-1.300488
0.390800	-1.310550
0.390900	-1.314445
0.391000	-1.325806
0.391100	-1.358588
0.391200	-1.388125
0.391300	-1.482579
0.391400	-1.612087
0.391500	-1.677653
0.391600	-1.650064
0.391700	-1.570865
0.391800	-1.556259
0.391900	-1.630913
0.392000	-1.800670
0.392100	-1.895448
0.392200	-1.892527
0.392300	-1.815925
0.392400	-1.796775
0.392500	-1.852279
0.392600	-1.928880
0.392700	-1.984708
0.392800	-1.991849
0.392900	-1.966532
0.393000	-1.968155
0.393100	-2.001262
0.393200	-2.016193
0.393300	-2.024307
0.393400	-2.048976
0.393500	-2.036317
0.393600	-2.062284
0.393700	-2.071697
0.393800	-2.083706
0.393900	-2.084680
0.394000	-2.101234
0.394100	-2.103181
0.394200	-2.129797
0.394300	-2.164527
0.394400	-2.135639
0.394500	-2.054494
0.394600	-2.017491
0.394700	-2.061959
0.394800	-2.164527
0.394900	-2.255735
0.395000	-2.233014
0.395100	-2.164527
0.395200	-2.121682
0.395300	-2.162580
0.395400	-2.273587
0.395500	-2.379726
0.395600	-2.407316
0.395700	-2.380051
0.395800	-2.326819
0.395900	-2.296957
0.396000	-2.309291
0.396100	-2.351812
0.396200	-2.339802
0.396300	-2.341101
0.396400	-2.309941
0.396500	-2.302151
0.396600	-2.283974
0.396700	-2.215811
0.396800	-2.146026
0.396900	-2.077539
0.397000	-2.042809
0.397100	-2.021386
0.397200	-2.003534
0.397300	-1.920766
0.397400	-1.853577
0.397500	-1.781195
0.397600	-1.731209
0.397700	-1.698102
0.397800	-1.649090
0.397900	-1.601052
0.398000	-1.556584
0.398100	-1.470894
0.398200	-1.419285
0.398300	-1.360211
0.398400	-1.368326
0.398500	-1.352746
0.398600	-1.340087
0.398700	-1.336517
0.398800	-1.302436
0.398900	-1.319963
0.399000	-1.293023
0.399100	-1.322884
0.399200	-1.314445
0.399300	-1.331973
0.399400	-1.350149
0.399500	-1.315094
0.399600	-1.294646
0.399700	-1.200841
0.399800	-1.107686
0.399900	-1.156374
0.400000	-1.247581
0.400100	-1.328078
0.400200	-1.294970
0.400300	-1.189806
0.400400	-1.117099
0.400500	-1.116775
0.400600	-1.195324
0.400700	-1.233949
0.400800	-1.238818
0.400900	-1.150531
0.401000	-1.101519
0.401100	-1.055753
0.401200	-1.124240
0.401300	-1.115476
0.401400	-1.132679
0.401500	-1.130407
0.401600	-1.079448
0.401700	-1.075877
0.401800	-1.058025
0.401900	-1.054455
0.402000	-1.027839
0.402100	-1.055753
0.402200	-1.075228
0.402300	-1.105090
0.402400	-1.107362
0.402500	-1.104116
0.402600	-1.071982
0.402700	-1.070035
0.402800	-1.119696
0.402900	-1.236221
0.403000	-1.270302
0.403100	-1.217720
0.403200	-1.114827
0.403300	-1.088536
0.403400	-1.173901
0.403500	-1.271276
0.403600	-1.335543
0.403700	-1.288479
0.403800	-1.184612
0.403900	-1.135276
0.404000	-1.177472
0.404100	-1.248230
0.404200	-1.265433
0.404300	-1.283610
0.404400	-1.264135
0.404500	-1.268679
0.404600	-1.290102
0.404700	-1.311199
0.404800	-1.322560
0.404900	-1.318665
0.405000	-1.328402
0.405100	-1.353071
0.405200	-1.358588
0.405300	-1.339114
0.405400	-1.318340
0.405500	-1.317042
0.405600	-1.337491
0.405700	-1.385853
0.405800	-1.411495
0.405900	-1.419935
0.406000	-1.397863
0.406100	-1.394942
0.406200	-1.407276
0.406300	-1.407600
0.406400	-1.401109
0.406500	-1.405328
0.406600	-1.393968
0.406700	-1.391696
0.406800	-1.390398
0.406900	-1.399810
0.407000	-1.407925
0.407100	-1.417987
0.407200	-1.433567
0.407300	-1.422531
0.407400	-1.440708
0.407500	-1.448173
0.407600	-1.478359
0.407700	-1.492966
0.407800	-1.504651
0.407900	-1.541004
0.408000	-1.645195
0.408100	-1.801319
0.408200	-1.809758
0.408300	-1.767887
0.408400	-1.673433
0.408500	-1.691286
0.408600	-1.807486
0.408700	-1.940890
0.408800	-1.986331
0.408900	-1.964909
0.409000	-1.880193
0.409100	-1.881166
0.409200	-1.945109
0.409300	-2.013921
0.409400	-2.088900
0.409500	-2.077215
0.409600	-2.069100
0.409700	-2.030150
0.409800	-2.025930
0.409900	-2.053520
0.410000	-2.071697
0.410100	-2.096689
0.410200	-2.087277
0.410300	-2.121033
0.410400	-2.130771
0.410500	-2.159659
0.410600	-2.155114
0.410700	-2.165177
0.410800	-2.181406
0.410900	-2.217759
0.411000	-2.204451
0.411100	-2.161282
0.411200	-2.088250
0.411300	-2.095067
0.411400	-2.151219
0.411500	-2.240480
0.411600	-2.299554
0.411700	-2.230093
0.411800	-2.138236
0.411900	-2.102207
0.412000	-2.155114
0.412100	-2.254112
0.412200	-2.342074
0.412300	-2.334609
0.412400	-2.267745
0.412500	-2.199907
0.412600	-2.163229
0.412700	-2.177186
0.412800	-2.202179
0.412900	-2.202828
0.413000	-2.205425
0.413100	-2.192766
0.413200	-2.177186
0.413300	-2.116164
0.413400	-2.068451
0.413500	-2.016842
0.413600	-1.976269
0.413700	-1.947381
0.413800	-1.946408
0.413900	-1.888956
0.414000	-1.800345
0.414100	-1.747763
0.414200	-1.634808
0.414300	-1.601052
0.414400	-1.565997
0.414500	-1.534188
0.414600	-1.482579
0.414700	-1.425777
0.414800	-1.356966
0.414900	-1.311524
0.415000	-1.286207
0.415100	-1.299190
0.415200	-1.276469
0.415300	-1.299190
0.415400	-1.282312
0.415500	-1.305032
0.415600	-1.276145
0.415700	-1.268030
0.415800	-1.260889
0.415900	-1.282636
0.416000	-1.277767
0.416100	-1.285882
0.416200	-1.294321
0.416300	-1.178445
0.416400	-1.067438
0.416500	-0.999601
0.416600	-1.095677
0.416700	-1.247257
0.416800	-1.224536
0.416900	-1.159620
0.417000	-1.037577
0.417100	-0.943772
0.417200	-0.994732
0.417300	-1.041472
0.417400	-1.103142
0.417500	-1.058999
0.417600	-1.003820
0.417700	-0.917157
0.417800	-0.926570
0.417900	-0.938904
0.418000	-0.940527
0.418100	-0.952536
0.418200	-0.936632
0.418300	-0.945071
0.418400	-0.949615
0.418500	-0.907095
0.418600	-0.926894
0.418700	-0.926570
0.418800	-0.958054
0.418900	-0.970064
0.419000	-0.996679
0.419100	-0.992784
0.419200	-0.963896
0.419300	-0.952861
0.419400	-0.949290
0.419500	-1.081071
0.419600	-1.156049
0.419700	-1.159944
0.419800	-1.064517
0.419900	-0.980450
0.420000	-0.984994
0.420100	-1.098598
0.420200	-1.176173
0.420300	-1.185262
0.420400	-1.120020
0.420500	-1.031410
0.420600	-1.008364
0.420700	-1.034980
0.420800	-1.068412
0.420900	-1.059973
0.421000	-1.079772
0.421100	-1.051209
0.421200	-1.085615
0.421300	-1.095352
0.421400	-1.120020
0.421500	-1.118722
0.421600	-1.107037
0.421700	-1.127161
0.421800	-1.124889
0.421900	-1.126512
0.422000	-1.094379
0.422100	-1.059973
0.422200	-1.051534
0.422300	-1.087562
0.422400	-1.128460
0.422500	-1.107362
0.422600	-1.084316
0.422700	-1.045691
0.422800	-1.049262
0.422900	-1.021023
0.423000	-1.012259
0.423100	-0.989538
0.423200	-0.960326
0.423300	-0.955133
0.423400	-0.941500
0.423500	-0.920078
0.423600	-0.931763
0.423700	-0.950264
0.423800	-0.945720
0.423900	-0.952536
0.424000	-0.939553
0.424100	-0.920727
0.424200	-0.926570
0.424300	-0.931438
0.424400	-0.944422
0.424500	-0.981749
0.424600	-1.048288
0.424700	-1.171304
0.424800	-1.254722
0.424900	-1.200192
0.425000	-1.119696
0.425100	-1.059324
0.425200	-1.116450
0.425300	-1.267381
0.425400	-1.405653
0.425500	-1.428374
0.425600	-1.361510
0.425700	-1.300164
0.425800	-1.314445
0.425900	-1.433242
0.426000	-1.506598
0.426100	-1.580278
0.426200	-1.554312
0.426300	-1.545548
0.426400	-1.554961
0.426500	-1.567944
0.426600	-1.600078
0.426700	-1.616956
0.426800	-1.613710
0.426900	-1.631887
0.427000	-1.674083
0.427100	-1.707839
0.427200	-1.723419
0.427300	-1.707839
0.427400	-1.716278
0.427500	-1.722121
0.427600	-1.737052
0.427700	-1.716928
0.427800	-1.627018
0.427900	-1.556584
0.428000	-1.613061
0.428100	-1.713357
0.428200	-1.807486
0.428300	-1.825987
0.428400	-1.754904
0.428500	-1.652011
0.428600	-1.657529
0.428700	-1.734130
0.428800	-1.824364
0.428900	-1.862016
0.429000	-1.837348
0.429100	-1.796775
0.429200	-1.742570
0.429300	-1.749386
0.429400	-1.800670
0.429500	-1.804565
0.429600	-1.792555
0.429700	-1.780221
0.429800	-1.776002
0.429900	-1.766264
0.430000	-1.761071
0.430100	-1.698751
0.430200	-1.646493
0.430300	-1.632211
0.430400	-1.629939
0.430500	-1.625071
0.430600	-1.562751
0.430700	-1.472517
0.430800	-1.402083
0.430900	-1.326455
0.431000	-1.318665
0.431100	-1.278741
0.431200	-1.255047
0.431300	-1.212202
0.431400	-1.144040
0.431500	-1.092106
0.431600	-1.044068
0.431700	-1.021997
0.431800	-0.986293
0.431900	-0.976555
0.432000	-0.975257
0.432100	-0.955457
0.432200	-0.942799
0.432300	-0.918455
0.432400	-0.873338
0.432500	-0.849319
0.432600	-0.824326
0.432700	-0.814264
0.432800	-0.806474
0.432900	-0.736040
0.433000	-0.654894
0.433100	-0.460470
0.433200	-0.484489
0.433300	-0.602961
0.433400	-0.674369
0.433500	-0.672422
0.433600	-0.552002
0.433700	-0.452355
0.433800	-0.402370
0.433900	-0.469234
0.434000	-0.534799
0.434100	-0.578942
0.434200	-0.554274
0.434300	-0.481568
0.434400	-0.428985
0.434500	-0.446837
0.434600	-0.462417
0.434700	-0.493902
0.434800	-0.474102
0.434900	-0.466312
0.435000	-0.452680
0.435100	-0.466962
0.435200	-0.441644
0.435300	-0.445539
0.435400	-0.464040
0.435500	-0.489033
0.435600	-0.510780
0.435700	-0.519868
0.435800	-0.565634
0.435900	-0.545510
0.436000	-0.549405
0.436100	-0.591926
0.436200	-0.740259
0.436300	-0.816536
0.436400	-0.788298
0.436500	-0.718188
0.436600	-0.678589
0.436700	-0.742207
0.436800	-0.865224
0.436900	-0.950264
0.437000	-0.937281
0.437100	-0.865224
0.437200	-0.828546
0.437300	-0.834713
0.437400	-0.902226
0.437500	-0.944422
0.437600	-0.970388
0.437700	-0.975581
0.437800	-0.961624
0.437900	-0.994407
0.438000	-1.017128
0.438100	-1.037252
0.438200	-1.033032
0.438300	-1.046990
0.438400	-1.065491
0.438500	-1.065815
0.438600	-1.061920
0.438700	-1.045367
0.438800	-1.023620
0.438900	-1.034331
0.439000	-1.086589
0.439100	-1.120020
0.439200	-1.115152
0.439300	-1.099572
0.439400	-1.074904
0.439500	-1.073281
0.439600	-1.077176
0.439700	-1.063868
0.439800	-1.067114
0.439900	-1.058999
0.440000	-1.063219
0.440100	-1.043744
0.440200	-1.038226
0.440300	-1.032059
0.440400	-1.048937
0.440500	-1.050884
0.440600	-1.052832
0.440700	-1.048612
0.440800	-1.048288
0.440900	-1.055753
0.441000	-1.060297
0.441100	-1.086913
0.441200	-1.094379
0.441300	-1.214474
0.441400	-1.351123
0.441500	-1.422856
0.441600	-1.392670
0.441700	-1.297242
0.441800	-1.261863
0.441900	-1.345605
0.442000	-1.491018
0.442100	-1.602674
0.442200	-1.613386
0.442300	-1.534188
0.442400	-1.483877
0.442500	-1.506273
0.442600	-1.601701
0.442700	-1.685768
0.442800	-1.719524
0.442900	-1.695505
0.443000	-1.691935
0.443100	-1.714331
0.443200	-1.739324
0.443300	-1.762045
0.443400	-1.793204
0.443500	-1.800670
0.443600	-1.832154
0.443700	-1.842541
0.443800	-1.885061
0.443900	-1.896746
0.444000	-1.915897
0.444100	-1.939591
0.444200	-1.972374
0.444300	-1.987630
0.444400	-1.949004
0.444500	-1.885711
0.444600	-1.852928
0.444700	-1.899343
0.444800	-2.022035
0.444900	-2.104479
0.445000	-2.091172
0.445100	-2.019114
0.445200	-1.955496
0.445300	-1.968155
0.445400	-2.068775
0.445500	-2.164203
0.445600	-2.171993
0.445700	-2.125253
0.445800	-2.079811
0.445900	-2.067802
0.446000	-2.072670
0.446100	-2.079487
0.446200	-2.083706
0.446300	-2.072021
0.446400	-2.052546
0.446500	-2.009377
0.446600	-1.991849
0.446700	-1.923362
0.446800	-1.883114
0.446900	-1.833128
0.447000	-1.823715
0.447100	-1.822092
0.447200	-1.813978
0.447300	-1.741271
0.447400	-1.680250
0.447500	-1.626369
0.447600	-1.605920
0.447700	-1.577682
0.447800	-1.546846
0.447900	-1.507572
0.448000	-1.464078
0.448100	-1.408250
0.448200	-1.361510
0.448300	-1.345605
0.448400	-1.343009
0.448500	-1.307954
0.448600	-1.317691
0.448700	-1.312498
0.448800	-1.311199
0.448900	-1.273872
0.449000	-1.270951
0.449100	-1.277443
0.449200	-1.264460
0.449300	-1.290426
0.449400	-1.254073
0.449500	-1.229729
0.449600	-1.189806
0.449700	-1.070035
0.449800	-1.003171
0.449900	-1.012259
0.450000	-1.167085
0.450100	-1.184288
0.450200	-1.191104
0.450300	-1.015505
0.450400	-0.924947
0.450500	-0.922350
0.450600	-0.981424
0.450700	-1.037577
0.450800	-1.025892
0.450900	-0.976555
0.451000	-0.932087
0.451100	-0.901252
0.451200	-0.898331
0.451300	-0.915209
0.451400	-0.946369
0.451500	-0.941176
0.451600	-0.930465
0.451700	-0.916183
0.451800	-0.916832
0.451900	-0.939553
0.452000	-0.973959
0.452100	-1.001548
0.452200	-1.026865
0.452300	-1.018426
0.452400	-1.034980
0.452500	-0.995381
0.452600	-1.001873
0.452700	-0.981099
0.452800	-1.069386
0.452900	-1.182016
0.453000	-1.206684
0.453100	-1.158970
0.453200	-1.054130
0.453300	-1.038875
0.453400	-1.096001
0.453500	-1.208307
0.453600	-1.224211
0.453700	-1.173901
0.453800	-1.076851
0.453900	-1.037901
0.454000	-1.060947
0.454100	-1.136250
0.454200	-1.135600
0.454300	-1.142417
0.454400	-1.125214
0.454500	-1.120020
0.454600	-1.137873
0.454700	-1.137548
0.454800	-1.125863
0.454900	-1.121319
0.455000	-1.114827
0.455100	-1.143066
0.455200	-1.151505
0.455300	-1.154102
0.455400	-1.150856
0.455500	-1.135925
0.455600	-1.180717
0.455700	-1.219343
0.455800	-1.242388
0.455900	-1.239467
0.456000	-1.231352
0.456100	-1.231352
0.456200	-1.214799
0.456300	-1.217395
0.456400	-1.213500
0.456500	-1.184612
0.456600	-1.187534
0.456700	-1.185911
0.456800	-1.198245
0.456900	-1.169357
0.457000	-1.182340
0.457100	-1.162216
0.457200	-1.185911
0.457300	-1.185911
0.457400	-1.210579
0.457500	-1.203438
0.457600	-1.232975
0.457700	-1.242713
0.457800	-1.258942
0.457900	-1.318340
0.458000	-1.410846
0.458100	-1.583849
0.458200	-1.622149
0.458300	-1.590340
0.458400	-1.487123
0.458500	-1.487448
0.458600	-1.624097
0.458700	-1.783467
0.458800	-1.865911
0.458900	-1.818847
0.459000	-1.758799
0.459100	-1.738675
0.459200	-1.786713
0.459300	-1.880842
0.459400	-1.948355
0.459500	-1.946083
0.459600	-1.933100
0.459700	-1.918169
0.459800	-1.925634
0.459900	-1.961014
0.460000	-1.981463
0.460100	-1.995095
0.460200	-2.006780
0.460300	-2.021711
0.460400	-2.037615
0.460500	-2.071047
0.460600	-2.078837
0.460700	-2.084031
0.460800	-2.083382
0.460900	-2.106102
0.461000	-2.127525
0.461100	-2.091172
0.461200	-2.005157
0.461300	-2.004508
0.461400	-2.076241
0.461500	-2.164203
0.461600	-2.238208
0.461700	-2.192766
0.461800	-2.097988
0.461900	-2.043133
0.462000	-2.126227
0.462100	-2.253788
0.462200	-2.317731
0.462300	-2.290141
0.462400	-2.236909
0.462500	-2.184976
0.462600	-2.178484
0.462700	-2.202828
0.462800	-2.211592
0.462900	-2.196012
0.463000	-2.210943
0.463100	-2.220680
0.463200	-2.202504
0.463300	-2.196661
0.463400	-2.136938
0.463500	-2.073320
0.463600	-2.059038
0.463700	-2.042160
0.463800	-2.043782
0.463900	-2.009377
0.464000	-1.916546
0.464100	-1.885386
0.464200	-1.779572
0.464300	-1.771133
0.464400	-1.757500
0.464500	-1.714006
0.464600	-1.683820
0.464700	-1.624097
0.464800	-1.569242
0.464900	-1.524125
0.465000	-1.494264
0.465100	-1.463429
0.465200	-1.450445
0.465300	-1.405328
0.465400	-1.379037
0.465500	-1.348526
0.465600	-1.329701
0.465700	-1.270951
0.465800	-1.227133
0.465900	-1.205386
0.466000	-1.230378
0.466100	-1.192402
0.466200	-1.142741
0.466300	-1.051209
0.466400	-0.875286
0.466500	-0.836011
0.466600	-0.892164
0.466700	-0.991486
0.466800	-1.002522
0.466900	-0.936307
0.467000	-0.811668
0.467100	-0.780183
0.467200	-0.791868
0.467300	-0.895734
0.467400	-0.948641
0.467500	-0.930140
0.467600	-0.822703
0.467700	-0.746751
0.467800	-0.741233
0.467900	-0.805500
0.468000	-0.811668
0.468100	-0.803553
0.468200	-0.777586
0.468300	-0.757138
0.468400	-0.751944
0.468500	-0.733119
0.468600	-0.728250
0.468700	-0.729548
0.468800	-0.796088
0.468900	-0.810045
0.469000	-0.832441
0.469100	-0.873987
0.469200	-0.855162
0.469300	-0.868145
0.469400	-0.859381
0.469500	-1.007390
0.469600	-1.092106
0.469700	-1.127161
0.469800	-1.064842
0.469900	-1.042770
0.470000	-1.059973
0.470100	-1.187858
0.470200	-1.304059
0.470300	-1.334245
0.470400	-1.260565
0.470500	-1.199868
0.470600	-1.202464
0.470700	-1.269977
0.470800	-1.344631
0.470900	-1.327753
0.471000	-1.350798
0.471100	-1.317691
0.471200	-1.348851
0.471300	-1.369300
0.471400	-1.379037
0.471500	-1.377739
0.471600	-1.366703
0.471700	-1.374493
0.471800	-1.393968
0.471900	-1.397214
0.472000	-1.380660
0.472100	-1.365080
0.472200	-1.364756
0.472300	-1.431295
0.472400	-1.472841
0.472500	-1.467973
0.472600	-1.458884
0.472700	-1.418636
0.472800	-1.425777
0.472900	-1.405004
0.473000	-1.376440
0.473100	-1.351448
0.473200	-1.318016
0.473300	-1.318016
0.473400	-1.300488
0.473500	-1.277767
0.473600	-1.246283
0.473700	-1.233624
0.473800	-1.227133
0.473900	-1.224861
0.474000	-1.199543
0.474100	-1.191753
0.474200	-1.195973
0.474300	-1.201491
0.474400	-1.238168
0.474500	-1.248230
0.474600	-1.320288
0.474700	-1.442331
0.474800	-1.534837
0.474900	-1.518608
0.475000	-1.434541
0.475100	-1.391371
0.475200	-1.450770
0.475300	-1.590665
0.475400	-1.706216
0.475500	-1.742570
0.475600	-1.730235
0.475700	-1.678302
0.475800	-1.707839
0.475900	-1.797749
0.476000	-1.897071
0.476100	-1.930178
0.476200	-1.930178
0.476300	-1.935047
0.476400	-1.943486
0.476500	-1.966207
0.476600	-2.009701
0.476700	-2.046379
0.476800	-2.059687
0.476900	-2.086303
0.477000	-2.101234
0.477100	-2.144079
0.477200	-2.145377
0.477300	-2.155439
0.477400	-2.180107
0.477500	-2.191468
0.477600	-2.210618
0.477700	-2.197310
0.477800	-2.160308
0.477900	-2.087601
0.478000	-2.077215
0.478100	-2.178160
0.478200	-2.247945
0.478300	-2.268069
0.478400	-2.200232
0.478500	-2.113568
0.478600	-2.097663
0.478700	-2.185950
0.478800	-2.289816
0.478900	-2.320003
0.479000	-2.257034
0.479100	-2.202179
0.479200	-2.179783
0.479300	-2.184327
0.479400	-2.190169
0.479500	-2.193415
0.479600	-2.191792
0.479700	-2.179134
0.479800	-2.163554
0.479900	-2.110971
0.480000	-2.064880
0.480100	-2.014570
0.480200	-1.977243
0.480300	-1.962312
0.480400	-1.954522
0.480500	-1.946732
0.480600	-1.889281
0.480700	-1.817224
0.480800	-1.728288
0.480900	-1.689013
0.481000	-1.663047
0.481100	-1.640975
0.481200	-1.609166
0.481300	-1.553338
0.481400	-1.495238
0.481500	-1.449796
0.481600	-1.417013
0.481700	-1.398512
0.481800	-1.377739
0.481900	-1.382932
0.482000	-1.390073
0.482100	-1.368326
0.482200	-1.341710
0.482300	-1.332297
0.482400	-1.316393
0.482500	-1.323534
0.482600	-1.327104
0.482700	-1.360861
0.482800	-1.323209
0.482900	-1.315419
0.483000	-1.168708
0.483100	-1.096651
0.483200	-1.033357
0.483300	-1.197271
0.483400	-1.269653
0.483500	-1.263161
0.483600	-1.169357
0.483700	-1.034655
0.483800	-1.005118
0.483900	-1.002846
0.484000	-1.109958
0.484100	-1.109634
0.484200	-1.045042
0.484300	-0.960326
0.484400	-0.890216
0.484500	-0.897033
0.484600	-0.895085
0.484700	-0.926894
0.484800	-0.910340
0.484900	-0.923648
0.485000	-0.897357
0.485100	-0.872364
0.485200	-0.858407
0.485300	-0.831142
0.485400	-0.868469
0.485500	-0.875610
0.485600	-0.908068
0.485700	-0.921701
0.485800	-0.957729
0.485900	-0.937930
0.486000	-0.898655
0.486100	-0.897033
0.486200	-1.034980
0.486300	-1.068412
0.486400	-1.079772
0.486500	-0.968765
0.486600	-0.912288
0.486700	-0.978178
0.486800	-1.102493
0.486900	-1.164164
0.487000	-1.148908
0.487100	-1.046016
0.487200	-0.994732
0.487300	-1.025892
0.487400	-1.090484
0.487500	-1.117099
0.487600	-1.110932
0.487700	-1.112880
0.487800	-1.103142
0.487900	-1.145013
0.488000	-1.149557
0.488100	-1.145013
0.488200	-1.135600
0.488300	-1.148908
0.488400	-1.167734
0.488500	-1.194999
0.488600	-1.174550
0.488700	-1.163839
0.488800	-1.172927
0.488900	-1.190130
0.489000	-1.251152
0.489100	-1.296593
0.489200	-1.324507
0.489300	-1.318989
0.489400	-1.294646
0.489500	-1.317367
0.489600	-1.313796
0.489700	-1.303734
0.489800	-1.296593
0.489900	-1.317367
0.490000	-1.319314
0.490100	-1.325806
0.490200	-1.329376
0.490300	-1.332946
0.490400	-1.350149
0.490500	-1.348851
0.490600	-1.341061
0.490700	-1.360211
0.490800	-1.344307
0.490900	-1.349825
0.491000	-1.359238
0.491100	-1.386178
0.491200	-1.402083
0.491300	-1.505949
0.491400	-1.643247
0.491500	-1.666617
0.491600	-1.668240
0.491700	-1.567620
0.491800	-1.557557
0.491900	-1.649739
0.492000	-1.809434
0.492100	-1.906159
0.492200	-1.887333
0.492300	-1.828909
0.492400	-1.775028
0.492500	-1.838321
0.492600	-1.905186
0.492700	-1.976918
0.492800	-1.992498
0.492900	-1.982436
0.493000	-1.965883
0.493100	-1.957768
0.493200	-1.978217
0.493300	-1.997692
0.493400	-2.014245
0.493500	-2.015544
0.493600	-2.037291
0.493700	-2.056766
0.493800	-2.073320
0.493900	-2.078513
0.494000	-2.065530
0.494100	-2.078837
0.494200	-2.108699
0.494300	-2.135639
0.494400	-2.100584
0.494500	-2.039887
0.494600	-2.015219
0.494700	-2.062608
0.494800	-2.172642
0.494900	-2.252165
0.495000	-2.229119
0.495100	-2.136938
0.495200	-2.063257
0.495300	-2.102857
0.495400	-2.228795
0.495500	-2.328117
0.495600	-2.354733
0.495700	-2.293387
0.495800	-2.244375
0.495900	-2.218084
0.496000	-2.240804
0.496100	-2.264499
0.496200	-2.274561
0.496300	-2.277807
0.496400	-2.267096
0.496500	-2.252489
0.496600	-2.206399
0.496700	-2.167124
0.496800	-2.108050
0.496900	-2.044432
0.497000	-2.014895
0.497100	-1.992823
0.497200	-1.971076
0.497300	-1.883763
0.497400	-1.811381
0.497500	-1.702970
0.497600	-1.657529
0.497700	-1.632536
0.497800	-1.591963
0.497900	-1.561777
0.498000	-1.514388
0.498100	-1.450770
0.498200	-1.410846
0.498300	-1.387476
0.498400	-1.400784
0.498500	-1.371896
0.498600	-1.384230
0.498700	-1.397863
0.498800	-1.378388
0.498900	-1.384230
0.499000	-1.368975
0.499100	-1.390398
0.499200	-1.389424
0.499300	-1.410846
0.499400	-1.426102
0.499500	-1.411171
0.499600	-1.393643
0.499700	-1.233624
0.499800	-1.183639
0.499900	-1.205386
0.500000	-1.368001
0.500100	-1.379037
0.500200	-1.361185
0.500300	-1.237519
0.500400	-1.136899
0.500500	-1.150531
0.500600	-1.190130
0.500700	-1.306331
0.500800	-1.300488
0.500900	-1.218044
0.501000	-1.178121
0.501100	-1.119371
0.501200	-1.135600
0.501300	-1.140469
0.501400	-1.180717
0.501500	-1.165462
0.501600	-1.152154
0.501700	-1.167409
0.501800	-1.163839
0.501900	-1.153128
0.502000	-1.159620
0.502100	-1.181691
0.502200	-1.168059
0.502300	-1.206359
0.502400	-1.199868
0.502500	-1.230378
0.502600	-1.200192
0.502700	-1.213500
0.502800	-1.281662
0.502900	-1.394942
0.503000	-1.422531
0.503100	-1.394617
0.503200	-1.299839
0.503300	-1.270951
0.503400	-1.328078
0.503500	-1.430321
0.503600	-1.485500
0.503700	-1.419935
0.503800	-1.330025
0.503900	-1.288803
0.504000	-1.308278
0.504100	-1.376765
0.504200	-1.374493
0.504300	-1.388450
0.504400	-1.369624
0.504500	-1.367352
0.504600	-1.391047
0.504700	-1.418636
0.504800	-1.429997
0.504900	-1.426751
0.505000	-1.425452
0.505100	-1.458235
0.505200	-1.446226
0.505300	-1.439085
0.505400	-1.415066
0.505500	-1.386503
0.505600	-1.430646
0.505700	-1.490694
0.505800	-1.497510
0.505900	-1.505624
0.506000	-1.436488
0.506100	-1.459209
0.506200	-1.460183
0.506300	-1.457586
0.506400	-1.464727
0.506500	-1.444603
0.506600	-1.437137
0.506700	-1.463429
0.506800	-1.466674
0.506900	-1.456937
0.507000	-1.480307
0.507100	-1.446550
0.507200	-1.478359
0.507300	-1.459209
0.507400	-1.470245
0.507500	-1.473166
0.507600	-1.482254
0.507700	-1.508221
0.507800	-1.528670
0.507900	-1.566970
0.508000	-1.673109
0.508100	-1.812355
0.508200	-1.850656
0.508300	-1.770484
0.508400	-1.694207
0.508500	-1.694531
0.508600	-1.824689
0.508700	-1.954847
0.508800	-2.043782
0.508900	-2.021062
0.509000	-1.949329
0.509100	-1.928556
0.509200	-1.973023
0.509300	-2.068775
0.509400	-2.130446
0.509500	-2.157387
0.509600	-2.157387
0.509700	-2.153492
0.509800	-2.148947
0.509900	-2.149597
0.510000	-2.190169
0.510100	-2.207372
0.510200	-2.252489
0.510300	-2.255086
0.510400	-2.274886
0.510500	-2.289816
0.510600	-2.290141
0.510700	-2.315459
0.510800	-2.330065
0.510900	-2.355382
0.511000	-2.345320
0.511100	-2.310265
0.511200	-2.247296
0.511300	-2.238857
0.511400	-2.322599
0.511500	-2.412509
0.511600	-2.470285
0.511700	-2.396604
0.511800	-2.326170
0.511900	-2.270017
0.512000	-2.323573
0.512100	-2.431335
0.512200	-2.501769
0.512300	-2.498199
0.512400	-2.472232
0.512500	-2.452433
0.512600	-2.454380
0.512700	-2.468337
0.512800	-2.461846
0.512900	-2.469636
0.513000	-2.468337
0.513100	-2.443344
0.513200	-2.434256
0.513300	-2.392385
0.513400	-2.314809
0.513500	-2.277482
0.513600	-2.244375
0.513700	-2.227496
0.513800	-2.227496
0.513900	-2.202179
0.514000	-2.118112
0.514100	-2.076890
0.514200	-1.975620
0.514300	-1.970751
0.514400	-1.936995
0.514500	-1.904536
0.514600	-1.851305
0.514700	-1.808460
0.514800	-1.755877
0.514900	-1.720173
0.515000	-1.701997
0.515100	-1.679925
0.515200	-1.674732
0.515300	-1.686741
0.515400	-1.691935
0.515500	-1.690312
0.515600	-1.692908
0.515700	-1.696479
0.515800	-1.682522
0.515900	-1.693558
0.516000	-1.694207
0.516100	-1.723419
0.516200	-1.697777
0.516300	-1.645195
0.516400	-1.529643
0.516500	-1.456937
0.516600	-1.564049
0.516700	-1.638054
0.516800	-1.693558
0.516900	-1.634159
0.517000	-1.546522
0.517100	-1.500431
0.517200	-1.518932
0.517300	-1.598130
0.517400	-1.630264
0.517500	-1.590665
0.517600	-1.512441
0.517700	-1.485825
0.517800	-1.473491
0.517900	-1.495887
0.518000	-1.492966
0.518100	-1.505300
0.518200	-1.490694
0.518300	-1.500756
0.518400	-1.503028
0.518500	-1.506598
0.518600	-1.485500
0.518700	-1.491992
0.518800	-1.531266
0.518900	-1.527371
0.519000	-1.570541
0.519100	-1.569892
0.519200	-1.574760
0.519300	-1.573787
0.519400	-1.599753
0.519500	-1.701672
0.519600	-1.793529
0.519700	-1.818522
0.519800	-1.754579
0.519900	-1.673758
0.520000	-1.693233
0.520100	-1.799696
0.520200	-1.896746
0.520300	-1.906159
0.520400	-1.832154
0.520500	-1.772107
0.520600	-1.759448
0.520700	-1.809434
0.520800	-1.844489
0.520900	-1.816250
0.521000	-1.829882
0.521100	-1.792231
0.521200	-1.824364
0.521300	-1.834102
0.521400	-1.854551
0.521500	-1.843190
0.521600	-1.821443
0.521700	-1.829558
0.521800	-1.872727
0.521900	-1.883763
0.522000	-1.855200
0.522100	-1.831505
0.522200	-1.830856
0.522300	-1.882140
0.522400	-1.914274
0.522500	-1.930828
0.522600	-1.927582
0.522700	-1.896422
0.522800	-1.915572
0.522900	-1.902913
0.523000	-1.891228
0.523100	-1.880193
0.523200	-1.872403
0.523300	-1.859744
0.523400	-1.847410
0.523500	-1.839944
0.523600	-1.832154
0.523700	-1.815601
0.523800	-1.812355
0.523900	-1.807162
0.524000	-1.796450
0.524100	-1.788336
0.524200	-1.776651
0.524300	-1.788660
0.524400	-1.803591
0.524500	-1.803916
0.524600	-1.882465
0.524700	-1.998341
0.524800	-2.105778
0.524900	-2.079811
0.525000	-2.021711
0.525100	-1.948680
0.525200	-1.992823
0.525300	-2.152193
0.525400	-2.266771
0.525500	-2.300203
0.525600	-2.227821
0.525700	-2.185950
0.525800	-2.202504
0.525900	-2.288518
0.526000	-2.384919
0.526100	-2.392060
0.526200	-2.407316
0.526300	-2.390762
0.526400	-2.401149
0.526500	-2.419325
0.526600	-2.453406
0.526700	-2.472557
0.526800	-2.468986
0.526900	-2.503392
0.527000	-2.539746
0.527100	-2.557273
0.527200	-2.580319
0.527300	-2.601417
0.527400	-2.614725
0.527500	-2.645885
0.527600	-2.694572
0.527700	-2.694248
0.527800	-2.652052
0.527900	-2.608557
0.528000	-2.627383
0.528100	-2.724109
0.528200	-2.818239
0.528300	-2.860434
0.528400	-2.779613
0.528500	-2.703660
0.528600	-2.695870
0.528700	-2.791298
0.528800	-2.891270
0.528900	-2.950993
0.529000	-2.915289
0.529100	-2.874067
0.529200	-2.848425
0.529300	-2.849723
0.529400	-2.873418
0.529500	-2.872120
0.529600	-2.852320
0.529700	-2.854917
0.529800	-2.828625
0.529900	-2.822783
0.530000	-2.790974
0.530100	-2.730276
0.530200	-2.679966
0.530300	-2.645235
0.530400	-2.620892
0.530500	-2.599145
0.530600	-2.550782
0.530700	-2.456652
0.530800	-2.384270
0.530900	-2.300528
0.531000	-2.276833
0.531100	-2.233014
0.531200	-2.199582
0.531300	-2.163229
0.531400	-2.085005
0.531500	-2.049950
0.531600	-2.013596
0.531700	-2.020412
0.531800	-1.997367
0.531900	-1.989902
0.532000	-1.973997
0.532100	-1.980813
0.532200	-1.947706
0.532300	-1.939267
0.532400	-1.945434
0.532500	-1.927906
0.532600	-1.965883
0.532700	-1.932775
0.532800	-1.988928
0.532900	-1.913625
0.533000	-1.856498
0.533100	-1.722445
0.533200	-1.713033
0.533300	-1.856498
0.533400	-1.905186
0.533500	-1.941214
0.533600	-1.834751
0.533700	-1.726340
0.533800	-1.677328
0.533900	-1.679601
0.534000	-1.807162
0.534100	-1.784441
0.534200	-1.776002
0.534300	-1.672460
0.534400	-1.627992
0.534500	-1.597806
0.534600	-1.615333
0.534700	-1.625395
0.534800	-1.613386
0.534900	-1.635133
0.535000	-1.626369
0.535100	-1.634159
0.535200	-1.629290
0.535300	-1.643896
0.535400	-1.679925
0.535500	-1.684469
0.535600	-1.712059
0.535700	-1.712708
0.535800	-1.743219
0.535900	-1.709462
0.536000	-1.716928
0.536100	-1.735429
0.536200	-1.885061
0.536300	-1.928231
0.536400	-1.929205
0.536500	-1.825663
0.536600	-1.809434
0.536700	-1.850980
0.536800	-1.978217
0.536900	-2.034694
0.537000	-2.025930
0.537100	-1.935372
0.537200	-1.890579
0.537300	-1.925959
0.537400	-1.966856
0.537500	-2.014895
0.537600	-1.996069
0.537700	-1.976269
0.537800	-1.948030
0.537900	-1.963935
0.538000	-1.964260
0.538100	-1.985358
0.538200	-1.955820
0.538300	-1.940565
0.538400	-1.935047
0.538500	-1.943811
0.538600	-1.943162
0.538700	-1.913625
0.538800	-1.880193
0.538900	-1.845462
0.539000	-1.888632
0.539100	-1.886684
0.539200	-1.883439
0.539300	-1.864937
0.539400	-1.813004
0.539500	-1.818522
0.539600	-1.804565
0.539700	-1.785090
0.539800	-1.775677
0.539900	-1.774379
0.540000	-1.760422
0.540100	-1.757500
0.540200	-1.748737
0.540300	-1.763343
0.540400	-1.756851
0.540500	-1.782818
0.540600	-1.792231
0.540700	-1.820469
0.540800	-1.841567
0.540900	-1.863639
0.541000	-1.894799
0.541100	-1.913300
0.541200	-1.962637
0.541300	-2.026255
0.541400	-2.205425
0.541500	-2.251516
0.541600	-2.239506
0.541700	-2.162255
0.541800	-2.131744
0.541900	-2.227172
0.542000	-2.368041
0.542100	-2.480672
0.542200	-2.489435
0.542300	-2.450485
0.542400	-2.420624
0.542500	-2.473206
0.542600	-2.572204
0.542700	-2.663412
0.542800	-2.695546
0.542900	-2.675097
0.543000	-2.682238
0.543100	-2.698143
0.543200	-2.715345
0.543300	-2.757217
0.543400	-2.806554
0.543500	-2.828625
0.543600	-2.856539
0.543700	-2.884129
0.543800	-2.902955
0.543900	-2.917561
0.544000	-2.923079
0.544100	-2.945476
0.544200	-2.987347
0.544300	-3.032789
0.544400	-3.007471
0.544500	-2.961056
0.544600	-2.927623
0.544700	-2.964951
0.544800	-3.075958
0.544900	-3.152560
0.545000	-3.139901
0.545100	-3.049342
0.545200	-2.979881
0.545300	-2.987347
0.545400	-3.109715
0.545500	-3.198002
0.545600	-3.212284
0.545700	-3.131462
0.545800	-3.074335
0.545900	-3.055834
0.546000	-3.058106
0.546100	-3.065572
0.546200	-3.047070
0.546300	-3.028894
0.546400	-3.016884
0.546500	-2.987347
0.546600	-2.952941
0.546700	-2.905552
0.546800	-2.863680
0.546900	-2.800062
0.547000	-2.766305
0.547100	-2.750725
0.547200	-2.724434
0.547300	-2.642639
0.547400	-2.580968
0.547500	-2.479373
0.547600	-2.444643
0.547700	-2.399526
0.547800	-2.363172
0.547900	-2.320003
0.548000	-2.260604
0.548100	-2.199258
0.548200	-2.147324
0.548300	-2.127849
0.548400	-2.116164
0.548500	-2.113892
0.548600	-2.108050
0.548700	-2.119410
0.548800	-2.107076
0.548900	-2.092470
0.549000	-2.080785
0.549100	-2.068126
0.549200	-2.065205
0.549300	-2.062284
0.549400	-2.093119
0.549500	-2.089224
0.549600	-2.050923
0.549700	-1.933100
0.549800	-1.823715
0.549900	-1.896097
0.550000	-1.989577
0.550100	-2.044432
0.550200	-1.998341
0.550300	-1.895123
0.550400	-1.829233
0.550500	-1.803267
0.550600	-1.836049
0.550700	-1.916871
0.550800	-1.896746
0.550900	-1.830532
0.551000	-1.745815
0.551100	-1.726340
0.551200	-1.706541
0.551300	-1.727314
0.551400	-1.741920
0.551500	-1.730560
0.551600	-1.734455
0.551700	-1.714006
0.551800	-1.718550
0.551900	-1.689663
0.552000	-1.679925
0.552100	-1.677328
0.552200	-1.681548
0.552300	-1.681873
0.552400	-1.703620
0.552500	-1.697128
0.552600	-1.675056
0.552700	-1.660126
0.552800	-1.725042
0.552900	-1.874675
0.553000	-1.880842
0.553100	-1.832154
0.553200	-1.713033
0.553300	-1.675706
0.553400	-1.755228
0.553500	-1.868508
0.553600	-1.927582
0.553700	-1.851305
0.553800	-1.754904
0.553900	-1.716603
0.554000	-1.732832
0.554100	-1.784765
0.554200	-1.811706
0.554300	-1.810407
0.554400	-1.793204
0.554500	-1.793854
0.554600	-1.811057
0.554700	-1.833777
0.554800	-1.838321
0.554900	-1.837997
0.555000	-1.837023
0.555100	-1.849033
0.555200	-1.846761
0.555300	-1.861691
0.555400	-1.850656
0.555500	-1.829558
0.555600	-1.854875
0.555700	-1.937644
0.555800	-1.970427
0.555900	-1.976918
0.556000	-1.934398
0.556100	-1.947706
0.556200	-1.950627
0.556300	-1.940241
0.556400	-1.949329
0.556500	-1.952899
0.556600	-1.962637
0.556700	-1.973348
0.556800	-1.973348
0.556900	-1.980813
0.557000	-1.986656
0.557100	-1.987630
0.557200	-1.994121
0.557300	-1.987954
0.557400	-2.011324
0.557500	-2.028852
0.557600	-2.042809
0.557700	-2.059038
0.557800	-2.080785
0.557900	-2.114866
0.558000	-2.222303
0.558100	-2.359602
0.558200	-2.379077
0.558300	-2.332661
0.558400	-2.240480
0.558500	-2.254761
0.558600	-2.369015
0.558700	-2.505664
0.558800	-2.575125
0.558900	-2.524490
0.559000	-2.461196
0.559100	-2.454056
0.559200	-2.524166
0.559300	-2.603689
0.559400	-2.684510
0.559500	-2.706582
0.559600	-2.664386
0.559700	-2.667307
0.559800	-2.660166
0.559900	-2.706582
0.560000	-2.749751
0.560100	-2.758191
0.560200	-2.770849
0.560300	-2.760138
0.560400	-2.794544
0.560500	-2.826678
0.560600	-2.843232
0.560700	-2.855566
0.560800	-2.863680
0.560900	-2.870497
0.561000	-2.881208
0.561100	-2.857189
0.561200	-2.796816
0.561300	-2.787728
0.561400	-2.858162
0.561500	-2.962354
0.561600	-3.027920
0.561700	-2.984750
0.561800	-2.898411
0.561900	-2.845504
0.562000	-2.895165
0.562100	-2.995786
0.562200	-3.070765
0.562300	-3.064922
0.562400	-3.021428
0.562500	-2.974363
0.562600	-2.939633
0.562700	-2.944826
0.562800	-2.946449
0.562900	-2.944177
0.563000	-2.953590
0.563100	-2.929895
0.563200	-2.916263
0.563300	-2.877313
0.563400	-2.847127
0.563500	-2.783184
0.563600	-2.746830
0.563700	-2.738716
0.563800	-2.707555
0.563900	-2.686458
0.564000	-2.600118
0.564100	-2.536824
0.564200	-2.440099
0.564300	-2.425492
0.564400	-2.399201
0.564500	-2.359926
0.564600	-2.330065
0.564700	-2.273587
0.564800	-2.220031
0.564900	-2.153492
0.565000	-2.128174
0.565100	-2.132718
0.565200	-2.126876
0.565300	-2.139534
0.565400	-2.142780
0.565500	-2.104155
0.565600	-2.085654
0.565700	-2.079487
0.565800	-2.054494
0.565900	-2.076241
0.566000	-2.075592
0.566100	-2.091496
0.566200	-2.055467
0.566300	-1.986980
0.566400	-1.867859
0.566500	-1.789309
0.566600	-1.912002
0.566700	-1.986656
0.566800	-2.052222
0.566900	-1.983735
0.567000	-1.871104
0.567100	-1.806837
0.567200	-1.859419
0.567300	-1.937968
0.567400	-1.991525
0.567500	-1.979840
0.567600	-1.884412
0.567700	-1.797424
0.567800	-1.771133
0.567900	-1.768536
0.568000	-1.815925
0.568100	-1.821119
0.568200	-1.813978
0.568300	-1.800345
0.568400	-1.772756
0.568500	-1.761071
0.568600	-1.748737
0.568700	-1.781844
0.568800	-1.744192
0.568900	-1.789309
0.569000	-1.777949
0.569100	-1.816899
0.569200	-1.800345
0.569300	-1.796775
0.569400	-1.790283
0.569500	-1.879868
0.569600	-1.981463
0.569700	-1.954198
0.569800	-1.896422
0.569900	-1.800994
0.570000	-1.817548
0.570100	-1.921739
0.570200	-2.002236
0.570300	-2.013921
0.570400	-1.952899
0.570500	-1.892202
0.570600	-1.878894
0.570700	-1.927906
0.570800	-1.976918
0.570900	-1.982112
0.571000	-2.012298
0.571100	-1.997367
0.571200	-2.021711
0.571300	-2.023983
0.571400	-2.023334
0.571500	-2.024307
0.571600	-2.018790
0.571700	-2.030150
0.571800	-2.057415
0.571900	-2.041835
0.572000	-2.028852
0.572100	-2.011973
0.572200	-2.010026
0.572300	-2.072021
0.572400	-2.114542
0.572500	-2.116164
0.572600	-2.099286
0.572700	-2.046055
0.572800	-2.074293
0.572900	-2.072346
0.573000	-2.063907
0.573100	-2.066503
0.573200	-2.056441
0.573300	-2.044756
0.573400	-2.046704
0.573500	-2.037940
0.573600	-2.048002
0.573700	-2.048651
0.573800	-2.042484
0.573900	-2.050599
0.574000	-2.036966
0.574100	-2.045081
0.574200	-2.041835
0.574300	-2.067477
0.574400	-2.075916
0.574500	-2.113892
0.574600	-2.161931
0.574700	-2.274561
0.574800	-2.369664
0.574900	-2.363497
0.575000	-2.292738
0.575100	-2.234637
0.575200	-2.274236
0.575300	-2.419325
0.575400	-2.547536
0.575500	-2.592004
0.575600	-2.522218
0.575700	-2.470609
0.575800	-2.468986
0.575900	-2.545588
0.576000	-2.619593
0.576100	-2.663737
0.576200	-2.673150
0.576300	-2.661465
0.576400	-2.653025
0.576500	-2.657894
0.576600	-2.660815
0.576700	-2.681913
0.576800	-2.701713
0.576900	-2.726706
0.577000	-2.756243
0.577100	-2.780587
0.577200	-2.783833
0.577300	-2.815966
0.577400	-2.817914
0.577500	-2.842907
0.577600	-2.851346
0.577700	-2.843232
0.577800	-2.755594
0.577900	-2.720539
0.578000	-2.702687
0.578100	-2.793895
0.578200	-2.873742
0.578300	-2.928273
0.578400	-2.856864
0.578500	-2.761436
0.578600	-2.736119
0.578700	-2.809799
0.578800	-2.896463
0.578900	-2.952292
0.579000	-2.923728
0.579100	-2.884129
0.579200	-2.855890
0.579300	-2.855241
0.579400	-2.863031
0.579500	-2.859461
0.579600	-2.844530
0.579700	-2.850372
0.579800	-2.846153
0.579900	-2.829274
0.580000	-2.782534
0.580100	-2.708529
0.580200	-2.663087
0.580300	-2.628032
0.580400	-2.617646
0.580500	-2.626085
0.580600	-2.562467
0.580700	-2.504691
0.580800	-2.459574
0.580900	-2.351163
0.581000	-2.324222
0.581100	-2.312862
0.581200	-2.262227
0.581300	-2.204127
0.581400	-2.143429
0.581500	-2.091821
0.581600	-2.061310
0.581700	-2.046379
0.581800	-2.025930
0.581900	-2.018465
0.582000	-2.031448
0.582100	-2.011324
0.582200	-2.029176
0.582300	-2.004508
0.582400	-2.018790
0.582500	-2.006131
0.582600	-1.994121
0.582700	-2.018140
0.582800	-1.995744
0.582900	-1.981787
0.583000	-1.894150
0.583100	-1.779572
0.583200	-1.748737
0.583300	-1.895773
0.583400	-1.965883
0.583500	-1.968479
0.583600	-1.907782
0.583700	-1.765615
0.583800	-1.740947
0.583900	-1.762045
0.584000	-1.857796
0.584100	-1.849357
0.584200	-1.817873
0.584300	-1.686417
0.584400	-1.664345
0.584500	-1.653959
0.584600	-1.633510
0.584700	-1.648765
0.584800	-1.620527
0.584900	-1.604297
0.585000	-1.605596
0.585100	-1.609815
0.585200	-1.601376
0.585300	-1.574111
0.585400	-1.588393
0.585500	-1.606894
0.585600	-1.646818
0.585700	-1.650388
0.585800	-1.677978
0.585900	-1.623772
0.586000	-1.621500
0.586100	-1.646169
0.586200	-1.788985
0.586300	-1.830532
0.586400	-1.822092
0.586500	-1.701023
0.586600	-1.641624
0.586700	-1.665968
0.586800	-1.789959
0.586900	-1.854875
0.587000	-1.854226
0.587100	-1.744192
0.587200	-1.675381
0.587300	-1.683820
0.587400	-1.737701
0.587500	-1.767238
0.587600	-1.774703
0.587700	-1.775352
0.587800	-1.729586
0.587900	-1.745815
0.588000	-1.763667
0.588100	-1.816250
0.588200	-1.810407
0.588300	-1.811057
0.588400	-1.828909
0.588500	-1.848059
0.588600	-1.838646
0.588700	-1.833777
0.588800	-1.806837
0.588900	-1.797749
0.589000	-1.835725
0.589100	-1.878894
0.589200	-1.874350
0.589300	-1.821768
0.589400	-1.814952
0.589500	-1.820794
0.589600	-1.823715
0.589700	-1.820469
0.589800	-1.816574
0.589900	-1.809109
0.590000	-1.807486
0.590100	-1.801644
0.590200	-1.815601
0.590300	-1.787362
0.590400	-1.803267
0.590500	-1.815601
0.590600	-1.818847
0.590700	-1.817224
0.590800	-1.828584
0.590900	-1.841567
0.591000	-1.876947
0.591100	-1.899668
0.591200	-1.945434
0.591300	-2.011000
0.591400	-2.154141
0.591500	-2.253463
0.591600	-2.220680
0.591700	-2.119735
0.591800	-2.080136
0.591900	-2.193415
0.592000	-2.363821
0.592100	-2.446590
0.592200	-2.465741
0.592300	-2.397903
0.592400	-2.375182
0.592500	-2.419974
0.592600	-2.510209
0.592700	-2.585837
0.592800	-2.624137
0.592900	-2.594600
0.593000	-2.609207
0.593100	-2.604987
0.593200	-2.637770
0.593300	-2.668281
0.593400	-2.674123
0.593500	-2.688405
0.593600	-2.715670
0.593700	-2.735794
0.593800	-2.762410
0.593900	-2.818888
0.594000	-2.820511
0.594100	-2.865952
0.594200	-2.912043
0.594300	-2.940282
0.594400	-2.919509
0.594500	-2.839337
0.594600	-2.812721
0.594700	-2.847127
0.594800	-2.944826
0.594900	-3.051939
0.595000	-3.033438
0.595100	-2.949695
0.595200	-2.885103
0.595300	-2.923728
0.595400	-3.039605
0.595500	-3.106794
0.595600	-3.108417
0.595700	-3.074011
0.595800	-3.022402
0.595900	-3.007146
0.596000	-3.024674
0.596100	-3.026946
0.596200	-3.029543
0.596300	-3.020454
0.596400	-2.996760
0.596500	-2.987671
0.596600	-2.973714
0.596700	-2.918535
0.596800	-2.852320
0.596900	-2.801036
0.597000	-2.791623
0.597100	-2.769876
0.597200	-2.755918
0.597300	-2.680940
