LabVIEW Measurement	
Writer_Version	2
Reader_Version	2
Separator	Tab
Decimal_Separator	.
Multi_Headings	Yes
X_Columns	One
Time_Pref	Relative
Operator	as989
Description	Time Domain Data
Date	1903/12/31
Time	19:00:00
***End_of_Header***	
	
Channels	1	
Samples	15000	
Date	1903/12/31	
Time	19:00:00	
X_Dimension	Time	
X0	0.0000000000000000E+0	
Delta_X	0.000100	
***End_of_Header***		
X_Value	Untitled	Comment
0.000000	-1.336517	Tare Values:0.000000, 0.000000, 0.000000, 0.000000\0D\0A
0.000100	-1.449147
0.000200	-1.482254
0.000300	-1.472192
0.000400	-1.379037
0.000500	-1.266407
0.000600	-1.260565
0.000700	-1.281662
0.000800	-1.356641
0.000900	-1.320288
0.001000	-1.295619
0.001100	-1.204087
0.001200	-1.203763
0.001300	-1.192402
0.001400	-1.216421
0.001500	-1.205061
0.001600	-1.195324
0.001700	-1.197596
0.001800	-1.167734
0.001900	-1.154102
0.002000	-1.138197
0.002100	-1.127486
0.002200	-1.111581
0.002300	-1.116775
0.002400	-1.154426
0.002500	-1.149882
0.002600	-1.119047
0.002700	-1.084641
0.002800	-1.064842
0.002900	-1.122942
0.003000	-1.219343
0.003100	-1.237844
0.003200	-1.158321
0.003300	-1.069710
0.003400	-1.072631
0.003500	-1.106713
0.003600	-1.216421
0.003700	-1.246608
0.003800	-1.210579
0.003900	-1.130732
0.004000	-1.069386
0.004100	-1.108336
0.004200	-1.144040
0.004300	-1.167734
0.004400	-1.201166
0.004500	-1.173901
0.004600	-1.166111
0.004700	-1.173252
0.004800	-1.198245
0.004900	-1.211877
0.005000	-1.202789
0.005100	-1.201815
0.005200	-1.215772
0.005300	-1.225185
0.005400	-1.224861
0.005500	-1.217395
0.005600	-1.204087
0.005700	-1.240116
0.005800	-1.296593
0.005900	-1.315744
0.006000	-1.318340
0.006100	-1.273872
0.006200	-1.278092
0.006300	-1.268679
0.006400	-1.274846
0.006500	-1.286531
0.006600	-1.289128
0.006700	-1.277767
0.006800	-1.281013
0.006900	-1.284584
0.007000	-1.299190
0.007100	-1.302111
0.007200	-1.314770
0.007300	-1.326455
0.007400	-1.337491
0.007500	-1.339438
0.007600	-1.338789
0.007700	-1.380660
0.007800	-1.380011
0.007900	-1.418961
0.008000	-1.423505
0.008100	-1.532240
0.008200	-1.661424
0.008300	-1.677653
0.008400	-1.634484
0.008500	-1.531915
0.008600	-1.562751
0.008700	-1.649739
0.008800	-1.788336
0.008900	-1.873052
0.009000	-1.854226
0.009100	-1.797099
0.009200	-1.782169
0.009300	-1.836374
0.009400	-1.924336
0.009500	-1.980813
0.009600	-1.992498
0.009700	-1.978866
0.009800	-1.987630
0.009900	-2.014245
0.010000	-2.044107
0.010100	-2.072670
0.010200	-2.100909
0.010300	-2.110647
0.010400	-2.130446
0.010500	-2.159334
0.010600	-2.184002
0.010700	-2.198933
0.010800	-2.191143
0.010900	-2.221979
0.011000	-2.248270
0.011100	-2.269368
0.011200	-2.218408
0.011300	-2.166799
0.011400	-2.171993
0.011500	-2.231391
0.011600	-2.325196
0.011700	-2.354409
0.011800	-2.323249
0.011900	-2.260929
0.012000	-2.211592
0.012100	-2.250217
0.012200	-2.338829
0.012300	-2.426466
0.012400	-2.437826
0.012500	-2.397578
0.012600	-2.382972
0.012700	-2.381998
0.012800	-2.399526
0.012900	-2.409263
0.013000	-2.409912
0.013100	-2.398227
0.013200	-2.404070
0.013300	-2.387191
0.013400	-2.388490
0.013500	-2.343697
0.013600	-2.322599
0.013700	-2.308642
0.013800	-2.278456
0.013900	-2.266122
0.014000	-2.247621
0.014100	-2.183353
0.014200	-2.110322
0.014300	-2.025281
0.014400	-2.009701
0.014500	-1.996393
0.014600	-1.962961
0.014700	-1.919143
0.014800	-1.867209
0.014900	-1.805214
0.015000	-1.763992
0.015100	-1.730560
0.015200	-1.727639
0.015300	-1.704593
0.015400	-1.716603
0.015500	-1.695181
0.015600	-1.665968
0.015700	-1.660775
0.015800	-1.622799
0.015900	-1.618579
0.016000	-1.600402
0.016100	-1.635457
0.016200	-1.641300
0.016300	-1.624422
0.016400	-1.554312
0.016500	-1.430970
0.016600	-1.382283
0.016700	-1.440059
0.016800	-1.502054
0.016900	-1.561128
0.017000	-1.497510
0.017100	-1.383257
0.017200	-1.277767
0.017300	-1.252125
0.017400	-1.318665
0.017500	-1.338140
0.017600	-1.315419
0.017700	-1.266407
0.017800	-1.197271
0.017900	-1.178770
0.018000	-1.169682
0.018100	-1.198245
0.018200	-1.162216
0.018300	-1.166760
0.018400	-1.165137
0.018500	-1.146312
0.018600	-1.155400
0.018700	-1.139820
0.018800	-1.144364
0.018900	-1.146636
0.019000	-1.184937
0.019100	-1.196622
0.019200	-1.209281
0.019300	-1.171629
0.019400	-1.165462
0.019500	-1.161892
0.019600	-1.259266
0.019700	-1.341061
0.019800	-1.320937
0.019900	-1.256670
0.020000	-1.181691
0.020100	-1.190455
0.020200	-1.257968
0.020300	-1.343658
0.020400	-1.341710
0.020500	-1.268355
0.020600	-1.200841
0.020700	-1.186884
0.020800	-1.217720
0.020900	-1.254073
0.021000	-1.254073
0.021100	-1.265433
0.021200	-1.244011
0.021300	-1.260240
0.021400	-1.260889
0.021500	-1.288803
0.021600	-1.270951
0.021700	-1.265758
0.021800	-1.272574
0.021900	-1.280364
0.022000	-1.273548
0.022100	-1.273548
0.022200	-1.268355
0.022300	-1.261538
0.022400	-1.300813
0.022500	-1.340736
0.022600	-1.342684
0.022700	-1.338140
0.022800	-1.296918
0.022900	-1.315744
0.023000	-1.312822
0.023100	-1.319639
0.023200	-1.316717
0.023300	-1.311524
0.023400	-1.306980
0.023500	-1.315094
0.023600	-1.301137
0.023700	-1.304383
0.023800	-1.287180
0.023900	-1.297242
0.024000	-1.294646
0.024100	-1.306006
0.024200	-1.320288
0.024300	-1.328402
0.024400	-1.347877
0.024500	-1.347877
0.024600	-1.377090
0.024700	-1.402732
0.024800	-1.497510
0.024900	-1.607868
0.025000	-1.615333
0.025100	-1.565997
0.025200	-1.490694
0.025300	-1.531591
0.025400	-1.621176
0.025500	-1.747763
0.025600	-1.809434
0.025700	-1.757825
0.025800	-1.702646
0.025900	-1.673758
0.026000	-1.738675
0.026100	-1.843515
0.026200	-1.892527
0.026300	-1.894799
0.026400	-1.882789
0.026500	-1.903238
0.026600	-1.947381
0.026700	-1.965883
0.026800	-1.992174
0.026900	-2.014895
0.027000	-2.061635
0.027100	-2.083382
0.027200	-2.150246
0.027300	-2.154465
0.027400	-2.165826
0.027500	-2.159983
0.027600	-2.206399
0.027700	-2.242752
0.027800	-2.255086
0.027900	-2.191792
0.028000	-2.144728
0.028100	-2.170045
0.028200	-2.269692
0.028300	-2.358953
0.028400	-2.379726
0.028500	-2.333960
0.028600	-2.266771
0.028700	-2.248594
0.028800	-2.316108
0.028900	-2.408614
0.029000	-2.484567
0.029100	-2.469636
0.029200	-2.419325
0.029300	-2.406342
0.029400	-2.396929
0.029500	-2.435230
0.029600	-2.425817
0.029700	-2.419325
0.029800	-2.420624
0.029900	-2.415430
0.030000	-2.410561
0.030100	-2.393034
0.030200	-2.375831
0.030300	-2.349215
0.030400	-2.325196
0.030500	-2.322924
0.030600	-2.326819
0.030700	-2.301826
0.030800	-2.237234
0.030900	-2.150895
0.031000	-2.096689
0.031100	-2.081759
0.031200	-2.069749
0.031300	-2.029825
0.031400	-1.973023
0.031500	-1.916221
0.031600	-1.880193
0.031700	-1.842216
0.031800	-1.824364
0.031900	-1.818522
0.032000	-1.804889
0.032100	-1.806837
0.032200	-1.807811
0.032300	-1.796775
0.032400	-1.795152
0.032500	-1.788660
0.032600	-1.788011
0.032700	-1.817873
0.032800	-1.811057
0.032900	-1.822092
0.033000	-1.786388
0.033100	-1.749710
0.033200	-1.600402
0.033300	-1.574111
0.033400	-1.651362
0.033500	-1.747438
0.033600	-1.726340
0.033700	-1.663047
0.033800	-1.553987
0.033900	-1.478359
0.034000	-1.485176
0.034100	-1.554961
0.034200	-1.534188
0.034300	-1.529643
0.034400	-1.438111
0.034500	-1.392670
0.034600	-1.366703
0.034700	-1.374493
0.034800	-1.365729
0.034900	-1.309577
0.035000	-1.297892
0.035100	-1.272899
0.035200	-1.258942
0.035300	-1.253748
0.035400	-1.239142
0.035500	-1.230703
0.035600	-1.227133
0.035700	-1.262837
0.035800	-1.269977
0.035900	-1.258293
0.036000	-1.220316
0.036100	-1.207009
0.036200	-1.225510
0.036300	-1.332297
0.036400	-1.379037
0.036500	-1.349825
0.036600	-1.271600
0.036700	-1.215448
0.036800	-1.225185
0.036900	-1.320612
0.037000	-1.379037
0.037100	-1.382932
0.037200	-1.311199
0.037300	-1.250827
0.037400	-1.270951
0.037500	-1.327753
0.037600	-1.367677
0.037700	-1.382608
0.037800	-1.384555
0.037900	-1.355018
0.038000	-1.372546
0.038100	-1.391696
0.038200	-1.421557
0.038300	-1.407276
0.038400	-1.409872
0.038500	-1.421233
0.038600	-1.403705
0.038700	-1.408250
0.038800	-1.389748
0.038900	-1.389748
0.039000	-1.414092
0.039100	-1.445577
0.039200	-1.449472
0.039300	-1.460832
0.039400	-1.462130
0.039500	-1.425452
0.039600	-1.445252
0.039700	-1.461481
0.039800	-1.464402
0.039900	-1.464727
0.040000	-1.470569
0.040100	-1.460507
0.040200	-1.464078
0.040300	-1.464402
0.040400	-1.456612
0.040500	-1.457262
0.040600	-1.479009
0.040700	-1.465376
0.040800	-1.479658
0.040900	-1.475438
0.041000	-1.483228
0.041100	-1.487123
0.041200	-1.507896
0.041300	-1.500756
0.041400	-1.580603
0.041500	-1.678627
0.041600	-1.763992
0.041700	-1.731209
0.041800	-1.667591
0.041900	-1.627343
0.042000	-1.696803
0.042100	-1.817224
0.042200	-1.914923
0.042300	-1.923687
0.042400	-1.875973
0.042500	-1.854551
0.042600	-1.884412
0.042700	-1.952899
0.042800	-2.027553
0.042900	-2.062608
0.043000	-2.053195
0.043100	-2.047353
0.043200	-2.055143
0.043300	-2.076565
0.043400	-2.105778
0.043500	-2.127525
0.043600	-2.153816
0.043700	-2.176862
0.043800	-2.190169
0.043900	-2.238532
0.044000	-2.261902
0.044100	-2.247296
0.044200	-2.276184
0.044300	-2.305072
0.044400	-2.316432
0.044500	-2.308318
0.044600	-2.254761
0.044700	-2.196012
0.044800	-2.248594
0.044900	-2.341750
0.045000	-2.400824
0.045100	-2.412834
0.045200	-2.361549
0.045300	-2.296308
0.045400	-2.310265
0.045500	-2.391411
0.045600	-2.475478
0.045700	-2.520271
0.045800	-2.493655
0.045900	-2.471259
0.046000	-2.454056
0.046100	-2.472232
0.046200	-2.490734
0.046300	-2.516051
0.046400	-2.517674
0.046500	-2.491707
0.046600	-2.500147
0.046700	-2.474180
0.046800	-2.469636
0.046900	-2.448213
0.047000	-2.390437
0.047100	-2.362523
0.047200	-2.346294
0.047300	-2.334284
0.047400	-2.268069
0.047500	-2.197310
0.047600	-2.086303
0.047700	-2.064556
0.047800	-2.039887
0.047900	-1.995420
0.048000	-1.936670
0.048100	-1.891228
0.048200	-1.845787
0.048300	-1.794827
0.048400	-1.755553
0.048500	-1.742894
0.048600	-1.708813
0.048700	-1.684469
0.048800	-1.667591
0.048900	-1.665643
0.049000	-1.630913
0.049100	-1.623448
0.049200	-1.605271
0.049300	-1.603324
0.049400	-1.609491
0.049500	-1.623123
0.049600	-1.609166
0.049700	-1.546846
0.049800	-1.452717
0.049900	-1.339114
0.050000	-1.322560
0.050100	-1.443304
0.050200	-1.465701
0.050300	-1.486474
0.050400	-1.339438
0.050500	-1.252125
0.050600	-1.198894
0.050700	-1.223562
0.050800	-1.285557
0.050900	-1.312498
0.051000	-1.246932
0.051100	-1.191753
0.051200	-1.141443
0.051300	-1.147610
0.051400	-1.160593
0.051500	-1.170006
0.051600	-1.145338
0.051700	-1.138846
0.051800	-1.111257
0.051900	-1.095352
0.052000	-1.095028
0.052100	-1.080421
0.052200	-1.071333
0.052300	-1.082694
0.052400	-1.098923
0.052500	-1.103142
0.052600	-1.079448
0.052700	-1.063219
0.052800	-1.031410
0.052900	-1.077825
0.053000	-1.176498
0.053100	-1.209605
0.053200	-1.155725
0.053300	-1.084316
0.053400	-1.053806
0.053500	-1.113853
0.053600	-1.196622
0.053700	-1.253424
0.053800	-1.215772
0.053900	-1.146312
0.054000	-1.106063
0.054100	-1.136250
0.054200	-1.174550
0.054300	-1.205710
0.054400	-1.232001
0.054500	-1.229080
0.054600	-1.233300
0.054700	-1.236870
0.054800	-1.263161
0.054900	-1.272250
0.055000	-1.289128
0.055100	-1.260889
0.055200	-1.282636
0.055300	-1.275495
0.055400	-1.280689
0.055500	-1.266083
0.055600	-1.267381
0.055700	-1.303409
0.055800	-1.354693
0.055900	-1.363133
0.056000	-1.374818
0.056100	-1.368001
0.056200	-1.366054
0.056300	-1.385529
0.056400	-1.383257
0.056500	-1.391047
0.056600	-1.390073
0.056700	-1.382932
0.056800	-1.378063
0.056900	-1.366054
0.057000	-1.380335
0.057100	-1.386827
0.057200	-1.388450
0.057300	-1.384555
0.057400	-1.392994
0.057500	-1.395266
0.057600	-1.418312
0.057700	-1.426102
0.057800	-1.453367
0.057900	-1.452717
0.058000	-1.483228
0.058100	-1.536784
0.058200	-1.679276
0.058300	-1.701023
0.058400	-1.700049
0.058500	-1.620202
0.058600	-1.588393
0.058700	-1.681873
0.058800	-1.796450
0.058900	-1.894474
0.059000	-1.893825
0.059100	-1.855200
0.059200	-1.825663
0.059300	-1.889281
0.059400	-1.968804
0.059500	-2.028202
0.059600	-2.035019
0.059700	-2.023983
0.059800	-2.040537
0.059900	-2.062284
0.060000	-2.076890
0.060100	-2.112594
0.060200	-2.157062
0.060300	-2.183353
0.060400	-2.181081
0.060500	-2.220680
0.060600	-2.267745
0.060700	-2.293711
0.060800	-2.277807
0.060900	-2.298580
0.061000	-2.333311
0.061100	-2.355058
0.061200	-2.311888
0.061300	-2.229119
0.061400	-2.209969
0.061500	-2.263201
0.061600	-2.356031
0.061700	-2.394657
0.061800	-2.374208
0.061900	-2.294036
0.062000	-2.238857
0.062100	-2.276509
0.062200	-2.346619
0.062300	-2.442046
0.062400	-2.466390
0.062500	-2.432309
0.062600	-2.413483
0.062700	-2.392060
0.062800	-2.408614
0.062900	-2.438151
0.063000	-2.455029
0.063100	-2.473531
0.063200	-2.482944
0.063300	-2.464767
0.063400	-2.440099
0.063500	-2.387191
0.063600	-2.369339
0.063700	-2.339802
0.063800	-2.332986
0.063900	-2.312862
0.064000	-2.293062
0.064100	-2.229769
0.064200	-2.173940
0.064300	-2.097663
0.064400	-2.092470
0.064500	-2.065530
0.064600	-2.030475
0.064700	-1.990551
0.064800	-1.956794
0.064900	-1.884737
0.065000	-1.826637
0.065100	-1.789634
0.065200	-1.785090
0.065300	-1.779247
0.065400	-1.767238
0.065500	-1.761720
0.065600	-1.742894
0.065700	-1.715305
0.065800	-1.678951
0.065900	-1.689663
0.066000	-1.661424
0.066100	-1.686741
0.066200	-1.638703
0.066300	-1.649090
0.066400	-1.557557
0.066500	-1.464078
0.066600	-1.331648
0.066700	-1.395591
0.066800	-1.495887
0.066900	-1.542951
0.067000	-1.482579
0.067100	-1.370273
0.067200	-1.265109
0.067300	-1.266083
0.067400	-1.309252
0.067500	-1.327104
0.067600	-1.344307
0.067700	-1.237519
0.067800	-1.193051
0.067900	-1.141443
0.068000	-1.155400
0.068100	-1.164164
0.068200	-1.189157
0.068300	-1.178770
0.068400	-1.152803
0.068500	-1.147935
0.068600	-1.132030
0.068700	-1.125214
0.068800	-1.133653
0.068900	-1.144689
0.069000	-1.144040
0.069100	-1.170655
0.069200	-1.170331
0.069300	-1.146636
0.069400	-1.123266
0.069500	-1.118722
0.069600	-1.229405
0.069700	-1.273548
0.069800	-1.302760
0.069900	-1.241414
0.070000	-1.179419
0.070100	-1.178770
0.070200	-1.241414
0.070300	-1.351772
0.070400	-1.373519
0.070500	-1.338464
0.070600	-1.280364
0.070700	-1.268355
0.070800	-1.300164
0.070900	-1.358588
0.071000	-1.377414
0.071100	-1.408574
0.071200	-1.406951
0.071300	-1.429023
0.071400	-1.449796
0.071500	-1.465051
0.071600	-1.488097
0.071700	-1.479333
0.071800	-1.483877
0.071900	-1.470245
0.072000	-1.460183
0.072100	-1.436488
0.072200	-1.421557
0.072300	-1.410846
0.072400	-1.429997
0.072500	-1.472517
0.072600	-1.489395
0.072700	-1.487448
0.072800	-1.463104
0.072900	-1.488421
0.073000	-1.492316
0.073100	-1.509195
0.073200	-1.503028
0.073300	-1.511142
0.073400	-1.513090
0.073500	-1.509195
0.073600	-1.523476
0.073700	-1.525424
0.073800	-1.518932
0.073900	-1.522503
0.074000	-1.527047
0.074100	-1.532240
0.074200	-1.541328
0.074300	-1.544250
0.074400	-1.560154
0.074500	-1.581252
0.074600	-1.598130
0.074700	-1.603973
0.074800	-1.698102
0.074900	-1.802942
0.075000	-1.826637
0.075100	-1.759123
0.075200	-1.696479
0.075300	-1.700698
0.075400	-1.800345
0.075500	-1.907782
0.075600	-1.951925
0.075700	-1.907782
0.075800	-1.854551
0.075900	-1.849033
0.076000	-1.893825
0.076100	-1.989253
0.076200	-2.040537
0.076300	-2.030799
0.076400	-2.027229
0.076500	-2.023334
0.076600	-2.040861
0.076700	-2.072346
0.076800	-2.086627
0.076900	-2.099286
0.077000	-2.133367
0.077100	-2.154141
0.077200	-2.200881
0.077300	-2.230742
0.077400	-2.239181
0.077500	-2.258981
0.077600	-2.294685
0.077700	-2.324547
0.077800	-2.347592
0.077900	-2.292738
0.078000	-2.233988
0.078100	-2.253139
0.078200	-2.331363
0.078300	-2.429387
0.078400	-2.435879
0.078500	-2.405368
0.078600	-2.347917
0.078700	-2.317081
0.078800	-2.367716
0.078900	-2.458924
0.079000	-2.513779
0.079100	-2.522543
0.079200	-2.479373
0.079300	-2.449511
0.079400	-2.442371
0.079500	-2.436528
0.079600	-2.440748
0.079700	-2.442046
0.079800	-2.456977
0.079900	-2.454056
0.080000	-2.434905
0.080100	-2.390437
0.080200	-2.350514
0.080300	-2.321301
0.080400	-2.329091
0.080500	-2.294036
0.080600	-2.290790
0.080700	-2.249568
0.080800	-2.179134
0.080900	-2.117138
0.081000	-2.021062
0.081100	-2.016517
0.081200	-1.999315
0.081300	-1.974646
0.081400	-1.934073
0.081500	-1.870455
0.081600	-1.816574
0.081700	-1.787687
0.081800	-1.766264
0.081900	-1.750360
0.082000	-1.758799
0.082100	-1.756527
0.082200	-1.767238
0.082300	-1.742245
0.082400	-1.726016
0.082500	-1.709138
0.082600	-1.715629
0.082700	-1.712383
0.082800	-1.728937
0.082900	-1.731534
0.083000	-1.719200
0.083100	-1.627992
0.083200	-1.555285
0.083300	-1.464078
0.083400	-1.567620
0.083500	-1.669863
0.083600	-1.720823
0.083700	-1.664345
0.083800	-1.578655
0.083900	-1.512116
0.084000	-1.540030
0.084100	-1.594560
0.084200	-1.630589
0.084300	-1.587419
0.084400	-1.538407
0.084500	-1.459534
0.084600	-1.429023
0.084700	-1.457911
0.084800	-1.479658
0.084900	-1.439085
0.085000	-1.421882
0.085100	-1.405977
0.085200	-1.382932
0.085300	-1.383257
0.085400	-1.392670
0.085500	-1.388775
0.085600	-1.373519
0.085700	-1.396565
0.085800	-1.400135
0.085900	-1.389424
0.086000	-1.353395
0.086100	-1.312822
0.086200	-1.328078
0.086300	-1.421557
0.086400	-1.472841
0.086500	-1.444278
0.086600	-1.347877
0.086700	-1.273223
0.086800	-1.272899
0.086900	-1.348526
0.087000	-1.403381
0.087100	-1.375142
0.087200	-1.290426
0.087300	-1.225510
0.087400	-1.210254
0.087500	-1.244011
0.087600	-1.281987
0.087700	-1.271925
0.087800	-1.282961
0.087900	-1.261863
0.088000	-1.268030
0.088100	-1.262188
0.088200	-1.283935
0.088300	-1.260240
0.088400	-1.261863
0.088500	-1.267056
0.088600	-1.286856
0.088700	-1.275820
0.088800	-1.280040
0.088900	-1.273872
0.089000	-1.276145
0.089100	-1.313472
0.089200	-1.355992
0.089300	-1.358588
0.089400	-1.370923
0.089500	-1.342035
0.089600	-1.349825
0.089700	-1.344956
0.089800	-1.334245
0.089900	-1.341386
0.090000	-1.334569
0.090100	-1.331324
0.090200	-1.333920
0.090300	-1.329376
0.090400	-1.343982
0.090500	-1.331324
0.090600	-1.351772
0.090700	-1.354369
0.090800	-1.355667
0.090900	-1.346903
0.091000	-1.355667
0.091100	-1.372546
0.091200	-1.381309
0.091300	-1.420259
0.091400	-1.469920
0.091500	-1.583849
0.091600	-1.687715
0.091700	-1.702321
0.091800	-1.630913
0.091900	-1.573137
0.092000	-1.610140
0.092100	-1.714980
0.092200	-1.828259
0.092300	-1.850006
0.092400	-1.800994
0.092500	-1.746140
0.092600	-1.760097
0.092700	-1.820145
0.092800	-1.900641
0.092900	-1.961014
0.093000	-1.941539
0.093100	-1.934723
0.093200	-1.944785
0.093300	-1.968804
0.093400	-1.988279
0.093500	-1.987305
0.093600	-2.005157
0.093700	-1.997367
0.093800	-2.017816
0.093900	-2.047353
0.094000	-2.077864
0.094100	-2.063907
0.094200	-2.084031
0.094300	-2.125577
0.094400	-2.157711
0.094500	-2.151544
0.094600	-2.088900
0.094700	-2.028852
0.094800	-2.039563
0.094900	-2.116489
0.095000	-2.188547
0.095100	-2.207372
0.095200	-2.136289
0.095300	-2.061310
0.095400	-2.049300
0.095500	-2.121682
0.095600	-2.239181
0.095700	-2.294036
0.095800	-2.283649
0.095900	-2.250542
0.096000	-2.227821
0.096100	-2.233664
0.096200	-2.259955
0.096300	-2.301826
0.096400	-2.301501
0.096500	-2.309941
0.096600	-2.284299
0.096700	-2.273912
0.096800	-2.239506
0.096900	-2.200232
0.097000	-2.153167
0.097100	-2.109997
0.097200	-2.088900
0.097300	-2.066179
0.097400	-2.012622
0.097500	-1.940241
0.097600	-1.881816
0.097700	-1.836049
0.097800	-1.812679
0.097900	-1.798398
0.098000	-1.754904
0.098100	-1.714980
0.098200	-1.673109
0.098300	-1.622474
0.098400	-1.577032
0.098500	-1.559830
0.098600	-1.554312
0.098700	-1.544250
0.098800	-1.539056
0.098900	-1.518608
0.099000	-1.490044
0.099100	-1.479333
0.099200	-1.477710
0.099300	-1.462130
0.099400	-1.468622
0.099500	-1.467648
0.099600	-1.478359
0.099700	-1.426102
0.099800	-1.356316
0.099900	-1.196946
0.100000	-1.202464
0.100100	-1.272574
0.100200	-1.321911
0.100300	-1.349176
0.100400	-1.256020
0.100500	-1.140145
0.100600	-1.096001
0.100700	-1.121968
0.100800	-1.185586
0.100900	-1.191753
0.101000	-1.142092
0.101100	-1.070359
0.101200	-1.026541
0.101300	-0.982722
0.101400	-0.988240
0.101500	-1.021023
0.101600	-1.001548
0.101700	-0.992460
0.101800	-0.980775
0.101900	-0.956431
0.102000	-0.947992
0.102100	-0.938904
0.102200	-0.939553
0.102300	-0.945071
0.102400	-0.937281
0.102500	-0.926570
0.102600	-0.911314
0.102700	-0.884698
0.102800	-0.878856
0.102900	-0.891515
0.103000	-0.993433
0.103100	-1.036603
0.103200	-1.013882
0.103300	-0.927868
0.103400	-0.891839
0.103500	-0.934035
0.103600	-1.015505
0.103700	-1.089834
0.103800	-1.076202
0.103900	-1.024593
0.104000	-0.975581
0.104100	-0.991811
0.104200	-1.053806
0.104300	-1.083667
0.104400	-1.096326
0.104500	-1.106388
0.104600	-1.078474
0.104700	-1.095028
0.104800	-1.121968
0.104900	-1.145987
0.105000	-1.139495
0.105100	-1.121968
0.105200	-1.116126
0.105300	-1.139495
0.105400	-1.119371
0.105500	-1.110283
0.105600	-1.082044
0.105700	-1.095677
0.105800	-1.141443
0.105900	-1.154426
0.106000	-1.147935
0.106100	-1.126837
0.106200	-1.124565
0.106300	-1.134951
0.106400	-1.142092
0.106500	-1.157347
0.106600	-1.132355
0.106700	-1.136250
0.106800	-1.139495
0.106900	-1.137873
0.107000	-1.127810
0.107100	-1.133653
0.107200	-1.120670
0.107300	-1.122617
0.107400	-1.139495
0.107500	-1.157023
0.107600	-1.179094
0.107700	-1.199219
0.107800	-1.207982
0.107900	-1.226808
0.108000	-1.247257
0.108100	-1.332297
0.108200	-1.455639
0.108300	-1.515362
0.108400	-1.496211
0.108500	-1.425777
0.108600	-1.419285
0.108700	-1.492641
0.108800	-1.630913
0.108900	-1.715954
0.109000	-1.735753
0.109100	-1.695505
0.109200	-1.672784
0.109300	-1.721472
0.109400	-1.813978
0.109500	-1.867534
0.109600	-1.904861
0.109700	-1.889281
0.109800	-1.878245
0.109900	-1.881166
0.110000	-1.898694
0.110100	-1.904536
0.110200	-1.885711
0.110300	-1.906484
0.110400	-1.906808
0.110500	-1.927582
0.110600	-1.935696
0.110700	-1.965558
0.110800	-1.978866
0.110900	-1.992498
0.111000	-2.037615
0.111100	-2.050923
0.111200	-2.028202
0.111300	-1.971400
0.111400	-1.937968
0.111500	-2.005806
0.111600	-2.098637
0.111700	-2.172642
0.111800	-2.169396
0.111900	-2.089549
0.112000	-2.043782
0.112100	-2.086952
0.112200	-2.172317
0.112300	-2.241129
0.112400	-2.270666
0.112500	-2.227821
0.112600	-2.195038
0.112700	-2.195363
0.112800	-2.207048
0.112900	-2.233339
0.113000	-2.256060
0.113100	-2.232041
0.113200	-2.213539
0.113300	-2.217110
0.113400	-2.191143
0.113500	-2.137912
0.113600	-2.091496
0.113700	-2.049950
0.113800	-2.055792
0.113900	-2.052222
0.114000	-2.055467
0.114100	-1.975295
0.114200	-1.899668
0.114300	-1.838321
0.114400	-1.780870
0.114500	-1.755228
0.114600	-1.707839
0.114700	-1.659476
0.114800	-1.611438
0.114900	-1.552040
0.115000	-1.503352
0.115100	-1.454340
0.115200	-1.441032
0.115300	-1.408574
0.115400	-1.406627
0.115500	-1.388450
0.115600	-1.365405
0.115700	-1.322235
0.115800	-1.329051
0.115900	-1.293997
0.116000	-1.285557
0.116100	-1.269004
0.116200	-1.275171
0.116300	-1.240441
0.116400	-1.194674
0.116500	-1.088536
0.116600	-1.011285
0.116700	-1.026216
0.116800	-1.152479
0.116900	-1.184937
0.117000	-1.195973
0.117100	-1.081395
0.117200	-0.992784
0.117300	-0.969090
0.117400	-1.017128
0.117500	-1.060947
0.117600	-1.067438
0.117700	-1.005118
0.117800	-0.957729
0.117900	-0.918455
0.118000	-0.918455
0.118100	-0.924947
0.118200	-0.905796
0.118300	-0.908068
0.118400	-0.895085
0.118500	-0.881777
0.118600	-0.872689
0.118700	-0.867171
0.118800	-0.888918
0.118900	-0.904498
0.119000	-0.940202
0.119100	-0.946694
0.119200	-0.951887
0.119300	-0.970388
0.119400	-0.983371
0.119500	-0.962274
0.119600	-1.020698
0.119700	-1.126188
0.119800	-1.152479
0.119900	-1.086913
0.120000	-1.021023
0.120100	-1.003820
0.120200	-1.055753
0.120300	-1.143390
0.120400	-1.192727
0.120500	-1.123266
0.120600	-1.045367
0.120700	-1.021672
0.120800	-1.057701
0.120900	-1.092756
0.121000	-1.090808
0.121100	-1.077500
0.121200	-1.057376
0.121300	-1.061596
0.121400	-1.099572
0.121500	-1.130407
0.121600	-1.122617
0.121700	-1.113204
0.121800	-1.114827
0.121900	-1.133004
0.122000	-1.154751
0.122100	-1.150207
0.122200	-1.147285
0.122300	-1.144364
0.122400	-1.169032
0.122500	-1.199868
0.122600	-1.200841
0.122700	-1.197596
0.122800	-1.164813
0.122900	-1.166111
0.123000	-1.186235
0.123100	-1.177796
0.123200	-1.165462
0.123300	-1.152154
0.123400	-1.149233
0.123500	-1.124240
0.123600	-1.132679
0.123700	-1.119696
0.123800	-1.124889
0.123900	-1.106388
0.124000	-1.091133
0.124100	-1.102493
0.124200	-1.082694
0.124300	-1.105739
0.124400	-1.100546
0.124500	-1.126188
0.124600	-1.136574
0.124700	-1.159295
0.124800	-1.247906
0.124900	-1.350149
0.125000	-1.393319
0.125100	-1.326130
0.125200	-1.246283
0.125300	-1.220966
0.125400	-1.298541
0.125500	-1.411820
0.125600	-1.474464
0.125700	-1.461481
0.125800	-1.398837
0.125900	-1.364106
0.126000	-1.385204
0.126100	-1.441032
0.126200	-1.485825
0.126300	-1.505624
0.126400	-1.506273
0.126500	-1.475763
0.126600	-1.482904
0.126700	-1.505624
0.126800	-1.515686
0.126900	-1.550092
0.127000	-1.556908
0.127100	-1.565997
0.127200	-1.586121
0.127300	-1.606569
0.127400	-1.615009
0.127500	-1.615333
0.127600	-1.619553
0.127700	-1.647791
0.127800	-1.650388
0.127900	-1.631238
0.128000	-1.589691
0.128100	-1.578980
0.128200	-1.649090
0.128300	-1.754904
0.128400	-1.805214
0.128500	-1.782818
0.128600	-1.695830
0.128700	-1.649739
0.128800	-1.697128
0.128900	-1.811057
0.129000	-1.895448
0.129100	-1.904861
0.129200	-1.863639
0.129300	-1.838971
0.129400	-1.843515
0.129500	-1.868832
0.129600	-1.886035
0.129700	-1.909405
0.129800	-1.920116
0.129900	-1.918818
0.130000	-1.913625
0.130100	-1.896422
0.130200	-1.842866
0.130300	-1.829558
0.130400	-1.802942
0.130500	-1.793854
0.130600	-1.787037
0.130700	-1.752632
0.130800	-1.681223
0.130900	-1.618904
0.131000	-1.541004
0.131100	-1.527047
0.131200	-1.497185
0.131300	-1.461481
0.131400	-1.417013
0.131500	-1.384880
0.131600	-1.303409
0.131700	-1.268355
0.131800	-1.246932
0.131900	-1.250178
0.132000	-1.224211
0.132100	-1.229729
0.132200	-1.208307
0.132300	-1.198569
0.132400	-1.182989
0.132500	-1.173901
0.132600	-1.176498
0.132700	-1.156374
0.132800	-1.186235
0.132900	-1.205710
0.133000	-1.168708
0.133100	-1.144689
0.133200	-0.987916
0.133300	-0.970713
0.133400	-0.990837
0.133500	-1.146636
0.133600	-1.141443
0.133700	-1.092106
0.133800	-0.994083
0.133900	-0.897357
0.134000	-0.925271
0.134100	-0.956107
0.134200	-1.009663
0.134300	-0.978178
0.134400	-0.892164
0.134500	-0.846073
0.134600	-0.803878
0.134700	-0.827572
0.134800	-0.832441
0.134900	-0.829520
0.135000	-0.822379
0.135100	-0.797710
0.135200	-0.762006
0.135300	-0.749672
0.135400	-0.734417
0.135500	-0.742207
0.135600	-0.765252
0.135700	-0.776937
0.135800	-0.763305
0.135900	-0.770770
0.136000	-0.742856
0.136100	-0.712021
0.136200	-0.703906
0.136300	-0.776937
0.136400	-0.842178
0.136500	-0.817835
0.136600	-0.750646
0.136700	-0.649052
0.136800	-0.646455
0.136900	-0.709100
0.137000	-0.768823
0.137100	-0.756489
0.137200	-0.683133
0.137300	-0.599716
0.137400	-0.570828
0.137500	-0.613997
0.137600	-0.651324
0.137700	-0.646131
0.137800	-0.634121
0.137900	-0.598742
0.138000	-0.622112
0.138100	-0.632498
0.138200	-0.662684
0.138300	-0.681186
0.138400	-0.672422
0.138500	-0.706503
0.138600	-0.727601
0.138700	-0.739610
0.138800	-0.745777
0.138900	-0.721434
0.139000	-0.725653
0.139100	-0.767524
0.139200	-0.821080
0.139300	-0.833415
0.139400	-0.789271
0.139500	-0.775314
0.139600	-0.784727
0.139700	-0.803228
0.139800	-0.787648
0.139900	-0.776613
0.140000	-0.781481
0.140100	-0.772718
0.140200	-0.770446
0.140300	-0.770446
0.140400	-0.753243
0.140500	-0.762656
0.140600	-0.754217
0.140700	-0.753567
0.140800	-0.727601
0.140900	-0.718512
0.141000	-0.729224
0.141100	-0.721109
0.141200	-0.730847
0.141300	-0.744154
0.141400	-0.774665
0.141500	-0.880479
0.141600	-0.987591
0.141700	-0.995381
0.141800	-0.932737
0.141900	-0.873014
0.142000	-0.910340
0.142100	-1.021672
0.142200	-1.143715
0.142300	-1.194025
0.142400	-1.158321
0.142500	-1.115152
0.142600	-1.126188
0.142700	-1.208956
0.142800	-1.307629
0.142900	-1.353395
0.143000	-1.346903
0.143100	-1.341061
0.143200	-1.330999
0.143300	-1.364106
0.143400	-1.398512
0.143500	-1.415715
0.143600	-1.420259
0.143700	-1.388775
0.143800	-1.415390
0.143900	-1.434216
0.144000	-1.432918
0.144100	-1.429023
0.144200	-1.394293
0.144300	-1.450770
0.144400	-1.452717
0.144500	-1.465051
0.144600	-1.408250
0.144700	-1.381309
0.144800	-1.413118
0.144900	-1.486149
0.145000	-1.565347
0.145100	-1.605920
0.145200	-1.564049
0.145300	-1.500431
0.145400	-1.500106
0.145500	-1.575085
0.145600	-1.675381
0.145700	-1.738675
0.145800	-1.714331
0.145900	-1.663371
0.146000	-1.633185
0.146100	-1.616307
0.146200	-1.646493
0.146300	-1.676030
0.146400	-1.674732
0.146500	-1.682522
0.146600	-1.664670
0.146700	-1.665319
0.146800	-1.640326
0.146900	-1.595534
0.147000	-1.566970
0.147100	-1.548794
0.147200	-1.529968
0.147300	-1.544899
0.147400	-1.501729
0.147500	-1.424479
0.147600	-1.390398
0.147700	-1.304708
0.147800	-1.303085
0.147900	-1.279715
0.148000	-1.262188
0.148100	-1.213825
0.148200	-1.154751
0.148300	-1.105090
0.148400	-1.059973
0.148500	-1.052183
0.148600	-1.023620
0.148700	-1.021023
0.148800	-1.006417
0.148900	-0.981749
0.149000	-0.966493
0.149100	-0.930789
0.149200	-0.892164
0.149300	-0.879505
0.149400	-0.888269
0.149500	-0.876584
0.149600	-0.881777
0.149700	-0.842827
0.149800	-0.804527
0.149900	-0.634446
0.150000	-0.641262
0.150100	-0.669501
0.150200	-0.762656
0.150300	-0.781806
0.150400	-0.699362
0.150500	-0.576346
0.150600	-0.539343
0.150700	-0.582837
0.150800	-0.690923
0.150900	-0.769472
0.151000	-0.734092
0.151100	-0.684431
0.151200	-0.614322
0.151300	-0.624708
0.151400	-0.632823
0.151500	-0.656517
0.151600	-0.661711
0.151700	-0.631525
0.151800	-0.607181
0.151900	-0.587381
0.152000	-0.583162
0.152100	-0.562064
0.152200	-0.561090
0.152300	-0.583811
0.152400	-0.563687
0.152500	-0.564985
0.152600	-0.572126
0.152700	-0.529606
0.152800	-0.487086
0.152900	-0.483191
0.153000	-0.573749
0.153100	-0.616594
0.153200	-0.586732
0.153300	-0.507534
0.153400	-0.411783
0.153500	-0.451057
0.153600	-0.525386
0.153700	-0.586083
0.153800	-0.578942
0.153900	-0.487735
0.154000	-0.410484
0.154100	-0.386465
0.154200	-0.410484
0.154300	-0.463391
0.154400	-0.465663
0.154500	-0.438398
0.154600	-0.410484
0.154700	-0.420871
0.154800	-0.437100
0.154900	-0.462742
0.155000	-0.467611
0.155100	-0.469558
0.155200	-0.480594
0.155300	-0.508183
0.155400	-0.518245
0.155500	-0.530904
0.155600	-0.527658
0.155700	-0.552651
0.155800	-0.606856
0.155900	-0.647754
0.156000	-0.656517
0.156100	-0.614322
0.156200	-0.608479
0.156300	-0.622436
0.156400	-0.612050
0.156500	-0.616594
0.156600	-0.607505
0.156700	-0.595821
0.156800	-0.598417
0.156900	-0.606856
0.157000	-0.613348
0.157100	-0.601988
0.157200	-0.601988
0.157300	-0.593873
0.157400	-0.570503
0.157500	-0.572451
0.157600	-0.543238
0.157700	-0.549405
0.157800	-0.541940
0.157900	-0.538694
0.158000	-0.546484
0.158100	-0.587706
0.158200	-0.688002
0.158300	-0.758761
0.158400	-0.762331
0.158500	-0.665281
0.158600	-0.597768
0.158700	-0.632823
0.158800	-0.764603
0.158900	-0.866522
0.159000	-0.891190
0.159100	-0.841204
0.159200	-0.799983
0.159300	-0.817185
0.159400	-0.898980
0.159500	-0.996355
0.159600	-1.058674
0.159700	-1.058674
0.159800	-1.067114
0.159900	-1.067763
0.160000	-1.075228
0.160100	-1.120670
0.160200	-1.151180
0.160300	-1.160269
0.160400	-1.182016
0.160500	-1.190130
0.160600	-1.218693
0.160700	-1.244335
0.160800	-1.272899
0.160900	-1.301787
0.161000	-1.328078
0.161100	-1.335219
0.161200	-1.348202
0.161300	-1.283935
0.161400	-1.272899
0.161500	-1.324507
0.161600	-1.418636
0.161700	-1.506598
0.161800	-1.538732
0.161900	-1.493939
0.162000	-1.451094
0.162100	-1.450445
0.162200	-1.518283
0.162300	-1.628316
0.162400	-1.663047
0.162500	-1.638379
0.162600	-1.590340
0.162700	-1.538732
0.162800	-1.548469
0.162900	-1.578655
0.163000	-1.582875
0.163100	-1.559830
0.163200	-1.545873
0.163300	-1.528020
0.163400	-1.485825
0.163500	-1.461806
0.163600	-1.384555
0.163700	-1.339763
0.163800	-1.314121
0.163900	-1.295944
0.164000	-1.308927
0.164100	-1.242388
0.164200	-1.166436
0.164300	-1.079123
0.164400	-1.032059
0.164500	-1.020698
0.164600	-0.984345
0.164700	-0.966169
0.164800	-0.928192
0.164900	-0.851916
0.165000	-0.809720
0.165100	-0.787973
0.165200	-0.763954
0.165300	-0.769796
0.165400	-0.747076
0.165500	-0.766551
0.165600	-0.732145
0.165700	-0.718837
0.165800	-0.699038
0.165900	-0.694169
0.166000	-0.718837
0.166100	-0.711047
0.166200	-0.733119
0.166300	-0.721434
0.166400	-0.683782
0.166500	-0.608479
0.166600	-0.472155
0.166700	-0.483840
0.166800	-0.574723
0.166900	-0.688326
0.167000	-0.637367
0.167100	-0.553949
0.167200	-0.413406
0.167300	-0.390360
0.167400	-0.420222
0.167500	-0.464689
0.167600	-0.480594
0.167700	-0.395554
0.167800	-0.310838
0.167900	-0.237807
0.168000	-0.218981
0.168100	-0.215735
0.168200	-0.224499
0.168300	-0.200805
0.168400	-0.188470
0.168500	-0.181654
0.168600	-0.172890
0.168700	-0.138809
0.168800	-0.141731
0.168900	-0.117712
0.169000	-0.152442
0.169100	-0.125502
0.169200	-0.129072
0.169300	-0.101158
0.169400	-0.074218
0.169500	-0.075841
0.169600	-0.074867
0.169700	-0.191716
0.169800	-0.188470
0.169900	-0.171592
0.170000	-0.081683
0.170100	-0.063182
0.170200	-0.095965
0.170300	-0.194313
0.170400	-0.219955
0.170500	-0.203401
0.170600	-0.162504
0.170700	-0.117387
0.170800	-0.114466
0.170900	-0.170943
0.171000	-0.180356
0.171100	-0.198208
0.171200	-0.186847
0.171300	-0.177435
0.171400	-0.192365
0.171500	-0.229692
0.171600	-0.241702
0.171700	-0.211840
0.171800	-0.206972
0.171900	-0.218981
0.172000	-0.192365
0.172100	-0.175487
0.172200	-0.147249
0.172300	-0.126151
0.172400	-0.133292
0.172500	-0.154065
0.172600	-0.175163
0.172700	-0.143029
0.172800	-0.107974
0.172900	-0.092719
0.173000	-0.094342
0.173100	-0.106027
0.173200	-0.084280
0.173300	-0.092719
0.173400	-0.088499
0.173500	-0.095640
0.173600	-0.116413
0.173700	-0.110571
0.173800	-0.112843
0.173900	-0.122905
0.174000	-0.136862
0.174100	-0.145626
0.174200	-0.144327
0.174300	-0.183602
0.174400	-0.178733
0.174500	-0.206972
0.174600	-0.225473
0.174700	-0.260528
0.174800	-0.325768
0.174900	-0.436775
0.175000	-0.492928
0.175100	-0.437100
0.175200	-0.361148
0.175300	-0.323821
0.175400	-0.396852
0.175500	-0.509157
0.175600	-0.598417
0.175700	-0.569529
0.175800	-0.501692
0.175900	-0.484814
0.176000	-0.506236
0.176100	-0.580890
0.176200	-0.641911
0.176300	-0.636393
0.176400	-0.624059
0.176500	-0.626331
0.176600	-0.638341
0.176700	-0.646780
0.176800	-0.676641
0.176900	-0.711696
0.177000	-0.740259
0.177100	-0.753243
0.177200	-0.775964
0.177300	-0.807773
0.177400	-0.824651
0.177500	-0.848670
0.177600	-0.859706
0.177700	-0.880479
0.177800	-0.884374
0.177900	-0.875286
0.178000	-0.822703
0.178100	-0.787648
0.178200	-0.832441
0.178300	-0.947992
0.178400	-0.995381
0.178500	-0.985319
0.178600	-0.898655
0.178700	-0.856784
0.178800	-0.884049
0.178900	-0.987591
0.179000	-1.077825
0.179100	-1.082694
0.179200	-1.023944
0.179300	-0.987916
0.179400	-0.988240
0.179500	-1.019075
0.179600	-1.011935
0.179700	-1.006417
0.179800	-0.997328
0.179900	-0.984021
0.180000	-0.990837
0.180100	-0.973959
0.180200	-0.919753
0.180300	-0.865873
0.180400	-0.848670
0.180500	-0.836336
0.180600	-0.829844
0.180700	-0.820431
0.180800	-0.762656
0.180900	-0.710073
0.181000	-0.610102
0.181100	-0.591601
0.181200	-0.579591
0.181300	-0.549081
0.181400	-0.492928
0.181500	-0.462742
0.181600	-0.409186
0.181700	-0.383869
0.181800	-0.362446
0.181900	-0.331611
0.182000	-0.324146
0.182100	-0.311162
0.182200	-0.305644
0.182300	-0.309215
0.182400	-0.297854
0.182500	-0.297205
0.182600	-0.269616
0.182700	-0.310838
0.182800	-0.304995
0.182900	-0.341348
0.183000	-0.312136
0.183100	-0.294933
0.183200	-0.178084
0.183300	-0.116738
0.183400	-0.159258
0.183500	-0.259554
0.183600	-0.267344
0.183700	-0.215086
0.183800	-0.128098
0.183900	-0.031697
0.184000	-0.025206
0.184100	-0.069998
0.184200	-0.133292
0.184300	-0.078762
0.184400	-0.035592
0.184500	0.070546
0.184600	0.137085
0.184700	0.155262
0.184800	0.120856
0.184900	0.121505
0.185000	0.127997
0.185100	0.167596
0.185200	0.192588
0.185300	0.205896
0.185400	0.201677
0.185500	0.197782
0.185600	0.179605
0.185700	0.202001
0.185800	0.178631
0.185900	0.184149
0.186000	0.181553
0.186100	0.215634
0.186200	0.258154
0.186300	0.197782
0.186400	0.114040
0.186500	0.127997
0.186600	0.185123
0.186700	0.307490
0.186800	0.311710
0.186900	0.253610
0.187000	0.158507
0.187100	0.148121
0.187200	0.205896
0.187300	0.309113
0.187400	0.347089
0.187500	0.325018
0.187600	0.248416
0.187700	0.255233
0.187800	0.267891
0.187900	0.315280
0.188000	0.302946
0.188100	0.291261
0.188200	0.274383
0.188300	0.287691
0.188400	0.298077
0.188500	0.302297
0.188600	0.284770
0.188700	0.276006
0.188800	0.274058
0.188900	0.291586
0.189000	0.299376
0.189100	0.245171
0.189200	0.200054
0.189300	0.157209
0.189400	0.159157
0.189500	0.174087
0.189600	0.166622
0.189700	0.169219
0.189800	0.168569
0.189900	0.161104
0.190000	0.149095
0.190100	0.154288
0.190200	0.162402
0.190300	0.161429
0.190400	0.147147
0.190500	0.142603
0.190600	0.121830
0.190700	0.142927
0.190800	0.120856
0.190900	0.127672
0.191000	0.094240
0.191100	0.097811
0.191200	0.084178
0.191300	0.083204
0.191400	0.060808
0.191500	-0.017416
0.191600	-0.127124
0.191700	-0.164451
0.191800	-0.106027
0.191900	-0.016442
0.192000	-0.004433
0.192100	-0.099535
0.192200	-0.217358
0.192300	-0.278380
0.192400	-0.233587
0.192500	-0.175812
0.192600	-0.149521
0.192700	-0.200805
0.192800	-0.291038
0.192900	-0.332585
0.193000	-0.357902
0.193100	-0.363095
0.193200	-0.354007
0.193300	-0.381272
0.193400	-0.426713
0.193500	-0.449110
0.193600	-0.466312
0.193700	-0.487086
0.193800	-0.502016
0.193900	-0.526360
0.194000	-0.549730
0.194100	-0.556871
0.194200	-0.570828
0.194300	-0.587057
0.194400	-0.613348
0.194500	-0.635744
0.194600	-0.604584
0.194700	-0.546484
0.194800	-0.546160
0.194900	-0.609453
0.195000	-0.691572
0.195100	-0.763305
0.195200	-0.742207
0.195300	-0.666579
0.195400	-0.659763
0.195500	-0.758111
0.195600	-0.839906
0.195700	-0.887620
0.195800	-0.894761
0.195900	-0.855162
0.196000	-0.833415
0.196100	-0.824651
0.196200	-0.858083
0.196300	-0.886971
0.196400	-0.872689
0.196500	-0.849644
0.196600	-0.822054
0.196700	-0.816861
0.196800	-0.789596
0.196900	-0.747400
0.197000	-0.689949
0.197100	-0.639315
0.197200	-0.601663
0.197300	-0.588031
0.197400	-0.549081
0.197500	-0.459172
0.197600	-0.398150
0.197700	-0.310513
0.197800	-0.282275
0.197900	-0.260528
0.198000	-0.214762
0.198100	-0.161206
0.198200	-0.114466
0.198300	-0.045654
0.198400	0.010823
0.198500	0.014718
0.198600	0.049448
0.198700	0.050422
0.198800	0.076064
0.198900	0.084178
0.199000	0.117610
0.199100	0.109171
0.199200	0.134488
0.199300	0.120207
0.199400	0.094565
0.199500	0.074765
0.199600	0.061457
0.199700	0.074441
0.199800	0.108522
0.199900	0.201352
0.200000	0.284770
0.200100	0.171815
0.200200	0.086450
0.200300	0.025104
0.200400	0.108197
0.200500	0.158183
0.200600	0.236082
0.200700	0.216932
0.200800	0.160130
0.200900	0.121830
0.201000	0.180579
0.201100	0.243548
0.201200	0.300350
0.201300	0.300025
0.201400	0.300350
0.201500	0.307166
0.201600	0.296455
0.201700	0.300999
0.201800	0.335729
0.201900	0.366889
0.202000	0.373056
0.202100	0.395777
0.202200	0.396750
0.202300	0.404540
0.202400	0.387013
0.202500	0.388311
0.202600	0.383767
0.202700	0.415251
0.202800	0.453227
0.202900	0.454201
0.203000	0.378574
0.203100	0.308789
0.203200	0.331509
0.203300	0.413953
0.203400	0.511977
0.203500	0.486659
0.203600	0.432454
0.203700	0.374030
0.203800	0.377600
0.203900	0.456473
0.204000	0.551251
0.204100	0.566831
0.204200	0.541514
0.204300	0.497371
0.204400	0.497371
0.204500	0.483414
0.204600	0.507433
0.204700	0.463614
0.204800	0.464588
0.204900	0.429858
0.205000	0.438621
0.205100	0.402268
0.205200	0.389934
0.205300	0.381170
0.205400	0.360073
0.205500	0.424664
0.205600	0.603833
0.205700	0.651222
0.205800	0.390583
0.205900	0.307490
0.206000	0.308464
0.206100	0.390259
0.206200	0.628826
0.206300	0.601237
0.206400	0.601561
0.206500	0.617466
0.206600	0.637914
0.206700	0.659012
0.206800	0.709322
0.206900	0.693418
0.207000	0.765150
0.207100	0.773589
0.207200	0.726201
0.207300	0.802802
0.207400	0.855384
0.207500	0.792091
0.207600	0.679785
0.207700	0.600263
0.207800	0.381170
0.207900	0.406488
0.208000	0.214335
0.208100	0.219529
0.208200	0.112417
0.208300	0.039061
0.208400	0.042956
0.208500	0.117610
0.208600	0.193238
0.208700	0.157534
0.208800	0.044579
0.208900	-0.055067
0.209000	-0.068700
0.209100	-0.022609
0.209200	0.024455
0.209300	0.006279
0.209400	-0.068375
0.209500	-0.151144
0.209600	-0.194313
0.209700	-0.178408
0.209800	-0.171268
0.209900	-0.181005
0.210000	-0.222551
0.210100	-0.242026
0.210200	-0.274160
0.210300	-0.263773
0.210400	-0.272537
0.210500	-0.322198
0.210600	-0.366990
0.210700	-0.384193
0.210800	-0.364718
0.210900	-0.376728
0.211000	-0.417625
0.211100	-0.451057
0.211200	-0.473778
0.211300	-0.428661
0.211400	-0.393931
0.211500	-0.438398
0.211600	-0.530255
0.211700	-0.626656
0.211800	-0.655544
0.211900	-0.620489
0.212000	-0.570828
0.212100	-0.566608
0.212200	-0.631525
0.212300	-0.736365
0.212400	-0.800632
0.212500	-0.795763
0.212600	-0.735391
0.212700	-0.696441
0.212800	-0.685730
0.212900	-0.716565
0.213000	-0.731171
0.213100	-0.736689
0.213200	-0.713968
0.213300	-0.675668
0.213400	-0.659763
0.213500	-0.666904
0.213600	-0.626980
0.213700	-0.589329
0.213800	-0.563687
0.213900	-0.541615
0.214000	-0.544212
0.214100	-0.495200
0.214200	-0.428336
0.214300	-0.337129
0.214400	-0.295582
0.214500	-0.284871
0.214600	-0.237482
0.214700	-0.222227
0.214800	-0.182303
0.214900	-0.140108
0.215000	-0.079736
0.215100	-0.049549
0.215200	-0.043382
0.215300	-0.028452
0.215400	-0.030399
0.215500	-0.013521
0.215600	-0.027153
0.215700	0.004007
0.215800	0.028026
0.215900	0.060159
0.216000	0.071844
0.216100	0.108846
0.216200	0.102355
0.216300	0.128321
0.216400	0.176684
0.216500	0.240951
0.216600	0.388960
0.216700	0.416874
0.216800	0.323719
0.216900	0.269514
0.217000	0.223099
0.217100	0.319824
0.217200	0.424664
0.217300	0.476597
0.217400	0.448034
0.217500	0.391232
0.217600	0.359099
0.217700	0.411356
0.217800	0.475624
0.217900	0.523337
0.218000	0.516196
0.218100	0.519767
0.218200	0.496397
0.218300	0.499318
0.218400	0.522688
0.218500	0.526907
0.218600	0.530478
0.218700	0.530802
0.218800	0.527557
0.218900	0.525934
0.219000	0.489581
0.219100	0.492826
0.219200	0.463614
0.219300	0.479519
0.219400	0.491853
0.219500	0.538592
0.219600	0.499318
0.219700	0.436349
0.219800	0.413304
0.219900	0.450955
0.220000	0.549628
0.220100	0.602210
0.220200	0.604807
0.220300	0.534048
0.220400	0.495748
0.220500	0.514249
0.220600	0.589227
0.220700	0.685952
0.220800	0.908940
0.220900	0.667127
0.221000	0.609351
0.221100	0.670697
0.221200	0.888491
0.221300	1.332519
0.221400	1.454886
0.221500	1.382180
0.221600	1.213722
0.221700	1.314992
0.221800	1.339011
0.221900	1.373416
0.222000	1.321159
0.222100	1.416586
0.222200	1.691182
0.222300	1.753177
0.222400	1.737922
0.222500	1.407822
0.222600	1.232548
0.222700	1.199116
0.222800	1.430867
0.222900	1.599325
0.223000	1.591211
0.223100	1.683716
0.223200	1.724938
0.223300	1.735325
0.223400	1.746361
0.223500	1.718771
0.223600	1.751879
0.223700	1.737922
0.223800	1.731105
0.223900	1.668137
0.224000	1.622695
0.224100	1.548041
0.224200	1.469817
0.224300	1.398085
0.224400	1.345178
0.224500	1.150104
0.224600	1.124462
0.224700	0.915107
0.224800	0.453227
0.224900	0.191615
0.225000	0.132865
0.225100	0.140006
0.225200	0.219204
0.225300	0.275032
0.225400	0.178956
0.225500	0.044904
0.225600	-0.067401
0.225700	-0.064480
0.225800	-0.032996
0.225900	0.002708
0.226000	-0.067401
0.226100	-0.131019
0.226200	-0.206322
0.226300	-0.235210
0.226400	-0.220604
0.226500	-0.227745
0.226600	-0.240728
0.226700	-0.257282
0.226800	-0.253387
0.226900	-0.263449
0.227000	-0.302399
0.227100	-0.317979
0.227200	-0.343945
0.227300	-0.338752
0.227400	-0.370885
0.227500	-0.343296
0.227600	-0.373807
0.227700	-0.410809
0.227800	-0.436126
0.227900	-0.419573
0.228000	-0.366017
0.228100	-0.340050
0.228200	-0.371535
0.228300	-0.454627
0.228400	-0.549730
0.228500	-0.542589
0.228600	-0.482866
0.228700	-0.416976
0.228800	-0.445215
0.228900	-0.527009
0.229000	-0.627630
0.229100	-0.660088
0.229200	-0.630551
0.229300	-0.614971
0.229400	-0.567257
0.229500	-0.564985
0.229600	-0.587057
0.229700	-0.596470
0.229800	-0.579916
0.229900	-0.563362
0.230000	-0.561090
0.230100	-0.523763
0.230200	-0.505911
0.230300	-0.455926
0.230400	-0.404317
0.230500	-0.387114
0.230600	-0.381921
0.230700	-0.386141
0.230800	-0.307916
0.230900	-0.251439
0.231000	-0.156661
0.231100	-0.131669
0.231200	-0.104404
0.231300	-0.080385
0.231400	-0.032996
0.231500	0.015691
0.231600	0.079309
0.231700	0.133190
0.231800	0.162402
0.231900	0.182202
0.232000	0.189667
0.232100	0.214660
0.232200	0.207844
0.232300	0.219204
0.232400	0.250364
0.232500	0.271462
0.232600	0.265944
0.232700	0.290288
0.232800	0.261075
0.232900	0.265944
0.233000	0.229266
0.233100	0.300674
0.233200	0.377925
0.233300	0.510029
0.233400	0.486984
0.233500	0.398698
0.233600	0.336703
0.233700	0.372082
0.233800	0.475948
0.233900	0.560989
0.234000	0.574946
0.234100	0.548005
0.234200	0.466535
0.234300	0.484063
0.234400	0.537294
0.234500	0.620387
0.234600	0.637590
0.234700	0.643432
0.234800	0.641485
0.234900	0.613571
0.235000	0.630124
0.235100	0.652521
0.235200	0.648950
0.235300	0.657389
0.235400	0.689847
0.235500	0.718735
0.235600	0.690172
0.235700	0.684005
0.235800	0.664530
0.235900	0.656091
0.236000	0.662907
0.236100	0.692120
0.236200	0.697313
0.236300	0.672320
0.236400	0.564234
0.236500	0.560339
0.236600	0.569103
0.236700	0.683680
0.236800	0.700883
0.236900	0.648950
0.237000	0.553199
0.237100	0.512301
0.237200	0.538917
0.237300	0.648301
0.237400	0.785599
0.237500	0.783002
0.237600	0.603833
0.237700	0.590201
0.237800	0.584358
0.237900	0.926792
0.238000	1.157894
0.238100	1.168605
0.238200	1.064090
0.238300	1.151078
0.238400	1.279288
0.238500	1.382505
0.238600	1.450018
0.238700	1.509741
0.238800	1.662619
0.238900	1.799917
0.239000	1.904107
0.239100	1.930399
0.239200	1.660996
0.239300	1.517206
0.239400	1.505846
0.239500	1.643144
0.239600	1.604518
0.239700	1.517206
0.239800	1.490915
0.239900	1.456185
0.240000	1.464948
0.240100	1.444175
0.240200	1.446123
0.240300	1.371469
0.240400	1.371469
0.240500	1.332844
0.240600	1.306228
0.240700	1.280911
0.240800	1.304605
0.240900	1.323106
0.241000	1.192949
0.241100	1.071231
0.241200	0.898878
0.241300	0.809293
0.241400	0.551251
0.241500	0.236407
0.241600	0.108522
0.241700	0.050746
0.241800	0.094565
0.241900	0.189018
0.242000	0.191290
0.242100	0.080608
0.242200	-0.047927
0.242300	-0.116738
0.242400	-0.119010
0.242500	-0.050199
0.242600	-0.047602
0.242700	-0.111869
0.242800	-0.219306
0.242900	-0.282599
0.243000	-0.302723
0.243100	-0.310513
0.243200	-0.284222
0.243300	-0.296232
0.243400	-0.340050
0.243500	-0.361797
0.243600	-0.383219
0.243700	-0.393281
0.243800	-0.416327
0.243900	-0.447811
0.244000	-0.459496
0.244100	-0.472155
0.244200	-0.478322
0.244300	-0.510131
0.244400	-0.522140
0.244500	-0.537720
0.244600	-0.497148
0.244700	-0.432231
0.244800	-0.401071
0.244900	-0.441644
0.245000	-0.529930
0.245100	-0.590303
0.245200	-0.575696
0.245300	-0.490331
0.245400	-0.435477
0.245500	-0.475076
0.245600	-0.571152
0.245700	-0.655868
0.245800	-0.669176
0.245900	-0.634770
0.246000	-0.604260
0.246100	-0.578293
0.246200	-0.593548
0.246300	-0.627630
0.246400	-0.636718
0.246500	-0.633797
0.246600	-0.619515
0.246700	-0.621787
0.246800	-0.609778
0.246900	-0.590952
0.247000	-0.553949
0.247100	-0.522790
0.247200	-0.526360
0.247300	-0.520193
0.247400	-0.491630
0.247500	-0.417625
0.247600	-0.366017
0.247700	-0.299153
0.247800	-0.288442
0.247900	-0.261177
0.248000	-0.222876
0.248100	-0.171592
0.248200	-0.128747
0.248300	-0.068051
0.248400	-0.026829
0.248500	-0.005731
0.248600	0.000761
0.248700	0.015367
0.248800	0.015367
0.248900	0.014718
0.249000	0.012446
0.249100	0.044255
0.249200	0.023806
0.249300	0.044255
0.249400	0.010174
0.249500	0.019586
0.249600	-0.027153
0.249700	0.006279
0.249800	0.039711
0.249900	0.184474
0.250000	0.235758
0.250100	0.208493
0.250200	0.109171
0.250300	0.073467
0.250400	0.092293
0.250500	0.214985
0.250600	0.287366
0.250700	0.273085
0.250800	0.223424
0.250900	0.169543
0.251000	0.184474
0.251100	0.239977
0.251200	0.317877
0.251300	0.333132
0.251400	0.323719
0.251500	0.305867
0.251600	0.316903
0.251700	0.337352
0.251800	0.371108
0.251900	0.383767
0.252000	0.382793
0.252100	0.428235
0.252200	0.413629
0.252300	0.436349
0.252400	0.405839
0.252500	0.421094
0.252600	0.394803
0.252700	0.422392
0.252800	0.449008
0.252900	0.463614
0.253000	0.396426
0.253100	0.334106
0.253200	0.342870
0.253300	0.387337
0.253400	0.471729
0.253500	0.452903
0.253600	0.408435
0.253700	0.321772
0.253800	0.300674
0.253900	0.341247
0.254000	0.393504
0.254100	0.433753
0.254200	0.387662
0.254300	0.312034
0.254400	0.319500
0.254500	0.306192
0.254600	0.323070
0.254700	0.327614
0.254800	0.303595
0.254900	0.287042
0.255000	0.282822
0.255100	0.277953
0.255200	0.265944
0.255300	0.255882
0.255400	0.265295
0.255500	0.274058
0.255600	0.291261
0.255700	0.286717
0.255800	0.264321
0.255900	0.222125
0.256000	0.195834
0.256100	0.217257
0.256200	0.236407
0.256300	0.211414
0.256400	0.198106
0.256500	0.205896
0.256600	0.172140
0.256700	0.160779
0.256800	0.155586
0.256900	0.147147
0.257000	0.143901
0.257100	0.134164
0.257200	0.134813
0.257300	0.125725
0.257400	0.142603
0.257500	0.138383
0.257600	0.124426
0.257700	0.111768
0.257800	0.094889
0.257900	0.083204
0.258000	0.064054
0.258100	0.008226
0.258200	-0.099210
0.258300	-0.200155
0.258400	-0.238131
0.258500	-0.182953
0.258600	-0.144652
0.258700	-0.175487
0.258800	-0.302399
0.258900	-0.429310
0.259000	-0.492279
0.259100	-0.473778
0.259200	-0.423143
0.259300	-0.428336
0.259400	-0.513377
0.259500	-0.599716
0.259600	-0.669176
0.259700	-0.686379
0.259800	-0.717863
0.259900	-0.745128
0.260000	-0.771419
0.260100	-0.825625
0.260200	-0.863925
0.260300	-0.907419
0.260400	-0.921701
0.260500	-0.962274
0.260600	-0.977529
0.260700	-1.002846
0.260800	-1.015180
0.260900	-1.027190
0.261000	-1.074904
0.261100	-1.096326
0.261200	-1.110283
0.261300	-1.056402
0.261400	-1.006417
0.261500	-1.004794
0.261600	-1.042770
0.261700	-1.140469
0.261800	-1.154102
0.261900	-1.095677
0.262000	-0.991161
0.262100	-0.957080
0.262200	-0.991161
0.262300	-1.061271
0.262400	-1.096326
0.262500	-1.079448
0.262600	-1.004794
0.262700	-0.952861
0.262800	-0.926894
0.262900	-0.927543
0.263000	-0.946694
0.263100	-0.928842
0.263200	-0.916183
0.263300	-0.906121
0.263400	-0.900278
0.263500	-0.890541
0.263600	-0.839257
0.263700	-0.795438
0.263800	-0.769147
0.263900	-0.758436
0.264000	-0.769472
0.264100	-0.736689
0.264200	-0.656517
0.264300	-0.590303
0.264400	-0.539992
0.264500	-0.529606
0.264600	-0.513701
0.264700	-0.480919
0.264800	-0.454952
0.264900	-0.409511
0.265000	-0.369262
0.265100	-0.359525
0.265200	-0.363420
0.265300	-0.370561
0.265400	-0.369912
0.265500	-0.391983
0.265600	-0.416002
0.265700	-0.410809
0.265800	-0.424441
0.265900	-0.438398
0.266000	-0.469558
0.266100	-0.500718
0.266200	-0.524737
0.266300	-0.543887
0.266400	-0.527009
0.266500	-0.456900
0.266600	-0.345893
0.266700	-0.306943
0.266800	-0.403019
0.266900	-0.482217
0.267000	-0.531878
0.267100	-0.457224
0.267200	-0.371859
0.267300	-0.303372
0.267400	-0.329988
0.267500	-0.385816
0.267600	-0.378351
0.267700	-0.331611
0.267800	-0.268642
0.267900	-0.206322
0.268000	-0.211191
0.268100	-0.218657
0.268200	-0.242026
0.268300	-0.207296
0.268400	-0.191392
0.268500	-0.159258
0.268600	-0.161855
0.268700	-0.153416
0.268800	-0.138485
0.268900	-0.105702
0.269000	-0.139459
0.269100	-0.156337
0.269200	-0.187172
0.269300	-0.151144
0.269400	-0.144976
0.269500	-0.082981
0.269600	-0.079411
0.269700	-0.154389
0.269800	-0.184900
0.269900	-0.160232
0.270000	-0.099535
0.270100	-0.041110
0.270200	-0.057989
0.270300	-0.144003
0.270400	-0.230017
0.270500	-0.226771
0.270600	-0.155363
0.270700	-0.069998
0.270800	-0.061884
0.270900	-0.106351
0.271000	-0.169645
0.271100	-0.158933
0.271200	-0.156661
0.271300	-0.131993
0.271400	-0.156986
0.271500	-0.158933
0.271600	-0.198857
0.271700	-0.222551
0.271800	-0.211840
0.271900	-0.235859
0.272000	-0.251764
0.272100	-0.257282
0.272200	-0.252088
0.272300	-0.234886
0.272400	-0.235859
0.272500	-0.297854
0.272600	-0.336480
0.272700	-0.350761
0.272800	-0.311487
0.272900	-0.286819
0.273000	-0.308890
0.273100	-0.321224
0.273200	-0.337778
0.273300	-0.327716
0.273400	-0.319601
0.273500	-0.321549
0.273600	-0.315706
0.273700	-0.293959
0.273800	-0.283248
0.273900	-0.286819
0.274000	-0.263124
0.274100	-0.264098
0.274200	-0.282924
0.274300	-0.288442
0.274400	-0.293635
0.274500	-0.309215
0.274600	-0.294284
0.274700	-0.320900
0.274800	-0.367315
0.274900	-0.490656
0.275000	-0.584460
0.275100	-0.589653
0.275200	-0.516947
0.275300	-0.489033
0.275400	-0.548107
0.275500	-0.674369
0.275600	-0.789596
0.275700	-0.834064
0.275800	-0.794465
0.275900	-0.753243
0.276000	-0.780508
0.276100	-0.889243
0.276200	-0.975581
0.276300	-1.019075
0.276400	-1.014531
0.276500	-1.015505
0.276600	-1.023944
0.276700	-1.073930
0.276800	-1.111257
0.276900	-1.136574
0.277000	-1.157997
0.277100	-1.158646
0.277200	-1.160918
0.277300	-1.190455
0.277400	-1.185911
0.277500	-1.189481
0.277600	-1.181042
0.277700	-1.204736
0.277800	-1.213825
0.277900	-1.212202
0.278000	-1.155400
0.278100	-1.132355
0.278200	-1.172278
0.278300	-1.261538
0.278400	-1.354693
0.278500	-1.369949
0.278600	-1.322235
0.278700	-1.254398
0.278800	-1.267056
0.278900	-1.335868
0.279000	-1.430970
0.279100	-1.474464
0.279200	-1.424154
0.279300	-1.363133
0.279400	-1.339763
0.279500	-1.350798
0.279600	-1.382608
0.279700	-1.365080
0.279800	-1.345930
0.279900	-1.308603
0.280000	-1.293997
0.280100	-1.291400
0.280200	-1.264135
0.280300	-1.223238
0.280400	-1.185586
0.280500	-1.164813
0.280600	-1.162865
0.280700	-1.176173
0.280800	-1.135925
0.280900	-1.109634
0.281000	-1.062894
0.281100	-1.024269
0.281200	-1.010636
0.281300	-1.024593
0.281400	-1.018751
0.281500	-0.999601
0.281600	-0.950264
0.281700	-0.925596
0.281800	-0.908068
0.281900	-0.903200
0.282000	-0.910665
0.282100	-0.912613
0.282200	-0.927219
0.282300	-0.897682
0.282400	-0.887944
0.282500	-0.858732
0.282600	-0.893787
0.282700	-0.857109
0.282800	-0.898655
0.282900	-0.867820
0.283000	-0.872364
0.283100	-0.825300
0.283200	-0.759410
0.283300	-0.610751
0.283400	-0.629577
0.283500	-0.723057
0.283600	-0.810694
0.283700	-0.790570
0.283800	-0.712995
0.283900	-0.604584
0.284000	-0.576670
0.284100	-0.619515
0.284200	-0.708775
0.284300	-0.710723
0.284400	-0.672097
0.284500	-0.569854
0.284600	-0.545835
0.284700	-0.524737
0.284800	-0.567257
0.284900	-0.559143
0.285000	-0.550054
0.285100	-0.522465
0.285200	-0.490007
0.285300	-0.464689
0.285400	-0.432231
0.285500	-0.404317
0.285600	-0.390685
0.285700	-0.424766
0.285800	-0.368289
0.285900	-0.371859
0.286000	-0.332909
0.286100	-0.307267
0.286200	-0.256308
0.286300	-0.258255
0.286400	-0.363095
0.286500	-0.382895
0.286600	-0.335831
0.286700	-0.236184
0.286800	-0.187497
0.286900	-0.222551
0.287000	-0.299802
0.287100	-0.359850
0.287200	-0.328690
0.287300	-0.245597
0.287400	-0.200480
0.287500	-0.209244
0.287600	-0.281625
0.287700	-0.304021
0.287800	-0.316356
0.287900	-0.319926
0.288000	-0.319277
0.288100	-0.336155
0.288200	-0.333234
0.288300	-0.334208
0.288400	-0.320251
0.288500	-0.318303
0.288600	-0.317005
0.288700	-0.325119
0.288800	-0.315057
0.288900	-0.291363
0.289000	-0.282924
0.289100	-0.297530
0.289200	-0.351086
0.289300	-0.372184
0.289400	-0.386141
0.289500	-0.373482
0.289600	-0.343620
0.289700	-0.341348
0.289800	-0.330637
0.289900	-0.338103
0.290000	-0.328690
0.290100	-0.329988
0.290200	-0.336804
0.290300	-0.339401
0.290400	-0.350437
0.290500	-0.365043
0.290600	-0.389711
0.290700	-0.412432
0.290800	-0.420546
0.290900	-0.447811
0.291000	-0.460145
0.291100	-0.492928
0.291200	-0.508183
0.291300	-0.544212
0.291400	-0.583486
0.291500	-0.678264
0.291600	-0.795438
0.291700	-0.853214
0.291800	-0.826923
0.291900	-0.753892
0.292000	-0.738637
0.292100	-0.800307
0.292200	-0.956107
0.292300	-1.046990
0.292400	-1.071658
0.292500	-1.018426
0.292600	-0.995706
0.292700	-1.041796
0.292800	-1.130083
0.292900	-1.229405
0.293000	-1.254073
0.293100	-1.254073
0.293200	-1.247257
0.293300	-1.271925
0.293400	-1.301137
0.293500	-1.337491
0.293600	-1.360211
0.293700	-1.387152
0.293800	-1.394942
0.293900	-1.435514
0.294000	-1.472517
0.294100	-1.489720
0.294200	-1.491992
0.294300	-1.531915
0.294400	-1.554312
0.294500	-1.586770
0.294600	-1.568918
0.294700	-1.505949
0.294800	-1.484202
0.294900	-1.524775
0.295000	-1.632211
0.295100	-1.692584
0.295200	-1.689663
0.295300	-1.603973
0.295400	-1.546846
0.295500	-1.577032
0.295600	-1.685118
0.295700	-1.775028
0.295800	-1.781844
0.295900	-1.742245
0.296000	-1.691610
0.296100	-1.687066
0.296200	-1.719200
0.296300	-1.737052
0.296400	-1.740622
0.296500	-1.709138
0.296600	-1.683496
0.296700	-1.666942
0.296800	-1.645195
0.296900	-1.601701
0.297000	-1.531591
0.297100	-1.480307
0.297200	-1.455314
0.297300	-1.437137
0.297400	-1.420584
0.297500	-1.336192
0.297600	-1.265758
0.297700	-1.166111
0.297800	-1.153128
0.297900	-1.144040
0.298000	-1.096651
0.298100	-1.058999
0.298200	-1.022321
0.298300	-0.954484
0.298400	-0.926570
0.298500	-0.893787
0.298600	-0.888269
0.298700	-0.880154
0.298800	-0.893138
0.298900	-0.879181
0.299000	-0.874961
0.299100	-0.863925
0.299200	-0.854837
0.299300	-0.875286
0.299400	-0.870741
0.299500	-0.887295
0.299600	-0.870741
0.299700	-0.889243
0.299800	-0.856135
0.299900	-0.765577
0.300000	-0.653272
0.300100	-0.697739
0.300200	-0.790245
0.300300	-0.827897
0.300400	-0.757462
0.300500	-0.655219
0.300600	-0.527658
0.300700	-0.518570
0.300800	-0.539992
0.300900	-0.607181
0.301000	-0.567582
0.301100	-0.508833
0.301200	-0.427363
0.301300	-0.409186
0.301400	-0.391334
0.301500	-0.417625
0.301600	-0.438723
0.301700	-0.469234
0.301800	-0.459496
0.301900	-0.469883
0.302000	-0.466962
0.302100	-0.467611
0.302200	-0.480919
0.302300	-0.506561
0.302400	-0.537720
0.302500	-0.547458
0.302600	-0.587057
0.302700	-0.536422
0.302800	-0.521167
0.302900	-0.505262
0.303000	-0.551028
0.303100	-0.666579
0.303200	-0.673071
0.303300	-0.603286
0.303400	-0.537720
0.303500	-0.524413
0.303600	-0.586083
0.303700	-0.679887
0.303800	-0.730197
0.303900	-0.675992
0.304000	-0.572126
0.304100	-0.539668
0.304200	-0.572451
0.304300	-0.653596
0.304400	-0.660737
0.304500	-0.659114
0.304600	-0.617243
0.304700	-0.591601
0.304800	-0.609453
0.304900	-0.646780
0.305000	-0.646780
0.305100	-0.632174
0.305200	-0.634446
0.305300	-0.634121
0.305400	-0.672097
0.305500	-0.661061
0.305600	-0.656517
0.305700	-0.647754
0.305800	-0.693520
0.305900	-0.757462
0.306000	-0.793816
0.306100	-0.806799
0.306200	-0.790894
0.306300	-0.777586
0.306400	-0.772718
0.306500	-0.751620
0.306600	-0.734742
0.306700	-0.721109
0.306800	-0.705205
0.306900	-0.706178
0.307000	-0.687028
0.307100	-0.690598
0.307200	-0.672746
0.307300	-0.676966
0.307400	-0.663658
0.307500	-0.690598
0.307600	-0.690598
0.307700	-0.725004
0.307800	-0.745453
0.307900	-0.775314
0.308000	-0.807123
0.308100	-0.833739
0.308200	-0.945071
0.308300	-1.061271
0.308400	-1.124565
0.308500	-1.071658
0.308600	-1.017453
0.308700	-0.999601
0.308800	-1.144040
0.308900	-1.277118
0.309000	-1.349500
0.309100	-1.321261
0.309200	-1.283285
0.309300	-1.279066
0.309400	-1.321261
0.309500	-1.365729
0.309600	-1.411171
0.309700	-1.437787
0.309800	-1.411820
0.309900	-1.380985
0.310000	-1.367352
0.310100	-1.386178
0.310200	-1.405977
0.310300	-1.423180
0.310400	-1.445577
0.310500	-1.444927
0.310600	-1.467324
0.310700	-1.503352
0.310800	-1.519581
0.310900	-1.556259
0.311000	-1.578655
0.311100	-1.622799
0.311200	-1.640975
0.311300	-1.611438
0.311400	-1.549443
0.311500	-1.539381
0.311600	-1.606894
0.311700	-1.709138
0.311800	-1.777625
0.311900	-1.756202
0.312000	-1.667591
0.312100	-1.628641
0.312200	-1.693233
0.312300	-1.799372
0.312400	-1.899343
0.312500	-1.929205
0.312600	-1.885711
0.312700	-1.864937
0.312800	-1.872727
0.312900	-1.913949
0.313000	-1.962961
0.313100	-1.980164
0.313200	-1.970751
0.313300	-1.956470
0.313400	-1.956794
0.313500	-1.948355
0.313600	-1.906484
0.313700	-1.864288
0.313800	-1.844813
0.313900	-1.828259
0.314000	-1.811381
0.314100	-1.778923
0.314200	-1.697453
0.314300	-1.650388
0.314400	-1.549118
0.314500	-1.521853
0.314600	-1.501405
0.314700	-1.470569
0.314800	-1.425128
0.314900	-1.368001
0.315000	-1.296269
0.315100	-1.253748
0.315200	-1.235572
0.315300	-1.231677
0.315400	-1.215772
0.315500	-1.217395
0.315600	-1.202789
0.315700	-1.194999
0.315800	-1.126837
0.315900	-1.125214
0.316000	-1.080421
0.316100	-1.080746
0.316200	-1.016154
0.316300	-1.051209
0.316400	-1.006741
0.316500	-0.914560
0.316600	-0.766226
0.316700	-0.704880
0.316800	-0.800632
0.316900	-0.849319
0.317000	-0.896059
0.317100	-0.791868
0.317200	-0.714293
0.317300	-0.608804
0.317400	-0.618541
0.317500	-0.670474
0.317600	-0.689949
0.317700	-0.703906
0.317800	-0.612699
0.317900	-0.541615
0.318000	-0.494876
0.318100	-0.488709
0.318200	-0.507210
0.318300	-0.516947
0.318400	-0.503639
0.318500	-0.473453
0.318600	-0.439372
0.318700	-0.411133
0.318800	-0.412432
0.318900	-0.394904
0.319000	-0.364394
0.319100	-0.362771
0.319200	-0.360499
0.319300	-0.358227
0.319400	-0.342647
0.319500	-0.334532
0.319600	-0.322198
0.319700	-0.436126
0.319800	-0.522140
0.319900	-0.526685
0.320000	-0.475401
0.320100	-0.402045
0.320200	-0.418923
0.320300	-0.490981
0.320400	-0.595821
0.320500	-0.599391
0.320600	-0.563362
0.320700	-0.515000
0.320800	-0.510456
0.320900	-0.580241
0.321000	-0.646455
0.321100	-0.689625
0.321200	-0.716240
0.321300	-0.711372
0.321400	-0.740259
0.321500	-0.769472
0.321600	-0.779858
0.321700	-0.770770
0.321800	-0.779534
0.321900	-0.798035
0.322000	-0.824002
0.322100	-0.814913
0.322200	-0.793491
0.322300	-0.784078
0.322400	-0.758111
0.322500	-0.792517
0.322600	-0.813615
0.322700	-0.822379
0.322800	-0.823677
0.322900	-0.799658
0.323000	-0.773042
0.323100	-0.762980
0.323200	-0.742207
0.323300	-0.729224
0.323400	-0.718837
0.323500	-0.706178
0.323600	-0.685081
0.323700	-0.666579
0.323800	-0.672422
0.323900	-0.663334
0.324000	-0.668527
0.324100	-0.648078
0.324200	-0.661386
0.324300	-0.653596
0.324400	-0.662360
0.324500	-0.701634
0.324600	-0.716240
0.324700	-0.722732
0.324800	-0.757462
0.324900	-0.858732
0.325000	-0.942149
0.325100	-0.921376
0.325200	-0.842178
0.325300	-0.778560
0.325400	-0.801605
0.325500	-0.914885
0.325600	-1.026865
0.325700	-1.098273
0.325800	-1.061596
0.325900	-1.030760
0.326000	-1.030111
0.326100	-1.084966
0.326200	-1.159620
0.326300	-1.194999
0.326400	-1.230703
0.326500	-1.221290
0.326600	-1.221290
0.326700	-1.227457
0.326800	-1.264460
0.326900	-1.293672
0.327000	-1.324183
0.327100	-1.342359
0.327200	-1.351772
0.327300	-1.367028
0.327400	-1.398188
0.327500	-1.398837
0.327600	-1.394293
0.327700	-1.415390
0.327800	-1.446875
0.327900	-1.455963
0.328000	-1.411495
0.328100	-1.323534
0.328200	-1.327429
0.328300	-1.416040
0.328400	-1.502378
0.328500	-1.534837
0.328600	-1.484202
0.328700	-1.405328
0.328800	-1.378388
0.328900	-1.450121
0.329000	-1.565997
0.329100	-1.622799
0.329200	-1.627667
0.329300	-1.586770
0.329400	-1.570216
0.329500	-1.569242
0.329600	-1.605920
0.329700	-1.614035
0.329800	-1.593262
0.329900	-1.570216
0.330000	-1.545223
0.330100	-1.524450
0.330200	-1.479009
0.330300	-1.411171
0.330400	-1.356966
0.330500	-1.316717
0.330600	-1.290102
0.330700	-1.293023
0.330800	-1.258293
0.330900	-1.179419
0.331000	-1.100870
0.331100	-1.042121
0.331200	-1.005443
0.331300	-0.962274
0.331400	-0.896383
0.331500	-0.850293
0.331600	-0.768823
0.331700	-0.704555
0.331800	-0.670799
0.331900	-0.655868
0.332000	-0.650026
0.332100	-0.634121
0.332200	-0.653596
0.332300	-0.636393
0.332400	-0.660412
0.332500	-0.647104
0.332600	-0.669501
0.332700	-0.645806
0.332800	-0.686703
0.332900	-0.696441
0.333000	-0.711372
0.333100	-0.693844
0.333200	-0.613023
0.333300	-0.499744
0.333400	-0.454627
0.333500	-0.581214
0.333600	-0.612699
0.333700	-0.630226
0.333800	-0.526035
0.333900	-0.416651
0.334000	-0.355305
0.334100	-0.355955
0.334200	-0.421196
0.334300	-0.405291
0.334400	-0.359525
0.334500	-0.270914
0.334600	-0.209568
0.334700	-0.203077
0.334800	-0.176461
0.334900	-0.209244
0.335000	-0.205024
0.335100	-0.227420
0.335200	-0.220929
0.335300	-0.229692
0.335400	-0.238131
0.335500	-0.261826
0.335600	-0.255983
0.335700	-0.282599
0.335800	-0.295258
0.335900	-0.317005
0.336000	-0.318952
0.336100	-0.330962
0.336200	-0.318628
0.336300	-0.374780
0.336400	-0.521167
0.336500	-0.605883
0.336600	-0.611400
0.336700	-0.542589
0.336800	-0.514350
0.336900	-0.561090
0.337000	-0.657816
0.337100	-0.731171
0.337200	-0.728250
0.337300	-0.650675
0.337400	-0.575696
0.337500	-0.586408
0.337600	-0.646455
0.337700	-0.699038
0.337800	-0.699038
0.337900	-0.689949
0.338000	-0.673071
0.338100	-0.701634
0.338200	-0.737014
0.338300	-0.757462
0.338400	-0.747076
0.338500	-0.736040
0.338600	-0.742532
0.338700	-0.734742
0.338800	-0.750971
0.338900	-0.715591
0.339000	-0.706178
0.339100	-0.688651
0.339200	-0.712995
0.339300	-0.737338
0.339400	-0.723057
0.339500	-0.719486
0.339600	-0.696766
0.339700	-0.702608
0.339800	-0.693195
0.339900	-0.702283
0.340000	-0.682808
0.340100	-0.673396
0.340200	-0.672746
0.340300	-0.655219
0.340400	-0.660412
0.340500	-0.648403
0.340600	-0.657167
0.340700	-0.666255
0.340800	-0.676966
0.340900	-0.692221
0.341000	-0.677291
0.341100	-0.701634
0.341200	-0.693844
0.341300	-0.707801
0.341400	-0.697090
0.341500	-0.753892
0.341600	-0.820431
0.341700	-0.919104
0.341800	-0.885997
0.341900	-0.824326
0.342000	-0.775639
0.342100	-0.822379
0.342200	-0.948966
0.342300	-1.024269
0.342400	-1.056078
0.342500	-1.008040
0.342600	-0.969414
0.342700	-0.972011
0.342800	-1.046990
0.342900	-1.098923
0.343000	-1.110283
0.343100	-1.096001
0.343200	-1.053481
0.343300	-1.057376
0.343400	-1.058025
0.343500	-1.074904
0.343600	-1.085290
0.343700	-1.091782
0.343800	-1.085939
0.343900	-1.087562
0.344000	-1.119371
0.344100	-1.126188
0.344200	-1.106388
0.344300	-1.074254
0.344400	-1.066789
0.344500	-1.055104
0.344600	-0.993109
0.344700	-0.898331
0.344800	-0.814589
0.344900	-0.814589
0.345000	-0.877558
0.345100	-0.931114
0.345200	-0.932087
0.345300	-0.830493
0.345400	-0.765901
0.345500	-0.782780
0.345600	-0.874961
0.345700	-0.996679
0.345800	-1.038875
0.345900	-1.033682
0.346000	-1.004469
0.346100	-1.015180
0.346200	-1.014856
0.346300	-1.052183
0.346400	-1.058025
0.346500	-1.045691
0.346600	-1.037577
0.346700	-1.019725
0.346800	-1.026541
0.346900	-0.999925
0.347000	-0.953185
0.347100	-0.926570
0.347200	-0.902226
0.347300	-0.901252
0.347400	-0.906770
0.347500	-0.847047
0.347600	-0.784727
0.347700	-0.685081
0.347800	-0.646780
0.347900	-0.634770
0.348000	-0.598093
0.348100	-0.560766
0.348200	-0.507210
0.348300	-0.437425
0.348400	-0.388413
0.348500	-0.357902
0.348600	-0.326418
0.348700	-0.324795
0.348800	-0.291687
0.348900	-0.293959
0.349000	-0.244623
0.349100	-0.218007
0.349200	-0.176785
0.349300	-0.164776
0.349400	-0.142055
0.349500	-0.142055
0.349600	-0.122256
0.349700	-0.113167
0.349800	-0.075516
0.349900	0.017314
0.350000	0.127023
0.350100	0.108197
0.350200	0.009200
0.350300	-0.013845
0.350400	-0.026180
0.350500	0.091319
0.350600	0.174087
0.350700	0.211414
0.350800	0.152340
0.350900	0.068274
0.351000	0.031596
0.351100	0.060808
0.351200	0.106574
0.351300	0.091968
0.351400	0.068274
0.351500	0.054641
0.351600	0.004656
0.351700	-0.011898
0.351800	-0.024881
0.351900	-0.019363
0.352000	0.003357
0.352100	0.001734
0.352200	-0.006056
0.352300	0.008875
0.352400	0.033219
0.352500	0.052045
0.352600	0.046527
0.352700	0.104951
0.352800	0.144550
0.352900	0.239653
0.353000	0.245820
0.353100	0.221152
0.353200	0.235433
0.353300	0.352283
0.353400	0.481141
0.353500	0.575595
0.353600	0.570726
0.353700	0.519118
0.353800	0.530153
0.353900	0.590850
0.354000	0.700883
0.354100	1.177694
0.354200	1.394190
0.354300	1.345178
0.354400	1.377311
0.354500	1.718447
0.354600	2.074188
0.354700	2.388059
0.354800	2.443887
0.354900	2.523735
0.355000	2.624680
0.355100	2.851563
0.355200	2.923620
0.355300	2.837281
0.355400	2.866818
0.355500	3.094675
0.355600	3.289425
0.355700	3.666266
0.355800	3.598428
0.355900	3.368948
0.356000	3.229053
0.356100	3.340385
0.356200	3.532213
0.356300	3.625693
0.356400	3.482227
0.356500	3.485149
0.356600	3.377062
0.356700	3.311497
0.356800	3.255019
0.356900	3.094026
0.357000	2.871687
0.357100	2.671095
0.357200	2.579238
0.357300	2.428632
0.357400	2.264069
0.357500	2.063802
0.357600	1.902160
0.357700	1.829778
0.357800	1.829454
0.357900	1.574008
0.358000	1.387373
0.358100	1.031307
0.358200	0.400970
0.358300	0.179605
0.358400	0.126049
0.358500	0.148121
0.358600	0.228617
0.358700	0.235109
0.358800	0.150393
0.358900	0.003682
0.359000	-0.088499
0.359100	-0.105053
0.359200	-0.089798
0.359300	-0.119659
0.359400	-0.195936
0.359500	-0.327391
0.359600	-0.442942
0.359700	-0.509806
0.359800	-0.566933
0.359900	-0.598417
0.360000	-0.664956
0.360100	-0.748699
0.360200	-0.831142
0.360300	-0.873987
0.360400	-0.941176
0.360500	-0.983047
0.360600	-1.005443
0.360700	-1.042770
0.360800	-1.058674
0.360900	-1.071658
0.361000	-1.080421
0.361100	-1.110608
0.361200	-1.119047
0.361300	-1.088861
0.361400	-1.051858
0.361500	-1.028164
0.361600	-1.090808
0.361700	-1.223238
0.361800	-1.310875
0.361900	-1.324183
0.362000	-1.276469
0.362100	-1.272899
0.362200	-1.329376
0.362300	-1.467973
0.362400	-1.557557
0.362500	-1.596832
0.362600	-1.579629
0.362700	-1.534512
0.362800	-1.529968
0.362900	-1.572164
0.363000	-1.609815
0.363100	-1.610140
0.363200	-1.608192
0.363300	-1.605920
0.363400	-1.624746
0.363500	-1.639352
0.363600	-1.630913
0.363700	-1.634808
0.363800	-1.620202
0.363900	-1.639352
0.364000	-1.664670
0.364100	-1.697128
0.364200	-1.665968
0.364300	-1.665643
0.364400	-1.619228
0.364500	-1.646493
0.364600	-1.672784
0.364700	-1.696803
0.364800	-1.712383
0.364900	-1.710760
0.365000	-1.700049
0.365100	-1.706216
0.365200	-1.699400
0.365300	-1.722121
0.365400	-1.733806
0.365500	-1.770159
0.365600	-1.763667
0.365700	-1.762045
0.365800	-1.756851
0.365900	-1.766913
0.366000	-1.745815
0.366100	-1.764966
0.366200	-1.772107
0.366300	-1.793204
0.366400	-1.784441
0.366500	-1.752307
0.366600	-1.629290
0.366700	-1.561128
0.366800	-1.607543
0.366900	-1.703620
0.367000	-1.703620
0.367100	-1.650064
0.367200	-1.529319
0.367300	-1.395266
0.367400	-1.390722
0.367500	-1.418961
0.367600	-1.420259
0.367700	-1.335219
0.367800	-1.248230
0.367900	-1.139171
0.368000	-1.066789
0.368100	-1.023944
0.368200	-0.988240
0.368300	-0.931114
0.368400	-0.876584
0.368500	-0.791543
0.368600	-0.732794
0.368700	-0.670474
0.368800	-0.602961
0.368900	-0.556871
0.369000	-0.521167
0.369100	-0.475076
0.369200	-0.426064
0.369300	-0.387439
0.369400	-0.336155
0.369500	-0.278380
0.369600	-0.213463
0.369700	-0.230666
0.369800	-0.269940
0.369900	-0.217034
0.370000	-0.115764
0.370100	0.018937
0.370200	0.067300
0.370300	0.079309
0.370400	0.043605
0.370500	0.102355
0.370600	0.234459
0.370700	0.390908
0.370800	0.504187
0.370900	0.544110
0.371000	0.559366
0.371100	0.691795
0.371200	1.084214
0.371300	1.740194
0.371400	2.174809
0.371500	2.365663
0.371600	2.443887
0.371700	2.554245
0.371800	2.758083
0.371900	2.957052
0.372000	3.070656
0.372100	3.168031
0.372200	3.343955
0.372300	3.587392
0.372400	3.743517
0.372500	3.603297
0.372600	3.320910
0.372700	3.145635
0.372800	3.224833
0.372900	3.226456
0.373000	2.941472
0.373100	2.850589
0.373200	2.741205
0.373300	2.679859
0.373400	2.544508
0.373500	2.476995
0.373600	2.352680
0.373700	2.148193
0.373800	1.947277
0.373900	1.685339
0.374000	1.447746
0.374100	1.228004
0.374200	0.993656
0.374300	0.712568
0.374400	0.459719
0.374500	0.227643
0.374600	0.177982
0.374700	0.122803
0.374800	0.084503
0.374900	-0.046628
0.375000	-0.188795
0.375100	-0.237482
0.375200	-0.203726
0.375300	-0.153740
0.375400	-0.190742
0.375500	-0.320251
0.375600	-0.472804
0.375700	-0.549405
0.375800	-0.553300
0.375900	-0.538045
0.376000	-0.553300
0.376100	-0.628603
0.376200	-0.717214
0.376300	-0.757787
0.376400	-0.791219
0.376500	-0.814589
0.376600	-0.799009
0.376700	-0.806474
0.376800	-0.842178
0.376900	-0.898655
0.377000	-0.931438
0.377100	-0.959352
0.377200	-0.977204
0.377300	-1.003496
0.377400	-1.059648
0.377500	-1.088211
0.377600	-1.126188
0.377700	-1.183314
0.377800	-1.212851
0.377900	-1.249204
0.378000	-1.216097
0.378100	-1.196297
0.378200	-1.241090
0.378300	-1.360861
0.378400	-1.485825
0.378500	-1.565997
0.378600	-1.560803
0.378700	-1.512441
0.378800	-1.527047
0.378900	-1.618254
0.379000	-1.752307
0.379100	-1.852279
0.379200	-1.891878
0.379300	-1.879219
0.379400	-1.878570
0.379500	-1.884412
0.379600	-1.929205
0.379700	-1.970102
0.379800	-1.974322
0.379900	-1.971400
0.380000	-1.976918
0.380100	-1.982436
0.380200	-1.953873
0.380300	-1.913300
0.380400	-1.892527
0.380500	-1.864288
0.380600	-1.876947
0.380700	-1.905835
0.380800	-1.907133
0.380900	-1.848384
0.381000	-1.826312
0.381100	-1.765615
0.381200	-1.746465
0.381300	-1.720823
0.381400	-1.679601
0.381500	-1.597157
0.381600	-1.515037
0.381700	-1.420908
0.381800	-1.361185
0.381900	-1.296593
0.382000	-1.270302
0.382100	-1.221615
0.382200	-1.191753
0.382300	-1.163190
0.382400	-1.126512
0.382500	-1.081395
0.382600	-1.056078
0.382700	-1.013558
0.382800	-0.993433
0.382900	-0.990837
0.383000	-0.988240
0.383100	-0.957080
0.383200	-0.867496
0.383300	-0.727925
0.383400	-0.675668
0.383500	-0.726952
0.383600	-0.796412
0.383700	-0.794465
0.383800	-0.706178
0.383900	-0.585109
0.384000	-0.503315
0.384100	-0.498771
0.384200	-0.518895
0.384300	-0.527009
0.384400	-0.464689
0.384500	-0.397176
0.384600	-0.333883
0.384700	-0.304671
0.384800	-0.306943
0.384900	-0.306618
0.385000	-0.290714
0.385100	-0.265721
0.385200	-0.196260
0.385300	-0.140432
0.385400	-0.087525
0.385500	-0.040461
0.385600	0.000436
0.385700	0.043281
0.385800	0.070870
0.385900	0.059835
0.386000	0.104627
0.386100	0.146173
0.386200	0.179605
0.386300	0.205572
0.386400	0.131243
0.386500	0.079309
0.386600	0.104627
0.386700	0.198106
0.386800	0.287691
0.386900	0.264646
0.387000	0.219853
0.387100	0.166622
0.387200	0.188369
0.387300	0.256206
0.387400	0.358125
0.387500	0.366564
0.387600	0.347738
0.387700	0.315280
0.387800	0.320149
0.387900	0.320798
0.388000	0.343194
0.388100	0.305867
0.388200	0.279576
0.388300	0.233161
0.388400	0.218230
0.388500	0.193238
0.388600	0.166622
0.388700	0.119558
0.388800	0.105601
0.388900	0.087099
0.389000	0.094889
0.389100	0.073467
0.389200	-0.010275
0.389300	-0.067077
0.389400	-0.117062
0.389500	-0.134265
0.389600	-0.147898
0.389700	-0.217683
0.389800	-0.272212
0.389900	-0.319277
0.390000	-0.361148
0.390100	-0.412756
0.390200	-0.450083
0.390300	-0.522790
0.390400	-0.563038
0.390500	-0.601338
0.390600	-0.645806
0.390700	-0.691897
0.390800	-0.724680
0.390900	-0.751620
0.391000	-0.786675
0.391100	-0.823028
0.391200	-0.834064
0.391300	-0.869119
0.391400	-0.904823
0.391500	-0.964221
0.391600	-1.061920
0.391700	-1.175199
0.391800	-1.155075
0.391900	-1.091133
0.392000	-1.048937
0.392100	-1.105414
0.392200	-1.232326
0.392300	-1.318665
0.392400	-1.371896
0.392500	-1.333920
0.392600	-1.314121
0.392700	-1.336517
0.392800	-1.419285
0.392900	-1.519257
0.393000	-1.585796
0.393100	-1.601701
0.393200	-1.607219
0.393300	-1.610140
0.393400	-1.655581
0.393500	-1.690636
0.393600	-1.748087
0.393700	-1.784441
0.393800	-1.828584
0.393900	-1.885386
0.394000	-1.952250
0.394100	-2.023658
0.394200	-2.062608
0.394300	-2.101883
0.394400	-2.137912
0.394500	-2.187573
0.394600	-2.219706
0.394700	-2.166150
0.394800	-2.108374
0.394900	-2.134990
0.395000	-2.225874
0.395100	-2.306370
0.395200	-2.316757
0.395300	-2.226523
0.395400	-2.183029
0.395500	-2.169721
0.395600	-2.233339
0.395700	-2.329091
0.395800	-2.370962
0.395900	-2.344346
0.396000	-2.289492
0.396100	-2.254437
0.396200	-2.257034
0.396300	-2.279105
0.396400	-2.294361
0.396500	-2.311888
0.396600	-2.328117
0.396700	-2.346619
0.396800	-2.381349
0.396900	-2.411211
0.397000	-2.409912
0.397100	-2.427115
0.397200	-2.448862
0.397300	-2.480672
0.397400	-2.522543
0.397500	-2.553054
0.397600	-2.548185
0.397700	-2.545913
0.397800	-2.511182
0.397900	-2.548185
0.398000	-2.560519
0.398100	-2.554352
0.398200	-2.530333
0.398300	-2.500471
0.398400	-2.479698
0.398500	-2.459249
0.398600	-2.433607
0.398700	-2.420299
0.398800	-2.386542
0.398900	-2.351487
0.399000	-2.338179
0.399100	-2.292413
0.399200	-2.253139
0.399300	-2.221329
0.399400	-2.181406
0.399500	-2.173940
0.399600	-2.142780
0.399700	-2.138885
0.399800	-2.075916
0.399900	-2.016842
0.400000	-1.846436
0.400100	-1.846436
0.400200	-1.916871
0.400300	-2.011000
0.400400	-2.005157
0.400500	-1.936995
0.400600	-1.824364
0.400700	-1.789634
0.400800	-1.832154
0.400900	-1.891228
0.401000	-1.894799
0.401100	-1.864288
0.401200	-1.789309
0.401300	-1.714655
0.401400	-1.681548
0.401500	-1.657529
0.401600	-1.689338
0.401700	-1.688689
0.401800	-1.669214
0.401900	-1.650388
0.402000	-1.633510
0.402100	-1.620202
0.402200	-1.635133
0.402300	-1.639352
0.402400	-1.636431
0.402500	-1.655257
0.402600	-1.677328
0.402700	-1.648441
0.402800	-1.602674
0.402900	-1.546522
0.403000	-1.569242
0.403100	-1.677004
0.403200	-1.709462
0.403300	-1.664345
0.403400	-1.599429
0.403500	-1.539056
0.403600	-1.603973
0.403700	-1.709138
0.403800	-1.783142
0.403900	-1.765615
0.404000	-1.691286
0.404100	-1.661424
0.404200	-1.683496
0.404300	-1.761395
0.404400	-1.818522
0.404500	-1.820469
0.404600	-1.842216
0.404700	-1.843515
0.404800	-1.905510
0.404900	-1.943162
0.405000	-1.985033
0.405100	-2.002560
0.405200	-1.996069
0.405300	-1.999639
0.405400	-2.018790
0.405500	-2.021062
0.405600	-2.004833
0.405700	-1.978217
0.405800	-1.955171
0.405900	-1.980813
0.406000	-2.027229
0.406100	-2.042809
0.406200	-2.026904
0.406300	-2.022035
0.406400	-2.044432
0.406500	-2.045405
0.406600	-2.063582
0.406700	-2.047677
0.406800	-2.049625
0.406900	-2.028202
0.407000	-2.047353
0.407100	-2.047353
0.407200	-2.038265
0.407300	-2.012298
0.407400	-2.018465
0.407500	-2.006780
0.407600	-2.027878
0.407700	-2.029825
0.407800	-2.055467
0.407900	-2.089873
0.408000	-2.129472
0.408100	-2.181081
0.408200	-2.298256
0.408300	-2.433607
0.408400	-2.534228
0.408500	-2.529034
0.408600	-2.477101
0.408700	-2.485216
0.408800	-2.563765
0.408900	-2.690677
0.409000	-2.786105
0.409100	-2.805255
0.409200	-2.776692
0.409300	-2.756568
0.409400	-2.805580
0.409500	-2.893542
0.409600	-2.983776
0.409700	-3.047395
0.409800	-3.050316
0.409900	-3.085696
0.410000	-3.116531
0.410100	-3.163596
0.410200	-3.191835
0.410300	-3.207740
0.410400	-3.241821
0.410500	-3.246365
0.410600	-3.269411
0.410700	-3.315826
0.410800	-3.349259
0.410900	-3.361268
0.411000	-3.362891
0.411100	-3.370681
0.411200	-3.364189
0.411300	-3.350557
0.411400	-3.255129
0.411500	-3.190537
0.411600	-3.219100
0.411700	-3.293755
0.411800	-3.349259
0.411900	-3.340495
0.412000	-3.255454
0.412100	-3.175930
0.412200	-3.195081
0.412300	-3.262919
0.412400	-3.352829
0.412500	-3.390481
0.412600	-3.370681
0.412700	-3.319721
0.412800	-3.296351
0.412900	-3.319397
0.413000	-3.354776
0.413100	-3.357698
0.413200	-3.334977
0.413300	-3.338547
0.413400	-3.330433
0.413500	-3.308685
0.413600	-3.249936
0.413700	-3.221372
0.413800	-3.166193
0.413900	-3.163596
0.414000	-3.125944
0.414100	-3.070116
0.414200	-2.994163
0.414300	-2.897437
0.414400	-2.833169
0.414500	-2.751050
0.414600	-2.714372
0.414700	-2.662438
0.414800	-2.594925
0.414900	-2.527412
0.415000	-2.457626
0.415100	-2.392385
0.415200	-2.340451
0.415300	-2.301826
0.415400	-2.278456
0.415500	-2.250217
0.415600	-2.235936
0.415700	-2.200881
0.415800	-2.167449
0.415900	-2.144079
0.416000	-2.149597
0.416100	-2.158685
0.416200	-2.152842
0.416300	-2.173616
0.416400	-2.150246
0.416500	-2.143429
0.416600	-2.046055
0.416700	-1.989902
0.416800	-2.032422
0.416900	-2.155764
0.417000	-2.209969
0.417100	-2.189520
0.417200	-2.101558
0.417300	-1.993797
0.417400	-1.985358
0.417500	-2.046055
0.417600	-2.088900
0.417700	-2.085005
0.417800	-2.055143
0.417900	-1.988279
0.418000	-1.992498
0.418100	-1.952575
0.418200	-1.989253
0.418300	-1.991525
0.418400	-1.994446
0.418500	-1.977892
0.418600	-1.981463
0.418700	-1.969128
0.418800	-1.973997
0.418900	-1.987305
0.419000	-2.065530
0.419100	-2.092470
0.419200	-2.151219
0.419300	-2.186274
0.419400	-2.229119
0.419500	-2.253139
0.419600	-2.300203
0.419700	-2.379726
0.419800	-2.515402
0.419900	-2.555975
0.420000	-2.526113
0.420100	-2.482944
0.420200	-2.496252
0.420300	-2.552729
0.420400	-2.669255
0.420500	-2.704634
0.420600	-2.675422
0.420700	-2.581942
0.420800	-2.543965
0.420900	-2.567011
0.421000	-2.618620
0.421100	-2.616023
0.421200	-2.594925
0.421300	-2.559221
0.421400	-2.544290
0.421500	-2.567011
0.421600	-2.595250
0.421700	-2.595250
0.421800	-2.597846
0.421900	-2.596223
0.422000	-2.629006
0.422100	-2.656920
0.422200	-2.656271
0.422300	-2.655622
0.422400	-2.653350
0.422500	-2.686458
0.422600	-2.735794
0.422700	-2.761112
0.422800	-2.756892
0.422900	-2.724109
0.423000	-2.719565
0.423100	-2.721513
0.423200	-2.707231
0.423300	-2.709178
0.423400	-2.685484
0.423500	-2.682563
0.423600	-2.663412
0.423700	-2.669579
0.423800	-2.647183
0.423900	-2.636796
0.424000	-2.636472
0.424100	-2.630954
0.424200	-2.628032
0.424300	-2.622190
0.424400	-2.610830
0.424500	-2.597197
0.424600	-2.600443
0.424700	-2.592977
0.424800	-2.604662
0.424900	-2.656271
0.425000	-2.763059
0.425100	-2.751374
0.425200	-2.702038
0.425300	-2.577722
0.425400	-2.564739
0.425500	-2.633875
0.425600	-2.737742
0.425700	-2.783508
0.425800	-2.738066
0.425900	-2.682887
0.426000	-2.681589
0.426100	-2.749427
0.426200	-2.844205
0.426300	-2.926325
0.426400	-2.954564
0.426500	-2.943853
0.426600	-2.946125
0.426700	-2.971442
0.426800	-2.996435
0.426900	-3.047720
0.427000	-3.046097
0.427100	-3.042526
0.427200	-3.026622
0.427300	-3.021428
0.427400	-3.042526
0.427500	-3.035061
0.427600	-3.015910
0.427700	-3.006173
0.427800	-2.998383
0.427900	-3.011366
0.428000	-2.948397
0.428100	-2.884129
0.428200	-2.853294
0.428300	-2.915938
0.428400	-3.011366
0.428500	-3.075958
0.428600	-3.031490
0.428700	-2.958459
0.428800	-2.935413
0.428900	-2.976960
0.429000	-3.079204
0.429100	-3.161973
0.429200	-3.189238
0.429300	-3.165868
0.429400	-3.155806
0.429500	-3.171386
0.429600	-3.238900
0.429700	-3.277850
0.429800	-3.298299
0.429900	-3.308036
0.430000	-3.320695
0.430100	-3.336275
0.430200	-3.338223
0.430300	-3.329134
0.430400	-3.309659
0.430500	-3.315177
0.430600	-3.309659
0.430700	-3.309984
0.430800	-3.317449
0.430900	-3.253506
0.431000	-3.218775
0.431100	-3.131787
0.431200	-3.132436
0.431300	-3.114259
0.431400	-3.101925
0.431500	-3.047395
0.431600	-3.014612
0.431700	-2.981504
0.431800	-2.965924
0.431900	-2.934764
0.432000	-2.921132
0.432100	-2.922755
0.432200	-2.931843
0.432300	-2.938010
0.432400	-2.926325
0.432500	-2.942554
0.432600	-2.942879
0.432700	-2.983452
0.432800	-2.991566
0.432900	-3.021428
0.433000	-3.073362
0.433100	-3.066870
0.433200	-3.049018
0.433300	-2.943853
0.433400	-2.907499
0.433500	-2.928273
0.433600	-3.066545
0.433700	-3.086994
0.433800	-3.034087
0.433900	-2.913342
0.434000	-2.830248
0.434100	-2.832845
0.434200	-2.855566
0.434300	-2.910096
0.434400	-2.838363
0.434500	-2.770525
0.434600	-2.661465
0.434700	-2.590056
0.434800	-2.549159
0.434900	-2.509559
0.435000	-2.505989
0.435100	-2.476776
0.435200	-2.417378
0.435300	-2.368366
0.435400	-2.333960
0.435500	-2.321950
0.435600	-2.312537
0.435700	-2.319678
0.435800	-2.315134
0.435900	-2.316757
0.436000	-2.318055
0.436100	-2.308967
0.436200	-2.271315
0.436300	-2.280079
0.436400	-2.323898
0.436500	-2.433607
0.436600	-2.412509
0.436700	-2.345969
0.436800	-2.226847
0.436900	-2.227821
0.437000	-2.281702
0.437100	-2.380051
0.437200	-2.393683
0.437300	-2.364146
0.437400	-2.276833
0.437500	-2.268719
0.437600	-2.314809
0.437700	-2.369015
0.437800	-2.373884
0.437900	-2.372261
0.438000	-2.353110
0.438100	-2.389464
0.438200	-2.378103
0.438300	-2.401149
0.438400	-2.380051
0.438500	-2.381024
0.438600	-2.405044
0.438700	-2.446915
0.438800	-2.451784
0.438900	-2.460872
0.439000	-2.460872
0.439100	-2.495602
0.439200	-2.567011
0.439300	-2.635822
0.439400	-2.696844
0.439500	-2.710152
0.439600	-2.745532
0.439700	-2.775393
0.439800	-2.808501
0.439900	-2.827976
0.440000	-2.839337
0.440100	-2.894516
0.440200	-2.896139
0.440300	-2.925676
0.440400	-2.948397
0.440500	-2.983452
0.440600	-3.010068
0.440700	-3.042526
0.440800	-3.069142
0.440900	-3.079853
0.441000	-3.097706
0.441100	-3.075309
0.441200	-3.089915
0.441300	-3.057782
0.441400	-3.063624
0.441500	-3.071739
0.441600	-3.154508
0.441700	-3.216179
0.441800	-3.204169
0.441900	-3.103873
0.442000	-3.031166
0.442100	-3.047070
0.442200	-3.144446
0.442300	-3.259673
0.442400	-3.312256
0.442500	-3.288561
0.442600	-3.238251
0.442700	-3.230461
0.442800	-3.291482
0.442900	-3.372953
0.443000	-3.408658
0.443100	-3.424887
0.443200	-3.421966
0.443300	-3.428133
0.443400	-3.432352
0.443500	-3.441116
0.443600	-3.466758
0.443700	-3.488830
0.443800	-3.506358
0.443900	-3.532000
0.444000	-3.553422
0.444100	-3.586530
0.444200	-3.609251
0.444300	-3.663781
0.444400	-3.712145
0.444500	-3.767324
0.444600	-3.791993
0.444700	-3.774465
0.444800	-3.737138
0.444900	-3.792317
0.445000	-3.902676
0.445100	-4.035107
0.445200	-4.115929
0.445300	-4.094506
0.445400	-4.023098
0.445500	-4.013685
0.445600	-4.091261
0.445700	-4.162994
0.445800	-4.226613
0.445900	-4.219148
0.446000	-4.146765
0.446100	-4.123395
0.446200	-4.123070
0.446300	-4.157476
0.446400	-4.193505
0.446500	-4.172083
0.446600	-4.172407
0.446700	-4.166565
0.446800	-4.169161
0.446900	-4.151958
0.447000	-4.111060
0.447100	-4.081848
0.447200	-4.041924
0.447300	-4.032835
0.447400	-4.052959
0.447500	-4.004921
0.447600	-3.953312
0.447700	-3.919555
0.447800	-3.846848
0.447900	-3.841330
0.448000	-3.830943
0.448100	-3.806599
0.448200	-3.765052
0.448300	-3.713443
0.448400	-3.660860
0.448500	-3.601136
0.448600	-3.596268
0.448700	-3.563809
0.448800	-3.552773
0.448900	-3.516095
0.449000	-3.482663
0.449100	-3.407684
0.449200	-3.365488
0.449300	-3.311931
0.449400	-3.249286
0.449500	-3.209687
0.449600	-3.181773
0.449700	-3.118803
0.449800	-3.078555
0.449900	-2.981504
0.450000	-2.797465
0.450100	-2.781236
0.450200	-2.811747
0.450300	-2.911394
0.450400	-2.841933
0.450500	-2.777016
0.450600	-2.604662
0.450700	-2.578047
0.450800	-2.608233
0.450900	-2.637445
0.451000	-2.695546
0.451100	-2.629331
0.451200	-2.596223
0.451300	-2.530982
0.451400	-2.541369
0.451500	-2.545264
0.451600	-2.592653
0.451700	-2.603040
0.451800	-2.576099
0.451900	-2.578371
0.452000	-2.566037
0.452100	-2.572529
0.452200	-2.537798
0.452300	-2.536500
0.452400	-2.522543
0.452500	-2.488786
0.452600	-2.502094
0.452700	-2.465091
0.452800	-2.419001
0.452900	-2.365444
0.453000	-2.348241
0.453100	-2.429063
0.453200	-2.479373
0.453300	-2.461521
0.453400	-2.371287
0.453500	-2.279754
0.453600	-2.281702
0.453700	-2.368690
0.453800	-2.442046
0.453900	-2.421273
0.454000	-2.337206
0.454100	-2.265148
0.454200	-2.248919
0.454300	-2.270017
0.454400	-2.275210
0.454500	-2.235286
0.454600	-2.218084
0.454700	-2.164203
0.454800	-2.170045
0.454900	-2.180757
0.455000	-2.211267
0.455100	-2.211592
0.455200	-2.211592
0.455300	-2.206723
0.455400	-2.193415
0.455500	-2.192117
0.455600	-2.193415
0.455700	-2.192442
0.455800	-2.200232
0.455900	-2.246647
0.456000	-2.278781
0.456100	-2.270991
0.456200	-2.242427
0.456300	-2.211267
0.456400	-2.171993
0.456500	-2.130771
0.456600	-2.088575
0.456700	-2.033720
0.456800	-1.983410
0.456900	-1.938618
0.457000	-1.893501
0.457100	-1.867859
0.457200	-1.828259
0.457300	-1.804889
0.457400	-1.777300
0.457500	-1.751009
0.457600	-1.730560
0.457700	-1.734130
0.457800	-1.757825
0.457900	-1.743219
0.458000	-1.769835
0.458100	-1.804889
0.458200	-1.870455
0.458300	-2.001262
0.458400	-2.105778
0.458500	-2.107725
0.458600	-2.007429
0.458700	-1.935047
0.458800	-1.966856
0.458900	-2.093444
0.459000	-2.187573
0.459100	-2.195363
0.459200	-2.126551
0.459300	-2.043458
0.459400	-2.058064
0.459500	-2.109673
0.459600	-2.197310
0.459700	-2.219706
0.459800	-2.207697
0.459900	-2.174265
0.460000	-2.169072
0.460100	-2.184002
0.460200	-2.223277
0.460300	-2.244375
0.460400	-2.276184
0.460500	-2.306046
0.460600	-2.346943
0.460700	-2.375831
0.460800	-2.420299
0.460900	-2.415755
0.461000	-2.420299
0.461100	-2.470609
0.461200	-2.494304
0.461300	-2.510533
0.461400	-2.431984
0.461500	-2.389788
0.461600	-2.409912
0.461700	-2.495602
0.461800	-2.581942
0.461900	-2.603040
0.462000	-2.551431
0.462100	-2.511832
0.462200	-2.487488
0.462300	-2.587135
0.462400	-2.718591
0.462500	-2.767603
0.462600	-2.777666
0.462700	-2.744883
0.462800	-2.733847
0.462900	-2.788052
0.463000	-2.852969
0.463100	-2.888349
0.463200	-2.895490
0.463300	-2.912368
0.463400	-2.888673
0.463500	-2.899385
0.463600	-2.884454
0.463700	-2.848425
0.463800	-2.814344
0.463900	-2.790324
0.464000	-2.801036
0.464100	-2.795842
0.464200	-2.742935
0.464300	-2.686458
0.464400	-2.627383
0.464500	-2.576424
0.464600	-2.589082
0.464700	-2.570257
0.464800	-2.539097
0.464900	-2.476127
0.465000	-2.419325
0.465100	-2.367716
0.465200	-2.325196
0.465300	-2.318704
0.465400	-2.307019
0.465500	-2.321301
0.465600	-2.358953
0.465700	-2.372910
0.465800	-2.375182
0.465900	-2.389788
0.466000	-2.376805
0.466100	-2.426791
0.466200	-2.441397
0.466300	-2.482294
0.466400	-2.477750
0.466500	-2.462170
0.466600	-2.430361
0.466700	-2.301177
0.466800	-2.324222
0.466900	-2.413483
0.467000	-2.502419
0.467100	-2.518972
0.467200	-2.424519
0.467300	-2.334934
0.467400	-2.263850
0.467500	-2.335258
0.467600	-2.391736
0.467700	-2.396604
0.467800	-2.344996
0.467900	-2.242103
0.468000	-2.169721
0.468100	-2.112919
0.468200	-2.099286
0.468300	-2.100260
0.468400	-2.032747
0.468500	-2.026904
0.468600	-1.964909
0.468700	-1.917844
0.468800	-1.887983
0.468900	-1.851305
0.469000	-1.832154
0.469100	-1.837672
0.469200	-1.818847
0.469300	-1.830532
0.469400	-1.800021
0.469500	-1.777625
0.469600	-1.769510
0.469700	-1.812355
0.469800	-1.918493
0.469900	-1.946083
0.470000	-1.932775
0.470100	-1.871104
0.470200	-1.827610
0.470300	-1.877921
0.470400	-1.955171
0.470500	-2.036317
0.470600	-2.007105
0.470700	-1.928556
0.470800	-1.865262
0.470900	-1.856498
0.471000	-1.889606
0.471100	-1.899018
0.471200	-1.874675
0.471300	-1.855524
0.471400	-1.817873
0.471500	-1.813653
0.471600	-1.805863
0.471700	-1.815276
0.471800	-1.790283
0.471900	-1.786388
0.472000	-1.798722
0.472100	-1.795152
0.472200	-1.785090
0.472300	-1.777625
0.472400	-1.750684
0.472500	-1.762045
0.472600	-1.808784
0.472700	-1.838971
0.472800	-1.823066
0.472900	-1.802293
0.473000	-1.744517
0.473100	-1.744192
0.473200	-1.727314
0.473300	-1.714331
0.473400	-1.686417
0.473500	-1.670837
0.473600	-1.647791
0.473700	-1.646818
0.473800	-1.649739
0.473900	-1.625395
0.474000	-1.626044
0.474100	-1.618579
0.474200	-1.603648
0.474300	-1.582875
0.474400	-1.585147
0.474500	-1.570216
0.474600	-1.608192
0.474700	-1.622474
0.474800	-1.668565
0.474900	-1.742570
0.475000	-1.876298
0.475100	-1.953548
0.475200	-1.942837
0.475300	-1.871754
0.475400	-1.877271
0.475500	-1.988603
0.475600	-2.157711
0.475700	-2.267420
0.475800	-2.288518
0.475900	-2.236909
0.476000	-2.213539
0.476100	-2.288518
0.476200	-2.389139
0.476300	-2.465091
0.476400	-2.496576
0.476500	-2.475154
0.476600	-2.480996
0.476700	-2.489111
0.476800	-2.517025
0.476900	-2.510533
0.477000	-2.521244
0.477100	-2.542342
0.477200	-2.552080
0.477300	-2.592653
0.477400	-2.611479
0.477500	-2.629331
0.477600	-2.626085
0.477700	-2.651402
0.477800	-2.679966
0.477900	-2.699116
0.478000	-2.664386
0.478100	-2.609207
0.478200	-2.570257
0.478300	-2.641990
0.478400	-2.729303
0.478500	-2.792596
0.478600	-2.753646
0.478700	-2.677369
0.478800	-2.609531
0.478900	-2.585837
0.479000	-2.649780
0.479100	-2.737093
0.479200	-2.745207
0.479300	-2.678668
0.479400	-2.597197
0.479500	-2.563116
0.479600	-2.558572
0.479700	-2.546887
0.479800	-2.512805
0.479900	-2.466390
0.480000	-2.407965
0.480100	-2.378752
0.480200	-2.343048
0.480300	-2.268719
0.480400	-2.221329
0.480500	-2.158685
0.480600	-2.142131
0.480700	-2.158036
0.480800	-2.171019
0.480900	-2.125577
0.481000	-2.071047
0.481100	-2.018140
0.481200	-2.011000
0.481300	-2.035019
0.481400	-2.002236
0.481500	-1.972374
0.481600	-1.942188
0.481700	-1.902913
0.481800	-1.863964
0.481900	-1.821443
0.482000	-1.803267
0.482100	-1.773730
0.482200	-1.751982
0.482300	-1.736403
0.482400	-1.721796
0.482500	-1.698751
0.482600	-1.671486
0.482700	-1.650713
0.482800	-1.659476
0.482900	-1.659801
0.483000	-1.660775
0.483100	-1.655581
0.483200	-1.609815
0.483300	-1.490369
0.483400	-1.389424
0.483500	-1.434216
0.483600	-1.534188
0.483700	-1.581252
0.483800	-1.529319
0.483900	-1.427725
0.484000	-1.297242
0.484100	-1.293997
0.484200	-1.352421
0.484300	-1.401433
0.484400	-1.375791
0.484500	-1.347877
0.484600	-1.283610
0.484700	-1.240441
0.484800	-1.236870
0.484900	-1.261214
0.485000	-1.251476
0.485100	-1.250178
0.485200	-1.239467
0.485300	-1.244011
0.485400	-1.234273
0.485500	-1.241090
0.485600	-1.231352
0.485700	-1.244335
0.485800	-1.235896
0.485900	-1.287830
0.486000	-1.285233
0.486100	-1.272250
0.486200	-1.275171
0.486300	-1.266407
0.486400	-1.347553
0.486500	-1.418636
0.486600	-1.422856
0.486700	-1.391371
0.486800	-1.281662
0.486900	-1.281987
0.487000	-1.312498
0.487100	-1.397538
0.487200	-1.373519
0.487300	-1.293347
0.487400	-1.198569
0.487500	-1.137873
0.487600	-1.115476
0.487700	-1.142092
0.487800	-1.128784
0.487900	-1.131381
0.488000	-1.076202
0.488100	-1.045691
0.488200	-1.075228
0.488300	-1.088211
0.488400	-1.098273
0.488500	-1.080097
0.488600	-1.096001
0.488700	-1.113204
0.488800	-1.122293
0.488900	-1.100546
0.489000	-1.091782
0.489100	-1.101195
0.489200	-1.127486
0.489300	-1.176498
0.489400	-1.189806
0.489500	-1.186560
0.489600	-1.127486
0.489700	-1.138197
0.489800	-1.139495
0.489900	-1.138197
0.490000	-1.137223
0.490100	-1.132355
0.490200	-1.144689
0.490300	-1.145987
0.490400	-1.163190
0.490500	-1.175199
0.490600	-1.189481
0.490700	-1.203763
0.490800	-1.192727
0.490900	-1.192727
0.491000	-1.180717
0.491100	-1.149233
0.491200	-1.157997
0.491300	-1.159944
0.491400	-1.168708
0.491500	-1.173577
0.491600	-1.261538
0.491700	-1.367677
0.491800	-1.402407
0.491900	-1.346903
0.492000	-1.288803
0.492100	-1.308278
0.492200	-1.407600
0.492300	-1.529968
0.492400	-1.564049
0.492500	-1.528345
0.492600	-1.439734
0.492700	-1.436813
0.492800	-1.491018
0.492900	-1.590989
0.493000	-1.640001
0.493100	-1.661424
0.493200	-1.644546
0.493300	-1.629939
0.493400	-1.633510
0.493500	-1.642923
0.493600	-1.654283
0.493700	-1.667591
0.493800	-1.664345
0.493900	-1.671811
0.494000	-1.685768
0.494100	-1.719849
0.494200	-1.725691
0.494300	-1.703620
0.494400	-1.710111
0.494500	-1.723744
0.494600	-1.700698
0.494700	-1.662073
0.494800	-1.580927
0.494900	-1.568269
0.495000	-1.609491
0.495100	-1.678302
0.495200	-1.700698
0.495300	-1.656880
0.495400	-1.555610
0.495500	-1.503352
0.495600	-1.534837
0.495700	-1.617605
0.495800	-1.675381
0.495900	-1.678951
0.496000	-1.618579
0.496100	-1.577032
0.496200	-1.565347
0.496300	-1.596832
0.496400	-1.615333
0.496500	-1.607543
0.496600	-1.589367
0.496700	-1.595209
0.496800	-1.587419
0.496900	-1.543276
0.497000	-1.492641
0.497100	-1.434216
0.497200	-1.380985
0.497300	-1.345605
0.497400	-1.327429
0.497500	-1.276469
0.497600	-1.201166
0.497700	-1.142417
0.497800	-1.070359
0.497900	-1.049586
0.498000	-1.025567
0.498100	-1.000899
0.498200	-0.953834
0.498300	-0.913586
0.498400	-0.839257
0.498500	-0.819457
0.498600	-0.807123
0.498700	-0.815238
0.498800	-0.823352
0.498900	-0.838608
0.499000	-0.863276
0.499100	-0.905796
0.499200	-0.927219
0.499300	-0.947667
0.499400	-0.964546
0.499500	-0.988889
0.499600	-1.038550
0.499700	-1.083018
0.499800	-1.092756
0.499900	-1.048612
0.500000	-0.967142
0.500100	-0.924297
0.500200	-0.974608
0.500300	-1.107686
0.500400	-1.101195
0.500500	-1.062245
0.500600	-0.904498
0.500700	-0.829520
0.500800	-0.833739
0.500900	-0.866197
0.501000	-0.886321
0.501100	-0.836011
0.501200	-0.753892
0.501300	-0.675343
0.501400	-0.631849
0.501500	-0.628279
0.501600	-0.633147
0.501700	-0.638990
0.501800	-0.596470
0.501900	-0.558818
0.502000	-0.547133
0.502100	-0.524737
0.502200	-0.493253
0.502300	-0.425740
0.502400	-0.426389
0.502500	-0.383219
0.502600	-0.391659
0.502700	-0.381272
0.502800	-0.367964
0.502900	-0.348165
0.503000	-0.330962
0.503100	-0.429310
0.503200	-0.486436
0.503300	-0.475725
0.503400	-0.420871
0.503500	-0.325768
0.503600	-0.339076
0.503700	-0.406914
0.503800	-0.489033
0.503900	-0.494551
0.504000	-0.428336
0.504100	-0.366990
0.504200	-0.373157
0.504300	-0.407888
0.504400	-0.444565
0.504500	-0.433530
0.504600	-0.437425
0.504700	-0.393606
0.504800	-0.392308
0.504900	-0.379000
0.505000	-0.390685
0.505100	-0.380298
0.505200	-0.370885
0.505300	-0.355630
0.505400	-0.360499
0.505500	-0.368613
0.505600	-0.366990
0.505700	-0.358876
0.505800	-0.372508
0.505900	-0.434828
0.506000	-0.487086
0.506100	-0.530580
0.506200	-0.535124
0.506300	-0.539019
0.506400	-0.596145
0.506500	-0.623735
0.506600	-0.628928
0.506700	-0.658465
0.506800	-0.695467
0.506900	-0.697090
0.507000	-0.706178
0.507100	-0.724030
0.507200	-0.717214
0.507300	-0.720785
0.507400	-0.737663
0.507500	-0.728575
0.507600	-0.727601
0.507700	-0.719162
0.507800	-0.724680
0.507900	-0.712995
0.508000	-0.709749
0.508100	-0.727276
0.508200	-0.741233
0.508300	-0.839906
0.508400	-0.927219
0.508500	-0.918780
0.508600	-0.835037
0.508700	-0.776937
0.508800	-0.805176
0.508900	-0.927219
0.509000	-1.025243
0.509100	-1.048612
0.509200	-1.027190
0.509300	-0.961300
0.509400	-0.961949
0.509500	-1.003171
0.509600	-1.067438
0.509700	-1.107686
0.509800	-1.077500
0.509900	-1.035954
0.510000	-1.043744
0.510100	-1.029137
0.510200	-1.043419
0.510300	-1.050884
0.510400	-1.069386
0.510500	-1.080097
0.510600	-1.086264
0.510700	-1.105739
0.510800	-1.118398
0.510900	-1.135925
0.511000	-1.153128
0.511100	-1.195973
0.511200	-1.226159
0.511300	-1.238168
0.511400	-1.221290
0.511500	-1.202140
0.511600	-1.240441
0.511700	-1.339438
0.511800	-1.444603
0.511900	-1.483553
0.512000	-1.457586
0.512100	-1.386178
0.512200	-1.355667
0.512300	-1.412469
0.512400	-1.508546
0.512500	-1.567944
0.512600	-1.559505
0.512700	-1.498483
0.512800	-1.479658
0.512900	-1.482579
0.513000	-1.496211
0.513100	-1.509519
0.513200	-1.482254
0.513300	-1.454665
0.513400	-1.426102
0.513500	-1.387801
0.513600	-1.335543
0.513700	-1.283935
0.513800	-1.239467
0.513900	-1.212851
0.514000	-1.178770
0.514100	-1.177147
0.514200	-1.127161
0.514300	-1.057701
0.514400	-1.024269
0.514500	-0.937281
0.514600	-0.910665
0.514700	-0.866522
0.514800	-0.814589
0.514900	-0.771744
0.515000	-0.703906
0.515100	-0.668851
0.515200	-0.641911
0.515300	-0.629577
0.515400	-0.612699
0.515500	-0.624708
0.515600	-0.634446
0.515700	-0.615620
0.515800	-0.613348
0.515900	-0.597443
0.516000	-0.595821
0.516100	-0.577319
0.516200	-0.565310
0.516300	-0.588031
0.516400	-0.524088
0.516500	-0.517921
0.516600	-0.412756
0.516700	-0.310838
0.516800	-0.230017
0.516900	-0.294933
0.517000	-0.318628
0.517100	-0.289740
0.517200	-0.181979
0.517300	-0.045330
0.517400	0.036789
0.517500	0.028675
0.517600	-0.020013
0.517700	-0.026829
0.517800	0.026727
0.517900	0.107873
0.518000	0.159481
0.518100	0.198106
0.518200	0.172464
0.518300	0.166622
0.518400	0.186746
0.518500	0.234459
0.518600	0.249066
0.518700	0.270488
0.518800	0.294507
0.518900	0.318526
0.519000	0.317552
0.519100	0.312684
0.519200	0.280225
0.519300	0.277304
0.519400	0.258803
0.519500	0.264646
0.519600	0.262373
0.519700	0.245495
0.519800	0.119882
0.519900	0.058861
0.520000	0.068274
0.520100	0.102679
0.520200	0.143577
0.520300	0.096837
0.520400	-0.008977
0.520500	-0.081683
0.520600	-0.068051
0.520700	-0.006056
0.520800	0.044579
0.520900	0.016341
0.521000	-0.050523
0.521100	-0.099535
0.521200	-0.109597
0.521300	-0.137511
0.521400	-0.124528
0.521500	-0.156661
0.521600	-0.201454
0.521700	-0.246895
0.521800	-0.261501
0.521900	-0.267019
0.522000	-0.280976
0.522100	-0.272212
0.522200	-0.241053
0.522300	-0.214762
0.522400	-0.193988
0.522500	-0.196260
0.522600	-0.234561
0.522700	-0.251764
0.522800	-0.255010
0.522900	-0.194637
0.523000	-0.174189
0.523100	-0.175163
0.523200	-0.150170
0.523300	-0.132642
0.523400	-0.117387
0.523500	-0.090771
0.523600	-0.093043
0.523700	-0.065454
0.523800	-0.054743
0.523900	-0.043382
0.524000	-0.032347
0.524100	-0.036566
0.524200	-0.065454
0.524300	-0.081358
0.524400	-0.094666
0.524500	-0.119010
0.524600	-0.153740
0.524700	-0.176785
0.524800	-0.245921
0.524900	-0.320575
0.525000	-0.480919
0.525100	-0.571477
0.525200	-0.589978
0.525300	-0.556222
0.525400	-0.518245
0.525500	-0.611725
0.525600	-0.717863
0.525700	-0.830493
0.525800	-0.840880
0.525900	-0.774665
0.526000	-0.716890
0.526100	-0.721434
0.526200	-0.769472
0.526300	-0.807123
0.526400	-0.804527
0.526500	-0.744804
0.526600	-0.717863
0.526700	-0.697090
0.526800	-0.701634
0.526900	-0.695792
0.527000	-0.711372
0.527100	-0.710398
0.527200	-0.709100
0.527300	-0.725653
0.527400	-0.738637
0.527500	-0.764928
0.527600	-0.790245
0.527700	-0.832765
0.527800	-0.894761
0.527900	-0.946694
0.528000	-0.976880
0.528100	-0.950589
0.528200	-0.956431
0.528300	-1.017777
0.528400	-1.124240
0.528500	-1.252125
0.528600	-1.283935
0.528700	-1.235247
0.528800	-1.224211
0.528900	-1.272574
0.529000	-1.356641
0.529100	-1.456612
0.529200	-1.505300
0.529300	-1.476087
0.529400	-1.439085
0.529500	-1.416689
0.529600	-1.415066
0.529700	-1.438760
0.529800	-1.443954
0.529900	-1.452393
0.530000	-1.449472
0.530100	-1.438111
0.530200	-1.411495
0.530300	-1.378388
0.530400	-1.334245
0.530500	-1.306006
0.530600	-1.294970
0.530700	-1.301137
0.530800	-1.289452
0.530900	-1.232001
0.531000	-1.177472
0.531100	-1.132355
0.531200	-1.069386
0.531300	-1.045042
0.531400	-1.006092
0.531500	-0.958703
0.531600	-0.903200
0.531700	-0.831142
0.531800	-0.789596
0.531900	-0.762656
0.532000	-0.760708
0.532100	-0.731496
0.532200	-0.704555
0.532300	-0.696766
0.532400	-0.672097
0.532500	-0.663983
0.532600	-0.632823
0.532700	-0.624384
0.532800	-0.623735
0.532900	-0.634770
0.533000	-0.630875
0.533100	-0.622112
0.533200	-0.576346
0.533300	-0.486761
0.533400	-0.370561
0.533500	-0.389386
0.533600	-0.467286
0.533700	-0.517272
0.533800	-0.487735
0.533900	-0.390360
0.534000	-0.263773
0.534100	-0.228394
0.534200	-0.238781
0.534300	-0.297205
0.534400	-0.269291
0.534500	-0.205673
0.534600	-0.112843
0.534700	-0.080385
0.534800	-0.054094
0.534900	-0.061884
0.535000	-0.060585
0.535100	-0.061559
0.535200	-0.037540
0.535300	-0.013845
0.535400	0.015691
0.535500	0.028999
0.535600	0.052045
0.535700	0.060484
0.535800	0.047176
0.535900	0.075739
0.536000	0.076064
0.536100	0.095214
0.536200	0.141954
0.536300	0.160130
0.536400	0.098135
0.536500	0.003033
0.536600	-0.017416
0.536700	-0.004433
0.536800	0.073142
0.536900	0.084178
0.537000	0.046527
0.537100	-0.041435
0.537200	-0.078762
0.537300	-0.033970
0.537400	0.056264
0.537500	0.105601
0.537600	0.111443
0.537700	0.050746
0.537800	0.023806
0.537900	0.024780
0.538000	0.034193
0.538100	0.044255
0.538200	0.027052
0.538300	-0.003134
0.538400	-0.034294
0.538500	-0.041759
0.538600	-0.060585
0.538700	-0.090447
0.538800	-0.094017
0.538900	-0.099210
0.539000	-0.077463
0.539100	-0.071296
0.539200	-0.094342
0.539300	-0.135888
0.539400	-0.154714
0.539500	-0.144652
0.539600	-0.094666
0.539700	-0.104404
0.539800	-0.126151
0.539900	-0.125502
0.540000	-0.139783
0.540100	-0.125177
0.540200	-0.129721
0.540300	-0.126151
0.540400	-0.153091
0.540500	-0.154389
0.540600	-0.150170
0.540700	-0.162828
0.540800	-0.168996
0.540900	-0.162828
0.541000	-0.152117
0.541100	-0.155363
0.541200	-0.137836
0.541300	-0.161530
0.541400	-0.135564
0.541500	-0.159907
0.541600	-0.235210
0.541700	-0.356928
0.541800	-0.417625
0.541900	-0.359525
0.542000	-0.306294
0.542100	-0.316031
0.542200	-0.417625
0.542300	-0.571477
0.542400	-0.672097
0.542500	-0.662684
0.542600	-0.611725
0.542700	-0.628603
0.542800	-0.704231
0.542900	-0.812317
0.543000	-0.874312
0.543100	-0.895085
0.543200	-0.891839
0.543300	-0.903200
0.543400	-0.923648
0.543500	-0.939553
0.543600	-0.974608
0.543700	-1.010636
0.543800	-1.021348
0.543900	-1.038875
0.544000	-1.108011
0.544100	-1.156049
0.544200	-1.179419
0.544300	-1.205061
0.544400	-1.221939
0.544500	-1.263161
0.544600	-1.285882
0.544700	-1.267056
0.544800	-1.186884
0.544900	-1.178445
0.545000	-1.235896
0.545100	-1.297892
0.545200	-1.346579
0.545300	-1.319639
0.545400	-1.245634
0.545500	-1.174875
0.545600	-1.196297
0.545700	-1.276794
0.545800	-1.360536
0.545900	-1.379686
0.546000	-1.332297
0.546100	-1.293672
0.546200	-1.276145
0.546300	-1.305682
0.546400	-1.313796
0.546500	-1.313472
0.546600	-1.286531
0.546700	-1.275820
0.546800	-1.263486
0.546900	-1.245309
0.547000	-1.207658
0.547100	-1.153128
0.547200	-1.125214
0.547300	-1.105414
0.547400	-1.104441
0.547500	-1.088861
0.547600	-1.014207
0.547700	-0.955782
0.547800	-0.888918
0.547900	-0.875610
0.548000	-0.852889
0.548100	-0.806799
0.548200	-0.767524
0.548300	-0.742856
0.548400	-0.669176
0.548500	-0.632823
0.548600	-0.608155
0.548700	-0.620164
0.548800	-0.624059
0.548900	-0.643534
0.549000	-0.639964
0.549100	-0.649052
0.549200	-0.625033
0.549300	-0.624708
0.549400	-0.618541
0.549500	-0.615295
0.549600	-0.627630
0.549700	-0.620164
0.549800	-0.603286
0.549900	-0.525386
0.550000	-0.408861
0.550100	-0.303048
0.550200	-0.334532
0.550300	-0.432231
0.550400	-0.487086
0.550500	-0.449110
0.550600	-0.341998
0.550700	-0.220604
0.550800	-0.215086
0.550900	-0.259878
0.551000	-0.328041
0.551100	-0.318628
0.551200	-0.286494
0.551300	-0.241702
0.551400	-0.196585
0.551500	-0.218332
0.551600	-0.210867
0.551700	-0.225473
0.551800	-0.205998
0.551900	-0.191716
0.552000	-0.187172
0.552100	-0.172890
0.552200	-0.176461
0.552300	-0.188795
0.552400	-0.193339
0.552500	-0.230666
0.552600	-0.223201
0.552700	-0.214437
0.552800	-0.181654
0.552900	-0.155363
0.553000	-0.118685
0.553100	-0.182303
0.553200	-0.267668
0.553300	-0.267993
0.553400	-0.207621
0.553500	-0.116089
0.553600	-0.116413
0.553700	-0.160881
0.553800	-0.254360
0.553900	-0.265721
0.554000	-0.232614
0.554100	-0.160881
0.554200	-0.121931
0.554300	-0.140108
0.554400	-0.201454
0.554500	-0.232614
0.554600	-0.250790
0.554700	-0.232289
0.554800	-0.237158
0.554900	-0.252088
0.555000	-0.291363
0.555100	-0.308566
0.555200	-0.293959
0.555300	-0.322198
0.555400	-0.328041
0.555500	-0.341998
0.555600	-0.323496
0.555700	-0.323172
0.555800	-0.327716
0.555900	-0.381597
0.556000	-0.431582
0.556100	-0.470207
0.556200	-0.447811
0.556300	-0.405616
0.556400	-0.422494
0.556500	-0.435153
0.556600	-0.433854
0.556700	-0.433530
0.556800	-0.434828
0.556900	-0.439372
0.557000	-0.435153
0.557100	-0.437425
0.557200	-0.426389
0.557300	-0.412107
0.557400	-0.388413
0.557500	-0.402370
0.557600	-0.393931
0.557700	-0.404966
0.557800	-0.425415
0.557900	-0.458522
0.558000	-0.481892
0.558100	-0.519544
0.558200	-0.544212
0.558300	-0.658789
0.558400	-0.759734
0.558500	-0.810369
0.558600	-0.735391
0.558700	-0.669501
0.558800	-0.682484
0.558900	-0.822054
0.559000	-0.956431
0.559100	-1.030111
0.559200	-1.003496
0.559300	-0.942799
0.559400	-0.932737
0.559500	-0.992784
0.559600	-1.096326
0.559700	-1.140794
0.559800	-1.145987
0.559900	-1.113529
0.560000	-1.105090
0.560100	-1.127486
0.560200	-1.138197
0.560300	-1.168383
0.560400	-1.170006
0.560500	-1.175849
0.560600	-1.194674
0.560700	-1.215772
0.560800	-1.240441
0.560900	-1.253424
0.561000	-1.286531
0.561100	-1.334894
0.561200	-1.376765
0.561300	-1.391696
0.561400	-1.355667
0.561500	-1.303734
0.561600	-1.322235
0.561700	-1.390722
0.561800	-1.492966
0.561900	-1.534837
0.562000	-1.503677
0.562100	-1.434216
0.562200	-1.413118
0.562300	-1.450121
0.562400	-1.550092
0.562500	-1.612412
0.562600	-1.585147
0.562700	-1.532565
0.562800	-1.476736
0.562900	-1.469271
0.563000	-1.464402
0.563100	-1.485825
0.563200	-1.486474
0.563300	-1.480631
0.563400	-1.468297
0.563500	-1.438436
0.563600	-1.427400
0.563700	-1.369624
0.563800	-1.306331
0.563900	-1.273872
0.564000	-1.267381
0.564100	-1.263486
0.564200	-1.231352
0.564300	-1.174550
0.564400	-1.116775
0.564500	-1.052183
0.564600	-1.049911
0.564700	-1.038550
0.564800	-1.016154
0.564900	-0.985968
0.565000	-0.946694
0.565100	-0.884049
0.565200	-0.851267
0.565300	-0.837634
0.565400	-0.817510
0.565500	-0.812966
0.565600	-0.784078
0.565700	-0.782455
0.565800	-0.745128
0.565900	-0.754541
0.566000	-0.728250
0.566100	-0.750322
0.566200	-0.734092
0.566300	-0.741882
0.566400	-0.763954
0.566500	-0.742532
0.566600	-0.702283
0.566700	-0.551353
0.566800	-0.554274
0.566900	-0.585434
0.567000	-0.709749
0.567100	-0.705854
0.567200	-0.633147
0.567300	-0.503639
0.567400	-0.431907
0.567500	-0.448460
0.567600	-0.516623
0.567700	-0.547133
0.567800	-0.492279
0.567900	-0.399773
0.568000	-0.332260
0.568100	-0.304671
0.568200	-0.316031
0.568300	-0.342971
0.568400	-0.353033
0.568500	-0.337453
0.568600	-0.310838
0.568700	-0.297530
0.568800	-0.279678
0.568900	-0.265396
0.569000	-0.254036
0.569100	-0.284871
0.569200	-0.260528
0.569300	-0.287143
0.569400	-0.262800
0.569500	-0.220279
0.569600	-0.238781
0.569700	-0.244298
0.569800	-0.343296
0.569900	-0.419897
0.570000	-0.440995
0.570100	-0.421520
0.570200	-0.352060
0.570300	-0.410809
0.570400	-0.491630
0.570500	-0.567582
0.570600	-0.574074
0.570700	-0.492604
0.570800	-0.423468
0.570900	-0.398150
0.571000	-0.436126
0.571100	-0.470532
0.571200	-0.469558
0.571300	-0.476699
0.571400	-0.457224
0.571500	-0.485138
0.571600	-0.490331
0.571700	-0.504288
0.571800	-0.510456
0.571900	-0.516947
0.572000	-0.536097
0.572100	-0.569529
0.572200	-0.556222
0.572300	-0.555248
0.572400	-0.552651
0.572500	-0.574723
0.572600	-0.624384
0.572700	-0.663009
0.572800	-0.683133
0.572900	-0.649701
0.573000	-0.636393
0.573100	-0.660737
0.573200	-0.641587
0.573300	-0.655868
0.573400	-0.652622
0.573500	-0.677615
0.573600	-0.672422
0.573700	-0.685405
0.573800	-0.675343
0.573900	-0.674369
0.574000	-0.671773
0.574100	-0.677291
0.574200	-0.670799
0.574300	-0.678589
0.574400	-0.657816
0.574500	-0.678589
0.574600	-0.665606
0.574700	-0.664956
0.574800	-0.659439
0.574900	-0.703257
0.575000	-0.812641
0.575100	-0.905472
0.575200	-0.928517
0.575300	-0.873014
0.575400	-0.833090
0.575500	-0.873338
0.575600	-0.997653
0.575700	-1.114827
0.575800	-1.133328
0.575900	-1.083343
0.576000	-1.028813
0.576100	-1.050235
0.576200	-1.114827
0.576300	-1.182016
0.576400	-1.216746
0.576500	-1.210579
0.576600	-1.222264
0.576700	-1.241414
0.576800	-1.296593
0.576900	-1.340412
0.577000	-1.413118
0.577100	-1.446226
0.577200	-1.488097
0.577300	-1.520231
0.577400	-1.566970
0.577500	-1.606245
0.577600	-1.623123
0.577700	-1.620851
0.577800	-1.640651
0.577900	-1.658503
0.578000	-1.637729
0.578100	-1.559180
0.578200	-1.484202
0.578300	-1.477061
0.578400	-1.526398
0.578500	-1.592612
0.578600	-1.602674
0.578700	-1.537109
0.578800	-1.466674
0.578900	-1.447849
0.579000	-1.525424
0.579100	-1.585796
0.579200	-1.634159
0.579300	-1.624746
0.579400	-1.585472
0.579500	-1.560479
0.579600	-1.572164
0.579700	-1.595534
0.579800	-1.611438
0.579900	-1.619553
0.580000	-1.615333
0.580100	-1.591963
0.580200	-1.564049
0.580300	-1.545548
0.580400	-1.483228
0.580500	-1.430321
0.580600	-1.413118
0.580700	-1.391371
0.580800	-1.382283
0.580900	-1.328078
0.581000	-1.262837
0.581100	-1.232651
0.581200	-1.157997
0.581300	-1.155075
0.581400	-1.123591
0.581500	-1.087887
0.581600	-1.077176
0.581700	-1.017453
0.581800	-0.989214
0.581900	-0.959352
0.582000	-0.937930
0.582100	-0.918780
0.582200	-0.919104
0.582300	-0.909042
0.582400	-0.906445
0.582500	-0.861004
0.582600	-0.858732
0.582700	-0.822703
0.582800	-0.838608
0.582900	-0.813940
0.583000	-0.836660
0.583100	-0.793491
0.583200	-0.764603
0.583300	-0.680536
0.583400	-0.578942
0.583500	-0.567582
0.583600	-0.644183
0.583700	-0.727925
0.583800	-0.704880
0.583900	-0.600689
0.584000	-0.468584
0.584100	-0.424441
0.584200	-0.451057
0.584300	-0.545510
0.584400	-0.543887
0.584500	-0.502016
0.584600	-0.445215
0.584700	-0.420871
0.584800	-0.409835
0.584900	-0.426713
0.585000	-0.407563
0.585100	-0.401071
0.585200	-0.355630
0.585300	-0.318952
0.585400	-0.292986
0.585500	-0.290064
0.585600	-0.256308
0.585700	-0.262150
0.585800	-0.280652
0.585900	-0.286170
0.586000	-0.276432
0.586100	-0.283248
0.586200	-0.246895
0.586300	-0.238781
0.586400	-0.257282
0.586500	-0.378675
0.586600	-0.412756
0.586700	-0.400422
0.586800	-0.325444
0.586900	-0.311811
0.587000	-0.356604
0.587100	-0.479945
0.587200	-0.560766
0.587300	-0.577644
0.587400	-0.526360
0.587500	-0.475076
0.587600	-0.508183
0.587700	-0.573749
0.587800	-0.610427
0.587900	-0.619190
0.588000	-0.619840
0.588100	-0.605233
0.588200	-0.615620
0.588300	-0.609778
0.588400	-0.614646
0.588500	-0.603286
0.588600	-0.597119
0.588700	-0.595171
0.588800	-0.576346
0.588900	-0.576021
0.589000	-0.553949
0.589100	-0.543887
0.589200	-0.542265
0.589300	-0.582188
0.589400	-0.611725
0.589500	-0.631849
0.589600	-0.583486
0.589700	-0.587057
0.589800	-0.589004
0.589900	-0.582513
0.590000	-0.592899
0.590100	-0.584785
0.590200	-0.580565
0.590300	-0.561739
0.590400	-0.582837
0.590500	-0.576995
0.590600	-0.569529
0.590700	-0.586732
0.590800	-0.609778
0.590900	-0.618541
0.591000	-0.625682
0.591100	-0.659439
0.591200	-0.679887
0.591300	-0.687353
0.591400	-0.685405
0.591500	-0.699038
0.591600	-0.741558
0.591700	-0.831142
0.591800	-0.890866
0.591900	-0.859381
0.592000	-0.760384
0.592100	-0.701634
0.592200	-0.763629
0.592300	-0.875286
0.592400	-0.965844
0.592500	-0.951562
0.592600	-0.885348
0.592700	-0.861978
0.592800	-0.890541
0.592900	-0.962598
0.593000	-1.027839
0.593100	-1.040498
0.593200	-1.030436
0.593300	-1.017453
0.593400	-1.028488
0.593500	-1.048288
0.593600	-1.079448
0.593700	-1.080097
0.593800	-1.084316
0.593900	-1.101844
0.594000	-1.127161
0.594100	-1.146636
0.594200	-1.166760
0.594300	-1.184288
0.594400	-1.197920
0.594500	-1.217071
0.594600	-1.244985
0.594700	-1.220316
0.594800	-1.148259
0.594900	-1.146312
0.595000	-1.185262
0.595100	-1.291075
0.595200	-1.369624
0.595300	-1.375142
0.595400	-1.346579
0.595500	-1.314445
0.595600	-1.335868
0.595700	-1.444278
0.595800	-1.549768
0.595900	-1.604297
0.596000	-1.590340
0.596100	-1.575734
0.596200	-1.570865
0.596300	-1.596832
0.596400	-1.619877
0.596500	-1.639028
0.596600	-1.645519
0.596700	-1.627992
0.596800	-1.635457
0.596900	-1.633510
0.597000	-1.612737
0.597100	-1.578655
0.597200	-1.550092
0.597300	-1.537109
0.597400	-1.540030
0.597500	-1.511467
0.597600	-1.455639
0.597700	-1.405328
0.597800	-1.330674
0.597900	-1.276469
0.598000	-1.273872
0.598100	-1.238168
0.598200	-1.194350
0.598300	-1.143715
0.598400	-1.084316
0.598500	-1.034980
0.598600	-0.999276
0.598700	-0.997978
0.598800	-0.978503
0.598900	-0.967467
0.599000	-0.956756
0.599100	-0.949615
0.599200	-0.944097
0.599300	-0.923973
0.599400	-0.940527
0.599500	-0.920402
0.599600	-0.937930
0.599700	-0.957405
0.599800	-0.910340
0.599900	-0.917157
0.600000	-0.780183
0.600100	-0.737663
0.600200	-0.713644
0.600300	-0.853539
0.600400	-0.895734
0.600500	-0.866846
0.600600	-0.738637
0.600700	-0.647104
0.600800	-0.616918
0.600900	-0.666255
