LabVIEW Measurement	
Writer_Version	2
Reader_Version	2
Separator	Tab
Decimal_Separator	.
Multi_Headings	Yes
X_Columns	One
Time_Pref	Relative
Operator	as989
Description	Time Domain Data
Date	1903/12/31
Time	19:00:00
***End_of_Header***	
	
Channels	1	
Samples	15000	
Date	1903/12/31	
Time	19:00:00	
X_Dimension	Time	
X0	0.0000000000000000E+0	
Delta_X	0.000100	
***End_of_Header***		
X_Value	Untitled	Comment
0.000000	-0.739610	Tare Values:0.000000, 0.000000, 0.000000, 0.000000\0D\0A
0.000100	-0.766551
0.000200	-0.782780
0.000300	-0.799009
0.000400	-0.823028
0.000500	-0.823677
0.000600	-0.827247
0.000700	-0.824651
0.000800	-0.832765
0.000900	-0.830493
0.001000	-0.849644
0.001100	-0.840880
0.001200	-0.856784
0.001300	-0.854188
0.001400	-0.860030
0.001500	-0.866522
0.001600	-0.882102
0.001700	-0.884698
0.001800	-0.918780
0.001900	-0.943123
0.002000	-0.967791
0.002100	-1.025892
0.002200	-1.134951
0.002300	-1.206035
0.002400	-1.192078
0.002500	-1.139820
0.002600	-1.088211
0.002700	-1.139820
0.002800	-1.238168
0.002900	-1.342035
0.003000	-1.383906
0.003100	-1.349825
0.003200	-1.305032
0.003300	-1.315744
0.003400	-1.392020
0.003500	-1.478684
0.003600	-1.503677
0.003700	-1.489071
0.003800	-1.460183
0.003900	-1.475763
0.004000	-1.513090
0.004100	-1.547820
0.004200	-1.549443
0.004300	-1.571190
0.004400	-1.571515
0.004500	-1.604947
0.004600	-1.664345
0.004700	-1.672460
0.004800	-1.665643
0.004900	-1.687066
0.005000	-1.709462
0.005100	-1.723419
0.005200	-1.720173
0.005300	-1.674732
0.005400	-1.630589
0.005500	-1.666617
0.005600	-1.761720
0.005700	-1.823715
0.005800	-1.837997
0.005900	-1.783467
0.006000	-1.727639
0.006100	-1.710111
0.006200	-1.764317
0.006300	-1.859744
0.006400	-1.901615
0.006500	-1.893825
0.006600	-1.839295
0.006700	-1.812030
0.006800	-1.832154
0.006900	-1.875649
0.007000	-1.891553
0.007100	-1.909405
0.007200	-1.939591
0.007300	-1.911028
0.007400	-1.904861
0.007500	-1.860393
0.007600	-1.825987
0.007700	-1.792231
0.007800	-1.780221
0.007900	-1.761720
0.008000	-1.770159
0.008100	-1.708488
0.008200	-1.632211
0.008300	-1.572164
0.008400	-1.485176
0.008500	-1.471219
0.008600	-1.447524
0.008700	-1.408899
0.008800	-1.365405
0.008900	-1.306331
0.009000	-1.255047
0.009100	-1.220641
0.009200	-1.217720
0.009300	-1.188507
0.009400	-1.188507
0.009500	-1.184612
0.009600	-1.177796
0.009700	-1.139820
0.009800	-1.129758
0.009900	-1.083018
0.010000	-1.095028
0.010100	-1.102493
0.010200	-1.095352
0.010300	-1.080746
0.010400	-1.045367
0.010500	-0.957729
0.010600	-0.824651
0.010700	-0.865873
0.010800	-0.926245
0.010900	-0.995381
0.011000	-0.966493
0.011100	-0.849968
0.011200	-0.758436
0.011300	-0.671124
0.011400	-0.706178
0.011500	-0.766551
0.011600	-0.799983
0.011700	-0.738961
0.011800	-0.701959
0.011900	-0.618217
0.012000	-0.599716
0.012100	-0.591601
0.012200	-0.621787
0.012300	-0.581864
0.012400	-0.537071
0.012500	-0.526360
0.012600	-0.499744
0.012700	-0.505587
0.012800	-0.526360
0.012900	-0.524088
0.013000	-0.537396
0.013100	-0.526360
0.013200	-0.529930
0.013300	-0.544537
0.013400	-0.512728
0.013500	-0.510456
0.013600	-0.529930
0.013700	-0.634446
0.013800	-0.667553
0.013900	-0.638665
0.014000	-0.563362
0.014100	-0.523114
0.014200	-0.556871
0.014300	-0.644183
0.014400	-0.675992
0.014500	-0.666904
0.014600	-0.581864
0.014700	-0.538694
0.014800	-0.558169
0.014900	-0.606856
0.015000	-0.621787
0.015100	-0.649701
0.015200	-0.664956
0.015300	-0.650999
0.015400	-0.665606
0.015500	-0.676641
0.015600	-0.712995
0.015700	-0.727276
0.015800	-0.729224
0.015900	-0.740259
0.016000	-0.755839
0.016100	-0.749348
0.016200	-0.737338
0.016300	-0.729224
0.016400	-0.747400
0.016500	-0.795114
0.016600	-0.811343
0.016700	-0.820107
0.016800	-0.769147
0.016900	-0.786026
0.017000	-0.797710
0.017100	-0.800956
0.017200	-0.798035
0.017300	-0.812641
0.017400	-0.800307
0.017500	-0.800632
0.017600	-0.778885
0.017700	-0.757787
0.017800	-0.762331
0.017900	-0.755190
0.018000	-0.771744
0.018100	-0.773367
0.018200	-0.775964
0.018300	-0.767200
0.018400	-0.760059
0.018500	-0.771095
0.018600	-0.789271
0.018700	-0.800307
0.018800	-0.879830
0.018900	-0.996679
0.019000	-1.062894
0.019100	-1.007390
0.019200	-0.923324
0.019300	-0.908718
0.019400	-0.993758
0.019500	-1.125214
0.019600	-1.189481
0.019700	-1.185262
0.019800	-1.118722
0.019900	-1.091782
0.020000	-1.126837
0.020100	-1.200192
0.020200	-1.265109
0.020300	-1.279390
0.020400	-1.287830
0.020500	-1.280689
0.020600	-1.289777
0.020700	-1.347228
0.020800	-1.367677
0.020900	-1.381958
0.021000	-1.419610
0.021100	-1.437137
0.021200	-1.448173
0.021300	-1.500431
0.021400	-1.521853
0.021500	-1.510818
0.021600	-1.538083
0.021700	-1.571839
0.021800	-1.581252
0.021900	-1.556908
0.022000	-1.483553
0.022100	-1.431295
0.022200	-1.481281
0.022300	-1.576708
0.022400	-1.627343
0.022500	-1.618579
0.022600	-1.565347
0.022700	-1.528994
0.022800	-1.557882
0.022900	-1.630589
0.023000	-1.730560
0.023100	-1.757500
0.023200	-1.733157
0.023300	-1.709787
0.023400	-1.685768
0.023500	-1.699725
0.023600	-1.740947
0.023700	-1.752632
0.023800	-1.732832
0.023900	-1.725042
0.024000	-1.710111
0.024100	-1.711410
0.024200	-1.692259
0.024300	-1.642923
0.024400	-1.616956
0.024500	-1.594884
0.024600	-1.575410
0.024700	-1.565023
0.024800	-1.495562
0.024900	-1.431944
0.025000	-1.341386
0.025100	-1.315419
0.025200	-1.309577
0.025300	-1.293023
0.025400	-1.249853
0.025500	-1.193051
0.025600	-1.144689
0.025700	-1.106713
0.025800	-1.064192
0.025900	-1.057052
0.026000	-1.046990
0.026100	-1.037901
0.026200	-1.040173
0.026300	-1.028164
0.026400	-1.034655
0.026500	-0.986617
0.026600	-1.017777
0.026700	-0.990512
0.026800	-1.014856
0.026900	-0.997978
0.027000	-1.012259
0.027100	-0.939228
0.027200	-0.860355
0.027300	-0.745777
0.027400	-0.798035
0.027500	-0.903200
0.027600	-0.949615
0.027700	-0.910665
0.027800	-0.821080
0.027900	-0.745453
0.028000	-0.737987
0.028100	-0.759085
0.028200	-0.837634
0.028300	-0.812317
0.028400	-0.782455
0.028500	-0.721434
0.028600	-0.693195
0.028700	-0.668527
0.028800	-0.691572
0.028900	-0.684431
0.029000	-0.666579
0.029100	-0.624059
0.029200	-0.619515
0.029300	-0.605883
0.029400	-0.603935
0.029500	-0.591926
0.029600	-0.619515
0.029700	-0.594522
0.029800	-0.620489
0.029900	-0.619840
0.030000	-0.630551
0.030100	-0.595496
0.030200	-0.603286
0.030300	-0.646131
0.030400	-0.765252
0.030500	-0.786026
0.030600	-0.733768
0.030700	-0.651649
0.030800	-0.624384
0.030900	-0.672422
0.031000	-0.784727
0.031100	-0.815563
0.031200	-0.769796
0.031300	-0.691897
0.031400	-0.670474
0.031500	-0.687353
0.031600	-0.738637
0.031700	-0.746102
0.031800	-0.752918
0.031900	-0.714293
0.032000	-0.732794
0.032100	-0.741882
0.032200	-0.762006
0.032300	-0.771419
0.032400	-0.747725
0.032500	-0.746102
0.032600	-0.754541
0.032700	-0.764603
0.032800	-0.759085
0.032900	-0.732145
0.033000	-0.721434
0.033100	-0.753243
0.033200	-0.806474
0.033300	-0.828870
0.033400	-0.820431
0.033500	-0.773691
0.033600	-0.782780
0.033700	-0.775639
0.033800	-0.787324
0.033900	-0.789921
0.034000	-0.811343
0.034100	-0.801605
0.034200	-0.807123
0.034300	-0.819782
0.034400	-0.833090
0.034500	-0.824651
0.034600	-0.847372
0.034700	-0.828221
0.034800	-0.836660
0.034900	-0.819782
0.035000	-0.825949
0.035100	-0.831467
0.035200	-0.850293
0.035300	-0.862627
0.035400	-0.887620
0.035500	-0.986942
0.035600	-1.084966
0.035700	-1.133978
0.035800	-1.053157
0.035900	-0.986617
0.036000	-0.961300
0.036100	-1.088861
0.036200	-1.198894
0.036300	-1.254398
0.036400	-1.217071
0.036500	-1.169032
0.036600	-1.158970
0.036700	-1.203114
0.036800	-1.282636
0.036900	-1.310226
0.037000	-1.327429
0.037100	-1.313472
0.037200	-1.324832
0.037300	-1.331324
0.037400	-1.371572
0.037500	-1.402407
0.037600	-1.435190
0.037700	-1.428698
0.037800	-1.433567
0.037900	-1.463104
0.038000	-1.499457
0.038100	-1.519257
0.038200	-1.521853
0.038300	-1.547820
0.038400	-1.551715
0.038500	-1.577682
0.038600	-1.542302
0.038700	-1.496211
0.038800	-1.484526
0.038900	-1.569567
0.039000	-1.688040
0.039100	-1.750684
0.039200	-1.720498
0.039300	-1.641949
0.039400	-1.628316
0.039500	-1.679276
0.039600	-1.786713
0.039700	-1.866885
0.039800	-1.863639
0.039900	-1.813978
0.040000	-1.781520
0.040100	-1.779247
0.040200	-1.803267
0.040300	-1.829233
0.040400	-1.820794
0.040500	-1.803916
0.040600	-1.783792
0.040700	-1.764966
0.040800	-1.739973
0.040900	-1.695505
0.041000	-1.647467
0.041100	-1.614684
0.041200	-1.593911
0.041300	-1.582875
0.041400	-1.546197
0.041500	-1.466674
0.041600	-1.417338
0.041700	-1.348851
0.041800	-1.318665
0.041900	-1.290426
0.042000	-1.243362
0.042100	-1.209281
0.042200	-1.169682
0.042300	-1.110608
0.042400	-1.095028
0.042500	-1.075553
0.042600	-1.083018
0.042700	-1.064842
0.042800	-1.075228
0.042900	-1.052507
0.043000	-1.050560
0.043100	-1.012584
0.043200	-1.021023
0.043300	-1.007715
0.043400	-1.011935
0.043500	-1.011285
0.043600	-1.006741
0.043700	-0.992135
0.043800	-0.904823
0.043900	-0.785701
0.044000	-0.738961
0.044100	-0.792517
0.044200	-0.891515
0.044300	-0.876584
0.044400	-0.814264
0.044500	-0.709100
0.044600	-0.625033
0.044700	-0.633147
0.044800	-0.675343
0.044900	-0.677615
0.045000	-0.663983
0.045100	-0.605558
0.045200	-0.574398
0.045300	-0.550379
0.045400	-0.572775
0.045500	-0.556222
0.045600	-0.581539
0.045700	-0.552651
0.045800	-0.543887
0.045900	-0.539343
0.046000	-0.541615
0.046100	-0.518570
0.046200	-0.528957
0.046300	-0.540966
0.046400	-0.567257
0.046500	-0.551028
0.046600	-0.581864
0.046700	-0.531878
0.046800	-0.532202
0.046900	-0.522140
0.047000	-0.593224
0.047100	-0.670150
0.047200	-0.676641
0.047300	-0.593224
0.047400	-0.523114
0.047500	-0.523439
0.047600	-0.607505
0.047700	-0.695792
0.047800	-0.687028
0.047900	-0.631525
0.048000	-0.550379
0.048100	-0.527334
0.048200	-0.558169
0.048300	-0.596145
0.048400	-0.599391
0.048500	-0.571801
0.048600	-0.537720
0.048700	-0.562064
0.048800	-0.585759
0.048900	-0.603935
0.049000	-0.606856
0.049100	-0.574074
0.049200	-0.579267
0.049300	-0.605558
0.049400	-0.597768
0.049500	-0.588355
0.049600	-0.559467
0.049700	-0.551028
0.049800	-0.588355
0.049900	-0.639964
0.050000	-0.669501
0.050100	-0.663658
0.050200	-0.629577
0.050300	-0.626007
0.050400	-0.620164
0.050500	-0.611076
0.050600	-0.607830
0.050700	-0.610751
0.050800	-0.609128
0.050900	-0.583486
0.051000	-0.591601
0.051100	-0.584460
0.051200	-0.586408
0.051300	-0.595171
0.051400	-0.594198
0.051500	-0.607830
0.051600	-0.618541
0.051700	-0.613348
0.051800	-0.620164
0.051900	-0.649377
0.052000	-0.645482
0.052100	-0.703582
0.052200	-0.798360
0.052300	-0.913911
0.052400	-0.878207
0.052500	-0.847696
0.052600	-0.772393
0.052700	-0.819457
0.052800	-0.925596
0.052900	-1.041147
0.053000	-1.076202
0.053100	-1.050884
0.053200	-1.007715
0.053300	-0.998627
0.053400	-1.073281
0.053500	-1.138846
0.053600	-1.190130
0.053700	-1.165137
0.053800	-1.146961
0.053900	-1.151830
0.054000	-1.191429
0.054100	-1.213825
0.054200	-1.244985
0.054300	-1.277767
0.054400	-1.281987
0.054500	-1.292374
0.054600	-1.327753
0.054700	-1.374168
0.054800	-1.385204
0.054900	-1.394293
0.055000	-1.427075
0.055100	-1.471543
0.055200	-1.495238
0.055300	-1.434216
0.055400	-1.398512
0.055500	-1.406951
0.055600	-1.511791
0.055700	-1.612087
0.055800	-1.627018
0.055900	-1.587095
0.056000	-1.507896
0.056100	-1.503352
0.056200	-1.576383
0.056300	-1.673758
0.056400	-1.729911
0.056500	-1.711410
0.056600	-1.662073
0.056700	-1.634808
0.056800	-1.646493
0.056900	-1.673109
0.057000	-1.701997
0.057100	-1.704269
0.057200	-1.702646
0.057300	-1.668565
0.057400	-1.650713
0.057500	-1.621825
0.057600	-1.588393
0.057700	-1.541653
0.057800	-1.516336
0.057900	-1.482904
0.058000	-1.468946
0.058100	-1.414417
0.058200	-1.348526
0.058300	-1.319963
0.058400	-1.237519
0.058500	-1.206035
0.058600	-1.184288
0.058700	-1.147935
0.058800	-1.104765
0.058900	-1.046990
0.059000	-1.000899
0.059100	-0.979801
0.059200	-0.969739
0.059300	-0.960326
0.059400	-0.961624
0.059500	-0.958703
0.059600	-0.954808
0.059700	-0.943772
0.059800	-0.913262
0.059900	-0.909691
0.060000	-0.912613
0.060100	-0.911314
0.060200	-0.922350
0.060300	-0.896059
0.060400	-0.880154
0.060500	-0.815887
0.060600	-0.698388
0.060700	-0.666579
0.060800	-0.737987
0.060900	-0.812641
0.061000	-0.809395
0.061100	-0.754541
0.061200	-0.658789
0.061300	-0.626007
0.061400	-0.620164
0.061500	-0.700660
0.061600	-0.714293
0.061700	-0.650350
0.061800	-0.604909
0.061900	-0.543563
0.062000	-0.533825
0.062100	-0.538370
0.062200	-0.554274
0.062300	-0.518570
0.062400	-0.511754
0.062500	-0.501043
0.062600	-0.480269
0.062700	-0.480919
0.062800	-0.498446
0.062900	-0.491954
0.063000	-0.508508
0.063100	-0.503964
0.063200	-0.522465
0.063300	-0.501043
0.063400	-0.493902
0.063500	-0.485463
0.063600	-0.521491
0.063700	-0.619515
0.063800	-0.640288
0.063900	-0.613673
0.064000	-0.531229
0.064100	-0.489358
0.064200	-0.519868
0.064300	-0.613348
0.064400	-0.672097
0.064500	-0.659114
0.064600	-0.606856
0.064700	-0.541940
0.064800	-0.540642
0.064900	-0.566933
0.065000	-0.605883
0.065100	-0.612699
0.065200	-0.597443
0.065300	-0.586083
0.065400	-0.597443
0.065500	-0.595171
0.065600	-0.630875
0.065700	-0.639315
0.065800	-0.627954
0.065900	-0.646455
0.066000	-0.648403
0.066100	-0.648078
0.066200	-0.629902
0.066300	-0.617568
0.066400	-0.619190
0.066500	-0.672746
0.066600	-0.690274
0.066700	-0.692221
0.066800	-0.636393
0.066900	-0.629902
0.067000	-0.634770
0.067100	-0.631849
0.067200	-0.636069
0.067300	-0.611400
0.067400	-0.610427
0.067500	-0.604584
0.067600	-0.583162
0.067700	-0.593548
0.067800	-0.593873
0.067900	-0.614971
0.068000	-0.620489
0.068100	-0.625357
0.068200	-0.631525
0.068300	-0.621463
0.068400	-0.653921
0.068500	-0.654245
0.068600	-0.671448
0.068700	-0.686379
0.068800	-0.767524
0.068900	-0.868469
0.069000	-0.939877
0.069100	-0.907095
0.069200	-0.838608
0.069300	-0.824975
0.069400	-0.883725
0.069500	-1.003171
0.069600	-1.075877
0.069700	-1.108011
0.069800	-1.054779
0.069900	-1.015180
0.070000	-1.042445
0.070100	-1.125538
0.070200	-1.221290
0.070300	-1.260889
0.070400	-1.276794
0.070500	-1.272899
0.070600	-1.291075
0.070700	-1.323858
0.070800	-1.355343
0.070900	-1.407600
0.071000	-1.430970
0.071100	-1.447849
0.071200	-1.463753
0.071300	-1.505300
0.071400	-1.538083
0.071500	-1.546522
0.071600	-1.585472
0.071700	-1.613061
0.071800	-1.632211
0.071900	-1.616632
0.072000	-1.542951
0.072100	-1.530617
0.072200	-1.561777
0.072300	-1.665968
0.072400	-1.718226
0.072500	-1.719200
0.072600	-1.666293
0.072700	-1.608192
0.072800	-1.624422
0.072900	-1.702970
0.073000	-1.808784
0.073100	-1.870455
0.073200	-1.859419
0.073300	-1.832479
0.073400	-1.818522
0.073500	-1.817873
0.073600	-1.851629
0.073700	-1.872403
0.073800	-1.887009
0.073900	-1.880842
0.074000	-1.859419
0.074100	-1.843515
0.074200	-1.800994
0.074300	-1.768536
0.074400	-1.719200
0.074500	-1.706865
0.074600	-1.699400
0.074700	-1.682197
0.074800	-1.610464
0.074900	-1.538732
0.075000	-1.475114
0.075100	-1.413443
0.075200	-1.388125
0.075300	-1.361834
0.075400	-1.324183
0.075500	-1.274846
0.075600	-1.216097
0.075700	-1.165787
0.075800	-1.111257
0.075900	-1.109634
0.076000	-1.104116
0.076100	-1.113204
0.076200	-1.108985
0.076300	-1.102168
0.076400	-1.099247
0.076500	-1.079123
0.076600	-1.092431
0.076700	-1.082694
0.076800	-1.084316
0.076900	-1.098598
0.077000	-1.073281
0.077100	-1.072631
0.077200	-0.912613
0.077300	-0.845749
0.077400	-0.820107
0.077500	-0.949939
0.077600	-0.983047
0.077700	-0.984994
0.077800	-0.875286
0.077900	-0.785376
0.078000	-0.749348
0.078100	-0.789271
0.078200	-0.845749
0.078300	-0.825625
0.078400	-0.767524
0.078500	-0.696116
0.078600	-0.655219
0.078700	-0.635095
0.078800	-0.641262
0.078900	-0.671124
0.079000	-0.664956
0.079100	-0.642560
0.079200	-0.628279
0.079300	-0.608479
0.079400	-0.596470
0.079500	-0.594198
0.079600	-0.610427
0.079700	-0.616594
0.079800	-0.650026
0.079900	-0.644832
0.080000	-0.626980
0.080100	-0.617568
0.080200	-0.616594
0.080300	-0.678914
0.080400	-0.789271
0.080500	-0.814589
0.080600	-0.784078
0.080700	-0.705529
0.080800	-0.691572
0.080900	-0.752594
0.081000	-0.859056
0.081100	-0.894111
0.081200	-0.867171
0.081300	-0.793166
0.081400	-0.762656
0.081500	-0.769147
0.081600	-0.836336
0.081700	-0.860679
0.081800	-0.881453
0.081900	-0.861329
0.082000	-0.859706
0.082100	-0.891839
0.082200	-0.907744
0.082300	-0.939228
0.082400	-0.940202
0.082500	-0.946369
0.082600	-0.952212
0.082700	-0.976880
0.082800	-0.964870
0.082900	-0.958379
0.083000	-0.946694
0.083100	-0.956756
0.083200	-1.017453
0.083300	-1.044068
0.083400	-1.052507
0.083500	-1.014207
0.083600	-1.034655
0.083700	-1.031734
0.083800	-1.031085
0.083900	-1.023620
0.084000	-1.021023
0.084100	-1.018426
0.084200	-1.012259
0.084300	-1.027839
0.084400	-1.030111
0.084500	-1.035305
0.084600	-1.043744
0.084700	-1.039849
0.084800	-1.046340
0.084900	-1.056402
0.085000	-1.071333
0.085100	-1.083667
0.085200	-1.106388
0.085300	-1.118722
0.085400	-1.147610
0.085500	-1.234273
0.085600	-1.370923
0.085700	-1.420908
0.085800	-1.382932
0.085900	-1.303085
0.086000	-1.293023
0.086100	-1.394293
0.086200	-1.529319
0.086300	-1.626694
0.086400	-1.611763
0.086500	-1.549118
0.086600	-1.526722
0.086700	-1.588393
0.086800	-1.665319
0.086900	-1.746789
0.087000	-1.756527
0.087100	-1.725042
0.087200	-1.745166
0.087300	-1.748737
0.087400	-1.782169
0.087500	-1.804565
0.087600	-1.829882
0.087700	-1.875649
0.087800	-1.893825
0.087900	-1.908431
0.088000	-1.947057
0.088100	-1.970102
0.088200	-1.998990
0.088300	-2.007429
0.088400	-2.033720
0.088500	-2.041510
0.088600	-2.031448
0.088700	-1.961988
0.088800	-1.935372
0.088900	-1.980813
0.089000	-2.077215
0.089100	-2.141157
0.089200	-2.104155
0.089300	-2.025930
0.089400	-1.992174
0.089500	-2.035343
0.089600	-2.123305
0.089700	-2.218084
0.089800	-2.209320
0.089900	-2.181406
0.090000	-2.142780
0.090100	-2.144403
0.090200	-2.159334
0.090300	-2.168422
0.090400	-2.166799
0.090500	-2.178160
0.090600	-2.161282
0.090700	-2.155764
0.090800	-2.141807
0.090900	-2.081759
0.091000	-2.025281
0.091100	-1.975620
0.091200	-1.972374
0.091300	-1.967181
0.091400	-1.929854
0.091500	-1.850331
0.091600	-1.787362
0.091700	-1.708813
0.091800	-1.686741
0.091900	-1.669538
0.092000	-1.608842
0.092100	-1.573787
0.092200	-1.522827
0.092300	-1.486474
0.092400	-1.446226
0.092500	-1.406302
0.092600	-1.412794
0.092700	-1.377739
0.092800	-1.394617
0.092900	-1.374818
0.093000	-1.380335
0.093100	-1.340412
0.093200	-1.361185
0.093300	-1.350798
0.093400	-1.370273
0.093500	-1.360861
0.093600	-1.376440
0.093700	-1.351448
0.093800	-1.281338
0.093900	-1.177472
0.094000	-1.080746
0.094100	-1.135925
0.094200	-1.240441
0.094300	-1.258617
0.094400	-1.228756
0.094500	-1.095677
0.094600	-1.028813
0.094700	-0.985643
0.094800	-1.069710
0.094900	-1.091133
0.095000	-1.082044
0.095100	-0.985968
0.095200	-0.932737
0.095300	-0.900928
0.095400	-0.898331
0.095500	-0.915534
0.095600	-0.898006
0.095700	-0.870741
0.095800	-0.833090
0.095900	-0.831792
0.096000	-0.821405
0.096100	-0.822054
0.096200	-0.820756
0.096300	-0.811018
0.096400	-0.823677
0.096500	-0.842178
0.096600	-0.843801
0.096700	-0.831142
0.096800	-0.794789
0.096900	-0.799983
0.097000	-0.882751
0.097100	-0.948317
0.097200	-0.950264
0.097300	-0.902550
0.097400	-0.809395
0.097500	-0.816536
0.097600	-0.875610
0.097700	-0.959028
0.097800	-0.975906
0.097900	-0.927219
0.098000	-0.845749
0.098100	-0.819133
0.098200	-0.844775
0.098300	-0.869443
0.098400	-0.882102
0.098500	-0.893462
0.098600	-0.884374
0.098700	-0.899305
0.098800	-0.896059
0.098900	-0.923648
0.099000	-0.934035
0.099100	-0.946369
0.099200	-0.959352
0.099300	-0.981424
0.099400	-0.961624
0.099500	-0.965195
0.099600	-0.966818
0.099700	-0.960651
0.099800	-0.987916
0.099900	-1.030436
0.100000	-1.034980
0.100100	-1.029462
0.100200	-1.020698
0.100300	-1.031734
0.100400	-1.069386
0.100500	-1.061596
0.100600	-1.077176
0.100700	-1.075228
0.100800	-1.094054
0.100900	-1.091457
0.101000	-1.107686
0.101100	-1.121319
0.101200	-1.148259
0.101300	-1.153128
0.101400	-1.148584
0.101500	-1.155075
0.101600	-1.172278
0.101700	-1.182016
0.101800	-1.198569
0.101900	-1.226483
0.102000	-1.248555
0.102100	-1.278417
0.102200	-1.375467
0.102300	-1.475763
0.102400	-1.486799
0.102500	-1.437462
0.102600	-1.366703
0.102700	-1.367352
0.102800	-1.494913
0.102900	-1.618904
0.103000	-1.678951
0.103100	-1.643247
0.103200	-1.590989
0.103300	-1.600402
0.103400	-1.677653
0.103500	-1.731858
0.103600	-1.791906
0.103700	-1.781844
0.103800	-1.789634
0.103900	-1.781195
0.104000	-1.788011
0.104100	-1.819496
0.104200	-1.838971
0.104300	-1.851954
0.104400	-1.866560
0.104500	-1.878570
0.104600	-1.910703
0.104700	-1.925310
0.104800	-1.933100
0.104900	-1.924985
0.105000	-1.957443
0.105100	-1.976594
0.105200	-1.978217
0.105300	-1.921090
0.105400	-1.855524
0.105500	-1.848059
0.105600	-1.907133
0.105700	-1.995744
0.105800	-2.042160
0.105900	-2.007754
0.106000	-1.928556
0.106100	-1.922388
0.106200	-1.988603
0.106300	-2.070074
0.106400	-2.142131
0.106500	-2.153492
0.106600	-2.118761
0.106700	-2.115515
0.106800	-2.119086
0.106900	-2.162255
0.107000	-2.173940
0.107100	-2.194389
0.107200	-2.190169
0.107300	-2.176212
0.107400	-2.171668
0.107500	-2.146675
0.107600	-2.095391
0.107700	-2.055467
0.107800	-2.049300
0.107900	-2.052871
0.108000	-2.048651
0.108100	-1.999315
0.108200	-1.937319
0.108300	-1.904536
0.108400	-1.829882
0.108500	-1.833777
0.108600	-1.797749
0.108700	-1.740298
0.108800	-1.726990
0.108900	-1.674732
0.109000	-1.612412
0.109100	-1.594884
0.109200	-1.574436
0.109300	-1.571190
0.109400	-1.563400
0.109500	-1.552364
0.109600	-1.539381
0.109700	-1.515362
0.109800	-1.498808
0.109900	-1.458235
0.110000	-1.451744
0.110100	-1.433892
0.110200	-1.450770
0.110300	-1.432593
0.110400	-1.419935
0.110500	-1.342035
0.110600	-1.242388
0.110700	-1.157347
0.110800	-1.277443
0.110900	-1.302111
0.111000	-1.362483
0.111100	-1.240765
0.111200	-1.159620
0.111300	-1.098923
0.111400	-1.100546
0.111500	-1.176173
0.111600	-1.177472
0.111700	-1.161892
0.111800	-1.051534
0.111900	-1.015830
0.112000	-0.977854
0.112100	-0.999925
0.112200	-1.025243
0.112300	-0.999925
0.112400	-0.965844
0.112500	-0.930789
0.112600	-0.919104
0.112700	-0.882102
0.112800	-0.871391
0.112900	-0.875610
0.113000	-0.868145
0.113100	-0.874312
0.113200	-0.865548
0.113300	-0.861978
0.113400	-0.837959
0.113500	-0.804527
0.113600	-0.809720
0.113700	-0.887620
0.113800	-0.957729
0.113900	-0.946369
0.114000	-0.891839
0.114100	-0.790245
0.114200	-0.821080
0.114300	-0.875935
0.114400	-0.940851
0.114500	-0.952536
0.114600	-0.876259
0.114700	-0.820431
0.114800	-0.800307
0.114900	-0.839906
0.115000	-0.867820
0.115100	-0.872364
0.115200	-0.880154
0.115300	-0.824651
0.115400	-0.834064
0.115500	-0.830169
0.115600	-0.877233
0.115700	-0.884698
0.115800	-0.864250
0.115900	-0.872689
0.116000	-0.876259
0.116100	-0.872364
0.116200	-0.850293
0.116300	-0.833739
0.116400	-0.852565
0.116500	-0.896383
0.116600	-0.926245
0.116700	-0.945720
0.116800	-0.957405
0.116900	-0.948641
0.117000	-0.952212
0.117100	-0.960975
0.117200	-0.958703
0.117300	-0.944422
0.117400	-0.952212
0.117500	-0.940202
0.117600	-0.931763
0.117700	-0.927868
0.117800	-0.923324
0.117900	-0.919753
0.118000	-0.923324
0.118100	-0.917481
0.118200	-0.911963
0.118300	-0.926894
0.118400	-0.931114
0.118500	-0.946369
0.118600	-0.959677
0.118700	-0.998302
0.118800	-1.044393
0.118900	-1.161567
0.119000	-1.268030
0.119100	-1.277118
0.119200	-1.246608
0.119300	-1.213500
0.119400	-1.271276
0.119500	-1.412469
0.119600	-1.521204
0.119700	-1.541004
0.119800	-1.483228
0.119900	-1.441032
0.120000	-1.465051
0.120100	-1.542951
0.120200	-1.612412
0.120300	-1.599104
0.120400	-1.581577
0.120500	-1.593262
0.120600	-1.582550
0.120700	-1.607219
0.120800	-1.624422
0.120900	-1.640326
0.121000	-1.638379
0.121100	-1.675381
0.121200	-1.703944
0.121300	-1.740298
0.121400	-1.751982
0.121500	-1.746789
0.121600	-1.752307
0.121700	-1.775677
0.121800	-1.815276
0.121900	-1.817873
0.122000	-1.750035
0.122100	-1.702970
0.122200	-1.704269
0.122300	-1.776651
0.122400	-1.853901
0.122500	-1.860718
0.122600	-1.809758
0.122700	-1.769185
0.122800	-1.747114
0.122900	-1.814302
0.123000	-1.884412
0.123100	-1.938618
0.123200	-1.938942
0.123300	-1.866560
0.123400	-1.868508
0.123500	-1.837997
0.123600	-1.852279
0.123700	-1.888307
0.123800	-1.882465
0.123900	-1.867209
0.124000	-1.831505
0.124100	-1.818197
0.124200	-1.793854
0.124300	-1.740298
0.124400	-1.701348
0.124500	-1.669538
0.124600	-1.657854
0.124700	-1.662722
0.124800	-1.593586
0.124900	-1.544574
0.125000	-1.489720
0.125100	-1.411820
0.125200	-1.408899
0.125300	-1.383581
0.125400	-1.361510
0.125500	-1.320288
0.125600	-1.277443
0.125700	-1.239791
0.125800	-1.217720
0.125900	-1.197920
0.126000	-1.181367
0.126100	-1.174550
0.126200	-1.164164
0.126300	-1.133978
0.126400	-1.142417
0.126500	-1.109309
0.126600	-1.117424
0.126700	-1.094379
0.126800	-1.101519
0.126900	-1.112231
0.127000	-1.089510
0.127100	-1.070359
0.127200	-0.970713
0.127300	-0.874636
0.127400	-0.841204
0.127500	-0.939228
0.127600	-0.978178
0.127700	-0.982722
0.127800	-0.851916
0.127900	-0.725004
0.128000	-0.697090
0.128100	-0.709424
0.128200	-0.774665
0.128300	-0.785376
0.128400	-0.731496
0.128500	-0.636393
0.128600	-0.615295
0.128700	-0.593548
0.128800	-0.625033
0.128900	-0.632174
0.129000	-0.615945
0.129100	-0.588355
0.129200	-0.566933
0.129300	-0.569529
0.129400	-0.539019
0.129500	-0.537396
0.129600	-0.516947
0.129700	-0.561415
0.129800	-0.557520
0.129900	-0.538370
0.130000	-0.536422
0.130100	-0.479296
0.130200	-0.475401
0.130300	-0.501367
0.130400	-0.617243
0.130500	-0.628603
0.130600	-0.612374
0.130700	-0.538370
0.130800	-0.484164
0.130900	-0.546160
0.131000	-0.627630
0.131100	-0.674369
0.131200	-0.646780
0.131300	-0.592899
0.131400	-0.543887
0.131500	-0.533501
0.131600	-0.588031
0.131700	-0.593548
0.131800	-0.598093
0.131900	-0.579916
0.132000	-0.560117
0.132100	-0.575372
0.132200	-0.601988
0.132300	-0.607505
0.132400	-0.608155
0.132500	-0.606207
0.132600	-0.604909
0.132700	-0.617892
0.132800	-0.603611
0.132900	-0.586732
0.133000	-0.565634
0.133100	-0.572775
0.133200	-0.625682
0.133300	-0.643859
0.133400	-0.635420
0.133500	-0.612050
0.133600	-0.584136
0.133700	-0.580890
0.133800	-0.579591
0.133900	-0.553949
0.134000	-0.520842
0.134100	-0.501692
0.134200	-0.515324
0.134300	-0.494876
0.134400	-0.481892
0.134500	-0.490007
0.134600	-0.513377
0.134700	-0.516947
0.134800	-0.520518
0.134900	-0.527658
0.135000	-0.543887
0.135100	-0.549405
0.135200	-0.573749
0.135300	-0.594522
0.135400	-0.613023
0.135500	-0.685730
0.135600	-0.809071
0.135700	-0.885672
0.135800	-0.859056
0.135900	-0.814913
0.136000	-0.811018
0.136100	-0.914235
0.136200	-1.062569
0.136300	-1.176173
0.136400	-1.203438
0.136500	-1.141768
0.136600	-1.135925
0.136700	-1.173577
0.136800	-1.256670
0.136900	-1.303409
0.137000	-1.317691
0.137100	-1.287505
0.137200	-1.276145
0.137300	-1.288154
0.137400	-1.307954
0.137500	-1.319963
0.137600	-1.329376
0.137700	-1.339763
0.137800	-1.340736
0.137900	-1.383906
0.138000	-1.390722
0.138100	-1.399486
0.138200	-1.414092
0.138300	-1.416040
0.138400	-1.450445
0.138500	-1.465376
0.138600	-1.468297
0.138700	-1.429997
0.138800	-1.398837
0.138900	-1.431295
0.139000	-1.512116
0.139100	-1.568593
0.139200	-1.568593
0.139300	-1.494588
0.139400	-1.463104
0.139500	-1.471543
0.139600	-1.568269
0.139700	-1.621825
0.139800	-1.646169
0.139900	-1.591314
0.140000	-1.562751
0.140100	-1.549443
0.140200	-1.565672
0.140300	-1.584822
0.140400	-1.582550
0.140500	-1.567620
0.140600	-1.555935
0.140700	-1.537109
0.140800	-1.523476
0.140900	-1.494913
0.141000	-1.423830
0.141100	-1.384230
0.141200	-1.377739
0.141300	-1.369949
0.141400	-1.342359
0.141500	-1.269328
0.141600	-1.191753
0.141700	-1.143390
0.141800	-1.108336
0.141900	-1.090159
0.142000	-1.045691
0.142100	-0.999601
0.142200	-0.959028
0.142300	-0.897033
0.142400	-0.887620
0.142500	-0.856135
0.142600	-0.844126
0.142700	-0.839582
0.142800	-0.823352
0.142900	-0.811018
0.143000	-0.800632
0.143100	-0.773367
0.143200	-0.798360
0.143300	-0.761357
0.143400	-0.802579
0.143500	-0.788622
0.143600	-0.771744
0.143700	-0.778560
0.143800	-0.706828
0.143900	-0.613023
0.144000	-0.488059
0.144100	-0.538694
0.144200	-0.628279
0.144300	-0.683133
0.144400	-0.643209
0.144500	-0.535773
0.144600	-0.427363
0.144700	-0.400747
0.144800	-0.471506
0.144900	-0.508833
0.145000	-0.519219
0.145100	-0.430608
0.145200	-0.369587
0.145300	-0.338103
0.145400	-0.350112
0.145500	-0.363745
0.145600	-0.347840
0.145700	-0.347515
0.145800	-0.331611
0.145900	-0.328690
0.146000	-0.335506
0.146100	-0.316356
0.146200	-0.300451
0.146300	-0.319601
0.146400	-0.345243
0.146500	-0.365367
0.146600	-0.378026
0.146700	-0.376728
0.146800	-0.335181
0.146900	-0.354332
0.147000	-0.391659
0.147100	-0.497472
0.147200	-0.508833
0.147300	-0.458522
0.147400	-0.351735
0.147500	-0.323172
0.147600	-0.361797
0.147700	-0.451382
0.147800	-0.477997
0.147900	-0.442293
0.148000	-0.348165
0.148100	-0.297530
0.148200	-0.313110
0.148300	-0.377702
0.148400	-0.386141
0.148500	-0.353358
0.148600	-0.339725
0.148700	-0.326742
0.148800	-0.365043
0.148900	-0.373157
0.149000	-0.368938
0.149100	-0.354656
0.149200	-0.358876
0.149300	-0.349788
0.149400	-0.353683
0.149500	-0.330637
0.149600	-0.309215
0.149700	-0.298504
0.149800	-0.326093
0.149900	-0.375429
0.150000	-0.387114
0.150100	-0.372833
0.150200	-0.322198
0.150300	-0.354007
0.150400	-0.359850
0.150500	-0.347515
0.150600	-0.345893
0.150700	-0.336155
0.150800	-0.346217
0.150900	-0.341998
0.151000	-0.329663
0.151100	-0.342647
0.151200	-0.335831
0.151300	-0.337453
0.151400	-0.329663
0.151500	-0.346542
0.151600	-0.343296
0.151700	-0.339401
0.151800	-0.351735
0.151900	-0.373157
0.152000	-0.389062
0.152100	-0.404966
0.152200	-0.477024
0.152300	-0.594522
0.152400	-0.634121
0.152500	-0.593873
0.152600	-0.508833
0.152700	-0.507534
0.152800	-0.618541
0.152900	-0.752269
0.153000	-0.809720
0.153100	-0.776613
0.153200	-0.720785
0.153300	-0.722083
0.153400	-0.790894
0.153500	-0.875286
0.153600	-0.955457
0.153700	-0.960326
0.153800	-0.931114
0.153900	-0.930140
0.154000	-0.947343
0.154100	-0.972336
0.154200	-0.995706
0.154300	-1.022970
0.154400	-1.031085
0.154500	-1.049262
0.154600	-1.059648
0.154700	-1.059648
0.154800	-1.062569
0.154900	-1.070684
0.155000	-1.094379
0.155100	-1.104765
0.155200	-1.103142
0.155300	-1.075228
0.155400	-1.020049
0.155500	-0.998951
0.155600	-1.055429
0.155700	-1.146312
0.155800	-1.215448
0.155900	-1.189481
0.156000	-1.119047
0.156100	-1.082694
0.156200	-1.124889
0.156300	-1.220316
0.156400	-1.304059
0.156500	-1.322560
0.156600	-1.274197
0.156700	-1.240441
0.156800	-1.226483
0.156900	-1.251476
0.157000	-1.265758
0.157100	-1.272899
0.157200	-1.266732
0.157300	-1.256994
0.157400	-1.231677
0.157500	-1.210254
0.157600	-1.156374
0.157700	-1.097949
0.157800	-1.089834
0.157900	-1.076851
0.158000	-1.058350
0.158100	-1.026541
0.158200	-0.934035
0.158300	-0.892813
0.158400	-0.831467
0.158500	-0.793166
0.158600	-0.748699
0.158700	-0.715267
0.158800	-0.656517
0.158900	-0.602637
0.159000	-0.533501
0.159100	-0.493577
0.159200	-0.474427
0.159300	-0.453329
0.159400	-0.429635
0.159500	-0.413406
0.159600	-0.416976
0.159700	-0.412107
0.159800	-0.372508
0.159900	-0.371210
0.160000	-0.354007
0.160100	-0.347191
0.160200	-0.341348
0.160300	-0.322523
0.160400	-0.322847
0.160500	-0.237158
0.160600	-0.166399
0.160700	-0.065454
0.160800	-0.171917
0.160900	-0.227420
0.161000	-0.263773
0.161100	-0.230341
0.161200	-0.093368
0.161300	-0.032996
0.161400	-0.050523
0.161500	-0.091096
0.161600	-0.137511
0.161700	-0.091420
0.161800	-0.045979
0.161900	0.040684
0.162000	0.031596
0.162100	0.061133
0.162200	0.021209
0.162300	0.044255
0.162400	0.035166
0.162500	0.075739
0.162600	0.106574
0.162700	0.123128
0.162800	0.141629
0.162900	0.147796
0.163000	0.135138
0.163100	0.103329
0.163200	0.115987
0.163300	0.108846
0.163400	0.152989
0.163500	0.169543
0.163600	0.173114
0.163700	0.102030
0.163800	0.010498
0.163900	0.011147
0.164000	0.049123
0.164100	0.131567
0.164200	0.099758
0.164300	0.037438
0.164400	-0.082008
0.164500	-0.093368
0.164600	-0.053769
0.164700	0.031271
0.164800	0.034517
0.164900	0.021859
0.165000	-0.051497
0.165100	-0.050523
0.165200	-0.058638
0.165300	-0.013845
0.165400	-0.035268
0.165500	-0.037215
0.165600	-0.045005
0.165700	-0.029101
0.165800	-0.023258
0.165900	-0.025855
0.166000	-0.039163
0.166100	-0.024232
0.166200	-0.016442
0.166300	0.015691
0.166400	0.032894
0.166500	0.000761
0.166600	-0.025206
0.166700	-0.036242
0.166800	-0.026180
0.166900	0.015691
0.167000	0.005629
0.167100	0.004331
0.167200	-0.002161
0.167300	0.020885
0.167400	0.016990
0.167500	0.012121
0.167600	0.014393
0.167700	-0.000213
0.167800	0.003033
0.167900	0.004331
0.168000	-0.005406
0.168100	-0.022934
0.168200	-0.032671
0.168300	-0.040786
0.168400	-0.036242
0.168500	-0.059611
0.168600	-0.070647
0.168700	-0.085578
0.168800	-0.127449
0.168900	-0.222227
0.169000	-0.324146
0.169100	-0.341998
0.169200	-0.280976
0.169300	-0.217358
0.169400	-0.249816
0.169500	-0.369262
0.169600	-0.461119
0.169700	-0.514026
0.169800	-0.473778
0.169900	-0.432231
0.170000	-0.442293
0.170100	-0.498446
0.170200	-0.592575
0.170300	-0.642236
0.170400	-0.648403
0.170500	-0.637367
0.170600	-0.641262
0.170700	-0.658140
0.170800	-0.681510
0.170900	-0.686379
0.171000	-0.685405
0.171100	-0.662684
0.171200	-0.671773
0.171300	-0.684431
0.171400	-0.688651
0.171500	-0.673396
0.171600	-0.662684
0.171700	-0.683133
0.171800	-0.708775
0.171900	-0.710398
0.172000	-0.659763
0.172100	-0.603286
0.172200	-0.619840
0.172300	-0.680536
0.172400	-0.780508
0.172500	-0.791219
0.172600	-0.759410
0.172700	-0.668202
0.172800	-0.639639
0.172900	-0.680212
0.173000	-0.766875
0.173100	-0.832441
0.173200	-0.844450
0.173300	-0.790570
0.173400	-0.758111
0.173500	-0.753892
0.173600	-0.768498
0.173700	-0.788622
0.173800	-0.799333
0.173900	-0.810369
0.174000	-0.804527
0.174100	-0.808097
0.174200	-0.777911
0.174300	-0.729873
0.174400	-0.714942
0.174500	-0.713319
0.174600	-0.721434
0.174700	-0.713968
0.174800	-0.685730
0.174900	-0.636393
0.175000	-0.605558
0.175100	-0.525062
0.175200	-0.499744
0.175300	-0.468584
0.175400	-0.430933
0.175500	-0.379000
0.175600	-0.317329
0.175700	-0.240403
0.175800	-0.210542
0.175900	-0.186847
0.176000	-0.159907
0.176100	-0.122256
0.176200	-0.108299
0.176300	-0.073244
0.176400	-0.037215
0.176500	-0.031373
0.176600	0.004980
0.176700	0.008875
0.176800	0.049123
0.176900	0.034842
0.177000	0.059510
0.177100	0.079634
0.177200	0.190966
0.177300	0.282822
0.177400	0.326316
0.177500	0.271462
0.177600	0.169868
0.177700	0.195185
0.177800	0.263996
0.177900	0.378574
0.178000	0.447710
0.178100	0.435051
0.178200	0.369161
0.178300	0.357151
0.178400	0.393180
0.178500	0.469457
0.178600	0.535022
0.178700	0.533724
0.178800	0.502888
0.178900	0.507108
0.179000	0.498344
0.179100	0.508406
0.179200	0.518144
0.179300	0.537943
0.179400	0.534697
0.179500	0.555471
0.179600	0.588903
0.179700	0.557418
0.179800	0.555795
0.179900	0.524635
0.180000	0.542163
0.180100	0.567480
0.180200	0.567805
0.180300	0.553523
0.180400	0.434077
0.180500	0.384741
0.180600	0.373705
0.180700	0.450306
0.180800	0.522039
0.180900	0.466860
0.181000	0.403891
0.181100	0.327290
0.181200	0.325342
0.181300	0.387337
0.181400	0.437648
0.181500	0.449982
0.181600	0.387337
0.181700	0.339948
0.181800	0.349037
0.181900	0.327290
0.182000	0.339948
0.182100	0.303595
0.182200	0.303595
0.182300	0.288340
0.182400	0.299376
0.182500	0.295156
0.182600	0.377600
0.182700	0.439270
0.182800	0.568454
0.182900	0.704129
0.183000	0.964768
0.183100	1.108233
0.183200	0.759308
0.183300	0.587280
0.183400	0.560015
0.183500	0.895957
0.183600	1.176720
0.183700	1.102066
0.183800	1.152701
0.183900	1.153350
0.184000	1.176071
0.184100	1.240338
0.184200	1.442228
0.184300	1.456509
0.184400	1.594781
0.184500	1.660022
0.184600	1.675277
0.184700	1.780442
0.184800	1.779143
0.184900	1.855745
0.185000	1.851525
0.185100	1.844384
0.185200	1.720719
0.185300	1.671382
0.185400	1.522724
0.185500	1.131278
0.185600	0.123128
0.185700	0.154937
0.185800	0.156235
0.185900	0.237705
0.186000	0.286717
0.186100	0.212713
0.186200	0.084827
0.186300	-0.016767
0.186400	-0.037540
0.186500	-0.001836
0.186600	0.032245
0.186700	0.002708
0.186800	-0.067726
0.186900	-0.135564
0.187000	-0.159907
0.187100	-0.152442
0.187200	-0.125177
0.187300	-0.107000
0.187400	-0.133616
0.187500	-0.148547
0.187600	-0.166074
0.187700	-0.157635
0.187800	-0.158609
0.187900	-0.186523
0.188000	-0.219955
0.188100	-0.241702
0.188200	-0.263773
0.188300	-0.281301
0.188400	-0.315706
0.188500	-0.367964
0.188600	-0.368938
0.188700	-0.330962
0.188800	-0.284871
0.188900	-0.302399
0.189000	-0.372833
0.189100	-0.455601
0.189200	-0.482866
0.189300	-0.411783
0.189400	-0.352060
0.189500	-0.376403
0.189600	-0.436775
0.189700	-0.520193
0.189800	-0.561415
0.189900	-0.542914
0.190000	-0.532527
0.190100	-0.524088
0.190200	-0.538694
0.190300	-0.561739
0.190400	-0.570828
0.190500	-0.568231
0.190600	-0.563362
0.190700	-0.551028
0.190800	-0.532202
0.190900	-0.508183
0.191000	-0.463067
0.191100	-0.411783
0.191200	-0.393931
0.191300	-0.391009
0.191400	-0.386790
0.191500	-0.322847
0.191600	-0.246895
0.191700	-0.150494
0.191800	-0.110246
0.191900	-0.087525
0.192000	-0.055392
0.192100	0.007252
0.192200	0.055290
0.192300	0.130918
0.192400	0.165973
0.192500	0.215309
0.192600	0.242249
0.192700	0.268541
0.192800	0.312359
0.192900	0.316903
0.193000	0.361695
0.193100	0.384092
0.193200	0.435375
0.193300	0.442516
0.193400	0.466860
0.193500	0.466535
0.193600	0.452254
0.193700	0.497695
0.193800	0.518144
0.193900	0.647976
0.194000	0.741131
0.194100	0.755413
0.194200	0.643432
0.194300	0.594745
0.194400	0.628826
0.194500	0.720683
0.194600	0.826821
0.194700	0.827470
0.194800	0.797284
0.194900	0.734640
0.195000	0.724253
0.195100	0.784950
0.195200	0.830716
0.195300	0.880701
0.195400	0.867394
0.195500	0.870315
0.195600	0.859279
0.195700	0.890114
0.195800	0.898878
0.195900	0.915107
0.196000	0.932634
0.196100	0.943670
0.196200	0.986840
0.196300	0.965742
0.196400	0.930038
0.196500	0.938152
0.196600	0.930362
0.196700	0.928739
0.196800	0.938477
0.196900	0.946591
0.197000	0.881675
0.197100	0.778783
0.197200	0.738859
0.197300	0.791441
0.197400	1.037150
0.197500	1.417884
0.197600	1.394514
0.197700	0.801179
0.197800	0.791117
0.197900	1.218591
0.198000	1.875544
0.198100	2.352680
0.198200	2.471477
0.198300	2.282895
0.198400	2.298475
0.198500	2.519515
0.198600	2.796059
0.198700	3.097272
0.198800	3.144661
0.198900	3.195945
0.199000	3.460480
0.199100	3.757799
0.199200	3.847059
0.199300	3.902563
0.199400	4.089523
0.199500	4.295634
0.199600	4.558223
0.199700	4.822110
0.199800	4.896440
0.199900	4.606261
0.200000	4.465716
0.200100	4.429363
0.200200	4.678644
0.200300	4.634825
0.200400	4.606261
0.200500	4.562118
0.200600	4.499148
0.200700	4.448189
0.200800	4.410861
0.200900	4.375806
0.201000	4.442995
0.201100	4.353735
0.201200	4.232340
0.201300	4.224226
0.201400	4.186249
0.201500	4.134640
0.201600	4.106077
0.201700	3.988902
0.201800	3.967480
0.201900	3.925608
0.202000	3.858744
0.202100	3.660424
0.202200	3.017100
0.202300	2.078083
0.202400	1.576929
0.202500	1.866781
0.202600	2.361119
0.202700	2.466933
0.202800	1.850551
0.202900	0.804425
0.203000	0.393180
0.203100	0.403891
0.203200	0.483738
0.203300	0.553523
0.203400	0.458745
0.203500	0.379872
0.203600	0.319824
0.203700	0.301648
0.203800	0.311385
0.203900	0.293858
0.204000	0.289638
0.204100	0.279252
0.204200	0.249066
0.204300	0.226994
0.204400	0.208818
0.204500	0.194861
0.204600	0.192264
0.204700	0.137410
0.204800	0.112741
0.204900	0.107548
0.205000	0.082231
0.205100	0.066975
0.205200	0.056589
0.205300	0.103004
0.205400	0.151691
0.205500	0.178956
0.205600	0.137410
0.205700	0.037114
0.205800	-0.017740
0.205900	-0.001511
0.206000	0.079634
0.206100	0.124751
0.206200	0.107223
0.206300	0.020236
0.206400	-0.036566
0.206500	-0.044032
0.206600	-0.004108
0.206700	0.030298
0.206800	0.041983
0.206900	0.029648
0.207000	-0.008003
0.207100	-0.021635
0.207200	-0.013845
0.207300	0.004656
0.207400	0.013744
0.207500	0.015367
0.207600	0.040360
0.207700	0.064054
0.207800	0.091968
0.207900	0.100083
0.208000	0.118584
0.208100	0.134813
0.208200	0.232512
0.208300	0.331185
0.208400	0.419146
0.208500	0.455500
0.208600	0.511328
0.208700	0.568779
0.208800	0.622010
0.208900	0.696339
0.209000	0.751843
0.209100	0.781055
0.209200	0.804425
0.209300	0.805723
0.209400	0.798907
0.209500	0.788196
0.209600	0.770993
0.209700	0.797933
0.209800	0.770019
0.209900	0.785599
0.210000	0.778134
0.210100	0.801503
0.210200	0.770993
0.210300	0.783652
0.210400	0.772616
0.210500	0.835909
0.210600	0.925818
0.210700	0.998200
0.210800	0.958276
0.210900	0.854086
0.211000	0.856682
0.211100	0.883623
0.211200	0.996577
0.211300	1.089407
0.211400	1.089407
0.211500	1.059546
0.211600	0.984568
0.211700	1.024816
0.211800	1.064090
0.211900	1.165684
0.212000	1.185159
0.212100	1.197493
0.212200	1.166658
0.212300	1.186782
0.212400	1.197818
0.212500	1.240338
0.212600	1.269550
0.212700	1.319211
0.212800	1.519478
0.212900	1.774275
0.213000	1.977463
0.213100	2.130341
0.213200	2.546455
0.213300	2.787296
0.213400	3.031706
0.213500	3.396862
0.213600	3.794152
0.213700	3.436461
0.213800	3.221263
0.213900	3.152126
0.214000	3.806486
0.214100	4.610806
0.214200	4.763036
0.214300	4.518624
0.214400	3.964883
0.214500	3.987604
0.214600	4.523168
0.214700	5.320674
0.214800	5.771199
0.214900	5.651427
0.215000	5.295680
0.215100	5.303471
0.215200	5.319375
0.215300	5.612801
0.215400	5.783209
0.215500	5.837415
0.215600	5.751400
0.215700	5.863707
0.215800	5.997437
0.215900	6.053266
0.216000	6.202576
0.216100	6.398627
0.216200	6.620645
0.216300	6.793976
0.216400	6.941664
0.216500	6.777097
0.216600	6.601170
0.216700	6.671606
0.216800	6.805337
0.216900	7.054946
0.217000	6.963736
0.217100	7.007231
0.217200	7.131874
0.217300	7.281510
0.217400	7.284106
0.217500	7.277615
0.217600	7.419461
0.217700	7.428874
0.217800	7.539559
0.217900	7.586625
0.218000	7.723927
0.218100	7.693740
0.218200	7.808321
0.218300	7.814813
0.218400	7.811567
0.218500	7.894662
0.218600	7.760281
0.218700	7.688222
0.218800	7.351297
0.218900	6.691406
0.219000	5.726082
0.219100	5.396951
0.219200	5.808527
0.219300	6.228867
0.219400	6.157134
0.219500	5.220701
0.219600	4.222278
0.219700	3.619526
0.219800	3.658476
0.219900	3.975270
0.220000	3.922687
0.220100	3.355640
0.220200	2.618188
0.220300	1.946952
0.220400	1.523048
0.220500	1.399058
0.220600	1.110505
0.220700	0.780730
0.220800	0.716139
0.220900	0.675566
0.221000	0.648950
0.221100	0.603184
0.221200	0.585657
0.221300	0.543137
0.221400	0.507757
0.221500	0.468807
0.221600	0.471404
0.221700	0.447060
0.221800	0.415576
0.221900	0.410058
0.222000	0.454201
0.222100	0.501590
0.222200	0.516196
0.222300	0.462965
0.222400	0.394154
0.222500	0.327614
0.222600	0.375328
0.222700	0.453877
0.222800	0.480492
0.222900	0.426936
0.223000	0.323395
0.223100	0.262049
0.223200	0.261075
0.223300	0.277953
0.223400	0.302297
0.223500	0.298727
0.223600	0.287691
0.223700	0.273409
0.223800	0.261400
0.223900	0.253610
0.224000	0.251013
0.224100	0.277304
0.224200	0.301972
0.224300	0.344817
0.224400	0.373056
0.224500	0.369161
0.224600	0.373380
0.224700	0.376951
0.224800	0.406488
0.224900	0.461667
0.225000	0.489581
0.225100	0.551576
0.225200	0.582736
0.225300	0.597666
0.225400	0.643108
0.225500	0.698936
0.225600	0.749246
0.225700	0.783652
0.225800	0.819680
0.225900	0.858305
0.226000	0.872587
0.226100	0.903098
0.226200	0.893360
0.226300	0.906343
0.226400	0.923546
0.226500	0.956978
0.226600	0.981322
0.226700	0.984892
0.226800	0.999498
0.226900	1.001121
0.227000	0.999498
0.227100	1.023517
0.227200	1.109531
0.227300	1.214371
0.227400	1.283183
0.227500	1.216643
0.227600	1.143612
0.227700	1.119593
0.227800	1.177044
0.227900	1.267927
0.228000	1.373092
0.228100	1.354591
0.228200	1.314342
0.228300	1.273445
0.228400	1.299412
0.228500	1.362705
0.228600	1.412691
0.228700	1.413664
0.228800	1.393216
0.228900	1.400357
0.229000	1.409769
0.229100	1.413664
0.229200	1.633731
0.229300	1.853148
0.229400	1.979410
0.229500	2.269587
0.229600	2.492250
0.229700	2.678236
0.229800	2.891487
0.229900	3.038198
0.230000	3.333568
0.230100	3.586419
0.230200	4.075566
0.230300	4.240779
0.230400	3.787660
0.230500	3.688662
0.230600	3.995394
0.230700	4.790626
0.230800	5.489783
0.230900	5.696220
0.231000	5.181102
0.231100	4.790950
0.231200	4.938312
0.231300	5.667656
0.231400	6.356106
0.231500	6.617075
0.231600	6.559947
0.231700	6.433358
0.231800	6.627462
0.231900	6.696599
0.232000	6.949779
0.232100	7.030602
0.232200	7.124733
0.232300	7.142910
0.232400	7.276316
0.232500	7.388949
0.232600	7.354867
0.232700	7.350647
0.232800	7.511644
0.232900	7.709970
0.233000	7.991715
0.233100	8.148494
0.233200	7.874213
0.233300	7.586300
0.233400	7.468798
0.233500	7.606100
0.233600	7.870643
0.233700	7.850842
0.233800	7.791442
0.233900	7.874538
0.234000	7.906672
0.234100	7.878757
0.234200	8.029368
0.234300	8.118306
0.234400	8.231265
0.234500	8.277682
0.234600	8.377007
0.234700	8.350715
0.234800	8.326695
0.234900	8.195560
0.235000	8.197832
0.235100	8.158231
0.235200	8.136159
0.235300	8.076759
0.235400	7.895312
0.235500	7.657710
0.235600	6.751779
0.235700	5.966925
0.235800	5.901359
0.235900	6.349614
0.236000	6.685239
0.236100	6.363571
0.236200	5.494652
0.236300	4.572505
0.236400	4.155414
0.236500	4.308942
0.236600	4.618271
0.236700	4.405019
0.236800	3.911976
0.236900	3.193673
0.237000	2.595467
0.237100	2.508804
0.237200	2.381243
0.237300	2.177406
0.237400	1.949549
0.237500	1.614905
0.237600	1.287727
0.237700	1.048186
0.237800	0.884921
0.237900	0.854735
0.238000	0.815136
0.238100	0.792740
0.238200	0.759632
0.238300	0.741131
0.238400	0.713542
0.238500	0.691795
0.238600	0.659661
0.238700	0.722630
0.238800	0.761905
0.238900	0.734964
0.239000	0.651871
0.239100	0.571375
0.239200	0.531127
0.239300	0.580463
0.239400	0.637914
0.239500	0.644731
0.239600	0.554822
0.239700	0.469457
0.239800	0.421094
0.239900	0.436025
0.240000	0.480168
0.240100	0.491528
0.240200	0.477571
0.240300	0.455500
0.240400	0.421094
0.240500	0.423041
0.240600	0.416225
0.240700	0.425313
0.240800	0.417523
0.240900	0.433753
0.241000	0.462316
0.241100	0.496397
0.241200	0.510354
0.241300	0.508731
0.241400	0.496397
0.241500	0.528530
0.241600	0.582086
0.241700	0.662583
0.241800	0.698287
0.241900	0.722955
0.242000	0.744053
0.242100	0.800205
0.242200	0.844348
0.242300	0.933284
0.242400	0.982620
0.242500	1.044940
0.242600	1.071880
0.242700	1.094925
0.242800	1.126085
0.242900	1.129980
0.243000	1.165359
0.243100	1.170877
0.243200	1.190352
0.243300	1.192624
0.243400	1.184510
0.243500	1.151727
0.243600	1.152701
0.243700	1.120567
0.243800	1.137121
0.243900	1.186782
0.244000	1.297789
0.244100	1.297464
0.244200	1.189703
0.244300	1.109207
0.244400	1.081942
0.244500	1.166982
0.244600	1.251049
0.244700	1.304930
0.244800	1.277016
0.244900	1.221512
0.245000	1.195546
0.245100	1.229302
0.245200	1.301359
0.245300	1.352968
0.245400	1.376338
0.245500	1.346151
0.245600	1.336089
0.245700	1.344853
0.245800	1.377636
0.245900	1.698972
0.246000	2.035239
0.246100	2.410780
0.246200	2.775935
0.246300	2.967114
0.246400	2.929787
0.246500	3.296566
0.246600	3.312470
0.246700	3.597454
0.246800	3.732481
0.246900	4.121008
0.247000	4.038888
0.247100	3.435487
0.247200	3.285855
0.247300	3.574734
0.247400	4.172617
0.247500	4.886054
0.247600	4.802635
0.247700	4.556600
0.247800	4.165800
0.247900	4.498175
0.248000	5.337877
0.248100	5.993217
0.248200	6.208418
0.248300	6.049371
0.248400	6.024377
0.248500	6.113963
0.248600	6.252887
0.248700	6.369089
0.248800	6.379476
0.248900	6.469063
0.249000	6.480099
0.249100	6.470361
0.249200	6.424269
0.249300	6.279828
0.249400	6.156809
0.249500	6.250290
0.249600	6.367142
0.249700	6.463869
0.249800	6.434981
0.249900	6.106173
0.250000	5.818589
0.250100	5.794570
0.250200	5.836117
0.250300	5.930247
0.250400	5.852995
0.250500	5.824432
0.250600	5.835468
0.250700	5.854618
0.250800	5.898762
0.250900	5.973742
0.251000	6.112341
0.251100	6.220104
0.251200	6.204199
0.251300	6.392460
0.251400	6.382073
0.251500	6.425568
0.251600	6.438227
0.251700	6.428489
0.251800	6.401873
0.251900	6.434007
0.252000	6.290539
0.252100	6.243799
0.252200	5.642663
0.252300	4.656897
0.252400	3.979814
0.252500	3.994420
0.252600	4.453057
0.252700	4.631254
0.252800	4.016816
0.252900	2.793138
0.253000	1.926504
0.253100	1.555831
0.253200	1.749282
0.253300	1.874246
0.253400	1.471440
0.253500	0.663881
0.253600	0.491204
0.253700	0.444464
0.253800	0.440569
0.253900	0.446087
0.254000	0.425638
0.254100	0.397075
0.254200	0.365915
0.254300	0.351633
0.254400	0.326641
0.254500	0.300999
0.254600	0.270813
0.254700	0.227319
0.254800	0.217581
0.254900	0.204273
0.255000	0.171815
0.255100	0.147796
0.255200	0.128970
0.255300	0.114364
0.255400	0.155911
0.255500	0.188369
0.255600	0.134813
0.255700	0.041983
0.255800	-0.032347
0.255900	-0.044032
0.256000	-0.006056
0.256100	0.022508
0.256200	0.008551
0.256300	-0.082981
0.256400	-0.165425
0.256500	-0.192041
0.256600	-0.162828
0.256700	-0.141731
0.256800	-0.123554
0.256900	-0.140757
0.257000	-0.158933
0.257100	-0.161206
0.257200	-0.156337
0.257300	-0.152117
0.257400	-0.149521
0.257500	-0.151468
0.257600	-0.123879
0.257700	-0.068051
0.257800	-0.043707
0.257900	-0.029425
0.258000	-0.004757
0.258100	0.006603
0.258200	0.035816
0.258300	0.073142
0.258400	0.106899
0.258500	0.175386
0.258600	0.182851
0.258700	0.207195
0.258800	0.250039
0.258900	0.269839
0.259000	0.328913
0.259100	0.364292
0.259200	0.397399
0.259300	0.421094
0.259400	0.414278
0.259500	0.419146
0.259600	0.403566
0.259700	0.428884
0.259800	0.446411
0.259900	0.474001
0.260000	0.474650
0.260100	0.482440
0.260200	0.491204
0.260300	0.464588
0.260400	0.498993
0.260500	0.535996
0.260600	0.632721
0.260700	0.735613
0.260800	0.708349
0.260900	0.640836
0.261000	0.567480
0.261100	0.628502
0.261200	0.719709
0.261300	0.824224
0.261400	0.852463
0.261500	0.838181
0.261600	0.763203
0.261700	0.768072
0.261800	0.848568
0.261900	0.890439
0.262000	0.931985
0.262100	0.909589
0.262200	0.921599
0.262300	0.907642
0.262400	0.930038
0.262500	0.948539
0.262600	0.974181
0.262700	0.998849
0.262800	1.013455
0.262900	1.014429
0.263000	1.026114
0.263100	1.015403
0.263200	1.014754
0.263300	0.965742
0.263400	1.003718
0.263500	1.011832
0.263600	1.131603
0.263700	0.857656
0.263800	0.841427
0.263900	0.808969
0.264000	0.907317
0.264100	1.555507
0.264200	1.873921
0.264300	1.717148
0.264400	1.147507
0.264500	1.090381
0.264600	1.549015
0.264700	2.333205
0.264800	2.851563
0.264900	2.878828
0.265000	2.630847
0.265100	2.534121
0.265200	2.694790
0.265300	2.968737
0.265400	3.110904
0.265500	2.995028
0.265600	2.940823
0.265700	2.909339
0.265800	3.038847
0.265900	3.105062
0.266000	3.175172
0.266100	3.287802
0.266200	3.343955
0.266300	3.750009
0.266400	3.907756
0.266500	4.031098
0.266600	3.821092
0.266700	3.689636
0.266800	3.926582
0.266900	4.287519
0.267000	4.350489
0.267100	4.406317
0.267200	4.572505
0.267300	4.617946
0.267400	4.574127
0.267500	4.580619
0.267600	4.602691
0.267700	4.564715
0.267800	4.543617
0.267900	4.555626
0.268000	4.572505
0.268100	4.564390
0.268200	4.512132
0.268300	4.428064
0.268400	4.503368
0.268500	4.323224
0.268600	4.237533
0.268700	4.031098
0.268800	3.932425
0.268900	3.172251
0.269000	2.323467
0.269100	1.804785
0.269200	2.003105
0.269300	2.635391
0.269400	2.639286
0.269500	2.078408
0.269600	1.101741
0.269700	0.462965
0.269800	0.553199
0.269900	0.878429
0.270000	0.970935
0.270100	0.534373
0.270200	0.444788
0.270300	0.394803
0.270400	0.384416
0.270500	0.404865
0.270600	0.391882
0.270700	0.385390
0.270800	0.349361
0.270900	0.333132
0.271000	0.311061
0.271100	0.299051
0.271200	0.268541
0.271300	0.226020
0.271400	0.182526
0.271500	0.144550
0.271600	0.106574
0.271700	0.067625
0.271800	0.023157
0.271900	-0.010924
0.272000	0.027052
0.272100	0.041983
0.272200	0.033868
0.272300	-0.016767
0.272400	-0.095965
0.272500	-0.168346
0.272600	-0.165425
0.272700	-0.091420
0.272800	-0.065454
0.272900	-0.116089
0.273000	-0.213463
0.273100	-0.288442
0.273200	-0.331611
0.273300	-0.315706
0.273400	-0.300451
0.273500	-0.325444
0.273600	-0.381597
0.273700	-0.416976
0.273800	-0.414055
0.273900	-0.399773
0.274000	-0.412107
0.274100	-0.406589
0.274200	-0.390685
0.274300	-0.346217
0.274400	-0.293310
0.274500	-0.268642
0.274600	-0.265396
0.274700	-0.252413
0.274800	-0.220279
0.274900	-0.146599
0.275000	-0.094991
0.275100	-0.019688
0.275200	0.008875
0.275300	0.044904
0.275400	0.093916
0.275500	0.120531
0.275600	0.203624
0.275700	0.240302
0.275800	0.273409
0.275900	0.293533
0.276000	0.319500
0.276100	0.323719
0.276200	0.344168
0.276300	0.346440
0.276400	0.380846
0.276500	0.389934
0.276600	0.421418
0.276700	0.440893
0.276800	0.448034
0.276900	0.474001
0.277000	0.464912
0.277100	0.523986
0.277200	0.539891
0.277300	0.692444
0.277400	0.750544
0.277500	0.736912
0.277600	0.641809
0.277700	0.651222
0.277800	0.715814
0.277900	0.836558
0.278000	0.938152
0.278100	0.938802
0.278200	0.899203
0.278300	0.867718
0.278400	0.938152
0.278500	1.015403
0.278600	1.057274
0.278700	1.115374
0.278800	1.138095
0.278900	1.130954
0.279000	1.120892
0.279100	1.138744
0.279200	1.154973
0.279300	1.174448
0.279400	1.170877
0.279500	1.201388
0.279600	1.266954
0.279700	1.218915
0.279800	1.144586
0.279900	1.306228
0.280000	1.287402
0.280100	1.449044
0.280200	1.881062
0.280300	1.985253
0.280400	1.777845
0.280500	1.431516
0.280600	1.444824
0.280700	1.870351
0.280800	2.473424
0.280900	2.617864
0.281000	2.171238
0.281100	1.663592
0.281200	1.556480
0.281300	1.918714
0.281400	2.551973
0.281500	2.766198
0.281600	2.576642
0.281700	2.238752
0.281800	2.252059
0.281900	2.144623
0.282000	2.329635
0.282100	2.221873
0.282200	2.188766
0.282300	2.140728
0.282400	2.062179
0.282500	2.121253
0.282600	2.129043
0.282700	2.098207
0.282800	2.090418
0.282900	2.278351
0.283000	2.342618
0.283100	2.486408
0.283200	2.178704
0.283300	2.000833
0.283400	1.949549
0.283500	2.013492
0.283600	2.084900
0.283700	2.103401
0.283800	2.174160
0.283900	2.226417
0.284000	2.354952
0.284100	2.379945
0.284200	2.463362
0.284300	2.462064
0.284400	2.510751
0.284500	2.508155
0.284600	2.389682
0.284700	2.275754
0.284800	2.256279
0.284900	2.278026
0.285000	2.108919
0.285100	1.963506
0.285200	1.867754
0.285300	1.516232
0.285400	1.290648
0.285500	0.989436
0.285600	-0.091420
0.285700	0.074116
0.285800	0.053018
0.285900	0.114689
0.286000	0.171815
0.286100	0.144875
0.286200	0.050097
0.286300	-0.043707
0.286400	-0.086876
0.286500	-0.033320
0.286600	0.004656
0.286700	0.003682
0.286800	-0.045979
0.286900	-0.122256
0.287000	-0.165750
0.287100	-0.169645
0.287200	-0.173215
0.287300	-0.181979
0.287400	-0.187497
0.287500	-0.212489
0.287600	-0.245921
0.287700	-0.249167
0.287800	-0.276757
0.287900	-0.300776
0.288000	-0.329663
0.288100	-0.346542
0.288200	-0.379000
0.288300	-0.398799
0.288400	-0.427038
0.288500	-0.465663
0.288600	-0.494551
0.288700	-0.457224
0.288800	-0.429959
0.288900	-0.461444
0.289000	-0.531878
0.289100	-0.631200
0.289200	-0.643534
0.289300	-0.593224
0.289400	-0.542265
0.289500	-0.526035
0.289600	-0.574398
0.289700	-0.643534
0.289800	-0.706178
0.289900	-0.715591
0.290000	-0.662684
0.290100	-0.672422
0.290200	-0.673071
0.290300	-0.701634
0.290400	-0.720135
0.290500	-0.717214
0.290600	-0.725653
0.290700	-0.749023
0.290800	-0.753892
0.290900	-0.756164
0.291000	-0.706828
0.291100	-0.668527
0.291200	-0.667229
0.291300	-0.663009
0.291400	-0.649377
0.291500	-0.616918
0.291600	-0.555897
0.291700	-0.525711
0.291800	-0.453978
0.291900	-0.446188
0.292000	-0.423792
0.292100	-0.388737
0.292200	-0.352060
0.292300	-0.306294
0.292400	-0.245272
0.292500	-0.220929
0.292600	-0.201129
0.292700	-0.192365
0.292800	-0.185874
0.292900	-0.183602
0.293000	-0.175163
0.293100	-0.157311
0.293200	-0.144003
0.293300	-0.126800
0.293400	-0.106351
0.293500	-0.071296
0.293600	-0.084280
0.293700	-0.043382
0.293800	-0.031373
0.293900	0.072493
0.294000	0.220827
0.294100	0.288989
0.294200	0.256206
0.294300	0.183500
0.294400	0.196808
0.294500	0.287691
0.294600	0.418173
0.294700	0.478220
0.294800	0.470106
0.294900	0.436025
0.295000	0.431481
0.295100	0.503862
0.295200	0.590201
0.295300	0.662583
0.295400	0.678812
0.295500	0.656740
0.295600	0.666802
0.295700	0.665504
0.295800	0.683680
0.295900	0.680435
0.296000	0.669723
0.296100	0.670048
0.296200	0.674268
0.296300	0.658038
0.296400	0.666478
0.296500	0.646029
0.296600	0.623308
0.296700	0.609351
0.296800	0.634019
0.296900	0.653170
0.297000	0.640836
0.297100	0.558392
0.297200	0.500292
0.297300	0.507757
0.297400	0.581113
0.297500	0.662258
0.297600	0.612597
0.297700	0.536970
0.297800	0.453552
0.297900	0.479843
0.298000	0.537619
0.298100	0.769370
0.298200	0.951785
0.298300	0.774563
0.298400	0.601561
0.298500	0.823250
0.298600	0.919651
0.298700	1.221837
0.298800	1.230276
0.298900	1.195870
0.299000	1.172176
0.299100	1.257541
0.299200	1.341283
0.299300	1.347125
0.299400	1.355240
0.299500	1.544471
0.299600	1.891773
0.299700	2.088145
0.299800	2.127420
0.299900	1.940461
0.300000	1.883659
0.300100	1.900537
0.300200	2.155659
0.300300	2.295878
0.300400	2.467907
0.300500	2.613969
0.300600	2.725300
0.300700	2.625004
0.300800	2.704852
0.300900	2.673043
0.301000	2.698360
0.301100	2.584107
0.301200	2.537043
0.301300	2.448432
0.301400	2.337424
0.301500	2.220575
0.301600	2.021606
0.301700	1.939812
0.301800	1.613282
0.301900	1.402304
0.302000	1.240338
0.302100	1.084863
0.302200	0.520416
0.302300	0.094889
0.302400	-0.007029
0.302500	-0.020986
0.302600	0.051395
0.302700	0.094889
0.302800	0.041333
0.302900	-0.080060
0.303000	-0.168671
0.303100	-0.176136
0.303200	-0.112843
0.303300	-0.057015
0.303400	-0.080060
0.303500	-0.151793
0.303600	-0.236833
0.303700	-0.286819
0.303800	-0.286494
0.303900	-0.270914
0.304000	-0.280976
0.304100	-0.318952
0.304200	-0.327067
0.304300	-0.348165
0.304400	-0.373157
0.304500	-0.389386
0.304600	-0.440670
0.304700	-0.508833
0.304800	-0.520518
0.304900	-0.532527
0.305000	-0.560117
0.305100	-0.579267
0.305200	-0.615620
0.305300	-0.621463
0.305400	-0.556222
0.305500	-0.510780
0.305600	-0.539343
0.305700	-0.610751
0.305800	-0.705854
0.305900	-0.711696
0.306000	-0.649052
0.306100	-0.587057
0.306200	-0.617892
0.306300	-0.693195
0.306400	-0.793166
0.306500	-0.826923
0.306600	-0.797386
0.306700	-0.736365
0.306800	-0.697090
0.306900	-0.698388
0.307000	-0.702608
0.307100	-0.698388
0.307200	-0.685081
0.307300	-0.663334
0.307400	-0.640937
0.307500	-0.623085
0.307600	-0.607830
0.307700	-0.545186
0.307800	-0.521816
0.307900	-0.505911
0.308000	-0.503964
0.308100	-0.511429
0.308200	-0.483191
0.308300	-0.441644
0.308400	-0.378675
0.308500	-0.342647
0.308600	-0.353683
0.308700	-0.336804
0.308800	-0.328690
0.308900	-0.290714
0.309000	-0.244948
0.309100	-0.197883
0.309200	-0.168996
0.309300	-0.171917
0.309400	-0.164127
0.309500	-0.153740
0.309600	-0.162504
0.309700	-0.160881
0.309800	-0.141406
0.309900	-0.144327
0.310000	-0.145626
0.310100	-0.139134
0.310200	-0.147249
0.310300	-0.136537
0.310400	-0.121607
0.310500	-0.092394
0.310600	-0.004433
0.310700	0.092942
0.310800	0.078011
0.310900	-0.039487
0.311000	-0.102456
0.311100	-0.130046
0.311200	0.001410
0.311300	0.078011
0.311400	0.161753
0.311500	0.109496
0.311600	0.047500
0.311700	0.049448
0.311800	0.118584
0.311900	0.189992
0.312000	0.245495
0.312100	0.268865
0.312200	0.263996
0.312300	0.251662
0.312400	0.247767
0.312500	0.272436
0.312600	0.284445
0.312700	0.282173
0.312800	0.263996
0.312900	0.282822
0.313000	0.245171
0.313100	0.222125
0.313200	0.166622
0.313300	0.153314
0.313400	0.114040
0.313500	0.129944
0.313600	0.113066
0.313700	0.069247
0.313800	-0.059936
0.313900	-0.094017
0.314000	-0.068700
0.314100	0.005629
0.314200	0.073142
0.314300	0.047500
0.314400	-0.012547
0.314500	-0.055392
0.314600	-0.013521
0.314700	0.069247
0.314800	0.151042
0.314900	0.165648
0.315000	0.155262
0.315100	0.138708
0.315200	0.160455
0.315300	0.180904
0.315400	0.194536
0.315500	0.180579
0.315600	0.192588
0.315700	0.184149
0.315800	0.205247
0.315900	0.191290
0.316000	0.209142
0.316100	0.201028
0.316200	0.204923
0.316300	0.227319
0.316400	0.452903
0.316500	0.325018
0.316600	0.161753
0.316700	0.156884
0.316800	0.164350
0.316900	0.215958
0.317000	0.308789
0.317100	0.269514
0.317200	0.315929
0.317300	0.280225
0.317400	0.329886
0.317500	0.412006
0.317600	0.371433
0.317700	0.399672
0.317800	0.480817
0.317900	0.384416
0.318000	0.512626
0.318100	0.561313
0.318200	0.584683
0.318300	0.496397
0.318400	0.320798
0.318500	0.382469
0.318600	0.171815
0.318700	0.096837
0.318800	0.050746
0.318900	-0.036242
0.319000	-0.184900
0.319100	-0.254685
0.319200	-0.244948
0.319300	-0.203726
0.319400	-0.202752
0.319500	-0.306943
0.319600	-0.454303
0.319700	-0.564661
0.319800	-0.587706
0.319900	-0.569529
0.320000	-0.543563
0.320100	-0.600365
0.320200	-0.690923
0.320300	-0.770446
0.320400	-0.812966
0.320500	-0.797710
0.320600	-0.791219
0.320700	-0.811343
0.320800	-0.860355
0.320900	-0.884049
0.321000	-0.891839
0.321100	-0.929166
0.321200	-0.975906
0.321300	-1.021997
0.321400	-1.059324
0.321500	-1.077500
0.321600	-1.085939
0.321700	-1.113853
0.321800	-1.165137
0.321900	-1.188183
0.322000	-1.182989
0.322100	-1.127161
0.322200	-1.129758
0.322300	-1.176822
0.322400	-1.288803
0.322500	-1.356316
0.322600	-1.358588
0.322700	-1.281338
0.322800	-1.218044
0.322900	-1.229080
0.323000	-1.298216
0.323100	-1.359238
0.323200	-1.373195
0.323300	-1.318016
0.323400	-1.256670
0.323500	-1.217071
0.323600	-1.220316
0.323700	-1.214149
0.323800	-1.179419
0.323900	-1.150856
0.324000	-1.120020
0.324100	-1.083992
0.324200	-1.058999
0.324300	-1.013233
0.324400	-0.948641
0.324500	-0.893138
0.324600	-0.886646
0.324700	-0.875935
0.324800	-0.874312
0.324900	-0.791219
0.325000	-0.731171
0.325100	-0.647429
0.325200	-0.627630
0.325300	-0.634770
0.325400	-0.601663
0.325500	-0.573100
0.325600	-0.515973
0.325700	-0.467935
0.325800	-0.441320
0.325900	-0.418599
0.326000	-0.384518
0.326100	-0.370885
0.326200	-0.357902
0.326300	-0.378675
0.326400	-0.352384
0.326500	-0.363095
0.326600	-0.335831
0.326700	-0.325119
0.326800	-0.315057
0.326900	-0.352384
0.327000	-0.335181
0.327100	-0.336804
0.327200	-0.276757
0.327300	-0.184575
0.327400	-0.106351
0.327500	-0.119010
0.327600	-0.239105
0.327700	-0.262475
0.327800	-0.234886
0.327900	-0.103105
0.328000	0.006603
0.328100	0.018613
0.328200	-0.021635
0.328300	-0.085253
0.328400	-0.063182
0.328500	0.003357
0.328600	0.072169
0.328700	0.129944
0.328800	0.114364
0.328900	0.140006
0.329000	0.107548
0.329100	0.108197
0.329200	0.122803
0.329300	0.154288
0.329400	0.151691
0.329500	0.181228
0.329600	0.178631
0.329700	0.177009
0.329800	0.135462
0.329900	0.156560
0.330000	0.109820
0.330100	0.128970
0.330200	0.141629
0.330300	0.145200
0.330400	0.091644
0.330500	-0.029101
0.330600	-0.066428
0.330700	-0.024232
0.330800	0.051395
0.330900	0.083529
0.331000	0.025104
0.331100	-0.072595
0.331200	-0.116413
0.331300	-0.044032
0.331400	0.043930
0.331500	0.102030
0.331600	0.070221
0.331700	0.047825
0.331800	0.049773
0.331900	0.058536
0.332000	0.095863
0.332100	0.102030
0.332200	0.089372
0.332300	0.082880
0.332400	0.084178
0.332500	0.109171
0.332600	0.103653
0.332700	0.086450
0.332800	0.083204
0.332900	0.102355
0.333000	0.123777
0.333100	0.133839
0.333200	0.104302
0.333300	0.053018
0.333400	0.022832
0.333500	0.018937
0.333600	0.023481
0.333700	0.051720
0.333800	0.051720
0.333900	0.083854
0.334000	0.080608
0.334100	0.081906
0.334200	0.107873
0.334300	0.135138
0.334400	0.183500
0.334500	0.178631
0.334600	0.337027
0.334700	0.294507
0.334800	0.243872
0.334900	0.300350
0.335000	0.326641
0.335100	0.361695
0.335200	0.318526
0.335300	0.266268
0.335400	0.097161
0.335500	0.106574
0.335600	0.003682
0.335700	-0.093693
0.335800	-0.123229
0.335900	-0.073568
0.336000	0.005954
0.336100	-0.007678
0.336200	-0.119010
0.336300	-0.268642
0.336400	-0.340375
0.336500	-0.377052
0.336600	-0.351410
0.336700	-0.355630
0.336800	-0.425740
0.336900	-0.504288
0.337000	-0.570179
0.337100	-0.593873
0.337200	-0.601338
0.337300	-0.615945
0.337400	-0.608804
0.337500	-0.633472
0.337600	-0.642236
0.337700	-0.646455
0.337800	-0.644832
0.337900	-0.653596
0.338000	-0.645482
0.338100	-0.682159
0.338200	-0.682484
0.338300	-0.697415
0.338400	-0.688326
0.338500	-0.701310
0.338600	-0.720460
0.338700	-0.691572
0.338800	-0.646455
0.338900	-0.647429
0.339000	-0.708775
0.339100	-0.808422
0.339200	-0.830169
0.339300	-0.798035
0.339400	-0.726952
0.339500	-0.712345
0.339600	-0.770770
0.339700	-0.863276
0.339800	-0.912937
0.339900	-0.917481
0.340000	-0.866522
0.340100	-0.850617
0.340200	-0.869768
0.340300	-0.893138
0.340400	-0.921376
0.340500	-0.941500
0.340600	-0.954159
0.340700	-0.982722
0.340800	-1.016479
0.340900	-1.034331
0.341000	-1.015180
0.341100	-0.997004
0.341200	-0.994083
0.341300	-0.997328
0.341400	-1.013558
0.341500	-1.003820
0.341600	-0.961949
0.341700	-0.939228
0.341800	-0.863276
0.341900	-0.865224
0.342000	-0.851591
0.342100	-0.822379
0.342200	-0.806150
0.342300	-0.768823
0.342400	-0.736689
0.342500	-0.715916
0.342600	-0.709749
0.342700	-0.673396
0.342800	-0.682808
0.342900	-0.640613
0.343000	-0.643859
0.343100	-0.611725
0.343200	-0.596794
0.343300	-0.581539
0.343400	-0.549405
0.343500	-0.543563
0.343600	-0.532852
0.343700	-0.555248
0.343800	-0.531878
0.343900	-0.448785
0.344000	-0.355305
0.344100	-0.277406
0.344200	-0.346217
0.344300	-0.406265
0.344400	-0.429310
0.344500	-0.332585
0.344600	-0.230017
0.344700	-0.179382
0.344800	-0.172566
0.344900	-0.234886
0.345000	-0.251439
0.345100	-0.224174
0.345200	-0.150819
0.345300	-0.137186
0.345400	-0.089798
0.345500	-0.123554
0.345600	-0.129397
0.345700	-0.161206
0.345800	-0.151468
0.345900	-0.158284
0.346000	-0.144327
0.346100	-0.140108
0.346200	-0.124528
0.346300	-0.134265
0.346400	-0.151793
0.346500	-0.176136
0.346600	-0.189120
0.346700	-0.225473
0.346800	-0.224174
0.346900	-0.224824
0.347000	-0.255010
0.347100	-0.347515
0.347200	-0.412756
0.347300	-0.407238
0.347400	-0.324146
0.347500	-0.245597
0.347600	-0.247544
0.347700	-0.296232
0.347800	-0.362446
0.347900	-0.336155
0.348000	-0.271563
0.348100	-0.150170
0.348200	-0.118036
0.348300	-0.142380
0.348400	-0.167697
0.348500	-0.149521
0.348600	-0.127124
0.348700	-0.087201
0.348800	-0.099210
0.348900	-0.091096
0.349000	-0.084604
0.349100	-0.030724
0.349200	0.009524
0.349300	-0.012872
0.349400	-0.025530
0.349500	-0.011573
0.349600	0.003357
0.349700	0.035816
0.349800	0.043930
0.349900	-0.001187
0.350000	-0.020986
0.350100	-0.041435
0.350200	-0.028127
0.350300	0.004331
0.350400	0.001734
0.350500	0.004331
0.350600	0.019262
0.350700	0.020236
0.350800	0.025104
0.350900	0.027701
0.351000	0.038737
0.351100	0.046851
0.351200	0.060159
0.351300	0.066975
0.351400	0.077037
0.351500	0.073792
0.351600	0.079309
0.351700	0.081257
0.351800	0.081257
0.351900	0.073792
0.352000	0.040684
0.352100	0.048474
0.352200	-0.003783
0.352300	-0.073893
0.352400	-0.161855
0.352500	-0.131669
0.352600	-0.039812
0.352700	0.028350
0.352800	0.008226
0.352900	-0.083955
0.353000	-0.162179
0.353100	-0.207296
0.353200	-0.167697
0.353300	-0.118036
0.353400	-0.100833
0.353500	-0.168996
0.353600	-0.227096
0.353700	-0.288442
0.353800	-0.309539
0.353900	-0.309539
0.354000	-0.336480
0.354100	-0.379324
0.354200	-0.400098
0.354300	-0.433854
0.354400	-0.456575
0.354500	-0.459496
0.354600	-0.483191
0.354700	-0.517596
0.354800	-0.547133
0.354900	-0.538370
0.355000	-0.567582
0.355100	-0.568880
0.355200	-0.597443
0.355300	-0.610102
0.355400	-0.548756
0.355500	-0.509806
0.355600	-0.523763
0.355700	-0.598417
0.355800	-0.695143
0.355900	-0.723057
0.356000	-0.692871
0.356100	-0.651324
0.356200	-0.647429
0.356300	-0.725653
0.356400	-0.797061
0.356500	-0.844126
0.356600	-0.819782
0.356700	-0.771095
0.356800	-0.755839
0.356900	-0.740909
0.357000	-0.779534
0.357100	-0.790570
0.357200	-0.777911
0.357300	-0.777586
0.357400	-0.756489
0.357500	-0.738312
0.357600	-0.714618
0.357700	-0.667229
0.357800	-0.628928
0.357900	-0.601663
0.358000	-0.584136
0.358100	-0.593224
0.358200	-0.549405
0.358300	-0.494551
0.358400	-0.424766
0.358500	-0.371859
0.358600	-0.372184
0.358700	-0.341024
0.358800	-0.292012
0.358900	-0.236184
0.359000	-0.185225
0.359100	-0.128423
0.359200	-0.108299
0.359300	-0.073568
0.359400	-0.054094
0.359500	-0.022609
0.359600	0.001085
0.359700	0.036789
0.359800	0.076713
0.359900	0.118584
0.360000	0.170192
0.360100	0.177333
0.360200	0.237056
0.360300	0.222450
0.360400	0.277953
0.360500	0.322097
0.360600	0.452903
0.360700	0.582736
0.360800	0.589227
0.360900	0.542812
0.361000	0.452578
0.361100	0.504511
0.361200	0.571375
0.361300	0.710296
0.361400	0.754764
0.361500	0.746649
0.361600	0.708024
0.361700	0.690497
0.361800	0.715165
0.361900	0.763527
0.362000	0.774888
0.362100	0.740482
0.362200	0.723279
0.362300	0.699909
0.362400	0.667127
0.362500	0.635318
0.362600	0.616167
0.362700	0.607728
0.362800	0.578516
0.362900	0.569428
0.363000	0.564559
0.363100	0.559366
0.363200	0.547356
0.363300	0.514573
0.363400	0.521390
0.363500	0.553199
0.363600	0.604482
0.363700	0.564884
0.363800	0.475624
0.363900	0.438621
0.364000	0.456149
0.364100	0.526907
0.364200	0.596693
0.364300	0.573323
0.364400	0.485686
0.364500	0.413304
0.364600	0.420120
0.364700	0.487633
0.364800	0.595719
0.364900	0.822601
0.365000	0.718086
0.365100	0.612272
0.365200	0.759957
0.365300	0.897580
0.365400	1.328299
0.365500	1.503249
0.365600	1.745062
0.365700	1.908652
0.365800	2.162799
0.365900	2.412078
0.366000	2.563983
0.366100	2.706799
0.366200	2.947964
0.366300	3.151153
0.366400	3.406275
0.366500	3.541301
0.366600	3.312795
0.366700	3.272222
0.366800	3.294294
0.366900	3.467621
0.367000	3.767536
0.367100	3.756825
0.367200	3.848033
0.367300	3.906133
0.367400	3.930477
0.367500	4.000587
0.367600	4.078812
0.367700	4.094067
0.367800	4.208321
0.367900	4.296283
0.368000	4.500771
0.368100	4.642615
0.368200	4.834445
0.368300	4.995114
0.368400	5.177531
0.368500	5.371958
0.368600	5.529707
0.368700	5.544963
0.368800	5.612477
0.368900	5.365466
0.369000	4.672801
0.369100	4.199233
0.369200	4.517001
0.369300	5.019134
0.369400	5.376827
0.369500	5.050943
0.369600	4.233963
0.369700	3.550390
0.369800	3.246580
0.369900	3.369922
0.370000	3.576356
0.370100	3.428022
0.370200	2.919076
0.370300	2.158580
0.370400	1.790828
0.370500	1.518504
0.370600	1.565893
0.370700	1.247479
0.370800	0.967040
0.370900	0.764826
0.371000	0.733991
0.371100	0.681084
0.371200	0.660960
0.371300	0.602210
0.371400	0.530153
0.371500	0.488607
0.371600	0.475299
0.371700	0.430507
0.371800	0.373705
0.371900	0.330211
0.372000	0.354230
0.372100	0.413629
0.372200	0.464912
0.372300	0.419796
0.372400	0.327614
0.372500	0.289314
0.372600	0.295481
0.372700	0.358125
0.372800	0.418497
0.372900	0.424664
0.373000	0.342545
0.373100	0.246144
0.373200	0.207519
0.373300	0.189018
0.373400	0.226345
0.373500	0.236407
0.373600	0.229915
0.373700	0.205572
0.373800	0.165324
0.373900	0.147796
0.374000	0.130269
0.374100	0.135462
0.374200	0.127672
0.374300	0.142603
0.374400	0.159806
0.374500	0.174736
0.374600	0.185772
0.374700	0.194861
0.374800	0.205247
0.374900	0.265944
0.375000	0.333132
0.375100	0.423041
0.375200	0.478869
0.375300	0.494449
0.375400	0.535347
0.375500	0.571375
0.375600	0.616817
0.375700	0.671995
0.375800	0.712244
0.375900	0.757685
0.376000	0.783976
0.376100	0.801179
0.376200	0.817733
0.376300	0.825523
0.376400	0.846620
0.376500	0.879728
0.376600	0.881351
0.376700	0.893685
0.376800	0.897255
0.376900	0.884921
0.377000	0.888816
0.377100	0.900825
0.377200	0.974830
0.377300	1.045589
0.377400	1.160815
0.377500	1.142314
0.377600	1.048186
0.377700	0.997226
0.377800	1.028386
0.377900	1.132577
0.378000	1.242610
0.378100	1.289999
0.378200	1.270848
0.378300	1.226705
0.378400	1.213398
0.378500	1.242285
0.378600	1.270848
0.378700	1.292595
0.378800	1.277340
0.378900	1.221512
0.379000	1.174772
0.379100	1.133550
0.379200	1.093952
0.379300	1.024166
0.379400	1.009560
0.379500	0.934582
0.379600	0.875508
0.379700	0.814811
0.379800	0.758659
0.379900	0.689198
0.380000	0.626879
0.380100	0.601886
0.380200	0.570401
0.380300	0.545084
0.380400	0.437323
0.380500	0.313982
0.380600	0.290612
0.380700	0.313982
0.380800	0.347738
0.380900	0.371757
0.381000	0.290612
0.381100	0.204598
0.381200	0.167920
0.381300	0.188369
0.381400	0.247443
0.381500	0.281199
0.381600	0.249066
0.381700	0.195834
0.381800	0.180904
0.381900	0.172789
0.382000	0.196159
0.382100	0.194861
0.382200	0.201028
0.382300	0.176359
0.382400	0.157534
0.382500	0.156884
0.382600	0.141305
0.382700	0.089372
0.382800	0.059835
0.382900	0.045553
0.383000	0.051395
0.383100	0.050746
0.383200	0.014393
0.383300	-0.041759
0.383400	-0.072595
0.383500	-0.090122
0.383600	-0.077463
0.383700	-0.092719
0.383800	-0.115115
0.383900	-0.131993
0.384000	-0.143354
0.384100	-0.164127
0.384200	-0.152766
0.384300	-0.171268
0.384400	-0.187172
0.384500	-0.216709
0.384600	-0.215086
0.384700	-0.229368
0.384800	-0.247544
0.384900	-0.273511
0.385000	-0.288766
0.385100	-0.302723
0.385200	-0.330637
0.385300	-0.372184
0.385400	-0.383544
0.385500	-0.402694
0.385600	-0.499095
0.385700	-0.608479
0.385800	-0.665606
0.385900	-0.621787
0.386000	-0.520842
0.386100	-0.495525
0.386200	-0.543238
0.386300	-0.632823
0.386400	-0.701634
0.386500	-0.663334
0.386600	-0.588680
0.386700	-0.539343
0.386800	-0.581864
0.386900	-0.651324
0.387000	-0.705854
0.387100	-0.700660
0.387200	-0.673396
0.387300	-0.673720
0.387400	-0.691572
0.387500	-0.741233
0.387600	-0.764603
0.387700	-0.785701
0.387800	-0.799658
0.387900	-0.821730
0.388000	-0.874636
0.388100	-0.884374
0.388200	-0.898331
0.388300	-0.889243
0.388400	-0.910990
0.388500	-0.925596
0.388600	-0.926570
0.388700	-0.893787
0.388800	-0.804527
0.388900	-0.778560
0.389000	-0.806474
0.389100	-0.889243
0.389200	-0.915534
0.389300	-0.881128
0.389400	-0.792517
0.389500	-0.740259
0.389600	-0.777911
0.389700	-0.854837
0.389800	-0.941500
0.389900	-0.977529
0.390000	-0.943772
0.390100	-0.911963
0.390200	-0.890216
0.390300	-0.916832
0.390400	-0.923973
0.390500	-0.895734
0.390600	-0.877233
0.390700	-0.861004
0.390800	-0.831467
0.390900	-0.809071
0.391000	-0.790894
0.391100	-0.772718
0.391200	-0.725978
0.391300	-0.696766
0.391400	-0.690923
0.391500	-0.671773
0.391600	-0.601988
0.391700	-0.532527
0.391800	-0.440346
0.391900	-0.416976
0.392000	-0.402370
0.392100	-0.359850
0.392200	-0.323496
0.392300	-0.300776
0.392400	-0.267668
0.392500	-0.234236
0.392600	-0.195611
0.392700	-0.197883
0.392800	-0.197234
0.392900	-0.191067
0.393000	-0.198857
0.393100	-0.178733
0.393200	-0.185549
0.393300	-0.120957
0.393400	-0.131344
0.393500	-0.104728
0.393600	-0.082657
0.393700	-0.077139
0.393800	-0.035917
0.393900	0.018937
0.394000	0.116312
0.394100	0.207519
0.394200	0.177333
0.394300	0.108846
0.394400	0.073792
0.394500	0.140980
0.394600	0.216283
0.394700	0.352607
0.394800	0.348712
0.394900	0.322746
0.395000	0.299376
0.395100	0.313333
0.395200	0.412006
0.395300	0.462316
0.395400	0.527232
0.395500	0.490554
0.395600	0.507433
0.395700	0.503213
0.395800	0.527881
0.395900	0.545733
0.396000	0.569103
0.396100	0.586306
0.396200	0.582736
0.396300	0.599289
0.396400	0.590525
0.396500	0.565857
0.396600	0.533399
0.396700	0.525934
0.396800	0.522688
0.396900	0.529504
0.397000	0.534048
0.397100	0.431156
0.397200	0.383442
0.397300	0.368187
0.397400	0.451280
0.397500	0.545733
0.397600	0.547032
0.397700	0.511652
0.397800	0.445113
0.397900	0.444464
0.398000	0.516521
0.398100	0.759957
0.398200	1.384127
0.398300	1.646390
0.398400	1.634380
0.398500	1.759993
0.398600	1.834972
0.398700	2.225768
0.398800	2.445835
0.398900	2.557816
0.399000	2.551000
0.399100	2.689596
0.399200	2.791191
0.399300	2.851238
0.399400	2.916804
0.399500	3.052155
0.399600	3.134924
0.399700	3.381607
0.399800	3.602972
0.399900	3.497807
0.400000	3.395239
0.400100	3.477683
0.400200	3.744815
0.400300	4.146001
0.400400	4.096339
0.400500	4.244025
0.400600	4.413783
0.400700	4.404370
0.400800	4.572505
0.400900	4.653002
0.401000	4.633851
0.401100	4.776344
0.401200	4.907801
0.401300	4.996737
0.401400	5.115535
0.401500	5.322297
0.401600	5.500170
0.401700	5.656945
0.401800	5.740688
0.401900	5.816966
0.402000	5.856241
0.402100	5.970171
0.402200	5.890972
0.402300	5.159030
0.402400	4.323548
0.402500	4.214163
0.402600	4.462146
0.402700	4.900660
0.402800	4.802311
0.402900	3.963260
0.403000	2.960947
0.403100	2.381892
0.403200	2.410131
0.403300	2.539639
0.403400	2.598064
0.403500	2.001157
0.403600	1.185484
0.403700	0.364617
0.403800	0.576244
0.403900	0.558716
0.404000	0.527881
0.404100	0.481791
0.404200	0.417523
0.404300	0.357476
0.404400	0.303271
0.404500	0.255557
0.404600	0.170841
0.404700	0.091319
0.404800	0.016990
0.404900	-0.044681
0.405000	-0.098237
0.405100	-0.169645
0.405200	-0.252088
0.405300	-0.301749
0.405400	-0.261501
0.405500	-0.243649
0.405600	-0.274809
0.405700	-0.366017
0.405800	-0.467935
0.405900	-0.507859
0.406000	-0.509157
0.406100	-0.434503
0.406200	-0.411458
0.406300	-0.465014
0.406400	-0.541940
0.406500	-0.616918
0.406600	-0.632823
0.406700	-0.619840
0.406800	-0.601338
0.406900	-0.621138
0.407000	-0.639639
0.407100	-0.672422
0.407200	-0.709749
0.407300	-0.746427
0.407400	-0.777911
0.407500	-0.786999
0.407600	-0.802579
0.407700	-0.812317
0.407800	-0.817185
0.407900	-0.851916
0.408000	-0.870092
0.408100	-0.914235
0.408200	-0.929815
0.408300	-0.910665
0.408400	-0.893138
0.408500	-0.869443
0.408600	-0.896708
0.408700	-0.906445
0.408800	-0.917157
0.408900	-0.913262
0.409000	-0.913586
0.409100	-0.918130
0.409200	-0.933386
0.409300	-0.931763
0.409400	-0.935333
0.409500	-0.951562
0.409600	-0.966818
0.409700	-0.989863
0.409800	-0.983696
0.409900	-0.981099
0.410000	-0.965844
0.410100	-0.959028
0.410200	-0.974608
0.410300	-0.968116
0.410400	-0.986617
0.410500	-0.949615
0.410600	-0.888269
0.410700	-0.747400
0.410800	-0.683133
0.410900	-0.734092
0.411000	-0.822054
0.411100	-0.833090
0.411200	-0.762331
0.411300	-0.658465
0.411400	-0.575372
0.411500	-0.606207
0.411600	-0.688002
0.411700	-0.733768
0.411800	-0.722407
0.411900	-0.704555
0.412000	-0.661386
0.412100	-0.646455
0.412200	-0.665281
0.412300	-0.683133
0.412400	-0.655868
0.412500	-0.655868
0.412600	-0.636718
0.412700	-0.635095
0.412800	-0.627954
0.412900	-0.627305
0.413000	-0.642236
0.413100	-0.680212
0.413200	-0.725978
0.413300	-0.763629
0.413400	-0.784727
0.413500	-0.766875
0.413600	-0.781481
0.413700	-0.814589
0.413800	-0.931763
0.413900	-0.992135
0.414000	-0.986293
0.414100	-0.891839
0.414200	-0.848994
0.414300	-0.867496
0.414400	-0.930465
0.414500	-0.971686
0.414600	-0.939877
0.414700	-0.835037
0.414800	-0.727925
0.414900	-0.716565
0.415000	-0.713644
0.415100	-0.711372
0.415200	-0.672097
0.415300	-0.655544
0.415400	-0.608155
0.415500	-0.606856
0.415600	-0.606532
0.415700	-0.636393
0.415800	-0.647104
0.415900	-0.649052
0.416000	-0.681835
0.416100	-0.719162
0.416200	-0.744804
0.416300	-0.772718
0.416400	-0.787648
0.416500	-0.807773
0.416600	-0.880154
0.416700	-0.915534
0.416800	-0.947667
0.416900	-0.920402
0.417000	-0.912288
0.417100	-0.942799
0.417200	-0.942799
0.417300	-0.960651
0.417400	-0.972660
0.417500	-0.981424
0.417600	-0.988565
0.417700	-0.999925
0.417800	-0.980126
0.417900	-0.979152
0.418000	-0.961624
0.418100	-0.961949
0.418200	-0.968441
0.418300	-0.946694
0.418400	-0.959677
0.418500	-0.961300
0.418600	-0.993433
0.418700	-0.998302
0.418800	-1.028164
0.418900	-1.061596
0.419000	-1.157997
0.419100	-1.247581
0.419200	-1.227133
0.419300	-1.145662
0.419400	-1.075553
0.419500	-1.135600
0.419600	-1.228756
0.419700	-1.314121
0.419800	-1.311199
0.419900	-1.248230
0.420000	-1.180393
0.420100	-1.159295
0.420200	-1.198894
0.420300	-1.246283
0.420400	-1.245309
0.420500	-1.235896
0.420600	-1.194674
0.420700	-1.157347
0.420800	-1.142092
0.420900	-1.152154
0.421000	-1.140794
0.421100	-1.128135
0.421200	-1.108011
0.421300	-1.097949
0.421400	-1.088861
0.421500	-1.094703
0.421600	-1.066140
0.421700	-1.026865
0.421800	-1.021997
0.421900	-1.015505
0.422000	-0.991486
0.422100	-0.925271
0.422200	-0.853863
0.422300	-0.868794
0.422400	-0.953185
0.422500	-1.025243
0.422600	-1.030760
0.422700	-0.957080
0.422800	-0.885997
0.422900	-0.879505
0.423000	-0.966493
0.423100	-1.056727
0.423200	-1.103791
0.423300	-1.066140
0.423400	-1.029137
0.423500	-1.031085
0.423600	-1.054779
0.423700	-1.086264
0.423800	-1.100221
0.423900	-1.105090
0.424000	-1.091457
0.424100	-1.102168
0.424200	-1.119696
0.424300	-1.081395
0.424400	-1.051534
0.424500	-1.013558
0.424600	-1.003171
0.424700	-0.987916
0.424800	-0.992135
0.424900	-0.966493
0.425000	-0.926245
0.425100	-0.862302
0.425200	-0.819457
0.425300	-0.824651
0.425400	-0.818808
0.425500	-0.808746
0.425600	-0.784403
0.425700	-0.771419
0.425800	-0.748049
0.425900	-0.747725
0.426000	-0.741233
0.426100	-0.749023
0.426200	-0.749023
0.426300	-0.764928
0.426400	-0.768174
0.426500	-0.741558
0.426600	-0.752594
0.426700	-0.766551
0.426800	-0.790894
0.426900	-0.790894
0.427000	-0.821730
0.427100	-0.832765
0.427200	-0.811992
0.427300	-0.754866
0.427400	-0.643859
0.427500	-0.688326
0.427600	-0.757138
0.427700	-0.882751
0.427800	-0.859706
0.427900	-0.807773
0.428000	-0.700660
0.428100	-0.688651
0.428200	-0.755515
0.428300	-0.799983
0.428400	-0.851267
0.428500	-0.793166
0.428600	-0.730522
0.428700	-0.678914
0.428800	-0.663983
0.428900	-0.673720
0.429000	-0.706503
0.429100	-0.688651
0.429200	-0.675668
0.429300	-0.660737
0.429400	-0.665606
0.429500	-0.661711
0.429600	-0.678914
0.429700	-0.693520
0.429800	-0.739610
0.429900	-0.741558
0.430000	-0.767524
0.430100	-0.773042
0.430200	-0.753243
0.430300	-0.762006
0.430400	-0.781481
0.430500	-0.906121
0.430600	-0.975581
0.430700	-0.951887
0.430800	-0.887944
0.430900	-0.870092
0.431000	-0.924947
0.431100	-1.035629
0.431200	-1.113853
0.431300	-1.103467
0.431400	-1.044717
0.431500	-1.034006
0.431600	-1.045042
0.431700	-1.116775
0.431800	-1.159620
0.431900	-1.189481
0.432000	-1.188183
0.432100	-1.192727
0.432200	-1.219343
0.432300	-1.248880
0.432400	-1.298541
0.432500	-1.309252
0.432600	-1.325806
0.432700	-1.357615
0.432800	-1.396565
0.432900	-1.412469
0.433000	-1.398837
0.433100	-1.386178
0.433200	-1.396889
0.433300	-1.449796
0.433400	-1.478035
0.433500	-1.495562
0.433600	-1.492316
0.433700	-1.471868
0.433800	-1.486799
0.433900	-1.490694
0.434000	-1.493290
0.434100	-1.502378
0.434200	-1.517634
0.434300	-1.517958
0.434400	-1.507247
0.434500	-1.510168
0.434600	-1.512765
0.434700	-1.505949
0.434800	-1.479982
0.434900	-1.474464
0.435000	-1.469920
0.435100	-1.477386
0.435200	-1.490044
0.435300	-1.498808
0.435400	-1.521853
0.435500	-1.565347
0.435600	-1.659476
0.435700	-1.790608
0.435800	-1.845138
0.435900	-1.795801
0.436000	-1.729911
0.436100	-1.692908
0.436200	-1.764966
0.436300	-1.891553
0.436400	-1.969128
0.436500	-1.985033
0.436600	-1.929854
0.436700	-1.896422
0.436800	-1.944135
0.436900	-2.010350
0.437000	-2.104804
0.437100	-2.139210
0.437200	-2.180432
0.437300	-2.182055
0.437400	-2.222628
0.437500	-2.260604
0.437600	-2.300528
0.437700	-2.324222
0.437800	-2.385893
0.437900	-2.394981
0.438000	-2.430361
0.438100	-2.460547
0.438200	-2.495927
0.438300	-2.524490
0.438400	-2.539421
0.438500	-2.580319
0.438600	-2.626734
0.438700	-2.589732
0.438800	-2.523517
0.438900	-2.468013
0.439000	-2.510209
0.439100	-2.587459
0.439200	-2.650104
0.439300	-2.640367
0.439400	-2.549159
0.439500	-2.481970
0.439600	-2.490734
0.439700	-2.564089
0.439800	-2.641665
0.439900	-2.655297
0.440000	-2.626410
0.440100	-2.593627
0.440200	-2.577073
0.440300	-2.608557
0.440400	-2.634200
0.440500	-2.621865
0.440600	-2.644262
0.440700	-2.627708
0.440800	-2.634200
0.440900	-2.608557
0.441000	-2.569932
0.441100	-2.505664
0.441200	-2.455029
0.441300	-2.412184
0.441400	-2.378752
0.441500	-2.372585
0.441600	-2.273587
0.441700	-2.199582
0.441800	-2.090522
0.441900	-2.061635
0.442000	-2.048327
0.442100	-2.013921
0.442200	-1.972699
0.442300	-1.914274
0.442400	-1.870455
0.442500	-1.843190
0.442600	-1.801319
0.442700	-1.792880
0.442800	-1.783467
0.442900	-1.799047
0.443000	-1.781195
0.443100	-1.786388
0.443200	-1.781195
0.443300	-1.784116
0.443400	-1.780870
0.443500	-1.814952
0.443600	-1.819171
0.443700	-1.849033
0.443800	-1.826961
0.443900	-1.792555
0.444000	-1.674083
0.444100	-1.584173
0.444200	-1.612087
0.444300	-1.673109
0.444400	-1.711410
0.444500	-1.606245
0.444600	-1.498483
0.444700	-1.382283
0.444800	-1.331648
0.444900	-1.352746
0.445000	-1.385529
0.445100	-1.351772
0.445200	-1.288154
0.445300	-1.212526
0.445400	-1.174875
0.445500	-1.148259
0.445600	-1.177796
0.445700	-1.170655
0.445800	-1.194999
0.445900	-1.172603
0.446000	-1.183639
0.446100	-1.176822
0.446200	-1.185911
0.446300	-1.192727
0.446400	-1.181367
0.446500	-1.219343
0.446600	-1.186884
0.446700	-1.233624
0.446800	-1.190779
0.446900	-1.182016
0.447000	-1.148908
0.447100	-1.226483
0.447200	-1.330674
0.447300	-1.326130
0.447400	-1.271600
0.447500	-1.188507
0.447600	-1.180393
0.447700	-1.223887
0.447800	-1.316068
0.447900	-1.334894
0.448000	-1.248230
0.448100	-1.129433
0.448200	-1.096001
0.448300	-1.088536
0.448400	-1.122942
0.448500	-1.086264
0.448600	-1.067114
0.448700	-1.027190
0.448800	-1.012584
0.448900	-1.023620
0.449000	-1.032383
0.449100	-1.017128
0.449200	-0.998627
0.449300	-1.005118
0.449400	-1.038875
0.449500	-1.034655
0.449600	-1.031085
0.449700	-1.007066
0.449800	-1.000899
0.449900	-1.029462
0.450000	-1.102493
0.450100	-1.124240
0.450200	-1.125538
0.450300	-1.118722
0.450400	-1.100546
0.450500	-1.101844
0.450600	-1.091133
0.450700	-1.110608
0.450800	-1.117424
0.450900	-1.113529
0.451000	-1.139820
0.451100	-1.163515
0.451200	-1.180068
0.451300	-1.207009
0.451400	-1.205710
0.451500	-1.221939
0.451600	-1.242388
0.451700	-1.236546
0.451800	-1.272899
0.451900	-1.271925
0.452000	-1.309577
0.452100	-1.331648
0.452200	-1.370598
0.452300	-1.462455
0.452400	-1.586770
0.452500	-1.648441
0.452600	-1.614359
0.452700	-1.595534
0.452800	-1.614359
0.452900	-1.752307
0.453000	-1.890579
0.453100	-2.019114
0.453200	-2.031773
0.453300	-2.010350
0.453400	-2.028852
0.453500	-2.099611
0.453600	-2.179783
0.453700	-2.226847
0.453800	-2.239181
0.453900	-2.230093
0.454000	-2.179458
0.454100	-2.174914
0.454200	-2.195363
0.454300	-2.178484
0.454400	-2.172317
0.454500	-2.173616
0.454600	-2.171019
0.454700	-2.173940
0.454800	-2.196012
0.454900	-2.199582
0.455000	-2.221005
0.455100	-2.214513
0.455200	-2.262551
0.455300	-2.267096
0.455400	-2.248919
0.455500	-2.182055
0.455600	-2.208995
0.455700	-2.295334
0.455800	-2.403096
0.455900	-2.476452
0.456000	-2.462495
0.456100	-2.373559
0.456200	-2.324547
0.456300	-2.363172
0.456400	-2.448862
0.456500	-2.524166
0.456600	-2.539421
0.456700	-2.484567
0.456800	-2.444967
0.456900	-2.432309
0.457000	-2.458275
0.457100	-2.483593
0.457200	-2.453082
0.457300	-2.407965
0.457400	-2.370313
0.457500	-2.336881
0.457600	-2.294361
0.457700	-2.260279
0.457800	-2.191143
0.457900	-2.161931
0.458000	-2.173616
0.458100	-2.167124
0.458200	-2.164852
0.458300	-2.129797
0.458400	-2.085005
0.458500	-2.032422
0.458600	-2.034045
0.458700	-2.030475
0.458800	-1.997367
0.458900	-1.961988
0.459000	-1.915572
0.459100	-1.861042
0.459200	-1.805214
0.459300	-1.783142
0.459400	-1.752956
0.459500	-1.743219
0.459600	-1.770159
0.459700	-1.786388
0.459800	-1.824689
0.459900	-1.846436
0.460000	-1.888307
0.460100	-1.938942
0.460200	-1.964260
0.460300	-2.033396
0.460400	-2.068775
0.460500	-2.094742
0.460600	-2.035343
0.460700	-1.964584
0.460800	-1.878570
0.460900	-1.971076
0.461000	-2.029825
0.461100	-2.079487
0.461200	-1.991200
0.461300	-1.867534
0.461400	-1.767562
0.461500	-1.749710
0.461600	-1.796775
0.461700	-1.815925
0.461800	-1.798073
0.461900	-1.722770
0.462000	-1.648441
0.462100	-1.630264
0.462200	-1.602674
0.462300	-1.642598
0.462400	-1.639352
0.462500	-1.642923
0.462600	-1.620851
0.462700	-1.605271
0.462800	-1.589367
0.462900	-1.562102
0.463000	-1.574760
0.463100	-1.523801
0.463200	-1.508221
0.463300	-1.486799
0.463400	-1.463429
0.463500	-1.415715
0.463600	-1.372546
0.463700	-1.318340
0.463800	-1.370598
0.463900	-1.402407
0.464000	-1.380335
0.464100	-1.292049
0.464200	-1.215448
0.464300	-1.207333
0.464400	-1.294970
0.464500	-1.386503
0.464600	-1.405977
0.464700	-1.360861
0.464800	-1.280364
0.464900	-1.266407
0.465000	-1.311524
0.465100	-1.370923
0.465200	-1.373844
0.465300	-1.375467
0.465400	-1.352097
0.465500	-1.366054
0.465600	-1.394942
0.465700	-1.427400
0.465800	-1.442331
0.465900	-1.432269
0.466000	-1.429997
0.466100	-1.451419
0.466200	-1.451094
0.466300	-1.423505
0.466400	-1.396565
0.466500	-1.398837
0.466600	-1.424803
0.466700	-1.451419
0.466800	-1.471219
0.466900	-1.452068
0.467000	-1.381958
0.467100	-1.402407
0.467200	-1.378063
0.467300	-1.363133
0.467400	-1.371247
0.467500	-1.364106
0.467600	-1.378388
0.467700	-1.401433
0.467800	-1.401433
0.467900	-1.429997
0.468000	-1.446226
0.468100	-1.460183
0.468200	-1.492966
0.468300	-1.514713
0.468400	-1.536784
0.468500	-1.538732
0.468600	-1.580278
0.468700	-1.584173
0.468800	-1.593586
0.468900	-1.641624
0.469000	-1.740947
0.469100	-1.805863
0.469200	-1.813978
0.469300	-1.729911
0.469400	-1.666617
0.469500	-1.702321
0.469600	-1.835076
0.469700	-1.969128
0.469800	-2.033071
0.469900	-2.021711
0.470000	-2.007429
0.470100	-2.027878
0.470200	-2.101883
0.470300	-2.181081
0.470400	-2.223277
0.470500	-2.235936
0.470600	-2.211267
0.470700	-2.213215
0.470800	-2.190169
0.470900	-2.195363
0.471000	-2.202828
0.471100	-2.229119
0.471200	-2.260279
0.471300	-2.261902
0.471400	-2.306695
0.471500	-2.346943
0.471600	-2.357654
0.471700	-2.379077
0.471800	-2.419974
0.471900	-2.449187
0.472000	-2.433607
0.472100	-2.398876
0.472200	-2.333960
0.472300	-2.333635
0.472400	-2.408614
0.472500	-2.493979
0.472600	-2.504366
0.472700	-2.446266
0.472800	-2.358953
0.472900	-2.327468
0.473000	-2.383621
0.473100	-2.486189
0.473200	-2.559545
0.473300	-2.549159
0.473400	-2.518648
0.473500	-2.509235
0.473600	-2.516376
0.473700	-2.546562
0.473800	-2.555001
0.473900	-2.565388
0.474000	-2.562142
0.474100	-2.563116
0.474200	-2.552080
0.474300	-2.516051
0.474400	-2.474504
0.474500	-2.405693
0.474600	-2.374208
0.474700	-2.363821
0.474800	-2.343373
0.474900	-2.287220
0.475000	-2.188871
0.475100	-2.095067
0.475200	-2.047353
0.475300	-2.035019
0.475400	-1.998665
0.475500	-1.965558
0.475600	-1.923038
0.475700	-1.857147
0.475800	-1.794503
0.475900	-1.739973
0.476000	-1.711734
0.476100	-1.684469
0.476200	-1.649739
0.476300	-1.615009
0.476400	-1.592612
0.476500	-1.553013
0.476600	-1.514713
0.476700	-1.459209
0.476800	-1.432918
0.476900	-1.411495
0.477000	-1.390073
0.477100	-1.342359
0.477200	-1.285557
0.477300	-1.191753
0.477400	-1.028488
0.477500	-0.964546
0.477600	-1.015180
0.477700	-1.068087
0.477800	-1.060297
0.477900	-0.968441
0.478000	-0.862302
0.478100	-0.790245
0.478200	-0.796737
0.478300	-0.815238
0.478400	-0.797386
0.478500	-0.764279
0.478600	-0.672422
0.478700	-0.624708
0.478800	-0.573749
0.478900	-0.582188
0.479000	-0.583811
0.479100	-0.583162
0.479200	-0.578293
0.479300	-0.552651
0.479400	-0.537071
0.479500	-0.507859
0.479600	-0.535448
0.479700	-0.540317
0.479800	-0.564985
0.479900	-0.524088
0.480000	-0.534150
0.480100	-0.508183
0.480200	-0.460145
0.480300	-0.416976
0.480400	-0.405616
0.480500	-0.466312
0.480600	-0.493253
0.480700	-0.443267
0.480800	-0.341024
0.480900	-0.269940
0.481000	-0.281301
0.481100	-0.367964
0.481200	-0.436775
0.481300	-0.458522
0.481400	-0.368289
0.481500	-0.327067
0.481600	-0.348165
0.481700	-0.426389
0.481800	-0.460794
0.481900	-0.452680
0.482000	-0.464040
0.482100	-0.464365
0.482200	-0.506885
0.482300	-0.544537
0.482400	-0.568880
0.482500	-0.574074
0.482600	-0.597119
0.482700	-0.612699
0.482800	-0.657816
0.482900	-0.673720
0.483000	-0.661061
0.483100	-0.663334
0.483200	-0.656517
0.483300	-0.708450
0.483400	-0.745128
0.483500	-0.768823
0.483600	-0.770770
0.483700	-0.731171
0.483800	-0.763954
0.483900	-0.783429
0.484000	-0.796412
0.484100	-0.788947
0.484200	-0.804851
0.484300	-0.817835
0.484400	-0.819782
0.484500	-0.811018
0.484600	-0.796737
0.484700	-0.804527
0.484800	-0.799009
0.484900	-0.795763
0.485000	-0.775964
0.485100	-0.785376
0.485200	-0.784403
0.485300	-0.788947
0.485400	-0.817185
0.485500	-0.819782
0.485600	-0.892488
0.485700	-1.009013
0.485800	-1.069710
0.485900	-1.058674
0.486000	-0.986293
0.486100	-0.928842
0.486200	-0.963896
0.486300	-1.084641
0.486400	-1.165787
0.486500	-1.220966
0.486600	-1.162216
0.486700	-1.132679
0.486800	-1.160918
0.486900	-1.239791
0.487000	-1.310226
0.487100	-1.337166
0.487200	-1.326130
0.487300	-1.278417
0.487400	-1.267056
0.487500	-1.250178
0.487600	-1.262512
0.487700	-1.262188
0.487800	-1.252450
0.487900	-1.239791
0.488000	-1.236870
0.488100	-1.224211
0.488200	-1.246608
0.488300	-1.261863
0.488400	-1.264460
0.488500	-1.301787
0.488600	-1.362483
0.488700	-1.358588
0.488800	-1.304383
0.488900	-1.268030
0.489000	-1.297892
0.489100	-1.408899
0.489200	-1.484526
0.489300	-1.505624
0.489400	-1.432593
0.489500	-1.376116
0.489600	-1.363782
0.489700	-1.421233
0.489800	-1.489720
0.489900	-1.505624
0.490000	-1.480307
0.490100	-1.434216
0.490200	-1.396565
0.490300	-1.420584
0.490400	-1.442331
0.490500	-1.426102
0.490600	-1.408574
0.490700	-1.381309
0.490800	-1.368975
0.490900	-1.324507
0.491000	-1.279390
0.491100	-1.226483
0.491200	-1.187534
0.491300	-1.173901
0.491400	-1.175849
0.491500	-1.184937
0.491600	-1.131705
0.491700	-1.072631
0.491800	-0.982722
0.491900	-0.963247
0.492000	-0.954159
0.492100	-0.925271
0.492200	-0.887620
0.492300	-0.837309
0.492400	-0.774665
0.492500	-0.734092
0.492600	-0.683458
0.492700	-0.677940
0.492800	-0.667229
0.492900	-0.651649
0.493000	-0.644183
0.493100	-0.615620
0.493200	-0.598417
0.493300	-0.574074
0.493400	-0.540642
0.493500	-0.550379
0.493600	-0.530904
0.493700	-0.552651
0.493800	-0.521167
0.493900	-0.533176
0.494000	-0.424117
0.494100	-0.367640
0.494200	-0.352384
0.494300	-0.469558
0.494400	-0.521816
0.494500	-0.502016
0.494600	-0.413406
0.494700	-0.312785
0.494800	-0.270265
0.494900	-0.297205
0.495000	-0.369262
0.495100	-0.353358
0.495200	-0.339401
0.495300	-0.262475
0.495400	-0.222227
0.495500	-0.226122
0.495600	-0.223201
0.495700	-0.255010
0.495800	-0.267019
0.495900	-0.257282
0.496000	-0.248843
0.496100	-0.247544
0.496200	-0.233912
0.496300	-0.245597
0.496400	-0.255983
0.496500	-0.263773
0.496600	-0.270265
0.496700	-0.237807
0.496800	-0.234886
0.496900	-0.213139
0.497000	-0.185874
0.497100	-0.201454
0.497200	-0.300451
0.497300	-0.335506
0.497400	-0.292337
0.497500	-0.206972
0.497600	-0.182628
0.497700	-0.226122
0.497800	-0.313434
0.497900	-0.355305
0.498000	-0.330637
0.498100	-0.266370
0.498200	-0.229692
0.498300	-0.242351
0.498400	-0.297854
0.498500	-0.322847
0.498600	-0.366990
0.498700	-0.391334
0.498800	-0.394904
0.498900	-0.419573
0.499000	-0.433530
0.499100	-0.455601
0.499200	-0.434828
0.499300	-0.456575
0.499400	-0.490007
0.499500	-0.478322
0.499600	-0.477997
0.499700	-0.465014
0.499800	-0.469558
0.499900	-0.492604
0.500000	-0.553625
0.500100	-0.594198
0.500200	-0.608155
0.500300	-0.565959
0.500400	-0.557195
0.500500	-0.556546
0.500600	-0.554923
0.500700	-0.565959
0.500800	-0.560766
0.500900	-0.545835
0.501000	-0.532202
0.501100	-0.508183
0.501200	-0.489682
0.501300	-0.432556
0.501400	-0.403344
0.501500	-0.362446
0.501600	-0.337453
0.501700	-0.292661
0.501800	-0.281301
0.501900	-0.230017
0.502000	-0.194313
0.502100	-0.172890
0.502200	-0.149845
0.502300	-0.215411
0.502400	-0.331936
0.502500	-0.372508
0.502600	-0.334532
0.502700	-0.256957
0.502800	-0.247544
0.502900	-0.316356
0.503000	-0.470532
0.503100	-0.544212
0.503200	-0.547458
0.503300	-0.482217
0.503400	-0.451382
0.503500	-0.474752
0.503600	-0.537396
0.503700	-0.593224
0.503800	-0.583162
0.503900	-0.587057
0.504000	-0.563687
0.504100	-0.570503
0.504200	-0.586732
0.504300	-0.589004
0.504400	-0.593873
0.504500	-0.594522
0.504600	-0.620813
0.504700	-0.642560
0.504800	-0.698064
0.504900	-0.725329
0.505000	-0.766226
0.505100	-0.803228
0.505200	-0.871066
0.505300	-0.925271
0.505400	-0.915209
0.505500	-0.876259
0.505600	-0.854512
0.505700	-0.903524
0.505800	-1.006092
0.505900	-1.056727
0.506000	-1.014856
0.506100	-0.913586
0.506200	-0.853539
0.506300	-0.848670
0.506400	-0.937930
0.506500	-0.982073
0.506600	-0.990188
0.506700	-0.933061
0.506800	-0.905796
0.506900	-0.908393
0.507000	-0.924297
0.507100	-0.954484
0.507200	-0.945071
0.507300	-0.920727
0.507400	-0.901577
0.507500	-0.868794
0.507600	-0.842178
0.507700	-0.784403
0.507800	-0.725004
0.507900	-0.687028
0.508000	-0.659114
0.508100	-0.631849
0.508200	-0.621463
0.508300	-0.569205
0.508400	-0.528308
0.508500	-0.483840
0.508600	-0.430933
0.508700	-0.413730
0.508800	-0.367964
0.508900	-0.357253
0.509000	-0.339725
0.509100	-0.298828
0.509200	-0.279029
0.509300	-0.292012
0.509400	-0.289415
0.509500	-0.266695
0.509600	-0.268967
0.509700	-0.280652
0.509800	-0.259878
0.509900	-0.250141
0.510000	-0.205998
0.510100	-0.223201
0.510200	-0.188146
0.510300	-0.208919
0.510400	-0.185874
0.510500	-0.183926
0.510600	-0.130370
0.510700	-0.035592
0.510800	0.078985
0.510900	0.036789
0.511000	-0.025530
0.511100	-0.056366
0.511200	-0.011898
0.511300	0.124426
0.511400	0.238679
0.511500	0.289314
0.511600	0.249715
0.511700	0.250689
0.511800	0.253610
0.511900	0.333132
0.512000	0.364292
0.512100	0.396426
0.512200	0.362020
0.512300	0.346765
0.512400	0.303920
0.512500	0.289963
0.512600	0.291586
0.512700	0.296779
0.512800	0.297753
0.512900	0.322421
0.513000	0.299051
0.513100	0.290612
0.513200	0.270488
0.513300	0.260426
0.513400	0.255557
0.513500	0.256531
0.513600	0.274383
0.513700	0.312684
0.513800	0.251662
0.513900	0.161753
0.514000	0.129620
0.514100	0.184798
0.514200	0.260426
0.514300	0.262049
0.514400	0.183500
0.514500	0.115663
0.514600	0.097811
0.514700	0.179605
0.514800	0.276655
0.514900	0.324693
0.515000	0.285094
0.515100	0.236082
0.515200	0.242899
0.515300	0.250364
0.515400	0.296130
0.515500	0.297104
0.515600	0.294507
0.515700	0.257505
0.515800	0.274058
0.515900	0.357476
0.516000	0.659661
0.516100	0.664855
0.516200	0.792091
0.516300	1.018324
0.516400	1.193923
0.516500	1.456834
0.516600	1.331545
0.516700	1.027412
0.516800	0.918353
0.516900	0.985217
0.517000	1.366925
0.517100	1.429244
0.517200	1.381855
0.517300	1.396137
0.517400	1.407497
0.517500	1.470142
0.517600	1.574008
0.517700	1.548690
0.517800	1.595106
0.517900	1.746036
0.518000	1.839840
0.518100	1.852499
0.518200	1.856394
0.518300	1.920337
0.518400	1.891124
0.518500	2.007325
0.518600	1.977463
0.518700	1.940461
0.518800	1.911573
0.518900	1.799268
0.519000	1.051431
0.519100	0.355528
0.519200	0.213037
0.519300	0.458421
0.519400	0.968014
0.519500	1.213398
0.519600	0.471079
0.519700	0.202975
0.519800	0.142927
0.519900	0.154288
0.520000	0.204273
0.520100	0.196483
0.520200	0.156235
0.520300	0.069247
0.520400	0.016990
0.520500	0.002708
0.520600	-0.006705
0.520700	-0.007354
0.520800	-0.046628
0.520900	-0.098886
0.521000	-0.158609
0.521100	-0.205673
0.521200	-0.240403
0.521300	-0.261826
0.521400	-0.315382
0.521500	-0.364069
0.521600	-0.389062
0.521700	-0.414704
0.521800	-0.446188
0.521900	-0.482541
0.522000	-0.512078
0.522100	-0.499420
0.522200	-0.443267
0.522300	-0.453329
0.522400	-0.520518
0.522500	-0.620489
0.522600	-0.680212
0.522700	-0.665281
0.522800	-0.590627
0.522900	-0.570503
0.523000	-0.628279
0.523100	-0.735391
0.523200	-0.816212
0.523300	-0.818159
0.523400	-0.774990
0.523500	-0.739935
0.523600	-0.748699
0.523700	-0.764603
0.523800	-0.786999
0.523900	-0.816536
0.524000	-0.796088
0.524100	-0.796412
0.524200	-0.776288
0.524300	-0.766551
0.524400	-0.731820
0.524500	-0.695143
0.524600	-0.686703
0.524700	-0.689625
0.524800	-0.683782
0.524900	-0.646780
0.525000	-0.566608
0.525100	-0.510131
0.525200	-0.431907
0.525300	-0.403019
0.525400	-0.370561
0.525500	-0.345243
0.525600	-0.314733
0.525700	-0.261177
0.525800	-0.213139
0.525900	-0.191392
0.526000	-0.157311
0.526100	-0.153091
0.526200	-0.157311
0.526300	-0.152442
0.526400	-0.161206
0.526500	-0.100184
0.526600	-0.107000
0.526700	-0.076490
0.526800	-0.079736
0.526900	-0.071621
0.527000	-0.030724
0.527100	-0.029750
0.527200	0.004656
0.527300	0.084503
0.527400	0.217906
0.527500	0.314956
0.527600	0.245171
0.527700	0.216932
0.527800	0.191615
0.527900	0.318851
0.528000	0.402593
0.528100	0.523013
0.528200	0.500616
0.528300	0.461991
0.528400	0.459395
0.528500	0.488282
0.528600	0.601886
0.528700	0.641809
0.528800	0.676864
0.528900	0.647327
0.529000	0.641160
0.529100	0.595394
0.529200	0.588253
0.529300	0.598640
0.529400	0.580463
0.529500	0.564559
0.529600	0.551251
0.529700	0.517495
0.529800	0.452903
0.529900	0.427910
0.530000	0.399022
0.530100	0.380846
0.530200	0.373056
0.530300	0.390908
0.530400	0.385390
0.530500	0.285419
0.530600	0.205896
0.530700	0.211739
0.530800	0.304569
0.530900	0.364617
0.531000	0.389609
0.531100	0.358774
0.531200	0.289963
0.531300	0.317552
0.531400	0.408111
0.531500	0.504511
0.531600	0.607728
0.531700	0.395777
0.531800	0.451929
0.531900	0.446736
0.532000	0.550927
0.532100	0.824549
0.532200	0.857981
0.532300	0.863499
0.532400	0.785924
0.532500	0.802802
0.532600	0.862849
0.532700	0.723279
0.532800	0.645055
0.532900	0.424340
0.533000	0.406163
0.533100	0.402917
0.533200	0.230240
0.533300	0.119233
0.533400	0.068274
0.533500	0.053668
0.533600	0.061133
0.533700	0.098460
0.533800	0.094565
0.533900	0.107223
0.534000	0.119233
0.534100	0.169868
0.534200	0.353581
0.534300	0.353256
0.534400	0.293209
0.534500	0.371108
0.534600	0.382469
0.534700	0.276331
0.534800	0.272436
0.534900	0.346440
0.535000	0.387662
0.535100	0.511328
0.535200	0.513275
0.535300	0.498669
0.535400	0.394154
0.535500	0.308464
0.535600	0.021534
0.535700	0.007252
0.535800	-0.065454
0.535900	-0.071621
0.536000	0.016990
0.536100	0.051071
0.536200	0.035166
0.536300	-0.080060
0.536400	-0.173540
0.536500	-0.190093
0.536600	-0.155363
0.536700	-0.139134
0.536800	-0.165750
0.536900	-0.242026
0.537000	-0.327067
0.537100	-0.391009
0.537200	-0.417301
0.537300	-0.446188
0.537400	-0.473453
0.537500	-0.510456
0.537600	-0.579916
0.537700	-0.634446
0.537800	-0.687028
0.537900	-0.718188
0.538000	-0.773367
0.538100	-0.815238
0.538200	-0.881128
0.538300	-0.912288
0.538400	-0.957405
0.538500	-0.982073
0.538600	-1.024918
0.538700	-1.018426
0.538800	-0.960326
0.538900	-0.934360
0.539000	-0.931114
0.539100	-1.014856
0.539200	-1.078799
0.539300	-1.108011
0.539400	-1.050560
0.539500	-0.993433
0.539600	-0.984345
0.539700	-1.053157
0.539800	-1.144364
0.539900	-1.189157
0.540000	-1.171629
0.540100	-1.114827
0.540200	-1.086589
0.540300	-1.108660
0.540400	-1.137223
0.540500	-1.151830
0.540600	-1.151505
0.540700	-1.184612
0.540800	-1.182340
0.540900	-1.192402
0.541000	-1.158646
0.541100	-1.123915
0.541200	-1.097624
0.541300	-1.106388
0.541400	-1.096651
0.541500	-1.109309
0.541600	-1.072956
0.541700	-1.013558
0.541800	-0.957405
0.541900	-0.862627
0.542000	-0.845424
0.542100	-0.795114
0.542200	-0.747076
0.542300	-0.704231
0.542400	-0.658465
0.542500	-0.605558
0.542600	-0.557520
0.542700	-0.527983
0.542800	-0.515973
0.542900	-0.512403
0.543000	-0.508508
0.543100	-0.496823
0.543200	-0.501692
0.543300	-0.474752
0.543400	-0.444565
0.543500	-0.459172
0.543600	-0.450408
0.543700	-0.489358
0.543800	-0.463391
0.543900	-0.446837
0.544000	-0.334532
0.544100	-0.225797
0.544200	-0.172241
0.544300	-0.270590
0.544400	-0.322198
0.544500	-0.324795
0.544600	-0.236184
0.544700	-0.134914
0.544800	-0.078113
0.544900	-0.098237
0.545000	-0.152442
0.545100	-0.163802
0.545200	-0.133616
0.545300	-0.057989
0.545400	-0.033645
0.545500	-0.018065
0.545600	-0.034294
0.545700	-0.051497
0.545800	-0.094991
0.545900	-0.094991
0.546000	-0.106676
0.546100	-0.111545
0.546200	-0.123229
0.546300	-0.106027
0.546400	-0.094017
0.546500	-0.096938
0.546600	-0.095640
0.546700	-0.112518
0.546800	-0.113167
0.546900	-0.086552
0.547000	-0.084604
0.547100	-0.119010
0.547200	-0.232938
0.547300	-0.277730
0.547400	-0.274160
0.547500	-0.182953
0.547600	-0.143354
0.547700	-0.180031
0.547800	-0.252088
0.547900	-0.333883
0.548000	-0.317329
0.548100	-0.220929
0.548200	-0.177110
0.548300	-0.195936
0.548400	-0.262800
0.548500	-0.299477
0.548600	-0.306943
0.548700	-0.298828
0.548800	-0.287143
0.548900	-0.310838
0.549000	-0.313759
0.549100	-0.322847
0.549200	-0.310189
0.549300	-0.291687
0.549400	-0.294609
0.549500	-0.294609
0.549600	-0.260203
0.549700	-0.231640
0.549800	-0.207945
0.549900	-0.188146
0.550000	-0.217358
0.550100	-0.242026
0.550200	-0.236508
0.550300	-0.225148
0.550400	-0.208919
0.550500	-0.250141
0.550600	-0.270265
0.550700	-0.310838
0.550800	-0.349138
0.550900	-0.370885
0.551000	-0.403344
0.551100	-0.429635
0.551200	-0.439048
0.551300	-0.458847
0.551400	-0.459496
0.551500	-0.468260
0.551600	-0.480269
0.551700	-0.484814
0.551800	-0.486436
0.551900	-0.492928
0.552000	-0.513052
0.552100	-0.508833
0.552200	-0.567582
0.552300	-0.620489
0.552400	-0.748049
0.552500	-0.826598
0.552600	-0.806474
0.552700	-0.765577
0.552800	-0.727925
0.552900	-0.805176
0.553000	-0.958379
0.553100	-1.079772
0.553200	-1.104765
0.553300	-1.054455
0.553400	-1.043095
0.553500	-1.080097
0.553600	-1.195648
0.553700	-1.247257
0.553800	-1.302111
0.553900	-1.321261
0.554000	-1.325481
0.554100	-1.340736
0.554200	-1.372546
0.554300	-1.421233
0.554400	-1.464402
0.554500	-1.501080
0.554600	-1.519257
0.554700	-1.552364
0.554800	-1.563075
0.554900	-1.615658
0.555000	-1.639028
0.555100	-1.672135
0.555200	-1.719849
0.555300	-1.759448
0.555400	-1.760422
0.555500	-1.718226
0.555600	-1.704269
0.555700	-1.756851
0.555800	-1.869157
0.555900	-1.952575
0.556000	-1.964584
0.556100	-1.922388
0.556200	-1.875324
0.556300	-1.911028
0.556400	-2.023658
0.556500	-2.113892
0.556600	-2.145702
0.556700	-2.114866
0.556800	-2.070074
0.556900	-2.062284
0.557000	-2.077215
0.557100	-2.094742
0.557200	-2.101234
0.557300	-2.109348
0.557400	-2.126876
0.557500	-2.137262
0.557600	-2.122656
0.557700	-2.095067
0.557800	-2.047677
0.557900	-2.021711
0.558000	-2.029176
0.558100	-2.025930
0.558200	-2.028852
0.558300	-1.956145
0.558400	-1.882465
0.558500	-1.781520
0.558600	-1.753930
0.558700	-1.747763
0.558800	-1.715305
0.558900	-1.663696
0.559000	-1.595858
0.559100	-1.534512
0.559200	-1.496536
0.559300	-1.455314
0.559400	-1.453367
0.559500	-1.427400
0.559600	-1.424154
0.559700	-1.434541
0.559800	-1.425128
0.559900	-1.442006
0.560000	-1.427400
0.560100	-1.434865
0.560200	-1.456288
0.560300	-1.446550
0.560400	-1.502054
0.560500	-1.475438
0.560600	-1.472192
0.560700	-1.376440
0.560800	-1.318340
0.560900	-1.333596
0.561000	-1.475438
0.561100	-1.533538
0.561200	-1.521204
0.561300	-1.437787
0.561400	-1.350474
0.561500	-1.378713
0.561600	-1.408574
0.561700	-1.492966
0.561800	-1.472517
0.561900	-1.424479
0.562000	-1.348526
0.562100	-1.292049
0.562200	-1.276794
0.562300	-1.315094
0.562400	-1.305682
0.562500	-1.300813
0.562600	-1.287505
0.562700	-1.282312
0.562800	-1.271600
0.562900	-1.273548
0.563000	-1.300813
0.563100	-1.309901
0.563200	-1.336841
0.563300	-1.350149
0.563400	-1.381634
0.563500	-1.387801
0.563600	-1.382932
0.563700	-1.357615
0.563800	-1.434865
0.563900	-1.552040
0.564000	-1.612737
0.564100	-1.598130
0.564200	-1.538407
0.564300	-1.555285
0.564400	-1.620202
0.564500	-1.751009
0.564600	-1.802617
0.564700	-1.775352
0.564800	-1.695505
0.564900	-1.677328
0.565000	-1.689013
0.565100	-1.737376
0.565200	-1.741920
0.565300	-1.745491
0.565400	-1.716928
0.565500	-1.744842
0.565600	-1.764966
0.565700	-1.805214
0.565800	-1.813329
0.565900	-1.818847
0.566000	-1.836049
0.566100	-1.846436
0.566200	-1.862990
0.566300	-1.861042
0.566400	-1.870455
0.566500	-1.852279
0.566600	-1.882140
0.566700	-1.918493
0.566800	-1.932126
0.566900	-1.922713
0.567000	-1.896746
0.567100	-1.846111
0.567200	-1.847734
0.567300	-1.844813
0.567400	-1.888632
0.567500	-1.881166
0.567600	-1.891553
0.567700	-1.880842
0.567800	-1.894150
0.567900	-1.891553
0.568000	-1.891878
0.568100	-1.897720
0.568200	-1.906159
0.568300	-1.896097
0.568400	-1.909081
0.568500	-1.898694
0.568600	-1.898369
0.568700	-1.912326
0.568800	-1.917844
0.568900	-1.925310
0.569000	-1.989577
0.569100	-2.113892
0.569200	-2.144403
0.569300	-2.073320
0.569400	-1.985682
0.569500	-1.972050
0.569600	-2.036317
0.569700	-2.140508
0.569800	-2.233988
0.569900	-2.215811
0.570000	-2.162904
0.570100	-2.162255
0.570200	-2.223277
0.570300	-2.304423
0.570400	-2.377779
0.570500	-2.409263
0.570600	-2.406666
0.570700	-2.386867
0.570800	-2.391736
0.570900	-2.404719
0.571000	-2.424194
0.571100	-2.438800
0.571200	-2.444643
0.571300	-2.483917
0.571400	-2.510209
0.571500	-2.553703
0.571600	-2.569283
0.571700	-2.575450
0.571800	-2.606935
0.571900	-2.638744
0.572000	-2.653675
0.572100	-2.620567
0.572200	-2.571555
0.572300	-2.553378
0.572400	-2.618944
0.572500	-2.716644
0.572600	-2.787403
0.572700	-2.757866
0.572800	-2.713398
0.572900	-2.686133
0.573000	-2.725732
0.573100	-2.809150
0.573200	-2.856215
0.573300	-2.851346
0.573400	-2.806878
0.573500	-2.795518
0.573600	-2.800062
0.573700	-2.851995
0.573800	-2.880883
0.573900	-2.876015
0.574000	-2.885752
0.574100	-2.884778
0.574200	-2.901657
0.574300	-2.889322
0.574400	-2.833169
0.574500	-2.752673
0.574600	-2.701713
0.574700	-2.685808
0.574800	-2.656271
0.574900	-2.633226
0.575000	-2.567011
0.575100	-2.539097
0.575200	-2.470934
0.575300	-2.475478
0.575400	-2.474180
0.575500	-2.455679
0.575600	-2.465416
0.575700	-2.438800
0.575800	-2.420299
0.575900	-2.381998
0.576000	-2.381674
0.576100	-2.361225
0.576200	-2.364146
0.576300	-2.344671
0.576400	-2.342399
0.576500	-2.297606
0.576600	-2.285597
0.576700	-2.253139
0.576800	-2.244375
0.576900	-2.233664
0.577000	-2.202179
0.577100	-2.238532
0.577200	-2.200881
0.577300	-2.201530
0.577400	-2.111296
0.577500	-2.067152
0.577600	-2.121682
0.577700	-2.266122
0.577800	-2.329740
0.577900	-2.318704
0.578000	-2.266122
0.578100	-2.188547
0.578200	-2.197635
0.578300	-2.263525
0.578400	-2.306370
0.578500	-2.311564
0.578600	-2.248594
0.578700	-2.191143
0.578800	-2.148298
0.578900	-2.164527
0.579000	-2.154465
0.579100	-2.172317
0.579200	-2.150895
0.579300	-2.121682
0.579400	-2.106102
0.579500	-2.080460
0.579600	-2.092794
0.579700	-2.092470
0.579800	-2.119410
0.579900	-2.104479
0.580000	-2.089224
0.580100	-2.090847
0.580200	-2.055792
0.580300	-2.010675
0.580400	-1.962312
0.580500	-2.015219
0.580600	-2.116164
0.580700	-2.088575
0.580800	-2.026904
0.580900	-1.950303
0.581000	-1.954198
0.581100	-2.032422
0.581200	-2.142131
0.581300	-2.168422
0.581400	-2.118437
0.581500	-2.041510
0.581600	-2.046379
0.581700	-2.105453
0.581800	-2.146351
0.581900	-2.152842
0.582000	-2.136613
0.582100	-2.089224
0.582200	-2.088575
0.582300	-2.077215
0.582400	-2.074293
0.582500	-2.016193
0.582600	-1.970751
0.582700	-1.967830
0.582800	-1.983410
0.582900	-1.999639
0.583000	-1.995420
0.583100	-1.974971
0.583200	-1.974322
0.583300	-2.006780
0.583400	-2.044107
0.583500	-2.062933
0.583600	-2.061635
0.583700	-2.032747
0.583800	-2.048002
0.583900	-2.048976
0.584000	-2.039887
0.584100	-2.037291
0.584200	-2.041510
0.584300	-2.038589
0.584400	-2.037940
0.584500	-2.057090
0.584600	-2.088250
0.584700	-2.085329
0.584800	-2.104479
0.584900	-2.106102
0.585000	-2.109673
0.585100	-2.120384
0.585200	-2.145377
0.585300	-2.168747
0.585400	-2.176862
0.585500	-2.217110
0.585600	-2.256060
0.585700	-2.357330
0.585800	-2.485865
0.585900	-2.510858
0.586000	-2.473855
0.586100	-2.406991
0.586200	-2.431659
0.586300	-2.569283
0.586400	-2.707880
0.586500	-2.782534
0.586600	-2.757866
0.586700	-2.727030
0.586800	-2.754945
0.586900	-2.809150
0.587000	-2.913991
0.587100	-2.948397
0.587200	-2.959433
0.587300	-2.958783
0.587400	-2.989619
0.587500	-3.002602
0.587600	-3.038307
0.587700	-3.082450
0.587800	-3.115558
0.587900	-3.150288
0.588000	-3.163272
0.588100	-3.209038
0.588200	-3.254155
0.588300	-3.300246
0.588400	-3.342767
0.588500	-3.375225
0.588600	-3.423588
0.588700	-3.441116
0.588800	-3.405412
0.588900	-3.369707
0.589000	-3.359645
0.589100	-3.436896
0.589200	-3.518043
0.589300	-3.547255
0.589400	-3.504085
0.589500	-3.425861
0.589600	-3.408333
0.589700	-3.468381
0.589800	-3.574196
0.589900	-3.621585
0.590000	-3.622234
0.590100	-3.583609
0.590200	-3.563809
0.590300	-3.566406
0.590400	-3.583284
0.590500	-3.569652
0.590600	-3.574196
0.590700	-3.541413
0.590800	-3.514797
0.590900	-3.483312
0.591000	-3.435273
0.591100	-3.372629
0.591200	-3.335626
0.591300	-3.298623
0.591400	-3.289535
0.591500	-3.277850
0.591600	-3.225916
0.591700	-3.157429
0.591800	-3.079204
0.591900	-3.011042
0.592000	-2.995137
0.592100	-2.966573
0.592200	-2.921456
0.592300	-2.865628
0.592400	-2.808826
0.592500	-2.758191
0.592600	-2.724434
0.592700	-2.704310
0.592800	-2.667307
0.592900	-2.670553
0.593000	-2.663412
0.593100	-2.654324
0.593200	-2.630629
0.593300	-2.599145
0.593400	-2.615698
0.593500	-2.566037
0.593600	-2.593951
0.593700	-2.580643
0.593800	-2.583240
0.593900	-2.519946
0.594000	-2.459249
0.594100	-2.346619
0.594200	-2.303774
0.594300	-2.370313
0.594400	-2.419001
0.594500	-2.465416
0.594600	-2.377454
0.594700	-2.272938
0.594800	-2.200556
0.594900	-2.207048
0.595000	-2.260929
0.595100	-2.271964
0.595200	-2.248919
0.595300	-2.168098
0.595400	-2.111296
0.595500	-2.090847
0.595600	-2.087926
0.595700	-2.101234
0.595800	-2.085654
0.595900	-2.111296
0.596000	-2.103506
0.596100	-2.078837
0.596200	-2.077215
0.596300	-2.074942
0.596400	-2.121033
0.596500	-2.143754
0.596600	-2.166799
0.596700	-2.181081
0.596800	-2.183029
0.596900	-2.155764
0.597000	-2.139534
0.597100	-2.113243
0.597200	-2.178160
0.597300	-2.247296
0.597400	-2.216136
0.597500	-2.146026
0.597600	-2.094093
0.597700	-2.143105
0.597800	-2.239831
0.597900	-2.338179
0.598000	-2.345645
0.598100	-2.300203
0.598200	-2.234962
0.598300	-2.233664
0.598400	-2.276833
0.598500	-2.308967
0.598600	-2.282676
0.598700	-2.272614
0.598800	-2.224575
0.598900	-2.263201
0.599000	-2.255735
0.599100	-2.247945
0.599200	-2.214189
0.599300	-2.208671
0.599400	-2.233014
0.599500	-2.257683
0.599600	-2.266122
0.599700	-2.261578
0.599800	-2.255411
0.599900	-2.275859
0.600000	-2.329740
0.600100	-2.414132
0.600200	-2.432633
0.600300	-2.435554
0.600400	-2.423220
0.600500	-2.448538
0.600600	-2.441721
0.600700	-2.420948
0.600800	-2.441721
0.600900	-2.441072
0.601000	-2.454380
0.601100	-2.457301
0.601200	-2.455679
0.601300	-2.431984
0.601400	-2.428089
0.601500	-2.404070
0.601600	-2.388814
0.601700	-2.386218
0.601800	-2.363172
0.601900	-2.362523
0.602000	-2.353759
0.602100	-2.366743
0.602200	-2.384919
0.602300	-2.402771
0.602400	-2.516700
0.602500	-2.572204
0.602600	-2.600767
0.602700	-2.536175
0.602800	-2.475478
0.602900	-2.528061
0.603000	-2.644586
0.603100	-2.765656
0.603200	-2.788701
0.603300	-2.745532
0.603400	-2.724109
0.603500	-2.740663
0.603600	-2.818563
0.603700	-2.871470
0.603800	-2.924702
0.603900	-2.902955
0.604000	-2.913991
0.604100	-2.916588
0.604200	-2.941256
0.604300	-2.964951
0.604400	-2.989294
0.604500	-3.010717
0.604600	-3.039930
0.604700	-3.070765
0.604800	-3.075309
0.604900	-3.126594
0.605000	-3.139252
0.605100	-3.154508
0.605200	-3.199950
0.605300	-3.194432
0.605400	-3.215530
0.605500	-3.184045
0.605600	-3.157104
0.605700	-3.182422
0.605800	-3.268762
0.605900	-3.337898
0.606000	-3.367760
0.606100	-3.297325
0.606200	-3.220074
0.606300	-3.229487
0.606400	-3.301869
0.606500	-3.399894
